Software Version:	3.9.2.0
Unit SN:	10000200
Spectrometer SN:	6960
Date:	3/6/2024 10:06:18 AM
Data Line Index:	25
Spectral Points:	2048
Integration time (ms):	125
Averages:	20
Delay (ms):	30
Sequence Number:	1
Processing:	dark subtract
Laser Power (mW):	300
Laser Current (mA):	824
Laser Diode Temp (C):	25.1
Laser Case Temp (C):	24.8
System Temp (C):	24.6
Spectrometer Temp (C):	22.2
CCD Temp (C):	-0.006
Secondary Temp (C):	20.013
Heatsink Temp (C):	18.516
CCDPCB Temp (C):	31.972
SecondaryPCB Temp (C):	26.169

Wavelength	RamanShift	Raw Counts	Dark Subtracted
787.061	30.1047	695.9	286.6
787.2016	32.3739	707.65	299.4
787.3422	34.6426	725.95	318.55
787.4828	36.9109	747.35	337.85
787.6235	39.1787	770.5	357.85
787.7642	41.4461	795.15	378.15
787.9049	43.7131	824.3	401.9
788.0456	45.9796	855.05	431.95
788.1863	48.2456	880.8	454.25
788.3271	50.5112	912.6	479.7
788.4679	52.7764	938.4	503.2
788.6087	55.0411	973.35	535.8
788.7496	57.3054	1003.35	559.6
788.8904	59.5692	1046.2	599.65
789.0313	61.8326	1087.1	639.25
789.1722	64.0955	1131.35	681.65
789.3132	66.3579	1187.05	732.2
789.4541	68.6199	1257	798.25
789.5951	70.8815	1370.7	905.1
789.7361	73.1426	1629.7	1160.7
789.8771	75.4032	2265.1	1794.15
790.0181	77.6634	3908.5	3431.75
790.1592	79.9231	7978.1	7499.25
790.3003	82.1824	18676.2	18187
790.4414	84.4412	39703.05	39194.3
790.5825	86.6995	51939	51413.7
790.7237	88.9574	57885	57343.85
790.8648	91.2148	61360.25	60805.05
791.006	93.4717	62221.2	61659.9
791.1472	95.7282	62622.35	62060.65
791.2885	97.9842	62824.05	62255
791.4297	100.2398	62832.1	62263.4
791.571	102.4949	62811.5	62236.85
791.7123	104.7495	62853.9	62275.8
791.8536	107.0036	62723.75	62143.8
791.9949	109.2573	62922.45	62346.1
792.1363	111.5105	62799.15	62220.2
792.2777	113.7632	62858.7	62277.15
792.4191	116.0154	62925.3	62333.35
792.5605	118.2672	63051.4	62463.25
792.7019	120.5185	63055.5	62467.95
792.8434	122.7693	63070.25	62479.1
792.9849	125.0197	62879.65	62285.15
793.1264	127.2696	63250.6	62650.55
793.2679	129.519	63178.65	62576.6
793.4094	131.7679	63332.9	62728
793.551	134.0163	62972	62365.7
793.6926	136.2642	63120.8	62508.95
793.8342	138.5117	63355.15	62740.45
793.9758	140.7587	63292.7	62681
794.1175	143.0052	63287.9	62667.6
794.2591	145.2512	63096.15	62479.75
794.4008	147.4967	63346.2	62724.9
794.5425	149.7417	63273.35	62649.4
794.6842	151.9863	63271.2	62643.95
794.826	154.2304	63141.25	62511.65
794.9677	156.4739	63231.15	62591.75
795.1095	158.717	63403.15	62768.05
795.2513	160.9596	63288.05	62647.65
795.3931	163.2017	63116.3	62475.4
795.535	165.4433	63333.1	62688.4
795.6768	167.6844	63224.9	62577.9
795.8187	169.925	63330.4	62682.45
795.9606	172.1651	63208.25	62556.6
796.1025	174.4047	63301.4	62644.7
796.2445	176.6439	63284.8	62626.45
796.3864	178.8825	63233.25	62569.8
796.5284	181.1206	63428.5	62761.55
796.6704	183.3582	63387.15	62717.05
796.8124	185.5954	63312.75	62641.4
796.9544	187.832	63334.85	62659.5
797.0965	190.0681	63204.7	62527.55
797.2386	192.3037	63428.75	62748.7
797.3806	194.5388	63674.9	62988.6
797.5228	196.7734	63114.9	62431.1
797.6649	199.0075	63650.1	62961.7
797.807	201.2411	63434.4	62747.1
797.9492	203.4742	63735.15	63043.4
798.0914	205.7068	63645.2	62951.05
798.2336	207.9389	63631.05	62934.55
798.3758	210.1704	63581.55	62890
798.518	212.4015	63817.7	63133.95
798.6603	214.632	63570.65	62899.45
798.8025	216.862	63844.1	63173.2
798.9448	219.0915	63679.35	63002.5
799.0871	221.3205	63666.95	62987.45
799.2294	223.549	63881.3	63207.6
799.3718	225.777	63832.4	63159.35
799.5141	228.0044	63982.05	63302.05
799.6565	230.2314	63889.1	63210.6
799.7989	232.4578	63885.1	63201.95
799.9413	234.6837	63897.45	63204.7
800.0837	236.909	64283.05	63587.7
800.2262	239.1339	63731.35	63010.35
800.3687	241.3582	64027.35	63318.55
800.5111	243.582	64048.6	63312.65
800.6536	245.8053	63995.1	63271
800.7961	248.0281	64051.35	63331.35
800.9387	250.2503	64118	63396.65
801.0812	252.472	63930.15	63205.4
801.2238	254.6932	64078.15	63356.8
801.3664	256.9139	63986.35	63260.7
801.509	259.134	64317.85	63585.25
801.6516	261.3536	63953.65	63226.75
801.7942	263.5727	64172.25	63445.7
801.9369	265.7912	64069.3	63340.1
802.0795	268.0092	64144.1	63413.3
802.2222	270.2267	64175.55	63447.7
802.3649	272.4436	63981.1	63249.7
802.5076	274.6601	64173.15	63428.3
802.6504	276.8759	64250.95	63510.25
802.7931	279.0913	64133.75	63392.15
802.9359	281.3061	64195.3	63455.9
803.0787	283.5204	64201.4	63458.2
803.2215	285.7341	64189.1	63443.75
803.3643	287.9473	64308.8	63550.8
803.5071	290.16	64220.45	63470.15
803.6499	292.3721	64275.3	63532.95
803.7928	294.5837	64176.95	63431.05
803.9357	296.7947	64057.3	63312.85
804.0786	299.0052	64314.2	63571.9
804.2215	301.2152	64226.05	63477.45
804.3644	303.4246	64312.5	63565.65
804.5074	305.6334	64310.65	63563.5
804.6503	307.8418	64140.85	63391.8
804.7933	310.0495	64150	63398.2
804.9363	312.2568	64174.2	63423.65
805.0793	314.4635	64167.1	63411.2
805.2223	316.6696	64247.35	63491.05
805.3653	318.8752	64304.75	63540.65
805.5084	321.0802	63944.5	63185.5
805.6514	323.2847	64137.55	63377.6
805.7945	325.4887	64118.55	63356.8
805.9376	327.692	64036.8	63277.4
806.0807	329.8949	64147.05	63382.95
806.2238	332.0972	64065.6	63297.95
806.367	334.2989	64156.85	63388.55
806.5101	336.5001	64235.2	63464.45
806.6533	338.7007	63972.45	63200.85
806.7965	340.9008	64155.05	63383.5
806.9397	343.1003	64195.55	63421.4
807.0829	345.2992	64251.4	63480.2
807.2261	347.4976	64108.25	63332.85
807.3693	349.6955	64171	63389.15
807.5126	351.8927	64060.9	63280.1
807.6559	354.0895	64177.9	63386
807.7991	356.2856	64169	63386.25
807.9424	358.4812	64285.7	63503.1
808.0857	360.6763	64047.55	63262.75
808.2291	362.8707	64263.1	63475.4
808.3724	365.0646	64140.35	63350.35
808.5158	367.258	64155.4	63365.75
808.6591	369.4508	63991.3	63197.3
808.8025	371.643	64214.65	63419.95
808.9459	373.8346	64126.55	63330.85
809.0893	376.0257	64157.1	63356.6
809.2327	378.2162	64116.85	63318.85
809.3762	380.4062	63903.9	63103.7
809.5196	382.5956	64106.25	63312.2
809.6631	384.7844	64093.95	63299.8
809.8066	386.9726	64167.65	63376.85
809.9501	389.1603	64151.5	63365.65
810.0936	391.3474	64014.05	63185.4
810.2371	393.5339	64142.7	63350.45
810.3806	395.7199	63905.35	63113.2
810.5241	397.9052	63951.25	63159
810.6677	400.09	63994.75	63202.65
810.8113	402.2743	64151.45	63358.4
810.9548	404.4579	63958.25	63163.95
811.0984	406.641	63973.85	63179.35
811.2421	408.8235	64035.05	63239.25
811.3857	411.0054	64084.8	63285.5
811.5293	413.1868	64092.75	63288.65
811.673	415.3675	64022.45	63214.6
811.8166	417.5477	64044.95	63237.15
811.9603	419.7273	64032	63222.1
812.104	421.9064	64003.3	63187.05
812.2477	424.0848	64019.95	63210.25
812.3914	426.2627	64149.7	63338.4
812.5351	428.4399	63978.25	63167.15
812.6788	430.6166	63763.85	62946.25
812.8226	432.7928	64021.35	63202.3
812.9663	434.9683	63849	63031.25
813.1101	437.1432	63828.75	63010.15
813.2539	439.3176	64007.35	63192.75
813.3977	441.4914	63705.05	62893.3
813.5415	443.6645	63760.95	62945.9
813.6853	445.8371	63774.9	62957.8
813.8291	448.0091	63659.85	62842.65
813.973	450.1806	63609.55	62790
814.1168	452.3514	63646.6	62825.6
814.2607	454.5216	63510.6	62686.4
814.4046	456.6913	63654.55	62832.35
814.5485	458.8603	63690	62870.25
814.6924	461.0288	63489.15	62672
814.8363	463.1967	63671.2	62854.1
814.9802	465.3639	63617.5	62798.8
815.1241	467.5306	63339.8	62516.3
815.2681	469.6967	63548.35	62728.55
815.412	471.8622	63614.65	62796.55
815.556	474.0271	63473.8	62653.9
815.7	476.1914	63523.2	62700
815.844	478.3551	63541.25	62715.85
815.988	480.5182	63728.8	62905.3
816.132	482.6807	63443.6	62621
816.276	484.8426	63462.3	62644.45
816.4201	487.0039	63701.3	62877
816.5641	489.1647	63677.15	62851.9
816.7082	491.3248	63410.35	62580.25
816.8522	493.4843	63700.5	62875.8
816.9963	495.6432	63719.8	62895.15
817.1404	497.8015	63416.85	62583.7
817.2845	499.9592	63571.75	62738.75
817.4286	502.1163	63552.95	62721.6
817.5727	504.2728	63553	62722.35
817.7168	506.4287	63519.25	62691.1
817.861	508.5839	63409.9	62581.85
818.0051	510.7386	63528.05	62697.2
818.1493	512.8927	63558.5	62724
818.2935	515.0461	63488.3	62653
818.4377	517.199	63613.3	62778.65
818.5818	519.3512	63464.1	62629.05
818.726	521.5029	63461.05	62619.15
818.8703	523.6539	63508.4	62670.2
819.0145	525.8043	63289.9	62452.6
819.1587	527.9541	63465.6	62625.95
819.303	530.1033	63461.35	62619.75
819.4472	532.2519	63375.55	62537.35
819.5915	534.3999	63510.9	62667.95
819.7357	536.5472	63566.85	62728.05
819.88	538.694	63314.75	62475.25
820.0243	540.8401	63452.55	62608.85
820.1686	542.9856	63466.9	62618.85
820.3129	545.1305	63575.2	62728.85
820.4572	547.2748	63391.2	62543.35
820.6016	549.4185	63362.15	62513.45
820.7459	551.5615	63528	62680.3
820.8902	553.704	63471.8	62626.4
821.0346	555.8458	63366.6	62525.75
821.1789	557.987	63384.4	62542.95
821.3233	560.1276	63443.2	62598.75
821.4677	562.2675	63383.85	62537.25
821.6121	564.4069	63382.2	62535.7
821.7565	566.5456	63493.9	62650.75
821.9009	568.6837	63295.2	62449.45
822.0453	570.8212	63373.45	62529.7
822.1897	572.958	63164.2	62316.85
822.3342	575.0942	63353.25	62508.5
822.4786	577.2299	63210.4	62364.05
822.6231	579.3648	63179	62338.55
822.7675	581.4992	63110.5	62268.55
822.912	583.6329	63124.15	62283.35
823.0565	585.766	63112	62268.4
823.201	587.8985	63164.05	62320.65
823.3454	590.0304	62933.75	62062.85
823.4899	592.1616	63115.3	62266.7
823.6345	594.2922	63017.05	62166.6
823.779	596.4222	62899.85	62045.95
823.9235	598.5515	62938.65	62086.8
824.068	600.6802	62991	62137.15
824.2126	602.8083	62840.35	61989.95
824.3571	604.9358	62830.9	61977.6
824.5017	607.0626	62947.85	62095.9
824.6462	609.1888	62756.65	61900.5
824.7908	611.3144	62868.65	62011.3
824.9354	613.4393	62762.75	61908.05
825.08	615.5636	62687.6	61831.6
825.2246	617.6873	62790.65	61933.15
825.3692	619.8103	62668.45	61810.05
825.5138	621.9327	62779.7	61921.4
825.6584	624.0544	62784.5	61930.5
825.803	626.1756	62695.4	61839.75
825.9477	628.2961	62709.8	61851.65
826.0923	630.4159	62612	61751.8
826.237	632.5351	62627.05	61770.4
826.3816	634.6537	62839.45	61979.25
826.5263	636.7716	62595.35	61732
826.6709	638.8889	62654.8	61790.4
826.8156	641.0056	62627.3	61762.8
826.9603	643.1216	62649.6	61785.4
827.105	645.237	62717.95	61854.35
827.2497	647.3518	62563.95	61702.05
827.3944	649.4659	62596.75	61738.8
827.5391	651.5793	62587.95	61726.25
827.6838	653.6922	62609.05	61750.9
827.8285	655.8043	62470.8	61609.8
827.9733	657.9159	62687.35	61822.75
828.118	660.0268	62333.55	61469.3
828.2627	662.137	62506.2	61643.6
828.4075	664.2466	62537.5	61667.85
828.5522	666.3556	62467	61606.05
828.697	668.4639	62497.15	61630.6
828.8418	670.5716	62439.9	61577.5
828.9865	672.6786	62489.15	61619.25
829.1313	674.785	62352.1	61483.8
829.2761	676.8907	62373.2	61506.1
829.4209	678.9958	62389.4	61529.05
829.5657	681.1002	62416.8	61549.8
829.7105	683.204	62279.85	61406.4
829.8553	685.3072	62238.8	61369.3
830.0001	687.4097	62272.45	61405.95
830.1449	689.5115	62241.1	61370.75
830.2898	691.6127	62308.15	61439.25
830.4346	693.7132	62204.1	61338.15
830.5794	695.8131	62247.7	61355.3
830.7243	697.9123	62237.05	61366
830.8691	700.0109	62271.45	61402.4
831.014	702.1089	62111.45	61242.3
831.1588	704.2061	62166.1	61293.3
831.3037	706.3028	62190.45	61316.55
831.4486	708.3987	62198.7	61324.5
831.5935	710.4941	62115.65	61241.9
831.7383	712.5887	62183.25	61311.05
831.8832	714.6827	62102.75	61225.7
832.0281	716.7761	62167.15	61293.3
832.173	718.8688	62161	61288.1
832.3179	720.9608	62066.35	61189.55
832.4628	723.0522	62054.8	61175.85
832.6077	725.1429	61925.55	61048.1
832.7527	727.233	62203.25	61328.8
832.8976	729.3224	61841.8	60967.95
833.0425	731.4112	61962.2	61088.7
833.1874	733.4993	61948.15	61070.9
833.3324	735.5867	61939.9	61063.4
833.4773	737.6735	61851.1	60975.15
833.6222	739.7596	61774.1	60895.25
833.7672	741.845	61748.05	60871.1
833.9122	743.9298	61839.7	60960.6
834.0571	746.014	61719.6	60843.5
834.2021	748.0974	61634.95	60754.7
834.347	750.1802	61753.65	60874.65
834.492	752.2624	61525.2	60646.15
834.637	754.3439	61543.15	60661.75
834.782	756.4247	61581.3	60694.9
834.9269	758.5048	61444	60568.75
835.0719	760.5843	61463.4	60584.6
835.2169	762.6631	61454.45	60572.65
835.3619	764.7413	61405.45	60527.45
835.5069	766.8188	61403.15	60521.75
835.6519	768.8956	61434.25	60552.65
835.7969	770.9718	61424.35	60543.6
835.9419	773.0473	61373.55	60492.95
836.0869	775.1221	61255.8	60377.2
836.232	777.1962	61240.3	60357.95
836.377	779.2697	61079.7	60196.9
836.522	781.3426	61155.8	60255.85
836.667	783.4147	61148.2	60265.65
836.8121	785.4862	61111.85	60232.85
836.9571	787.557	60979.75	60098.65
837.1021	789.6271	61076.1	60194.45
837.2472	791.6966	60988.85	60108.85
837.3922	793.7654	60840.95	59956.6
837.5373	795.8335	60883.25	60003.85
837.6823	797.901	60876.65	59991.55
837.8274	799.9678	60798.95	59913.85
837.9724	802.0339	60753.8	59870.7
838.1175	804.0993	60739	59845.25
838.2626	806.1641	60662	59777.45
838.4076	808.2282	60615.15	59730.95
838.5527	810.2916	60578.25	59696.8
838.6978	812.3544	60665.35	59786.75
838.8428	814.4164	60479.15	59598.6
838.9879	816.4778	60496.25	59612.1
839.133	818.5385	60503.6	59619.9
839.2781	820.5986	60508.2	59626
839.4232	822.658	60478.5	59591.95
839.5682	824.7166	60478.7	59595.35
839.7133	826.7747	60345.75	59461.4
839.8584	828.832	60390.1	59502.25
840.0035	830.8886	60422.55	59532.25
840.1486	832.9446	60400.4	59512.5
840.2937	834.9999	60163.6	59276.1
840.4388	837.0545	60277.35	59387.8
840.5839	839.1085	60310.25	59423.8
840.729	841.1618	60239.1	59349.1
840.8741	843.2143	60080.8	59196
841.0192	845.2662	60033.7	59144.45
841.1643	847.3175	60081	59194.2
841.3095	849.368	59852	58964.3
841.4546	851.4179	60032.55	59144.35
841.5997	853.467	59838.8	58953.95
841.7448	855.5155	59920.05	59033.1
841.8899	857.5633	59782.05	58893.65
842.0351	859.6105	59696.5	58810.35
842.1802	861.6569	59760.2	58870.6
842.3253	863.7027	59615.95	58725.8
842.4704	865.7478	59645	58756.1
842.6156	867.7922	59585.1	58695.35
842.7607	869.8359	59610.75	58722.85
842.9058	871.8789	59409.7	58518.7
843.0509	873.9212	59550.35	58628.9
843.1961	875.9629	59503.5	58614.45
843.3412	878.0039	59441.05	58552.8
843.4863	880.0441	59384.05	58495.35
843.6315	882.0837	59358.35	58470.15
843.7766	884.1226	59342.5	58449.9
843.9218	886.1609	59326.65	58435.8
844.0669	888.1984	59266.35	58374.6
844.212	890.2352	59430.75	58541.6
844.3572	892.2714	59203.1	58309.65
844.5023	894.3069	59275.35	58382.6
844.6475	896.3416	59133.75	58242.45
844.7926	898.3757	59127.7	58236.3
844.9377	900.4091	58927.9	58036.8
845.0829	902.4418	59161.6	58264.35
845.228	904.4739	58986.75	58094.05
845.3732	906.5052	59002.5	58111.1
845.5183	908.5358	58908.8	58016.15
845.6635	910.5658	58826.7	57935.15
845.8086	912.595	58813.55	57917.75
845.9538	914.6236	58614.1	57720.4
846.0989	916.6515	58850.15	57960.5
846.2441	918.6786	58533.2	57639.95
846.3892	920.7051	58584.25	57689.8
846.5344	922.7309	58552.8	57657.9
846.6795	924.756	58556.2	57664.9
846.8246	926.7804	58441.25	57547.15
846.9698	928.8041	58200.95	57305.95
847.1149	930.8272	58328.35	57436
847.2601	932.8495	58253.7	57359.3
847.4052	934.8711	58151.85	57258.2
847.5504	936.892	58035.3	57139.5
847.6955	938.9123	58052.45	57157.85
847.8407	940.9318	57949.05	57056.9
847.9858	942.9506	57880.85	56988.15
848.131	944.9688	57870.4	56975.1
848.2761	946.9862	57663.75	56772.65
848.4213	949.003	57676.4	56781.4
848.5664	951.019	57538.25	56645.2
848.7115	953.0344	57512.05	56619.7
848.8567	955.0491	57482.75	56588.1
849.0018	957.063	57486.1	56592.3
849.147	959.0763	57513.25	56620.6
849.2921	961.0888	57403.5	56507.45
849.4373	963.1007	57455.45	56564.1
849.5824	965.1119	57435.25	56545.2
849.7275	967.1223	57349.8	56460.85
849.8727	969.1321	57378.5	56486.65
850.0178	971.1412	57239.35	56351.05
850.1629	973.1495	57165.85	56270.65
850.3081	975.1572	57191.5	56260.4
850.4532	977.1641	57127.15	56232.6
850.5983	979.1704	57037.95	56141.2
850.7435	981.1759	57042.35	56143.7
850.8886	983.1808	56951.5	56056.55
851.0337	985.1849	56907.5	56003.4
851.1788	987.1884	56887.45	55990.1
851.324	989.1911	56931.9	56032.85
851.4691	991.1932	56745.6	55851.35
851.6142	993.1945	56726.8	55833.5
851.7593	995.1951	56646.45	55751.45
851.9045	997.1951	56561.5	55661.05
852.0496	999.1943	56470.25	55574
852.1947	1001.1928	56400.75	55506.3
852.3398	1003.1906	56359.3	55464.15
852.4849	1005.1877	56243.05	55348.25
852.63	1007.1841	56148.9	55254.6
852.7751	1009.1798	56126.45	55232.65
852.9202	1011.1748	56070.8	55174.55
853.0653	1013.1691	56049.5	55155.4
853.2104	1015.1627	55822.8	54926.55
853.3555	1017.1556	55728.25	54832.2
853.5006	1019.1477	55765.25	54869.95
853.6457	1021.1392	55617.7	54728.75
853.7908	1023.1299	55457.55	54565.1
853.9359	1025.12	55491.15	54597
854.081	1027.1093	55364.7	54476.35
854.2261	1029.0979	55318.8	54433.7
854.3712	1031.0859	55259.3	54370.65
854.5163	1033.0731	55131.7	54238.5
854.6613	1035.0596	55093.2	54199
854.8064	1037.0454	54984.45	54091.15
854.9515	1039.0304	54914.9	54019.15
855.0965	1041.0148	54720.4	53827.75
855.2416	1042.9985	54682.55	53787.9
855.3867	1044.9814	54745.35	53849.5
855.5317	1046.9636	54559.75	53665.75
855.6768	1048.9452	54528.85	53634.7
855.8219	1050.926	54492.55	53596.4
855.9669	1052.9061	54461.3	53564.65
856.112	1054.8855	54414.5	53518.75
856.257	1056.8642	54337.9	53443.5
856.4021	1058.8421	54283.3	53382.1
856.5471	1060.8194	54243.85	53345.5
856.6921	1062.7959	54157.3	53262.15
856.8372	1064.7717	54195	53296.3
856.9822	1066.7469	54144.95	53248.65
857.1272	1068.7213	54131	53232.45
857.2723	1070.695	54050.8	53155
857.4173	1072.6679	53909.5	53012.5
857.5623	1074.6402	53930.85	53034.55
857.7073	1076.6117	53880.1	52980.25
857.8523	1078.5826	53873	52976.3
857.9973	1080.5527	53819.7	52919.4
858.1423	1082.5221	53676.25	52780.1
858.2873	1084.4908	53673	52778.05
858.4323	1086.4587	53605.25	52708.65
858.5773	1088.426	53569.5	52671.5
858.7223	1090.3925	53514.5	52612.4
858.8673	1092.3584	53459.85	52564.1
859.0123	1094.3235	53372.55	52476.95
859.1573	1096.2879	53320.5	52423.7
859.3022	1098.2515	53297.1	52401.15
859.4472	1100.2145	53278.35	52381.15
859.5922	1102.1767	53227.3	52327.8
859.7371	1104.1382	53187.25	52291.6
859.8821	1106.099	53143.9	52244.15
860.027	1108.0591	53086	52191
860.172	1110.0185	52997.65	52096.35
860.3169	1111.9771	53089.15	52190.6
860.4619	1113.9351	52949.45	52051.75
860.6068	1115.8923	52905.7	52008
860.7517	1117.8488	52799.15	51899.8
860.8967	1119.8045	52661	51763.15
861.0416	1121.7596	52690.3	51793.1
861.1865	1123.7139	52552.85	51657.15
861.3314	1125.6675	52497.45	51601.75
861.4763	1127.6204	52518.7	51622.1
861.6212	1129.5726	52376.35	51479.3
861.7661	1131.524	52448.45	51553.25
861.911	1133.4748	52385.55	51487.3
862.0559	1135.4248	52255.8	51357.35
862.2008	1137.3741	52245.3	51349
862.3457	1139.3226	52178.15	51282.4
862.4905	1141.2705	52171.55	51271.75
862.6354	1143.2176	52035.75	51133.5
862.7803	1145.164	51955.4	51055.25
862.9251	1147.1097	51983.35	51084.4
863.07	1149.0546	51914.7	51017.25
863.2148	1150.9989	51922.3	51025.55
863.3597	1152.9424	51782.75	50884.55
863.5045	1154.8852	51809.5	50913.25
863.6493	1156.8272	51689.65	50793.35
863.7942	1158.7686	51806.95	50902.25
863.939	1160.7092	51592.85	50693.95
864.0838	1162.6491	51567.05	50668.35
864.2286	1164.5883	51585.85	50690.5
864.3734	1166.5267	51472.95	50574.6
864.5182	1168.4644	51535.75	50640
864.663	1170.4014	51481.5	50579.05
864.8078	1172.3377	51580.15	50682.1
864.9526	1174.2732	51531.85	50634.35
865.0974	1176.2081	51523.05	50626.45
865.2421	1178.1421	51453.2	50554.1
865.3869	1180.0755	51566.85	50672.45
865.5317	1182.0082	51426.75	50532.45
865.6764	1183.9401	51440.65	50543.7
865.8212	1185.8713	51301.6	50407.85
865.9659	1187.8017	51249.35	50354.5
866.1106	1189.7315	51209.35	50320.2
866.2554	1191.6605	51110.65	50191
866.4001	1193.5888	50958.85	50067.1
866.5448	1195.5163	50869.55	49975
866.6895	1197.4432	50847.8	49950.45
866.8342	1199.3693	50767.75	49871.85
866.9789	1201.2947	50669.6	49764.3
867.1236	1203.2193	50622.05	49723.35
867.2683	1205.1432	50545.95	49648.75
867.413	1207.0664	50484.6	49588.1
867.5576	1208.9889	50427.25	49526.65
867.7023	1210.9106	50320.35	49423.1
867.847	1212.8316	50247.45	49350.5
867.9916	1214.7519	50242.65	49337.45
868.1363	1216.6715	50146.45	49248.35
868.2809	1218.5903	50130.5	49234.7
868.4255	1220.5084	50071.3	49173.35
868.5701	1222.4257	50101.05	49204.6
868.7148	1224.3424	49943.2	49047.4
868.8594	1226.2583	49906.55	49002.7
869.004	1228.1735	49926.9	49031.25
869.1486	1230.0879	49806.65	48911.65
869.2932	1232.0016	49838.35	48942.4
869.4377	1233.9146	49752.85	48854.25
869.5823	1235.8269	49676.55	48779.5
869.7269	1237.7384	49655.2	48759.75
869.8715	1239.6492	49548.5	48653.75
870.016	1241.5592	49505.05	48606.55
870.1606	1243.4686	49478.35	48580.55
870.3051	1245.3772	49408.2	48510
870.4496	1247.285	49367.75	48470.85
870.5941	1249.1922	49283.45	48387.9
870.7387	1251.0986	49348.15	48452.2
870.8832	1253.0042	49220.3	48322.25
871.0277	1254.9092	49244.1	48347.25
871.1722	1256.8134	49160	48263.1
871.3167	1258.7169	49199.35	48303.9
871.4611	1260.6196	49109.55	48213.4
871.6056	1262.5216	49148.9	48251.1
871.7501	1264.4229	49115.55	48222.25
871.8945	1266.3234	49115.6	48219.3
872.039	1268.2232	49105.8	48207.85
872.1834	1270.1223	49043.55	48144.05
872.3278	1272.0207	48986.25	48091.8
872.4723	1273.9183	48961.35	48056.25
872.6167	1275.8151	48930.25	48033
872.7611	1277.7113	48902.75	48006.85
872.9055	1279.6067	48790.65	47896.2
873.0499	1281.5014	48779.55	47883.25
873.1943	1283.3953	48769.55	47871
873.3386	1285.2885	48772.2	47872.75
873.483	1287.181	48792.25	47896.4
873.6274	1289.0727	48862.85	47967.45
873.7717	1290.9637	48755.15	47858.55
873.9161	1292.854	48834.25	47934.75
874.0604	1294.7435	48760.15	47864
874.2047	1296.6323	48774.2	47878.65
874.349	1298.5204	48689.4	47787.95
874.4933	1300.4077	48698.95	47800.35
874.6376	1302.2943	48638.75	47743
874.7819	1304.1802	48556.7	47661.55
874.9262	1306.0653	48471.6	47574
875.0705	1307.9497	48378	47481.3
875.2147	1309.8333	48375.2	47480.5
875.359	1311.7162	48301.3	47402.75
875.5032	1313.5984	48268.55	47368.95
875.6475	1315.4798	48112.4	47213.9
875.7917	1317.3605	48105.2	47191.9
875.9359	1319.2405	48101.75	47203.85
876.0801	1321.1197	47940.4	47042.85
876.2243	1322.9982	47947.55	47045
876.3685	1324.876	47854.25	46957
876.5127	1326.753	47712.6	46815.3
876.6569	1328.6293	47833.05	46932.3
876.801	1330.5048	47709.05	46808.5
876.9452	1332.3796	47561.1	46665.95
877.0893	1334.2537	47552.1	46630.15
877.2335	1336.127	47599.5	46700.7
877.3776	1337.9996	47443.1	46543.9
877.5217	1339.8714	47540.7	46645.35
877.6658	1341.7426	47308.1	46366.3
877.8099	1343.6129	47409.45	46514.1
877.954	1345.4826	47352.3	46455.65
878.0981	1347.3515	47195.65	46294.5
878.2422	1349.2196	47277.2	46377.9
878.3862	1351.087	47231.45	46335.05
878.5303	1352.9537	47188.8	46291.25
878.6743	1354.8197	47245.05	46350.65
878.8184	1356.6849	47211.6	46314.95
878.9624	1358.5493	47133.6	46235.65
879.1064	1360.4131	47036.3	46140.05
879.2504	1362.276	47177.2	46280.7
879.3944	1364.1383	46987	46089.4
879.5384	1365.9998	46820.75	45917.6
879.6823	1367.8606	46831.7	45933.1
879.8263	1369.7206	46715.55	45818.25
879.9702	1371.5799	46564.3	45665
880.1142	1373.4384	46460.05	45563.05
880.2581	1375.2962	46443.8	45545.65
880.402	1377.1533	46216.45	45321.95
880.5459	1379.0096	46075.5	45178
880.6898	1380.8652	45990.45	45093.6
880.8337	1382.7201	45840.75	44944.9
880.9776	1384.5742	45809.95	44912.45
881.1215	1386.4275	45531.65	44633.8
881.2653	1388.2802	45534.2	44639.75
881.4092	1390.132	45565.7	44668.6
881.553	1391.9832	45291.5	44393.7
881.6968	1393.8336	45101.1	44201.9
881.8406	1395.6832	45094.05	44196
881.9844	1397.5322	45127.1	44229.2
882.1282	1399.3803	44826.1	43925.65
882.272	1401.2278	44789.05	43894.05
882.4158	1403.0745	44631.65	43735.9
882.5595	1404.9204	44591.05	43695.05
882.7033	1406.7656	44567.1	43670.45
882.847	1408.6101	44339.3	43445.15
882.9908	1410.4538	44335.8	43439.65
883.1345	1412.2968	44329.45	43435.95
883.2782	1414.139	44086.9	43190.25
883.4219	1415.9805	44206.65	43311.05
883.5656	1417.8213	44018.1	43115.1
883.7092	1419.6613	44101.85	43205.85
883.8529	1421.5006	43942.1	43045.6
883.9965	1423.3391	43889.65	42990.95
884.1402	1425.1769	43843.75	42945.8
884.2838	1427.0139	44019.35	43122.35
884.4274	1428.8502	43983.65	43087.3
884.571	1430.6858	44005.65	43108.6
884.7146	1432.5206	44179	43282.65
884.8582	1434.3547	43967.75	43070
885.0018	1436.188	43855.8	42959.4
885.1453	1438.0206	43910.05	43014.3
885.2889	1439.8524	43834	42936.5
885.4324	1441.6835	43695.35	42798.7
885.5759	1443.5139	43697.55	42797.65
885.7194	1445.3435	43543.4	42645.85
885.8629	1447.1724	43609.1	42715
886.0064	1449.0005	43409.7	42515
886.1499	1450.8279	43462.45	42563.05
886.2933	1452.6545	43361.6	42465.9
886.4368	1454.4804	43324.65	42429.35
886.5802	1456.3056	43226.95	42325.85
886.7237	1458.13	43226.8	42332.15
886.8671	1459.9536	43307.4	42411.15
887.0105	1461.7766	43046.4	42150.7
887.1539	1463.5987	42851.6	41953.25
887.2972	1465.4202	42798.8	41901.15
887.4406	1467.2409	42687.6	41793.65
887.584	1469.0608	42584.2	41689.55
887.7273	1470.88	42554.75	41659.9
887.8706	1472.6984	42509.85	41613.1
888.0139	1474.5161	42261.65	41362.15
888.1572	1476.3331	42254.9	41358.95
888.3005	1478.1493	42098.15	41200.6
888.4438	1479.9648	42118.35	41223.5
888.5871	1481.7795	42070.35	41175.1
888.7303	1483.5935	42071.65	41176.9
888.8736	1485.4067	41921.15	41027.3
889.0168	1487.2192	41890.95	40992.45
889.16	1489.031	41845.65	40949.25
889.3032	1490.842	41810.2	40914.8
889.4464	1492.6522	41824.35	40928.65
889.5896	1494.4618	41689.5	40792.6
889.7327	1496.2705	41682.85	40788.4
889.8759	1498.0785	41495.8	40601.1
890.019	1499.8858	41534.3	40637.95
890.1622	1501.6924	41544.65	40649.9
890.3053	1503.4981	41433.55	40536.8
890.4484	1505.3032	41378	40480.15
890.5914	1507.1075	41259.15	40361.95
890.7345	1508.911	41260.2	40364.3
890.8776	1510.7138	41208.25	40310.55
891.0206	1512.5159	41195.75	40300.4
891.1637	1514.3172	40900.65	40006.65
891.3067	1516.1178	40896.35	40003.35
891.4497	1517.9176	40931.35	40033.15
891.5927	1519.7166	40815.65	39922.1
891.7357	1521.515	40705.8	39805.4
891.8786	1523.3126	40535.9	39640.35
892.0216	1525.1094	40588.9	39693.4
892.1645	1526.9055	40474.25	39581.25
892.3074	1528.7008	40400.35	39505.75
892.4503	1530.4954	40152.4	39258.2
892.5932	1532.2893	40269.9	39377.65
892.7361	1534.0824	39993.75	39095.7
892.879	1535.8747	39881.35	38988.85
893.0218	1537.6663	40141.45	39246.85
893.1647	1539.4572	39602.4	38707.35
893.3075	1541.2473	39761.1	38867.2
893.4503	1543.0367	39599.35	38705.75
893.5931	1544.8253	39457.7	38561.05
893.7359	1546.6132	39527.95	38631.7
893.8787	1548.4003	39349.9	38447.8
894.0214	1550.1867	39294.75	38393.1
894.1642	1551.9723	39210.3	38312.55
894.3069	1553.7572	39256.9	38363.3
894.4496	1555.5414	39303.45	38410.85
894.5923	1557.3247	38911.35	38019.55
894.735	1559.1074	39163.65	38273.7
894.8777	1560.8893	38964.4	38073.6
895.0204	1562.6705	39013.45	38124.15
895.163	1564.4509	38818.55	37927.05
895.3056	1566.2305	38853.1	37964.85
895.4482	1568.0094	38991.95	38103.65
895.5908	1569.7876	38822.25	37933
895.7334	1571.565	38640.6	37749.1
895.876	1573.3417	38693.45	37802.95
896.0186	1575.1176	38617.75	37727.25
896.1611	1576.8928	38512.3	37621.4
896.3036	1578.6672	38279.75	37393.85
896.4461	1580.4409	38305.9	37420.05
896.5886	1582.2138	38093.1	37202.7
896.7311	1583.986	38108.7	37219.15
896.8736	1585.7575	37979.7	37091.6
897.0161	1587.5282	38028.55	37143.35
897.1585	1589.2981	38036.85	37149.35
897.3009	1591.0673	37857.55	36970.1
897.4433	1592.8358	37773.05	36885.8
897.5857	1594.6035	37878.3	36987.4
897.7281	1596.3704	37803.6	36914.5
897.8705	1598.1366	37588.85	36702.2
898.0128	1599.9021	37486.75	36598.5
898.1551	1601.6668	37540.5	36652
898.2975	1603.4308	37421.45	36532.55
898.4398	1605.194	37497.35	36602.5
898.5821	1606.9564	37228.65	36341.75
898.7243	1608.7182	37399.2	36508
898.8666	1610.4791	37322.95	36437.9
899.0088	1612.2394	37439.45	36556.2
899.1511	1613.9988	37263.6	36376.15
899.2933	1615.7576	37459.35	36574.55
899.4355	1617.5156	37468.7	36572.1
899.5776	1619.2728	37625.9	36737.15
899.7198	1621.0293	37237.85	36348.2
899.862	1622.785	37201.75	36310.4
900.0041	1624.54	37099.6	36212.25
900.1462	1626.2942	36840.25	35952.2
900.2883	1628.0477	36471.25	35582.1
900.4304	1629.8005	36293.45	35401.7
900.5725	1631.5525	36284.6	35397.35
900.7145	1633.3037	35976.45	35088.35
900.8566	1635.0542	35842.9	34955.55
900.9986	1636.804	35847.65	34960.45
901.1406	1638.553	35657.15	34721.75
901.2826	1640.3013	35621.5	34734
901.4245	1642.0488	35381.65	34497.7
901.5665	1643.7955	35450.65	34564.75
901.7085	1645.5416	35347.65	34460.75
901.8504	1647.2868	35215.7	34331.2
901.9923	1649.0313	35304.05	34416.45
902.1342	1650.7751	35251.2	34363.2
902.2761	1652.5181	35144.3	34257.7
902.4179	1654.2604	35088.3	34202.35
902.5598	1656.0019	35188.5	34303.35
902.7016	1657.7427	35143	34257.15
902.8434	1659.4828	35229.15	34343.05
902.9852	1661.222	35165.15	34276.05
903.127	1662.9606	35154.1	34270.4
903.2687	1664.6984	34990.85	34104.55
903.4105	1666.4354	34865.3	33975.65
903.5522	1668.1717	34485.15	33596.1
903.6939	1669.9072	34104.85	33217.15
903.8356	1671.642	33944.25	33055.25
903.9773	1673.3761	33793.35	32905.45
904.119	1675.1094	33615.25	32726.7
904.2606	1676.8419	33445.75	32556.6
904.4022	1678.5737	33270.4	32383.1
904.5439	1680.3048	33160.35	32273.8
904.6855	1682.0351	32971.55	32083.85
904.827	1683.7646	32819.8	31930
904.9686	1685.4934	32818.25	31930.85
905.1101	1687.2215	32562.85	31676.35
905.2517	1688.9488	32504.65	31618.1
905.3932	1690.6754	32222.6	31335.95
905.5347	1692.4012	32262.15	31375.8
905.6761	1694.1263	32173.2	31286.35
905.8176	1695.8506	32074.6	31187.65
905.9591	1697.5742	31979.85	31094.1
906.1005	1699.297	31824.35	30940.55
906.2419	1701.0191	31729.85	30844.9
906.3833	1702.7404	31602.7	30719.45
906.5246	1704.461	31460.5	30573.3
906.666	1706.1808	31339.95	30453.25
906.8073	1707.8999	31295.7	30407.4
906.9487	1709.6182	31220.4	30335.5
907.09	1711.3358	31149.35	30266.2
907.2313	1713.0527	31043.55	30161.7
907.3725	1714.7688	30957.6	30068.15
907.5138	1716.4841	30833.65	29947.45
907.655	1718.1987	30831.15	29940.25
907.7962	1719.9126	30728.35	29845.95
907.9374	1721.6257	30637.5	29752.2
908.0786	1723.338	30578.5	29692.85
908.2198	1725.0496	30376.4	29491.5
908.3609	1726.7605	30378.95	29491.85
908.502	1728.4706	30269.6	29381.15
908.6431	1730.18	30134.35	29248.5
908.7842	1731.8886	30049.85	29164.65
908.9253	1733.5964	30022.05	29132.9
909.0664	1735.3036	29960.1	29071.85
909.2074	1737.0099	29920.1	29036.5
909.3484	1738.7156	29861.35	28978.15
909.4894	1740.4204	29763.15	28874.7
909.6304	1742.1246	29715.95	28830.55
909.7714	1743.8279	29646.6	28762.85
909.9123	1745.5306	29601.55	28717.75
910.0532	1747.2325	29394.75	28510.15
910.1941	1748.9336	29366.25	28481.35
910.335	1750.634	29292.2	28406.7
910.4759	1752.3336	29291	28406
910.6168	1754.0325	29167.2	28285.25
910.7576	1755.7307	29179.5	28297.05
910.8984	1757.4281	29098.1	28213
911.0392	1759.1247	29095.3	28201.75
911.18	1760.8206	28891.45	28000.8
911.3208	1762.5158	28846.55	27957.3
911.4615	1764.2102	28813.55	27930.3
911.6022	1765.9039	28700.75	27816.15
911.7429	1767.5968	28679.8	27796.65
911.8836	1769.289	28561.3	27677.7
912.0243	1770.9804	28536	27651.1
912.1649	1772.6711	28528.35	27644
912.3056	1774.361	28405.65	27518.25
912.4462	1776.0502	28333.1	27447.7
912.5868	1777.7386	28215.25	27327.15
912.7274	1779.4263	28209.15	27324.3
912.8679	1781.1132	28182.9	27298.5
913.0084	1782.7994	28068.9	27185.1
913.149	1784.4849	28022.1	27141.05
913.2895	1786.1696	27877.4	26976.6
913.4299	1787.8535	27869.15	26987.1
913.5704	1789.5367	27794.75	26912.15
913.7108	1791.2192	27751.9	26870.4
913.8513	1792.9009	27627.4	26715.15
913.9917	1794.5818	27598.8	26712.3
914.132	1796.2621	27494.1	26611
914.2724	1797.9415	27430.6	26547.3
914.4128	1799.6202	27382.95	26497.95
914.5531	1801.2982	27343.3	26460.7
914.6934	1802.9755	27311.15	26424.8
914.8337	1804.6519	27239.15	26354.5
914.9739	1806.3277	27151.4	26269.65
915.1142	1808.0027	26928.5	26047.15
915.2544	1809.6769	26977.55	26095.65
915.3946	1811.3504	26921.45	26038.3
915.5348	1813.0231	26835.1	25951.85
915.675	1814.6951	26861	25979.05
915.8151	1816.3664	26848.05	25962.25
915.9553	1818.0369	26737.4	25853.25
916.0954	1819.7067	26631.55	25748.6
916.2355	1821.3757	26612.15	25725.5
916.3755	1823.044	26518.95	25635.1
916.5156	1824.7115	26466.4	25580
916.6556	1826.3783	26399.15	25515.9
916.7956	1828.0443	26290.5	25405.65
916.9356	1829.7096	26230.3	25344.9
917.0756	1831.3741	26211.55	25325.8
917.2155	1833.0379	26163.45	25281
917.3555	1834.701	26083.25	25196.95
917.4954	1836.3633	25995.5	25112.45
917.6353	1838.0248	25996.55	25112.9
917.7751	1839.6856	25920.7	25039.65
917.915	1841.3457	25901.2	25018.1
918.0548	1843.005	25871.05	24989.15
918.1946	1844.6636	25793.25	24911.45
918.3344	1846.3214	25713.5	24830.4
918.4742	1847.9785	25706.35	24823.15
918.6139	1849.6349	25650.95	24765.25
918.7537	1851.2904	25597.05	24704.45
918.8934	1852.9453	25480.4	24595.45
919.0331	1854.5994	25432.7	24547
919.1727	1856.2528	25445.35	24556.45
919.3124	1857.9054	25350.35	24466.6
919.452	1859.5572	25334.8	24449.8
919.5916	1861.2083	25268.95	24384.65
919.7312	1862.8587	25291.1	24409.5
919.8708	1864.5084	25140.8	24256.3
920.0103	1866.1572	25131.8	24247.9
920.1498	1867.8054	24963.35	24076.95
920.2893	1869.4528	24959.7	24076.6
920.4288	1871.0994	24869.15	23983.8
920.5683	1872.7453	24865	23981.1
920.7077	1874.3905	24835.7	23947.15
920.8471	1876.0349	24711.5	23826.55
920.9865	1877.6786	24725.75	23840.45
921.1259	1879.3215	24659.05	23775.5
921.2653	1880.9637	24628.35	23742.95
921.4046	1882.6051	24594.25	23710.8
921.5439	1884.2458	24499.25	23611.05
921.6832	1885.8858	24376.5	23493.6
921.8225	1887.525	24380.1	23493.65
921.9617	1889.1634	24289.2	23406.95
922.101	1890.8011	24183.45	23297.5
922.2402	1892.4381	24156.55	23272.9
922.3794	1894.0743	24174.05	23290.85
922.5185	1895.7098	24111.6	23229.7
922.6577	1897.3446	24014.7	23129.2
922.7968	1898.9786	23986.15	23100.8
922.9359	1900.6118	23909.75	23027.1
923.075	1902.2443	23780.5	22894.2
923.214	1903.8761	23726.75	22845.25
923.3531	1905.5071	23592.45	22706.5
923.4921	1907.1374	23537.15	22653.1
923.6311	1908.7669	23489.7	22604.6
923.77	1910.3957	23486.8	22604.15
923.909	1912.0237	23348.45	22465.7
924.0479	1913.651	23293.4	22408.65
924.1868	1915.2776	23244.1	22363
924.3257	1916.9034	23129.25	22247.9
924.4646	1918.5285	23019	22138
924.6034	1920.1528	22956.2	22072.85
924.7422	1921.7764	22951.8	22068.35
924.881	1923.3992	22836.65	21955.4
925.0198	1925.0213	22730.9	21848.6
925.1586	1926.6427	22669.75	21787.65
925.2973	1928.2633	22769.45	21651.5
925.436	1929.8832	22538.3	21650.55
925.5747	1931.5023	22406.9	21523.15
925.7134	1933.1207	22361.75	21477.3
925.852	1934.7383	22360.6	21476.65
925.9906	1936.3552	22262.4	21381.9
926.1292	1937.9714	22203.95	21319.6
926.2678	1939.5868	22108.3	21220.9
926.4064	1941.2015	22005.65	21120.85
926.5449	1942.8154	21913.15	21026.4
926.6834	1944.4286	21817.5	20935.2
926.8219	1946.041	21785	20878.9
926.9604	1947.6528	21633.5	20745.6
927.0988	1949.2637	21629.4	20747.75
927.2372	1950.8739	21571.5	20687
927.3756	1952.4834	21536.65	20653.45
927.514	1954.0921	21494.55	20610.7
927.6523	1955.7001	21388.35	20501.35
927.7907	1957.3074	21358.15	20475.1
927.929	1958.9139	21252.4	20371.6
928.0673	1960.5197	21197.1	20312.95
928.2055	1962.1247	21115.15	20232.05
928.3438	1963.729	20986	20106.5
928.482	1965.3325	20936	20032.7
928.6202	1966.9353	20828.35	19946.7
928.7584	1968.5374	20755.6	19875.7
928.8965	1970.1387	20726.85	19843.15
929.0346	1971.7393	20673.3	19791.85
929.1727	1973.3392	20586.35	19704
929.3108	1974.9383	20499.55	19618.35
929.4489	1976.5366	20417.75	19534.15
929.5869	1978.1342	20418.3	19534.55
929.7249	1979.7311	20390.55	19508
929.8629	1981.3273	20322.9	19443.05
930.0009	1982.9227	20268.4	19384.55
930.1388	1984.5173	20156.4	19278.55
930.2767	1986.1112	20057.45	19174.85
930.4146	1987.7044	20017	19137
930.5525	1989.2968	19991.85	19107.8
930.6904	1990.8885	19948.05	19063.9
930.8282	1992.4795	19914	19030.8
930.966	1994.0697	19801.8	18921.7
931.1038	1995.6592	19737.55	18857
931.2415	1997.2479	19700.4	18819.55
931.3793	1998.8359	19665	18783.4
931.517	2000.4232	19542.1	18661.8
931.6547	2002.0097	19470.3	18590.9
931.7923	2003.5955	19406.6	18523.5
931.93	2005.1805	19405.75	18524.2
932.0676	2006.7648	19380.6	18502.1
932.2052	2008.3484	19293.9	18412.35
932.3427	2009.9312	19290.6	18407.65
932.4803	2011.5133	19251.9	18373
932.6178	2013.0946	19160.6	18280.9
932.7553	2014.6752	19084.2	18204.55
932.8928	2016.2551	19026	18144.6
933.0302	2017.8342	18974.1	18094.45
933.1676	2019.4126	18919.8	18039.7
933.305	2020.9902	18816.6	17937.35
933.4424	2022.5672	18810.65	17929.7
933.5798	2024.1433	18744.85	17860.25
933.7171	2025.7188	18665.2	17786.1
933.8544	2027.2935	18645.9	17765.7
933.9917	2028.8674	18585.85	17706.7
934.129	2030.4406	18537.35	17660.35
934.2662	2032.0131	18408.25	17528.55
934.4034	2033.5849	18368.7	17485.55
934.5406	2035.1559	18322.2	17443.2
934.6778	2036.7261	18302.25	17423.3
934.8149	2038.2957	18223.35	17341.5
934.952	2039.8645	18225.8	17345.85
935.0891	2041.4325	18226.7	17342.15
935.2262	2042.9998	18161.25	17282.3
935.3632	2044.5664	18083.9	17203.4
935.5002	2046.1323	18023.55	17144.7
935.6372	2047.6974	17955.3	17074.8
935.7742	2049.2617	17924.6	17044.85
935.9111	2050.8254	17907.8	17023.65
936.048	2052.3883	17895.6	17015.9
936.1849	2053.9504	17820.3	16939.9
936.3218	2055.5118	17751.55	16869.25
936.4586	2057.0725	17638.7	16755.25
936.5955	2058.6325	17640.1	16758.75
936.7323	2060.1917	17583.2	16703.4
936.869	2061.7502	17537.7	16654.45
937.0058	2063.3079	17488.1	16607.85
937.1425	2064.8649	17421.45	16539.25
937.2792	2066.4212	17371.9	16490.7
937.4159	2067.9767	17338.25	16457.85
937.5525	2069.5315	17277.3	16396.65
937.6891	2071.0856	17168.85	16290.8
937.8257	2072.6389	17141.35	16259.65
937.9623	2074.1915	17079	16203.2
938.0989	2075.7433	16970.4	16087.8
938.2354	2077.2945	16937.75	16057.95
938.3719	2078.8448	16921.3	16039.8
938.5084	2080.3945	16841.8	15961.4
938.6448	2081.9434	16819.85	15938.3
938.7812	2083.4916	16794	15912.45
938.9176	2085.039	16736.05	15853.25
939.054	2086.5857	16667.4	15782.1
939.1903	2088.1317	16605.25	15723.8
939.3267	2089.677	16588.45	15707.85
939.463	2091.2215	16548.65	15666.15
939.5992	2092.7652	16512.5	15628.95
939.7355	2094.3083	16477	15595.3
939.8717	2095.8506	16420.45	15539.65
940.0079	2097.3921	16405.3	15525
940.1441	2098.933	16322.35	15441.85
940.2802	2100.4731	16312.7	15430.75
940.4163	2102.0124	16321.6	15420.5
940.5524	2103.5511	16248.95	15367.4
940.6885	2105.089	16244.6	15361.25
940.8245	2106.6261	16196.5	15314.55
940.9606	2108.1626	16155.85	15274.45
941.0965	2109.6983	16116.75	15205.95
941.2325	2111.2332	16049.55	15167.25
941.3684	2112.7675	16014.5	15131.9
941.5044	2114.301	15990.75	15109.5
941.6403	2115.8337	15948.4	15066.25
941.7761	2117.3657	15902.65	15021.1
941.912	2118.897	15859.35	14977.75
942.0478	2120.4276	15811.25	14922.15
942.1835	2121.9575	15723.2	14840.75
942.3193	2123.4866	15746.45	14850.5
942.455	2125.0149	15703.9	14820.4
942.5907	2126.5426	15583.2	14703.65
942.7264	2128.0695	15544.85	14662.15
942.8621	2129.5956	15524.55	14645.6
942.9977	2131.1211	15504.3	14618.85
943.1333	2132.6458	15470.45	14592.8
943.2689	2134.1698	15420	14538.9
943.4044	2135.693	15389.35	14505.1
943.54	2137.2155	15349	14464.15
943.6755	2138.7373	15303.65	14421.6
943.8109	2140.2584	15267.95	14387
943.9464	2141.7787	15225.6	14339.65
944.0818	2143.2983	15175.2	14295.6
944.2172	2144.8171	15071.45	14193.35
944.3526	2146.3353	15072.05	14189.05
944.4879	2147.8527	14975.25	14094.9
944.6232	2149.3693	14961.85	14082.9
944.7585	2150.8853	14930.35	14048.5
944.8938	2152.4005	14857.1	13973
945.029	2153.9149	14840.5	13959.55
945.1642	2155.4287	14796.4	13915.3
945.2994	2156.9417	14806.45	13923.55
945.4346	2158.454	14748.9	13864.15
945.5697	2159.9655	14688.8	13808.15
945.7048	2161.4764	14668.85	13789.25
945.8399	2162.9865	14596.3	13717.55
945.9749	2164.4958	14579.5	13697.95
946.1099	2166.0045	14524.4	13641.4
946.2449	2167.5124	14474.45	13593.3
946.3799	2169.0195	14453.15	13572.95
946.5148	2170.526	14407.5	13526.45
946.6498	2172.0317	14371.25	13487.85
946.7846	2173.5367	14372.7	13492.35
946.9195	2175.0409	14299.25	13416.85
947.0543	2176.5445	14299.35	13418
947.1891	2178.0473	14238.8	13355.75
947.3239	2179.5494	14162.5	13278.25
947.4587	2181.0507	14109.7	13231.05
947.5934	2182.5513	14056.75	13176.5
947.7281	2184.0512	14016.05	13135.25
947.8628	2185.5504	13984.1	13102
947.9974	2187.0488	13922.7	13044.85
948.132	2188.5465	13903.9	13022
948.2666	2190.0435	13828.55	12945.35
948.4012	2191.5397	13790.45	12910.45
948.5357	2193.0353	13778.95	12897.65
948.6702	2194.5301	13691.5	12806.9
948.8047	2196.0241	13657.9	12775
948.9392	2197.5175	13618.1	12737.4
949.0736	2199.0101	13581.2	12696.2
949.208	2200.502	13525.35	12645
949.3424	2201.9931	13476.9	12594.4
949.4767	2203.4835	13396.3	12515.05
949.611	2204.9733	13401.8	12514.25
949.7453	2206.4622	13369.45	12491.35
949.8796	2207.9505	13307.15	12423.4
950.0138	2209.438	13244.5	12365.85
950.148	2210.9248	13224.1	12343.2
950.2822	2212.4109	13160.4	12279.85
950.4164	2213.8962	13114.95	12232.2
950.5505	2215.3809	13116.25	12231.7
950.6846	2216.8648	13065.6	12183.7
950.8186	2218.3479	13025.45	12136.65
950.9527	2219.8304	12989.55	12104.8
951.0867	2221.3121	12928.25	12041.7
951.2207	2222.7931	12906.2	12023.8
951.3546	2224.2733	12841.45	11959.25
951.4886	2225.7529	12807.25	11925.4
951.6225	2227.2317	12776.35	11892.3
951.7563	2228.7098	12750.9	11870.8
951.8902	2230.1872	12655.8	11776.55
952.024	2231.6638	12645.6	11765.4
952.1578	2233.1397	12599.65	11712.8
952.2916	2234.6149	12588.45	11710.55
952.4253	2236.0894	12525.8	11643.1
952.559	2237.5632	12535.25	11643.6
952.6927	2239.0362	12434.55	11554.45
952.8263	2240.5085	12417.05	11537
952.9599	2241.9801	12373.9	11490.45
953.0935	2243.4509	12344.1	11463.15
953.2271	2244.921	12300.1	11420.25
953.3606	2246.3904	12239.35	11352.7
953.4941	2247.8591	12187.4	11306.1
953.6276	2249.3271	12171.1	11290.35
953.7611	2250.7943	12145.8	11264.15
953.8945	2252.2608	12089.7	11208.45
954.0279	2253.7266	12061.05	11179.55
954.1612	2255.1917	12014.65	11133.7
954.2946	2256.656	11958.55	11078.35
954.4279	2258.1197	11965.3	11085.1
954.5612	2259.5826	11925.45	11044.15
954.6944	2261.0447	11889.2	11004.8
954.8276	2262.5062	11829.85	10946.3
954.9608	2263.9669	11809.05	10924.5
955.094	2265.4269	11796.7	10914.7
955.2271	2266.8862	11757.3	10875.75
955.3602	2268.3448	11738.95	10855.6
955.4933	2269.8026	11722.1	10841.15
955.6264	2271.2598	11675.65	10792.7
955.7594	2272.7162	11619.55	10740.4
955.8924	2274.1719	11612.25	10731.55
956.0253	2275.6268	11569.45	10686.95
956.1583	2277.0811	11547.65	10665.55
956.2912	2278.5346	11526.7	10645.45
956.4241	2279.9874	11507.65	10626.2
956.5569	2281.4395	11484.4	10603.95
956.6897	2282.8908	11412.55	10526.2
956.8225	2284.3414	11398.55	10515.65
956.9553	2285.7914	11355.65	10476.8
957.088	2287.2406	11318.75	10433.8
957.2207	2288.689	11262.4	10379.55
957.3534	2290.1368	11249.55	10365.2
957.486	2291.5838	11216.8	10331.9
957.6186	2293.0302	11200.45	10316.1
957.7512	2294.4758	11150.9	10267.1
957.8838	2295.9206	11117.55	10232.85
958.0163	2297.3648	11068.2	10186.4
958.1488	2298.8082	11049.35	10166.45
958.2813	2300.251	11010.8	10130.55
958.4137	2301.693	10981.6	10094.7
958.5461	2303.1343	10977.65	10095.3
958.6785	2304.5748	10947.25	10066.15
958.8108	2306.0147	10908.2	10027.55
958.9432	2307.4538	10883.4	10001.45
959.0754	2308.8922	10843.95	9964.6
959.2077	2310.3299	10791.7	9909.9
959.3399	2311.7669	10755.5	9874.5
959.4721	2313.2031	10730.5	9849.85
959.6043	2314.6387	10706.6	9824.6
959.7365	2316.0735	10641.4	9760.6
959.8686	2317.5076	10647	9765.95
960.0006	2318.941	10618.5	9736.25
960.1327	2320.3737	10587	9703.75
960.2647	2321.8056	10554.8	9670.7
960.3967	2323.2369	10535.85	9652.55
960.5287	2324.6674	10497.7	9613.4
960.6606	2326.0972	10458.35	9576.15
960.7925	2327.5263	10400.3	9517.3
960.9244	2328.9547	10399.65	9516.15
961.0562	2330.3823	10365.45	9483.9
961.1881	2331.8092	10335.55	9450.2
961.3198	2333.2355	10294.25	9414.25
961.4516	2334.661	10299.2	9414.9
961.5833	2336.0858	10293.7	9410.8
961.715	2337.5098	10224.75	9340.65
961.8467	2338.9332	10220.3	9337.95
961.9783	2340.3558	10169.2	9282.85
962.1099	2341.7778	10134.45	9250.15
962.2415	2343.199	10106	9221.15
962.373	2344.6195	10096.65	9215.05
962.5045	2346.0393	10067.65	9185.85
962.636	2347.4583	10039.4	9157.45
962.7675	2348.8767	9999.6	9116.1
962.8989	2350.2943	9979.25	9093.85
963.0303	2351.7113	9972.85	9087.85
963.1617	2353.1275	9906.45	9022.9
963.293	2354.543	9916.2	9023.4
963.4243	2355.9578	9835.8	8949.85
963.5556	2357.3718	9802.4	8920.5
963.6868	2358.7852	9751.55	8869.25
963.818	2360.1978	9722.25	8839.3
963.9492	2361.6098	9734.35	8855
964.0803	2363.021	9699.45	8810.5
964.2114	2364.4315	9671.6	8791.7
964.3425	2365.8413	9645.7	8762.3
964.4736	2367.2504	9594.75	8714.15
964.6046	2368.6587	9548.7	8669.05
964.7356	2370.0664	9508.1	8625.75
964.8666	2371.4733	9468.65	8585.35
964.9975	2372.8795	9444.9	8563.05
965.1284	2374.285	9415.45	8531.95
965.2593	2375.6899	9391	8508.3
965.3901	2377.0939	9351	8466.85
965.5209	2378.4973	9313.9	8432.5
965.6517	2379.9	9268.75	8385.85
965.7825	2381.3019	9259.45	8377.65
965.9132	2382.7032	9222.45	8344.3
966.0439	2384.1037	9222	8342.25
966.1745	2385.5035	9188.2	8307.95
966.3051	2386.9027	9133.8	8253.1
966.4357	2388.3011	9140.4	8254.8
966.5663	2389.6987	9120.1	8238.55
966.6968	2391.0957	9065.8	8183.5
966.8273	2392.492	9059.3	8178.9
966.9578	2393.8876	8987.45	8106.4
967.0882	2395.2824	8963.2	8081.15
967.2186	2396.6765	8952.55	8074.25
967.349	2398.07	8882.25	7999.8
967.4793	2399.4627	8883.6	8000.75
967.6097	2400.8547	8831.95	7948.4
967.7399	2402.246	8799.05	7908.7
967.8702	2403.6366	8748.55	7865.5
968.0004	2405.0265	8724.7	7844.3
968.1306	2406.4156	8698.55	7812.5
968.2607	2407.8041	8669.55	7783.75
968.3909	2409.1918	8625.6	7740.7
968.521	2410.5789	8608	7726.3
968.651	2411.9652	8567.55	7684
968.781	2413.3508	8552.85	7670
968.911	2414.7358	8514.7	7632.6
969.041	2416.12	8468.35	7585.95
969.1709	2417.5035	8472.85	7591.4
969.3008	2418.8863	8443.6	7560.55
969.4307	2420.2684	8402.8	7518.85
969.5606	2421.6497	8366.25	7483.75
969.6904	2423.0304	8316	7435.25
969.8201	2424.4104	8327.9	7445.1
969.9499	2425.7896	8285.05	7400.8
970.0796	2427.1682	8264.95	7383.25
970.2093	2428.546	8241.8	7359.55
970.3389	2429.9232	8199.45	7314.75
970.4685	2431.2996	8208.65	7327.55
970.5981	2432.6753	8177.8	7296.6
970.7277	2434.0503	8155.15	7272.35
970.8572	2435.4246	8127.95	7245.4
970.9867	2436.7982	8085.15	7200.25
971.1161	2438.1711	8079.9	7197.65
971.2456	2439.5433	8049.95	7166.8
971.375	2440.9148	8011.8	7127.05
971.5043	2442.2856	7967.65	7087.1
971.6336	2443.6557	7968.1	7082
971.7629	2445.025	7939.7	7056.6
971.8922	2446.3937	7930.05	7047.5
972.0214	2447.7617	7891.5	7008.95
972.1506	2449.1289	7896.1	7011.5
972.2798	2450.4955	7862.25	6977.1
972.4089	2451.8613	7846	6965.25
972.538	2453.2265	7804.6	6921.5
972.6671	2454.5909	7772.4	6888.9
972.7961	2455.9546	7773.2	6892.05
972.9251	2457.3177	7753.1	6872.25
973.0541	2458.68	7725.9	6841.75
973.1831	2460.0416	7706.8	6825.15
973.312	2461.4025	7698.85	6816.45
973.4408	2462.7627	7676.85	6782.85
973.5697	2464.1222	7659.55	6780.15
973.6985	2465.4811	7625.7	6742.7
973.8273	2466.8392	7593.05	6710.5
973.956	2468.1966	7605.95	6722.15
974.0847	2469.5533	7585.4	6700.25
974.2134	2470.9093	7559.4	6677.25
974.3421	2472.2645	7526.3	6642.75
974.4707	2473.6191	7514.3	6632.9
974.5993	2474.973	7448.65	6568.55
974.7278	2476.3262	7436.45	6553.45
974.8563	2477.6787	7404.85	6524
974.9848	2479.0305	7370.65	6489.95
975.1132	2480.3816	7384.85	6501.55
975.2417	2481.7319	7343.4	6462.75
975.37	2483.0816	7306.75	6423.6
975.4984	2484.4306	7285.55	6403.55
975.6267	2485.7789	7257.4	6375.75
975.755	2487.1264	7232.75	6348.5
975.8833	2488.4733	7200.1	6318.7
976.0115	2489.8195	7173.85	6287
976.1397	2491.165	7163.7	6279.35
976.2678	2492.5097	7149.85	6266.85
976.3959	2493.8538	7119.15	6239.05
976.524	2495.1972	7075.25	6192.2
976.6521	2496.5398	7045.65	6159.05
976.7801	2497.8818	7031.25	6149.35
976.9081	2499.2231	7006.55	6124.95
977.036	2500.5637	6959.6	6075.65
977.164	2501.9035	6969.55	6086.75
977.2918	2503.2427	6957.85	6071.2
977.4197	2504.5812	6932.2	6051.4
977.5475	2505.919	6895.85	6012.2
977.6753	2507.256	6882.5	6000.7
977.8031	2508.5924	6868.6	5988
977.9308	2509.9281	6845.1	5957.35
978.0585	2511.2631	6832.85	5953.2
978.1861	2512.5974	6819.8	5938.75
978.3137	2513.9309	6779.95	5897
978.4413	2515.2638	6788.35	5876.65
978.5689	2516.596	6746.9	5866.55
978.6964	2517.9275	6711.55	5829
978.8239	2519.2583	6684.2	5801.7
978.9513	2520.5884	6657.15	5772.7
979.0788	2521.9178	6642.15	5759.75
979.2062	2523.2465	6636.45	5756.3
979.3335	2524.5745	6594.9	5713.55
979.4608	2525.9018	6585.5	5704.2
979.5881	2527.2284	6557.45	5677.65
979.7154	2528.5543	6553.35	5672.75
979.8426	2529.8796	6514.95	5633.05
979.9698	2531.2041	6519.85	5638.9
980.0969	2532.5279	6511.9	5632.9
980.224	2533.851	6493.6	5612.9
980.3511	2535.1735	6477.8	5595.15
980.4781	2536.4952	6452.15	5571.8
980.6052	2537.8163	6441.15	5558.95
980.7321	2539.1366	6411.6	5528.75
980.8591	2540.4562	6403.25	5520.55
980.986	2541.7752	6381.65	5500.45
981.1129	2543.0935	6369.1	5485.9
981.2397	2544.411	6356.5	5474.15
981.3665	2545.7279	6354.25	5472.6
981.4933	2547.0441	6322.25	5439.2
981.62	2548.3596	6339.55	5454.45
981.7467	2549.6744	6297.55	5417.3
981.8734	2550.9885	6285.15	5394.85
982.0001	2552.3019	6264.05	5384.45
982.1267	2553.6146	6260.1	5376.1
982.2532	2554.9266	6233.85	5351.05
982.3798	2556.2379	6214.05	5330.8
982.5063	2557.5485	6200.5	5320.7
982.6327	2558.8585	6194.95	5306.25
982.7592	2560.1677	6177.3	5291.6
982.8856	2561.4762	6164.95	5282.35
983.0119	2562.7841	6163.1	5277.7
983.1383	2564.0913	6113.85	5233.5
983.2646	2565.3977	6126.5	5246.15
983.3908	2566.7035	6088.15	5206.1
983.517	2568.0086	6101.15	5215.95
983.6432	2569.313	6090.95	5207.45
983.7694	2570.6167	6092.9	5206.9
983.8955	2571.9197	6066.35	5184.75
984.0216	2573.222	6052.05	5165.5
984.1476	2574.5236	6067.45	5184.95
984.2737	2575.8246	6023.2	5137.35
984.3996	2577.1248	6012.1	5128.4
984.5256	2578.4244	6024.05	5142.9
984.6515	2579.7232	5994.6	5112.2
984.7774	2581.0214	6011.55	5105.9
984.9032	2582.3189	5974.35	5092.25
985.029	2583.6157	5963.4	5076.8
985.1548	2584.9118	5918.4	5034.75
985.2806	2586.2072	5917.05	5034.3
985.4063	2587.5019	5893.65	5011.8
985.5319	2588.7959	5889.05	5005.55
985.6576	2590.0893	5885.55	5001.15
985.7832	2591.3819	5867.35	4984.95
985.9087	2592.6739	5844.3	4962.1
986.0343	2593.9652	5828.7	4943.8
986.1597	2595.2557	5812.7	4932.05
986.2852	2596.5456	5786.2	4902.95
986.4106	2597.8348	5766.8	4886.6
986.536	2599.1234	5743.7	4862.3
986.6614	2600.4112	5750.95	4872.15
986.7867	2601.6983	5711.65	4826.85
986.912	2602.9848	5687.5	4805.45
987.0372	2604.2705	5666.25	4775.7
987.1624	2605.5556	5641.85	4760.05
987.2876	2606.84	5640.2	4759.75
987.4128	2608.1237	5606.45	4722.05
987.5379	2609.4067	5590.35	4708.45
987.6629	2610.689	5586.2	4694.65
987.788	2611.9707	5557.6	4672.45
987.913	2613.2516	5541.6	4656.9
988.0379	2614.5319	5507.2	4626.2
988.1629	2615.8115	5493.65	4611.1
988.2878	2617.0903	5485.75	4603.1
988.4126	2618.3685	5459.65	4576.9
988.5375	2619.6461	5432.85	4550.5
988.6622	2620.9229	5418.5	4536.55
988.787	2622.199	5396.9	4514.9
988.9117	2623.4745	5385.25	4503.15
989.0364	2624.7493	5395.05	4515.8
989.161	2626.0234	5368.8	4488.4
989.2857	2627.2968	5340.6	4459.65
989.4102	2628.5695	5336.85	4454.2
989.5348	2629.8415	5315.9	4434.35
989.6593	2631.1128	5282.7	4398.65
989.7837	2632.3835	5241.4	4359.35
989.9082	2633.6535	5218.4	4337.2
990.0326	2634.9228	5230.6	4350.25
990.1569	2636.1914	5212.15	4333.2
990.2812	2637.4593	5212.3	4324.6
990.4055	2638.7265	5186.85	4305.2
990.5298	2639.9931	5158.85	4277.55
990.654	2641.259	5149	4265.65
990.7782	2642.5242	5159.6	4277.5
990.9023	2643.7887	5126.95	4244.5
991.0264	2645.0525	5109.9	4226.95
991.1505	2646.3156	5082.55	4200.35
991.2745	2647.5781	5084.1	4202.35
991.3985	2648.8398	5061.1	4181.35
991.5225	2650.1009	5042.65	4152.4
991.6464	2651.3613	5031	4151.15
991.7703	2652.6211	5022.05	4140.2
991.8942	2653.8801	4991.1	4109.7
992.018	2655.1385	4981.6	4097.35
992.1418	2656.3961	4980.8	4097.05
992.2655	2657.6531	4986.6	4103.9
992.3892	2658.9094	4972.5	4089.95
992.5129	2660.1651	4939.15	4056.45
992.6366	2661.42	4944.95	4064.25
992.7602	2662.6743	4916.8	4035.35
992.8837	2663.9279	4916.9	4036.2
993.0073	2665.1808	4897.5	4017.4
993.1307	2666.433	4891.25	4008.35
993.2542	2667.6846	4863.95	3983.7
993.3776	2668.9354	4859.5	3975.2
993.501	2670.1856	4843.45	3960.35
993.6244	2671.4351	4837.6	3956.05
993.7477	2672.6839	4833.35	3949
993.8709	2673.9321	4813.75	3930.45
993.9942	2675.1795	4783.6	3899.6
994.1174	2676.4263	4785.9	3904.75
994.2405	2677.6724	4781.25	3900.9
994.3637	2678.9179	4753.5	3871.1
994.4868	2680.1626	4748.15	3866.25
994.6098	2681.4067	4739.25	3858.6
994.7328	2682.6501	4724.25	3843.1
994.8558	2683.8928	4690.7	3811.3
994.9788	2685.1348	4679.65	3800.15
995.1017	2686.3761	4668.6	3787.95
995.2245	2687.6168	4649.2	3768.65
995.3474	2688.8568	4631	3750.5
995.4702	2690.0961	4622.35	3742.25
995.5929	2691.3348	4610.1	3728.9
995.7156	2692.5727	4597.05	3715
995.8383	2693.81	4582.35	3702.15
995.961	2695.0466	4572.75	3692.8
996.0836	2696.2826	4567.85	3685.75
996.2062	2697.5178	4567	3665.6
996.3287	2698.7524	4534.35	3653.25
996.4512	2699.9863	4538.3	3656.1
996.5737	2701.2195	4508.45	3627.95
996.6961	2702.452	4522.75	3639.6
996.8185	2703.6839	4496.8	3615.4
996.9408	2704.9151	4473.8	3592.85
997.0631	2706.1456	4462.55	3581.4
997.1854	2707.3755	4478.85	3597.85
997.3077	2708.6046	4454.8	3570.1
997.4299	2709.8331	4446.9	3565.8
997.552	2711.0609	4406.65	3526.15
997.6742	2712.2881	4415.15	3533.6
997.7963	2713.5145	4416.55	3530.55
997.9183	2714.7403	4404.1	3523.6
998.0403	2715.9654	4389.55	3508.75
998.1623	2717.1899	4371.75	3489.15
998.2842	2718.4136	4358.75	3478.45
998.4062	2719.6367	4345.15	3463.7
998.528	2720.8591	4332.5	3443.5
998.6498	2722.0809	4303.75	3422.6
998.7716	2723.3019	4306.75	3421.1
998.8934	2724.5223	4302.95	3419.6
999.0151	2725.7421	4276.9	3393.55
999.1368	2726.9611	4268.45	3384.9
999.2584	2728.1795	4271.3	3388.55
999.38	2729.3972	4251.3	3370.35
999.5016	2730.6142	4239.65	3353.05
999.6231	2731.8306	4209.35	3326.05
999.7446	2733.0462	4192.25	3310
999.8661	2734.2612	4166.45	3279.9
999.9875	2735.4756	4152.35	3268.4
1000.1089	2736.6892	4135.3	3254.65
1000.2302	2737.9022	4112.1	3232
1000.3515	2739.1145	4091.55	3210.3
1000.4728	2740.3262	4075.65	3186.4
1000.594	2741.5372	4059.2	3179
1000.7152	2742.7475	4062.6	3182.15
1000.8363	2743.9571	4042.95	3160.1
1000.9575	2745.1661	4026.15	3138.15
1001.0785	2746.3744	4017.45	3138.45
1001.1996	2747.582	4008.9	3127.85
1001.3206	2748.7889	3971.55	3089.8
1001.4415	2749.9952	3976.25	3094.2
1001.5625	2751.2008	3956.7	3074.55
1001.6833	2752.4057	3937.2	3051
1001.8042	2753.61	3925.7	3044.35
1001.925	2754.8136	3904.4	3021.65
1002.0458	2756.0165	3915.65	3036.65
1002.1665	2757.2188	3880.95	3000.55
1002.2872	2758.4204	3885.55	3005.2
1002.4078	2759.6213	3871.05	2987.45
1002.5285	2760.8215	3863.45	2977.75
1002.649	2762.0211	3855.8	2974.45
1002.7696	2763.22	3814.3	2928.5
1002.8901	2764.4182	3816.95	2934.45
1003.0106	2765.6158	3820.2	2940.85
1003.131	2766.8127	3807.85	2926.85
1003.2514	2768.009	3793.4	2913.9
1003.3717	2769.2045	3785.8	2903.75
1003.492	2770.3994	3770.4	2888.05
1003.6123	2771.5936	3754.25	2873.95
1003.7325	2772.7872	3740.65	2860
1003.8527	2773.9801	3730.4	2847.8
1003.9729	2775.1723	3740	2843.55
1004.093	2776.3639	3707.3	2828.45
1004.2131	2777.5548	3698.7	2814.5
1004.3331	2778.745	3698.05	2815.3
1004.4531	2779.9346	3678.95	2799.65
1004.5731	2781.1235	3671.75	2789.45
1004.693	2782.3117	3661.65	2782.15
1004.8129	2783.4992	3651.65	2770.1
1004.9328	2784.6861	3642.8	2764.05
1005.0526	2785.8723	3635.15	2753.55
1005.1723	2787.0579	3625.6	2746.35
1005.2921	2788.2428	3610.65	2729.9
1005.4118	2789.427	3605.1	2726.25
1005.5314	2790.6106	3598.95	2717.25
1005.651	2791.7935	3581.2	2698.75
1005.7706	2792.9757	3584.65	2702.8
1005.8902	2794.1573	3568.3	2687.45
1006.0097	2795.3382	3568.95	2688.2
1006.1291	2796.5184	3543.35	2662.3
1006.2485	2797.698	3531.1	2648.15
1006.3679	2798.8769	3531.9	2651.95
1006.4873	2800.0551	3523.55	2643.75
1006.6066	2801.2327	3534.55	2651.55
1006.7258	2802.4096	3514.45	2635.3
1006.8451	2803.5859	3518.4	2636.6
1006.9642	2804.7615	3501.85	2621.65
1007.0834	2805.9364	3512.6	2633.2
1007.2025	2807.1106	3501.95	2622.25
1007.3216	2808.2842	3511.25	2628.85
1007.4406	2809.4572	3500.05	2620.15
1007.5596	2810.6294	3514.95	2632.75
1007.6785	2811.801	3523.25	2643.5
1007.7975	2812.972	3523.05	2643.5
1007.9163	2814.1423	3526.45	2646.85
1008.0352	2815.3119	3541.75	2660.3
1008.154	2816.4808	3545.45	2665.2
1008.2727	2817.6491	3558.3	2678.75
1008.3914	2818.8167	3572	2694.95
1008.5101	2819.9837	3580.8	2696.1
1008.6288	2821.15	3585.7	2704.25
1008.7474	2822.3157	3593.55	2714.4
1008.8659	2823.4807	3622.55	2742.05
1008.9844	2824.645	3638.9	2758.25
1009.1029	2825.8086	3641.15	2759.95
1009.2214	2826.9716	3656.2	2776.6
1009.3398	2828.134	3676.35	2796.05
1009.4581	2829.2957	3702.8	2822.7
1009.5764	2830.4567	3708.95	2830.95
1009.6947	2831.617	3704.05	2822.85
1009.813	2832.7767	3719.3	2840.6
1009.9312	2833.9358	3707.15	2827.3
1010.0493	2835.0941	3696.1	2812.95
1010.1675	2836.2519	3673.7	2793.8
1010.2855	2837.4089	3653.25	2772.55
1010.4036	2838.5653	3650.95	2769.95
1010.5216	2839.7211	3644.5	2764.8
1010.6396	2840.8761	3627.4	2745.65
1010.7575	2842.0306	3619.9	2741.35
1010.8754	2843.1843	3623.6	2744.35
1010.9932	2844.3374	3637.15	2756.65
1011.111	2845.4899	3655.05	2774.5
1011.2288	2846.6417	3669.95	2791.4
1011.3465	2847.7928	3691.15	2811.8
1011.4642	2848.9433	3708.4	2829.65
1011.5818	2850.0931	3719.5	2840.3
1011.6995	2851.2422	3752.4	2868.9
1011.817	2852.3907	3756.8	2875.05
1011.9345	2853.5385	3765.9	2883.4
1012.052	2854.6857	3786.6	2895.25
1012.1695	2855.8323	3796.1	2917.45
1012.2869	2856.9781	3804.95	2925.8
1012.4042	2858.1233	3823.6	2944.8
1012.5216	2859.2679	3827.15	2945.55
1012.6389	2860.4118	3838.45	2958.75
1012.7561	2861.555	3858.5	2973.3
1012.8733	2862.6976	3866.7	2986.15
1012.9905	2863.8395	3860.55	2979.2
1013.1076	2864.9808	3869.65	2990.65
1013.2247	2866.1214	3864.1	2985.95
1013.3417	2867.2614	3876.35	2996.05
1013.4587	2868.4007	3871	2990.25
1013.5757	2869.5393	3858.35	2974.75
1013.6926	2870.6773	3847.5	2963.8
1013.8095	2871.8146	3862.65	2979.8
1013.9263	2872.9513	3837.35	2954.95
1014.0431	2874.0874	3822.1	2944.05
1014.1599	2875.2227	3820.35	2940.5
1014.2766	2876.3574	3808.4	2929.7
1014.3933	2877.4915	3785.1	2905.45
1014.51	2878.6249	3749	2869.65
1014.6266	2879.7577	3746.7	2862.5
1014.7431	2880.8898	3733.4	2844.95
1014.8596	2882.0212	3704.4	2824.5
1014.9761	2883.152	3697.4	2817.85
1015.0925	2884.2821	3682.75	2802.9
1015.2089	2885.4116	3688.3	2809.85
1015.3253	2886.5405	3662.35	2784.8
1015.4416	2887.6686	3657	2772.75
1015.5579	2888.7962	3659	2781.7
1015.6741	2889.923	3648.55	2769.8
1015.7903	2891.0493	3650.8	2769.3
1015.9065	2892.1748	3628.8	2748.15
1016.0226	2893.2997	3638	2759.55
1016.1387	2894.424	3627.15	2749.5
1016.2547	2895.5476	3619.45	2739.3
1016.3707	2896.6706	3636.65	2756.8
1016.4866	2897.7929	3625.95	2745
1016.6025	2898.9145	3640.8	2760
1016.7184	2900.0355	3638.05	2757.8
1016.8342	2901.1559	3633.7	2752.6
1016.95	2902.2756	3629.15	2750.9
1017.0658	2903.3946	3640.15	2761.4
1017.1815	2904.513	3655.55	2771.4
1017.2971	2905.6308	3651.6	2771.45
1017.4127	2906.7479	3644	2764.7
1017.5283	2907.8643	3645.25	2763.7
1017.6439	2908.9801	3644	2766.45
1017.7594	2910.0953	3640.95	2761.25
1017.8748	2911.2098	3653.35	2769.1
1017.9902	2912.3236	3626.45	2737.15
1018.1056	2913.4368	3612.35	2730.1
1018.2209	2914.5494	3605.4	2726.9
1018.3362	2915.6613	3592.95	2708.8
1018.4515	2916.7725	3572.6	2690.2
1018.5667	2917.8831	3554.6	2675.75
1018.6819	2918.9931	3526.35	2645.15
1018.797	2920.1024	3523.7	2642.6
1018.9121	2921.211	3490.75	2611
1019.0271	2922.319	3490.2	2611
1019.1421	2923.4264	3465.6	2586.45
1019.2571	2924.5331	3459.9	2579.6
1019.372	2925.6391	3449.25	2570.35
1019.4869	2926.7445	3436.4	2557.85
1019.6017	2927.8493	3443.45	2563.8
1019.7165	2928.9534	3426.45	2546.2
1019.8313	2930.0569	3440.05	2556.55
1019.946	2931.1597	3441.35	2561.95
1020.0606	2932.2619	3426.8	2547.2
1020.1753	2933.3634	3425.55	2545.55
1020.2899	2934.4643	3421.15	2532.25
1020.4044	2935.5645	3400.95	2515.9
1020.5189	2936.6641	3381.7	2496.15
1020.6334	2937.763	3361.55	2484.7
1020.7478	2938.8613	3348.95	2469.35
1020.8622	2939.959	3323	2438.25
1020.9765	2941.056	3285.5	2406.9
1021.0908	2942.1523	3247.1	2366.3
1021.2051	2943.248	3220.95	2338.7
1021.3193	2944.3431	3163.1	2284.1
1021.4334	2945.4375	3118.75	2238.3
1021.5476	2946.5313	3079.2	2199.85
1021.6617	2947.6244	3026.25	2147.3
1021.7757	2948.7169	2984.45	2101.6
1021.8897	2949.8087	2933.4	2054.95
1022.0037	2950.8999	2905.8	2026.2
1022.1176	2951.9904	2857.85	1978.9
1022.2315	2953.0803	2825.05	1945.5
1022.3453	2954.1696	2791.6	1910.4
1022.4591	2955.2582	2767.5	1888.1
1022.5728	2956.3462	2749.1	1869.85
1022.6865	2957.4335	2722.6	1843.75
1022.8002	2958.5202	2698.95	1816.25
1022.9138	2959.6062	2684.8	1805.1
1023.0274	2960.6916	2672.85	1795.45
1023.141	2961.7764	2659.55	1779.75
1023.2545	2962.8605	2641.9	1760.75
1023.3679	2963.9439	2629.15	1751.15
1023.4813	2965.0267	2624.15	1744.95
1023.5947	2966.1089	2629.2	1725.8
1023.708	2967.1905	2605.15	1726.3
1023.8213	2968.2714	2599.65	1719.45
1023.9346	2969.3516	2587.95	1708.2
1024.0478	2970.4312	2596.7	1710.25
1024.1609	2971.5102	2586.9	1709
1024.274	2972.5885	2579.95	1701.45
1024.3871	2973.6662	2582.45	1698.15
1024.5002	2974.7432	2570.2	1691.75
1024.6132	2975.8196	2557.3	1676.8
1024.7261	2976.8954	2546.45	1668.65
1024.839	2977.9705	2532.95	1654.45
1024.9519	2979.045	2524.4	1647.15
1025.0647	2980.1188	2521.2	1642
1025.1775	2981.192	2507.2	1627.8
1025.2902	2982.2645	2495.3	1616.65
1025.4029	2983.3364	2488.25	1607.85
1025.5156	2984.4077	2466.95	1590.1
1025.6282	2985.4783	2459.9	1574.55
1025.7407	2986.5483	2426.75	1549
1025.8532	2987.6177	2417.2	1537.9
1025.9657	2988.6864	2393.7	1513.2
1026.0782	2989.7545	2370.75	1489.15
1026.1906	2990.8219	2357.7	1480.3
1026.3029	2991.8887	2344.2	1462.1
1026.4152	2992.9548	2330.15	1451.95
1026.5275	2994.0204	2297.05	1418.5
1026.6397	2995.0852	2295.9	1417.95
1026.7519	2996.1495	2274.55	1394.35
1026.864	2997.2131	2266.55	1387.35
1026.9761	2998.276	2233.75	1355.9
1027.0882	2999.3383	2240.45	1361.2
1027.2002	3000.4	2222.2	1341.5
1027.3122	3001.4611	2212.15	1333.35
1027.4241	3002.5215	2199.2	1319.5
1027.536	3003.5812	2187.5	1307.95
1027.6478	3004.6404	2180.6	1301.7
1027.7596	3005.6989	2165.9	1285
1027.8714	3006.7567	2154.3	1273.8
1027.9831	3007.8139	2170.25	1262.7
1028.0947	3008.8705	2141.55	1261.9
1028.2064	3009.9264	2138.4	1255.45
1028.3179	3010.9818	2123.85	1247.6
1028.4295	3012.0364	2126.95	1247.8
1028.541	3013.0905	2120.7	1242.15
1028.6524	3014.1439	2100.45	1220.2
1028.7638	3015.1966	2089.65	1209.45
1028.8752	3016.2487	2094.55	1216.55
1028.9865	3017.3002	2094.1	1210.65
1029.0978	3018.3511	2088.65	1211.1
1029.209	3019.4013	2079.1	1199.45
1029.3202	3020.4509	2069.5	1191.75
1029.4314	3021.4998	2069.45	1190.25
1029.5425	3022.5481	2058.75	1179.75
1029.6535	3023.5958	2056.55	1177.1
1029.7645	3024.6428	2064.7	1184.3
1029.8755	3025.6892	2047.15	1169.8
1029.9864	3026.735	2046.45	1167.6
1030.0973	3027.7802	2035.7	1157.6
1030.2082	3028.8247	2031.95	1154
1030.319	3029.8685	2021.5	1141.5
1030.4297	3030.9118	2026.3	1145.15
1030.5404	3031.9544	2023.15	1143.1
1030.6511	3032.9963	2010.6	1131.65
1030.7617	3034.0376	2009.8	1131.35
1030.8723	3035.0783	2010.5	1126.85
1030.9829	3036.1184	2001.1	1120.15
1031.0934	3037.1578	2008.15	1131.35
1031.2038	3038.1966	2006.05	1124.9
1031.3142	3039.2348	1994.1	1117.8
1031.4246	3040.2723	1998.8	1109.4
1031.5349	3041.3092	1986.75	1107.85
1031.6452	3042.3455	1981.85	1102.25
1031.7554	3043.3811	1978.3	1099.8
1031.8656	3044.4161	1959.85	1079.65
1031.9758	3045.4505	1974.65	1096.65
1032.0859	3046.4842	1961.85	1082.4
1032.1959	3047.5173	1956.35	1079.1
1032.3059	3048.5498	1955.9	1075.95
1032.4159	3049.5816	1949.7	1069.9
1032.5258	3050.6128	1943.7	1064
1032.6357	3051.6434	1937.6	1057.4
1032.7455	3052.6734	1937.7	1056.6
1032.8553	3053.7027	1934.9	1056.15
1032.9651	3054.7314	1923.8	1044.95
1033.0748	3055.7594	1926	1048.45
1033.1845	3056.7868	1910.85	1031
1033.2941	3057.8136	1900.25	1022.2
1033.4037	3058.8398	1899.3	1020.5
1033.5132	3059.8653	1894.3	1013.3
1033.6227	3060.8902	1897.75	1020.75
1033.7321	3061.9145	1882.85	1002.95
1033.8415	3062.9381	1880.25	1002.05
1033.9509	3063.9612	1886.9	993.05
1034.0602	3064.9835	1874.75	994.55
1034.1694	3066.0053	1866.4	985.2
1034.2787	3067.0264	1860.35	981.9
1034.3878	3068.0469	1856.55	975.85
1034.497	3069.0668	1852.1	969.25
1034.6061	3070.086	1845.85	968.3
1034.7151	3071.1046	1845.55	965.45
1034.8241	3072.1226	1843.7	963.45
1034.9331	3073.1399	1829.25	949.8
1035.042	3074.1567	1824.3	946.45
1035.1508	3075.1727	1821.65	940.8
1035.2597	3076.1882	1811.15	932.95
1035.3684	3077.203	1803.05	923
1035.4772	3078.2173	1800.9	920.05
1035.5859	3079.2308	1797.65	915.15
1035.6945	3080.2438	1784	902.65
1035.8031	3081.2561	1773.95	895.55
1035.9117	3082.2678	1768.75	889.2
1036.0202	3083.2789	1773.4	892.35
1036.1286	3084.2893	1761.7	884.95
1036.2371	3085.2991	1760.3	880.25
1036.3454	3086.3083	1762.7	879.9
1036.4538	3087.3169	1749.35	868.05
1036.562	3088.3248	1754.55	874.05
1036.6703	3089.3321	1738.65	859.15
1036.7785	3090.3388	1737.35	859.7
1036.8866	3091.3449	1727.85	846.9
1036.9948	3092.3503	1716.85	837.9
1037.1028	3093.3551	1718.1	839.4
1037.2108	3094.3593	1710.45	833.5
1037.3188	3095.3629	1710.9	832
1037.4267	3096.3658	1700.55	821.85
1037.5346	3097.3681	1704.4	825.1
1037.6425	3098.3698	1696.55	815.3
1037.7503	3099.3708	1692.7	808.3
1037.858	3100.3713	1683.25	805.1
1037.9657	3101.3711	1681.1	802.8
1038.0734	3102.3702	1798.2	782.9
1038.181	3103.3688	1681.2	799.7
1038.2886	3104.3667	1670.65	792.75
1038.3961	3105.364	1655.35	776.95
1038.5036	3106.3607	1656.7	778.55
1038.611	3107.3568	1655.65	775.95
1038.7184	3108.3522	1639.5	761.85
1038.8257	3109.347	1645.05	765.65
1038.933	3110.3412	1653.4	769.6
1039.0403	3111.3348	1630.8	752.4
1039.1475	3112.3277	1621.75	744.4
1039.2547	3113.32	1620.25	741.3
1039.3618	3114.3117	1622.85	745.15
1039.4689	3115.3028	1614.35	736.55
1039.5759	3116.2932	1610.3	730.4
1039.6829	3117.2831	1613.65	730.95
1039.7898	3118.2723	1604.55	725.35
1039.8967	3119.2608	1592.1	712
1040.0035	3120.2488	1597.7	718.7
1040.1103	3121.2361	1587.3	708.8
1040.2171	3122.2229	1581.05	703.55
1040.3238	3123.209	1578.7	696.95
1040.4305	3124.1944	1583.8	706.3
1040.5371	3125.1793	1578.35	698.25
1040.6437	3126.1635	1566.65	688
1040.7502	3127.1471	1564.5	687.25
1040.8567	3128.1301	1569.4	693.55
1040.9631	3129.1125	1558.75	680.85
1041.0695	3130.0942	1559.8	680.8
1041.1759	3131.0753	1562.45	674.65
1041.2822	3132.0558	1548.1	667.35
1041.3884	3133.0357	1545.1	665.65
1041.4946	3134.015	1543.7	665.6
1041.6008	3134.9936	1540.65	659.65
1041.7069	3135.9716	1556.25	657.65
1041.813	3136.949	1534.65	658.55
1041.919	3137.9258	1537.4	651.6
1042.025	3138.902	1532.15	648
1042.1309	3139.8775	1532.15	655.65
1042.2368	3140.8524	1520	639.6
1042.3427	3141.8267	1519.5	641.3
1042.4485	3142.8004	1513.7	635.85
1042.5542	3143.7735	1526.15	638.95
1042.6599	3144.7459	1509.15	629.9
1042.7656	3145.7178	1516	637.85
1042.8712	3146.689	1501.45	625.6
1042.9768	3147.6596	1503.1	622.75
1043.0823	3148.6295	1501.5	622.7
1043.1878	3149.5989	1491.3	612.75
1043.2932	3150.5676	1494.45	617.45
1043.3986	3151.5357	1482.5	606.75
1043.5039	3152.5032	1484.15	607
1043.6092	3153.4701	1480.4	600.15
1043.7145	3154.4364	1490.45	610.35
1043.8197	3155.402	1478.45	599.65
1043.9248	3156.367	1481.35	602.5
1044.03	3157.3315	1510.55	592
1044.135	3158.2952	1464.35	584.7
1044.24	3159.2584	1455.65	576.1
1044.345	3160.221	1454.5	574.8
1044.4499	3161.1829	1459.3	582.6
1044.5548	3162.1442	1449	569.8
1044.6596	3163.105	1450.6	572.95
1044.7644	3164.065	1440.85	562.9
1044.8692	3165.0245	1443.75	562.1
1044.9739	3165.9834	1431.8	553.8
1045.0785	3166.9416	1435.5	557.4
1045.1831	3167.8993	1433.35	555.45
1045.2877	3168.8563	1425.35	547.05
1045.3922	3169.8127	1424.2	545.25
1045.4966	3170.7684	1422.55	545.6
1045.6011	3171.7236	1413.35	533.45
1045.7054	3172.6782	1425.45	546.3
1045.8098	3173.6321	1417.05	540.15
1045.914	3174.5854	1414.35	531.35
1046.0183	3175.5381	1413	534.45
1046.1224	3176.4902	1405.6	528.35
1046.2266	3177.4417	1402.35	523.95
1046.3307	3178.3926	1401.35	523.35
1046.4347	3179.3428	1396.7	516.05
1046.5387	3180.2924	1392.9	514.7
1046.6427	3181.2415	1388.5	509.95
1046.7466	3182.1899	1386.95	505
1046.8504	3183.1377	1378.5	501.1
1046.9542	3184.0848	1378.1	495.9
1047.058	3185.0314	1380.1	501.7
1047.1617	3185.9773	1370.5	491.25
1047.2654	3186.9227	1376.45	497
1047.369	3187.8674	1372	493.7
1047.4726	3188.8115	1371.95	488.8
1047.5761	3189.755	1367.05	489.35
1047.6796	3190.6979	1364.25	486.15
1047.783	3191.6402	1360.25	481.4
1047.8864	3192.5818	1360.3	480.75
1047.9898	3193.5229	1372.15	478.3
1048.0931	3194.4633	1354.6	475.6
1048.1963	3195.4031	1348.55	470
1048.2995	3196.3423	1350.85	473.05
1048.4027	3197.2809	1344.65	465.05
1048.5058	3198.2189	1340.9	461.95
1048.6089	3199.1563	1359.2	464.15
1048.7119	3200.0931	1342.45	464.55
1048.8148	3201.0292	1339.1	460.9
1048.9178	3201.9648	1331.4	452.7
1049.0206	3202.8997	1333.4	452.45
1049.1235	3203.834	1332.15	454.9
1049.2262	3204.7677	1320.2	442.8
1049.329	3205.7008	1327	445.25
1049.4317	3206.6333	1320.9	443.35
1049.5343	3207.5652	1319	440.05
1049.6369	3208.4964	1323.05	444
1049.7394	3209.4271	1316.85	438.9
1049.8419	3210.3571	1315.9	438.45
1049.9444	3211.2865	1310.45	432.75
1050.0468	3212.2154	1309.55	430.9
1050.1491	3213.1436	1313.75	432.6
1050.2514	3214.0712	1309.4	424
1050.3537	3214.9982	1302.55	424.4
1050.4559	3215.9246	1298.95	419.6
1050.5581	3216.8503	1298.15	420.65
1050.6602	3217.7755	1292.25	414.45
1050.7623	3218.7001	1297.2	419.65
1050.8643	3219.624	1291.8	414.4
1050.9663	3220.5473	1300.65	420.75
1051.0682	3221.4701	1293.8	412.25
1051.1701	3222.3922	1289.05	407.3
1051.2719	3223.3137	1289	411
1051.3737	3224.2346	1276.55	399.6
1051.4754	3225.1549	1278.65	401.05
1051.5771	3226.0746	1281.25	403.3
1051.6788	3226.9937	1273.05	393.45
1051.7804	3227.9121	1270.95	395.6
1051.8819	3228.83	1273.3	395.05
1051.9834	3229.7473	1266.05	386.6
1052.0849	3230.6639	1266.5	386.1
1052.1863	3231.5799	1261.85	384.65
1052.2876	3232.4954	1262.8	382.7
1052.3889	3233.4102	1257.6	379.95
1052.4902	3234.3244	1260.25	382.95
1052.5914	3235.238	1255.35	377.3
1052.6926	3236.151	1270.6	369.2
1052.7937	3237.0634	1246.05	369.75
1052.8948	3237.9752	1248.75	370.4
1052.9958	3238.8864	1248.7	369.4
1053.0968	3239.797	1248.45	369.1
1053.1977	3240.7069	1245.85	366.95
1053.2986	3241.6163	1239.3	359.6
1053.3994	3242.5251	1240.15	364.6
1053.5002	3243.4332	1233.6	358.5
1053.6009	3244.3408	1231.2	353.45
1053.7016	3245.2477	1225.5	346.85
1053.8022	3246.154	1229.1	348.45
1053.9028	3247.0598	1223.85	347.05
1054.0034	3247.9649	1221.9	344.45
1054.1039	3248.8694	1222.8	344.45
1054.2043	3249.7733	1220.1	340.95
1054.3047	3250.6766	1218.05	340
1054.4051	3251.5793	1219.75	340.25
1054.5054	3252.4814	1211.05	335.5
1054.6056	3253.3829	1215.85	336
1054.7058	3254.2838	1208.95	330.95
1054.806	3255.1841	1216.5	337.75
1054.9061	3256.0838	1209.5	331.15
1055.0061	3256.9829	1201.5	324.7
1055.1062	3257.8814	1205.35	326.65
1055.2061	3258.7792	1199.9	320.3
1055.306	3259.6765	1195.4	314.95
1055.4059	3260.5731	1190.2	312.7
1055.5057	3261.4692	1187.65	307.05
1055.6055	3262.3647	1184.4	305.25
1055.7052	3263.2595	1176.45	297.3
1055.8049	3264.1538	1175.45	297.25
1055.9045	3265.0474	1170.15	292.4
1056.0041	3265.9404	1164.8	286.65
1056.1036	3266.8329	1159.15	282.65
1056.2031	3267.7247	1169.3	280.35
1056.3025	3268.616	1147.45	270.7
1056.4019	3269.5066	1147.1	268.9
1056.5013	3270.3966	1138.9	259.9
1056.6005	3271.286	1129.45	250.75
