Software Version:	3.9.2.0
Unit SN:	10000200
Spectrometer SN:	6960
Date:	3/6/2024 10:08:06 AM
Data Line Index:	25
Spectral Points:	2048
Integration time (ms):	125
Averages:	20
Delay (ms):	30
Sequence Number:	1
Processing:	dark subtract
Laser Power (mW):	300
Laser Current (mA):	824
Laser Diode Temp (C):	25
Laser Case Temp (C):	24.9
System Temp (C):	24.6
Spectrometer Temp (C):	22.3
CCD Temp (C):	-0.005
Secondary Temp (C):	20.006
Heatsink Temp (C):	18.457
CCDPCB Temp (C):	31.905
SecondaryPCB Temp (C):	26.258

Wavelength	RamanShift	Raw Counts	Dark Subtracted
787.061	30.1047	845.8	434.8
787.2016	32.3739	862.2	454.65
787.3422	34.6426	889.9	482
787.4828	36.9109	920	511.2
787.6235	39.1787	957.05	543.45
787.7642	41.4461	999.5	580.4
787.9049	43.7131	1034.6	613.85
788.0456	45.9796	1071.6	647.75
788.1863	48.2456	1111.1	682.85
788.3271	50.5112	1155.95	723.75
788.4679	52.7764	1198.15	764.15
788.6087	55.0411	1249.85	811
788.7496	57.3054	1303.05	859.2
788.8904	59.5692	1353.8	908.35
789.0313	61.8326	1414.05	966.8
789.1722	64.0955	1481.7	1030.7
789.3132	66.3579	1560.15	1105.55
789.4541	68.6199	1661.9	1202.55
789.5951	70.8815	1832.4	1367.7
789.7361	73.1426	2204.1	1735.85
789.8771	75.4032	3132.55	2662.1
790.0181	77.6634	5513.4	5037.55
790.1592	79.9231	11546	11063.95
790.3003	82.1824	31271.8	30776
790.4414	84.4412	57718.65	57203.85
790.5825	86.6995	61920.1	61380.3
790.7237	88.9574	63501.3	62941.5
790.8648	91.2148	64321.2	63742
791.006	93.4717	64576	63988.85
791.1472	95.7282	64701.6	64113.15
791.2885	97.9842	64773.15	64180.55
791.4297	100.2398	64752.3	64155.85
791.571	102.4949	64775.45	64176.1
791.7123	104.7495	64794.05	64189.65
791.8536	107.0036	64751.8	64145.7
791.9949	109.2573	64816.65	64211.9
792.1363	111.5105	64774.55	64167
792.2777	113.7632	64805.45	64198.45
792.4191	116.0154	64821.05	64198.1
792.5605	118.2672	64848.25	64234.2
792.7019	120.5185	64846.4	64233.3
792.8434	122.7693	64844.85	64229.15
792.9849	125.0197	64800.95	64181.1
793.1264	127.2696	64878.45	64250.3
793.2679	129.519	64878.8	64249
793.4094	131.7679	64909.7	64276.9
793.551	134.0163	64821.1	64184.7
793.6926	136.2642	64858.5	64220.75
793.8342	138.5117	64911.55	64271.6
793.9758	140.7587	64888	64246.7
794.1175	143.0052	64887.15	64243.6
794.2591	145.2512	64854.45	64207
794.4008	147.4967	64903.25	64254.75
794.5425	149.7417	64878.15	64227.85
794.6842	151.9863	64887.7	64235.7
794.826	154.2304	64845.65	64186.05
794.9677	156.4739	64885.55	64222
795.1095	158.717	64898.95	64234.95
795.2513	160.9596	64879.7	64209.9
795.3931	163.2017	64842.9	64172.4
795.535	165.4433	64887.1	64213.95
795.6768	167.6844	64866.95	64192.65
795.8187	169.925	64890.55	64214.05
795.9606	172.1651	64878.15	64200.4
796.1025	174.4047	64871.3	64188.35
796.2445	176.6439	64876.2	64193.45
796.3864	178.8825	64876.15	64191.55
796.5284	181.1206	64893.85	64204.25
796.6704	183.3582	64889.8	64196.7
796.8124	185.5954	64864.7	64164.95
796.9544	187.832	64885.8	64183.6
797.0965	190.0681	64864.5	64159
797.2386	192.3037	64898.9	64190.5
797.3806	194.5388	64938.2	64226.4
797.5228	196.7734	64838.55	64123.35
797.6649	199.0075	64923.2	64209.2
797.807	201.2411	64889.3	64173.9
797.9492	203.4742	64937.7	64221.2
798.0914	205.7068	64928.25	64204.9
798.2336	207.9389	64924.8	64204.2
798.3758	210.1704	64913.6	64196
798.518	212.4015	64946	64240.1
798.6603	214.632	64893.6	64192.3
798.8025	216.862	64947.45	64249.25
798.9448	219.0915	64936.85	64234.25
799.0871	221.3205	64919.9	64214.45
799.2294	223.549	64964.75	64263.9
799.3718	225.777	64955.85	64252.15
799.5141	228.0044	64973.35	64267.55
799.6565	230.2314	64961.7	64253.35
799.7989	232.4578	64959.15	64244.05
799.9413	234.6837	64957.65	64238.9
800.0837	236.909	65031.65	64311.15
800.2262	239.1339	64935.2	64188
800.3687	241.3582	64981.7	64244.15
800.5111	243.582	64985.6	64218.95
800.6536	245.8053	64979.05	64233.4
800.7961	248.0281	64981.45	64235.45
800.9387	250.2503	64993.35	64244.55
801.0812	252.472	64969	64214.95
801.2238	254.6932	64986.8	64235.35
801.3664	256.9139	64973.8	64221.2
801.509	259.134	65034	64279.05
801.6516	261.3536	64948.9	64195.7
801.7942	263.5727	65007.55	64251.05
801.9369	265.7912	64979.5	64224.75
802.0795	268.0092	64992.85	64238.7
802.2222	270.2267	64990.8	64232.9
802.3649	272.4436	64962	64204.15
802.5076	274.6601	64996.95	64229.95
802.6504	276.8759	65009.3	64246.45
802.7931	279.0913	64993.65	64231
802.9359	281.3061	64991.75	64227.4
803.0787	283.5204	64998.75	64229.3
803.2215	285.7341	64991.9	64218.8
803.3643	287.9473	65035.4	64251.95
803.5071	290.16	64996.95	64225.4
803.6499	292.3721	65029.75	64260.3
803.7928	294.5837	64982.85	64214.85
803.9357	296.7947	64961.4	64189
804.0786	299.0052	65009	64237.65
804.2215	301.2152	64988.7	64214.45
804.3644	303.4246	65029.55	64254.9
804.5074	305.6334	65015.1	64244.2
804.6503	307.8418	64971.9	64198.85
804.7933	310.0495	64994.55	64214.55
804.9363	312.2568	64983.95	64205.5
805.0793	314.4635	64984.95	64201.15
805.2223	316.6696	65006.2	64224.45
805.3653	318.8752	65011.6	64220.65
805.5084	321.0802	64946.45	64163
805.6514	323.2847	64970	64183.75
805.7945	325.4887	64975.75	64190.7
805.9376	327.692	64951.3	64159.75
806.0807	329.8949	64969.4	64181.05
806.2238	332.0972	64958.7	64165.25
806.367	334.2989	64968.8	64176
806.5101	336.5001	64997.8	64201.95
806.6533	338.7007	64945.95	64152.5
806.7965	340.9008	64973.7	64178.35
806.9397	343.1003	64980.95	64180.05
807.0829	345.2992	64991.1	64192
807.2261	347.4976	64961.4	64161.35
807.3693	349.6955	64967.35	64160.3
807.5126	351.8927	64945.95	64140.1
807.6559	354.0895	64982.85	64168.2
807.7991	356.2856	64976.65	64170.8
807.9424	358.4812	65001.9	64192.3
808.0857	360.6763	64962.85	64151.15
808.2291	362.8707	64973.85	64163.45
808.3724	365.0646	64968.85	64151.85
808.5158	367.258	64968.05	64153.2
808.6591	369.4508	64953.15	64133.85
808.8025	371.643	64972	64153.15
808.9459	373.8346	64967.3	64146.05
809.0893	376.0257	64960	64133.95
809.2327	378.2162	64961.85	64137.6
809.3762	380.4062	64936.45	64112.4
809.5196	382.5956	64955.75	64129.15
809.6631	384.7844	64955.65	64137.85
809.8066	386.9726	64966.25	64149.35
809.9501	389.1603	64970.6	64156.65
810.0936	391.3474	64932.8	64074.9
810.2371	393.5339	64968.15	64147.05
810.3806	395.7199	64922	64108.85
810.5241	397.9052	64922.25	64108.95
810.6677	400.09	64946.35	64130.65
810.8113	402.2743	64947.1	64128.55
810.9548	404.4579	64934.15	64118.6
811.0984	406.641	64916.5	64097.45
811.2421	408.8235	64946.2	64125.05
811.3857	411.0054	64941.25	64119.05
811.5293	413.1868	64942.55	64114.3
811.673	415.3675	64945.25	64117.15
811.8166	417.5477	64941.55	64109.65
811.9603	419.7273	64936.45	64105.4
812.104	421.9064	64929.45	64091.8
812.2477	424.0848	64948.65	64114.95
812.3914	426.2627	64956.15	64124.1
812.5351	428.4399	64914.8	64079.75
812.6788	430.6166	64906.8	64068.6
812.8226	432.7928	64925.75	64085.7
812.9663	434.9683	64906.55	64070.45
813.1101	437.1432	64911.9	64070.95
813.2539	439.3176	64928.1	64091.7
813.3977	441.4914	64884.7	64046.1
813.5415	443.6645	64882.55	64045.65
813.6853	445.8371	64894.2	64056.05
813.8291	448.0091	64877.05	64038
813.973	450.1806	64869.2	64030.5
814.1168	452.3514	64865.55	64025.8
814.2607	454.5216	64853.5	64002.45
814.4046	456.6913	64850.25	64006.6
814.5485	458.8603	64854.05	64009.45
814.6924	461.0288	64844.5	64006.2
814.8363	463.1967	64855.4	64021.1
814.9802	465.3639	64859.25	64017.75
815.1241	467.5306	64833.45	63989.8
815.2681	469.6967	64838.1	63997.25
815.412	471.8622	64831.8	63993.25
815.556	474.0271	64832.75	63990.7
815.7	476.1914	64843.5	63994.6
815.844	478.3551	64845.35	64003.05
815.988	480.5182	64863.25	64022.25
816.132	482.6807	64838.6	63997.6
816.276	484.8426	64840.1	64004.75
816.4201	487.0039	64852.7	64010.5
816.5641	489.1647	64849.1	64004.2
816.7082	491.3248	64834.45	63983.2
816.8522	493.4843	64854.9	64009.7
816.9963	495.6432	64869.1	64023.75
817.1404	497.8015	64846.2	63994.8
817.2845	499.9592	64849.45	63999.15
817.4286	502.1163	64853.95	64000.15
817.5727	504.2728	64847.1	63995.2
817.7168	506.4287	64852.9	64006.35
817.861	508.5839	64839.95	63992.9
818.0051	510.7386	64833.1	63979.9
818.1493	512.8927	64852	63995.45
818.2935	515.0461	64848.65	63995.1
818.4377	517.199	64842.85	63988.45
818.5818	519.3512	64844.8	63991.15
818.726	521.5029	64830.95	63968.65
818.8703	523.6539	64825.55	63969.95
819.0145	525.8043	64802.1	63945
819.1587	527.9541	64832.1	63969.9
819.303	530.1033	64826.45	63968.1
819.4472	532.2519	64816	63959.35
819.5915	534.3999	64832.3	63969.1
819.7357	536.5472	64830.85	63970.95
819.88	538.694	64813.95	63958.45
820.0243	540.8401	64833	63971.5
820.1686	542.9856	64828.9	63963.35
820.3129	545.1305	64832.4	63960.95
820.4572	547.2748	64819.05	63950.4
820.6016	549.4185	64832.35	63961.75
820.7459	551.5615	64822.2	63951.85
820.8902	553.704	64823.3	63954.2
821.0346	555.8458	64817.65	63949.05
821.1789	557.987	64820.5	63954.4
821.3233	560.1276	64820.3	63951.25
821.4677	562.2675	64817.05	63950.75
821.6121	564.4069	64807.95	63944.9
821.7565	566.5456	64823.95	63957.75
821.9009	568.6837	64811.2	63944.3
822.0453	570.8212	64818.4	63953.3
822.1897	572.958	64785.15	63919.1
822.3342	575.0942	64803.3	63937.95
822.4786	577.2299	64775	63908.4
822.6231	579.3648	64782.5	63922.15
822.7675	581.4992	64768.65	63911.8
822.912	583.6329	64767	63910.35
823.0565	585.766	64761.5	63902.6
823.201	587.8985	64758.65	63899.6
823.3454	590.0304	64747.25	63857.85
823.4899	592.1616	64747.75	63880.9
823.6345	594.2922	64746.4	63874.85
823.779	596.4222	64735.4	63861
823.9235	598.5515	64733.4	63858.85
824.068	600.6802	64742.45	63866.25
824.2126	602.8083	64715.15	63844.8
824.3571	604.9358	64703.6	63827.9
824.5017	607.0626	64713.5	63839.3
824.6462	609.1888	64700.55	63822.15
824.7908	611.3144	64716.65	63840.2
824.9354	613.4393	64709.05	63833.1
825.08	615.5636	64690.75	63808.7
825.2246	617.6873	64708.55	63831.2
825.3692	619.8103	64690.3	63813.9
825.5138	621.9327	64681.2	63802.15
825.6584	624.0544	64693.7	63820.3
825.803	626.1756	64682.2	63807.85
825.9477	628.2961	64685.45	63808
826.0923	630.4159	64672.45	63793.3
826.237	632.5351	64671.65	63792.2
826.3816	634.6537	64684.05	63802.8
826.5263	636.7716	64650.1	63767.2
826.6709	638.8889	64670.2	63785.05
826.8156	641.0056	64676.65	63789.95
826.9603	643.1216	64672.2	63788.25
827.105	645.237	64693.15	63809.4
827.2497	647.3518	64673.35	63790
827.3944	649.4659	64663.85	63785.15
827.5391	651.5793	64657.1	63780.15
827.6838	653.6922	64656.05	63776.75
827.8285	655.8043	64608.45	63728.8
827.9733	657.9159	64668.55	63787.5
828.118	660.0268	64557.5	63674.4
828.2627	662.137	64648.1	63766.45
828.4075	664.2466	64646.5	63755.75
828.5522	666.3556	64616	63727.8
828.697	668.4639	64635.35	63749.35
828.8418	670.5716	64608.45	63727.95
828.9865	672.6786	64629	63743.55
829.1313	674.785	64581.7	63692.1
829.2761	676.8907	64581.8	63694.9
829.4209	678.9958	64615.65	63734.65
829.5657	681.1002	64599.65	63715.55
829.7105	683.204	64532.4	63642.1
829.8553	685.3072	64507.15	63621.35
830.0001	687.4097	64559.85	63670.95
830.1449	689.5115	64530.05	63639.65
830.2898	691.6127	64591.35	63703.25
830.4346	693.7132	64523.8	63640.15
830.5794	695.8131	64529.7	63621.35
830.7243	697.9123	64552.25	63662.5
830.8691	700.0109	64559.4	63666.85
831.014	702.1089	64485.1	63594.35
831.1588	704.2061	64500.65	63612
831.3037	706.3028	64506.9	63613.75
831.4486	708.3987	64527.75	63639
831.5935	710.4941	64504.2	63614.9
831.7383	712.5887	64519.1	63628.8
831.8832	714.6827	64472.15	63576.2
832.0281	716.7761	64499.75	63611.6
832.173	718.8688	64501.05	63607.8
832.3179	720.9608	64442.8	63546.75
832.4628	723.0522	64451.45	63552.7
832.6077	725.1429	64427.85	63529.95
832.7527	727.233	64529.4	63635.65
832.8976	729.3224	64377.85	63484.7
833.0425	731.4112	64422.6	63528.95
833.1874	733.4993	64430.85	63535.7
833.3324	735.5867	64423.35	63528.9
833.4773	737.6735	64387	63490.1
833.6222	739.7596	64359.7	63464.4
833.7672	741.845	64355.65	63461.85
833.9122	743.9298	64417.25	63520
834.0571	746.014	64356.25	63459.05
834.2021	748.0974	64299.55	63399.05
834.347	750.1802	64364.45	63465.9
834.492	752.2624	64298.5	63399.55
834.637	754.3439	64285.3	63385.3
834.782	756.4247	64306.8	63397.7
834.9269	758.5048	64261.25	63362.4
835.0719	760.5843	64257.8	63359.9
835.2169	762.6631	64253.1	63352.55
835.3619	764.7413	64227.85	63328.15
835.5069	766.8188	64238	63336.9
835.6519	768.8956	64246	63344.2
835.7969	770.9718	64234.45	63334.15
835.9419	773.0473	64209.35	63308.95
836.0869	775.1221	64176.4	63279.55
836.232	777.1962	64178.05	63277
836.377	779.2697	64125.25	63223.8
836.522	781.3426	64139.6	63218.5
836.667	783.4147	64135.75	63233.65
836.8121	785.4862	64116.85	63214.2
836.9571	787.557	64083.35	63181.45
837.1021	789.6271	64135.15	63236.3
837.2472	791.6966	64108.85	63205
837.3922	793.7654	64060.5	63160.3
837.5373	795.8335	64065.55	63165.5
837.6823	797.901	64076.35	63175.35
837.8274	799.9678	64053.9	63148.9
837.9724	802.0339	64035.15	63132.55
838.1175	804.0993	64029.05	63117.9
838.2626	806.1641	63999.75	63095.95
838.4076	808.2282	64006.7	63106.5
838.5527	810.2916	63995.25	63092.2
838.6978	812.3544	64007.2	63107.4
838.8428	814.4164	63968.15	63066.7
838.9879	816.4778	63969.5	63062.8
839.133	818.5385	63979.05	63071.7
839.2781	820.5986	63950.85	63045.7
839.4232	822.658	63958.15	63050.4
839.5682	824.7166	63939.6	63037.45
839.7133	826.7747	63938.1	63037.95
839.8584	828.832	63933.8	63027.4
840.0035	830.8886	63935.6	63028
840.1486	832.9446	63924.95	63018.4
840.2937	834.9999	63872.9	62968.75
840.4388	837.0545	63891.1	62982.2
840.5839	839.1085	63884.15	62977.95
840.729	841.1618	63886.55	62978.05
840.8741	843.2143	63830.75	62924.15
841.0192	845.2662	63816.75	62910.7
841.1643	847.3175	63844.65	62938.8
841.3095	849.368	63814.95	62912.05
841.4546	851.4179	63836.8	62928.7
841.5997	853.467	63793	62889.7
841.7448	855.5155	63782.5	62876.9
841.8899	857.5633	63757.65	62852.95
842.0351	859.6105	63731.65	62825.1
842.1802	861.6569	63767.8	62862.1
842.3253	863.7027	63736.55	62828.75
842.4704	865.7478	63730.9	62820.35
842.6156	867.7922	63734.6	62826.8
842.7607	869.8359	63725.4	62819.1
842.9058	871.8789	63691.75	62782.8
843.0509	873.9212	63715.75	62773.65
843.1961	875.9629	63695.55	62785.2
843.3412	878.0039	63691.65	62783.6
843.4863	880.0441	63669	62761.1
843.6315	882.0837	63658.15	62748.6
843.7766	884.1226	63662.5	62753.45
843.9218	886.1609	63666.3	62759.45
844.0669	888.1984	63648.2	62742.4
844.212	890.2352	63663.15	62754.35
844.3572	892.2714	63632.5	62720.55
844.5023	894.3069	63630.65	62722.9
844.6475	896.3416	63608.5	62697.85
844.7926	898.3757	63608.45	62697.75
844.9377	900.4091	63595.45	62684.45
845.0829	902.4418	63603.75	62691.9
845.228	904.4739	63573.25	62661.5
845.3732	906.5052	63568.2	62656.3
845.5183	908.5358	63553.6	62641.2
845.6635	910.5658	63552.85	62640.05
845.8086	912.595	63533.35	62622.15
845.9538	914.6236	63516.45	62605.15
846.0989	916.6515	63517.1	62607.25
846.2441	918.6786	63486.65	62570.65
846.3892	920.7051	63488.95	62569.75
846.5344	922.7309	63490.8	62577.55
846.6795	924.756	63475.25	62565.95
846.8246	926.7804	63470.3	62555.85
846.9698	928.8041	63429.4	62516.4
847.1149	930.8272	63429.95	62518.1
847.2601	932.8495	63409.3	62495.6
847.4052	934.8711	63393.55	62478.65
847.5504	936.892	63360.75	62447.4
847.6955	938.9123	63371.6	62457.85
847.8407	940.9318	63345.65	62432.5
847.9858	942.9506	63337.55	62425.55
848.131	944.9688	63338.55	62423.5
848.2761	946.9862	63303.1	62392.6
848.4213	949.003	63305.3	62391.5
848.5664	951.019	63275.9	62364.2
848.7115	953.0344	63260.85	62347.25
848.8567	955.0491	63246.85	62334.65
849.0018	957.063	63259.55	62348.3
849.147	959.0763	63255.85	62343.7
849.2921	961.0888	63232.9	62318.4
849.4373	963.1007	63230.15	62319.75
849.5824	965.1119	63217.2	62310.4
849.7275	967.1223	63205.9	62301.15
849.8727	969.1321	63206.8	62302.2
850.0178	971.1412	63189.7	62280.25
850.1629	973.1495	63179.85	62269.65
850.3081	975.1572	63181	62230.65
850.4532	977.1641	63168.3	62254.8
850.5983	979.1704	63143.1	62233.25
850.7435	981.1759	63125.35	62213.55
850.8886	983.1808	63132.45	62218.65
851.0337	985.1849	63103.45	62177.55
851.1788	987.1884	63116.25	62202.2
851.324	989.1911	63105.05	62189.3
851.4691	991.1932	63096.8	62181.75
851.6142	993.1945	63077.95	62167.45
851.7593	995.1951	63058.25	62144.85
851.9045	997.1951	63031.65	62110.6
852.0496	999.1943	63028.15	62116.3
852.1947	1001.1928	63004.7	62093.8
852.3398	1003.1906	62994.65	62083.55
852.4849	1005.1877	62978.6	62062.9
852.63	1007.1841	62958.3	62045.2
852.7751	1009.1798	62955.2	62043.5
852.9202	1011.1748	62930	62016.3
853.0653	1013.1691	62917.5	62003.1
853.2104	1015.1627	62869.35	61954.4
853.3555	1017.1556	62878.2	61966.9
853.5006	1019.1477	62867.45	61952.15
853.6457	1021.1392	62844.2	61935.1
853.7908	1023.1299	62777.55	61871.45
853.9359	1025.12	62802.85	61898.25
854.081	1027.1093	62771.3	61873.65
854.2261	1029.0979	62755.2	61858.4
854.3712	1031.0859	62742.5	61840.15
854.5163	1033.0731	62654.05	61747.3
854.6613	1035.0596	62699.3	61792
854.8064	1037.0454	62650.1	61735.6
854.9515	1039.0304	62632.1	61723
855.0965	1041.0148	62522.45	61610.55
855.2416	1042.9985	62533.6	61621.3
855.3867	1044.9814	62593.85	61684.55
855.5317	1046.9636	62498.9	61584.9
855.6768	1048.9452	62498.75	61589.95
855.8219	1050.926	62486.05	61574.55
855.9669	1052.9061	62472.75	61559.95
856.112	1054.8855	62455.05	61542.1
856.257	1056.8642	62439.65	61525.25
856.4021	1058.8421	62401.45	61483.55
856.5471	1060.8194	62400.05	61486.8
856.6921	1062.7959	62321.9	61409.6
856.8372	1064.7717	62388.75	61473
856.9822	1066.7469	62369.35	61456.9
857.1272	1068.7213	62357.45	61440.55
857.2723	1070.695	62319.05	61406.25
857.4173	1072.6679	62277.65	61366.05
857.5623	1074.6402	62291.05	61377.35
857.7073	1076.6117	62245.5	61326.3
857.8523	1078.5826	62253.9	61341.5
857.9973	1080.5527	62279.9	61363.6
858.1423	1082.5221	62216.5	61301.6
858.2873	1084.4908	62210.3	61298.7
858.4323	1086.4587	62196.85	61280.15
858.5773	1088.426	62179.8	61263.85
858.7223	1090.3925	62153.7	61235.75
858.8673	1092.3584	62144.25	61234.95
859.0123	1094.3235	62077.4	61164.75
859.1573	1096.2879	62083.3	61169.25
859.3022	1098.2515	62097.4	61182.65
859.4472	1100.2145	62059.75	61148.55
859.5922	1102.1767	62059.45	61145.55
859.7371	1104.1382	62045.05	61134.15
859.8821	1106.099	62028.55	61113.65
860.027	1108.0591	62029.05	61116.5
860.172	1110.0185	61971.3	61058.4
860.3169	1111.9771	62013.85	61102.25
860.4619	1113.9351	61959.95	61049.4
860.6068	1115.8923	61915.1	61004.5
860.7517	1117.8488	61899.55	60983.25
860.8967	1119.8045	61847.75	60936.05
861.0416	1121.7596	61867	60953.5
861.1865	1123.7139	61853.95	60943.9
861.3314	1125.6675	61843.45	60931.1
861.4763	1127.6204	61836.75	60924.75
861.6212	1129.5726	61801.4	60891.35
861.7661	1131.524	61796.8	60887.35
861.911	1133.4748	61784.85	60873
862.0559	1135.4248	61732.15	60822.7
862.2008	1137.3741	61730.8	60821.55
862.3457	1139.3226	61719.55	60805.85
862.4905	1141.2705	61713.35	60800.7
862.6354	1143.2176	61699.7	60780.7
862.7803	1145.164	61666.35	60750.4
862.9251	1147.1097	61666.55	60754.9
863.07	1149.0546	61659.4	60745.6
863.2148	1150.9989	61662.1	60749.6
863.3597	1152.9424	61623.9	60714.35
863.5045	1154.8852	61611.5	60696.15
863.6493	1156.8272	61590.5	60677.1
863.7942	1158.7686	61609.65	60689.5
863.939	1160.7092	61569.45	60654.15
864.0838	1162.6491	61540.65	60626.8
864.2286	1164.5883	61548.65	60641.3
864.3734	1166.5267	61511.55	60597.55
864.5182	1168.4644	61552.1	60640.1
864.663	1170.4014	61535.45	60618.6
864.8078	1172.3377	61542.05	60634.45
864.9526	1174.2732	61541.75	60630.3
865.0974	1176.2081	61524.85	60614.1
865.2421	1178.1421	61511.35	60595
865.3869	1180.0755	61520.7	60609.9
865.5317	1182.0082	61498.8	60588.3
865.6764	1183.9401	61483.1	60574.7
865.8212	1185.8713	61467.8	60560.55
865.9659	1187.8017	61440.05	60533.15
866.1106	1189.7315	61440.55	60538.8
866.2554	1191.6605	61401.3	60473.45
866.4001	1193.5888	61352.95	60447.4
866.5448	1195.5163	61327.8	60420.1
866.6895	1197.4432	61334.45	60423.35
866.8342	1199.3693	61326.3	60416.9
866.9789	1201.2947	61279.5	60366.9
867.1236	1203.2193	61268.15	60357.8
867.2683	1205.1432	61242.55	60331.85
867.413	1207.0664	61239.5	60328.15
867.5576	1208.9889	61214.45	60301.85
867.7023	1210.9106	61181.1	60272.1
867.847	1212.8316	61164.15	60256.45
867.9916	1214.7519	61171.9	60253
868.1363	1216.6715	61138.35	60228.1
868.2809	1218.5903	61133.05	60225.35
868.4255	1220.5084	61109.4	60199.45
868.5701	1222.4257	61131.8	60221.85
868.7148	1224.3424	61097.35	60187.45
868.8594	1226.2583	61073.5	60158.6
869.004	1228.1735	61047.85	60136.15
869.1486	1230.0879	61032.1	60120.45
869.2932	1232.0016	61031.55	60120.8
869.4377	1233.9146	61009.05	60095.95
869.5823	1235.8269	61008.1	60097.55
869.7269	1237.7384	60998.65	60086.7
869.8715	1239.6492	60974.35	60067.4
870.016	1241.5592	60950.6	60038.35
870.1606	1243.4686	60941.5	60030.05
870.3051	1245.3772	60918.2	60007.6
870.4496	1247.285	60915.65	60003.15
870.5941	1249.1922	60888.45	59978.35
870.7387	1251.0986	60889.4	59980.8
870.8832	1253.0042	60852.3	59943.1
871.0277	1254.9092	60866.8	59955.35
871.1722	1256.8134	60822.4	59915.4
871.3167	1258.7169	60850.9	59938.9
871.4611	1260.6196	60822.25	59911.95
871.6056	1262.5216	60806.55	59895.85
871.7501	1264.4229	60803.15	59896.05
871.8945	1266.3234	60822.1	59912.45
872.039	1268.2232	60817.6	59906.5
872.1834	1270.1223	60787.85	59878.25
872.3278	1272.0207	60769.6	59860.25
872.4723	1273.9183	60773.55	59856.85
872.6167	1275.8151	60759.15	59849.6
872.7611	1277.7113	60748.1	59837.25
872.9055	1279.6067	60666.1	59756.7
873.0499	1281.5014	60679.15	59768.25
873.1943	1283.3953	60720.6	59810.25
873.3386	1285.2885	60693.15	59782.6
873.483	1287.181	60688.9	59778.4
873.6274	1289.0727	60709.35	59799.95
873.7717	1290.9637	60611.75	59701.1
873.9161	1292.854	60696.9	59786.35
874.0604	1294.7435	60646.15	59736.2
874.2047	1296.6323	60661.5	59751.15
874.349	1298.5204	60629.45	59714.95
874.4933	1300.4077	60654.1	59743.7
874.6376	1302.2943	60580.35	59669.35
874.7819	1304.1802	60557.05	59647
874.9262	1306.0653	60518.85	59607.35
875.0705	1307.9497	60489.3	59582.6
875.2147	1309.8333	60500.05	59591.8
875.359	1311.7162	60465.4	59552.95
875.5032	1313.5984	60457.5	59543.85
875.6475	1315.4798	60408.05	59489.65
875.7917	1317.3605	60381.6	59454.2
875.9359	1319.2405	60386.8	59471.4
876.0801	1321.1197	60321.7	59409.7
876.2243	1322.9982	60347.3	59434.15
876.3685	1324.876	60313.7	59403.55
876.5127	1326.753	60264.6	59354.15
876.6569	1328.6293	60328.65	59418.85
876.801	1330.5048	60275.8	59363.2
876.9452	1332.3796	60214.75	59305.1
877.0893	1334.2537	60208.05	59274.05
877.2335	1336.127	60222.1	59312.6
877.3776	1337.9996	60157.35	59247.2
877.5217	1339.8714	60193.6	59285.95
877.6658	1341.7426	60110.85	59157.8
877.8099	1343.6129	60156.9	59248.65
877.954	1345.4826	60135.8	59226.45
878.0981	1347.3515	60071.75	59160.1
878.2422	1349.2196	60114.45	59204.5
878.3862	1351.087	60102.95	59192.45
878.5303	1352.9537	60084.95	59172.45
878.6743	1354.8197	60095.8	59184.55
878.8184	1356.6849	60109.2	59200.05
878.9624	1358.5493	60079.3	59169.05
879.1064	1360.4131	60046.55	59137.6
879.2504	1362.276	60068.5	59159.3
879.3944	1364.1383	60004.55	59096.25
879.5384	1365.9998	59971.45	59054.85
879.6823	1367.8606	59961.9	59050.9
879.8263	1369.7206	59922.45	59012.35
879.9702	1371.5799	59889.55	58974.6
880.1142	1373.4384	59851.85	58938.65
880.2581	1375.2962	59830	58920.05
880.402	1377.1533	59769.45	58862.2
880.5459	1379.0096	59723.1	58817.1
880.6898	1380.8652	59707.1	58796.65
880.8337	1382.7201	59668.4	58758.8
880.9776	1384.5742	59622.55	58713.35
881.1215	1386.4275	59509.85	58596.85
881.2653	1388.2802	59549.25	58642.05
881.4092	1390.132	59538.65	58627.25
881.553	1391.9832	59419.45	58508.65
881.6968	1393.8336	59383.85	58473.3
881.8406	1395.6832	59409	58500.4
881.9844	1397.5322	59402.85	58493.05
882.1282	1399.3803	59300.45	58386.45
882.272	1401.2278	59283.9	58376.15
882.4158	1403.0745	59223.2	58316.5
882.5595	1404.9204	59197.8	58291
882.7033	1406.7656	59208.45	58298.35
882.847	1408.6101	59096.9	58184.85
882.9908	1410.4538	59112.65	58202.4
883.1345	1412.2968	59118.9	58211.65
883.2782	1414.139	59009.15	58100.7
883.4219	1415.9805	59038.6	58130.05
883.5656	1417.8213	58964.75	58051.1
883.7092	1419.6613	59009.05	58102.9
883.8529	1421.5006	58966.6	58054.45
883.9965	1423.3391	58927.85	58019.05
884.1402	1425.1769	58926.85	58015.25
884.2838	1427.0139	58988.2	58079.75
884.4274	1428.8502	58946.8	58037.6
884.571	1430.6858	58981.05	58074
884.7146	1432.5206	59070.65	58164.2
884.8582	1434.3547	58964.5	58054.65
885.0018	1436.188	58885.65	57977.6
885.1453	1438.0206	58934	58026.55
885.2889	1439.8524	58912.9	58005.2
885.4324	1441.6835	58859.35	57949.4
885.5759	1443.5139	58863.95	57954.45
885.7194	1445.3435	58797.55	57891
885.8629	1447.1724	58821.1	57915.4
886.0064	1449.0005	58747.65	57839.2
886.1499	1450.8279	58769.15	57861.55
886.2933	1452.6545	58726.15	57819.75
886.4368	1454.4804	58737.05	57832.45
886.5802	1456.3056	58700.6	57786.55
886.7237	1458.13	58694.6	57789.15
886.8671	1459.9536	58716.3	57811.8
887.0105	1461.7766	58626.65	57718.05
887.1539	1463.5987	58559.15	57650.85
887.2972	1465.4202	58569.6	57661.4
887.4406	1467.2409	58506.25	57601
887.584	1469.0608	58427.6	57519.95
887.7273	1470.88	58429.25	57522
887.8706	1472.6984	58434.5	57527.05
888.0139	1474.5161	58343.85	57434.25
888.1572	1476.3331	58338.85	57433.3
888.3005	1478.1493	58266.25	57359.65
888.4438	1479.9648	58267.15	57360.2
888.5871	1481.7795	58277.5	57370.1
888.7303	1483.5935	58242.05	57335.05
888.8736	1485.4067	58180.6	57271.5
889.0168	1487.2192	58215.45	57307
889.16	1489.031	58136.85	57228.5
889.3032	1490.842	58171.7	57267.3
889.4464	1492.6522	58175.3	57267.4
889.5896	1494.4618	58065	57154.85
889.7327	1496.2705	58102.4	57194.35
889.8759	1498.0785	57964.15	57057.25
890.019	1499.8858	58040.05	57135.15
890.1622	1501.6924	58045.95	57141.9
890.3053	1503.4981	57965.25	57059.9
890.4484	1505.3032	57992.5	57085.45
890.5914	1507.1075	57900.05	56994.15
890.7345	1508.911	57896.8	56990.65
890.8776	1510.7138	57861.7	56953.65
891.0206	1512.5159	57880.5	56974.4
891.1637	1514.3172	57646.85	56742.25
891.3067	1516.1178	57690.5	56786.2
891.4497	1517.9176	57789.2	56879.75
891.5927	1519.7166	57682.55	56780.35
891.7357	1521.515	57597.1	56687.25
891.8786	1523.3126	57414.2	56506.95
892.0216	1525.1094	57599.8	56690.9
892.1645	1526.9055	57460.75	56557.5
892.3074	1528.7008	57475.6	56571.6
892.4503	1530.4954	57227.5	56321.75
892.5932	1532.2893	57449.25	56545.5
892.7361	1534.0824	57137.15	56227.95
892.879	1535.8747	57009.4	56106.4
893.0218	1537.6663	57370.65	56469.1
893.1647	1539.4572	56754.95	55851.5
893.3075	1541.2473	56991.15	56085.75
893.4503	1543.0367	56906	56002.8
893.5931	1544.8253	56792.35	55886.85
893.7359	1546.6132	56859.15	55952.35
893.8787	1548.4003	56673.3	55758.95
894.0214	1550.1867	56639.15	55726.7
894.1642	1551.9723	56566.15	55662.45
894.3069	1553.7572	56611.35	55709.65
894.4496	1555.5414	56719.75	55818.3
894.5923	1557.3247	56201.1	55299.9
894.735	1559.1074	56635	55737.8
894.8777	1560.8893	56434.3	55534.5
895.0204	1562.6705	56485.15	55585.5
895.163	1564.4509	56222.6	55324.9
895.3056	1566.2305	56314.25	55418.55
895.4482	1568.0094	56551.9	55655.05
895.5908	1569.7876	56355.15	55457.75
895.7334	1571.565	56124.35	55224.25
895.876	1573.3417	56232.9	55334.05
896.0186	1575.1176	56163.25	55262.75
896.1611	1576.8928	56088.25	55189.6
896.3036	1578.6672	55915.6	55021.6
896.4461	1580.4409	55987.8	55093.55
896.5886	1582.2138	55795.25	54896.35
896.7311	1583.986	55873.75	54975.8
896.8736	1585.7575	55703.15	54807.75
897.0161	1587.5282	55733.25	54836.7
897.1585	1589.2981	55781.6	54886.55
897.3009	1591.0673	55607.8	54712.55
897.4433	1592.8358	55516.35	54622.25
897.5857	1594.6035	55676.4	54777.15
897.7281	1596.3704	55697.05	54800.15
897.8705	1598.1366	55425.8	54531.45
898.0128	1599.9021	55305.1	54409.9
898.1551	1601.6668	55438.95	54543.1
898.2975	1603.4308	55347.2	54449.05
898.4398	1605.194	55430.75	54531
898.5821	1606.9564	55131.8	54240.85
898.7243	1608.7182	55327.55	54431.2
898.8666	1610.4791	55183.35	54295.65
899.0088	1612.2394	55310.4	54422.85
899.1511	1613.9988	55184.2	54293.9
899.2933	1615.7576	55339.55	54449
899.4355	1617.5156	55281.15	54378.4
899.5776	1619.2728	55490.1	54593.4
899.7198	1621.0293	55151.6	54255.5
899.862	1622.785	55108	54210.85
900.0041	1624.54	55112.65	54218.9
900.1462	1626.2942	54975.5	54081.5
900.2883	1628.0477	54636.75	53742.3
900.4304	1629.8005	54454.4	53557.5
900.5725	1631.5525	54591.55	53699.5
900.7145	1633.3037	54254.5	53361.25
900.8566	1635.0542	54216.7	53325.05
900.9986	1636.804	54285.95	53392.95
901.1406	1638.553	54024.8	53088.45
901.2826	1640.3013	54045.75	53153.9
901.4245	1642.0488	53811.85	52918.5
901.5665	1643.7955	53964.95	53072.75
901.7085	1645.5416	53818.3	52927.6
901.8504	1647.2868	53742.55	52851.6
901.9923	1649.0313	53885.4	52993.15
902.1342	1650.7751	53757.4	52862.15
902.2761	1652.5181	53641.25	52750.8
902.4179	1654.2604	53577.35	52685.95
902.5598	1656.0019	53722.45	52831.45
902.7016	1657.7427	53625.1	52733.45
902.8434	1659.4828	53778.9	52886.65
902.9852	1661.222	53616.15	52719.65
903.127	1662.9606	53735.1	52842.55
903.2687	1664.6984	53465.2	52570.4
903.4105	1666.4354	53504.65	52610.25
903.5522	1668.1717	53056	52161.25
903.6939	1669.9072	52629.45	51734.75
903.8356	1671.642	52530.7	51632.8
903.9773	1673.3761	52315.15	51419.85
904.119	1675.1094	52174.45	51281
904.2606	1676.8419	51779.7	50888.5
904.4022	1678.5737	51853.8	50962.15
904.5439	1680.3048	51597.65	50701.75
904.6855	1682.0351	51395.75	50501
904.827	1683.7646	51176.65	50278.25
904.9686	1685.4934	51245.75	50352.15
905.1101	1687.2215	50538.5	49646.3
905.2517	1688.9488	50986.2	50095.15
905.3932	1690.6754	49934.75	49044
905.5347	1692.4012	50376.05	49484.25
905.6761	1694.1263	50444.5	49552.15
905.8176	1695.8506	50008.65	49116.3
905.9591	1697.5742	49994	49105.25
906.1005	1699.297	49853.45	48963.85
906.2419	1701.0191	49804.35	48913.35
906.3833	1702.7404	49286.8	48398.9
906.5246	1704.461	48983.75	48092.3
906.666	1706.1808	49230.65	48336.5
906.8073	1707.8999	49069	48177.15
906.9487	1709.6182	48876.3	47989.65
907.09	1711.3358	48816.25	47928.15
907.2313	1713.0527	48623.85	47739.2
907.3725	1714.7688	48641.8	47746.4
907.5138	1716.4841	48032	47140.75
907.655	1718.1987	48218.05	47323.2
907.7962	1719.9126	48043.85	47156.3
907.9374	1721.6257	48068.15	47179
908.0786	1723.338	48060.9	47173.7
908.2198	1725.0496	47428.2	46538.45
908.3609	1726.7605	47441.05	46551.4
908.502	1728.4706	47271.7	46381.4
908.6431	1730.18	47340.9	46449.7
908.7842	1731.8886	47027.35	46139
908.9253	1733.5964	46801.3	45908.4
909.0664	1735.3036	47025.35	46134
909.2074	1737.0099	46875	45985.5
909.3484	1738.7156	46567.55	45681.15
909.4894	1740.4204	46384.25	45495.35
909.6304	1742.1246	46501.45	45613.25
909.7714	1743.8279	46452.7	45565.15
909.9123	1745.5306	46405.55	45517.85
910.0532	1747.2325	45839.65	44950.4
910.1941	1748.9336	45834.5	44946.2
910.335	1750.634	45765.1	44875.8
910.4759	1752.3336	45950.25	45061.8
910.6168	1754.0325	45575.4	44686.9
910.7576	1755.7307	45741.3	44853.6
910.8984	1757.4281	45374.8	44489.25
911.0392	1759.1247	45634.9	44737.75
911.18	1760.8206	45189.1	44293.7
911.3208	1762.5158	45151.85	44256.2
911.4615	1764.2102	45107.35	44217.95
911.6022	1765.9039	44984.9	44098.85
911.7429	1767.5968	44906.6	44021.25
911.8836	1769.289	44754.35	43868.2
912.0243	1770.9804	44717.15	43828.7
912.1649	1772.6711	44625.8	43734.55
912.3056	1774.361	44496.55	43608.5
912.4462	1776.0502	44449.55	43559.5
912.5868	1777.7386	44205.5	43314.5
912.7274	1779.4263	44212.1	43323.55
912.8679	1781.1132	44186.45	43300
913.0084	1782.7994	44032.5	43144.45
913.149	1784.4849	44034.3	43147.75
913.2895	1786.1696	43700.65	42806.95
913.4299	1787.8535	43795.65	42907.75
913.5704	1789.5367	43736.15	42851.8
913.7108	1791.2192	43538.25	42652.15
913.8513	1792.9009	43373.5	42457.1
913.9917	1794.5818	43437	42547.6
914.132	1796.2621	43180.25	42293.15
914.2724	1797.9415	43161.3	42273.8
914.4128	1799.6202	43043.55	42155.65
914.5531	1801.2982	43010.5	42121.65
914.6934	1802.9755	42799.5	41912.25
914.8337	1804.6519	42749.55	41860.4
914.9739	1806.3277	42772.1	41885.9
915.1142	1808.0027	42345.3	41459.45
915.2544	1809.6769	42470.65	41583.35
915.3946	1811.3504	42450.4	41564.3
915.5348	1813.0231	42101.35	41215.2
915.675	1814.6951	42208	41321.1
915.8151	1816.3664	42134.4	41245.1
915.9553	1818.0369	42070.1	41181.75
916.0954	1819.7067	41925.15	41039.6
916.2355	1821.3757	41984.1	41094.85
916.3755	1823.044	41678.75	40790.1
916.5156	1824.7115	41531.35	40643.3
916.6556	1826.3783	41458.9	40572.45
916.7956	1828.0443	41373.55	40486.3
916.9356	1829.7096	41315.55	40427.8
917.0756	1831.3741	41189.35	40299.65
917.2155	1833.0379	41196.45	40310.45
917.3555	1834.701	41048.35	40158.8
917.4954	1836.3633	40922.2	40037.35
917.6353	1838.0248	40879.4	39991.55
917.7751	1839.6856	40762.05	39873.25
917.915	1841.3457	40623.3	39738.15
918.0548	1843.005	40765.1	39879.2
918.1946	1844.6636	40605.05	39718.75
918.3344	1846.3214	40352.2	39465
918.4742	1847.9785	40356.25	39472.15
918.6139	1849.6349	40275.1	39388.45
918.7537	1851.2904	40299.9	39401.55
918.8934	1852.9453	40076.85	39188.1
919.0331	1854.5994	40022.9	39132.65
919.1727	1856.2528	40039.45	39144.65
919.3124	1857.9054	39848.45	38961.75
919.452	1859.5572	39779.35	38892.25
919.5916	1861.2083	39778.2	38890
919.7312	1862.8587	39813.3	38924.3
919.8708	1864.5084	39497.05	38606.05
920.0103	1866.1572	39487.5	38599.6
920.1498	1867.8054	39216.75	38329.6
920.2893	1869.4528	39257.25	38368.05
920.4288	1871.0994	39057.2	38168.15
920.5683	1872.7453	39061.9	38173.8
920.7077	1874.3905	39028.6	38135.35
920.8471	1876.0349	38810.05	37921.95
920.9865	1877.6786	38868.4	37979.5
921.1259	1879.3215	38759.15	37872.3
921.2653	1880.9637	38752.4	37864.15
921.4046	1882.6051	38649.1	37760.8
921.5439	1884.2458	38549	37660.05
921.6832	1885.8858	38345.7	37457.3
921.8225	1887.525	38351.75	37463.6
921.9617	1889.1634	38120.35	37232.55
922.101	1890.8011	38071.9	37184.2
922.2402	1892.4381	37893.45	37005
922.3794	1894.0743	37934.15	37045.95
922.5185	1895.7098	37852.4	36964.85
922.6577	1897.3446	37753.9	36865.6
922.7968	1898.9786	37648.8	36757.15
922.9359	1900.6118	37577.3	36691.95
923.075	1902.2443	37359.4	36468.8
923.214	1903.8761	37378.85	36492.4
923.3531	1905.5071	37129.45	36242.3
923.4921	1907.1374	36953.1	36065.05
923.6311	1908.7669	36978	36090.25
923.77	1910.3957	36949.85	36063.8
923.909	1912.0237	36641.45	35755.4
924.0479	1913.651	36646.1	35757.9
924.1868	1915.2776	36540.5	35654.3
924.3257	1916.9034	36432.3	35548.15
924.4646	1918.5285	36200.85	35317.1
924.6034	1920.1528	36060.55	35174.2
924.7422	1921.7764	36037.95	35151.7
924.881	1923.3992	35905.65	35017.7
925.0198	1925.0213	35690	34803.8
925.1586	1926.6427	35530.25	34643.85
925.2973	1928.2633	35683.7	34585.7
925.436	1929.8832	35402.8	34510.75
925.5747	1931.5023	35199.65	34312.8
925.7134	1933.1207	35144.05	34257.65
925.852	1934.7383	35080.55	34193.75
925.9906	1936.3552	35034.1	34150.05
926.1292	1937.9714	34886.1	34000.4
926.2678	1939.5868	34796.45	33908.25
926.4064	1941.2015	34588.4	33701.75
926.5449	1942.8154	34436.9	33549
926.6834	1944.4286	34302.6	33416.4
926.8219	1946.041	34202	33290.2
926.9604	1947.6528	34015.55	33123.55
927.0988	1949.2637	33959.8	33073.75
927.2372	1950.8739	33820.8	32933.4
927.3756	1952.4834	33790.15	32905.2
927.514	1954.0921	33733.95	32847.85
927.6523	1955.7001	33622.75	32730.85
927.7907	1957.3074	33469.05	32584.5
927.929	1958.9139	33349.8	32466.35
928.0673	1960.5197	33231.85	32343.75
928.2055	1962.1247	33110.5	32225.3
928.3438	1963.729	32911.2	32028.45
928.482	1965.3325	32842.65	31932.35
928.6202	1966.9353	32748.7	31864.5
928.7584	1968.5374	32620.15	31735.15
928.8965	1970.1387	32538.05	31653.55
929.0346	1971.7393	32378.25	31493
929.1727	1973.3392	32323.15	31437.05
929.3108	1974.9383	32217.25	31332.9
929.4489	1976.5366	32042	31158
929.5869	1978.1342	32072	31190.35
929.7249	1979.7311	31924.2	31039.2
929.8629	1981.3273	31841.45	30956.65
930.0009	1982.9227	31742.5	30857.2
930.1388	1984.5173	31618.4	30733.85
930.2767	1986.1112	31505.25	30622.9
930.4146	1987.7044	31474.15	30592.25
930.5525	1989.2968	31357.85	30474.1
930.6904	1990.8885	31251.65	30365.05
930.8282	1992.4795	31201.55	30318.9
930.966	1994.0697	31079.4	30193.75
931.1038	1995.6592	30997	30113.7
931.2415	1997.2479	30875.2	29992.3
931.3793	1998.8359	30786.5	29904.7
931.517	2000.4232	30661.35	29779.35
931.6547	2002.0097	30612.6	29733.15
931.7923	2003.5955	30443.6	29561.05
931.93	2005.1805	30425.35	29543.75
932.0676	2006.7648	30349.4	29468
932.2052	2008.3484	30248.8	29366.55
932.3427	2009.9312	30270.55	29388.45
932.4803	2011.5133	30092.75	29213.4
932.6178	2013.0946	30015.4	29133.6
932.7553	2014.6752	29928.55	29046.85
932.8928	2016.2551	29845.9	28965.35
933.0302	2017.8342	29704	28822.45
933.1676	2019.4126	29650.05	28769.6
933.305	2020.9902	29489.1	28609.6
933.4424	2022.5672	29412.05	28531.45
933.5798	2024.1433	29374.2	28488.8
933.7171	2025.7188	29292.5	28412.7
933.8544	2027.2935	29173.6	28293.1
933.9917	2028.8674	29099.05	28218.85
934.129	2030.4406	29001.65	28122.65
934.2662	2032.0131	28873.65	27994.05
934.4034	2033.5849	28729.25	27844.35
934.5406	2035.1559	28760.8	27881
934.6778	2036.7261	28703.35	27821
934.8149	2038.2957	28591.5	27710.6
934.952	2039.8645	28564.4	27683.1
935.0891	2041.4325	28557.7	27674.9
935.2262	2042.9998	28444.7	27564.05
935.3632	2044.5664	28328.4	27445.5
935.5002	2046.1323	28254.35	27374
935.6372	2047.6974	28161.75	27282.1
935.7742	2049.2617	28067.8	27190.15
935.9111	2050.8254	28060.4	27174.1
936.048	2052.3883	28007.55	27125
936.1849	2053.9504	27903.6	27019.7
936.3218	2055.5118	27814.3	26930.2
936.4586	2057.0725	27687.1	26802.55
936.5955	2058.6325	27582.55	26700.05
936.7323	2060.1917	27505.05	26625.05
936.869	2061.7502	27447.25	26564.75
937.0058	2063.3079	27355.35	26476.4
937.1425	2064.8649	27299.35	26416.2
937.2792	2066.4212	27235.65	26353.2
937.4159	2067.9767	27157.05	26277.05
937.5525	2069.5315	27037.85	26158.5
937.6891	2071.0856	26942.95	26061.8
937.8257	2072.6389	26800.15	25920.45
937.9623	2074.1915	26691.05	25813.6
938.0989	2075.7433	26586.6	25704.8
938.2354	2077.2945	26475.65	25596.05
938.3719	2078.8448	26457.45	25574.45
938.5084	2080.3945	26374.5	25493.85
938.6448	2081.9434	26349.8	25465.75
938.7812	2083.4916	26224.6	25340.45
938.9176	2085.039	26147.1	25263.6
939.054	2086.5857	26118.45	25231.1
939.1903	2088.1317	26050.7	25164.65
939.3267	2089.677	25949.9	25062.65
939.463	2091.2215	25878	24992.55
939.5992	2092.7652	25790.1	24903.15
939.7355	2094.3083	25757.7	24872.6
939.8717	2095.8506	25699.05	24817.6
940.0079	2097.3921	25667.55	24786.6
940.1441	2098.933	25567.05	24684.55
940.2802	2100.4731	25533.7	24651.45
940.4163	2102.0124	25511.55	24610.75
940.5524	2103.5511	25388.35	24503.5
940.6885	2105.089	25363.55	24479.05
940.8245	2106.6261	25278.5	24394.2
940.9606	2108.1626	25217.6	24333.6
941.0965	2109.6983	25203.65	24292.4
941.2325	2111.2332	25102.45	24218.85
941.3684	2112.7675	25031.6	24146.65
941.5044	2114.301	24948.3	24066.05
941.6403	2115.8337	24938.3	24055.15
941.7761	2117.3657	24820.8	23937.15
941.912	2118.897	24788.45	23906.55
942.0478	2120.4276	24700.4	23810.55
942.1835	2121.9575	24575.5	23691.95
942.3193	2123.4866	24619.6	23721.85
942.455	2125.0149	24516.25	23629.35
942.5907	2126.5426	24385.05	23500.95
942.7264	2128.0695	24327.25	23441.45
942.8621	2129.5956	24278.95	23398.4
942.9977	2131.1211	24208.2	23322.05
943.1333	2132.6458	24155.3	23272.5
943.2689	2134.1698	24093.65	23209.45
943.4044	2135.693	24010.5	23123.45
943.54	2137.2155	23985.1	23097.5
943.6755	2138.7373	23924.2	23040
943.8109	2140.2584	23861.65	22980
943.9464	2141.7787	23767.65	22882.75
944.0818	2143.2983	23654.35	22776.35
944.2172	2144.8171	23529.4	22649.6
944.3526	2146.3353	23485.7	22602.7
944.4879	2147.8527	23413.95	22532.1
944.6232	2149.3693	23371.6	22488.05
944.7585	2150.8853	23307.5	22421.75
944.8938	2152.4005	23156.25	22271.3
945.029	2153.9149	23171.35	22286.35
945.1642	2155.4287	23102	22218.6
945.2994	2156.9417	23031.25	22147.5
945.4346	2158.454	22963.15	22077.75
945.5697	2159.9655	22897.7	22014.6
945.7048	2161.4764	22872.8	21991.8
945.8399	2162.9865	22784.2	21901.4
945.9749	2164.4958	22715.3	21832.7
946.1099	2166.0045	22605.3	21719.4
946.2449	2167.5124	22641.7	21761
946.3799	2169.0195	22518.15	21635.1
946.5148	2170.526	22496.25	21611.85
946.6498	2172.0317	22425.55	21544.15
946.7846	2173.5367	22356.6	21472.25
946.9195	2175.0409	22328.9	21444.05
947.0543	2176.5445	22319.25	21437.4
947.1891	2178.0473	22196.65	21310.6
947.3239	2179.5494	22085.45	21196.5
947.4587	2181.0507	22017.6	21131.95
947.5934	2182.5513	21935.1	21050.95
947.7281	2184.0512	21922.05	21038.7
947.8628	2185.5504	21802.65	20920.05
947.9974	2187.0488	21703.4	20820.65
948.132	2188.5465	21665.35	20783.05
948.2666	2190.0435	21553.4	20669.15
948.4012	2191.5397	21496.3	20612.3
948.5357	2193.0353	21446.15	20563.6
948.6702	2194.5301	21346.25	20460.5
948.8047	2196.0241	21255.35	20370.55
948.9392	2197.5175	21207.6	20321.7
949.0736	2199.0101	21154.7	20264.8
949.208	2200.502	21047.45	20164.8
949.3424	2201.9931	20977.4	20094.2
949.4767	2203.4835	20906.9	20023.35
949.611	2204.9733	20883.8	19997.65
949.7453	2206.4622	20813.55	19932.1
949.8796	2207.9505	20728.8	19845.65
950.0138	2209.438	20627.85	19747.55
950.148	2210.9248	20535.55	19650.8
950.2822	2212.4109	20485.05	19605.15
950.4164	2213.8962	20413.3	19526.2
950.5505	2215.3809	20376.95	19491
950.6846	2216.8648	20323.4	19434.65
950.8186	2218.3479	20287.9	19396.05
950.9527	2219.8304	20166.3	19277.45
951.0867	2221.3121	20120.1	19230.55
951.2207	2222.7931	20034.15	19147.8
951.3546	2224.2733	20000.05	19113.65
951.4886	2225.7529	19897.5	19012.7
951.6225	2227.2317	19838.6	18952.65
951.7563	2228.7098	19809.5	18928.3
951.8902	2230.1872	19699.3	18817.65
952.024	2231.6638	19669.35	18789.55
952.1578	2233.1397	19580.9	18693.05
952.2916	2234.6149	19530.95	18649.55
952.4253	2236.0894	19480.35	18596.45
952.559	2237.5632	19458.55	18566.25
952.6927	2239.0362	19345.8	18464.75
952.8263	2240.5085	19292.65	18410.35
952.9599	2241.9801	19202.45	18318.1
953.0935	2243.4509	19170	18286.25
953.2271	2244.921	19077.35	18190.5
953.3606	2246.3904	18994.35	18107.95
953.4941	2247.8591	18959.45	18078.5
953.6276	2249.3271	18933.75	18047.4
953.7611	2250.7943	18825.95	17940.35
953.8945	2252.2608	18803.05	17918.7
954.0279	2253.7266	18725.35	17840.4
954.1612	2255.1917	18683.2	17798.65
954.2946	2256.656	18604.55	17720.6
954.4279	2258.1197	18590.55	17707.9
954.5612	2259.5826	18525.95	17640.45
954.6944	2261.0447	18493.3	17609.45
954.8276	2262.5062	18370.1	17485.9
954.9608	2263.9669	18335.85	17448.2
955.094	2265.4269	18311.1	17429.05
955.2271	2266.8862	18238.15	17353.05
955.3602	2268.3448	18201.15	17319.3
955.4933	2269.8026	18166.05	17283.4
955.6264	2271.2598	18093.7	17208.55
955.7594	2272.7162	18017.8	17136.5
955.8924	2274.1719	17997	17113.85
956.0253	2275.6268	17944.4	17062
956.1583	2277.0811	17901.45	17017.35
956.2912	2278.5346	17887.75	17004.7
956.4241	2279.9874	17806.85	16923.3
956.5569	2281.4395	17790.95	16907.85
956.6897	2282.8908	17744.75	16853.35
956.8225	2284.3414	17694.6	16810
956.9553	2285.7914	17575.1	16693.25
957.088	2287.2406	17546.7	16661.65
957.2207	2288.689	17506.7	16623.25
957.3534	2290.1368	17447.95	16558.65
957.486	2291.5838	17402.65	16512.2
957.6186	2293.0302	17341.5	16453.75
957.7512	2294.4758	17254.65	16369.65
957.8838	2295.9206	17215.8	16328.65
958.0163	2297.3648	17153.95	16269
958.1488	2298.8082	17118.95	16234.95
958.2813	2300.251	17105.5	16223.4
958.4137	2301.693	16990.7	16104.6
958.5461	2303.1343	17043.7	16156.85
958.6785	2304.5748	16939.35	16055.4
958.8108	2306.0147	16869.5	15985.4
958.9432	2307.4538	16809.2	15925.45
959.0754	2308.8922	16778.3	15895.65
959.2077	2310.3299	16704.05	15820.6
959.3399	2311.7669	16691	15809.05
959.4721	2313.2031	16627.5	15743.25
959.6043	2314.6387	16558.35	15674.4
959.7365	2316.0735	16494	15608.2
959.8686	2317.5076	16488.2	15602.95
960.0006	2318.941	16448.65	15564.05
960.1327	2320.3737	16384.5	15499.5
960.2647	2321.8056	16318.9	15432.65
960.3967	2323.2369	16274.1	15387.1
960.5287	2324.6674	16238.5	15350.6
960.6606	2326.0972	16184.95	15297.5
960.7925	2327.5263	16105.1	15221.4
960.9244	2328.9547	16082	15196.1
961.0562	2330.3823	16012	15126.35
961.1881	2331.8092	16002.7	15112.6
961.3198	2333.2355	15911.75	15025.75
961.4516	2334.661	15909.95	15024.8
961.5833	2336.0858	15865.4	14979.45
961.715	2337.5098	15827.5	14942.3
961.8467	2338.9332	15816.95	14933.15
961.9783	2340.3558	15735.6	14848.65
962.1099	2341.7778	15654.2	14771.35
962.2415	2343.199	15614.75	14729.1
962.373	2344.6195	15570.6	14686.6
962.5045	2346.0393	15515.55	14630.45
962.636	2347.4583	15477.15	14593.45
962.7675	2348.8767	15434.2	14547.95
962.8989	2350.2943	15390.5	14504.6
963.0303	2351.7113	15375.45	14487.6
963.1617	2353.1275	15323.3	14437.4
963.293	2354.543	15292.05	14397.05
963.4243	2355.9578	15195.7	14308.75
963.5556	2357.3718	15117.9	14235
963.6868	2358.7852	15047.45	14160.8
963.818	2360.1978	15036.6	14152.1
963.9492	2361.6098	15006.9	14123.95
964.0803	2363.021	14952.15	14064.7
964.2114	2364.4315	14903.2	14015.7
964.3425	2365.8413	14878.4	13987.15
964.4736	2367.2504	14834.2	13953.55
964.6046	2368.6587	14750.3	13865.75
964.7356	2370.0664	14680.7	13796.85
964.8666	2371.4733	14666.15	13780.85
964.9975	2372.8795	14595.4	13709.35
965.1284	2374.285	14560.7	13675.4
965.2593	2375.6899	14495	13612.7
965.3901	2377.0939	14407.75	13523.55
965.5209	2378.4973	14373.55	13490.8
965.6517	2379.9	14326.25	13441.3
965.7825	2381.3019	14289.3	13405
965.9132	2382.7032	14243.95	13363
966.0439	2384.1037	14238.65	13356.65
966.1745	2385.5035	14159.15	13276.6
966.3051	2386.9027	14114.2	13233.3
966.4357	2388.3011	14094.25	13206.5
966.5663	2389.6987	14057.2	13175.65
966.6968	2391.0957	13981.35	13100
966.8273	2392.492	13937.1	13054.4
966.9578	2393.8876	13858.5	12973.95
967.0882	2395.2824	13800.05	12917.3
967.2186	2396.6765	13751.55	12869.15
967.349	2398.07	13680.7	12795.25
967.4793	2399.4627	13655.3	12770.35
967.6097	2400.8547	13624.95	12740
967.7399	2402.246	13549.1	12657.55
967.8702	2403.6366	13491.7	12606.2
968.0004	2405.0265	13454.3	12568.45
968.1306	2406.4156	13384.2	12495.5
968.2607	2407.8041	13354.5	12468.75
968.3909	2409.1918	13272.6	12384.2
968.521	2410.5789	13237.35	12354.35
968.651	2411.9652	13194.15	12306.95
968.781	2413.3508	13119.4	12234.6
968.911	2414.7358	13074.65	12190.65
969.041	2416.12	13031.45	12148.2
969.1709	2417.5035	13026.05	12142.4
969.3008	2418.8863	12953.65	12071.3
969.4307	2420.2684	12937.95	12053.1
969.5606	2421.6497	12869.8	11984
969.6904	2423.0304	12794.8	11910.15
969.8201	2424.4104	12782.65	11897.5
969.9499	2425.7896	12752.75	11866.05
970.0796	2427.1682	12700.45	11814.85
970.2093	2428.546	12647.45	11763.05
970.3389	2429.9232	12636.45	11749.35
970.4685	2431.2996	12633.3	11748.65
970.5981	2432.6753	12560	11675
970.7277	2434.0503	12538.65	11654.65
970.8572	2435.4246	12474.95	11591.75
970.9867	2436.7982	12426.5	11540.85
971.1161	2438.1711	12398.75	11516.25
971.2456	2439.5433	12378.35	11491.1
971.375	2440.9148	12286.65	11399.3
971.5043	2442.2856	12223.55	11338.8
971.6336	2443.6557	12200.35	11314.2
971.7629	2445.025	12150.3	11264.5
971.8922	2446.3937	12141.95	11258.3
972.0214	2447.7617	12071.25	11186.65
972.1506	2449.1289	12092.3	11208.05
972.2798	2450.4955	12056.3	11169.15
972.4089	2451.8613	12017.75	11135.1
972.538	2453.2265	11969.4	11086.85
972.6671	2454.5909	11933.65	11049.3
972.7961	2455.9546	11919.7	11035.2
972.9251	2457.3177	11859.7	10975.3
973.0541	2458.68	11820.45	10935.4
973.1831	2460.0416	11825.95	10941.65
973.312	2461.4025	11786.45	10900.7
973.4408	2462.7627	11730.85	10833.95
973.5697	2464.1222	11704.55	10824.4
973.6985	2465.4811	11690.45	10806.05
973.8273	2466.8392	11612	10728.55
973.956	2468.1966	11595.45	10709.6
974.0847	2469.5533	11570.9	10684.35
974.2134	2470.9093	11554.4	10668.5
974.3421	2472.2645	11477.4	10588.75
974.4707	2473.6191	11460.85	10577.95
974.5993	2474.973	11407.75	10521.95
974.7278	2476.3262	11381.35	10495.35
974.8563	2477.6787	11336.2	10453.45
974.9848	2479.0305	11287.6	10402.6
975.1132	2480.3816	11229.45	10343.6
975.2417	2481.7319	11213.25	10327.15
975.37	2483.0816	11170.05	10285.3
975.4984	2484.4306	11127.9	10244.1
975.6267	2485.7789	11086.55	10203.45
975.755	2487.1264	11033.25	10147.7
975.8833	2488.4733	10987.95	10105.6
976.0115	2489.8195	10945.25	10055.3
976.1397	2491.165	10907.4	10022.8
976.2678	2492.5097	10879.9	9994.25
976.3959	2493.8538	10852.05	9967
976.524	2495.1972	10774.5	9888.95
976.6521	2496.5398	10759.9	9871.95
976.7801	2497.8818	10731.45	9845.3
976.9081	2499.2231	10684.85	9800.7
977.036	2500.5637	10649.4	9761.6
977.164	2501.9035	10631.55	9744.3
977.2918	2503.2427	10606.6	9718.45
977.4197	2504.5812	10553.25	9670.3
977.5475	2505.919	10541.6	9654.15
977.6753	2507.256	10491	9607.05
977.8031	2508.5924	10439.25	9555.5
977.9308	2509.9281	10429.6	9540
978.0585	2511.2631	10382.75	9499.25
978.1861	2512.5974	10367.1	9482.15
978.3137	2513.9309	10336.35	9453.45
978.4413	2515.2638	10288.15	9371.45
978.5689	2516.596	10261.9	9377.95
978.6964	2517.9275	10198.05	9312.8
978.8239	2519.2583	10187.35	9303.8
978.9513	2520.5884	10134.65	9248.4
979.0788	2521.9178	10116.6	9232.15
979.2062	2523.2465	10072.75	9187.8
979.3335	2524.5745	10018.4	9133.15
979.4608	2525.9018	10001.6	9116.9
979.5881	2527.2284	9982.2	9100.25
979.7154	2528.5543	9946.5	9062.6
979.8426	2529.8796	9918.25	9035.25
979.9698	2531.2041	9891.8	9006.45
980.0969	2532.5279	9891.35	9009.65
980.224	2533.851	9858.9	8973.3
980.3511	2535.1735	9824.05	8942
980.4781	2536.4952	9782.9	8898.65
980.6052	2537.8163	9797.5	8911.25
980.7321	2539.1366	9732.65	8849.35
980.8591	2540.4562	9690.75	8803.75
980.986	2541.7752	9695.3	8812
981.1129	2543.0935	9691.3	8806.35
981.2397	2544.411	9651.65	8764.9
981.3665	2545.7279	9635.65	8750.9
981.4933	2547.0441	9610.8	8726.25
981.62	2548.3596	9607.45	8719.4
981.7467	2549.6744	9577.5	8692.25
981.8734	2550.9885	9564.25	8672.25
982.0001	2552.3019	9500.4	8618.3
982.1267	2553.6146	9469.1	8583.3
982.2532	2554.9266	9450.4	8563.8
982.3798	2556.2379	9419.85	8533.7
982.5063	2557.5485	9408.1	8525.2
982.6327	2558.8585	9378.2	8485.7
982.7592	2560.1677	9362.7	8473.7
982.8856	2561.4762	9344.95	8459.3
983.0119	2562.7841	9320.15	8431.3
983.1383	2564.0913	9287.7	8403
983.2646	2565.3977	9276.75	8391.2
983.3908	2566.7035	9244.15	8359.05
983.517	2568.0086	9239.25	8354.45
983.6432	2569.313	9228.95	8341.8
983.7694	2570.6167	9220.45	8329.95
983.8955	2571.9197	9194.95	8311.6
984.0216	2573.222	9170.3	8281.9
984.1476	2574.5236	9117.7	8232.45
984.2737	2575.8246	9108.25	8221.05
984.3996	2577.1248	9086.45	8198.05
984.5256	2578.4244	9100.4	8215.7
984.6515	2579.7232	9069.5	8184.3
984.7774	2581.0214	9056.7	8146.7
984.9032	2582.3189	9024.95	8143.2
985.029	2583.6157	9020.45	8132.65
985.1548	2584.9118	8979.7	8094.1
985.2806	2586.2072	8940.4	8055.15
985.4063	2587.5019	8908.35	8024.1
985.5319	2588.7959	8892.9	8008.85
985.6576	2590.0893	8903.35	8017.6
985.7832	2591.3819	8857.5	7972.3
985.9087	2592.6739	8811.8	7930.4
986.0343	2593.9652	8803.35	7915.6
986.1597	2595.2557	8764.6	7878.3
986.2852	2596.5456	8710.2	7822.85
986.4106	2597.8348	8721.45	7838.05
986.536	2599.1234	8663.5	7780.55
986.6614	2600.4112	8642.1	7756.6
986.7867	2601.6983	8602.35	7714.25
986.912	2602.9848	8591.4	7709.25
987.0372	2604.2705	8524.55	7631.7
987.1624	2605.5556	8512.1	7627.95
987.2876	2606.84	8510.45	7627.5
987.4128	2608.1237	8469.85	7585.85
987.5379	2609.4067	8429.05	7543.2
987.6629	2610.689	8402.15	7507.65
987.788	2611.9707	8386.9	7497.6
987.913	2613.2516	8329.9	7440.25
988.0379	2614.5319	8301.8	7417.2
988.1629	2615.8115	8281.9	7397.7
988.2878	2617.0903	8259.8	7374.7
988.4126	2618.3685	8206.6	7322.6
988.5375	2619.6461	8191.75	7307.55
988.6622	2620.9229	8172.85	7288.75
988.787	2622.199	8140.35	7257.1
988.9117	2623.4745	8106.55	7222.05
989.0364	2624.7493	8056.95	7175.4
989.161	2626.0234	8053.95	7171.35
989.2857	2627.2968	8025.4	7141.4
989.4102	2628.5695	7981.9	7097.05
989.5348	2629.8415	7941.8	7058.2
989.6593	2631.1128	7948.1	7063.4
989.7837	2632.3835	7906.95	7024.6
989.9082	2633.6535	7859.5	6974.75
990.0326	2634.9228	7830.15	6946.95
990.1569	2636.1914	7795.1	6912.65
990.2812	2637.4593	7797.7	6907.35
990.4055	2638.7265	7773.45	6889.8
990.5298	2639.9931	7751.95	6869.15
990.654	2641.259	7718.65	6833.45
990.7782	2642.5242	7717.1	6832.75
990.9023	2643.7887	7686.45	6802.65
991.0264	2645.0525	7667.75	6785
991.1505	2646.3156	7628.15	6742.1
991.2745	2647.5781	7585.35	6703.35
991.3985	2648.8398	7567.2	6683.6
991.5225	2650.1009	7538.95	6645.1
991.6464	2651.3613	7546.4	6663.6
991.7703	2652.6211	7501.1	6615.7
991.8942	2653.8801	7482.5	6598.8
992.018	2655.1385	7468.9	6582.95
992.1418	2656.3961	7449.95	6564.4
992.2655	2657.6531	7447.6	6564.1
992.3892	2658.9094	7421.3	6538.05
992.5129	2660.1651	7417.6	6534.25
992.6366	2661.42	7387.2	6502.05
992.7602	2662.6743	7372.1	6485.45
992.8837	2663.9279	7361.15	6478.1
993.0073	2665.1808	7336.1	6450
993.1307	2666.433	7295.55	6410
993.2542	2667.6846	7284.2	6402.25
993.3776	2668.9354	7261.95	6373.3
993.501	2670.1856	7248.35	6363.3
993.6244	2671.4351	7223.75	6341.75
993.7477	2672.6839	7234.7	6350.35
993.8709	2673.9321	7195.2	6311.65
993.9942	2675.1795	7155.8	6273.55
994.1174	2676.4263	7137.55	6254.1
994.2405	2677.6724	7101.6	6220
994.3637	2678.9179	7097.05	6212.35
994.4868	2680.1626	7068.8	6186.55
994.6098	2681.4067	7053.9	6169.85
994.7328	2682.6501	7048.15	6166.7
994.8558	2683.8928	7015.85	6132.6
994.9788	2685.1348	7002.3	6121.6
995.1017	2686.3761	6946.3	6059.9
995.2245	2687.6168	6930.9	6048.6
995.3474	2688.8568	6907.2	6025.05
995.4702	2690.0961	6908.25	6024.5
995.5929	2691.3348	6873.2	5989.85
995.7156	2692.5727	6863	5979.3
995.8383	2693.81	6830.7	5946.1
995.961	2695.0466	6807.5	5925.6
996.0836	2696.2826	6795.6	5911.55
996.2062	2697.5178	6795.5	5907.65
996.3287	2698.7524	6750.8	5868.75
996.4512	2699.9863	6739.05	5853.75
996.5737	2701.2195	6707.3	5828.35
996.6961	2702.452	6697.1	5811.6
996.8185	2703.6839	6685.35	5799.8
996.9408	2704.9151	6661.7	5778.85
997.0631	2706.1456	6630.55	5745.65
997.1854	2707.3755	6629.35	5744.5
997.3077	2708.6046	6591.35	5704.05
997.4299	2709.8331	6573.5	5688.7
997.552	2711.0609	6558.75	5677.75
997.6742	2712.2881	6559.45	5678.05
997.7963	2713.5145	6518.25	5633.1
997.9183	2714.7403	6515.4	5633.45
998.0403	2715.9654	6474.35	5590.3
998.1623	2717.1899	6466.15	5581.9
998.2842	2718.4136	6440.25	5558.05
998.4062	2719.6367	6451.8	5569.45
998.528	2720.8591	6430.55	5541.5
998.6498	2722.0809	6393.95	5511.25
998.7716	2723.3019	6371.15	5485.9
998.8934	2724.5223	6363.9	5480.85
999.0151	2725.7421	6349.4	5464.55
999.1368	2726.9611	6332.3	5447.9
999.2584	2728.1795	6296.25	5408.65
999.38	2729.3972	6299.65	5417.15
999.5016	2730.6142	6242.8	5352.9
999.6231	2731.8306	6229.5	5345.4
999.7446	2733.0462	6205.05	5321.45
999.8661	2734.2612	6164.45	5275.95
999.9875	2735.4756	6132	5247.1
1000.1089	2736.6892	6104.4	5221.25
1000.2302	2737.9022	6071.75	5190.35
1000.3515	2739.1145	6051.35	5167.9
1000.4728	2740.3262	6014.85	5124.85
1000.594	2741.5372	5977.8	5096.25
1000.7152	2742.7475	5950.1	5067.35
1000.8363	2743.9571	5967.65	5082.95
1000.9575	2745.1661	5951.6	5064.4
1001.0785	2746.3744	5910.65	5025.65
1001.1996	2747.582	5869.45	4985.95
1001.3206	2748.7889	5862.2	4979
1001.4415	2749.9952	5857.35	4975.3
1001.5625	2751.2008	5821.35	4938.25
1001.6833	2752.4057	5805.4	4919.95
1001.8042	2753.61	5763.95	4879.55
1001.925	2754.8136	5757	4871.9
1002.0458	2756.0165	5727.45	4844.3
1002.1665	2757.2188	5718.85	4837.8
1002.2872	2758.4204	5702.9	4819.85
1002.4078	2759.6213	5671.25	4785.85
1002.5285	2760.8215	5665.55	4778.65
1002.649	2762.0211	5640.65	4755.55
1002.7696	2763.22	5617.9	4732.85
1002.8901	2764.4182	5597.25	4713.5
1003.0106	2765.6158	5584.6	4702.1
1003.131	2766.8127	5573.95	4693.2
1003.2514	2768.009	5544.5	4662.85
1003.3717	2769.2045	5544.3	4661.4
1003.492	2770.3994	5535	4652.05
1003.6123	2771.5936	5510.35	4628.4
1003.7325	2772.7872	5480.05	4598.4
1003.8527	2773.9801	5452.9	4569.5
1003.9729	2775.1723	5460.15	4560
1004.093	2776.3639	5418.3	4537.9
1004.2131	2777.5548	5402.15	4519.3
1004.3331	2778.745	5388.1	4506.1
1004.4531	2779.9346	5363.3	4482.8
1004.5731	2781.1235	5368.45	4483.4
1004.693	2782.3117	5343.35	4462.45
1004.8129	2783.4992	5331.45	4448.7
1004.9328	2784.6861	5321.65	4439.65
1005.0526	2785.8723	5305.75	4421.4
1005.1723	2787.0579	5277.85	4396.05
1005.2921	2788.2428	5279.85	4399.3
1005.4118	2789.427	5258.2	4377.95
1005.5314	2790.6106	5250.2	4368.65
1005.651	2791.7935	5225.65	4343.7
1005.7706	2792.9757	5189.05	4306.5
1005.8902	2794.1573	5163	4278.65
1006.0097	2795.3382	5178	4296.7
1006.1291	2796.5184	5174.05	4294.35
1006.2485	2797.698	5171.05	4287.5
1006.3679	2798.8769	5141.8	4260.25
1006.4873	2800.0551	5121.45	4240.15
1006.6066	2801.2327	5125.3	4242.35
1006.7258	2802.4096	5121.9	4240.45
1006.8451	2803.5859	5114.1	4231.1
1006.9642	2804.7615	5109.9	4227.15
1007.0834	2805.9364	5112.55	4231.1
1007.2025	2807.1106	5101.85	4220.1
1007.3216	2808.2842	5088.35	4207
1007.4406	2809.4572	5094.85	4213.65
1007.5596	2810.6294	5122.55	4240.55
1007.6785	2811.801	5106.4	4226.95
1007.7975	2812.972	5127.55	4245.15
1007.9163	2814.1423	5135.5	4255.25
1008.0352	2815.3119	5154.1	4272.05
1008.154	2816.4808	5157.2	4274.85
1008.2727	2817.6491	5175.15	4294.3
1008.3914	2818.8167	5200.85	4320.1
1008.5101	2819.9837	5210.6	4320.45
1008.6288	2821.15	5237.9	4356.4
1008.7474	2822.3157	5251.75	4370.75
1008.8659	2823.4807	5291.55	4409
1008.9844	2824.645	5319.55	4436.5
1009.1029	2825.8086	5336.7	4454.15
1009.2214	2826.9716	5370.4	4488.35
1009.3398	2828.134	5405.15	4523.6
1009.4581	2829.2957	5409.05	4528.75
1009.5764	2830.4567	5426	4545.45
1009.6947	2831.617	5436.5	4555.1
1009.813	2832.7767	5425.65	4544.55
1009.9312	2833.9358	5416.85	4537.05
1010.0493	2835.0941	5399.35	4515.5
1010.1675	2836.2519	5359.55	4479.7
1010.2855	2837.4089	5335.3	4450.25
1010.4036	2838.5653	5331.35	4450.2
1010.5216	2839.7211	5324.25	4444.15
1010.6396	2840.8761	5315.55	4432.25
1010.7575	2842.0306	5317.3	4437.9
1010.8754	2843.1843	5304.65	4424.75
1010.9932	2844.3374	5335.05	4451.8
1011.111	2845.4899	5333.45	4452.25
1011.2288	2846.6417	5379.25	4497.65
1011.3465	2847.7928	5402.25	4521.85
1011.4642	2848.9433	5426.45	4547.4
1011.5818	2850.0931	5460.35	4579.35
1011.6995	2851.2422	5515.4	4631.85
1011.817	2852.3907	5543.95	4661.8
1011.9345	2853.5385	5550.9	4668.6
1012.052	2854.6857	5562.2	4671
1012.1695	2855.8323	5604.15	4723.75
1012.2869	2856.9781	5597.05	4713.4
1012.4042	2858.1233	5617.7	4736.1
1012.5216	2859.2679	5622.35	4740.15
1012.6389	2860.4118	5651.4	4768.15
1012.7561	2861.555	5672	4786.5
1012.8733	2862.6976	5703.85	4822.25
1012.9905	2863.8395	5678.7	4798
1013.1076	2864.9808	5704.75	4823
1013.2247	2866.1214	5697.95	4816.15
1013.3417	2867.2614	5710.15	4828.5
1013.4587	2868.4007	5702.8	4821.45
1013.5757	2869.5393	5706.9	4823.9
1013.6926	2870.6773	5687.85	4802.9
1013.8095	2871.8146	5686.2	4802.3
1013.9263	2872.9513	5660.45	4777.85
1014.0431	2874.0874	5640.65	4758.7
1014.1599	2875.2227	5611.35	4731.15
1014.2766	2876.3574	5604.9	4723.55
1014.3933	2877.4915	5541.35	4659.95
1014.51	2878.6249	5527.2	4648.6
1014.6266	2879.7577	5516.7	4634.95
1014.7431	2880.8898	5479.4	4587.6
1014.8596	2882.0212	5460.4	4578.35
1014.9761	2883.152	5449.55	4568.65
1015.0925	2884.2821	5408.95	4529.15
1015.2089	2885.4116	5392.45	4511.9
1015.3253	2886.5405	5401.05	4520.15
1015.4416	2887.6686	5387.75	4505.45
1015.5579	2888.7962	5359.65	4480.8
1015.6741	2889.923	5364.5	4484.05
1015.7903	2891.0493	5336.8	4455.8
1015.9065	2892.1748	5336.65	4457.45
1016.0226	2893.2997	5340.2	4457.5
1016.1387	2894.424	5333.15	4452
1016.2547	2895.5476	5330.8	4448.25
1016.3707	2896.6706	5330.05	4450.15
1016.4866	2897.7929	5325.2	4444.15
1016.6025	2898.9145	5340.25	4458.4
1016.7184	2900.0355	5349.9	4470.4
1016.8342	2901.1559	5335.45	4451.65
1016.95	2902.2756	5349.6	4470.1
1017.0658	2903.3946	5369.75	4490.45
1017.1815	2904.513	5356.8	4472.95
1017.2971	2905.6308	5348.8	4469.1
1017.4127	2906.7479	5372.95	4492.65
1017.5283	2907.8643	5370.7	4488.4
1017.6439	2908.9801	5370.7	4491.05
1017.7594	2910.0953	5351.7	4469.8
1017.8748	2911.2098	5350.5	4467.6
1017.9902	2912.3236	5306.6	4415.8
1018.1056	2913.4368	5305.85	4421.6
1018.2209	2914.5494	5276.85	4396.1
1018.3362	2915.6613	5249.4	4363.3
1018.4515	2916.7725	5220.05	4336.55
1018.5667	2917.8831	5205.8	4324.85
1018.6819	2918.9931	5161.9	4279.35
1018.797	2920.1024	5130.75	4248.15
1018.9121	2921.211	5116.7	4235.7
1019.0271	2922.319	5091.5	4210.05
1019.1421	2923.4264	5084.45	4205.5
1019.2571	2924.5331	5045.9	4168
1019.372	2925.6391	5025.75	4143.55
1019.4869	2926.7445	5024.5	4145.25
1019.6017	2927.8493	5014.95	4133.5
1019.7165	2928.9534	5023.3	4142.65
1019.8313	2930.0569	5010.25	4126.35
1019.946	2931.1597	4992.6	4110.6
1020.0606	2932.2619	4980.55	4099.7
1020.1753	2933.3634	4964.75	4085.85
1020.2899	2934.4643	4975.4	4088.25
1020.4044	2935.5645	4970.1	4084.9
1020.5189	2936.6641	4926	4041.45
1020.6334	2937.763	4901.8	4021.85
1020.7478	2938.8613	4860.85	3979.1
1020.8622	2939.959	4826.9	3943.25
1020.9765	2941.056	4764.35	3884.2
1021.0908	2942.1523	4704.7	3824.65
1021.2051	2943.248	4643.1	3763.2
1021.3193	2944.3431	4560.3	3677.75
1021.4334	2945.4375	4509	3627.55
1021.5476	2946.5313	4434	3554.6
1021.6617	2947.6244	4357.55	3479.15
1021.7757	2948.7169	4291.45	3409.7
1021.8897	2949.8087	4210.95	3332.4
1022.0037	2950.8999	4145.8	3264.45
1022.1176	2951.9904	4085.65	3206.3
1022.2315	2953.0803	4025	3144.85
1022.3453	2954.1696	3962.25	3082.45
1022.4591	2955.2582	3934.55	3055.75
1022.5728	2956.3462	3885.8	3004.85
1022.6865	2957.4335	3845.35	2962.9
1022.8002	2958.5202	3818.35	2934.65
1022.9138	2959.6062	3797.55	2917.7
1023.0274	2960.6916	3759.85	2880.3
1023.141	2961.7764	3728.3	2845.75
1023.2545	2962.8605	3731.95	2851.9
1023.3679	2963.9439	3703.8	2825.6
1023.4813	2965.0267	3675.1	2795.3
1023.5947	2966.1089	3684.55	2780.5
1023.708	2967.1905	3659.3	2779.8
1023.8213	2968.2714	3639.6	2760.8
1023.9346	2969.3516	3636.1	2754.45
1024.0478	2970.4312	3624.55	2736.65
1024.1609	2971.5102	3624.5	2745.7
1024.274	2972.5885	3612.7	2732.4
1024.3871	2973.6662	3599.4	2714.15
1024.5002	2974.7432	3592.85	2712.4
1024.6132	2975.8196	3590.9	2710.95
1024.7261	2976.8954	3565.6	2686.8
1024.839	2977.9705	3549.25	2671.5
1024.9519	2979.045	3524.15	2646.6
1025.0647	2980.1188	3505.7	2624.85
1025.1775	2981.192	3495.1	2613.95
1025.2902	2982.2645	3488.6	2607.15
1025.4029	2983.3364	3456.8	2575.3
1025.5156	2984.4077	3425.35	2545.6
1025.6282	2985.4783	3408	2520.9
1025.7407	2986.5483	3375.7	2495.3
1025.8532	2987.6177	3356.15	2477.35
1025.9657	2988.6864	3315.65	2436.75
1026.0782	2989.7545	3296.2	2415.95
1026.1906	2990.8219	3264.4	2383.3
1026.3029	2991.8887	3218.65	2338.95
1026.4152	2992.9548	3207	2327.25
1026.5275	2994.0204	3181.3	2303.15
1026.6397	2995.0852	3144	2264.65
1026.7519	2996.1495	3119.7	2237.75
1026.864	2997.2131	3097.35	2215.05
1026.9761	2998.276	3072.25	2192.5
1027.0882	2999.3383	3054.7	2173.85
1027.2002	3000.4	3031.1	2149.75
1027.3122	3001.4611	3014.1	2134
1027.4241	3002.5215	2992.6	2112.45
1027.536	3003.5812	2972.35	2094.05
1027.6478	3004.6404	2953.85	2073.4
1027.7596	3005.6989	2952.9	2072.3
1027.8714	3006.7567	2929.6	2048.55
1027.9831	3007.8139	2941.6	2030.75
1028.0947	3008.8705	2903.15	2024.55
1028.2064	3009.9264	2889.05	2006.4
1028.3179	3010.9818	2873.3	1995.2
1028.4295	3012.0364	2866.75	1985.05
1028.541	3013.0905	2855.25	1976.2
1028.6524	3014.1439	2850.6	1973.1
1028.7638	3015.1966	2847.5	1969
1028.8752	3016.2487	2838.6	1958.7
1028.9865	3017.3002	2823.3	1941.1
1029.0978	3018.3511	2814.55	1935.75
1029.209	3019.4013	2806.15	1926.7
1029.3202	3020.4509	2793.35	1913.3
1029.4314	3021.4998	2792.35	1912.3
1029.5425	3022.5481	2775.65	1895.6
1029.6535	3023.5958	2770.7	1892
1029.7645	3024.6428	2769.45	1891.15
1029.8755	3025.6892	2750.15	1870.35
1029.9864	3026.735	2749.2	1868.8
1030.0973	3027.7802	2743.15	1864.1
1030.2082	3028.8247	2730.45	1850.65
1030.319	3029.8685	2727.65	1847.45
1030.4297	3030.9118	2717.7	1835.8
1030.5404	3031.9544	2708.3	1831.65
1030.6511	3032.9963	2709.85	1828.05
1030.7617	3034.0376	2692.95	1815.85
1030.8723	3035.0783	2699.45	1817.85
1030.9829	3036.1184	2695.3	1815.45
1031.0934	3037.1578	2687.65	1809.6
1031.2038	3038.1966	2684.75	1805.25
1031.3142	3039.2348	2671.25	1793.85
1031.4246	3040.2723	2680.9	1794.5
1031.5349	3041.3092	2666.4	1789.45
1031.6452	3042.3455	2656.1	1774.7
1031.7554	3043.3811	2648.85	1769.05
1031.8656	3044.4161	2646.6	1765.35
1031.9758	3045.4505	2637.8	1759.25
1032.0859	3046.4842	2635.55	1756.3
1032.1959	3047.5173	2619.1	1737.7
1032.3059	3048.5498	2607.05	1727.65
1032.4159	3049.5816	2606.45	1727.45
1032.5258	3050.6128	2597.1	1715.95
1032.6357	3051.6434	2583.55	1704.5
1032.7455	3052.6734	2574.85	1693.4
1032.8553	3053.7027	2567.8	1687.35
1032.9651	3054.7314	2555.2	1676.15
1033.0748	3055.7594	2550.6	1669.3
1033.1845	3056.7868	2550.3	1669.4
1033.2941	3057.8136	2538.65	1659
1033.4037	3058.8398	2524.8	1645.95
1033.5132	3059.8653	2517.2	1637.85
1033.6227	3060.8902	2511.9	1631
1033.7321	3061.9145	2503.1	1625.2
1033.8415	3062.9381	2492.75	1611.25
1033.9509	3063.9612	2500.9	1606.25
1034.0602	3064.9835	2455.05	1576.6
1034.1694	3066.0053	2468.5	1585
1034.2787	3067.0264	2468.85	1591.4
1034.3878	3068.0469	2456.15	1575.75
1034.497	3069.0668	2436.75	1554.45
1034.6061	3070.086	2430.1	1553.85
1034.7151	3071.1046	2430.85	1551.45
1034.8241	3072.1226	2408.25	1528.15
1034.9331	3073.1399	2403.15	1524.55
1035.042	3074.1567	2401.95	1521.45
1035.1508	3075.1727	2390.6	1508.65
1035.2597	3076.1882	2381.05	1501.4
1035.3684	3077.203	2364	1484.65
1035.4772	3078.2173	2363.2	1483.45
1035.5859	3079.2308	2354.05	1471.05
1035.6945	3080.2438	2333.6	1453.1
1035.8031	3081.2561	2325.7	1447.55
1035.9117	3082.2678	2312.85	1431.9
1036.0202	3083.2789	2319.8	1441
1036.1286	3084.2893	2312.05	1433.2
1036.2371	3085.2991	2291.6	1412.65
1036.3454	3086.3083	2291.15	1408.8
1036.4538	3087.3169	2277.4	1396.65
1036.562	3088.3248	2265	1387.2
1036.6703	3089.3321	2255.95	1375.2
1036.7785	3090.3388	2259.15	1380.6
1036.8866	3091.3449	2240.2	1361.35
1036.9948	3092.3503	2249.3	1367.75
1037.1028	3093.3551	2227.25	1348.2
1037.2108	3094.3593	2229.05	1351.4
1037.3188	3095.3629	2211.65	1333
1037.4267	3096.3658	2201.15	1322.15
1037.5346	3097.3681	2201	1320.9
1037.6425	3098.3698	2188.95	1307.7
1037.7503	3099.3708	2187.55	1301.9
1037.858	3100.3713	2175.05	1296.9
1037.9657	3101.3711	2157.4	1276.25
1038.0734	3102.3702	2274.45	1259.05
1038.181	3103.3688	2167.75	1286.8
1038.2886	3104.3667	2148.75	1271.15
1038.3961	3105.364	2139.15	1260.95
1038.5036	3106.3607	2128.45	1247.8
1038.611	3107.3568	2118.65	1237.8
1038.7184	3108.3522	2101.45	1222.3
1038.8257	3109.347	2104.1	1224.15
1038.933	3110.3412	2102.6	1220.25
1039.0403	3111.3348	2090.25	1209.5
1039.1475	3112.3277	2092.7	1213.75
1039.2547	3113.32	2080.8	1203.3
1039.3618	3114.3117	2072.15	1193.5
1039.4689	3115.3028	2058.2	1180.25
1039.5759	3116.2932	2051.65	1168.5
1039.6829	3117.2831	2045.85	1162.9
1039.7898	3118.2723	2037.65	1158.75
1039.8967	3119.2608	2025.2	1146.3
1040.0035	3120.2488	2024.5	1145.75
1040.1103	3121.2361	2026.3	1147.7
1040.2171	3122.2229	2010.75	1131.5
1040.3238	3123.209	2006.3	1127.45
1040.4305	3124.1944	1993.55	1114.8
1040.5371	3125.1793	1995.6	1114.5
1040.6437	3126.1635	1988.75	1110.2
1040.7502	3127.1471	1974.75	1095.4
1040.8567	3128.1301	1985.65	1106.1
1040.9631	3129.1125	1964.85	1086.4
1041.0695	3130.0942	1971.45	1092.65
1041.1759	3131.0753	1972.3	1086.7
1041.2822	3132.0558	1956.8	1074.9
1041.3884	3133.0357	1955.1	1074.85
1041.4946	3134.015	1956.7	1078.25
1041.6008	3134.9936	1940.2	1059.25
1041.7069	3135.9716	1951.3	1054.35
1041.813	3136.949	1931.5	1051
1041.919	3137.9258	1930.25	1045.3
1042.025	3138.902	1921.6	1037.5
1042.1309	3139.8775	1923.35	1045.8
1042.2368	3140.8524	1914.6	1035.75
1042.3427	3141.8267	1905.65	1026.95
1042.4485	3142.8004	1905.35	1026.3
1042.5542	3143.7735	1915.05	1030.65
1042.6599	3144.7459	1892.95	1011.5
1042.7656	3145.7178	1893.9	1014.25
1042.8712	3146.689	1870.55	993.45
1042.9768	3147.6596	1870.3	989.9
1043.0823	3148.6295	1877.05	999.35
1043.1878	3149.5989	1867.1	988.85
1043.2932	3150.5676	1863.35	984.2
1043.3986	3151.5357	1854.2	976.7
1043.5039	3152.5032	1852.05	973.8
1043.6092	3153.4701	1840	962
1043.7145	3154.4364	1843.05	960.5
1043.8197	3155.402	1846.3	968.25
1043.9248	3156.367	1839	957.25
1044.03	3157.3315	1861.85	944.65
1044.135	3158.2952	1821.3	940.65
1044.24	3159.2584	1811.05	932.55
1044.345	3160.221	1816.6	936.35
1044.4499	3161.1829	1805	925.9
1044.5548	3162.1442	1795.95	915.65
1044.6596	3163.105	1784.2	903.3
1044.7644	3164.065	1791.8	912.15
1044.8692	3165.0245	1785.65	904.05
1044.9739	3165.9834	1776.95	900.05
1045.0785	3166.9416	1768.9	890
1045.1831	3167.8993	1773.6	893.9
1045.2877	3168.8563	1765.2	886.7
1045.3922	3169.8127	1757.2	879.55
1045.4966	3170.7684	1752.8	874.75
1045.6011	3171.7236	1745.05	863.8
1045.7054	3172.6782	1738.8	860
1045.8098	3173.6321	1734.15	853.85
1045.914	3174.5854	1740.8	856.65
1046.0183	3175.5381	1724.65	845.65
1046.1224	3176.4902	1722.7	843.85
1046.2266	3177.4417	1724.45	846.95
1046.3307	3178.3926	1720.9	842.45
1046.4347	3179.3428	1710.05	832.15
1046.5387	3180.2924	1711.1	834.2
1046.6427	3181.2415	1705.9	827.45
1046.7466	3182.1899	1694.3	813.9
1046.8504	3183.1377	1686.4	808
1046.9542	3184.0848	1685.05	802.3
1047.058	3185.0314	1688.45	808.6
1047.1617	3185.9773	1672.1	793.55
1047.2654	3186.9227	1675.25	795.8
1047.369	3187.8674	1665.45	787.55
1047.4726	3188.8115	1670.1	784.6
1047.5761	3189.755	1658.75	781.6
1047.6796	3190.6979	1658.5	780.45
1047.783	3191.6402	1658.9	781.05
1047.8864	3192.5818	1653.95	775.5
1047.9898	3193.5229	1665.3	768.25
1048.0931	3194.4633	1649.35	771.75
1048.1963	3195.4031	1636.1	756.1
1048.2995	3196.3423	1631.25	753.15
1048.4027	3197.2809	1637.75	759.7
1048.5058	3198.2189	1627.6	748.8
1048.6089	3199.1563	1637.75	739.65
1048.7119	3200.0931	1619.8	743.8
1048.8148	3201.0292	1611.95	732.65
1048.9178	3201.9648	1613.7	735.4
1049.0206	3202.8997	1605.35	725.25
1049.1235	3203.834	1610.15	732.9
1049.2262	3204.7677	1597.1	716.95
1049.329	3205.7008	1592.4	709.75
1049.4317	3206.6333	1591.65	713.2
1049.5343	3207.5652	1590.4	709.55
1049.6369	3208.4964	1585.8	706.4
1049.7394	3209.4271	1575.7	699.35
1049.8419	3210.3571	1576.45	698.5
1049.9444	3211.2865	1579.15	699.85
1050.0468	3212.2154	1567.15	687.45
1050.1491	3213.1436	1576.75	696.7
1050.2514	3214.0712	1575.9	692.8
1050.3537	3214.9982	1562.3	684.5
1050.4559	3215.9246	1566.25	687.25
1050.5581	3216.8503	1550.05	672.55
1050.6602	3217.7755	1556.8	676.45
1050.7623	3218.7001	1546	666.9
1050.8643	3219.624	1543.25	664.65
1050.9663	3220.5473	1539.45	661.4
1051.0682	3221.4701	1540.35	661.95
1051.1701	3222.3922	1530.9	650.7
1051.2719	3223.3137	1538.15	659.9
1051.3737	3224.2346	1527.3	649.3
1051.4754	3225.1549	1523.7	645.55
1051.5771	3226.0746	1517.9	638.85
1051.6788	3226.9937	1515.9	637
1051.7804	3227.9121	1513.25	636
1051.8819	3228.83	1510.8	633.75
1051.9834	3229.7473	1507.95	629.35
1052.0849	3230.6639	1509.1	630.35
1052.1863	3231.5799	1499.25	622.2
1052.2876	3232.4954	1498.5	618.95
1052.3889	3233.4102	1489.95	610.45
1052.4902	3234.3244	1488.55	609.8
1052.5914	3235.238	1485.2	607.2
1052.6926	3236.151	1501.9	599.9
1052.7937	3237.0634	1478.2	601.5
1052.8948	3237.9752	1472.95	594.65
1052.9958	3238.8864	1467.65	588.7
1053.0968	3239.797	1468.05	589.6
1053.1977	3240.7069	1462.55	582.55
1053.2986	3241.6163	1463.65	584.65
1053.3994	3242.5251	1457.7	579.6
1053.5002	3243.4332	1457.2	579.5
1053.6009	3244.3408	1449.55	571.85
1053.7016	3245.2477	1445.65	568.95
1053.8022	3246.154	1438.85	560.4
1053.9028	3247.0598	1440.75	563.25
1054.0034	3247.9649	1427.95	548.95
1054.1039	3248.8694	1428.9	549.8
1054.2043	3249.7733	1426.5	548.8
1054.3047	3250.6766	1422.8	543.9
1054.4051	3251.5793	1426.2	545.4
1054.5054	3252.4814	1416.8	539.15
1054.6056	3253.3829	1420.9	541.75
1054.7058	3254.2838	1413.75	535.7
1054.806	3255.1841	1410	531.95
1054.9061	3256.0838	1396.2	519.85
1055.0061	3256.9829	1401.35	525
1055.1062	3257.8814	1396.75	517.55
1055.2061	3258.7792	1393.85	513.85
1055.306	3259.6765	1385.25	503.2
1055.4059	3260.5731	1373.95	494.9
1055.5057	3261.4692	1374.7	495.3
1055.6055	3262.3647	1369.25	492.3
1055.7052	3263.2595	1358.85	479.5
1055.8049	3264.1538	1351.85	474.3
1055.9045	3265.0474	1348.8	470.35
1056.0041	3265.9404	1338.05	460.35
1056.1036	3266.8329	1334.65	456.55
1056.2031	3267.7247	1332.4	444.15
1056.3025	3268.616	1314.2	438.15
1056.4019	3269.5066	1306.5	428.3
1056.5013	3270.3966	1289.55	407.4
1056.6005	3271.286	1280.15	402.95
