Software Version:	3.9.2.0
Unit SN:	10000200
Spectrometer SN:	6960
Date:	3/6/2024 9:43:01 AM
Data Line Index:	25
Spectral Points:	2048
Integration time (ms):	125
Averages:	20
Delay (ms):	30
Sequence Number:	1
Processing:	dark subtract
Laser Power (mW):	300
Laser Current (mA):	824
Laser Diode Temp (C):	25.1
Laser Case Temp (C):	24
System Temp (C):	23.8
Spectrometer Temp (C):	21.5
CCD Temp (C):	-0.034
Secondary Temp (C):	20.006
Heatsink Temp (C):	17.612
CCDPCB Temp (C):	30.582
SecondaryPCB Temp (C):	25.547

Wavelength	RamanShift	Raw Counts	Dark Subtracted
787.061	30.1047	461.85	53.5
787.2016	32.3739	459.7	55
787.3422	34.6426	464.75	56.7
787.4828	36.9109	469.8	62.7
787.6235	39.1787	478.7	66.5
787.7642	41.4461	487	71.35
787.9049	43.7131	492.1	73.9
788.0456	45.9796	498.35	76.75
788.1863	48.2456	507.25	80.8
788.3271	50.5112	518.35	88.3
788.4679	52.7764	525.5	92.65
788.6087	55.0411	533.25	97.45
788.7496	57.3054	541.9	100.45
788.8904	59.5692	550.55	108.15
789.0313	61.8326	557.55	111.75
789.1722	64.0955	572.2	123.35
789.3132	66.3579	588.55	136.05
789.4541	68.6199	600.2	141.65
789.5951	70.8815	634.6	172.85
789.7361	73.1426	686.8	221.8
789.8771	75.4032	835.05	363.35
790.0181	77.6634	1185.05	711.65
790.1592	79.9231	2034.55	1559.6
790.3003	82.1824	3835.95	3355.2
790.4414	84.4412	6977.4	6486.3
790.5825	86.6995	11216.8	10715.65
790.7237	88.9574	15425.25	14914
790.8648	91.2148	18517.8	18000.85
791.006	93.4717	20200.75	19679.6
791.1472	95.7282	20927.75	20403
791.2885	97.9842	21345.55	20817.7
791.4297	100.2398	21449.25	20919.55
791.571	102.4949	21507.5	20976.2
791.7123	104.7495	21541.25	21006.95
791.8536	107.0036	21517	20981.7
791.9949	109.2573	21534.55	20999.1
792.1363	111.5105	21515.65	20977.05
792.2777	113.7632	21478.35	20939.3
792.4191	116.0154	21551.7	21001.55
792.5605	118.2672	21643.2	21099.35
792.7019	120.5185	21611.25	21062.05
792.8434	122.7693	21644.1	21094.3
792.9849	125.0197	21684.2	21131.65
793.1264	127.2696	21699.55	21140.7
793.2679	129.519	21788.1	21228.45
793.4094	131.7679	21810.95	21248.25
793.551	134.0163	21869.25	21302.25
793.6926	136.2642	21916.9	21347.6
793.8342	138.5117	21927.1	21354.85
793.9758	140.7587	21941.25	21367.8
794.1175	143.0052	21975.85	21398.75
794.2591	145.2512	21959.85	21383.35
794.4008	147.4967	21899.65	21319.5
794.5425	149.7417	21922.45	21340.55
794.6842	151.9863	21935.5	21349.65
794.826	154.2304	21964.65	21372.8
794.9677	156.4739	21917.4	21322.7
795.1095	158.717	21982.85	21388.25
795.2513	160.9596	21969.65	21369.75
795.3931	163.2017	22007.35	21407.8
795.535	165.4433	22023.35	21416.9
795.6768	167.6844	22005.85	21398.65
795.8187	169.925	22055.05	21444.75
795.9606	172.1651	21986.25	21371.35
796.1025	174.4047	22001.45	21386.3
796.2445	176.6439	21990.15	21372.85
796.3864	178.8825	22010.15	21391.8
796.5284	181.1206	22056.45	21430.85
796.6704	183.3582	22083.2	21455.5
796.8124	185.5954	22078.75	21448
796.9544	187.832	22106.3	21472.7
797.0965	190.0681	22148.65	21512.25
797.2386	192.3037	22227.5	21587.7
797.3806	194.5388	22245.25	21600.45
797.5228	196.7734	22252.95	21608.5
797.6649	199.0075	22343.8	21696.95
797.807	201.2411	22489.35	21841.8
797.9492	203.4742	22546.75	21895.65
798.0914	205.7068	22578.65	21926.55
798.2336	207.9389	22637.1	21985.05
798.3758	210.1704	22719.95	22074.3
798.518	212.4015	22678.1	22039.65
798.6603	214.632	22707.05	22074.8
798.8025	216.862	22768.45	22137.15
798.9448	219.0915	22784.5	22152
799.0871	221.3205	22814.45	22179.25
799.2294	223.549	22848.05	22215.95
799.3718	225.777	22926.15	22293.45
799.5141	228.0044	22968.85	22328.55
799.6565	230.2314	23008	22364
799.7989	232.4578	22996.5	22352.1
799.9413	234.6837	23037	22381.65
800.0837	236.909	23063.75	22407
800.2262	239.1339	23071.75	22393
800.3687	241.3582	23116.2	22450.35
800.5111	243.582	23122.25	22424.4
800.6536	245.8053	23148.45	22465.25
800.7961	248.0281	23177.35	22500.5
800.9387	250.2503	23164.95	22483
801.0812	252.472	23218.4	22534.1
801.2238	254.6932	23233.85	22551.75
801.3664	256.9139	23228.6	22547.05
801.509	259.134	23246.6	22557.75
801.6516	261.3536	23252.6	22564.45
801.7942	263.5727	23349.2	22658.85
801.9369	265.7912	23339.85	22652.05
802.0795	268.0092	23387.35	22697.45
802.2222	270.2267	23413.8	22725.15
802.3649	272.4436	23443.4	22748.2
802.5076	274.6601	23518.6	22812.7
802.6504	276.8759	23501.15	22803.8
802.7931	279.0913	23489.85	22792
802.9359	281.3061	23554.45	22852.85
803.0787	283.5204	23593.5	22889.55
803.2215	285.7341	23646.15	22939.4
803.3643	287.9473	23684.6	22970.25
803.5071	290.16	23659.05	22948.75
803.6499	292.3721	23665.85	22963.2
803.7928	294.5837	23653.3	22948.85
803.9357	296.7947	23591.6	22887.15
804.0786	299.0052	23575.95	22871.1
804.2215	301.2152	23566.8	22858.6
804.3644	303.4246	23603.6	22894.35
804.5074	305.6334	23530.95	22822.35
804.6503	307.8418	23571.4	22858.1
804.7933	310.0495	23478.6	22767.35
804.9363	312.2568	23492.65	22780.15
805.0793	314.4635	23395.95	22682.7
805.2223	316.6696	23362.2	22642.45
805.3653	318.8752	23275.95	22550.15
805.5084	321.0802	23260.95	22542.2
805.6514	323.2847	23287.4	22566.6
805.7945	325.4887	23236	22513.7
805.9376	327.692	23227.9	22503.35
806.0807	329.8949	23298.05	22573.5
806.2238	332.0972	23325	22597.35
806.367	334.2989	23402.75	22671.7
806.5101	336.5001	23345	22615.6
806.6533	338.7007	23365.15	22636.9
806.7965	340.9008	23360.25	22626.7
806.9397	343.1003	23308.9	22573.55
807.0829	345.2992	23303.8	22569.45
807.2261	347.4976	23296.55	22557
807.3693	349.6955	23263.3	22522.4
807.5126	351.8927	23275.4	22532.8
807.6559	354.0895	23208.5	22455.85
807.7991	356.2856	23187.4	22444.35
807.9424	358.4812	23173.15	22427.8
808.0857	360.6763	23243.5	22498.75
808.2291	362.8707	23178.15	22428.85
808.3724	365.0646	23209.1	22459.25
808.5158	367.258	23139.15	22384.8
808.6591	369.4508	23157.6	22400.65
808.8025	371.643	23162.35	22408.75
808.9459	373.8346	23125.95	22366.75
809.0893	376.0257	23119.25	22359.8
809.2327	378.2162	23115.7	22360.15
809.3762	380.4062	23106.4	22350.6
809.5196	382.5956	23038.05	22283.25
809.6631	384.7844	23071.9	22322.1
809.8066	386.9726	22975.6	22225.75
809.9501	389.1603	22917.35	22167.95
810.0936	391.3474	22939.4	22146.1
810.2371	393.5339	22921.1	22166.4
810.3806	395.7199	22816.85	22065.45
810.5241	397.9052	22827.55	22075.25
810.6677	400.09	22878	22121.4
810.8113	402.2743	22860.95	22106.55
810.9548	404.4579	22841.25	22084.65
811.0984	406.641	22932.05	22172.5
811.2421	408.8235	22924.05	22161.45
811.3857	411.0054	22989.3	22227
811.5293	413.1868	23068.95	22301.4
811.673	415.3675	23104.3	22335.4
811.8166	417.5477	23095.4	22323.6
811.9603	419.7273	23021.2	22246.85
812.104	421.9064	22876.75	22099.55
812.2477	424.0848	22785.2	22010.3
812.3914	426.2627	22688.25	21913.3
812.5351	428.4399	22626.75	21849.85
812.6788	430.6166	22579.95	21799.85
812.8226	432.7928	22492	21710.65
812.9663	434.9683	22444.85	21664.25
813.1101	437.1432	22372.15	21590.05
813.2539	439.3176	22278	21498.6
813.3977	441.4914	22247.8	21468.25
813.5415	443.6645	22228.4	21447.5
813.6853	445.8371	22108.5	21325.85
813.8291	448.0091	22091.4	21311.55
813.973	450.1806	22014.5	21231.35
814.1168	452.3514	21957.75	21172.1
814.2607	454.5216	21989.75	21194.7
814.4046	456.6913	21842.45	21055.8
814.5485	458.8603	21889.2	21103.2
814.6924	461.0288	21876.45	21092.2
814.8363	463.1967	21821.4	21036.25
814.9802	465.3639	21854.75	21066.5
815.1241	467.5306	21794.05	21005.1
815.2681	469.6967	21781.65	20992.7
815.412	471.8622	21668.4	20880.3
815.556	474.0271	21661.85	20872.45
815.7	476.1914	21688.55	20896.5
815.844	478.3551	21626.25	20836.7
815.988	480.5182	21678.6	20887.15
816.132	482.6807	21657.2	20866.5
816.276	484.8426	21668.05	20878.35
816.4201	487.0039	21728.5	20936.45
816.5641	489.1647	21766.45	20974.75
816.7082	491.3248	21818.85	21023.35
816.8522	493.4843	21803	21010.75
816.9963	495.6432	21740.8	20945.95
817.1404	497.8015	21683.15	20884.8
817.2845	499.9592	21697.2	20900
817.4286	502.1163	21654	20855.95
817.5727	504.2728	21555.6	20755.05
817.7168	506.4287	21584.65	20787.85
817.861	508.5839	21559	20760.6
818.0051	510.7386	21500.6	20700.55
818.1493	512.8927	21504.9	20700.85
818.2935	515.0461	21469.35	20667.75
818.4377	517.199	21467.6	20665.3
818.5818	519.3512	21512.3	20708.05
818.726	521.5029	21513.85	20701.85
818.8703	523.6539	21518.85	20714.9
819.0145	525.8043	21515.5	20708.8
819.1587	527.9541	21465.95	20658.7
819.303	530.1033	21403.2	20595.35
819.4472	532.2519	21389.4	20580.95
819.5915	534.3999	21337.35	20529.9
819.7357	536.5472	21302.55	20494
819.88	538.694	21285.6	20477.35
820.0243	540.8401	21286	20476.3
820.1686	542.9856	21316.8	20504.6
820.3129	545.1305	21275.25	20464.15
820.4572	547.2748	21336.7	20522.85
820.6016	549.4185	21306.55	20490.35
820.7459	551.5615	21256.35	20440.25
820.8902	553.704	21256.2	20442.4
821.0346	555.8458	21214.45	20401.9
821.1789	557.987	21240.45	20428.15
821.3233	560.1276	21212.7	20395.8
821.4677	562.2675	21282.7	20472.15
821.6121	564.4069	21273.5	20460.15
821.7565	566.5456	21265.3	20452
821.9009	568.6837	21220.75	20406.95
822.0453	570.8212	21134.1	20320.35
822.1897	572.958	21052.05	20234.9
822.3342	575.0942	21011.3	20197.7
822.4786	577.2299	20910.6	20093.8
822.6231	579.3648	20832.45	20018.05
822.7675	581.4992	20747.1	19935.1
822.912	583.6329	20698.55	19884.65
823.0565	585.766	20691.65	19876.8
823.201	587.8985	20671	19855.15
823.3454	590.0304	20629.25	19801.95
823.4899	592.1616	20594.85	19771.9
823.6345	594.2922	20555.15	19735.9
823.779	596.4222	20460.2	19636.6
823.9235	598.5515	20411	19589.15
824.068	600.6802	20358.4	19537.3
824.2126	602.8083	20213.25	19389.4
824.3571	604.9358	20215.35	19391.9
824.5017	607.0626	20132.05	19308.1
824.6462	609.1888	20153.95	19330.2
824.7908	611.3144	20106.15	19278.1
824.9354	613.4393	20132	19308.95
825.08	615.5636	20134.4	19312
825.2246	617.6873	20135.9	19310.55
825.3692	619.8103	20142.95	19315.65
825.5138	621.9327	20120.25	19290.15
825.6584	624.0544	20106	19279.1
825.803	626.1756	20050.65	19224.55
825.9477	628.2961	20023.9	19193.9
826.0923	630.4159	19946	19114.45
826.237	632.5351	19915.95	19084.95
826.3816	634.6537	19873	19041.85
826.5263	636.7716	19875.2	19042.5
826.6709	638.8889	19904.3	19072.9
826.8156	641.0056	19915.65	19084.25
826.9603	643.1216	19876.95	19043.9
827.105	645.237	19902.15	19070.95
827.2497	647.3518	19807.05	18976.35
827.3944	649.4659	19833.3	19002.45
827.5391	651.5793	19760.05	18927.4
827.6838	653.6922	19706.4	18876.1
827.8285	655.8043	19699.15	18867.85
827.9733	657.9159	19692.1	18859.2
828.118	660.0268	19645.6	18811.9
828.2627	662.137	19624.35	18789.2
828.4075	664.2466	19594.85	18756.5
828.5522	666.3556	19536.75	18701.6
828.697	668.4639	19504	18664
828.8418	670.5716	19533.8	18699.5
828.9865	672.6786	19520.85	18682.15
829.1313	674.785	19424.95	18584.55
829.2761	676.8907	19391.6	18554.7
829.4209	678.9958	19352.4	18518
829.5657	681.1002	19299.8	18462.2
829.7105	683.204	19292.95	18447.95
829.8553	685.3072	19256.75	18413.95
830.0001	687.4097	19223.65	18381.85
830.1449	689.5115	19258.85	18417.8
830.2898	691.6127	19234.3	18394.85
830.4346	693.7132	19147.25	18307.2
830.5794	695.8131	19200.4	18337.5
830.7243	697.9123	19191.75	18347.3
830.8691	700.0109	19163.05	18320.85
831.014	702.1089	19127.6	18287.8
831.1588	704.2061	19115.9	18272.8
831.3037	706.3028	19082.05	18236.45
831.4486	708.3987	19109.4	18266.7
831.5935	710.4941	19089.95	18244.2
831.7383	712.5887	19066.5	18224.85
831.8832	714.6827	19076.45	18228.7
832.0281	716.7761	19027	18184.6
832.173	718.8688	19021.65	18174.75
832.3179	720.9608	18999.45	18149.9
832.4628	723.0522	19007.7	18156.6
832.6077	725.1429	18923.6	18076.35
832.7527	727.233	18927.55	18080.8
832.8976	729.3224	18975.2	18129.8
833.0425	731.4112	18990	18142.1
833.1874	733.4993	18938.75	18089.15
833.3324	735.5867	18851.15	18001.95
833.4773	737.6735	18824.65	17974.75
833.6222	739.7596	18736.6	17887.55
833.7672	741.845	18676.35	17827.75
833.9122	743.9298	18687.45	17835.45
834.0571	746.014	18635.65	17788.7
834.2021	748.0974	18639.1	17787.85
834.347	750.1802	18582.75	17732.15
834.492	752.2624	18505.2	17653.05
834.637	754.3439	18439.85	17587.6
834.782	756.4247	18401.35	17542.75
834.9269	758.5048	18353.25	17504.4
835.0719	760.5843	18327.15	17478.1
835.2169	762.6631	18276.3	17426.45
835.3619	764.7413	18264.5	17413.5
835.5069	766.8188	18307.25	17454.15
835.6519	768.8956	18268.5	17413.75
835.7969	770.9718	18353.3	17501.1
835.9419	773.0473	18249.15	17395.9
836.0869	775.1221	18224.3	17370.35
836.232	777.1962	18138.45	17286.25
836.377	779.2697	18150.45	17295.65
836.522	781.3426	18173.3	17303.05
836.667	783.4147	18143.5	17290.75
836.8121	785.4862	18144.75	17293.35
836.9571	787.557	18018.45	17165.05
837.1021	789.6271	17994.2	17137.6
837.2472	791.6966	17892.9	17039.05
837.3922	793.7654	17760.15	16905.4
837.5373	795.8335	17719.95	16866.7
837.6823	797.901	17663.7	16809.5
837.8274	799.9678	17647.4	16787.9
837.9724	802.0339	17614.45	16760.75
838.1175	804.0993	17593.3	16728.3
838.2626	806.1641	17520.35	16664.1
838.4076	808.2282	17469.15	16615.65
838.5527	810.2916	17457.1	16597.2
838.6978	812.3544	17447	16591.65
838.8428	814.4164	17395.75	16539.1
838.9879	816.4778	17424.05	16565.4
839.133	818.5385	17377.6	16522.05
839.2781	820.5986	17382.8	16525.1
839.4232	822.658	17419.9	16562.55
839.5682	824.7166	17346.35	16488.35
839.7133	826.7747	17427.7	16571.05
839.8584	828.832	17455.35	16598.2
840.0035	830.8886	17398.6	16538.55
840.1486	832.9446	17433.8	16570.9
840.2937	834.9999	17355.65	16496.45
840.4388	837.0545	17305.85	16441.3
840.5839	839.1085	17241.7	16383.6
840.729	841.1618	17188.3	16324.9
840.8741	843.2143	17120.95	16261.9
841.0192	845.2662	17046.35	16187.4
841.1643	847.3175	17053.85	16194.35
841.3095	849.368	17000.05	16140.7
841.4546	851.4179	16962.95	16100.4
841.5997	853.467	16888.35	16028.7
841.7448	855.5155	16872.3	16011.2
841.8899	857.5633	16898.65	16039.1
842.0351	859.6105	16847.75	15988.6
842.1802	861.6569	16814.2	15954.4
842.3253	863.7027	16776.25	15914.25
842.4704	865.7478	16752.6	15890.4
842.6156	867.7922	16751.2	15890.6
842.7607	869.8359	16689.45	15829.4
842.9058	871.8789	16680.7	15816.15
843.0509	873.9212	16668.1	15772.2
843.1961	875.9629	16629.75	15767.95
843.3412	878.0039	16619	15754
843.4863	880.0441	16598.35	15735.1
843.6315	882.0837	16628.85	15767.05
843.7766	884.1226	16575	15709.3
843.9218	886.1609	16577.25	15715.75
844.0669	888.1984	16616.25	15751.05
844.212	890.2352	16657.15	15794.6
844.3572	892.2714	16631.45	15764.45
844.5023	894.3069	16636.5	15770.4
844.6475	896.3416	16546.1	15681.6
844.7926	898.3757	16504.9	15641.6
844.9377	900.4091	16461.45	15596.35
845.0829	902.4418	16437.6	15567.65
845.228	904.4739	16370.9	15502.95
845.3732	906.5052	16369.85	15503.5
845.5183	908.5358	16337.95	15473.8
845.6635	910.5658	16320.05	15454.1
845.8086	912.595	16288.5	15421.85
845.9538	914.6236	16209.55	15344.85
846.0989	916.6515	16167.95	15301.65
846.2441	918.6786	16147.95	15282.1
846.3892	920.7051	16123.2	15254.45
846.5344	922.7309	16130.15	15261.45
846.6795	924.756	16053	15185.15
846.8246	926.7804	16087.15	15218.85
846.9698	928.8041	15976.8	15108.3
847.1149	930.8272	15959.25	15092.6
847.2601	932.8495	15878.15	15009.8
847.4052	934.8711	15885.05	15016.3
847.5504	936.892	15829.7	14959.65
847.6955	938.9123	15810.05	14940.6
847.8407	940.9318	15796.85	14928
847.9858	942.9506	15770.8	14902.8
848.131	944.9688	15682.75	14814.35
848.2761	946.9862	15660.85	14790.5
848.4213	949.003	15556.1	14687.35
848.5664	951.019	15532.9	14662.4
848.7115	953.0344	15490.05	14621.4
848.8567	955.0491	15437.75	14566.65
849.0018	957.063	15441.45	14573.5
849.147	959.0763	15455.6	14588.9
849.2921	961.0888	15425.2	14553.85
849.4373	963.1007	15422.1	14554
849.5824	965.1119	15383.7	14516.8
849.7275	967.1223	15366.75	14499.2
849.8727	969.1321	15337.7	14470.25
850.0178	971.1412	15302.4	14434
850.1629	973.1495	15270.75	14401.85
850.3081	975.1572	15255.85	14340.3
850.4532	977.1641	15242.8	14372.75
850.5983	979.1704	15186.75	14313.85
850.7435	981.1759	15153	14279
850.8886	983.1808	15131.9	14261
851.0337	985.1849	15112.6	14231.05
851.1788	987.1884	15056.25	14181.75
851.324	989.1911	15009.5	14135.85
851.4691	991.1932	15022.25	14148.05
851.6142	993.1945	14967.7	14097.15
851.7593	995.1951	14887.9	14017.25
851.9045	997.1951	14883.3	14007
852.0496	999.1943	14821.35	13950.7
852.1947	1001.1928	14770.35	13896.85
852.3398	1003.1906	14712.6	13843.1
852.4849	1005.1877	14713.15	13841.6
852.63	1007.1841	14672.15	13798.85
852.7751	1009.1798	14642.9	13771
852.9202	1011.1748	14560.35	13688.25
853.0653	1013.1691	14538.8	13666.65
853.2104	1015.1627	14460.95	13590.95
853.3555	1017.1556	14361.35	13489.65
853.5006	1019.1477	14337.65	13465.65
853.6457	1021.1392	14257.85	13388.15
853.7908	1023.1299	14191.4	13319.85
853.9359	1025.12	14150.7	13279.45
854.081	1027.1093	14093.05	13225.1
854.2261	1029.0979	14028.2	13160.35
854.3712	1031.0859	14010.45	13141.6
854.5163	1033.0731	14018.7	13146.65
854.6613	1035.0596	13961	13090.95
854.8064	1037.0454	13885.35	13012.15
854.9515	1039.0304	13864.85	12992.8
855.0965	1041.0148	13777.15	12906
855.2416	1042.9985	13783.75	12909.1
855.3867	1044.9814	13746.65	12875.15
855.5317	1046.9636	13697.35	12824.45
855.6768	1048.9452	13650.95	12776.75
855.8219	1050.926	13638.15	12764.35
855.9669	1052.9061	13614.05	12742.7
856.112	1054.8855	13559.25	12685.05
856.257	1056.8642	13555.85	12681.4
856.4021	1058.8421	13548.35	12672.65
856.5471	1060.8194	13511.4	12637.2
856.6921	1062.7959	13476.2	12602.25
856.8372	1064.7717	13446.5	12571.8
856.9822	1066.7469	13430.15	12555.6
857.1272	1068.7213	13401.3	12519.85
857.2723	1070.695	13389.45	12517.65
857.4173	1072.6679	13350.85	12474.8
857.5623	1074.6402	13368.1	12492.95
857.7073	1076.6117	13344.7	12466.55
857.8523	1078.5826	13300.5	12424.85
857.9973	1080.5527	13261.7	12383.65
858.1423	1082.5221	13178.6	12301.85
858.2873	1084.4908	13163.25	12291.35
858.4323	1086.4587	13122.95	12245.65
858.5773	1088.426	13090.35	12213.5
858.7223	1090.3925	13052.25	12172.95
858.8673	1092.3584	13015.45	12140.9
859.0123	1094.3235	12979.35	12104.2
859.1573	1096.2879	12961.05	12084.7
859.3022	1098.2515	12957.05	12081.95
859.4472	1100.2145	13001	12124.5
859.5922	1102.1767	12943.55	12065.4
859.7371	1104.1382	12949	12072.3
859.8821	1106.099	12973.9	12096.4
860.027	1108.0591	12953.8	12078.05
860.172	1110.0185	12953.2	12077.1
860.3169	1111.9771	12941.75	12066.05
860.4619	1113.9351	12932.25	12056.45
860.6068	1115.8923	12955.15	12078.15
860.7517	1117.8488	12914.4	12037.85
860.8967	1119.8045	12843.75	11967.5
861.0416	1121.7596	12799.75	11922.25
861.1865	1123.7139	12677.35	11800.7
861.3314	1125.6675	12617.5	11741.9
861.4763	1127.6204	12649.6	11774
861.6212	1129.5726	12608.7	11730.2
861.7661	1131.524	12566.85	11692
861.911	1133.4748	12590.6	11713.7
862.0559	1135.4248	12501.75	11624.25
862.2008	1137.3741	12437.25	11560.4
862.3457	1139.3226	12362.95	11484.55
862.4905	1141.2705	12378.6	11502.5
862.6354	1143.2176	12315.8	11432.1
862.7803	1145.164	12315.9	11434.55
862.9251	1147.1097	12278	11399.5
863.07	1149.0546	12276.1	11395.65
863.2148	1150.9989	12249.7	11371.7
863.3597	1152.9424	12230.65	11351.7
863.5045	1154.8852	12222.8	11344.75
863.6493	1156.8272	12188.45	11314.25
863.7942	1158.7686	12195.3	11310.15
863.939	1160.7092	12140.3	11263.45
864.0838	1162.6491	12106.65	11227.45
864.2286	1164.5883	12087.35	11209
864.3734	1166.5267	12098.3	11221.3
864.5182	1168.4644	12102.95	11224.2
864.663	1170.4014	12085.2	11203.45
864.8078	1172.3377	12092.9	11216.5
864.9526	1174.2732	12101.4	11222.15
865.0974	1176.2081	12149.65	11272.1
865.2421	1178.1421	12220.9	11337
865.3869	1180.0755	12268.35	11391.95
865.5317	1182.0082	12283.5	11407.05
865.6764	1183.9401	12248.7	11370.15
865.8212	1185.8713	12178.05	11299.45
865.9659	1187.8017	12087	11209.35
866.1106	1189.7315	11999.8	11124.75
866.2554	1191.6605	11851.85	10977.95
866.4001	1193.5888	11795.5	10918.2
866.5448	1195.5163	11767.4	10891
866.6895	1197.4432	11730.6	10853.15
866.8342	1199.3693	11682	10802.9
866.9789	1201.2947	11617.7	10732.2
867.1236	1203.2193	11567.75	10688.65
867.2683	1205.1432	11558.8	10679.45
867.413	1207.0664	11527.05	10648.1
867.5576	1208.9889	11485.1	10603.65
867.7023	1210.9106	11429.15	10551.55
867.847	1212.8316	11418.7	10541.5
867.9916	1214.7519	11412.7	10524.7
868.1363	1216.6715	11385.85	10506.9
868.2809	1218.5903	11374.3	10494.95
868.4255	1220.5084	11318.1	10440.25
868.5701	1222.4257	11344.95	10466.4
868.7148	1224.3424	11300.7	10424
868.8594	1226.2583	11291.75	10411.3
869.004	1228.1735	11279.8	10395.85
869.1486	1230.0879	11251.5	10372.75
869.2932	1232.0016	11234.45	10357.55
869.4377	1233.9146	11258.1	10375.25
869.5823	1235.8269	11240.55	10361.7
869.7269	1237.7384	11234.7	10354.3
869.8715	1239.6492	11222.95	10345.75
870.016	1241.5592	11230	10350.3
870.1606	1243.4686	11227.35	10349.35
870.3051	1245.3772	11259.1	10382.55
870.4496	1247.285	11272.75	10393.5
870.5941	1249.1922	11292.05	10412.55
870.7387	1251.0986	11333.15	10455.85
870.8832	1253.0042	11319.75	10439.35
871.0277	1254.9092	11351	10472.4
871.1722	1256.8134	11374.45	10495.3
871.3167	1258.7169	11445.9	10566.3
871.4611	1260.6196	11462.9	10584.55
871.6056	1262.5216	11460.4	10577
871.7501	1264.4229	11408.45	10532.05
871.8945	1266.3234	11385.7	10504.95
872.039	1268.2232	11340.75	10460
872.1834	1270.1223	11287.75	10406.6
872.3278	1272.0207	11248.55	10368.75
872.4723	1273.9183	11225.35	10341.9
872.6167	1275.8151	11196.4	10316.95
872.7611	1277.7113	11205.15	10323.3
872.9055	1279.6067	11238.7	10358.9
873.0499	1281.5014	11313.2	10432.5
873.1943	1283.3953	11429.85	10547.85
873.3386	1285.2885	11549.5	10671.75
873.483	1287.181	11629.5	10747.55
873.6274	1289.0727	11692.75	10813.8
873.7717	1290.9637	11630	10748.65
873.9161	1292.854	11571.65	10693.2
874.0604	1294.7435	11432.5	10552.6
874.2047	1296.6323	11379.25	10498
874.349	1298.5204	11301.6	10417
874.4933	1300.4077	11230	10346.5
874.6376	1302.2943	11204.15	10325.7
874.7819	1304.1802	11193.8	10314.75
874.9262	1306.0653	11115.7	10231.9
875.0705	1307.9497	11096.1	10217.5
875.2147	1309.8333	11053.05	10175.45
875.359	1311.7162	11030.9	10150.45
875.5032	1313.5984	11014.8	10132.9
875.6475	1315.4798	10954.9	10061.35
875.7917	1317.3605	10939.95	10041.6
875.9359	1319.2405	10928.95	10043.45
876.0801	1321.1197	10890.4	10005.5
876.2243	1322.9982	10821.35	9938.05
876.3685	1324.876	10799.3	9917.55
876.5127	1326.753	10716.95	9838.1
876.6569	1328.6293	10666.95	9783.5
876.801	1330.5048	10567.95	9685.6
876.9452	1332.3796	10511	9629.8
877.0893	1334.2537	10489.95	9582.45
877.2335	1336.127	10438.7	9557
877.3776	1337.9996	10396.4	9515.85
877.5217	1339.8714	10368.6	9487
877.6658	1341.7426	10370.65	9445.5
877.8099	1343.6129	10328.05	9445.75
877.954	1345.4826	10284.05	9400.8
878.0981	1347.3515	10269.4	9385.95
878.2422	1349.2196	10259.7	9379.75
878.3862	1351.087	10243.8	9361.5
878.5303	1352.9537	10212.8	9331.55
878.6743	1354.8197	10201.55	9319.05
878.8184	1356.6849	10227	9346.7
878.9624	1358.5493	10226.1	9345.6
879.1064	1360.4131	10204.2	9321.9
879.2504	1362.276	10197.4	9319.95
879.3944	1364.1383	10199.85	9319.55
879.5384	1365.9998	10198.95	9312.65
879.6823	1367.8606	10149.65	9268.05
879.8263	1369.7206	10151.05	9268
879.9702	1371.5799	10121.9	9236.45
880.1142	1373.4384	10081.55	9197.2
880.2581	1375.2962	10063.35	9178.95
880.402	1377.1533	9976.35	9093.95
880.5459	1379.0096	9900.9	9020.85
880.6898	1380.8652	9893.6	9012.05
880.8337	1382.7201	9814.6	8933.25
880.9776	1384.5742	9762.15	8880.8
881.1215	1386.4275	9699.05	8815.85
881.2653	1388.2802	9691.9	8812.1
881.4092	1390.132	9638.45	8757.1
881.553	1391.9832	9645.35	8763.1
881.6968	1393.8336	9584	8701.1
881.8406	1395.6832	9569.2	8687.2
881.9844	1397.5322	9525.25	8642.9
882.1282	1399.3803	9492.5	8603.45
882.272	1401.2278	9439.8	8558.05
882.4158	1403.0745	9424.2	8544.1
882.5595	1404.9204	9374.55	8496.45
882.7033	1406.7656	9356.9	8474.35
882.847	1408.6101	9327.05	8445.85
882.9908	1410.4538	9283.8	8402.75
883.1345	1412.2968	9271.8	8392.4
883.2782	1414.139	9233.45	8353
883.4219	1415.9805	9213.6	8331.9
883.5656	1417.8213	9202.45	8302.15
883.7092	1419.6613	9182.1	8300.7
883.8529	1421.5006	9185.4	8301.25
883.9965	1423.3391	9190.9	8307.6
884.1402	1425.1769	9165.2	8280.5
884.2838	1427.0139	9211.75	8328.45
884.4274	1428.8502	9276.35	8394.05
884.571	1430.6858	9255.95	8373.25
884.7146	1432.5206	9275.8	8393.2
884.8582	1434.3547	9291.4	8409.8
885.0018	1436.188	9253.6	8372.45
885.1453	1438.0206	9228.45	8345.15
885.2889	1439.8524	9219.6	8336.85
885.4324	1441.6835	9184.7	8302.5
885.5759	1443.5139	9180.75	8294.1
885.7194	1445.3435	9123.7	8240.15
885.8629	1447.1724	9126.6	8247.4
886.0064	1449.0005	9132	8249.3
886.1499	1450.8279	9120.75	8238.35
886.2933	1452.6545	9111.8	8231.15
886.4368	1454.4804	9068.65	8185.55
886.5802	1456.3056	9062.9	8173.3
886.7237	1458.13	9023.45	8142.2
886.8671	1459.9536	9012.75	8130.75
887.0105	1461.7766	8970.25	8089.9
887.1539	1463.5987	8927.8	8044
887.2972	1465.4202	8880.15	7997.8
887.4406	1467.2409	8844.2	7961.25
887.584	1469.0608	8813.7	7931.55
887.7273	1470.88	8763.65	7882.7
887.8706	1472.6984	8740.8	7860
888.0139	1474.5161	8692.1	7807.15
888.1572	1476.3331	8669.85	7788.2
888.3005	1478.1493	8653.85	7770.45
888.4438	1479.9648	8651	7768.65
888.5871	1481.7795	8626.8	7744.6
888.7303	1483.5935	8617	7735.8
888.8736	1485.4067	8587	7704.7
889.0168	1487.2192	8575.8	7694.25
889.16	1489.031	8584.95	7700.35
889.3032	1490.842	8555.15	7674.25
889.4464	1492.6522	8537.3	7656.05
889.5896	1494.4618	8506.6	7621.7
889.7327	1496.2705	8506.5	7624.5
889.8759	1498.0785	8486.3	7603.75
890.019	1499.8858	8446.5	7562.25
890.1622	1501.6924	8427.85	7546.85
890.3053	1503.4981	8398.45	7515.8
890.4484	1505.3032	8380.1	7498.95
890.5914	1507.1075	8365.55	7483.35
890.7345	1508.911	8349.65	7467.45
890.8776	1510.7138	8323.45	7439.95
891.0206	1512.5159	8292.95	7411.4
891.1637	1514.3172	8278.85	7396.4
891.3067	1516.1178	8231.1	7350.3
891.4497	1517.9176	8228.35	7345
891.5927	1519.7166	8190.75	7310.1
891.7357	1521.515	8152.45	7265.55
891.8786	1523.3126	8165.35	7285.3
892.0216	1525.1094	8125.65	7241.3
892.1645	1526.9055	8095.95	7213.05
892.3074	1528.7008	8078.7	7196.55
892.4503	1530.4954	8011.8	7126.35
892.5932	1532.2893	7989.1	7109.75
892.7361	1534.0824	7963.85	7078.35
892.879	1535.8747	7961.65	7080.55
893.0218	1537.6663	7891	7007
893.1647	1539.4572	7879.65	6994.45
893.3075	1541.2473	7887.1	7004.7
893.4503	1543.0367	7839	6957.9
893.5931	1544.8253	7814.3	6928.85
893.7359	1546.6132	7794.7	6912.8
893.8787	1548.4003	7787.6	6895.9
894.0214	1550.1867	7779.25	6888.15
894.1642	1551.9723	7756.35	6871.65
894.3069	1553.7572	7765.9	6883.65
894.4496	1555.5414	7742.45	6858.55
894.5923	1557.3247	7738.85	6856.65
894.735	1559.1074	7737.3	6857.3
894.8777	1560.8893	7728.9	6847.7
895.0204	1562.6705	7723.55	6845.45
895.163	1564.4509	7738.65	6856.95
895.3056	1566.2305	7715.35	6835.95
895.4482	1568.0094	7714	6834.7
895.5908	1569.7876	7709.95	6827.75
895.7334	1571.565	7669.3	6787.8
895.876	1573.3417	7649.4	6768.65
896.0186	1575.1176	7652.25	6773.7
896.1611	1576.8928	7612.4	6729.95
896.3036	1578.6672	7622.7	6744.45
896.4461	1580.4409	7598.3	6718.8
896.5886	1582.2138	7608.4	6724.4
896.7311	1583.986	7623.1	6740.95
896.8736	1585.7575	7624.8	6743.9
897.0161	1587.5282	7645	6764.8
897.1585	1589.2981	7634.7	6756.4
897.3009	1591.0673	7589.85	6708.5
897.4433	1592.8358	7616.95	6739.25
897.5857	1594.6035	7587.25	6705.65
897.7281	1596.3704	7548.25	6666.8
897.8705	1598.1366	7506.75	6625.85
898.0128	1599.9021	7474.6	6595.4
898.1551	1601.6668	7430.5	6547.85
898.2975	1603.4308	7386.4	6505.45
898.4398	1605.194	7375.7	6490
898.5821	1606.9564	7360.25	6481.6
898.7243	1608.7182	7397.6	6514.1
898.8666	1610.4791	7432.15	6556.45
899.0088	1612.2394	7454.85	6577.8
899.1511	1613.9988	7491.75	6611.55
899.2933	1615.7576	7553.8	6676.95
899.4355	1617.5156	7582	6693.85
899.5776	1619.2728	7536.25	6655.75
899.7198	1621.0293	7462.8	6585.3
899.862	1622.785	7369.8	6486.75
900.0041	1624.54	7250.2	6367.65
900.1462	1626.2942	7159.3	6280.1
900.2883	1628.0477	7015.4	6133.9
900.4304	1629.8005	6968.7	6084.65
900.5725	1631.5525	6882.55	6004
900.7145	1633.3037	6863.45	5984.45
900.8566	1635.0542	6814.55	5934.95
900.9986	1636.804	6768.8	5888
901.1406	1638.553	6800.8	5836.35
901.2826	1640.3013	6701.6	5820.8
901.4245	1642.0488	6652.7	5772.55
901.5665	1643.7955	6601.55	5724
901.7085	1645.5416	6582.25	5702.85
901.8504	1647.2868	6549.4	5671.75
901.9923	1649.0313	6529.55	5648.55
902.1342	1650.7751	6541.2	5658.85
902.2761	1652.5181	6494.45	5614.65
902.4179	1654.2604	6490.75	5610.35
902.5598	1656.0019	6480.9	5601.3
902.7016	1657.7427	6457.3	5577.15
902.8434	1659.4828	6447.05	5569.55
902.9852	1661.222	6441.25	5560.75
903.127	1662.9606	6437.1	5557.45
903.2687	1664.6984	6449.05	5568.55
903.4105	1666.4354	6466.65	5587.5
903.5522	1668.1717	6420.65	5540.9
903.6939	1669.9072	6354.25	5472.3
903.8356	1671.642	6314.95	5434.15
903.9773	1673.3761	6260.55	5383.1
904.119	1675.1094	6230.55	5351.55
904.2606	1676.8419	6207.75	5330
904.4022	1678.5737	6152.75	5272.45
904.5439	1680.3048	6125.95	5247.75
904.6855	1682.0351	6113.5	5231.5
904.827	1683.7646	6071.3	5188.05
904.9686	1685.4934	6037.8	5157.2
905.1101	1687.2215	6015.6	5135.35
905.2517	1688.9488	5979.6	5099.75
905.3932	1690.6754	5929	5049
905.5347	1692.4012	5948.3	5067.45
905.6761	1694.1263	5924.85	5045.65
905.8176	1695.8506	5898.7	5019.7
905.9591	1697.5742	5888.95	5009.75
906.1005	1699.297	5858.4	4978.6
906.2419	1701.0191	5814.55	4936
906.3833	1702.7404	5801.25	4921.1
906.5246	1704.461	5765.4	4886.25
906.666	1706.1808	5763.6	4883.3
906.8073	1707.8999	5756.9	4876.45
906.9487	1709.6182	5717.4	4838.35
907.09	1711.3358	5717.65	4837.9
907.2313	1713.0527	5704.1	4827.55
907.3725	1714.7688	5678.6	4795.3
907.5138	1716.4841	5679.6	4798.55
907.655	1718.1987	5659.2	4772.95
907.7962	1719.9126	5635.65	4758.35
907.9374	1721.6257	5627.3	4746.1
908.0786	1723.338	5604.65	4726.1
908.2198	1725.0496	5584.5	4703.6
908.3609	1726.7605	5584.45	4703.45
908.502	1728.4706	5564.4	4684.75
908.6431	1730.18	5568.45	4687.1
908.7842	1731.8886	5540.15	4660.4
908.9253	1733.5964	5540.5	4655.55
909.0664	1735.3036	5523.1	4643.1
909.2074	1737.0099	5507.3	4628.45
909.3484	1738.7156	5501.55	4623
909.4894	1740.4204	5489.85	4605.85
909.6304	1742.1246	5494.8	4615.95
909.7714	1743.8279	5465.9	4586.7
909.9123	1745.5306	5443.4	4563.35
910.0532	1747.2325	5449.05	4569.25
910.1941	1748.9336	5438.75	4560.5
910.335	1750.634	5415.4	4534.2
910.4759	1752.3336	5427.5	4549
910.6168	1754.0325	5431.25	4552.7
910.7576	1755.7307	5400.25	4521.9
910.8984	1757.4281	5411	4532.5
911.0392	1759.1247	5405.05	4517.6
911.18	1760.8206	5395.4	4510.3
911.3208	1762.5158	5401.95	4517.6
911.4615	1764.2102	5382.9	4503.7
911.6022	1765.9039	5375.1	4494.35
911.7429	1767.5968	5365.6	4485.7
911.8836	1769.289	5332.15	4453.35
912.0243	1770.9804	5308.75	4429.5
912.1649	1772.6711	5319.85	4439.25
912.3056	1774.361	5321.45	4442.35
912.4462	1776.0502	5280.05	4399.75
912.5868	1777.7386	5291.8	4411.05
912.7274	1779.4263	5264	4383.3
912.8679	1781.1132	5265.7	4386.3
913.0084	1782.7994	5242.85	4364.35
913.149	1784.4849	5243.75	4363.9
913.2895	1786.1696	5242.55	4345.2
913.4299	1787.8535	5213.35	4333.95
913.5704	1789.5367	5193.45	4315.6
913.7108	1791.2192	5197.75	4319.65
913.8513	1792.9009	5212.7	4302.85
913.9917	1794.5818	5168.45	4288.8
914.132	1796.2621	5161.05	4284.35
914.2724	1797.9415	5156.35	4276.5
914.4128	1799.6202	5144.15	4265.15
914.5531	1801.2982	5118.5	4237.55
914.6934	1802.9755	5121.45	4241.55
914.8337	1804.6519	5113.75	4233.7
914.9739	1806.3277	5090.45	4209.75
915.1142	1808.0027	5079.15	4201.75
915.2544	1809.6769	5081.4	4203.5
915.3946	1811.3504	5056.45	4175.3
915.5348	1813.0231	5051.35	4172.3
915.675	1814.6951	5042.55	4163.85
915.8151	1816.3664	5056.5	4173.95
915.9553	1818.0369	5026.4	4145.8
916.0954	1819.7067	5009.65	4131.9
916.2355	1821.3757	4988.05	4108.15
916.3755	1823.044	5002.45	4122.7
916.5156	1824.7115	4978.6	4098.7
916.6556	1826.3783	4964	4085.85
916.7956	1828.0443	4951.95	4071.75
916.9356	1829.7096	4950.25	4070.2
917.0756	1831.3741	4948.5	4064.85
917.2155	1833.0379	4928.55	4051.05
917.3555	1834.701	4930.15	4051.1
917.4954	1836.3633	4923.85	4044.75
917.6353	1838.0248	4897.6	4015
917.7751	1839.6856	4886.35	4006.65
917.915	1841.3457	4891.95	4012.95
918.0548	1843.005	4873.2	3992.75
918.1946	1844.6636	4869.3	3991.25
918.3344	1846.3214	4864	3985.1
918.4742	1847.9785	4856.8	3979.2
918.6139	1849.6349	4846.3	3966.55
918.7537	1851.2904	4831.7	3943.85
918.8934	1852.9453	4831.35	3950.95
919.0331	1854.5994	4808.8	3927.15
919.1727	1856.2528	4795.05	3908.75
919.3124	1857.9054	4788.5	3907.35
919.452	1859.5572	4791.1	3912.45
919.5916	1861.2083	4780.85	3900.4
919.7312	1862.8587	4778.75	3899.75
919.8708	1864.5084	4767.3	3886.05
920.0103	1866.1572	4750.65	3872.75
920.1498	1867.8054	4740.75	3858.75
920.2893	1869.4528	4735.65	3856.1
920.4288	1871.0994	4725	3845.55
920.5683	1872.7453	4739.65	3858.55
920.7077	1874.3905	4727.05	3839.45
920.8471	1876.0349	4691	3810.8
920.9865	1877.6786	4693.2	3812.05
921.1259	1879.3215	4684.4	3803.85
921.2653	1880.9637	4682.4	3800.55
921.4046	1882.6051	4676.7	3799.1
921.5439	1884.2458	4653.6	3772.35
921.6832	1885.8858	4650.75	3772.35
921.8225	1887.525	4638.05	3755.5
921.9617	1889.1634	4624.6	3744.7
922.101	1890.8011	4611.3	3730.15
922.2402	1892.4381	4612.75	3734.4
922.3794	1894.0743	4599.25	3719.5
922.5185	1895.7098	4592.6	3711.6
922.6577	1897.3446	4596.1	3716.7
922.7968	1898.9786	4583.35	3700.15
922.9359	1900.6118	4558.85	3682.15
923.075	1902.2443	4552.35	3670.15
923.214	1903.8761	4551.55	3671.55
923.3531	1905.5071	4518.45	3637
923.4921	1907.1374	4521.9	3642.05
923.6311	1908.7669	4511.35	3632.3
923.77	1910.3957	4498.35	3620.95
923.909	1912.0237	4478.35	3598.8
924.0479	1913.651	4464.4	3582.15
924.1868	1915.2776	4475.15	3597.4
924.3257	1916.9034	4461.9	3581.55
924.4646	1918.5285	4439.55	3560.15
924.6034	1920.1528	4413.15	3534.25
924.7422	1921.7764	4418.85	3540.65
924.881	1923.3992	4390.6	3512.6
925.0198	1925.0213	4382.9	3504.45
925.1586	1926.6427	4378.35	3501.55
925.2973	1928.2633	4539.45	3448.15
925.436	1929.8832	4385.9	3502.6
925.5747	1931.5023	4364.5	3484.65
925.7134	1933.1207	4329.7	3448.15
925.852	1934.7383	4336.05	3454.9
925.9906	1936.3552	4315	3436.75
926.1292	1937.9714	4326.65	3448.2
926.2678	1939.5868	4297.4	3417.25
926.4064	1941.2015	4270.9	3390.25
926.5449	1942.8154	4253.5	3374.4
926.6834	1944.4286	4267.85	3387.95
926.8219	1946.041	4249.7	3348
926.9604	1947.6528	4234.95	3350.9
927.0988	1949.2637	4222.45	3342.65
927.2372	1950.8739	4216.7	3336.3
927.3756	1952.4834	4189.9	3309.5
927.514	1954.0921	4193.8	3315
927.6523	1955.7001	4208.1	3325.4
927.7907	1957.3074	4169.55	3292.2
927.929	1958.9139	4174	3295.4
928.0673	1960.5197	4169.35	3290
928.2055	1962.1247	4138.1	3257.8
928.3438	1963.729	4132.55	3253.65
928.482	1965.3325	4144.5	3241.5
928.6202	1966.9353	4126.15	3248.3
928.7584	1968.5374	4110.75	3230.5
928.8965	1970.1387	4093.8	3214.25
929.0346	1971.7393	4082.45	3203.95
929.1727	1973.3392	4066.85	3188.55
929.3108	1974.9383	4075.25	3198.8
929.4489	1976.5366	4056.35	3177.35
929.5869	1978.1342	4045.6	3166.15
929.7249	1979.7311	4051.65	3173.25
929.8629	1981.3273	4036.3	3157.95
930.0009	1982.9227	4017.5	3136.55
930.1388	1984.5173	4008.75	3130.15
930.2767	1986.1112	4016.4	3138.85
930.4146	1987.7044	4015.3	3137.3
930.5525	1989.2968	3989.55	3109.5
930.6904	1990.8885	3981.15	3101.2
930.8282	1992.4795	3990.7	3111.1
930.966	1994.0697	3971.55	3094.2
931.1038	1995.6592	3966.55	3089.95
931.2415	1997.2479	3954.1	3074.6
931.3793	1998.8359	3958.1	3080.95
931.517	2000.4232	3940.25	3063.95
931.6547	2002.0097	3933.6	3058.3
931.7923	2003.5955	3912.85	3032.95
931.93	2005.1805	3921	3042.05
932.0676	2006.7648	3911.6	3035.5
932.2052	2008.3484	3907.15	3029.75
932.3427	2009.9312	3907.75	3028.35
932.4803	2011.5133	3896.8	3022.15
932.6178	2013.0946	3885.3	3008.6
932.7553	2014.6752	3870.35	2994.1
932.8928	2016.2551	3868.75	2991.4
933.0302	2017.8342	3869	2992
933.1676	2019.4126	3843.6	2966.6
933.305	2020.9902	3836.75	2960.1
933.4424	2022.5672	3845.75	2965.5
933.5798	2024.1433	3851.7	2969.55
933.7171	2025.7188	3827.55	2952.7
933.8544	2027.2935	3807.55	2930.85
933.9917	2028.8674	3811.5	2937.2
934.129	2030.4406	3792	2916.35
934.2662	2032.0131	3779.2	2903.9
934.4034	2033.5849	3784.9	2903.25
934.5406	2035.1559	3777.7	2900.3
934.6778	2036.7261	3778.5	2902.4
934.8149	2038.2957	3777.7	2902
934.952	2039.8645	3769.05	2891.85
935.0891	2041.4325	3761.95	2881.8
935.2262	2042.9998	3757	2880.1
935.3632	2044.5664	3757.05	2879.9
935.5002	2046.1323	3745.6	2867.35
935.6372	2047.6974	3752.1	2874.65
935.7742	2049.2617	3739.8	2862.7
935.9111	2050.8254	3737.2	2856.3
936.048	2052.3883	3728.65	2852.1
936.1849	2053.9504	3725.7	2850.1
936.3218	2055.5118	3711.7	2833.95
936.4586	2057.0725	3696.15	2816
936.5955	2058.6325	3696.95	2819.8
936.7323	2060.1917	3696.05	2820.85
936.869	2061.7502	3690	2809.5
937.0058	2063.3079	3671.7	2796.85
937.1425	2064.8649	3666.05	2787
937.2792	2066.4212	3664.95	2785.9
937.4159	2067.9767	3665.1	2789.45
937.5525	2069.5315	3648.25	2770.75
937.6891	2071.0856	3638.05	2760.75
937.8257	2072.6389	3635	2757.65
937.9623	2074.1915	3627.6	2751.95
938.0989	2075.7433	3612.4	2735.65
938.2354	2077.2945	3628.8	2752.8
938.3719	2078.8448	3610.05	2731.2
938.5084	2080.3945	3596.6	2720.75
938.6448	2081.9434	3592.65	2715.75
938.7812	2083.4916	3589.15	2710.85
938.9176	2085.039	3582.2	2703.3
939.054	2086.5857	3578.8	2698.75
939.1903	2088.1317	3570.8	2692.8
939.3267	2089.677	3570.9	2694.1
939.463	2091.2215	3559.5	2680.6
939.5992	2092.7652	3562.85	2683.5
939.7355	2094.3083	3544.55	2664.6
939.8717	2095.8506	3541.4	2666.8
940.0079	2097.3921	3546.35	2668.85
940.1441	2098.933	3537.6	2660.85
940.2802	2100.4731	3534.4	2658.15
940.4163	2102.0124	3550.25	2654.4
940.5524	2103.5511	3533.35	2655.5
940.6885	2105.089	3536.5	2658.25
940.8245	2106.6261	3536.35	2657.25
940.9606	2108.1626	3519.9	2640.8
941.0965	2109.6983	3539.2	2634.15
941.2325	2111.2332	3518	2639.65
941.3684	2112.7675	3519.65	2641.1
941.5044	2114.301	3488.45	2609.6
941.6403	2115.8337	3500.8	2625.3
941.7761	2117.3657	3485.3	2609.2
941.912	2118.897	3480.9	2604.05
942.0478	2120.4276	3483.4	2599.65
942.1835	2121.9575	3452.85	2576.1
942.3193	2123.4866	3473.55	2594.15
942.455	2125.0149	3464.3	2584.4
942.5907	2126.5426	3449.1	2573
942.7264	2128.0695	3450.1	2569.4
942.8621	2129.5956	3437.4	2562.4
942.9977	2131.1211	3439.8	2560.35
943.1333	2132.6458	3438.45	2562.9
943.2689	2134.1698	3432.1	2554.7
943.4044	2135.693	3434.65	2555.3
943.54	2137.2155	3429.5	2549.3
943.6755	2138.7373	3423.85	2548.45
943.8109	2140.2584	3412.3	2534.35
943.9464	2141.7787	3386.4	2504.8
944.0818	2143.2983	3392.6	2518.45
944.2172	2144.8171	3373.85	2498.9
944.3526	2146.3353	3372.55	2495.05
944.4879	2147.8527	3384.65	2508.2
944.6232	2149.3693	3369.25	2491.5
944.7585	2150.8853	3355.7	2476.55
944.8938	2152.4005	3339.4	2461.25
945.029	2153.9149	3342.15	2463.75
945.1642	2155.4287	3342.95	2466.2
945.2994	2156.9417	3336.65	2459.5
945.4346	2158.454	3324.5	2445.85
945.5697	2159.9655	3321.55	2446.4
945.7048	2161.4764	3320.65	2443.8
945.8399	2162.9865	3311.3	2433.05
945.9749	2164.4958	3310.05	2433.85
946.1099	2166.0045	3312.65	2433.4
946.2449	2167.5124	3305.75	2429.05
946.3799	2169.0195	3292.85	2416.4
946.5148	2170.526	3298.9	2421.25
946.6498	2172.0317	3274.4	2397.65
946.7846	2173.5367	3273.1	2394.45
946.9195	2175.0409	3274.1	2397.5
947.0543	2176.5445	3267.5	2390.5
947.1891	2178.0473	3264.35	2386.85
947.3239	2179.5494	3250.05	2369.35
947.4587	2181.0507	3247.5	2372
947.5934	2182.5513	3236.1	2358.8
947.7281	2184.0512	3233.7	2356.55
947.8628	2185.5504	3223.3	2347
947.9974	2187.0488	3214.2	2337.45
948.132	2188.5465	3203.85	2327.6
948.2666	2190.0435	3198.8	2323.05
948.4012	2191.5397	3191.3	2315.2
948.5357	2193.0353	3185.4	2308.45
948.6702	2194.5301	3175.2	2295.3
948.8047	2196.0241	3173.55	2295.05
948.9392	2197.5175	3153.25	2274.8
949.0736	2199.0101	3160.95	2279.2
949.208	2200.502	3145.65	2270.2
949.3424	2201.9931	3138.3	2261.65
949.4767	2203.4835	3145.6	2266.55
949.611	2204.9733	3127.2	2245.85
949.7453	2206.4622	3121.3	2245.05
949.8796	2207.9505	3118.05	2238.5
950.0138	2209.438	3111.7	2236.85
950.148	2210.9248	3100.55	2223.25
950.2822	2212.4109	3096.05	2219.35
950.4164	2213.8962	3093.95	2213.9
950.5505	2215.3809	3085.95	2208.95
950.6846	2216.8648	3085.85	2208.25
950.8186	2218.3479	3074.55	2191.2
950.9527	2219.8304	3069.2	2188.05
951.0867	2221.3121	3057.6	2177.45
951.2207	2222.7931	3050.1	2172.45
951.3546	2224.2733	3041.95	2164.15
951.4886	2225.7529	3023.25	2146.25
951.6225	2227.2317	3035.3	2153.95
951.7563	2228.7098	3029.45	2152.7
951.8902	2230.1872	3019.95	2143.05
952.024	2231.6638	3022.6	2146.45
952.1578	2233.1397	3001.65	2117.9
952.2916	2234.6149	2997.15	2121.75
952.4253	2236.0894	2986.6	2108.35
952.559	2237.5632	2991.35	2104.65
952.6927	2239.0362	2971.05	2091.5
952.8263	2240.5085	2973.9	2096.5
952.9599	2241.9801	2968.6	2091.2
953.0935	2243.4509	2942.45	2066.45
953.2271	2244.921	2950.35	2072
953.3606	2246.3904	2937	2058
953.4941	2247.8591	2941.7	2065.7
953.6276	2249.3271	2920.7	2044.6
953.7611	2250.7943	2913.25	2036.35
953.8945	2252.2608	2912.2	2035.2
954.0279	2253.7266	2910.7	2033.4
954.1612	2255.1917	2904.65	2026.05
954.2946	2256.656	2902.25	2024.55
954.4279	2258.1197	2892.1	2015.7
954.5612	2259.5826	2881	2002.05
954.6944	2261.0447	2887.2	2009.15
954.8276	2262.5062	2871.35	1994.45
954.9608	2263.9669	2871.35	1991.45
955.094	2265.4269	2866.8	1989.75
955.2271	2266.8862	2855.75	1978
955.3602	2268.3448	2850.1	1973.6
955.4933	2269.8026	2863.75	1985.25
955.6264	2271.2598	2843.75	1968.1
955.7594	2272.7162	2830.1	1953.95
955.8924	2274.1719	2824.25	1946.15
956.0253	2275.6268	2819.5	1941.05
956.1583	2277.0811	2821.35	1942.6
956.2912	2278.5346	2819.2	1941.8
956.4241	2279.9874	2809.9	1934.3
956.5569	2281.4395	2796.45	1919.85
956.6897	2282.8908	2802.05	1919.55
956.8225	2284.3414	2802.05	1924.25
956.9553	2285.7914	2794.4	1918.95
957.088	2287.2406	2782.7	1904.45
957.2207	2288.689	2786.6	1908.2
957.3534	2290.1368	2758.55	1878.35
957.486	2291.5838	2756.95	1876.15
957.6186	2293.0302	2756.95	1877.6
957.7512	2294.4758	2755.05	1878.15
957.8838	2295.9206	2748.35	1867.7
958.0163	2297.3648	2756.25	1878.5
958.1488	2298.8082	2737	1856.6
958.2813	2300.251	2732.2	1853.9
958.4137	2301.693	2729.85	1849.8
958.5461	2303.1343	2710.5	1833.25
958.6785	2304.5748	2708.55	1830.6
958.8108	2306.0147	2704.6	1826
958.9432	2307.4538	2696.65	1817.4
959.0754	2308.8922	2699.3	1823.45
959.2077	2310.3299	2694.4	1817.6
959.3399	2311.7669	2688.1	1810.85
959.4721	2313.2031	2689.85	1812.25
959.6043	2314.6387	2680.45	1803.55
959.7365	2316.0735	2669.35	1792.3
959.8686	2317.5076	2660	1780.05
960.0006	2318.941	2658.5	1781.7
960.1327	2320.3737	2656	1777.2
960.2647	2321.8056	2652.75	1771.55
960.3967	2323.2369	2654.15	1776.1
960.5287	2324.6674	2645.65	1765.85
960.6606	2326.0972	2645.75	1767.3
960.7925	2327.5263	2640.45	1762.6
960.9244	2328.9547	2620.1	1742.5
961.0562	2330.3823	2624.95	1745.2
961.1881	2331.8092	2631.5	1751.1
961.3198	2333.2355	2612.8	1735.65
961.4516	2334.661	2608.15	1727.75
961.5833	2336.0858	2600	1723
961.715	2337.5098	2588.7	1710.95
961.8467	2338.9332	2589.1	1711.65
961.9783	2340.3558	2576.1	1693.5
962.1099	2341.7778	2578.5	1701.65
962.2415	2343.199	2567.65	1688.1
962.373	2344.6195	2557.45	1679.3
962.5045	2346.0393	2556.6	1678.9
962.636	2347.4583	2562.1	1683.5
962.7675	2348.8767	2544.95	1666.55
962.8989	2350.2943	2543.1	1662.7
963.0303	2351.7113	2536	1656.55
963.1617	2353.1275	2541.95	1663.7
963.293	2354.543	2532.45	1645.4
963.4243	2355.9578	2533.6	1654.65
963.5556	2357.3718	2513.8	1636.35
963.6868	2358.7852	2515.95	1635.3
963.818	2360.1978	2505.85	1626.45
963.9492	2361.6098	2501.95	1625.9
964.0803	2363.021	2498.25	1616.3
964.2114	2364.4315	2488.15	1610.05
964.3425	2365.8413	2476.35	1598.4
964.4736	2367.2504	2467.3	1590.95
964.6046	2368.6587	2464.05	1587.2
964.7356	2370.0664	2455.7	1578.6
964.8666	2371.4733	2471.1	1592.75
964.9975	2372.8795	2451.2	1573.4
965.1284	2374.285	2441.1	1562.4
965.2593	2375.6899	2439.6	1563.9
965.3901	2377.0939	2417.45	1539
965.5209	2378.4973	2421.35	1545.6
965.6517	2379.9	2420.8	1540.85
965.7825	2381.3019	2411.3	1531.95
965.9132	2382.7032	2396	1517.25
966.0439	2384.1037	2386.55	1508.65
966.1745	2385.5035	2391	1511.6
966.3051	2386.9027	2394.45	1516.5
966.4357	2388.3011	2383.35	1502.15
966.5663	2389.6987	2375.5	1497.4
966.6968	2391.0957	2379.1	1500.45
966.8273	2392.492	2373.6	1499.25
966.9578	2393.8876	2355	1475.7
967.0882	2395.2824	2348	1469.9
967.2186	2396.6765	2346.05	1468.25
967.349	2398.07	2351.8	1472.9
967.4793	2399.4627	2346.1	1466.7
967.6097	2400.8547	2331.65	1452.7
967.7399	2402.246	2329	1444.2
967.8702	2403.6366	2315.05	1437.1
968.0004	2405.0265	2310	1431.5
968.1306	2406.4156	2308.65	1427.55
968.2607	2407.8041	2300.45	1416.95
968.3909	2409.1918	2295.7	1413.45
968.521	2410.5789	2280.75	1402.3
968.651	2411.9652	2287.85	1404.65
968.781	2413.3508	2271.7	1395.4
968.911	2414.7358	2259.05	1379.6
969.041	2416.12	2261.05	1382.3
969.1709	2417.5035	2275.75	1397.9
969.3008	2418.8863	2258.95	1379.6
969.4307	2420.2684	2249.35	1372.15
969.5606	2421.6497	2239.9	1361.7
969.6904	2423.0304	2231.9	1354.4
969.8201	2424.4104	2227.95	1350.85
969.9499	2425.7896	2221.55	1341.85
970.0796	2427.1682	2231.35	1353.2
970.2093	2428.546	2224.65	1344.6
970.3389	2429.9232	2213.95	1333.7
970.4685	2431.2996	2219.65	1342
970.5981	2432.6753	2212.35	1333.1
970.7277	2434.0503	2190.85	1310.85
970.8572	2435.4246	2198.15	1321.6
970.9867	2436.7982	2189.85	1309.55
971.1161	2438.1711	2177.15	1298.6
971.2456	2439.5433	2188.55	1308.1
971.375	2440.9148	2186.8	1302.75
971.5043	2442.2856	2176.95	1300.45
971.6336	2443.6557	2162.85	1282.1
971.7629	2445.025	2167.6	1288.55
971.8922	2446.3937	2160.8	1284.05
972.0214	2447.7617	2153.3	1275.05
972.1506	2449.1289	2150.7	1271.9
972.2798	2450.4955	2150.45	1268.95
972.4089	2451.8613	2148.4	1271.2
972.538	2453.2265	2140.95	1262.05
972.6671	2454.5909	2141.2	1262.25
972.7961	2455.9546	2130.75	1254.4
972.9251	2457.3177	2124.9	1247.45
973.0541	2458.68	2125	1245.3
973.1831	2460.0416	2120.1	1242.45
973.312	2461.4025	2121.35	1242.2
973.4408	2462.7627	2125.75	1237.3
973.5697	2464.1222	2096.55	1218.9
973.6985	2465.4811	2109.05	1230.45
973.8273	2466.8392	2096.8	1216.95
973.956	2468.1966	2097.1	1215.6
974.0847	2469.5533	2100.45	1218.95
974.2134	2470.9093	2089.05	1210.15
974.3421	2472.2645	2084.65	1203.55
974.4707	2473.6191	2082.75	1202.9
974.5993	2474.973	2078.1	1200.35
974.7278	2476.3262	2078.75	1197.4
974.8563	2477.6787	2068.8	1189.65
974.9848	2479.0305	2056.8	1178.4
975.1132	2480.3816	2057.45	1177.15
975.2417	2481.7319	2063.9	1186
975.37	2483.0816	2051.2	1169.15
975.4984	2484.4306	2054.1	1175.7
975.6267	2485.7789	2045.05	1167.9
975.755	2487.1264	2038.9	1159.05
975.8833	2488.4733	2034.85	1154.9
976.0115	2489.8195	2032.45	1147.8
976.1397	2491.165	2021	1140.7
976.2678	2492.5097	2022	1142.7
976.3959	2493.8538	2014.45	1137.05
976.524	2495.1972	2004.5	1123.3
976.6521	2496.5398	1996.55	1117.6
976.7801	2497.8818	2008.7	1127.55
976.9081	2499.2231	1990.9	1112.65
977.036	2500.5637	1989.5	1111.15
977.164	2501.9035	2003.55	1123
977.2918	2503.2427	1994.1	1113
977.4197	2504.5812	1988.6	1109.2
977.5475	2505.919	1978.95	1097.7
977.6753	2507.256	1974.4	1094.75
977.8031	2508.5924	1971.6	1092.35
977.9308	2509.9281	1963.8	1078.6
978.0585	2511.2631	1965.05	1087.6
978.1861	2512.5974	1959.55	1081.4
978.3137	2513.9309	1956.35	1077.7
978.4413	2515.2638	1980.5	1074.7
978.5689	2516.596	1950.15	1070.85
978.6964	2517.9275	1936.85	1058.9
978.8239	2519.2583	1943.7	1063.55
978.9513	2520.5884	1935.8	1057
979.0788	2521.9178	1927.65	1050.1
979.2062	2523.2465	1926	1048.2
979.3335	2524.5745	1912.05	1035
979.4608	2525.9018	1922.1	1044.25
979.5881	2527.2284	1916.6	1040.85
979.7154	2528.5543	1917.35	1041.6
979.8426	2529.8796	1914.6	1036.15
979.9698	2531.2041	1899.9	1022.3
980.0969	2532.5279	1901.95	1024.5
980.224	2533.851	1895.7	1016.5
980.3511	2535.1735	1898.25	1018.45
980.4781	2536.4952	1885.7	1007.55
980.6052	2537.8163	1893.2	1013.55
980.7321	2539.1366	1891.05	1013.7
980.8591	2540.4562	1885.3	1006.2
980.986	2541.7752	1877.9	999.5
981.1129	2543.0935	1879.05	1001.9
981.2397	2544.411	1880.9	1001.45
981.3665	2545.7279	1872.2	992.7
981.4933	2547.0441	1867.7	990.1
981.62	2548.3596	1882.8	1001.95
981.7467	2549.6744	1863.9	987.05
981.8734	2550.9885	1860.6	975.65
982.0001	2552.3019	1856.45	979.8
982.1267	2553.6146	1857.8	979.2
982.2532	2554.9266	1847.65	970
982.3798	2556.2379	1843.8	963.45
982.5063	2557.5485	1853.05	976.25
982.6327	2558.8585	1851.95	964.35
982.7592	2560.1677	1846.25	963.6
982.8856	2561.4762	1835.6	958.55
983.0119	2562.7841	1838.4	955.3
983.1383	2564.0913	1828.35	952.85
983.2646	2565.3977	1823.45	942.45
983.3908	2566.7035	1827.5	948.95
983.517	2568.0086	1828.8	948.3
983.6432	2569.313	1822.3	942.25
983.7694	2570.6167	1826.45	944.6
983.8955	2571.9197	1817.95	939.95
984.0216	2573.222	1824.05	942.6
984.1476	2574.5236	1817.1	937.6
984.2737	2575.8246	1817.15	935.9
984.3996	2577.1248	1809.55	928.95
984.5256	2578.4244	1803.35	925.05
984.6515	2579.7232	1806.3	927.3
984.7774	2581.0214	1826.3	923.35
984.9032	2582.3189	1800.25	923.55
985.029	2583.6157	1790.9	908.75
985.1548	2584.9118	1797.75	918.65
985.2806	2586.2072	1790.5	914.8
985.4063	2587.5019	1785.45	906.95
985.5319	2588.7959	1781.8	901.3
985.6576	2590.0893	1787.15	906.3
985.7832	2591.3819	1772.7	894.45
985.9087	2592.6739	1769.9	890.85
986.0343	2593.9652	1758.1	877.25
986.1597	2595.2557	1765.3	885.95
986.2852	2596.5456	1772.65	892.35
986.4106	2597.8348	1757.4	879.35
986.536	2599.1234	1756.05	879.55
986.6614	2600.4112	1758	879.7
986.7867	2601.6983	1756.8	875.75
986.912	2602.9848	1745.45	867.8
987.0372	2604.2705	1743.55	859.8
987.1624	2605.5556	1740.05	861.05
987.2876	2606.84	1733.65	854.75
987.4128	2608.1237	1735.2	856.2
987.5379	2609.4067	1727.15	848.65
987.6629	2610.689	1728.25	841.7
987.788	2611.9707	1727.5	846.85
987.913	2613.2516	1719.55	838.05
988.0379	2614.5319	1714.7	838.8
988.1629	2615.8115	1709.2	829.15
988.2878	2617.0903	1705.3	824.85
988.4126	2618.3685	1697.65	817.5
988.5375	2619.6461	1698.95	821.45
988.6622	2620.9229	1688.3	808.7
988.787	2622.199	1688.75	809.15
988.9117	2623.4745	1685.5	805.95
989.0364	2624.7493	1679.6	801.2
989.161	2626.0234	1681.9	804.8
989.2857	2627.2968	1669.3	788.95
989.4102	2628.5695	1678.75	799.2
989.5348	2629.8415	1676.25	799.85
989.6593	2631.1128	1666.2	787
989.7837	2632.3835	1665.1	786.85
989.9082	2633.6535	1658.7	779.7
990.0326	2634.9228	1652.35	774
990.1569	2636.1914	1653.1	775.65
990.2812	2637.4593	1647.8	764.2
990.4055	2638.7265	1643.75	763.75
990.5298	2639.9931	1641.55	763.6
990.654	2641.259	1639.05	759.4
990.7782	2642.5242	1643.95	764.7
990.9023	2643.7887	1639	760.5
991.0264	2645.0525	1630.4	752
991.1505	2646.3156	1631.4	751.6
991.2745	2647.5781	1622.6	745.95
991.3985	2648.8398	1629.6	752.8
991.5225	2650.1009	1634.05	746.2
991.6464	2651.3613	1623.85	743.4
991.7703	2652.6211	1618.4	738.55
991.8942	2653.8801	1612.7	736.85
992.018	2655.1385	1614.05	732.6
992.1418	2656.3961	1610.95	733.4
992.2655	2657.6531	1612.1	735.8
992.3892	2658.9094	1602.15	725.2
992.5129	2660.1651	1597.85	722.25
992.6366	2661.42	1608.3	731.3
992.7602	2662.6743	1599.25	719.3
992.8837	2663.9279	1601.7	722.1
993.0073	2665.1808	1590.95	710.5
993.1307	2666.433	1591.6	712.2
993.2542	2667.6846	1595.55	717.3
993.3776	2668.9354	1586.55	705.6
993.501	2670.1856	1585.2	704.7
993.6244	2671.4351	1579.55	702.65
993.7477	2672.6839	1582.35	703.3
993.8709	2673.9321	1575.45	699.05
993.9942	2675.1795	1566.95	688.4
994.1174	2676.4263	1560.05	682.6
994.2405	2677.6724	1569.95	692.35
994.3637	2678.9179	1567.5	685.65
994.4868	2680.1626	1567.2	690.65
994.6098	2681.4067	1554.35	675
994.7328	2682.6501	1553.65	676.3
994.8558	2683.8928	1548.3	671
994.9788	2685.1348	1557.05	678.3
995.1017	2686.3761	1544.3	667.85
995.2245	2687.6168	1539.15	663.45
995.3474	2688.8568	1545.7	667.4
995.4702	2690.0961	1538.5	661.15
995.5929	2691.3348	1542.3	662.85
995.7156	2692.5727	1533	656
995.8383	2693.81	1532.05	655.9
995.961	2695.0466	1532.35	656.1
996.0836	2696.2826	1523.95	644.05
996.2062	2697.5178	1541.15	645.55
996.3287	2698.7524	1525.85	648.1
996.4512	2699.9863	1523.6	644.8
996.5737	2701.2195	1514.25	638.6
996.6961	2702.452	1517.7	640.5
996.8185	2703.6839	1513.85	634.3
996.9408	2704.9151	1513.5	637.05
997.0631	2706.1456	1513.55	637.25
997.1854	2707.3755	1503.1	624.7
997.3077	2708.6046	1506.15	625.7
997.4299	2709.8331	1496.7	618.15
997.552	2711.0609	1499.5	623
997.6742	2712.2881	1504.55	626.65
997.7963	2713.5145	1494.6	612.7
997.9183	2714.7403	1499.2	623.05
998.0403	2715.9654	1494.1	616.4
998.1623	2717.1899	1500.8	609.4
998.2842	2718.4136	1486.55	609.65
998.4062	2719.6367	1481.45	602.85
998.528	2720.8591	1487.95	603.7
998.6498	2722.0809	1481.1	602
998.7716	2723.3019	1486.65	605.65
998.8934	2724.5223	1482.65	605.45
999.0151	2725.7421	1473.9	594.95
999.1368	2726.9611	1472.05	591.2
999.2584	2728.1795	1472.95	588.85
999.38	2729.3972	1470.85	593.7
999.5016	2730.6142	1470.6	581.35
999.6231	2731.8306	1458.25	578.3
999.7446	2733.0462	1455.55	573.6
999.8661	2734.2612	1457.3	572.45
999.9875	2735.4756	1452.05	571.4
1000.1089	2736.6892	1439.05	560
1000.2302	2737.9022	1443.35	565.75
1000.3515	2739.1145	1440.25	561.8
1000.4728	2740.3262	1449.05	565.9
1000.594	2741.5372	1430.6	553.85
1000.7152	2742.7475	1426.7	548.55
1000.8363	2743.9571	1430.65	551.45
1000.9575	2745.1661	1434.75	551.05
1001.0785	2746.3744	1423.8	545.15
1001.1996	2747.582	1428.8	550.2
1001.3206	2748.7889	1422.15	541.95
1001.4415	2749.9952	1413.7	536.8
1001.5625	2751.2008	1421.95	544.1
1001.6833	2752.4057	1419.35	540.5
1001.8042	2753.61	1417.05	539.35
1001.925	2754.8136	1404.05	524.05
1002.0458	2756.0165	1403	525.6
1002.1665	2757.2188	1404.15	527.05
1002.2872	2758.4204	1403.05	523.65
1002.4078	2759.6213	1394.65	515.05
1002.5285	2760.8215	1404.05	523.65
1002.649	2762.0211	1396.6	516.7
1002.7696	2763.22	1395.5	514
1002.8901	2764.4182	1390.2	512
1003.0106	2765.6158	1389.35	510.05
1003.131	2766.8127	1387.3	510.8
1003.2514	2768.009	1381.7	503.25
1003.3717	2769.2045	1380.15	503.2
1003.492	2770.3994	1373.35	493.8
1003.6123	2771.5936	1375.9	496.85
1003.7325	2772.7872	1376.05	498.45
1003.8527	2773.9801	1373.5	493.45
1003.9729	2775.1723	1392	496.25
1004.093	2776.3639	1365.25	490
1004.2131	2777.5548	1367.1	488.25
1004.3331	2778.745	1370.3	490.25
1004.4531	2779.9346	1366.15	489
1004.5731	2781.1235	1358.85	480
1004.693	2782.3117	1356.15	479.3
1004.8129	2783.4992	1362.6	485.15
1004.9328	2784.6861	1360.2	481.55
1005.0526	2785.8723	1360.1	483.95
1005.1723	2787.0579	1350.7	471.65
1005.2921	2788.2428	1354.65	477.35
1005.4118	2789.427	1347.45	471.1
1005.5314	2790.6106	1345.3	467.85
1005.651	2791.7935	1346.8	468.3
1005.7706	2792.9757	1332.25	456.2
1005.8902	2794.1573	1339.25	461.45
1006.0097	2795.3382	1342.7	464.5
1006.1291	2796.5184	1331.6	455.55
1006.2485	2797.698	1334.55	455.65
1006.3679	2798.8769	1331.05	454.5
1006.4873	2800.0551	1327.7	450.8
1006.6066	2801.2327	1325.1	445.85
1006.7258	2802.4096	1323.4	446.8
1006.8451	2803.5859	1320.95	442.75
1006.9642	2804.7615	1322.5	443.1
1007.0834	2805.9364	1317.45	440.7
1007.2025	2807.1106	1321.95	444.95
1007.3216	2808.2842	1323.05	446.75
1007.4406	2809.4572	1315.35	436.75
1007.5596	2810.6294	1322.3	444.6
1007.6785	2811.801	1319.2	442.6
1007.7975	2812.972	1308.5	433.05
1007.9163	2814.1423	1314.8	438.6
1008.0352	2815.3119	1313.5	436.45
1008.154	2816.4808	1321.65	444.65
1008.2727	2817.6491	1316.8	439.15
1008.3914	2818.8167	1313.35	437.3
1008.5101	2819.9837	1324.75	442.3
1008.6288	2821.15	1322.1	445.55
1008.7474	2822.3157	1328.1	450
1008.8659	2823.4807	1327.3	449.9
1008.9844	2824.645	1339.1	461.7
1009.1029	2825.8086	1335.05	457.2
1009.2214	2826.9716	1350.05	474.95
1009.3398	2828.134	1343.15	464.2
1009.4581	2829.2957	1356.3	479.7
1009.5764	2830.4567	1355.6	479.2
1009.6947	2831.617	1358.45	482.45
1009.813	2832.7767	1356.5	479.7
1009.9312	2833.9358	1353.85	477.7
1010.0493	2835.0941	1365	489
1010.1675	2836.2519	1347.8	470.1
1010.2855	2837.4089	1343.4	466.25
1010.4036	2838.5653	1341.95	464.95
1010.5216	2839.7211	1339.8	463.15
1010.6396	2840.8761	1333.1	454.35
1010.7575	2842.0306	1330.5	454.9
1010.8754	2843.1843	1330.35	454.3
1010.9932	2844.3374	1331.7	452.6
1011.111	2845.4899	1333.75	458.2
1011.2288	2846.6417	1328.7	452.7
1011.3465	2847.7928	1336.5	459.45
1011.4642	2848.9433	1330.3	453.6
1011.5818	2850.0931	1328.85	451.7
1011.6995	2851.2422	1338.4	458.9
1011.817	2852.3907	1332.6	453.8
1011.9345	2853.5385	1335.75	456.35
1012.052	2854.6857	1343.65	457
1012.1695	2855.8323	1329.9	454
1012.2869	2856.9781	1331.85	454
1012.4042	2858.1233	1334.65	457.95
1012.5216	2859.2679	1335.9	460.35
1012.6389	2860.4118	1339.75	463.9
1012.7561	2861.555	1348.65	468.25
1012.8733	2862.6976	1342.1	462.7
1012.9905	2863.8395	1336.65	460.7
1013.1076	2864.9808	1339.6	464.8
1013.2247	2866.1214	1342.35	466.1
1013.3417	2867.2614	1340.2	461.65
1013.4587	2868.4007	1338.05	460.8
1013.5757	2869.5393	1343.55	463.75
1013.6926	2870.6773	1342.6	462.4
1013.8095	2871.8146	1341.55	461.1
1013.9263	2872.9513	1338.9	459.1
1014.0431	2874.0874	1342.35	466.45
1014.1599	2875.2227	1336.65	459.45
1014.2766	2876.3574	1338.3	459.95
1014.3933	2877.4915	1335	458.85
1014.51	2878.6249	1330.45	453.6
1014.6266	2879.7577	1342.7	467.25
1014.7431	2880.8898	1353.6	464.7
1014.8596	2882.0212	1327.95	451.1
1014.9761	2883.152	1337.85	459.6
1015.0925	2884.2821	1332.1	457.6
1015.2089	2885.4116	1338.85	462.15
1015.3253	2886.5405	1329.15	452.5
1015.4416	2887.6686	1339.7	458.3
1015.5579	2888.7962	1327.6	451.8
1015.6741	2889.923	1336.75	460.2
1015.7903	2891.0493	1330.8	453.05
1015.9065	2892.1748	1327.1	449.6
1016.0226	2893.2997	1327.55	451.9
1016.1387	2894.424	1325.9	451.8
1016.2547	2895.5476	1327.8	451.9
1016.3707	2896.6706	1327.35	450.95
1016.4866	2897.7929	1319.85	442.3
1016.6025	2898.9145	1317.2	441.1
1016.7184	2900.0355	1322.85	444.45
1016.8342	2901.1559	1319.3	441.6
1016.95	2902.2756	1314.05	437.6
1017.0658	2903.3946	1318	440.2
1017.1815	2904.513	1316.15	438.75
1017.2971	2905.6308	1311.65	435.45
1017.4127	2906.7479	1310.2	432.9
1017.5283	2907.8643	1308.3	430.65
1017.6439	2908.9801	1307.3	433.25
1017.7594	2910.0953	1306.75	429.2
1017.8748	2911.2098	1304.5	424.4
1017.9902	2912.3236	1310.15	426.05
1018.1056	2913.4368	1304.65	424.2
1018.2209	2914.5494	1296.3	419.6
1018.3362	2915.6613	1302.3	420
1018.4515	2916.7725	1292.2	415
1018.5667	2917.8831	1293.05	415
1018.6819	2918.9931	1291.25	412.45
1018.797	2920.1024	1287.85	408.4
1018.9121	2921.211	1279.7	404.85
1019.0271	2922.319	1280.65	403.1
1019.1421	2923.4264	1272.05	394.6
1019.2571	2924.5331	1272.85	396.15
1019.372	2925.6391	1275.55	398.5
1019.4869	2926.7445	1270.7	395.55
1019.6017	2927.8493	1269.8	393.15
1019.7165	2928.9534	1268.55	393.1
1019.8313	2930.0569	1271.5	391.3
1019.946	2931.1597	1273.15	394.75
1020.0606	2932.2619	1272.8	396.6
1020.1753	2933.3634	1270.6	393.05
1020.2899	2934.4643	1276.6	394.2
1020.4044	2935.5645	1277.4	394.75
1020.5189	2936.6641	1278.95	396.7
1020.6334	2937.763	1270.3	393.75
1020.7478	2938.8613	1276.15	398.15
1020.8622	2939.959	1270.6	388.55
1020.9765	2941.056	1262.8	387.1
1021.0908	2942.1523	1257.85	379
1021.2051	2943.248	1250.95	374.9
1021.3193	2944.3431	1240.45	364.95
1021.4334	2945.4375	1236.75	359.3
1021.5476	2946.5313	1226.2	347.8
1021.6617	2947.6244	1225.9	348.65
1021.7757	2948.7169	1212.2	334.4
1021.8897	2949.8087	1206.95	330.15
1022.0037	2950.8999	1204.7	327.4
1022.1176	2951.9904	1196.15	320.6
1022.2315	2953.0803	1190.15	312.7
1022.3453	2954.1696	1180.5	301.6
1022.4591	2955.2582	1185.65	309.15
1022.5728	2956.3462	1175.25	296.65
1022.6865	2957.4335	1172.15	293.9
1022.8002	2958.5202	1175.9	297.55
1022.9138	2959.6062	1174.55	299
1023.0274	2960.6916	1175.2	299.8
1023.141	2961.7764	1162.2	286.35
1023.2545	2962.8605	1169.6	292.45
1023.3679	2963.9439	1168.4	293.5
1023.4813	2965.0267	1162.9	286.2
1023.5947	2966.1089	1192.8	291.8
1023.708	2967.1905	1166.35	290.3
1023.8213	2968.2714	1163.15	286.3
1023.9346	2969.3516	1157.2	278.45
1024.0478	2970.4312	1166.15	283.1
1024.1609	2971.5102	1160.2	283.95
1024.274	2972.5885	1157.3	280.5
1024.3871	2973.6662	1161.2	280.3
1024.5002	2974.7432	1153.95	276.55
1024.6132	2975.8196	1149.05	270.85
1024.7261	2976.8954	1151	274.6
1024.839	2977.9705	1151.7	275.95
1024.9519	2979.045	1155.8	280.3
1025.0647	2980.1188	1150.85	273.95
1025.1775	2981.192	1147.1	270.85
1025.2902	2982.2645	1140.95	264.15
1025.4029	2983.3364	1142.35	265
1025.5156	2984.4077	1142.4	265.1
1025.6282	2985.4783	1152.65	270.9
1025.7407	2986.5483	1139.1	263.25
1025.8532	2987.6177	1140.65	264.55
1025.9657	2988.6864	1132.35	255.5
1026.0782	2989.7545	1130.75	253.85
1026.1906	2990.8219	1123.45	246.65
1026.3029	2991.8887	1121.75	243
1026.4152	2992.9548	1117.4	239.7
1026.5275	2994.0204	1118.45	243.65
1026.6397	2995.0852	1110.1	236.85
1026.7519	2996.1495	1110	233.25
1026.864	2997.2131	1105.1	230.15
1026.9761	2998.276	1106.9	231.7
1027.0882	2999.3383	1099.9	222.55
1027.2002	3000.4	1102.6	226.45
1027.3122	3001.4611	1097.45	220.45
1027.4241	3002.5215	1098.1	219.8
1027.536	3003.5812	1096.3	218.8
1027.6478	3004.6404	1091.4	215
1027.7596	3005.6989	1090.8	212
1027.8714	3006.7567	1092.45	215.3
1027.9831	3007.8139	1110.1	213.25
1028.0947	3008.8705	1088.1	212.9
1028.2064	3009.9264	1088.85	207.1
1028.3179	3010.9818	1088.4	212
1028.4295	3012.0364	1082.25	203.6
1028.541	3013.0905	1081.6	205.5
1028.6524	3014.1439	1077.05	201.5
1028.7638	3015.1966	1080.2	202.8
1028.8752	3016.2487	1080.4	203.95
1028.9865	3017.3002	1083.6	200.55
1029.0978	3018.3511	1080.5	206
1029.209	3019.4013	1076.7	201.05
1029.3202	3020.4509	1073.7	198.2
1029.4314	3021.4998	1072.15	195.85
1029.5425	3022.5481	1075.2	197.35
1029.6535	3023.5958	1072.25	196
1029.7645	3024.6428	1072.05	193.75
1029.8755	3025.6892	1071.15	195.25
1029.9864	3026.735	1072.7	195.85
1030.0973	3027.7802	1071.55	194.05
1030.2082	3028.8247	1067.8	193.4
1030.319	3029.8685	1067.85	191.2
1030.4297	3030.9118	1066.35	189.7
1030.5404	3031.9544	1061.35	185.65
1030.6511	3032.9963	1065.75	189.8
1030.7617	3034.0376	1060.25	183.8
1030.8723	3035.0783	1065.7	187.35
1030.9829	3036.1184	1061	185.9
1031.0934	3037.1578	1066.6	191.3
1031.2038	3038.1966	1063.9	187.85
1031.3142	3039.2348	1057.8	182.55
1031.4246	3040.2723	1069.5	183.65
1031.5349	3041.3092	1061.65	186.15
1031.6452	3042.3455	1056.3	180.6
1031.7554	3043.3811	1052.3	173.9
1031.8656	3044.4161	1057.25	180.05
1031.9758	3045.4505	1055.4	180.95
1032.0859	3046.4842	1052.45	174.6
1032.1959	3047.5173	1056.1	180.3
1032.3059	3048.5498	1056.25	181.25
1032.4159	3049.5816	1050.45	173.5
1032.5258	3050.6128	1049.05	172.35
1032.6357	3051.6434	1054.9	176.05
1032.7455	3052.6734	1054.9	177.9
1032.8553	3053.7027	1053.95	177.75
1032.9651	3054.7314	1053.3	177.15
1033.0748	3055.7594	1050.6	174.2
1033.1845	3056.7868	1049.1	171.7
1033.2941	3057.8136	1048.8	171.95
1033.4037	3058.8398	1045.9	169.1
1033.5132	3059.8653	1045.15	168.8
1033.6227	3060.8902	1048.95	172.55
1033.7321	3061.9145	1045.8	168.4
1033.8415	3062.9381	1048.85	172.65
1033.9509	3063.9612	1058.3	165.95
1034.0602	3064.9835	1047.35	172.15
1034.1694	3066.0053	1047.1	169.3
1034.2787	3067.0264	1040	163.75
1034.3878	3068.0469	1047.25	168.4
1034.497	3069.0668	1043.1	163.45
1034.6061	3070.086	1042.1	165.6
1034.7151	3071.1046	1041.1	162.05
1034.8241	3072.1226	1039.8	162.35
1034.9331	3073.1399	1036.8	161.25
1035.042	3074.1567	1039.95	163.75
1035.1508	3075.1727	1037.2	159.2
1035.2597	3076.1882	1038.6	162.3
1035.3684	3077.203	1036.75	160.8
1035.4772	3078.2173	1033	155.15
1035.5859	3079.2308	1037	155.85
1035.6945	3080.2438	1034.15	155.45
1035.8031	3081.2561	1032.4	154.05
1035.9117	3082.2678	1032.15	156.45
1036.0202	3083.2789	1029.75	153.65
1036.1286	3084.2893	1027.25	151.25
1036.2371	3085.2991	1022.85	145.95
1036.3454	3086.3083	1029.95	149.95
1036.4538	3087.3169	1031.35	155
1036.562	3088.3248	1025.15	147
1036.6703	3089.3321	1028.7	150.7
1036.7785	3090.3388	1025.25	149.7
1036.8866	3091.3449	1023.85	146.8
1036.9948	3092.3503	1024.15	147.2
1037.1028	3093.3551	1019.4	143.65
1037.2108	3094.3593	1022.2	145.35
1037.3188	3095.3629	1017.05	141.55
1037.4267	3096.3658	1022.5	144.95
1037.5346	3097.3681	1016.6	141.3
1037.6425	3098.3698	1017.9	139
1037.7503	3099.3708	1018.1	134.15
1037.858	3100.3713	1015.1	140.45
1037.9657	3101.3711	1014.75	136.65
1038.0734	3102.3702	1145	135.35
1038.181	3103.3688	1013.5	136.4
1038.2886	3104.3667	1012.65	139.75
1038.3961	3105.364	1010.85	135.3
1038.5036	3106.3607	1013.65	136.3
1038.611	3107.3568	1009.55	133.25
1038.7184	3108.3522	1009.8	133.1
1038.8257	3109.347	1008.35	130.75
1038.933	3110.3412	1011.3	129.9
1039.0403	3111.3348	1005.1	128.1
1039.1475	3112.3277	1007.65	133
1039.2547	3113.32	1001.75	126.55
1039.3618	3114.3117	1000.2	123.05
1039.4689	3115.3028	1004.9	129.55
1039.5759	3116.2932	1003	124.05
1039.6829	3117.2831	1014.15	132.45
1039.7898	3118.2723	999.75	127.45
1039.8967	3119.2608	997.3	120.45
1040.0035	3120.2488	999.35	123.8
1040.1103	3121.2361	1000.7	124.4
1040.2171	3122.2229	1000.75	125.65
1040.3238	3123.209	997.8	121.05
1040.4305	3124.1944	998.2	122.5
1040.5371	3125.1793	996.95	119.2
1040.6437	3126.1635	992	117.65
1040.7502	3127.1471	996.15	121.55
1040.8567	3128.1301	994.75	118.6
1040.9631	3129.1125	995.15	119.25
1041.0695	3130.0942	990.9	115.8
1041.1759	3131.0753	1001.05	115.85
1041.2822	3132.0558	994.45	114.9
1041.3884	3133.0357	989.9	110.95
1041.4946	3134.015	995.2	118.65
1041.6008	3134.9936	991.3	114.6
1041.7069	3135.9716	1010.2	114.75
1041.813	3136.949	991.5	117.45
1041.919	3137.9258	991.25	109.25
1042.025	3138.902	997.35	114.9
1042.1309	3139.8775	987.4	111.05
1042.2368	3140.8524	987.5	112.35
1042.3427	3141.8267	989.65	111.25
1042.4485	3142.8004	987.45	110.15
1042.5542	3143.7735	991.95	110.4
1042.6599	3144.7459	986.9	109.25
1042.7656	3145.7178	985.45	107.6
1042.8712	3146.689	984.85	109.15
1042.9768	3147.6596	986.65	108.7
1043.0823	3148.6295	981.9	105.8
1043.1878	3149.5989	980.5	105.4
1043.2932	3150.5676	979.65	104.65
1043.3986	3151.5357	980.35	104.85
1043.5039	3152.5032	978.95	104.5
1043.6092	3153.4701	977.8	103.45
1043.7145	3154.4364	980.75	101.1
1043.8197	3155.402	981.1	104.7
1043.9248	3156.367	980.6	102.3
1044.03	3157.3315	1017.1	103.75
1044.135	3158.2952	978.95	103
1044.24	3159.2584	977.35	100.9
1044.345	3160.221	975.6	99.6
1044.4499	3161.1829	975.35	97.9
1044.5548	3162.1442	973.9	99.25
1044.6596	3163.105	976.7	100.9
1044.7644	3164.065	973.55	97.25
1044.8692	3165.0245	976.4	97
1044.9739	3165.9834	972.25	97.7
1045.0785	3166.9416	971.35	95.05
1045.1831	3167.8993	971.45	95.2
1045.2877	3168.8563	975	97.35
1045.3922	3169.8127	971.5	94.6
1045.4966	3170.7684	968.6	91.4
1045.6011	3171.7236	970.65	93.3
1045.7054	3172.6782	969.65	95.55
1045.8098	3173.6321	969.4	93.35
1045.914	3174.5854	973.55	94
1046.0183	3175.5381	967.7	91.95
1046.1224	3176.4902	968.2	92.85
1046.2266	3177.4417	963.75	87.9
1046.3307	3178.3926	966.3	89.1
1046.4347	3179.3428	964.5	88.6
1046.5387	3180.2924	965.85	91.45
1046.6427	3181.2415	964.15	88.4
1046.7466	3182.1899	966.15	88.1
1046.8504	3183.1377	963	88.3
1046.9542	3184.0848	968.35	91.55
1047.058	3185.0314	961.5	86
1047.1617	3185.9773	960.55	84.95
1047.2654	3186.9227	964.5	86
1047.369	3187.8674	965.9	90.5
1047.4726	3188.8115	966.3	86.35
1047.5761	3189.755	961.75	85.55
1047.6796	3190.6979	956.35	80.65
1047.783	3191.6402	961.15	85
1047.8864	3192.5818	957.15	82.4
1047.9898	3193.5229	965.25	83.55
1048.0931	3194.4633	955	80.05
1048.1963	3195.4031	957.25	80.95
1048.2995	3196.3423	955.85	78.4
1048.4027	3197.2809	957.75	80.8
1048.5058	3198.2189	956.4	80
1048.6089	3199.1563	964.85	83.65
1048.7119	3200.0931	954.25	78.2
1048.8148	3201.0292	952.9	78.3
1048.9178	3201.9648	953.1	78.95
1049.0206	3202.8997	959.7	81.45
1049.1235	3203.834	955.45	79.8
1049.2262	3204.7677	955.35	79
1049.329	3205.7008	956.8	79.85
1049.4317	3206.6333	952.3	77.55
1049.5343	3207.5652	952.75	73.75
1049.6369	3208.4964	952.2	74.5
1049.7394	3209.4271	951.85	77.75
1049.8419	3210.3571	951	73.5
1049.9444	3211.2865	954.75	77.75
1050.0468	3212.2154	949.7	70.65
1050.1491	3213.1436	952.85	74.25
1050.2514	3214.0712	953.5	73.25
1050.3537	3214.9982	950.55	74.05
1050.4559	3215.9246	949.75	72.4
1050.5581	3216.8503	949.45	74.1
1050.6602	3217.7755	948.95	73
1050.7623	3218.7001	949.45	75.35
1050.8643	3219.624	947.7	70.2
1050.9663	3220.5473	947.3	71.5
1051.0682	3221.4701	949.6	71.55
1051.1701	3222.3922	947.3	69.25
1051.2719	3223.3137	945.3	69.95
1051.3737	3224.2346	944.35	67.85
1051.4754	3225.1549	944.85	70.65
1051.5771	3226.0746	941.8	66.35
1051.6788	3226.9937	943.45	67.2
1051.7804	3227.9121	944.25	70.75
1051.8819	3228.83	944.2	68.1
1051.9834	3229.7473	944.45	69.45
1052.0849	3230.6639	942.7	67.05
1052.1863	3231.5799	941.75	64.85
1052.2876	3232.4954	941.8	63.6
1052.3889	3233.4102	941.2	66.15
1052.4902	3234.3244	942.35	68.55
1052.5914	3235.238	940.45	64.55
1052.6926	3236.151	965.65	64.8
1052.7937	3237.0634	939.1	66.4
1052.8948	3237.9752	942.05	65.3
1052.9958	3238.8864	940.4	64.3
1053.0968	3239.797	941.45	65.75
1053.1977	3240.7069	939.9	62.6
1053.2986	3241.6163	942	66.1
1053.3994	3242.5251	937.45	61.2
1053.5002	3243.4332	938.2	63.05
1053.6009	3244.3408	937.15	60.65
1053.7016	3245.2477	939.65	61.35
1053.8022	3246.154	938.45	60.7
1053.9028	3247.0598	936.75	58.45
1054.0034	3247.9649	932.6	56.1
1054.1039	3248.8694	935.5	57.7
1054.2043	3249.7733	934.55	59.55
1054.3047	3250.6766	935.6	59.35
1054.4051	3251.5793	933.75	59.6
1054.5054	3252.4814	933.3	57.4
1054.6056	3253.3829	934	59.25
1054.7058	3254.2838	933	55.95
1054.806	3255.1841	935.1	59.75
1054.9061	3256.0838	931.7	55.75
1055.0061	3256.9829	933.55	58.4
1055.1062	3257.8814	934.15	55.25
1055.2061	3258.7792	933	54.05
1055.306	3259.6765	933.1	55.5
1055.4059	3260.5731	931.2	53.9
1055.5057	3261.4692	931.8	55.05
1055.6055	3262.3647	930.1	54.55
1055.7052	3263.2595	927.8	52.15
1055.8049	3264.1538	924.3	47.55
1055.9045	3265.0474	927.1	50.35
1056.0041	3265.9404	926.75	51.6
1056.1036	3266.8329	924.3	49.05
1056.2031	3267.7247	936.35	48.75
1056.3025	3268.616	923.15	49
1056.4019	3269.5066	920.8	45.25
1056.5013	3270.3966	921.5	43.3
1056.6005	3271.286	919.15	42.9
