Software Version:	3.9.2.0
Unit SN:	10000200
Spectrometer SN:	6960
Date:	3/6/2024 9:33:07 AM
Data Line Index:	25
Spectral Points:	2048
Integration time (ms):	125
Averages:	20
Delay (ms):	30
Sequence Number:	1
Processing:	dark subtract
Laser Power (mW):	305
Laser Current (mA):	824
Laser Diode Temp (C):	25.1
Laser Case Temp (C):	23.7
System Temp (C):	23.5
Spectrometer Temp (C):	21.1
CCD Temp (C):	-0.021
Secondary Temp (C):	20.006
Heatsink Temp (C):	17.796
CCDPCB Temp (C):	30.516
SecondaryPCB Temp (C):	25.469

Wavelength	RamanShift	Raw Counts	Dark Subtracted
787.061	30.1047	529.2	123.9
787.2016	32.3739	535.25	129.95
787.3422	34.6426	541.4	135.25
787.4828	36.9109	550.4	141.7
787.6235	39.1787	565.3	152.85
787.7642	41.4461	579.4	162.85
787.9049	43.7131	590.8	171.6
788.0456	45.9796	601.65	180.9
788.1863	48.2456	619.3	193.35
788.3271	50.5112	631.5	202.3
788.4679	52.7764	644.2	213.7
788.6087	55.0411	662.85	224.15
788.7496	57.3054	677.95	235
788.8904	59.5692	695.35	251.6
789.0313	61.8326	715.4	269.2
789.1722	64.0955	736.45	287.7
789.3132	66.3579	764.8	310.7
789.4541	68.6199	798.6	339.6
789.5951	70.8815	860.85	398
789.7361	73.1426	981.6	515.55
789.8771	75.4032	1287.3	817.6
790.0181	77.6634	2050.35	1576.25
790.1592	79.9231	3877.65	3401.95
790.3003	82.1824	7934.05	7452.25
790.4414	84.4412	15079.65	14587.45
790.5825	86.6995	24651.85	24154.35
790.7237	88.9574	33843.25	33336.35
790.8648	91.2148	40506.4	39995.75
791.006	93.4717	43724.45	43208.8
791.1472	95.7282	45116.9	44597.55
791.2885	97.9842	45730.85	45211.45
791.4297	100.2398	46158.35	45634.3
791.571	102.4949	45837.35	45312.5
791.7123	104.7495	46328.2	45797.5
791.8536	107.0036	45966.7	45435.05
791.9949	109.2573	46687.45	46158.25
792.1363	111.5105	45985.2	45452.6
792.2777	113.7632	46618.75	46083.75
792.4191	116.0154	46643.3	46097.6
792.5605	118.2672	47034.95	46496.45
792.7019	120.5185	46991.95	46453.25
792.8434	122.7693	47051.1	46506.75
792.9849	125.0197	46861.3	46313.65
793.1264	127.2696	47571.15	47017.4
793.2679	129.519	47720.25	47163.05
793.4094	131.7679	48140.5	47583.65
793.551	134.0163	46945.2	46384
793.6926	136.2642	47501.75	46938.05
793.8342	138.5117	48363.45	47798.6
793.9758	140.7587	48131.55	47564.3
794.1175	143.0052	48266.25	47696.4
794.2591	145.2512	47646.3	47075.55
794.4008	147.4967	48434.15	47861.35
794.5425	149.7417	48117.05	47542.45
794.6842	151.9863	48308.7	47728.35
794.826	154.2304	47608.95	47027.5
794.9677	156.4739	48270	47682.6
795.1095	158.717	48578.05	47986.25
795.2513	160.9596	48437.8	47843.95
795.3931	163.2017	47867.6	47272.3
795.535	165.4433	48671.6	48073.5
795.6768	167.6844	48337.2	47736.65
795.8187	169.925	48722.05	48116.55
795.9606	172.1651	48546.3	47937.75
796.1025	174.4047	48339.7	47729.7
796.2445	176.6439	48643.4	48030.65
796.3864	178.8825	48746.6	48130.45
796.5284	181.1206	48947.25	48325.9
796.6704	183.3582	49052.8	48430.45
796.8124	185.5954	48524.55	47901.9
796.9544	187.832	48908.6	48279.3
797.0965	190.0681	48699.45	48068.85
797.2386	192.3037	49348.45	48712.95
797.3806	194.5388	50040.1	49403.9
797.5228	196.7734	48600.85	47964.7
797.6649	199.0075	49753.35	49114.9
797.807	201.2411	49579.7	48939.7
797.9492	203.4742	50198.25	49552.15
798.0914	205.7068	50254.8	49606.85
798.2336	207.9389	50215.35	49566.55
798.3758	210.1704	50112.35	49472.2
798.518	212.4015	50819.3	50187.75
798.6603	214.632	49834.95	49208.3
798.8025	216.862	50735.4	50112.1
798.9448	219.0915	50784.1	50157.3
799.0871	221.3205	50362.3	49732.35
799.2294	223.549	50979.05	50353.35
799.3718	225.777	50985.6	50356.7
799.5141	228.0044	51131.4	50495.4
799.6565	230.2314	51087.1	50446.55
799.7989	232.4578	51059.3	50415.4
799.9413	234.6837	51063.25	50413.25
800.0837	236.909	52299.25	51645.9
800.2262	239.1339	50754.7	50081
800.3687	241.3582	51416.85	50756.35
800.5111	243.582	51432.15	50738.85
800.6536	245.8053	51646.75	50970.5
800.7961	248.0281	51582.3	50908.55
800.9387	250.2503	51873.1	51194.75
801.0812	252.472	51557	50876.7
801.2238	254.6932	51697.75	51019.65
801.3664	256.9139	51638.45	50956.5
801.509	259.134	52694.95	52013.2
801.6516	261.3536	51238.35	50555.7
801.7942	263.5727	52341.3	51657.75
801.9369	265.7912	51875.8	51193.3
802.0795	268.0092	52062.7	51377.1
802.2222	270.2267	52158.05	51472.4
802.3649	272.4436	51815.35	51129.1
802.5076	274.6601	52251.8	51556.3
802.6504	276.8759	52470.85	51777.95
802.7931	279.0913	52464.45	51770.1
802.9359	281.3061	52283.45	51588.65
803.0787	283.5204	52600.7	51903.4
803.2215	285.7341	52463.8	51763.2
803.3643	287.9473	53132.2	52420.55
803.5071	290.16	52509.5	51805.75
803.6499	292.3721	53190.8	52492.2
803.7928	294.5837	52276.1	51575.7
803.9357	296.7947	52039.5	51338.9
804.0786	299.0052	52732.55	52030.15
804.2215	301.2152	52247	51543.1
804.3644	303.4246	52961.2	52259.9
804.5074	305.6334	52846.35	52142.65
804.6503	307.8418	52171.2	51464.55
804.7933	310.0495	52550.95	51843
804.9363	312.2568	52330.95	51621.3
805.0793	314.4635	52266.5	51556.1
805.2223	316.6696	52441.55	51728.15
805.3653	318.8752	52861.45	52140.5
805.5084	321.0802	51634.25	50919.25
805.6514	323.2847	52052.35	51337.25
805.7945	325.4887	52248.65	51533.25
805.9376	327.692	51849	51130
806.0807	329.8949	52280.45	51560.4
806.2238	332.0972	52081.1	51362.45
806.367	334.2989	52338.05	51614.6
806.5101	336.5001	52841.8	52116.65
806.6533	338.7007	51949.1	51223.1
806.7965	340.9008	52318.6	51590.8
806.9397	343.1003	52298.55	51569.65
807.0829	345.2992	52690.3	51959.85
807.2261	347.4976	52199.6	51464.45
807.3693	349.6955	52345.3	51609.45
807.5126	351.8927	52081.25	51344.1
807.6559	354.0895	52406.95	51656.6
807.7991	356.2856	52276.3	51535.65
807.9424	358.4812	52683.1	51945.45
808.0857	360.6763	52191.7	51450.6
808.2291	362.8707	52320.7	51579.05
808.3724	365.0646	52207.7	51462.95
808.5158	367.258	52236.9	51490.15
808.6591	369.4508	51917.2	51164.3
808.8025	371.643	52332.35	51578.9
808.9459	373.8346	52221.9	51468.65
809.0893	376.0257	52145.45	51391.6
809.2327	378.2162	51977.75	51224.05
809.3762	380.4062	51679.1	50927.2
809.5196	382.5956	51780.15	51027.95
809.6631	384.7844	51880.25	51133
809.8066	386.9726	51941.35	51194.05
809.9501	389.1603	52082.25	51336.8
810.0936	391.3474	51503.35	50706.85
810.2371	393.5339	52036.05	51285.35
810.3806	395.7199	51331.7	50583.7
810.5241	397.9052	51358.25	50609.3
810.6677	400.09	51593.8	50843.85
810.8113	402.2743	51651.25	50897.75
810.9548	404.4579	51630.65	50877.8
811.0984	406.641	51447.4	50694.5
811.2421	408.8235	51807.05	51050.55
811.3857	411.0054	51627.15	50866.35
811.5293	413.1868	51642.85	50880.85
811.673	415.3675	51665	50900
811.8166	417.5477	51719.95	50954.9
811.9603	419.7273	51622.7	50853.95
812.104	421.9064	51397.6	50621.55
812.2477	424.0848	51438	50668.6
812.3914	426.2627	51500.55	50729.05
812.5351	428.4399	50968.8	50198.45
812.6788	430.6166	50765.5	49988.7
812.8226	432.7928	50993.4	50214.6
812.9663	434.9683	50661.45	49886
813.1101	437.1432	50704.85	49924.6
813.2539	439.3176	50773.55	49995.15
813.3977	441.4914	50281.25	49504.6
813.5415	443.6645	50361.8	49583.5
813.6853	445.8371	50293.55	49515.15
813.8291	448.0091	49927.7	49150.8
813.973	450.1806	49866.6	49089.85
814.1168	452.3514	49797.3	49014.85
814.2607	454.5216	49711.3	48921.05
814.4046	456.6913	49589.25	48803.95
814.5485	458.8603	49643.05	48860.25
814.6924	461.0288	49523.15	48740.15
814.8363	463.1967	49582.35	48799.85
814.9802	465.3639	49698.45	48912.5
815.1241	467.5306	49279.65	48493.65
815.2681	469.6967	49341.4	48558.1
815.412	471.8622	49241.2	48455.85
815.556	474.0271	49195.7	48411.35
815.7	476.1914	49202.85	48413.05
815.844	478.3551	49163.25	48374.6
815.988	480.5182	49359.65	48571.1
816.132	482.6807	49114.15	48325.9
816.276	484.8426	49216.8	48427.75
816.4201	487.0039	49431.45	48640.8
816.5641	489.1647	49411.45	48621.65
816.7082	491.3248	49261.15	48469.05
816.8522	493.4843	49410.8	48619.3
816.9963	495.6432	49411.65	48620.65
817.1404	497.8015	49017.6	48221.3
817.2845	499.9592	49166.25	48371.8
817.4286	502.1163	49100.6	48304.3
817.5727	504.2728	48926.05	48128.3
817.7168	506.4287	49086.15	48294.15
817.861	508.5839	48857.1	48060.6
818.0051	510.7386	48867.15	48070.2
818.1493	512.8927	48896.05	48090.7
818.2935	515.0461	48865.2	48064.85
818.4377	517.199	48898.2	48100.45
818.5818	519.3512	48956.65	48156.7
818.726	521.5029	48822.35	48017.25
818.8703	523.6539	48851.35	48048.15
819.0145	525.8043	48681.95	47880.55
819.1587	527.9541	48758.35	47954.15
819.303	530.1033	48664.6	47861.7
819.4472	532.2519	48483.75	47682.85
819.5915	534.3999	48447.15	47641
819.7357	536.5472	48544.15	47738.75
819.88	538.694	48296.65	47492.85
820.0243	540.8401	48511.8	47706
820.1686	542.9856	48501.15	47692.25
820.3129	545.1305	48392.5	47583.35
820.4572	547.2748	48389.8	47580.4
820.6016	549.4185	48356	47545.25
820.7459	551.5615	48301.6	47490.4
820.8902	553.704	48297	47486.4
821.0346	555.8458	48148.35	47339.45
821.1789	557.987	48266.85	47458
821.3233	560.1276	48211.75	47400.35
821.4677	562.2675	48250.95	47439.45
821.6121	564.4069	48231.95	47420.05
821.7565	566.5456	48155.6	47345.55
821.9009	568.6837	48057.1	47246.4
822.0453	570.8212	47902.35	47090.1
822.1897	572.958	47713.15	46896.8
822.3342	575.0942	47606.95	46796.15
822.4786	577.2299	47452.15	46639.4
822.6231	579.3648	47360.85	46547.2
822.7675	581.4992	47169.95	46357.1
822.912	583.6329	47007.1	46194.25
823.0565	585.766	46974.15	46161.5
823.201	587.8985	46892.45	46079.35
823.3454	590.0304	46720.3	45893.5
823.4899	592.1616	46742.65	45923.25
823.6345	594.2922	46674.95	45853.65
823.779	596.4222	46527	45707.9
823.9235	598.5515	46452.4	45632.8
824.068	600.6802	46293.2	45474.05
824.2126	602.8083	46007.1	45186.85
824.3571	604.9358	46050.8	45230.3
824.5017	607.0626	45933.25	45111.05
824.6462	609.1888	45829.35	45005.4
824.7908	611.3144	45834.55	45012.05
824.9354	613.4393	45761.35	44939.35
825.08	615.5636	45697.7	44874.65
825.2246	617.6873	45771	44951
825.3692	619.8103	45787.25	44962.6
825.5138	621.9327	45687.95	44860.55
825.6584	624.0544	45696.95	44872.4
825.803	626.1756	45627.5	44805.25
825.9477	628.2961	45493.45	44667.1
826.0923	630.4159	45343.1	44517.9
826.237	632.5351	45341.65	44512
826.3816	634.6537	45248.1	44420
826.5263	636.7716	45203.6	44372.85
826.6709	638.8889	45196.9	44367.75
826.8156	641.0056	45275.75	44447.2
826.9603	643.1216	45139	44309.05
827.105	645.237	45243.35	44410.15
827.2497	647.3518	45127	44296.8
827.3944	649.4659	45031	44201.75
827.5391	651.5793	44949.1	44119.25
827.6838	653.6922	44900.4	44070.3
827.8285	655.8043	44783.15	43953.25
827.9733	657.9159	44845.65	44012.6
828.118	660.0268	44587.7	43753.55
828.2627	662.137	44537.4	43702.9
828.4075	664.2466	44485.4	43648.85
828.5522	666.3556	44486.25	43653.65
828.697	668.4639	44333.05	43497.3
828.8418	670.5716	44368.85	43535.55
828.9865	672.6786	44357.4	43525.2
829.1313	674.785	44143.8	43307.4
829.2761	676.8907	44027.3	43193.4
829.4209	678.9958	44021.15	43185.55
829.5657	681.1002	43872.9	43035.9
829.7105	683.204	43879.95	43040.7
829.8553	685.3072	43814.7	42975.8
830.0001	687.4097	43762.95	42923
830.1449	689.5115	43767.5	42928.5
830.2898	691.6127	43731	42894.3
830.4346	693.7132	43593.9	42755.15
830.5794	695.8131	43601.35	42744.35
830.7243	697.9123	43601.7	42760.65
830.8691	700.0109	43467.45	42625.1
831.014	702.1089	43472.2	42633.5
831.1588	704.2061	43376.2	42538.05
831.3037	706.3028	43373.8	42532.45
831.4486	708.3987	43378.55	42538.15
831.5935	710.4941	43294.8	42452.25
831.7383	712.5887	43243.95	42402.65
831.8832	714.6827	43194.7	42347.85
832.0281	716.7761	43197.9	42354.55
832.173	718.8688	43162.75	42318.2
832.3179	720.9608	43067.7	42221.3
832.4628	723.0522	43077.55	42229.05
832.6077	725.1429	42951.35	42106.65
832.7527	727.233	42964.9	42119.7
832.8976	729.3224	43017.45	42172.85
833.0425	731.4112	42895.55	42050.3
833.1874	733.4993	42855.15	42004.4
833.3324	735.5867	42655.5	41809.25
833.4773	737.6735	42574.15	41727.15
833.6222	739.7596	42424.9	41578.9
833.7672	741.845	42348.5	41502.4
833.9122	743.9298	42219.6	41370.6
834.0571	746.014	42111.6	41265.15
834.2021	748.0974	42094.1	41245.8
834.347	750.1802	41994.5	41146.95
834.492	752.2624	41831.8	40986.2
834.637	754.3439	41728.2	40880.55
834.782	756.4247	41615.65	40756.35
834.9269	758.5048	41497.45	40648.15
835.0719	760.5843	41447.1	40594.6
835.2169	762.6631	41306.15	40452.85
835.3619	764.7413	41303.8	40454.55
835.5069	766.8188	41344.4	40492.05
835.6519	768.8956	41166.45	40312.95
835.7969	770.9718	41256.45	40406.8
835.9419	773.0473	41073.5	40224
836.0869	775.1221	41004.5	40155.65
836.232	777.1962	40861.95	40011.55
836.377	779.2697	40823.75	39973.1
836.522	781.3426	40812.35	39941.25
836.667	783.4147	40696.55	39843.05
836.8121	785.4862	40766.35	39916.1
836.9571	787.557	40589.55	39739
837.1021	789.6271	40404.4	39552.6
837.2472	791.6966	40238.1	39385.75
837.3922	793.7654	40080.15	39226.7
837.5373	795.8335	40046.2	39193.65
837.6823	797.901	39893.1	39040.4
837.8274	799.9678	39881	39025.85
837.9724	802.0339	39754.55	38900.6
838.1175	804.0993	39731.8	38868.1
838.2626	806.1641	39609.2	38755.4
838.4076	808.2282	39504	38651.45
838.5527	810.2916	39493.4	38635.6
838.6978	812.3544	39388.4	38533.95
838.8428	814.4164	39291.15	38437.8
838.9879	816.4778	39380.65	38524.55
839.133	818.5385	39219.05	38364.05
839.2781	820.5986	39246	38390.7
839.4232	822.658	39238.25	38378.95
839.5682	824.7166	39079.2	38223.5
839.7133	826.7747	39225.65	38369.75
839.8584	828.832	39193	38336.4
840.0035	830.8886	39076.65	38217.65
840.1486	832.9446	39053	38195
840.2937	834.9999	38945.55	38088.5
840.4388	837.0545	38861.35	37999.15
840.5839	839.1085	38771.05	37912.85
840.729	841.1618	38638.7	37776.9
840.8741	843.2143	38513	37655.15
841.0192	845.2662	38376.75	37520.6
841.1643	847.3175	38291.9	37433.35
841.3095	849.368	38238.65	37381.95
841.4546	851.4179	38142.15	37285.2
841.5997	853.467	37978.7	37121.5
841.7448	855.5155	37963.85	37104.85
841.8899	857.5633	37931.85	37071.35
842.0351	859.6105	37795.55	36936.75
842.1802	861.6569	37775.8	36916.15
842.3253	863.7027	37665.6	36805.1
842.4704	865.7478	37649.85	36789.6
842.6156	867.7922	37624.25	36764.9
842.7607	869.8359	37502.8	36640.7
842.9058	871.8789	37459.6	36598.65
843.0509	873.9212	37426.4	36533.35
843.1961	875.9629	37279.55	36417.2
843.3412	878.0039	37261.6	36399.85
843.4863	880.0441	37232.15	36368.2
843.6315	882.0837	37230.25	36366
843.7766	884.1226	37176.8	36313.3
843.9218	886.1609	37207.95	36348.4
844.0669	888.1984	37210	36349.9
844.212	890.2352	37315.75	36454.05
844.3572	892.2714	37191.1	36327.3
844.5023	894.3069	37188.2	36325.75
844.6475	896.3416	37012.1	36147.7
844.7926	898.3757	36955.9	36094
844.9377	900.4091	36791.75	35928.35
845.0829	902.4418	36771.45	35903.7
845.228	904.4739	36651.3	35786.3
845.3732	906.5052	36635.15	35771.85
845.5183	908.5358	36525.5	35662.2
845.6635	910.5658	36449.2	35582.45
845.8086	912.595	36352.2	35486.4
845.9538	914.6236	36310.95	35447.05
846.0989	916.6515	36234.75	35370.5
846.2441	918.6786	36139.05	35273.25
846.3892	920.7051	36077.85	35211.45
846.5344	922.7309	36083.55	35218.75
846.6795	924.756	35911.85	35046.05
846.8246	926.7804	35948.15	35081.25
846.9698	928.8041	35666.35	34799.7
847.1149	930.8272	35699.6	34836.05
847.2601	932.8495	35547.2	34680.4
847.4052	934.8711	35540.05	34671.75
847.5504	936.892	35341.3	34474.65
847.6955	938.9123	35281.8	34413.55
847.8407	940.9318	35220.8	34355.8
847.9858	942.9506	35164	34297.35
848.131	944.9688	35005.75	34138.7
848.2761	946.9862	34917.15	34050.95
848.4213	949.003	34679.05	33812.95
848.5664	951.019	34640.55	33772.5
848.7115	953.0344	34520.95	33654.25
848.8567	955.0491	34459.75	33589.85
849.0018	957.063	34439.85	33573.3
849.147	959.0763	34483.15	33617.3
849.2921	961.0888	34315.8	33446.55
849.4373	963.1007	34346.65	33478.7
849.5824	965.1119	34304.85	33436.4
849.7275	967.1223	34254.7	33387
849.8727	969.1321	34162.85	33296.7
850.0178	971.1412	34129.5	33262.45
850.1629	973.1495	34021.9	33153.75
850.3081	975.1572	33995.7	33082.8
850.4532	977.1641	33923.05	33054.95
850.5983	979.1704	33811.35	32942.85
850.7435	981.1759	33735.05	32864.8
850.8886	983.1808	33668.45	32795.25
851.0337	985.1849	33616.8	32741.95
851.1788	987.1884	33545.2	32671.55
851.324	989.1911	33450.95	32578.6
851.4691	991.1932	33351.35	32479.3
851.6142	993.1945	33253.4	32385.2
851.7593	995.1951	33058.15	32187.5
851.9045	997.1951	33083.2	32209
852.0496	999.1943	32936.95	32065.95
852.1947	1001.1928	32763.15	31892.55
852.3398	1003.1906	32663.05	31792.2
852.4849	1005.1877	32654.6	31782.3
852.63	1007.1841	32556.7	31685.45
852.7751	1009.1798	32462.9	31592.4
852.9202	1011.1748	32252.3	31383.2
853.0653	1013.1691	32229.35	31357.5
853.2104	1015.1627	32036.9	31165.5
853.3555	1017.1556	31841.35	30969.95
853.5006	1019.1477	31767.75	30895.95
853.6457	1021.1392	31580.25	30712.55
853.7908	1023.1299	31511.2	30640.75
853.9359	1025.12	31321.2	30447.6
854.081	1027.1093	31197	30328.45
854.2261	1029.0979	31124.1	30256
854.3712	1031.0859	31023.5	30153.75
854.5163	1033.0731	30978.5	30104.7
854.6613	1035.0596	30903.4	30033.9
854.8064	1037.0454	30726.5	29852.35
854.9515	1039.0304	30684.8	29810.45
855.0965	1041.0148	30533.35	29662.35
855.2416	1042.9985	30431.8	29558.65
855.3867	1044.9814	30415.4	29545.9
855.5317	1046.9636	30218.35	29344.3
855.6768	1048.9452	30127.25	29255.15
855.8219	1050.926	30150.3	29280
855.9669	1052.9061	30079.3	29208.15
856.112	1054.8855	29925.45	29051.35
856.257	1056.8642	29929.7	29056.9
856.4021	1058.8421	29885	29006.45
856.5471	1060.8194	29788.35	28914.6
856.6921	1062.7959	29709.9	28838.1
856.8372	1064.7717	29655.85	28782.2
856.9822	1066.7469	29615.55	28742.3
857.1272	1068.7213	29541.15	28664
857.2723	1070.695	29493.4	28621.55
857.4173	1072.6679	29388.35	28514.05
857.5623	1074.6402	29386.5	28511.8
857.7073	1076.6117	29360.85	28483.25
857.8523	1078.5826	29310.25	28434.5
857.9973	1080.5527	29211.8	28334.85
858.1423	1082.5221	29092.75	28218.6
858.2873	1084.4908	29028.85	28154.55
858.4323	1086.4587	28905.8	28031.9
858.5773	1088.426	28852.6	27976.85
858.7223	1090.3925	28701.35	27822.65
858.8673	1092.3584	28727	27853.2
859.0123	1094.3235	28626.3	27754.05
859.1573	1096.2879	28548.5	27674.15
859.3022	1098.2515	28522.3	27645.55
859.4472	1100.2145	28493.05	27618.8
859.5922	1102.1767	28437	27557.7
859.7371	1104.1382	28425	27550.75
859.8821	1106.099	28386.1	27507.6
860.027	1108.0591	28365	27490.45
860.172	1110.0185	28314.25	27436.7
860.3169	1111.9771	28340	27465.4
860.4619	1113.9351	28239.65	27364.95
860.6068	1115.8923	28218.25	27342.95
860.7517	1117.8488	28196.4	27318.55
860.8967	1119.8045	28022.55	27146.4
861.0416	1121.7596	27964.75	27086.55
861.1865	1123.7139	27757.9	26882.9
861.3314	1125.6675	27659.05	26784.3
861.4763	1127.6204	27641.2	26762.95
861.6212	1129.5726	27596.05	26718.5
861.7661	1131.524	27528.8	26654.6
861.911	1133.4748	27469.55	26592.55
862.0559	1135.4248	27305.7	26430.9
862.2008	1137.3741	27199.15	26322.7
862.3457	1139.3226	27107.7	26231.05
862.4905	1141.2705	27128.95	26253.55
862.6354	1143.2176	27000.1	26118.05
862.7803	1145.164	26997.15	26118.05
862.9251	1147.1097	26931.7	26053.7
863.07	1149.0546	26869.55	25989.5
863.2148	1150.9989	26858.75	25980.1
863.3597	1152.9424	26808.95	25931.7
863.5045	1154.8852	26750.55	25873.95
863.6493	1156.8272	26701.3	25824.95
863.7942	1158.7686	26667.65	25783.85
863.939	1160.7092	26583.9	25705.9
864.0838	1162.6491	26481.75	25602.1
864.2286	1164.5883	26525.75	25649.8
864.3734	1166.5267	26417	25537.45
864.5182	1168.4644	26456.8	25577.45
864.663	1170.4014	26438.05	25555.65
864.8078	1172.3377	26473.15	25597.75
864.9526	1174.2732	26428.95	25552.65
865.0974	1176.2081	26483.45	25605.8
865.2421	1178.1421	26529	25647.4
865.3869	1180.0755	26605.15	25729.05
865.5317	1182.0082	26543.95	25667.6
865.6764	1183.9401	26530.65	25652.8
865.8212	1185.8713	26420.4	25544.95
865.9659	1187.8017	26264.6	25387.95
866.1106	1189.7315	26114.6	25237.75
866.2554	1191.6605	25901.6	25024.15
866.4001	1193.5888	25761.75	24886.1
866.5448	1195.5163	25667.65	24788.5
866.6895	1197.4432	25559	24679.45
866.8342	1199.3693	25509.85	24631.45
866.9789	1201.2947	25374.15	24493.4
867.1236	1203.2193	25242.1	24365.05
867.2683	1205.1432	25262.85	24384.55
867.413	1207.0664	25159.8	24281.85
867.5576	1208.9889	25101.75	24218.95
867.7023	1210.9106	24996.95	24119.75
867.847	1212.8316	24877.45	23999.25
867.9916	1214.7519	24879.1	23991.8
868.1363	1216.6715	24794.2	23913.1
868.2809	1218.5903	24783.5	23903.35
868.4255	1220.5084	24683.25	23803.9
868.5701	1222.4257	24702.3	23824.7
868.7148	1224.3424	24575.9	23697.65
868.8594	1226.2583	24579.8	23696.95
869.004	1228.1735	24525.55	23644.25
869.1486	1230.0879	24433.2	23553.45
869.2932	1232.0016	24420.3	23541
869.4377	1233.9146	24406.35	23526
869.5823	1235.8269	24312.85	23435.55
869.7269	1237.7384	24351.6	23473.1
869.8715	1239.6492	24229.15	23351
870.016	1241.5592	24215.65	23334.55
870.1606	1243.4686	24175.25	23295.65
870.3051	1245.3772	24250.7	23373.05
870.4496	1247.285	24229.95	23349.15
870.5941	1249.1922	24244.45	23364.3
870.7387	1251.0986	24267	23387.6
870.8832	1253.0042	24218.2	23338.65
871.0277	1254.9092	24315.55	23432.25
871.1722	1256.8134	24311.25	23432.35
871.3167	1258.7169	24354.85	23475.1
871.4611	1260.6196	24372.85	23491.85
871.6056	1262.5216	24401.35	23518.85
871.7501	1264.4229	24353.75	23477.4
871.8945	1266.3234	24353.35	23473.75
872.039	1268.2232	24203.85	23322.55
872.1834	1270.1223	24102.15	23220.5
872.3278	1272.0207	24015.8	23133.7
872.4723	1273.9183	23985	23099.7
872.6167	1275.8151	23923.6	23043
872.7611	1277.7113	23936.15	23052.6
872.9055	1279.6067	23934.6	23055.55
873.0499	1281.5014	24037.55	23153.5
873.1943	1283.3953	24168.1	23286.95
873.3386	1285.2885	24367.55	23487.95
873.483	1287.181	24511.2	23629.5
873.6274	1289.0727	24587.85	23708.5
873.7717	1290.9637	24455.8	23572.9
873.9161	1292.854	24375.5	23495.7
874.0604	1294.7435	24135.35	23254.3
874.2047	1296.6323	24006.15	23124.6
874.349	1298.5204	23860.75	22976.4
874.4933	1300.4077	23729.95	22848.55
874.6376	1302.2943	23672.95	22790.9
874.7819	1304.1802	23629.85	22750.95
874.9262	1306.0653	23608.95	22725
875.0705	1307.9497	23495.55	22615.55
875.2147	1309.8333	23461.9	22581.6
875.359	1311.7162	23400	22519.25
875.5032	1313.5984	23397.75	22515.95
875.6475	1315.4798	23268.3	22384.1
875.7917	1317.3605	23251.4	22366.55
875.9359	1319.2405	23253.8	22372.85
876.0801	1321.1197	23225.3	22341.4
876.2243	1322.9982	23107.75	22221.9
876.3685	1324.876	23065.5	22185.1
876.5127	1326.753	22878.65	21998.55
876.6569	1328.6293	22885.05	22001.8
876.801	1330.5048	22775.1	21893.25
876.9452	1332.3796	22584.75	21703.8
877.0893	1334.2537	22550.3	21645.05
877.2335	1336.127	22471.05	21588.65
877.3776	1337.9996	22376.4	21495.45
877.5217	1339.8714	22295.55	21412.35
877.6658	1341.7426	22263.85	21337.9
877.8099	1343.6129	22215.3	21333.6
877.954	1345.4826	22136.65	21256.35
878.0981	1347.3515	22147.95	21264.65
878.2422	1349.2196	22066.95	21185.6
878.3862	1351.087	22040.85	21160.05
878.5303	1352.9537	22052.9	21169.15
878.6743	1354.8197	22011.95	21130.95
878.8184	1356.6849	22046.3	21164.55
878.9624	1358.5493	21937.75	21055.1
879.1064	1360.4131	21933.85	21051.75
879.2504	1362.276	21926.55	21044.7
879.3944	1364.1383	21930.55	21048.4
879.5384	1365.9998	21894.4	21007.15
879.6823	1367.8606	21831	20946.1
879.8263	1369.7206	21745.35	20863.6
879.9702	1371.5799	21698.4	20814.75
880.1142	1373.4384	21644.65	20764.55
880.2581	1375.2962	21605.4	20721.95
880.402	1377.1533	21451.9	20570.5
880.5459	1379.0096	21307.5	20425.7
880.6898	1380.8652	21253.25	20371.6
880.8337	1382.7201	21149.3	20266.8
880.9776	1384.5742	21054.5	20171.7
881.1215	1386.4275	20948.05	20064.45
881.2653	1388.2802	20845.8	19963.6
881.4092	1390.132	20797.7	19915
881.553	1391.9832	20770.3	19886.9
881.6968	1393.8336	20662.4	19780.2
881.8406	1395.6832	20582.7	19698.1
881.9844	1397.5322	20521.95	19639.35
882.1282	1399.3803	20480.45	19593.9
882.272	1401.2278	20378.55	19496.35
882.4158	1403.0745	20324.3	19442.35
882.5595	1404.9204	20200.55	19319.15
882.7033	1406.7656	20199.4	19317
882.847	1408.6101	20131.2	19248.85
882.9908	1410.4538	20018.2	19136.05
883.1345	1412.2968	19969.4	19087.9
883.2782	1414.139	19889.9	19008.75
883.4219	1415.9805	19883.75	19001.4
883.5656	1417.8213	19822.1	18918.85
883.7092	1419.6613	19711.95	18832.3
883.8529	1421.5006	19709.75	18824.85
883.9965	1423.3391	19702.6	18822.2
884.1402	1425.1769	19671.7	18787.55
884.2838	1427.0139	19728.85	18846.9
884.4274	1428.8502	19748.4	18865.55
884.571	1430.6858	19771.3	18889.65
884.7146	1432.5206	19744.4	18859.75
884.8582	1434.3547	19745.85	18863.95
885.0018	1436.188	19688.1	18804.5
885.1453	1438.0206	19661.6	18777
885.2889	1439.8524	19550.85	18666.35
885.4324	1441.6835	19567.8	18685.55
885.5759	1443.5139	19528.1	18643.25
885.7194	1445.3435	19455.7	18572.55
885.8629	1447.1724	19473.1	18592.6
886.0064	1449.0005	19456.85	18573.2
886.1499	1450.8279	19387.35	18503.15
886.2933	1452.6545	19341.55	18458.95
886.4368	1454.4804	19368.6	18487.1
886.5802	1456.3056	19266.3	18376.6
886.7237	1458.13	19241	18361
886.8671	1459.9536	19216.35	18333.05
887.0105	1461.7766	19125.35	18242.75
887.1539	1463.5987	19058.05	18175
887.2972	1465.4202	19013.45	18130.15
887.4406	1467.2409	18902.1	18016.05
887.584	1469.0608	18849.65	17969.9
887.7273	1470.88	18782.5	17898.85
887.8706	1472.6984	18735.4	17852.8
888.0139	1474.5161	18638.8	17753.3
888.1572	1476.3331	18572.6	17690.65
888.3005	1478.1493	18552.1	17668.2
888.4438	1479.9648	18525.2	17642.9
888.5871	1481.7795	18473.95	17590.25
888.7303	1483.5935	18467.45	17585.4
888.8736	1485.4067	18459.65	17575.3
889.0168	1487.2192	18425	17542.45
889.16	1489.031	18392	17506.65
889.3032	1490.842	18369.9	17487.7
889.4464	1492.6522	18339.05	17454.95
889.5896	1494.4618	18262.5	17378.8
889.7327	1496.2705	18224.85	17339.25
889.8759	1498.0785	18185.05	17299.9
890.019	1499.8858	18122.25	17238.85
890.1622	1501.6924	18076.25	17192
890.3053	1503.4981	18051.05	17166.6
890.4484	1505.3032	17997.2	17116.2
890.5914	1507.1075	17958.95	17076.55
890.7345	1508.911	17948.25	17066.25
890.8776	1510.7138	17910.75	17026.7
891.0206	1512.5159	17835.05	16952.15
891.1637	1514.3172	17752	16870.15
891.3067	1516.1178	17675.45	16794.1
891.4497	1517.9176	17686.65	16802.15
891.5927	1519.7166	17621.85	16738.3
891.7357	1521.515	17583.8	16693.9
891.8786	1523.3126	17513.05	16631
892.0216	1525.1094	17470	16583
892.1645	1526.9055	17430.7	16549.5
892.3074	1528.7008	17341.65	16458.75
892.4503	1530.4954	17242.55	16357.45
892.5932	1532.2893	17162.75	16281.9
892.7361	1534.0824	17112.15	16222.85
892.879	1535.8747	17060.05	16177.8
893.0218	1537.6663	17008.5	16124.65
893.1647	1539.4572	16944.8	16059.5
893.3075	1541.2473	16913.5	16030.65
893.4503	1543.0367	16856.8	15974.8
893.5931	1544.8253	16796.35	15909.05
893.7359	1546.6132	16776.95	15891.6
893.8787	1548.4003	16666	15774.05
894.0214	1550.1867	16708.65	15817.95
894.1642	1551.9723	16644.25	15756.6
894.3069	1553.7572	16602.4	15717.65
894.4496	1555.5414	16601.55	15718.6
894.5923	1557.3247	16529.5	15648.85
894.735	1559.1074	16522.05	15640.95
894.8777	1560.8893	16483.95	15601.4
895.0204	1562.6705	16445.8	15564.4
895.163	1564.4509	16465.95	15583.35
895.3056	1566.2305	16391.65	15510.7
895.4482	1568.0094	16407	15525.55
895.5908	1569.7876	16415.35	15532.1
895.7334	1571.565	16344.1	15462.6
895.876	1573.3417	16305.2	15423.3
896.0186	1575.1176	16264.6	15381.7
896.1611	1576.8928	16233.95	15352.8
896.3036	1578.6672	16183.4	15301.6
896.4461	1580.4409	16141.3	15259.6
896.5886	1582.2138	16119.7	15235.6
896.7311	1583.986	16101	15219
896.8736	1585.7575	16148.25	15265.95
897.0161	1587.5282	16120.25	15239.65
897.1585	1589.2981	16118.25	15236
897.3009	1591.0673	16061.05	15179.35
897.4433	1592.8358	16042.35	15161.55
897.5857	1594.6035	16025.65	15143.45
897.7281	1596.3704	15932.25	15048.75
897.8705	1598.1366	15863.5	14981.25
898.0128	1599.9021	15796.85	14915
898.1551	1601.6668	15707.6	14824.65
898.2975	1603.4308	15615.05	14731.2
898.4398	1605.194	15533.1	14643.8
898.5821	1606.9564	15508.05	14626.35
898.7243	1608.7182	15545.85	14662.15
898.8666	1610.4791	15569.05	14688.2
899.0088	1612.2394	15630.15	14751.3
899.1511	1613.9988	15650.3	14768.5
899.2933	1615.7576	15707	14826.8
899.4355	1617.5156	15753.6	14865
899.5776	1619.2728	15720.35	14837.7
899.7198	1621.0293	15618.6	14736.85
899.862	1622.785	15409.65	14525.05
900.0041	1624.54	15230.9	14348
900.1462	1626.2942	15072.9	14192.95
900.2883	1628.0477	14908	14023.05
900.4304	1629.8005	14752.1	13867.85
900.5725	1631.5525	14683.6	13801.55
900.7145	1633.3037	14549.95	13668.95
900.8566	1635.0542	14482.45	13599.75
900.9986	1636.804	14414.65	13531.9
901.1406	1638.553	14415.4	13445.9
901.2826	1640.3013	14278.2	13397.45
901.4245	1642.0488	14228.85	13345.6
901.5665	1643.7955	14178.9	13297.5
901.7085	1645.5416	14065.2	13182.8
901.8504	1647.2868	14055.65	13173.6
901.9923	1649.0313	13959.15	13075.8
902.1342	1650.7751	13954.05	13067.6
902.2761	1652.5181	13912.4	13031.35
902.4179	1654.2604	13832.45	12946.95
902.5598	1656.0019	13817.25	12937.65
902.7016	1657.7427	13778.25	12894.1
902.8434	1659.4828	13747.15	12869.05
902.9852	1661.222	13727.75	12846.65
903.127	1662.9606	13733.6	12851.85
903.2687	1664.6984	13736.9	12853.1
903.4105	1666.4354	13715.15	12833.95
903.5522	1668.1717	13701.3	12817.75
903.6939	1669.9072	13586.95	12705.8
903.8356	1671.642	13525.65	12640.6
903.9773	1673.3761	13438	12557.5
904.119	1675.1094	13376.2	12494.8
904.2606	1676.8419	13260.1	12378.1
904.4022	1678.5737	13205.1	12322.7
904.5439	1680.3048	13124.15	12239.9
904.6855	1682.0351	13070.3	12189.15
904.827	1683.7646	12994.4	12108.6
904.9686	1685.4934	12980.3	12096.7
905.1101	1687.2215	12910.75	12028.7
905.2517	1688.9488	12817.8	11933.3
905.3932	1690.6754	12757.3	11877.25
905.5347	1692.4012	12754.45	11873.1
905.6761	1694.1263	12691.6	11810.2
905.8176	1695.8506	12676.25	11793.45
905.9591	1697.5742	12644.55	11764.15
906.1005	1699.297	12568	11686.4
906.2419	1701.0191	12468.25	11586.3
906.3833	1702.7404	12449	11569.55
906.5246	1704.461	12376.4	11491.8
906.666	1706.1808	12331.2	11448.6
906.8073	1707.8999	12306.25	11421.55
906.9487	1709.6182	12274.65	11394.95
907.09	1711.3358	12238.25	11354
907.2313	1713.0527	12197.5	11318.15
907.3725	1714.7688	12138	11248.1
907.5138	1716.4841	12076.85	11190.8
907.655	1718.1987	12109.25	11221.3
907.7962	1719.9126	12073.6	11192.85
907.9374	1721.6257	11997.9	11114.2
908.0786	1723.338	12016.65	11133.7
908.2198	1725.0496	11909.75	11026.05
908.3609	1726.7605	11910.95	11028.3
908.502	1728.4706	11887.95	11005.2
908.6431	1730.18	11839	10955.85
908.7842	1731.8886	11822.5	10939.15
908.9253	1733.5964	11801.6	10899.7
909.0664	1735.3036	11768.5	10883.7
909.2074	1737.0099	11747.85	10867.4
909.3484	1738.7156	11728.6	10847.95
909.4894	1740.4204	11686.25	10800.35
909.6304	1742.1246	11683	10798.25
909.7714	1743.8279	11656.3	10776.85
909.9123	1745.5306	11648.75	10765.5
910.0532	1747.2325	11608.25	10726.6
910.1941	1748.9336	11587.2	10703.9
910.335	1750.634	11522.1	10637.4
910.4759	1752.3336	11511.9	10627.95
910.6168	1754.0325	11464.3	10583
910.7576	1755.7307	11486.25	10605.65
910.8984	1757.4281	11496.2	10614.3
911.0392	1759.1247	11478.7	10588.25
911.18	1760.8206	11441.85	10553.85
911.3208	1762.5158	11426.7	10539.05
911.4615	1764.2102	11378.2	10497.45
911.6022	1765.9039	11316.65	10434.45
911.7429	1767.5968	11307.85	10426.5
911.8836	1769.289	11296.95	10414.2
912.0243	1770.9804	11276.7	10393.55
912.1649	1772.6711	11238.2	10357.65
912.3056	1774.361	11215.25	10331.35
912.4462	1776.0502	11195.3	10312.7
912.5868	1777.7386	11160.95	10275.9
912.7274	1779.4263	11144.7	10263.55
912.8679	1781.1132	11122.35	10239.6
913.0084	1782.7994	11102.1	10219.25
913.149	1784.4849	11086.7	10206.05
913.2895	1786.1696	11046.1	10144.05
913.4299	1787.8535	11002.15	10122.65
913.5704	1789.5367	10985.15	10104.35
913.7108	1791.2192	10976.6	10096.1
913.8513	1792.9009	10935.95	10036.55
913.9917	1794.5818	10890.8	10008.1
914.132	1796.2621	10851.4	9971.05
914.2724	1797.9415	10847.95	9963.85
914.4128	1799.6202	10826.75	9943.4
914.5531	1801.2982	10793.9	9911.2
914.6934	1802.9755	10788.1	9906.6
914.8337	1804.6519	10764.6	9882.95
914.9739	1806.3277	10705.05	9823.4
915.1142	1808.0027	10668.4	9788.45
915.2544	1809.6769	10666.95	9784.15
915.3946	1811.3504	10653.35	9771.35
915.5348	1813.0231	10600.1	9718.35
915.675	1814.6951	10594.8	9713.45
915.8151	1816.3664	10608.7	9723.7
915.9553	1818.0369	10566.5	9684.05
916.0954	1819.7067	10544.65	9663.3
916.2355	1821.3757	10497.85	9613.4
916.3755	1823.044	10475.85	9593.95
916.5156	1824.7115	10439.85	9557.5
916.6556	1826.3783	10412.85	9532
916.7956	1828.0443	10393.95	9514
916.9356	1829.7096	10375.95	9494.25
917.0756	1831.3741	10381.8	9496.1
917.2155	1833.0379	10323.75	9441.8
917.3555	1834.701	10312.05	9429.15
917.4954	1836.3633	10286.3	9404.55
917.6353	1838.0248	10283.45	9400.4
917.7751	1839.6856	10241.35	9357.9
917.915	1841.3457	10239.4	9357.8
918.0548	1843.005	10191.65	9309.65
918.1946	1844.6636	10194.4	9315.5
918.3344	1846.3214	10163.05	9280.3
918.4742	1847.9785	10153.3	9271.4
918.6139	1849.6349	10102.8	9220.2
918.7537	1851.2904	10107.9	9217.25
918.8934	1852.9453	10072.2	9190.65
919.0331	1854.5994	10030.4	9146.85
919.1727	1856.2528	10043.75	9157.3
919.3124	1857.9054	10020.15	9136.45
919.452	1859.5572	10006.35	9125.2
919.5916	1861.2083	9968.4	9085.2
919.7312	1862.8587	9955.4	9072.45
919.8708	1864.5084	9929.75	9046.7
920.0103	1866.1572	9897.45	9016.4
920.1498	1867.8054	9864.1	8980.9
920.2893	1869.4528	9864.2	8981.05
920.4288	1871.0994	9844.35	8960.85
920.5683	1872.7453	9802.4	8920
920.7077	1874.3905	9769.75	8880.15
920.8471	1876.0349	9752.75	8871.6
920.9865	1877.6786	9759.85	8875.9
921.1259	1879.3215	9762.55	8881.35
921.2653	1880.9637	9741.35	8857.8
921.4046	1882.6051	9696.2	8815.45
921.5439	1884.2458	9697.75	8812.25
921.6832	1885.8858	9642.15	8760.85
921.8225	1887.525	9665.05	8782.25
921.9617	1889.1634	9625.75	8744
922.101	1890.8011	9572.25	8688.55
922.2402	1892.4381	9582.05	8700.2
922.3794	1894.0743	9554.45	8668.3
922.5185	1895.7098	9506	8625.95
922.6577	1897.3446	9481.55	8598.5
922.7968	1898.9786	9469.25	8582.55
922.9359	1900.6118	9456.55	8575.8
923.075	1902.2443	9431.55	8547.5
923.214	1903.8761	9397.05	8514.6
923.3531	1905.5071	9341.85	8459.25
923.4921	1907.1374	9328	8444.7
923.6311	1908.7669	9340.05	8457.4
923.77	1910.3957	9303.75	8421.55
923.909	1912.0237	9256.65	8375.9
924.0479	1913.651	9264.5	8382.7
924.1868	1915.2776	9224.05	8344
924.3257	1916.9034	9173.65	8293.35
924.4646	1918.5285	9138.15	8255.9
924.6034	1920.1528	9105.2	8221.55
924.7422	1921.7764	9110.45	8229.05
924.881	1923.3992	9075.45	8193.4
925.0198	1925.0213	9006.55	8124.9
925.1586	1926.6427	8985.5	8105
925.2973	1928.2633	9134.15	8041
925.436	1929.8832	8966.7	8079
925.5747	1931.5023	8904.05	8022.25
925.7134	1933.1207	8892.7	8011.45
925.852	1934.7383	8872.25	7989.2
925.9906	1936.3552	8851.45	7969.5
926.1292	1937.9714	8840.15	7957.1
926.2678	1939.5868	8802.25	7919.55
926.4064	1941.2015	8761	7879.05
926.5449	1942.8154	8716.55	7834.85
926.6834	1944.4286	8718	7833.2
926.8219	1946.041	8695.65	7791.4
926.9604	1947.6528	8640.4	7753.2
927.0988	1949.2637	8616	7737.1
927.2372	1950.8739	8593.7	7709.85
927.3756	1952.4834	8574.45	7691.3
927.514	1954.0921	8554.05	7673.75
927.6523	1955.7001	8551.95	7665.25
927.7907	1957.3074	8495.15	7614.5
927.929	1958.9139	8476.7	7594.65
928.0673	1960.5197	8465.9	7582.7
928.2055	1962.1247	8432.2	7552.05
928.3438	1963.729	8425.35	7544.5
928.482	1965.3325	8366.8	7462.3
928.6202	1966.9353	8358.85	7476.45
928.7584	1968.5374	8328.05	7444.6
928.8965	1970.1387	8318.7	7436.75
929.0346	1971.7393	8288.5	7405.35
929.1727	1973.3392	8269.4	7388.15
929.3108	1974.9383	8235.65	7354.9
929.4489	1976.5366	8177.4	7296.75
929.5869	1978.1342	8191.3	7310.65
929.7249	1979.7311	8165.5	7282.7
929.8629	1981.3273	8143.8	7262.2
930.0009	1982.9227	8148.9	7267.35
930.1388	1984.5173	8091.75	7210.15
930.2767	1986.1112	8054.45	7174.3
930.4146	1987.7044	8073.5	7195.2
930.5525	1989.2968	8049.75	7167.35
930.6904	1990.8885	8056	7172.7
930.8282	1992.4795	8029.1	7145.75
930.966	1994.0697	7992.65	7110
931.1038	1995.6592	7979.2	7097.25
931.2415	1997.2479	7922.75	7041.85
931.3793	1998.8359	7930.65	7048.6
931.517	2000.4232	7897.6	7016.6
931.6547	2002.0097	7878.05	7000.4
931.7923	2003.5955	7832.35	6951.3
931.93	2005.1805	7844.7	6963.5
932.0676	2006.7648	7806.25	6924.75
932.2052	2008.3484	7780	6896.25
932.3427	2009.9312	7797.45	6916.95
932.4803	2011.5133	7771.9	6892.5
932.6178	2013.0946	7759.15	6878.8
932.7553	2014.6752	7729.1	6851.45
932.8928	2016.2551	7716	6835.55
933.0302	2017.8342	7684	6804.95
933.1676	2019.4126	7644	6762.6
933.305	2020.9902	7631.6	6753.5
933.4424	2022.5672	7630.85	6749.45
933.5798	2024.1433	7619.9	6732.8
933.7171	2025.7188	7606.95	6728.95
933.8544	2027.2935	7590.45	6708.7
933.9917	2028.8674	7561.05	6681.05
934.129	2030.4406	7540.4	6660.15
934.2662	2032.0131	7498.15	6619.1
934.4034	2033.5849	7493.1	6609.3
934.5406	2035.1559	7487.05	6607.45
934.6778	2036.7261	7457.65	6578.4
934.8149	2038.2957	7458.35	6577.7
934.952	2039.8645	7453.2	6574.6
935.0891	2041.4325	7430.85	6544.6
935.2262	2042.9998	7407.05	6526.15
935.3632	2044.5664	7399.1	6516.55
935.5002	2046.1323	7404.55	6525.05
935.6372	2047.6974	7357.45	6476.9
935.7742	2049.2617	7346.2	6466.45
935.9111	2050.8254	7361.1	6459.6
936.048	2052.3883	7327.15	6446.1
936.1849	2053.9504	7312.75	6432.8
936.3218	2055.5118	7308.5	6427.25
936.4586	2057.0725	7295.05	6412.1
936.5955	2058.6325	7275.6	6395.15
936.7323	2060.1917	7239.2	6358.85
936.869	2061.7502	7235.75	6351.6
937.0058	2063.3079	7207.1	6326.75
937.1425	2064.8649	7208.4	6325.35
937.2792	2066.4212	7209.1	6329.1
937.4159	2067.9767	7156.85	6277.55
937.5525	2069.5315	7135.25	6255.05
937.6891	2071.0856	7097.4	6217.45
937.8257	2072.6389	7112.45	6231.4
937.9623	2074.1915	7087.3	6209.5
938.0989	2075.7433	7066.95	6183.65
938.2354	2077.2945	7051.2	6171.95
938.3719	2078.8448	7015.55	6135.65
938.5084	2080.3945	7010.75	6131.1
938.6448	2081.9434	6994.45	6115.2
938.7812	2083.4916	6990.3	6108.3
938.9176	2085.039	6953.3	6072
939.054	2086.5857	6945.8	6061.35
939.1903	2088.1317	6933.85	6051.8
939.3267	2089.677	6915.25	6033.05
939.463	2091.2215	6900.5	6017.3
939.5992	2092.7652	6900.8	6019.85
939.7355	2094.3083	6884.15	6002.25
939.8717	2095.8506	6868.65	5989.7
940.0079	2097.3921	6876.7	5995.5
940.1441	2098.933	6846.95	5968.9
940.2802	2100.4731	6844.2	5965.35
940.4163	2102.0124	6856.45	5959.35
940.5524	2103.5511	6835.95	5955.35
940.6885	2105.089	6835	5953.7
940.8245	2106.6261	6788.9	5908.95
940.9606	2108.1626	6781.15	5898.95
941.0965	2109.6983	6803.6	5894
941.2325	2111.2332	6757.35	5876.15
941.3684	2112.7675	6761.05	5879.35
941.5044	2114.301	6749	5866.3
941.6403	2115.8337	6723.9	5843.45
941.7761	2117.3657	6708.2	5829.85
941.912	2118.897	6703.15	5820.65
942.0478	2120.4276	6693.9	5806.9
942.1835	2121.9575	6666.85	5786.8
942.3193	2123.4866	6662.75	5779.2
942.455	2125.0149	6671.85	5787.65
942.5907	2126.5426	6622.6	5742.4
942.7264	2128.0695	6604.3	5720.5
942.8621	2129.5956	6577.75	5697.75
942.9977	2131.1211	6590.55	5705.8
943.1333	2132.6458	6566.75	5688.2
943.2689	2134.1698	6542.1	5662.65
943.4044	2135.693	6533.5	5651.05
943.54	2137.2155	6517.15	5636.15
943.6755	2138.7373	6522.45	5641.85
943.8109	2140.2584	6492.55	5612.3
943.9464	2141.7787	6490.9	5607.1
944.0818	2143.2983	6465.9	5587
944.2172	2144.8171	6440.2	5559.35
944.3526	2146.3353	6429.15	5546.05
944.4879	2147.8527	6400.55	5522.25
944.6232	2149.3693	6400.7	5519
944.7585	2150.8853	6382	5502.9
944.8938	2152.4005	6347.9	5467.3
945.029	2153.9149	6361.85	5481.05
945.1642	2155.4287	6322.15	5443.85
945.2994	2156.9417	6338.75	5455
945.4346	2158.454	6312.4	5428.85
945.5697	2159.9655	6287.75	5407.75
945.7048	2161.4764	6313.35	5432
945.8399	2162.9865	6263.2	5382.8
945.9749	2164.4958	6246.6	5363.25
946.1099	2166.0045	6241.85	5358.85
946.2449	2167.5124	6234.3	5354
946.3799	2169.0195	6212.55	5332.9
946.5148	2170.526	6206.4	5325.85
946.6498	2172.0317	6189.55	5305.45
946.7846	2173.5367	6182.7	5303.45
946.9195	2175.0409	6161	5280.75
947.0543	2176.5445	6159.2	5278.45
947.1891	2178.0473	6128.75	5248.95
947.3239	2179.5494	6110.3	5224.95
947.4587	2181.0507	6102	5220.75
947.5934	2182.5513	6078.55	5199.8
947.7281	2184.0512	6079.15	5198.75
947.8628	2185.5504	6047.2	5167.7
947.9974	2187.0488	6019.75	5138.5
948.132	2188.5465	6008.1	5127.9
948.2666	2190.0435	5981.6	5100.05
948.4012	2191.5397	5978.65	5098.55
948.5357	2193.0353	5972.65	5093.95
948.6702	2194.5301	5914.1	5031.15
948.8047	2196.0241	5919.95	5039.5
948.9392	2197.5175	5900.35	5021.2
949.0736	2199.0101	5907	5023.6
949.208	2200.502	5864.35	4987.05
949.3424	2201.9931	5854.2	4973.4
949.4767	2203.4835	5854.85	4973.65
949.611	2204.9733	5830.65	4943.45
949.7453	2206.4622	5816.5	4934.95
949.8796	2207.9505	5783.9	4903.15
950.0138	2209.438	5766.2	4886
950.148	2210.9248	5741	4858.45
950.2822	2212.4109	5741.6	4861.15
950.4164	2213.8962	5720.65	4836.15
950.5505	2215.3809	5708.65	4828.9
950.6846	2216.8648	5702.65	4823.05
950.8186	2218.3479	5690.05	4803.15
950.9527	2219.8304	5645.05	4760.8
951.0867	2221.3121	5640.15	4756.35
951.2207	2222.7931	5630.1	4751.6
951.3546	2224.2733	5599.25	4718.05
951.4886	2225.7529	5595.55	4713.65
951.6225	2227.2317	5588.4	4705.55
951.7563	2228.7098	5554.6	4674.8
951.8902	2230.1872	5550.55	4670.5
952.024	2231.6638	5547.8	4666.3
952.1578	2233.1397	5542.4	4655.2
952.2916	2234.6149	5503.9	4624.7
952.4253	2236.0894	5485.15	4603.65
952.559	2237.5632	5483.35	4603.05
952.6927	2239.0362	5462.65	4580.9
952.8263	2240.5085	5443.9	4563.1
952.9599	2241.9801	5440.65	4560.7
953.0935	2243.4509	5412.35	4530.9
953.2271	2244.921	5377.75	4498.45
953.3606	2246.3904	5371.05	4487.8
953.4941	2247.8591	5374	4493.2
953.6276	2249.3271	5359.25	4481.3
953.7611	2250.7943	5347.8	4466.8
953.8945	2252.2608	5319.5	4437.45
954.0279	2253.7266	5310.35	4430.15
954.1612	2255.1917	5292.3	4411.85
954.2946	2256.656	5276.45	4398.05
954.4279	2258.1197	5242.9	4361.95
954.5612	2259.5826	5249.25	4366.35
954.6944	2261.0447	5235.95	4355.2
954.8276	2262.5062	5223.2	4339.8
954.9608	2263.9669	5201.8	4319.1
955.094	2265.4269	5212.15	4330.75
955.2271	2266.8862	5197.45	4315.75
955.3602	2268.3448	5175.05	4295.1
955.4933	2269.8026	5173	4291.7
955.6264	2271.2598	5159.6	4281.45
955.7594	2272.7162	5144.7	4265.9
955.8924	2274.1719	5134.45	4252.5
956.0253	2275.6268	5122.7	4242.1
956.1583	2277.0811	5116.05	4235.65
956.2912	2278.5346	5112.4	4234.2
956.4241	2279.9874	5092.8	4212.4
956.5569	2281.4395	5082.5	4201.85
956.6897	2282.8908	5060.15	4175.35
956.8225	2284.3414	5063.45	4181.1
956.9553	2285.7914	5038.8	4159.25
957.088	2287.2406	5011.1	4129.55
957.2207	2288.689	5004.9	4122.8
957.3534	2290.1368	4992.95	4110.65
957.486	2291.5838	5007.25	4123.5
957.6186	2293.0302	4979.8	4098.15
957.7512	2294.4758	4955.7	4074.15
957.8838	2295.9206	4946.15	4063.6
958.0163	2297.3648	4936.25	4056.75
958.1488	2298.8082	4895.45	4013.7
958.2813	2300.251	4902.45	4022.85
958.4137	2301.693	4899.95	4017.65
958.5461	2303.1343	4890.7	4009.6
958.6785	2304.5748	4865.05	3984.25
958.8108	2306.0147	4855.75	3974.8
958.9432	2307.4538	4842.5	3959.2
959.0754	2308.8922	4838.1	3956.8
959.2077	2310.3299	4804.85	3925.55
959.3399	2311.7669	4788.1	3908.45
959.4721	2313.2031	4794.45	3914.55
959.6043	2314.6387	4762.7	3880.8
959.7365	2316.0735	4765.25	3884.2
959.8686	2317.5076	4742.2	3859.65
960.0006	2318.941	4752.3	3873.2
960.1327	2320.3737	4725.25	3842.3
960.2647	2321.8056	4723.65	3842.3
960.3967	2323.2369	4723.05	3843.75
960.5287	2324.6674	4693.15	3810.35
960.6606	2326.0972	4683.95	3803.15
960.7925	2327.5263	4670.65	3789.6
960.9244	2328.9547	4662.25	3780.9
961.0562	2330.3823	4652.65	3771.2
961.1881	2331.8092	4635.7	3751.5
961.3198	2333.2355	4610.8	3729.45
961.4516	2334.661	4614.4	3730.5
961.5833	2336.0858	4601.85	3717.4
961.715	2337.5098	4597.45	3717.9
961.8467	2338.9332	4583	3701.35
961.9783	2340.3558	4568.25	3685.15
962.1099	2341.7778	4547	3666.55
962.2415	2343.199	4541.7	3657.85
962.373	2344.6195	4536.05	3656.15
962.5045	2346.0393	4530.6	3651.1
962.636	2347.4583	4503.35	3622.25
962.7675	2348.8767	4510.05	3629.25
962.8989	2350.2943	4486.65	3605.05
963.0303	2351.7113	4476.2	3593.35
963.1617	2353.1275	4458.6	3576.25
963.293	2354.543	4465.4	3575.3
963.4243	2355.9578	4432.8	3552.85
963.5556	2357.3718	4426.6	3545.15
963.6868	2358.7852	4412.35	3529.3
963.818	2360.1978	4402.7	3519.7
963.9492	2361.6098	4383.75	3505.45
964.0803	2363.021	4386.05	3501.85
964.2114	2364.4315	4377.9	3493.95
964.3425	2365.8413	4350.6	3462.75
964.4736	2367.2504	4354.7	3471.25
964.6046	2368.6587	4321.8	3440.55
964.7356	2370.0664	4308.3	3427.95
964.8666	2371.4733	4303.85	3422.6
964.9975	2372.8795	4277.65	3397.2
965.1284	2374.285	4271.45	3390.8
965.2593	2375.6899	4248.9	3368.85
965.3901	2377.0939	4239.7	3359.95
965.5209	2378.4973	4230.45	3350.1
965.6517	2379.9	4224.95	3342.7
965.7825	2381.3019	4205.8	3327.3
965.9132	2382.7032	4193.75	3313.45
966.0439	2384.1037	4195.95	3318.8
966.1745	2385.5035	4165.8	3284.55
966.3051	2386.9027	4149.6	3272
966.4357	2388.3011	4157.25	3272.1
966.5663	2389.6987	4147.05	3266.35
966.6968	2391.0957	4134.2	3252.4
966.8273	2392.492	4114.55	3234.4
966.9578	2393.8876	4095.95	3212.25
967.0882	2395.2824	4084.05	3203.35
967.2186	2396.6765	4064.65	3183.65
967.349	2398.07	4043.35	3162.85
967.4793	2399.4627	4035.25	3151.45
967.6097	2400.8547	4028.75	3145.85
967.7399	2402.246	4021.2	3135.1
967.8702	2403.6366	4003.5	3120.4
968.0004	2405.0265	4000	3118.25
968.1306	2406.4156	3988.15	3101.55
968.2607	2407.8041	3955.6	3070.75
968.3909	2409.1918	3965.6	3081.05
968.521	2410.5789	3930.05	3049.75
968.651	2411.9652	3925.65	3039.95
968.781	2413.3508	3909.9	3028
968.911	2414.7358	3894.65	3013.6
969.041	2416.12	3896.7	3013.8
969.1709	2417.5035	3877.85	2995.95
969.3008	2418.8863	3858.8	2978.35
969.4307	2420.2684	3868.4	2986.8
969.5606	2421.6497	3843.85	2961.5
969.6904	2423.0304	3799.35	2917.4
969.8201	2424.4104	3808.95	2924.3
969.9499	2425.7896	3799.1	2917.05
970.0796	2427.1682	3801.6	2920
970.2093	2428.546	3780.95	2897.55
970.3389	2429.9232	3771.6	2888.75
970.4685	2431.2996	3778.5	2895.35
970.5981	2432.6753	3751.15	2870.5
970.7277	2434.0503	3763.25	2881.95
970.8572	2435.4246	3722.6	2840.95
970.9867	2436.7982	3729.75	2847.15
971.1161	2438.1711	3707.75	2825.75
971.2456	2439.5433	3694	2811.9
971.375	2440.9148	3694.05	2806.15
971.5043	2442.2856	3681.6	2800
971.6336	2443.6557	3671.5	2789.9
971.7629	2445.025	3656.05	2773.8
971.8922	2446.3937	3656.4	2774.5
972.0214	2447.7617	3657.1	2776.05
972.1506	2449.1289	3644.15	2762.9
972.2798	2450.4955	3627.95	2744.9
972.4089	2451.8613	3610.55	2729.15
972.538	2453.2265	3612.65	2731.25
972.6671	2454.5909	3597.15	2715.25
972.7961	2455.9546	3613.25	2731.8
972.9251	2457.3177	3569.05	2688.9
973.0541	2458.68	3582.5	2698.3
973.1831	2460.0416	3561.2	2679.05
973.312	2461.4025	3562.4	2680.5
973.4408	2462.7627	3560.2	2665.5
973.5697	2464.1222	3533.9	2651.6
973.6985	2465.4811	3545.55	2662.8
973.8273	2466.8392	3526.2	2646.35
973.956	2468.1966	3523.85	2638.6
974.0847	2469.5533	3517.05	2633.75
974.2134	2470.9093	3500.85	2619.7
974.3421	2472.2645	3500.75	2616.75
974.4707	2473.6191	3487.5	2608.15
974.5993	2474.973	3470.3	2588.8
974.7278	2476.3262	3473.7	2590.5
974.8563	2477.6787	3455.9	2575.3
974.9848	2479.0305	3435.45	2553.65
975.1132	2480.3816	3431	2547.3
975.2417	2481.7319	3421.7	2540.45
975.37	2483.0816	3400.65	2515.7
975.4984	2484.4306	3398.8	2516.2
975.6267	2485.7789	3378.55	2498.35
975.755	2487.1264	3371.95	2489.8
975.8833	2488.4733	3361.85	2481.9
976.0115	2489.8195	3363	2474.65
976.1397	2491.165	3349.95	2466
976.2678	2492.5097	3339.55	2454.75
976.3959	2493.8538	3319.55	2438.55
976.524	2495.1972	3322.3	2440.15
976.6521	2496.5398	3297.5	2413.15
976.7801	2497.8818	3305.85	2423.5
976.9081	2499.2231	3300.9	2419.25
977.036	2500.5637	3278.45	2395.15
977.164	2501.9035	3284.8	2402.4
977.2918	2503.2427	3270.2	2383.3
977.4197	2504.5812	3241.95	2360.85
977.5475	2505.919	3247.05	2362.5
977.6753	2507.256	3242.5	2362.25
977.8031	2508.5924	3235	2353.85
977.9308	2509.9281	3237.75	2351.05
978.0585	2511.2631	3217.95	2336.85
978.1861	2512.5974	3213.1	2332.55
978.3137	2513.9309	3195.05	2313.85
978.4413	2515.2638	3214.7	2305.3
978.5689	2516.596	3184.95	2303.9
978.6964	2517.9275	3165.7	2282.55
978.8239	2519.2583	3159.6	2278.15
978.9513	2520.5884	3161.85	2277.75
979.0788	2521.9178	3136.1	2254.1
979.2062	2523.2465	3136.8	2254.5
979.3335	2524.5745	3124.15	2243.1
979.4608	2525.9018	3115.9	2233.75
979.5881	2527.2284	3099.25	2218.65
979.7154	2528.5543	3108.9	2228.55
979.8426	2529.8796	3090.3	2210.3
979.9698	2531.2041	3086.85	2204.6
980.0969	2532.5279	3084.1	2202.6
980.224	2533.851	3069.45	2188.8
980.3511	2535.1735	3076.2	2195.15
980.4781	2536.4952	3059.5	2178.65
980.6052	2537.8163	3049.95	2168.2
980.7321	2539.1366	3037.3	2157.8
980.8591	2540.4562	3039.35	2155.55
980.986	2541.7752	3039.6	2159.35
981.1129	2543.0935	3037.3	2155.65
981.2397	2544.411	3026.7	2144.3
981.3665	2545.7279	3009.1	2129.1
981.4933	2547.0441	3004.25	2121.8
981.62	2548.3596	2992.2	2108.45
981.7467	2549.6744	3002.15	2120.35
981.8734	2550.9885	3001.85	2113.1
982.0001	2552.3019	2982.65	2103.3
982.1267	2553.6146	2995.25	2110.7
982.2532	2554.9266	2961.75	2077.75
982.3798	2556.2379	2964.55	2079.95
982.5063	2557.5485	2956.55	2076
982.6327	2558.8585	2957.4	2069.3
982.7592	2560.1677	2944.45	2058.7
982.8856	2561.4762	2945.05	2061.15
983.0119	2562.7841	2934.75	2048.1
983.1383	2564.0913	2930.35	2050.65
983.2646	2565.3977	2926.3	2047.55
983.3908	2566.7035	2917.05	2035.1
983.517	2568.0086	2919.55	2038.75
983.6432	2569.313	2910.1	2028.2
983.7694	2570.6167	2910.8	2026.55
983.8955	2571.9197	2890.85	2008.5
984.0216	2573.222	2891.85	2007.9
984.1476	2574.5236	2888.05	2005.95
984.2737	2575.8246	2877.2	1993.75
984.3996	2577.1248	2870.95	1985.75
984.5256	2578.4244	2863.4	1982.15
984.6515	2579.7232	2867.65	1985.65
984.7774	2581.0214	2884.05	1976.8
984.9032	2582.3189	2862.1	1983.05
985.029	2583.6157	2865.5	1979.9
985.1548	2584.9118	2848.65	1968.1
985.2806	2586.2072	2843.05	1961.4
985.4063	2587.5019	2819.25	1938.6
985.5319	2588.7959	2819.8	1939.9
985.6576	2590.0893	2827.65	1945.45
985.7832	2591.3819	2815.95	1935.2
985.9087	2592.6739	2809.15	1927.45
986.0343	2593.9652	2799.7	1917.9
986.1597	2595.2557	2793.15	1912.6
986.2852	2596.5456	2787.85	1906.05
986.4106	2597.8348	2778.5	1898.95
986.536	2599.1234	2757.45	1875.85
986.6614	2600.4112	2751	1871.1
986.7867	2601.6983	2744	1861
986.912	2602.9848	2748.05	1867.35
987.0372	2604.2705	2737.55	1849.3
987.1624	2605.5556	2725.4	1843.9
987.2876	2606.84	2725.3	1842.5
987.4128	2608.1237	2711.75	1830.35
987.5379	2609.4067	2705.3	1822.95
987.6629	2610.689	2691.5	1803.45
987.788	2611.9707	2688.1	1805.7
987.913	2613.2516	2680.75	1792.6
988.0379	2614.5319	2668.45	1787.35
988.1629	2615.8115	2664.8	1781.55
988.2878	2617.0903	2658.2	1776.65
988.4126	2618.3685	2645.4	1763.4
988.5375	2619.6461	2631.75	1751
988.6622	2620.9229	2641.45	1759.6
988.787	2622.199	2625.65	1743.9
988.9117	2623.4745	2611.05	1728.3
989.0364	2624.7493	2604.25	1723.7
989.161	2626.0234	2602.95	1722.25
989.2857	2627.2968	2597.7	1716.1
989.4102	2628.5695	2585.4	1702.15
989.5348	2629.8415	2567.4	1686
989.6593	2631.1128	2565.85	1684.3
989.7837	2632.3835	2561.15	1680.5
989.9082	2633.6535	2550.95	1670.1
990.0326	2634.9228	2554.35	1672.6
990.1569	2636.1914	2547.2	1666.45
990.2812	2637.4593	2542.65	1657.5
990.4055	2638.7265	2528.4	1644.65
990.5298	2639.9931	2527.65	1645.5
990.654	2641.259	2527.1	1646.15
990.7782	2642.5242	2514.55	1631.95
990.9023	2643.7887	2509.4	1628.15
991.0264	2645.0525	2504.85	1622.95
991.1505	2646.3156	2499.8	1616.6
991.2745	2647.5781	2485.3	1604.55
991.3985	2648.8398	2479.4	1598.4
991.5225	2650.1009	2477.5	1587.45
991.6464	2651.3613	2471.6	1590.95
991.7703	2652.6211	2457.85	1575.55
991.8942	2653.8801	2457.55	1575.85
992.018	2655.1385	2448.85	1564.05
992.1418	2656.3961	2437.55	1557.15
992.2655	2657.6531	2439.85	1559.85
992.3892	2658.9094	2441.4	1560.5
992.5129	2660.1651	2427.7	1547.25
992.6366	2661.42	2419.5	1538.7
992.7602	2662.6743	2418.5	1536.35
992.8837	2663.9279	2427.1	1543.75
993.0073	2665.1808	2416.6	1533.65
993.1307	2666.433	2397.4	1515.5
993.2542	2667.6846	2397.2	1518.25
993.3776	2668.9354	2396.1	1512.55
993.501	2670.1856	2394.3	1512.4
993.6244	2671.4351	2385.1	1504.9
993.7477	2672.6839	2379.9	1497.7
993.8709	2673.9321	2368.1	1488.05
993.9942	2675.1795	2366.5	1485.4
994.1174	2676.4263	2356.5	1474.75
994.2405	2677.6724	2349.5	1469.6
994.3637	2678.9179	2354.45	1470.75
994.4868	2680.1626	2359.75	1480.05
994.6098	2681.4067	2345.95	1465.2
994.7328	2682.6501	2325.15	1443.9
994.8558	2683.8928	2332.3	1450.55
994.9788	2685.1348	2334.55	1453.6
995.1017	2686.3761	2311.25	1430.05
995.2245	2687.6168	2322.05	1442.9
995.3474	2688.8568	2306.55	1425.35
995.4702	2690.0961	2294	1413.65
995.5929	2691.3348	2296.7	1413.45
995.7156	2692.5727	2283.95	1402.85
995.8383	2693.81	2275.6	1393.75
995.961	2695.0466	2276.55	1396
996.0836	2696.2826	2277.1	1394.4
996.2062	2697.5178	2276.75	1394.7
996.3287	2698.7524	2255.55	1373.2
996.4512	2699.9863	2271.55	1387.05
996.5737	2701.2195	2260.75	1380.05
996.6961	2702.452	2252.45	1369.65
996.8185	2703.6839	2235.85	1353.35
996.9408	2704.9151	2245.35	1364.95
997.0631	2706.1456	2234.05	1353.05
997.1854	2707.3755	2225.35	1342.8
997.3077	2708.6046	2224.7	1341.45
997.4299	2709.8331	2217.25	1335.75
997.552	2711.0609	2204.85	1323.5
997.6742	2712.2881	2207.2	1325.7
997.7963	2713.5145	2197.4	1315.5
997.9183	2714.7403	2196.45	1317.9
998.0403	2715.9654	2190.2	1307.65
998.1623	2717.1899	2203.6	1307.6
998.2842	2718.4136	2172.95	1290.9
998.4062	2719.6367	2183.5	1302.85
998.528	2720.8591	2168.95	1280.9
998.6498	2722.0809	2167.75	1287.4
998.7716	2723.3019	2156.35	1270.3
998.8934	2724.5223	2154.6	1274.75
999.0151	2725.7421	2149.45	1267.45
999.1368	2726.9611	2155.95	1270.75
999.2584	2728.1795	2144.05	1258.1
999.38	2729.3972	2135.45	1254.55
999.5016	2730.6142	2133.5	1239.2
999.6231	2731.8306	2112.05	1229.5
999.7446	2733.0462	2116.8	1233.5
999.8661	2734.2612	2106.7	1221.3
999.9875	2735.4756	2094.9	1212.35
1000.1089	2736.6892	2083.15	1201.85
1000.2302	2737.9022	2080.95	1201.9
1000.3515	2739.1145	2074.25	1192.45
1000.4728	2740.3262	2087.8	1201.65
1000.594	2741.5372	2074.95	1194.8
1000.7152	2742.7475	2059.25	1180.05
1000.8363	2743.9571	2058.9	1174.8
1000.9575	2745.1661	2063.65	1179.45
1001.0785	2746.3744	2048.55	1167.5
1001.1996	2747.582	2043.25	1161.1
1001.3206	2748.7889	2041.65	1159.4
1001.4415	2749.9952	2028.3	1147.45
1001.5625	2751.2008	2020.35	1139.05
1001.6833	2752.4057	2026.3	1143.3
1001.8042	2753.61	2036.25	1152.3
1001.925	2754.8136	2020.65	1139.5
1002.0458	2756.0165	2013.75	1133.9
1002.1665	2757.2188	2012.6	1130.45
1002.2872	2758.4204	1997.9	1115.8
1002.4078	2759.6213	1999.55	1115.5
1002.5285	2760.8215	1988.75	1104.5
1002.649	2762.0211	1988.25	1106.9
1002.7696	2763.22	1992.8	1109.8
1002.8901	2764.4182	1985.9	1104.3
1003.0106	2765.6158	1980.05	1098.55
1003.131	2766.8127	1976.45	1095.9
1003.2514	2768.009	1961.75	1079.9
1003.3717	2769.2045	1962.65	1078.35
1003.492	2770.3994	1955.25	1072.6
1003.6123	2771.5936	1959.1	1076.3
1003.7325	2772.7872	1945.75	1064.7
1003.8527	2773.9801	1945.15	1064.6
1003.9729	2775.1723	1959.25	1060.5
1004.093	2776.3639	1933.6	1054
1004.2131	2777.5548	1932.2	1049.35
1004.3331	2778.745	1925.85	1043.6
1004.4531	2779.9346	1916.2	1035.85
1004.5731	2781.1235	1905.75	1023.25
1004.693	2782.3117	1912.3	1033.65
1004.8129	2783.4992	1910.5	1031.95
1004.9328	2784.6861	1900.2	1018.2
1005.0526	2785.8723	1900.2	1019.85
1005.1723	2787.0579	1899.85	1017.15
1005.2921	2788.2428	1890.35	1008.2
1005.4118	2789.427	1881.25	1001.85
1005.5314	2790.6106	1877.6	996.45
1005.651	2791.7935	1879.45	997.95
1005.7706	2792.9757	1871.55	991.2
1005.8902	2794.1573	1867.3	983.55
1006.0097	2795.3382	1864.2	984.85
1006.1291	2796.5184	1863.75	984.6
1006.2485	2797.698	1850.8	968.85
1006.3679	2798.8769	1843.05	960.1
1006.4873	2800.0551	1839.9	956.5
1006.6066	2801.2327	1842.6	957.5
1006.7258	2802.4096	1850.3	970.65
1006.8451	2803.5859	1823.05	938.9
1006.9642	2804.7615	1834	953
1007.0834	2805.9364	1818.1	938.1
1007.2025	2807.1106	1827.5	948.2
1007.3216	2808.2842	1813.55	931
1007.4406	2809.4572	1822.3	942.05
1007.5596	2810.6294	1815.75	933.65
1007.6785	2811.801	1809.1	929.4
1007.7975	2812.972	1807.45	928.15
1007.9163	2814.1423	1808.35	927.25
1008.0352	2815.3119	1806.6	925.4
1008.154	2816.4808	1813.15	932.85
1008.2727	2817.6491	1825.6	935.3
1008.3914	2818.8167	1807.75	929.15
1008.5101	2819.9837	1814.1	927.5
1008.6288	2821.15	1802.1	920.85
1008.7474	2822.3157	1809.9	931.85
1008.8659	2823.4807	1818.55	937.8
1008.9844	2824.645	1834.05	952.05
1009.1029	2825.8086	1830.1	949.8
1009.2214	2826.9716	1833.1	953.65
1009.3398	2828.134	1834.85	953.95
1009.4581	2829.2957	1851.35	969.5
1009.5764	2830.4567	1850.6	972.5
1009.6947	2831.617	1853.35	970.75
1009.813	2832.7767	1855.75	976.3
1009.9312	2833.9358	1856.3	975.9
1010.0493	2835.0941	1850.55	968.45
1010.1675	2836.2519	1849.35	970.2
1010.2855	2837.4089	1833	952.45
1010.4036	2838.5653	1834.75	953.35
1010.5216	2839.7211	1828	948.05
1010.6396	2840.8761	1817.65	934
1010.7575	2842.0306	1814.1	935.05
1010.8754	2843.1843	1805.55	925.45
1010.9932	2844.3374	1807.35	927.6
1011.111	2845.4899	1815.55	935.65
1011.2288	2846.6417	1808.75	929.25
1011.3465	2847.7928	1802.1	921.7
1011.4642	2848.9433	1806.75	926.6
1011.5818	2850.0931	1799.6	919.05
1011.6995	2851.2422	1809.05	926.5
1011.817	2852.3907	1803.5	922.25
1011.9345	2853.5385	1805.7	924.85
1012.052	2854.6857	1809.75	918.75
1012.1695	2855.8323	1800.4	920.05
1012.2869	2856.9781	1795.8	915.75
1012.4042	2858.1233	1795	916.4
1012.5216	2859.2679	1808.4	928.35
1012.6389	2860.4118	1805.6	925.25
1012.7561	2861.555	1806.2	920.7
1012.8733	2862.6976	1805.85	924.05
1012.9905	2863.8395	1802.5	922.15
1013.1076	2864.9808	1799.9	919.9
1013.2247	2866.1214	1790.95	909.05
1013.3417	2867.2614	1792.5	910.65
1013.4587	2868.4007	1792.15	910.4
1013.5757	2869.5393	1793.4	911.4
1013.6926	2870.6773	1796.05	913.15
1013.8095	2871.8146	1793.4	909.4
1013.9263	2872.9513	1784.15	901.7
1014.0431	2874.0874	1791.05	910.2
1014.1599	2875.2227	1789.2	908.05
1014.2766	2876.3574	1783.75	902.5
1014.3933	2877.4915	1786.9	907.75
1014.51	2878.6249	1776	895.2
1014.6266	2879.7577	1780.8	898.45
1014.7431	2880.8898	1793.05	904.15
1014.8596	2882.0212	1786.6	908.5
1014.9761	2883.152	1782.85	902.1
1015.0925	2884.2821	1769.35	893.1
1015.2089	2885.4116	1776.8	897.6
1015.3253	2886.5405	1770.9	890.85
1015.4416	2887.6686	1782.55	898.75
1015.5579	2888.7962	1764.75	887.95
1015.6741	2889.923	1757.55	876.2
1015.7903	2891.0493	1762.7	883.25
1015.9065	2892.1748	1758.4	877.25
1016.0226	2893.2997	1751.4	873.6
1016.1387	2894.424	1752.6	874.55
1016.2547	2895.5476	1738.5	858.4
1016.3707	2896.6706	1740.75	861.4
1016.4866	2897.7929	1738.2	856.35
1016.6025	2898.9145	1736.4	855.7
1016.7184	2900.0355	1728.45	848.55
1016.8342	2901.1559	1730.15	849.55
1016.95	2902.2756	1727.15	847
1017.0658	2903.3946	1731.1	850.95
1017.1815	2904.513	1724.4	840.2
1017.2971	2905.6308	1709.65	828.85
1017.4127	2906.7479	1703.25	821.95
1017.5283	2907.8643	1718.85	837.05
1017.6439	2908.9801	1714.4	832.85
1017.7594	2910.0953	1711.5	831.3
1017.8748	2911.2098	1711.6	827.85
1017.9902	2912.3236	1709.15	819.55
1018.1056	2913.4368	1705.05	821.65
1018.2209	2914.5494	1698.1	818.45
1018.3362	2915.6613	1698.75	814.1
1018.4515	2916.7725	1690.15	808.15
1018.5667	2917.8831	1682.05	799.8
1018.6819	2918.9931	1670.65	785.9
1018.797	2920.1024	1669.3	787.45
1018.9121	2921.211	1662.4	782.55
1019.0271	2922.319	1659.35	779.75
1019.1421	2923.4264	1648.5	768.4
1019.2571	2924.5331	1651.2	772.5
1019.372	2925.6391	1640.7	760.25
1019.4869	2926.7445	1650	770.55
1019.6017	2927.8493	1640.5	759.45
1019.7165	2928.9534	1636.95	754.95
1019.8313	2930.0569	1643.7	759.4
1019.946	2931.1597	1644.3	761.9
1020.0606	2932.2619	1640.9	758.9
1020.1753	2933.3634	1642.3	760.55
1020.2899	2934.4643	1649.45	762.3
1020.4044	2935.5645	1644.05	758.3
1020.5189	2936.6641	1644.4	761.2
1020.6334	2937.763	1627.2	747.15
1020.7478	2938.8613	1631.6	750.05
1020.8622	2939.959	1632.9	748.35
1020.9765	2941.056	1618.5	739.95
1021.0908	2942.1523	1611.05	729.65
1021.2051	2943.248	1601.25	719.2
1021.3193	2944.3431	1592.85	713.35
1021.4334	2945.4375	1575.05	694.3
1021.5476	2946.5313	1569.3	689.2
1021.6617	2947.6244	1564.85	685.3
1021.7757	2948.7169	1539.6	658.4
1021.8897	2949.8087	1534.5	654.9
1022.0037	2950.8999	1518.9	637.25
1022.1176	2951.9904	1520.25	640.5
1022.2315	2953.0803	1509.6	629.3
1022.3453	2954.1696	1506.2	625.3
1022.4591	2955.2582	1487.9	609.55
1022.5728	2956.3462	1492.3	611.3
1022.6865	2957.4335	1483.9	603.25
1022.8002	2958.5202	1479.1	596.75
1022.9138	2959.6062	1480.45	599.75
1023.0274	2960.6916	1484.65	605.9
1023.141	2961.7764	1480.5	601.3
1023.2545	2962.8605	1469.25	590.15
1023.3679	2963.9439	1462.05	582.25
1023.4813	2965.0267	1467.25	585.1
1023.5947	2966.1089	1479.75	574.8
1023.708	2967.1905	1460.9	582.2
1023.8213	2968.2714	1453.95	573.75
1023.9346	2969.3516	1451.9	571.95
1024.0478	2970.4312	1456.4	567.65
1024.1609	2971.5102	1441.55	563.05
1024.274	2972.5885	1443.35	564.25
1024.3871	2973.6662	1446.4	560.95
1024.5002	2974.7432	1441.9	562
1024.6132	2975.8196	1439.5	559.15
1024.7261	2976.8954	1432.65	553
1024.839	2977.9705	1435.05	555.4
1024.9519	2979.045	1431.75	550.9
1025.0647	2980.1188	1427.15	546.4
1025.1775	2981.192	1421.7	542.45
1025.2902	2982.2645	1424.4	541.6
1025.4029	2983.3364	1414.35	536.05
1025.5156	2984.4077	1417.5	535.8
1025.6282	2985.4783	1419.9	533.35
1025.7407	2986.5483	1404.6	524.65
1025.8532	2987.6177	1399.35	519.1
1025.9657	2988.6864	1402.95	521.5
1026.0782	2989.7545	1387.95	505.55
1026.1906	2990.8219	1381.95	501.5
1026.3029	2991.8887	1383.6	502.75
1026.4152	2992.9548	1380.6	498.3
1026.5275	2994.0204	1370.45	491.05
1026.6397	2995.0852	1368.9	488.8
1026.7519	2996.1495	1373.3	493.05
1026.864	2997.2131	1354.5	475.85
1026.9761	2998.276	1352.95	474.05
1027.0882	2999.3383	1348.25	467.55
1027.2002	3000.4	1349.2	468
1027.3122	3001.4611	1342	461.55
1027.4241	3002.5215	1341.85	459.45
1027.536	3003.5812	1333.7	453.65
1027.6478	3004.6404	1334.55	455.55
1027.7596	3005.6989	1333.3	451.1
1027.8714	3006.7567	1329.75	449.25
1027.9831	3007.8139	1346.65	442.5
1028.0947	3008.8705	1321.3	440.7
1028.2064	3009.9264	1320.65	436.45
1028.3179	3010.9818	1313.85	434.1
1028.4295	3012.0364	1320.05	438.35
1028.541	3013.0905	1315.35	433.55
1028.6524	3014.1439	1310.05	428.75
1028.7638	3015.1966	1308.2	428.95
1028.8752	3016.2487	1301.75	421.45
1028.9865	3017.3002	1310.3	423.3
1029.0978	3018.3511	1305.9	426.55
1029.209	3019.4013	1298.7	417.5
1029.3202	3020.4509	1300.95	418.55
1029.4314	3021.4998	1294.9	413.6
1029.5425	3022.5481	1291.4	412.15
1029.6535	3023.5958	1290.3	409.9
1029.7645	3024.6428	1288.9	407.85
1029.8755	3025.6892	1284	404.65
1029.9864	3026.735	1281.75	403.05
1030.0973	3027.7802	1287.95	408.8
1030.2082	3028.8247	1283.65	403.65
1030.319	3029.8685	1279.4	399.1
1030.4297	3030.9118	1284.75	404.75
1030.5404	3031.9544	1274.95	394.2
1030.6511	3032.9963	1276.15	394.65
1030.7617	3034.0376	1270.55	389.6
1030.8723	3035.0783	1272.6	391.95
1030.9829	3036.1184	1266.2	385.2
1031.0934	3037.1578	1267.15	387.75
1031.2038	3038.1966	1268.25	386.1
1031.3142	3039.2348	1257.8	378.75
1031.4246	3040.2723	1268.8	379.55
1031.5349	3041.3092	1260.7	384
1031.6452	3042.3455	1254.25	373.5
1031.7554	3043.3811	1258.2	378.25
1031.8656	3044.4161	1260.3	380.15
1031.9758	3045.4505	1257.85	377.6
1032.0859	3046.4842	1260.55	380.65
1032.1959	3047.5173	1253.95	376.95
1032.3059	3048.5498	1251.85	372.6
1032.4159	3049.5816	1254.05	375.3
1032.5258	3050.6128	1255.35	372.3
1032.6357	3051.6434	1251.95	371.2
1032.7455	3052.6734	1253.2	372.05
1032.8553	3053.7027	1246.25	365.65
1032.9651	3054.7314	1250.55	371.55
1033.0748	3055.7594	1242.65	361.95
1033.1845	3056.7868	1241.95	362.4
1033.2941	3057.8136	1240.75	360.2
1033.4037	3058.8398	1236.75	358.05
1033.5132	3059.8653	1236.5	358.55
1033.6227	3060.8902	1236.15	356.6
1033.7321	3061.9145	1230.2	350.25
1033.8415	3062.9381	1231.5	351.35
1033.9509	3063.9612	1244.4	347.3
1034.0602	3064.9835	1232.75	354.3
1034.1694	3066.0053	1232.05	349.9
1034.2787	3067.0264	1226.55	347.5
1034.3878	3068.0469	1224.05	344.25
1034.497	3069.0668	1235.25	350.85
1034.6061	3070.086	1224.15	345.9
1034.7151	3071.1046	1224	343.65
1034.8241	3072.1226	1225.85	344.1
1034.9331	3073.1399	1225.4	346.15
1035.042	3074.1567	1221.1	340.4
1035.1508	3075.1727	1218.75	337.7
1035.2597	3076.1882	1210.25	331.6
1035.3684	3077.203	1214.65	336.4
1035.4772	3078.2173	1214.8	333.8
1035.5859	3079.2308	1207.5	324.8
1035.6945	3080.2438	1206.4	325.3
1035.8031	3081.2561	1203	324
1035.9117	3082.2678	1200.45	322.15
1036.0202	3083.2789	1203.1	323.05
1036.1286	3084.2893	1201.35	322.7
1036.2371	3085.2991	1201.75	322.05
1036.3454	3086.3083	1204.8	318.25
1036.4538	3087.3169	1195.6	313.15
1036.562	3088.3248	1192.7	311.1
1036.6703	3089.3321	1195.25	313.7
1036.7785	3090.3388	1192.35	313.25
1036.8866	3091.3449	1194.85	314.45
1036.9948	3092.3503	1188.55	306.15
1037.1028	3093.3551	1190.05	313.1
1037.2108	3094.3593	1181.35	301.5
1037.3188	3095.3629	1178.85	300.05
1037.4267	3096.3658	1183.45	303.1
1037.5346	3097.3681	1177.15	298.7
1037.6425	3098.3698	1176.45	294.05
1037.7503	3099.3708	1180.65	292.5
1037.858	3100.3713	1179.65	299.95
1037.9657	3101.3711	1172.75	291.6
1038.0734	3102.3702	1304.7	285.2
1038.181	3103.3688	1175.95	295.5
1038.2886	3104.3667	1167.5	286.15
1038.3961	3105.364	1167.95	290.4
1038.5036	3106.3607	1161.05	281.05
1038.611	3107.3568	1161.1	279.35
1038.7184	3108.3522	1159.3	282.45
1038.8257	3109.347	1165.1	283.15
1038.933	3110.3412	1160	275.6
1039.0403	3111.3348	1152.35	272.85
1039.1475	3112.3277	1149.5	271
1039.2547	3113.32	1153.5	274.65
1039.3618	3114.3117	1147.95	268.1
1039.4689	3115.3028	1152.25	271.15
1039.5759	3116.2932	1150.9	268.9
1039.6829	3117.2831	1152.45	267.75
1039.7898	3118.2723	1143.35	264.65
1039.8967	3119.2608	1141.1	262.45
1040.0035	3120.2488	1142.1	261.65
1040.1103	3121.2361	1138.2	258.15
1040.2171	3122.2229	1138.8	258.6
1040.3238	3123.209	1138.65	257.6
1040.4305	3124.1944	1139.85	258
1040.5371	3125.1793	1138.5	257.15
1040.6437	3126.1635	1130.25	250.3
1040.7502	3127.1471	1133.75	253.2
1040.8567	3128.1301	1131	251.25
1040.9631	3129.1125	1127.05	246.45
1041.0695	3130.0942	1127.85	248.75
1041.1759	3131.0753	1134.95	247
1041.2822	3132.0558	1125.65	242.8
1041.3884	3133.0357	1129.25	249.95
1041.4946	3134.015	1124.3	243.65
1041.6008	3134.9936	1120.2	240.2
1041.7069	3135.9716	1136.3	233.5
1041.813	3136.949	1118.7	239.25
1041.919	3137.9258	1124.4	237.25
1042.025	3138.902	1117.1	233.95
1042.1309	3139.8775	1120.25	238.9
1042.2368	3140.8524	1113.85	234.3
1042.3427	3141.8267	1115.25	234.75
1042.4485	3142.8004	1119.35	240.8
1042.5542	3143.7735	1120.5	235.5
1042.6599	3144.7459	1114.25	233.5
1042.7656	3145.7178	1119.15	240.1
1042.8712	3146.689	1110.7	232.6
1042.9768	3147.6596	1109.35	226.05
1043.0823	3148.6295	1105.7	226.55
1043.1878	3149.5989	1102.8	221.6
1043.2932	3150.5676	1102.25	221.75
1043.3986	3151.5357	1103.75	227.1
1043.5039	3152.5032	1105.8	224.8
1043.6092	3153.4701	1097.4	216
1043.7145	3154.4364	1099.3	216.9
1043.8197	3155.402	1096	220.45
1043.9248	3156.367	1095.05	213.35
1044.03	3157.3315	1138.2	219.6
1044.135	3158.2952	1096.15	215.25
1044.24	3159.2584	1089.2	210.45
1044.345	3160.221	1092	209.75
1044.4499	3161.1829	1092.05	212.45
1044.5548	3162.1442	1086.4	208
1044.6596	3163.105	1085.2	205.9
1044.7644	3164.065	1085.2	207.25
1044.8692	3165.0245	1088.55	205.8
1044.9739	3165.9834	1085.1	208.55
1045.0785	3166.9416	1081.5	201
1045.1831	3167.8993	1082.7	202.25
1045.2877	3168.8563	1080	198.35
1045.3922	3169.8127	1082.7	203.75
1045.4966	3170.7684	1082.3	203.15
1045.6011	3171.7236	1080.35	199.7
1045.7054	3172.6782	1078.35	199.35
1045.8098	3173.6321	1077.3	196.7
1045.914	3174.5854	1077.95	192.9
1046.0183	3175.5381	1074.5	194.6
1046.1224	3176.4902	1074.95	195.7
1046.2266	3177.4417	1071.35	192.45
1046.3307	3178.3926	1068.3	188.5
1046.4347	3179.3428	1068.2	189.3
1046.5387	3180.2924	1067.9	189.4
1046.6427	3181.2415	1071.35	192.1
1046.7466	3182.1899	1070.7	190.55
1046.8504	3183.1377	1067	187.55
1046.9542	3184.0848	1070.5	187.3
1047.058	3185.0314	1068.15	188.6
1047.1617	3185.9773	1064.1	184.3
1047.2654	3186.9227	1061.65	182.15
1047.369	3187.8674	1061.85	180.65
1047.4726	3188.8115	1067.3	182.15
1047.5761	3189.755	1058.6	179.15
1047.6796	3190.6979	1058.35	180.05
1047.783	3191.6402	1056.6	177.8
1047.8864	3192.5818	1054.75	174.8
1047.9898	3193.5229	1060.45	173.05
1048.0931	3194.4633	1057.75	177.55
1048.1963	3195.4031	1054.6	176.1
1048.2995	3196.3423	1055.6	177.95
1048.4027	3197.2809	1050.75	170.8
1048.5058	3198.2189	1049.1	167.75
1048.6089	3199.1563	1055.5	167.15
1048.7119	3200.0931	1050.2	171.75
1048.8148	3201.0292	1045.1	164.55
1048.9178	3201.9648	1051.05	171.75
1049.0206	3202.8997	1046.7	163.4
1049.1235	3203.834	1046.6	167.5
1049.2262	3204.7677	1043.6	165.5
1049.329	3205.7008	1043.95	162.25
1049.4317	3206.6333	1040.5	162.2
1049.5343	3207.5652	1044.85	163.25
1049.6369	3208.4964	1042.55	162.15
1049.7394	3209.4271	1041.1	160.75
1049.8419	3210.3571	1041.85	162.3
1049.9444	3211.2865	1041.1	162.6
1050.0468	3212.2154	1042.7	159
1050.1491	3213.1436	1040.15	157.15
1050.2514	3214.0712	1041.9	156.85
1050.3537	3214.9982	1031.85	152.65
1050.4559	3215.9246	1037.5	157.65
1050.5581	3216.8503	1033.4	152.55
1050.6602	3217.7755	1033	154.65
1050.7623	3218.7001	1034.3	154.15
1050.8643	3219.624	1033.45	152.9
1050.9663	3220.5473	1030.15	149.6
1051.0682	3221.4701	1032.85	152.9
1051.1701	3222.3922	1028.5	147.15
1051.2719	3223.3137	1027.35	149.95
1051.3737	3224.2346	1028	147.6
1051.4754	3225.1549	1030.05	150.25
1051.5771	3226.0746	1026.2	148
1051.6788	3226.9937	1021.3	142.65
1051.7804	3227.9121	1021.7	144.8
1051.8819	3228.83	1025	145.05
1051.9834	3229.7473	1023.2	143.4
1052.0849	3230.6639	1023.25	143.9
1052.1863	3231.5799	1020.95	142.4
1052.2876	3232.4954	1024.45	143.5
1052.3889	3233.4102	1021	142.25
1052.4902	3234.3244	1015.2	134.5
1052.5914	3235.238	1015.85	136.6
1052.6926	3236.151	1041.9	140.85
1052.7937	3237.0634	1016.35	139.85
1052.8948	3237.9752	1012.65	132.25
1052.9958	3238.8864	1014.95	133.4
1053.0968	3239.797	1012.2	132.5
1053.1977	3240.7069	1017.95	140.3
1053.2986	3241.6163	1017.1	136.05
1053.3994	3242.5251	1010	131.6
1053.5002	3243.4332	1011.2	133
1053.6009	3244.3408	1013.95	132.8
1053.7016	3245.2477	1008.05	129.5
1053.8022	3246.154	1009.4	127.5
1053.9028	3247.0598	1010.35	131.7
1054.0034	3247.9649	1009.6	130.85
1054.1039	3248.8694	1005.5	124.75
1054.2043	3249.7733	1006.8	127.1
1054.3047	3250.6766	1002.5	122.65
1054.4051	3251.5793	1007	124.45
1054.5054	3252.4814	1003.7	124.95
1054.6056	3253.3829	1004.05	123.85
1054.7058	3254.2838	1000.35	120.6
1054.806	3255.1841	996.9	116.7
1054.9061	3256.0838	1000.8	121.9
1055.0061	3256.9829	997.8	118.6
1055.1062	3257.8814	1001	120.5
1055.2061	3258.7792	1000	119.15
1055.306	3259.6765	996.8	115.5
1055.4059	3260.5731	992.15	112.1
1055.5057	3261.4692	993.25	111.25
1055.6055	3262.3647	990	109.15
1055.7052	3263.2595	991.35	112.75
1055.8049	3264.1538	988.8	108.4
1055.9045	3265.0474	986.25	105.7
1056.0041	3265.9404	980.65	100
1056.1036	3266.8329	983.2	102.9
1056.2031	3267.7247	993.25	104.45
1056.3025	3268.616	980.05	99.8
1056.4019	3269.5066	978.3	98.4
1056.5013	3270.3966	973.45	91.15
1056.6005	3271.286	968.2	89.25
