Software Version:	3.9.2.0
Unit SN:	10000200
Spectrometer SN:	6960
Date:	3/6/2024 9:53:38 AM
Data Line Index:	25
Spectral Points:	2048
Integration time (ms):	125
Averages:	20
Delay (ms):	30
Sequence Number:	1
Processing:	dark subtract
Laser Power (mW):	300
Laser Current (mA):	826
Laser Diode Temp (C):	25.1
Laser Case Temp (C):	24.5
System Temp (C):	24.3
Spectrometer Temp (C):	21.8
CCD Temp (C):	-0.003
Secondary Temp (C):	20.011
Heatsink Temp (C):	18.262
CCDPCB Temp (C):	30.571
SecondaryPCB Temp (C):	26.203

Wavelength	RamanShift	Raw Counts	Dark Subtracted
787.061	30.1047	439.65	32.35
787.2016	32.3739	439.05	34.7
787.3422	34.6426	441.3	32.75
787.4828	36.9109	447.75	38.1
787.6235	39.1787	452.1	40.3
787.7642	41.4461	459.45	43.2
787.9049	43.7131	467.65	46.9
788.0456	45.9796	470.95	48.5
788.1863	48.2456	477.55	50.05
788.3271	50.5112	482	49.3
788.4679	52.7764	490.65	56.5
788.6087	55.0411	498.25	60.05
788.7496	57.3054	507.7	62.05
788.8904	59.5692	513.85	67.9
789.0313	61.8326	522.9	76.35
789.1722	64.0955	527.5	77.4
789.3132	66.3579	539.4	83.55
789.4541	68.6199	551.7	92.85
789.5951	70.8815	569.3	105.05
789.7361	73.1426	611.25	145.35
789.8771	75.4032	703.9	231.75
790.0181	77.6634	933.65	458.5
790.1592	79.9231	1489.2	1009
790.3003	82.1824	2618.95	2131.75
790.4414	84.4412	4614.05	4109.3
790.5825	86.6995	7314.4	6792.25
790.7237	88.9574	10012.8	9472.45
790.8648	91.2148	11987.45	11439.6
791.006	93.4717	13104.65	12542.85
791.1472	95.7282	13608.1	13044.3
791.2885	97.9842	13903.45	13340.1
791.4297	100.2398	13959.9	13395.1
791.571	102.4949	13981.95	13414
791.7123	104.7495	13987	13413.15
791.8536	107.0036	13982.85	13407.75
791.9949	109.2573	13954.4	13383.4
792.1363	111.5105	13964.35	13388.3
792.2777	113.7632	13924.3	13347.9
792.4191	116.0154	13944.1	13356.3
792.5605	118.2672	14000.55	13419.6
792.7019	120.5185	13989.05	13404.15
792.8434	122.7693	14024.35	13436.75
792.9849	125.0197	14034.1	13443.45
793.1264	127.2696	14041.55	13446.65
793.2679	129.519	14086.35	13488.9
793.4094	131.7679	14102.25	13501.55
793.551	134.0163	14123.7	13519.9
793.6926	136.2642	14145.5	13538.6
793.8342	138.5117	14169.9	13559.5
793.9758	140.7587	14169.8	13556.95
794.1175	143.0052	14213.35	13599.4
794.2591	145.2512	14179.85	13566.25
794.4008	147.4967	14118.7	13502.3
794.5425	149.7417	14152.1	13535.75
794.6842	151.9863	14150.6	13526.9
794.826	154.2304	14164.65	13537.4
794.9677	156.4739	14117.45	13483.45
795.1095	158.717	14127.7	13495.9
795.2513	160.9596	14163	13522.6
795.3931	163.2017	14142.25	13503
795.535	165.4433	14156.6	13514.65
795.6768	167.6844	14173.75	13530.55
795.8187	169.925	14174.65	13525.65
795.9606	172.1651	14123.35	13475.85
796.1025	174.4047	14141.3	13488.9
796.2445	176.6439	14147.8	13495.1
796.3864	178.8825	14120.2	13464
796.5284	181.1206	14159.25	13496.05
796.6704	183.3582	14158.75	13492.2
796.8124	185.5954	14185.4	13522.7
796.9544	187.832	14174.7	13503.35
797.0965	190.0681	14211.15	13537.6
797.2386	192.3037	14241.15	13564.15
797.3806	194.5388	14240.15	13559
797.5228	196.7734	14276	13594.55
797.6649	199.0075	14301.5	13616.8
797.807	201.2411	14364.95	13680.7
797.9492	203.4742	14378.2	13691.05
798.0914	205.7068	14466	13774.45
798.2336	207.9389	14457.15	13762.7
798.3758	210.1704	14500.65	13816.75
798.518	212.4015	14479	13805.75
798.6603	214.632	14502.65	13834
798.8025	216.862	14512	13844.35
798.9448	219.0915	14499.35	13827.55
799.0871	221.3205	14548.45	13870.5
799.2294	223.549	14588.35	13920.3
799.3718	225.777	14598.25	13929.05
799.5141	228.0044	14594.5	13918.05
799.6565	230.2314	14649.25	13970.8
799.7989	232.4578	14668.05	13983.1
799.9413	234.6837	14672.45	13983
800.0837	236.909	14693.45	13997.85
800.2262	239.1339	14661.7	13940.75
800.3687	241.3582	14682.9	13981.3
800.5111	243.582	14707.95	13974.65
800.6536	245.8053	14755.3	14037.75
800.7961	248.0281	14715.05	13997.85
800.9387	250.2503	14711.65	13991.35
801.0812	252.472	14758.95	14034.75
801.2238	254.6932	14798.95	14080.4
801.3664	256.9139	14763.2	14041.35
801.509	259.134	14763.75	14035.55
801.6516	261.3536	14792.45	14067.25
801.7942	263.5727	14796.05	14068.75
801.9369	265.7912	14801.3	14075.35
802.0795	268.0092	14851.9	14121.3
802.2222	270.2267	14878.85	14154.1
802.3649	272.4436	14871.8	14143.5
802.5076	274.6601	14913.55	14173.55
802.6504	276.8759	14899.4	14163.1
802.7931	279.0913	14907.85	14173.85
802.9359	281.3061	14875.85	14137.5
803.0787	283.5204	14929.15	14189.35
803.2215	285.7341	14937.65	14195.5
803.3643	287.9473	14985.45	14232.6
803.5071	290.16	14961.95	14217.65
803.6499	292.3721	14944.35	14205.1
803.7928	294.5837	14936.05	14193.45
803.9357	296.7947	14900.65	14158.7
804.0786	299.0052	14910.75	14168.75
804.2215	301.2152	14871.55	14123.75
804.3644	303.4246	14884.65	14139.9
804.5074	305.6334	14878.7	14132.4
804.6503	307.8418	14893.7	14146.1
804.7933	310.0495	14909.75	14158.5
804.9363	312.2568	14846.15	14094.7
805.0793	314.4635	14783.7	14031.3
805.2223	316.6696	14762.75	14009.35
805.3653	318.8752	14717.35	13952.05
805.5084	321.0802	14695.55	13939.5
805.6514	323.2847	14680.2	13921.4
805.7945	325.4887	14646.65	13886.4
805.9376	327.692	14659.9	13899.9
806.0807	329.8949	14718.2	13956.85
806.2238	332.0972	14720.9	13956.15
806.367	334.2989	14709.8	13941.25
806.5101	336.5001	14687.1	13916.9
806.6533	338.7007	14712.8	13944.5
806.7965	340.9008	14721	13953.45
806.9397	343.1003	14681.05	13907.8
807.0829	345.2992	14675.5	13903.75
807.2261	347.4976	14616.85	13841.95
807.3693	349.6955	14628.45	13849.55
807.5126	351.8927	14667.4	13888.85
807.6559	354.0895	14620.2	13829.15
807.7991	356.2856	14607.5	13828.05
807.9424	358.4812	14568.45	13789.25
808.0857	360.6763	14622.35	13840.2
808.2291	362.8707	14590.05	13804.95
808.3724	365.0646	14625.7	13837.6
808.5158	367.258	14566.55	13779.8
808.6591	369.4508	14557.95	13766.5
808.8025	371.643	14573.3	13778.95
808.9459	373.8346	14526.75	13735.4
809.0893	376.0257	14527.75	13730.25
809.2327	378.2162	14523.8	13724.25
809.3762	380.4062	14537.35	13741.5
809.5196	382.5956	14459.15	13666.1
809.6631	384.7844	14471.1	13677.4
809.8066	386.9726	14418.7	13630.5
809.9501	389.1603	14393.3	13607.5
810.0936	391.3474	14403.35	13584
810.2371	393.5339	14377.9	13588.8
810.3806	395.7199	14313.85	13527.55
810.5241	397.9052	14325.6	13537.45
810.6677	400.09	14322.35	13537.65
810.8113	402.2743	14358.7	13568.5
810.9548	404.4579	14304.55	13512.7
811.0984	406.641	14367.25	13572.5
811.2421	408.8235	14356.75	13561.5
811.3857	411.0054	14407.5	13612.3
811.5293	413.1868	14482.6	13681.15
811.673	415.3675	14524.45	13721
811.8166	417.5477	14525.1	13719.35
811.9603	419.7273	14434.75	13627.85
812.104	421.9064	14348.2	13533.6
812.2477	424.0848	14290.4	13478.15
812.3914	426.2627	14225.85	13416.3
812.5351	428.4399	14192.6	13382.75
812.6788	430.6166	14134.55	13320.8
812.8226	432.7928	14097.5	13281.35
812.9663	434.9683	14035.8	13220.65
813.1101	437.1432	14009.8	13193.85
813.2539	439.3176	13956.7	13144.5
813.3977	441.4914	13911.05	13101.8
813.5415	443.6645	13908	13097
813.6853	445.8371	13869.3	13054.45
813.8291	448.0091	13801.2	12983.55
813.973	450.1806	13759.4	12943.8
814.1168	452.3514	13737.7	12921.2
814.2607	454.5216	13741.5	12916.55
814.4046	456.6913	13667.5	12848.15
814.5485	458.8603	13696.4	12879.35
814.6924	461.0288	13680.8	12864.15
814.8363	463.1967	13644.3	12830.75
814.9802	465.3639	13644.25	12826.25
815.1241	467.5306	13598.4	12778.55
815.2681	469.6967	13591.85	12775.35
815.412	471.8622	13518.9	12704.35
815.556	474.0271	13536.7	12720.45
815.7	476.1914	13496.35	12673.8
815.844	478.3551	13530.1	12706.7
815.988	480.5182	13523.45	12702.6
816.132	482.6807	13531.3	12714.3
816.276	484.8426	13546.7	12733.5
816.4201	487.0039	13555.55	12738.3
816.5641	489.1647	13580.2	12759.6
816.7082	491.3248	13588.9	12765.7
816.8522	493.4843	13581.2	12758.8
816.9963	495.6432	13573	12750.45
817.1404	497.8015	13550.65	12722.25
817.2845	499.9592	13565.2	12732.65
817.4286	502.1163	13515.75	12685.15
817.5727	504.2728	13474.2	12645.9
817.7168	506.4287	13485.75	12662
817.861	508.5839	13436.4	12611.75
818.0051	510.7386	13428.45	12603.2
818.1493	512.8927	13412.05	12578.9
818.2935	515.0461	13424.8	12591.8
818.4377	517.199	13405.05	12571.55
818.5818	519.3512	13411.4	12578.35
818.726	521.5029	13439.1	12599.8
818.8703	523.6539	13422.1	12588.7
819.0145	525.8043	13426.9	12592.55
819.1587	527.9541	13395.5	12557.7
819.303	530.1033	13362.25	12523.55
819.4472	532.2519	13311.45	12474.2
819.5915	534.3999	13302.75	12462.5
819.7357	536.5472	13275.55	12438.3
819.88	538.694	13291.35	12456.1
820.0243	540.8401	13300.65	12461.75
820.1686	542.9856	13303.25	12459.95
820.3129	545.1305	13268.85	12422
820.4572	547.2748	13305.55	12460.65
820.6016	549.4185	13276.55	12430.05
820.7459	551.5615	13249.6	12404.25
820.8902	553.704	13250.85	12403.9
821.0346	555.8458	13222.4	12383.35
821.1789	557.987	13235.35	12392.2
821.3233	560.1276	13207.15	12360.5
821.4677	562.2675	13244.2	12398.1
821.6121	564.4069	13240.1	12395.1
821.7565	566.5456	13237	12391.5
821.9009	568.6837	13230.2	12387.8
822.0453	570.8212	13182.65	12340.65
822.1897	572.958	13147.6	12300.2
822.3342	575.0942	13114.6	12273.2
822.4786	577.2299	13056	12210.9
822.6231	579.3648	12992.85	12153.35
822.7675	581.4992	12903.55	12065.1
822.912	583.6329	12892.75	12056.7
823.0565	585.766	12871.25	12035.15
823.201	587.8985	12854.8	12014
823.3454	590.0304	12853.3	11994.7
823.4899	592.1616	12837.15	11989.1
823.6345	594.2922	12816	11966.6
823.779	596.4222	12762.05	11909.4
823.9235	598.5515	12722.8	11867.8
824.068	600.6802	12696.75	11843.6
824.2126	602.8083	12602.9	11751.25
824.3571	604.9358	12606.6	11756.25
824.5017	607.0626	12566.05	11712.6
824.6462	609.1888	12550.95	11692.5
824.7908	611.3144	12551.4	11695.15
824.9354	613.4393	12533.2	11678
825.08	615.5636	12544.15	11684.85
825.2246	617.6873	12538.7	11682.1
825.3692	619.8103	12593	11735.55
825.5138	621.9327	12549.9	11687.9
825.6584	624.0544	12513.65	11657.3
825.803	626.1756	12476.05	11624.45
825.9477	628.2961	12457.35	11599.25
826.0923	630.4159	12437.45	11578.65
826.237	632.5351	12413.4	11553.85
826.3816	634.6537	12413.75	11551.8
826.5263	636.7716	12402.5	11538.05
826.6709	638.8889	12384.7	11523.05
826.8156	641.0056	12421.2	11555.8
826.9603	643.1216	12346.1	11479.8
827.105	645.237	12379.05	11513.95
827.2497	647.3518	12358.65	11498.15
827.3944	649.4659	12376.1	11518.5
827.5391	651.5793	12338.6	11480.5
827.6838	653.6922	12285.65	11425
827.8285	655.8043	12265.65	11405.75
827.9733	657.9159	12248.4	11386.7
828.118	660.0268	12201.2	11335.2
828.2627	662.137	12200.85	11337.05
828.4075	664.2466	12231.4	11364.55
828.5522	666.3556	12206.45	11341
828.697	668.4639	12150.4	11285.05
828.8418	670.5716	12163.45	11304
828.9865	672.6786	12145.8	11281.05
829.1313	674.785	12116.3	11246.1
829.2761	676.8907	12099.7	11233.25
829.4209	678.9958	12040.45	11178.35
829.5657	681.1002	12002.4	11136.35
829.7105	683.204	12008.7	11131.55
829.8553	685.3072	11980.5	11109.35
830.0001	687.4097	11966.95	11098.15
830.1449	689.5115	11983.6	11109.85
830.2898	691.6127	11998.95	11131.55
830.4346	693.7132	11934.65	11066.95
830.5794	695.8131	11968.25	11094.35
830.7243	697.9123	11939.95	11066.95
830.8691	700.0109	11928.3	11056.3
831.014	702.1089	11912.5	11044.55
831.1588	704.2061	11897.5	11027.7
831.3037	706.3028	11905.35	11029.15
831.4486	708.3987	11896.05	11022.75
831.5935	710.4941	11883.9	11014.15
831.7383	712.5887	11876.8	11004.35
831.8832	714.6827	11866.4	10991.3
832.0281	716.7761	11841	10970.3
832.173	718.8688	11848.65	10974.15
832.3179	720.9608	11816.7	10939.8
832.4628	723.0522	11862.2	10981.55
832.6077	725.1429	11796.75	10919.9
832.7527	727.233	11822.5	10948.25
832.8976	729.3224	11847.55	10973.4
833.0425	731.4112	11814.95	10940.4
833.1874	733.4993	11807.2	10928.65
833.3324	735.5867	11773.7	10897.05
833.4773	737.6735	11746.1	10870.3
833.6222	739.7596	11698.15	10819.85
833.7672	741.845	11670.35	10794.5
833.9122	743.9298	11661	10780.85
834.0571	746.014	11630.65	10754.55
834.2021	748.0974	11624.35	10746.4
834.347	750.1802	11617.55	10736.95
834.492	752.2624	11575.75	10693.8
834.637	754.3439	11524.7	10638.4
834.782	756.4247	11475.15	10581.3
834.9269	758.5048	11427.1	10548.25
835.0719	760.5843	11387	10503.85
835.2169	762.6631	11367.25	10485.4
835.3619	764.7413	11378.75	10496.95
835.5069	766.8188	11397.35	10513.2
835.6519	768.8956	11379.65	10498.3
835.7969	770.9718	11432.75	10550.55
835.9419	773.0473	11343.9	10461.95
836.0869	775.1221	11353.45	10472.95
836.232	777.1962	11312	10430.5
836.377	779.2697	11307.8	10422.2
836.522	781.3426	11313.5	10408.85
836.667	783.4147	11298.35	10415.45
836.8121	785.4862	11289.35	10409.4
836.9571	787.557	11261.2	10376.05
837.1021	789.6271	11199.25	10311.7
837.2472	791.6966	11170.8	10285.55
837.3922	793.7654	11060.15	10173.9
837.5373	795.8335	11037.3	10154.15
837.6823	797.901	10987	10101.95
837.8274	799.9678	10968.1	10080.3
837.9724	802.0339	10964.8	10081.2
838.1175	804.0993	10952.05	10056.95
838.2626	806.1641	10907.85	10019.75
838.4076	808.2282	10905.05	10018.85
838.5527	810.2916	10890.4	10003.65
838.6978	812.3544	10856.2	9972.65
838.8428	814.4164	10851.1	9964.75
838.9879	816.4778	10865.7	9978.1
839.133	818.5385	10821.9	9935.15
839.2781	820.5986	10830.3	9942.25
839.4232	822.658	10810.3	9919.35
839.5682	824.7166	10800.65	9914.7
839.7133	826.7747	10857.55	9972.05
839.8584	828.832	10896.75	10011.35
840.0035	830.8886	10842.25	9952.65
840.1486	832.9446	10833.5	9944.95
840.2937	834.9999	10780.4	9891.3
840.4388	837.0545	10781.35	9886.5
840.5839	839.1085	10745.2	9854.9
840.729	841.1618	10714.7	9819.9
840.8741	843.2143	10652.8	9763.05
841.0192	845.2662	10607.35	9719.7
841.1643	847.3175	10581.5	9692.05
841.3095	849.368	10578.5	9691.55
841.4546	851.4179	10550.8	9658.65
841.5997	853.467	10520.2	9630.45
841.7448	855.5155	10490.05	9596.5
841.8899	857.5633	10503.85	9613.55
842.0351	859.6105	10473.15	9582.25
842.1802	861.6569	10441.85	9548.35
842.3253	863.7027	10441.25	9547.4
842.4704	865.7478	10434	9542.95
842.6156	867.7922	10425.25	9535.1
842.7607	869.8359	10352.85	9463.15
842.9058	871.8789	10364.35	9471.3
843.0509	873.9212	10395.35	9470.9
843.1961	875.9629	10330.95	9438.35
843.3412	878.0039	10324.4	9432.75
843.4863	880.0441	10333.9	9443.7
843.6315	882.0837	10314.1	9421.45
843.7766	884.1226	10324.25	9431.2
843.9218	886.1609	10331.2	9439.15
844.0669	888.1984	10341.3	9450.45
844.212	890.2352	10350.1	9460.6
844.3572	892.2714	10335.8	9439.05
844.5023	894.3069	10348.25	9454.85
844.6475	896.3416	10275.9	9382.65
844.7926	898.3757	10257.6	9362.4
844.9377	900.4091	10231.15	9338.8
845.0829	902.4418	10214.1	9312.6
845.228	904.4739	10206.75	9309.15
845.3732	906.5052	10195	9300.55
845.5183	908.5358	10183.7	9285.7
845.6635	910.5658	10133.8	9235.95
845.8086	912.595	10119.85	9226.1
845.9538	914.6236	10063.05	9166.45
846.0989	916.6515	10064.9	9170.95
846.2441	918.6786	10027.95	9131.85
846.3892	920.7051	10011.75	9114.85
846.5344	922.7309	9996.8	9101.8
846.6795	924.756	9968.75	9071.75
846.8246	926.7804	9955.3	9057.25
846.9698	928.8041	9892.85	8994.8
847.1149	930.8272	9919.3	9020.25
847.2601	932.8495	9877.6	8979.05
847.4052	934.8711	9867.8	8965.9
847.5504	936.892	9842.05	8945.95
847.6955	938.9123	9819.15	8918.85
847.8407	940.9318	9823.65	8924.7
847.9858	942.9506	9785.05	8886.9
848.131	944.9688	9750.5	8852.45
848.2761	946.9862	9712.5	8815.75
848.4213	949.003	9661.95	8765.8
848.5664	951.019	9631.5	8732.85
848.7115	953.0344	9634	8735.8
848.8567	955.0491	9583.2	8684.7
849.0018	957.063	9594.85	8696.3
849.147	959.0763	9580.5	8681.7
849.2921	961.0888	9561.5	8662.3
849.4373	963.1007	9526.35	8631.2
849.5824	965.1119	9527.35	8631
849.7275	967.1223	9514.1	8620.25
849.8727	969.1321	9510	8621.8
850.0178	971.1412	9510.6	8618.7
850.1629	973.1495	9480.75	8585.5
850.3081	975.1572	9496.55	8565.6
850.4532	977.1641	9433.15	8534.25
850.5983	979.1704	9405.9	8508.1
850.7435	981.1759	9410.95	8508.7
850.8886	983.1808	9400.75	8499.3
851.0337	985.1849	9386.25	8474
851.1788	987.1884	9357.25	8458.05
851.324	989.1911	9342.8	8442.1
851.4691	991.1932	9312.45	8413.2
851.6142	993.1945	9259.7	8363.7
851.7593	995.1951	9206.35	8305.95
851.9045	997.1951	9213.05	8305.2
852.0496	999.1943	9182.45	8284.1
852.1947	1001.1928	9168.8	8266.9
852.3398	1003.1906	9128.2	8228.45
852.4849	1005.1877	9130.3	8230.65
852.63	1007.1841	9107.6	8207.4
852.7751	1009.1798	9075.45	8177.35
852.9202	1011.1748	9014.9	8112.85
853.0653	1013.1691	9019.25	8118
853.2104	1015.1627	8968.3	8069.7
853.3555	1017.1556	8919.65	8019.85
853.5006	1019.1477	8903.95	8006.95
853.6457	1021.1392	8837.05	7940.2
853.7908	1023.1299	8803.85	7908.15
853.9359	1025.12	8774.65	7879.2
854.081	1027.1093	8760.75	7871.8
854.2261	1029.0979	8733.2	7846.75
854.3712	1031.0859	8710.65	7820.45
854.5163	1033.0731	8693.95	7797.6
854.6613	1035.0596	8676.05	7777.9
854.8064	1037.0454	8615.75	7716.75
854.9515	1039.0304	8620.95	7719.3
855.0965	1041.0148	8572.3	7672.3
855.2416	1042.9985	8561.5	7660.6
855.3867	1044.9814	8539.65	7641.55
855.5317	1046.9636	8483.05	7584.35
855.6768	1048.9452	8469.75	7568.9
855.8219	1050.926	8446	7547.6
855.9669	1052.9061	8422.25	7523.8
856.112	1054.8855	8421.3	7519.55
856.257	1056.8642	8401.8	7500.2
856.4021	1058.8421	8387.9	7484.75
856.5471	1060.8194	8370.6	7469.95
856.6921	1062.7959	8353.15	7453.95
856.8372	1064.7717	8370.75	7468.2
856.9822	1066.7469	8341.05	7438.15
857.1272	1068.7213	8311	7408.15
857.2723	1070.695	8311.85	7411.9
857.4173	1072.6679	8264.25	7363.45
857.5623	1074.6402	8284.95	7384.1
857.7073	1076.6117	8259.75	7354.35
857.8523	1078.5826	8252.95	7350.35
857.9973	1080.5527	8223.65	7320.55
858.1423	1082.5221	8170.55	7269.6
858.2873	1084.4908	8168.05	7267.6
858.4323	1086.4587	8140.8	7239.2
858.5773	1088.426	8142.7	7239.55
858.7223	1090.3925	8099.95	7194.45
858.8673	1092.3584	8091.55	7191.2
859.0123	1094.3235	8060.85	7159.05
859.1573	1096.2879	8055.6	7154.1
859.3022	1098.2515	8054.8	7153.5
859.4472	1100.2145	8040.9	7141.95
859.5922	1102.1767	8033.35	7126.55
859.7371	1104.1382	8028.1	7130.6
859.8821	1106.099	8030.9	7130
860.027	1108.0591	8027.65	7130.4
860.172	1110.0185	8020.65	7119.75
860.3169	1111.9771	8029.6	7127.1
860.4619	1113.9351	8015.25	7112.3
860.6068	1115.8923	8024.55	7122.65
860.7517	1117.8488	7996.65	7092.2
860.8967	1119.8045	7946.95	7044.95
861.0416	1121.7596	7898.35	6997.8
861.1865	1123.7139	7841	6944.05
861.3314	1125.6675	7813.85	6911.95
861.4763	1127.6204	7812.1	6910.6
861.6212	1129.5726	7811.55	6911.4
861.7661	1131.524	7796.9	6895.75
861.911	1133.4748	7757.85	6855
862.0559	1135.4248	7736.25	6834.15
862.2008	1137.3741	7702.4	6801.85
862.3457	1139.3226	7683.6	6779
862.4905	1141.2705	7672.2	6771.9
862.6354	1143.2176	7629.55	6720.15
862.7803	1145.164	7606.4	6702.65
862.9251	1147.1097	7617.35	6714.05
863.07	1149.0546	7588.6	6686.6
863.2148	1150.9989	7593.25	6692.7
863.3597	1152.9424	7553.9	6649.65
863.5045	1154.8852	7542.35	6640.55
863.6493	1156.8272	7541.15	6639.4
863.7942	1158.7686	7534.95	6623.5
863.939	1160.7092	7513.4	6610
864.0838	1162.6491	7482.15	6577.2
864.2286	1164.5883	7489.65	6588.65
864.3734	1166.5267	7469.9	6568.1
864.5182	1168.4644	7471.75	6569.25
864.663	1170.4014	7483.45	6575.2
864.8078	1172.3377	7493.25	6592.4
864.9526	1174.2732	7508.95	6608.1
865.0974	1176.2081	7551.1	6650.35
865.2421	1178.1421	7569.35	6664.9
865.3869	1180.0755	7584.25	6683.85
865.5317	1182.0082	7589.65	6689.15
865.6764	1183.9401	7566.3	6661.95
865.8212	1185.8713	7528.2	6629.1
865.9659	1187.8017	7461.25	6565.15
866.1106	1189.7315	7376.85	6485
866.2554	1191.6605	7312.5	6420.25
866.4001	1193.5888	7299.65	6402.65
866.5448	1195.5163	7284.4	6386.75
866.6895	1197.4432	7254.5	6352.45
866.8342	1199.3693	7220.65	6317.95
866.9789	1201.2947	7172.3	6263.6
867.1236	1203.2193	7130.5	6229.9
867.2683	1205.1432	7145.4	6244.45
867.413	1207.0664	7139.3	6238.85
867.5576	1208.9889	7109.7	6206.05
867.7023	1210.9106	7081.35	6179.65
867.847	1212.8316	7048.95	6148.05
867.9916	1214.7519	7052.4	6141.35
868.1363	1216.6715	7037.2	6136.3
868.2809	1218.5903	7032.3	6130.8
868.4255	1220.5084	7010.75	6107.55
868.5701	1222.4257	7016.2	6115.85
868.7148	1224.3424	7009.85	6110.35
868.8594	1226.2583	6988.55	6084.4
869.004	1228.1735	6993.6	6092.8
869.1486	1230.0879	6977.6	6076.1
869.2932	1232.0016	6989.5	6088.4
869.4377	1233.9146	6993.05	6088.1
869.5823	1235.8269	6971.75	6070.25
869.7269	1237.7384	6950.35	6048.85
869.8715	1239.6492	6931.8	6031.1
870.016	1241.5592	6926.45	6025.15
870.1606	1243.4686	6939.05	6035.45
870.3051	1245.3772	6943.05	6043.05
870.4496	1247.285	6950.65	6048.6
870.5941	1249.1922	6995.45	6093.05
870.7387	1251.0986	6987.7	6086.9
870.8832	1253.0042	7002.35	6100.45
871.0277	1254.9092	7028.95	6127.75
871.1722	1256.8134	7023.55	6123.9
871.3167	1258.7169	7071.85	6169.2
871.4611	1260.6196	7046.6	6146.3
871.6056	1262.5216	7063.15	6159.85
871.7501	1264.4229	7030.15	6130.15
871.8945	1266.3234	7024.2	6124.15
872.039	1268.2232	7017.2	6115.05
872.1834	1270.1223	6948.25	6045.25
872.3278	1272.0207	6949.05	6048.1
872.4723	1273.9183	6928.75	6024.55
872.6167	1275.8151	6916.4	6015.3
872.7611	1277.7113	6899	5996.6
872.9055	1279.6067	6933.9	6035.3
873.0499	1281.5014	6969	6066.05
873.1943	1283.3953	7024.9	6122.75
873.3386	1285.2885	7092.1	6189.15
873.483	1287.181	7153.1	6249.85
873.6274	1289.0727	7170.5	6269
873.7717	1290.9637	7116.1	6214.95
873.9161	1292.854	7134.15	6232.9
874.0604	1294.7435	7053.85	6151.65
874.2047	1296.6323	7015.2	6113.7
874.349	1298.5204	6960.2	6054.8
874.4933	1300.4077	6938.5	6036.75
874.6376	1302.2943	6896.8	5995.5
874.7819	1304.1802	6868.45	5969.85
874.9262	1306.0653	6847.4	5943.8
875.0705	1307.9497	6818.65	5918.25
875.2147	1309.8333	6795.75	5892.65
875.359	1311.7162	6778.8	5877.8
875.5032	1313.5984	6783.85	5879.85
875.6475	1315.4798	6731.65	5829.65
875.7917	1317.3605	6726	5811.15
875.9359	1319.2405	6723.25	5820.2
876.0801	1321.1197	6693.05	5787.25
876.2243	1322.9982	6679.35	5770.3
876.3685	1324.876	6628.15	5725.6
876.5127	1326.753	6560.3	5656.6
876.6569	1328.6293	6532.65	5629.05
876.801	1330.5048	6514.65	5610.85
876.9452	1332.3796	6477.5	5576.75
877.0893	1334.2537	6472.9	5546.25
877.2335	1336.127	6430	5527.6
877.3776	1337.9996	6396.45	5495.25
877.5217	1339.8714	6389.1	5488.25
877.6658	1341.7426	6370.75	5424.6
877.8099	1343.6129	6354.4	5449.9
877.954	1345.4826	6322.35	5419.25
878.0981	1347.3515	6328.9	5423.75
878.2422	1349.2196	6297.7	5394.75
878.3862	1351.087	6301.15	5401.25
878.5303	1352.9537	6314.25	5411.35
878.6743	1354.8197	6297.15	5395.5
878.8184	1356.6849	6287.65	5386
878.9624	1358.5493	6284.8	5383.45
879.1064	1360.4131	6279.75	5378
879.2504	1362.276	6264.8	5361.45
879.3944	1364.1383	6292.25	5392.45
879.5384	1365.9998	6268.75	5361
879.6823	1367.8606	6243.35	5338.9
879.8263	1369.7206	6239.35	5335.65
879.9702	1371.5799	6211.6	5304
880.1142	1373.4384	6186.85	5283.2
880.2581	1375.2962	6188.05	5284.7
880.402	1377.1533	6166.3	5264.45
880.5459	1379.0096	6124.05	5223.4
880.6898	1380.8652	6087.95	5187.05
880.8337	1382.7201	6036.65	5134.8
880.9776	1384.5742	6005.7	5104.5
881.1215	1386.4275	5980.3	5077.85
881.2653	1388.2802	5949.3	5049.9
881.4092	1390.132	5917.25	5015.25
881.553	1391.9832	5934.65	5031
881.6968	1393.8336	5888.45	4986
881.8406	1395.6832	5892.95	4988.75
881.9844	1397.5322	5853.35	4950.75
882.1282	1399.3803	5826.45	4920.25
882.272	1401.2278	5805.85	4905.65
882.4158	1403.0745	5794.25	4890.2
882.5595	1404.9204	5759.9	4860.1
882.7033	1406.7656	5773.45	4871.35
882.847	1408.6101	5743.1	4840.15
882.9908	1410.4538	5740.9	4837.25
883.1345	1412.2968	5714.85	4814.45
883.2782	1414.139	5681.2	4782.1
883.4219	1415.9805	5690.1	4788.7
883.5656	1417.8213	5661.65	4752.9
883.7092	1419.6613	5658.6	4759.5
883.8529	1421.5006	5675.95	4774.45
883.9965	1423.3391	5661.5	4759.6
884.1402	1425.1769	5664.3	4763.65
884.2838	1427.0139	5694.05	4791.6
884.4274	1428.8502	5723.55	4821.25
884.571	1430.6858	5725.9	4824.75
884.7146	1432.5206	5718.95	4816.4
884.8582	1434.3547	5700.4	4799.2
885.0018	1436.188	5674.7	4773.5
885.1453	1438.0206	5691.7	4789
885.2889	1439.8524	5694.45	4794.75
885.4324	1441.6835	5666.25	4763.45
885.5759	1443.5139	5630.75	4726.85
885.7194	1445.3435	5628.75	4728.6
885.8629	1447.1724	5631.45	4732
886.0064	1449.0005	5624.75	4725.05
886.1499	1450.8279	5615.55	4713.95
886.2933	1452.6545	5607.4	4708
886.4368	1454.4804	5606.8	4705.3
886.5802	1456.3056	5598.7	4692.8
886.7237	1458.13	5569.6	4671.15
886.8671	1459.9536	5561.2	4661.5
887.0105	1461.7766	5514.9	4615.05
887.1539	1463.5987	5498.75	4596.8
887.2972	1465.4202	5459.5	4559.15
887.4406	1467.2409	5437.15	4536.45
887.584	1469.0608	5439.1	4540.35
887.7273	1470.88	5401.85	4499.35
887.8706	1472.6984	5382.5	4481.25
888.0139	1474.5161	5371.55	4468.25
888.1572	1476.3331	5341.1	4441.7
888.3005	1478.1493	5332.4	4431.25
888.4438	1479.9648	5339.4	4440.7
888.5871	1481.7795	5294.45	4392.2
888.7303	1483.5935	5315.85	4415.8
888.8736	1485.4067	5291.05	4391.5
889.0168	1487.2192	5288.35	4390.45
889.16	1489.031	5289.2	4386
889.3032	1490.842	5266.4	4366.55
889.4464	1492.6522	5270.55	4369.45
889.5896	1494.4618	5257.65	4355.95
889.7327	1496.2705	5252.85	4354.15
889.8759	1498.0785	5223	4321.9
890.019	1499.8858	5204.3	4300.95
890.1622	1501.6924	5193.2	4294.65
890.3053	1503.4981	5190.35	4291.05
890.4484	1505.3032	5182.4	4281.65
890.5914	1507.1075	5168.85	4268.8
890.7345	1508.911	5166.85	4267.6
890.8776	1510.7138	5138.3	4240.3
891.0206	1512.5159	5116.9	4217.4
891.1637	1514.3172	5084.15	4186.55
891.3067	1516.1178	5073.9	4176.85
891.4497	1517.9176	5079.65	4178.55
891.5927	1519.7166	5046.2	4146.4
891.7357	1521.515	5057.7	4151.5
891.8786	1523.3126	5032.4	4131.4
892.0216	1525.1094	5016.85	4118.4
892.1645	1526.9055	4994.9	4097.85
892.3074	1528.7008	4979.7	4080.5
892.4503	1530.4954	4946.45	4045.6
892.5932	1532.2893	4949.2	4054.15
892.7361	1534.0824	4945.35	4042.8
892.879	1535.8747	4908.65	4011.9
893.0218	1537.6663	4897.4	4001.1
893.1647	1539.4572	4887.55	3987.7
893.3075	1541.2473	4882.45	3984
893.4503	1543.0367	4870.35	3973.65
893.5931	1544.8253	4849.2	3947.75
893.7359	1546.6132	4861.45	3960
893.8787	1548.4003	4810.9	3903.35
894.0214	1550.1867	4827.5	3922.15
894.1642	1551.9723	4821.6	3920.75
894.3069	1553.7572	4796.7	3900.55
894.4496	1555.5414	4796.5	3898.8
894.5923	1557.3247	4792.85	3898.7
894.735	1559.1074	4785.95	3892.95
894.8777	1560.8893	4789.15	3895.5
895.0204	1562.6705	4795.3	3900
895.163	1564.4509	4788.55	3895.35
895.3056	1566.2305	4769.05	3876.25
895.4482	1568.0094	4781.75	3890.9
895.5908	1569.7876	4765.75	3872.9
895.7334	1571.565	4761.75	3866.3
895.876	1573.3417	4745.7	3851.3
896.0186	1575.1176	4738	3845.15
896.1611	1576.8928	4728.65	3837.1
896.3036	1578.6672	4717.15	3826.7
896.4461	1580.4409	4717.7	3829.45
896.5886	1582.2138	4709.2	3816.9
896.7311	1583.986	4705.6	3812.65
896.8736	1585.7575	4721.95	3830.45
897.0161	1587.5282	4703.05	3812.3
897.1585	1589.2981	4742.5	3853.3
897.3009	1591.0673	4716.85	3826.5
897.4433	1592.8358	4721.35	3830.45
897.5857	1594.6035	4709.45	3817.4
897.7281	1596.3704	4688.75	3792
897.8705	1598.1366	4644.15	3751.6
898.0128	1599.9021	4634.05	3743.65
898.1551	1601.6668	4629.7	3737.65
898.2975	1603.4308	4607.35	3714.6
898.4398	1605.194	4596.5	3698.6
898.5821	1606.9564	4579.25	3689.15
898.7243	1608.7182	4601.2	3708.8
898.8666	1610.4791	4620.1	3735.45
899.0088	1612.2394	4637.4	3753.35
899.1511	1613.9988	4670.75	3783.9
899.2933	1615.7576	4690.45	3802.05
899.4355	1617.5156	4697.4	3800.9
899.5776	1619.2728	4688.45	3796.05
899.7198	1621.0293	4622.25	3730.45
899.862	1622.785	4567.85	3675.5
900.0041	1624.54	4517.25	3624.2
900.1462	1626.2942	4458.95	3569.5
900.2883	1628.0477	4380.9	3489.2
900.4304	1629.8005	4348.05	3455.9
900.5725	1631.5525	4302.9	3414.25
900.7145	1633.3037	4268.8	3379.25
900.8566	1635.0542	4235	3345.95
900.9986	1636.804	4226	3337.3
901.1406	1638.553	4250.25	3280.15
901.2826	1640.3013	4191.7	3302.3
901.4245	1642.0488	4161.85	3271
901.5665	1643.7955	4152.25	3263.3
901.7085	1645.5416	4120.45	3230.65
901.8504	1647.2868	4125.8	3238.2
901.9923	1649.0313	4113.55	3222.75
902.1342	1650.7751	4094.15	3200.1
902.2761	1652.5181	4084.25	3196
902.4179	1654.2604	4052.8	3164.15
902.5598	1656.0019	4067.7	3178.3
902.7016	1657.7427	4048.2	3158.35
902.8434	1659.4828	4049.05	3161.85
902.9852	1661.222	4055.4	3163.6
903.127	1662.9606	4053.6	3164.65
903.2687	1664.6984	4054.3	3163.25
903.4105	1666.4354	4049.15	3156.3
903.5522	1668.1717	4035.95	3143.35
903.6939	1669.9072	3993	3102.2
903.8356	1671.642	3971.05	3076.35
903.9773	1673.3761	3929.05	3040.25
904.119	1675.1094	3911.9	3020.75
904.2606	1676.8419	3889.05	2998.7
904.4022	1678.5737	3861.6	2972.7
904.5439	1680.3048	3864.2	2974.6
904.6855	1682.0351	3830.6	2939.45
904.827	1683.7646	3793.25	2896.6
904.9686	1685.4934	3794.3	2903.6
905.1101	1687.2215	3773.4	2882.4
905.2517	1688.9488	3765.35	2877.65
905.3932	1690.6754	3771.6	2881.5
905.5347	1692.4012	3736.4	2846.4
905.6761	1694.1263	3737.7	2845.35
905.8176	1695.8506	3731	2839.55
905.9591	1697.5742	3713.4	2826.25
906.1005	1699.297	3689.8	2804.25
906.2419	1701.0191	3673.1	2785.9
906.3833	1702.7404	3678.8	2792.05
906.5246	1704.461	3643	2753.2
906.666	1706.1808	3636.5	2748
906.8073	1707.8999	3631.65	2743.1
906.9487	1709.6182	3613.45	2727.3
907.09	1711.3358	3606.25	2721.8
907.2313	1713.0527	3594.9	2710.6
907.3725	1714.7688	3572	2677.85
907.5138	1716.4841	3584.5	2694.9
907.655	1718.1987	3576.1	2681.25
907.7962	1719.9126	3559.7	2674.45
907.9374	1721.6257	3541.15	2653.6
908.0786	1723.338	3547	2659.25
908.2198	1725.0496	3530.2	2640.9
908.3609	1726.7605	3525.85	2637.25
908.502	1728.4706	3523.65	2633.85
908.6431	1730.18	3501.9	2613.6
908.7842	1731.8886	3507.7	2620.85
908.9253	1733.5964	3503.05	2611.2
909.0664	1735.3036	3514.4	2623.25
909.2074	1737.0099	3497.15	2611.85
909.3484	1738.7156	3488.75	2602.65
909.4894	1740.4204	3467.55	2577.3
909.6304	1742.1246	3483.2	2594.65
909.7714	1743.8279	3483.7	2598.6
909.9123	1745.5306	3468	2580.05
910.0532	1747.2325	3459.55	2574.4
910.1941	1748.9336	3454.8	2566.3
910.335	1750.634	3435.3	2546.4
910.4759	1752.3336	3437.7	2549.85
910.6168	1754.0325	3434.35	2551.15
910.7576	1755.7307	3420.55	2535.5
910.8984	1757.4281	3420.7	2533.5
911.0392	1759.1247	3427.05	2526.8
911.18	1760.8206	3419.85	2526.4
911.3208	1762.5158	3429.85	2535.95
911.4615	1764.2102	3400.75	2514.2
911.6022	1765.9039	3387.4	2500.95
911.7429	1767.5968	3395.15	2508.05
911.8836	1769.289	3372.1	2485.85
912.0243	1770.9804	3378.25	2489.5
912.1649	1772.6711	3383.8	2494.05
912.3056	1774.361	3371.15	2482.55
912.4462	1776.0502	3374.3	2486.55
912.5868	1777.7386	3355	2464.9
912.7274	1779.4263	3338.75	2451.1
912.8679	1781.1132	3333.8	2448.2
913.0084	1782.7994	3333.75	2446.7
913.149	1784.4849	3327.95	2444.65
913.2895	1786.1696	3335.85	2429.85
913.4299	1787.8535	3316.35	2430.15
913.5704	1789.5367	3311.9	2429.25
913.7108	1791.2192	3308	2422.3
913.8513	1792.9009	3315.95	2401.45
913.9917	1794.5818	3303.35	2413.1
914.132	1796.2621	3278.65	2392.85
914.2724	1797.9415	3290.55	2401.85
914.4128	1799.6202	3261.9	2374.85
914.5531	1801.2982	3252.6	2364.85
914.6934	1802.9755	3271.3	2382.45
914.8337	1804.6519	3252.75	2366.1
914.9739	1806.3277	3251.25	2365.8
915.1142	1808.0027	3230.3	2346.25
915.2544	1809.6769	3238.55	2353.75
915.3946	1811.3504	3216.65	2329
915.5348	1813.0231	3205.6	2319.95
915.675	1814.6951	3225	2341.1
915.8151	1816.3664	3223.2	2333.9
915.9553	1818.0369	3215.9	2328.85
916.0954	1819.7067	3211.9	2325.6
916.2355	1821.3757	3193.1	2303
916.3755	1823.044	3184.25	2297.45
916.5156	1824.7115	3174.5	2285.1
916.6556	1826.3783	3166.7	2281.05
916.7956	1828.0443	3159.35	2273.55
916.9356	1829.7096	3162.75	2273.15
917.0756	1831.3741	3172.55	2282.9
917.2155	1833.0379	3157.35	2272.55
917.3555	1834.701	3151.6	2263.7
917.4954	1836.3633	3145	2259.95
917.6353	1838.0248	3146	2260.4
917.7751	1839.6856	3127.3	2240.8
917.915	1841.3457	3125.7	2240.9
918.0548	1843.005	3133.3	2249
918.1946	1844.6636	3124.55	2238.6
918.3344	1846.3214	3108.65	2220.1
918.4742	1847.9785	3103.15	2216.65
918.6139	1849.6349	3105.3	2217.75
918.7537	1851.2904	3115.65	2218.75
918.8934	1852.9453	3100.45	2214.2
919.0331	1854.5994	3081.8	2190.55
919.1727	1856.2528	3105.6	2213.4
919.3124	1857.9054	3085.1	2198.05
919.452	1859.5572	3082.6	2196.15
919.5916	1861.2083	3072.3	2185.9
919.7312	1862.8587	3069.95	2182.65
919.8708	1864.5084	3064.05	2176.1
920.0103	1866.1572	3052.25	2164.05
920.1498	1867.8054	3052.35	2163.15
920.2893	1869.4528	3045.55	2158.4
920.4288	1871.0994	3032.1	2144.1
920.5683	1872.7453	3028.25	2139.95
920.7077	1874.3905	3024.2	2130.8
920.8471	1876.0349	3015.85	2127.5
920.9865	1877.6786	3022.1	2132.65
921.1259	1879.3215	3013.45	2125.65
921.2653	1880.9637	3011.2	2124.3
921.4046	1882.6051	3010.1	2124.35
921.5439	1884.2458	3001.45	2112.6
921.6832	1885.8858	2996.55	2109.5
921.8225	1887.525	2987.65	2098.2
921.9617	1889.1634	2973.35	2087.4
922.101	1890.8011	2964.25	2076.65
922.2402	1892.4381	2972.6	2085.15
922.3794	1894.0743	2973.75	2090.7
922.5185	1895.7098	2952.05	2064.8
922.6577	1897.3446	2958.25	2069.95
922.7968	1898.9786	2938.45	2046.25
922.9359	1900.6118	2934.35	2047.35
923.075	1902.2443	2937.2	2050.3
923.214	1903.8761	2927.9	2044
923.3531	1905.5071	2905.9	2017.4
923.4921	1907.1374	2904.5	2018.1
923.6311	1908.7669	2897.1	2011.55
923.77	1910.3957	2903.95	2018.55
923.909	1912.0237	2907.75	2022.95
924.0479	1913.651	2889.85	2003.65
924.1868	1915.2776	2893.9	2009.05
924.3257	1916.9034	2867.45	1979.85
924.4646	1918.5285	2872	1987.55
924.6034	1920.1528	2861.15	1975.35
924.7422	1921.7764	2865.4	1980.6
924.881	1923.3992	2849.15	1960.85
925.0198	1925.0213	2836	1950.45
925.1586	1926.6427	2833.3	1948.3
925.2973	1928.2633	3045.65	1913.65
925.436	1929.8832	2863.55	1973.25
925.5747	1931.5023	2822.4	1933.8
925.7134	1933.1207	2822	1935.6
925.852	1934.7383	2804.95	1917.9
925.9906	1936.3552	2797.4	1912.3
926.1292	1937.9714	2793.6	1908.25
926.2678	1939.5868	2790.75	1902.5
926.4064	1941.2015	2769.05	1881.4
926.5449	1942.8154	2778.8	1893.3
926.6834	1944.4286	2777.55	1888
926.8219	1946.041	2783.15	1878.05
926.9604	1947.6528	2768.85	1876.5
927.0988	1949.2637	2753.7	1867.65
927.2372	1950.8739	2742.9	1855
927.3756	1952.4834	2742.8	1857.85
927.514	1954.0921	2729	1843.9
927.6523	1955.7001	2741.35	1851.5
927.7907	1957.3074	2725.7	1840.8
927.929	1958.9139	2715.1	1830.35
928.0673	1960.5197	2721.55	1836.9
928.2055	1962.1247	2713.8	1827.55
928.3438	1963.729	2703	1819.3
928.482	1965.3325	2721.85	1814.35
928.6202	1966.9353	2694.05	1810.3
928.7584	1968.5374	2688.1	1802.15
928.8965	1970.1387	2686.25	1801.8
929.0346	1971.7393	2674.85	1789
929.1727	1973.3392	2664.3	1779.1
929.3108	1974.9383	2667.1	1782.4
929.4489	1976.5366	2661.2	1777.4
929.5869	1978.1342	2651.55	1766.45
929.7249	1979.7311	2645.55	1762.25
929.8629	1981.3273	2643.65	1761.8
930.0009	1982.9227	2642.9	1757.15
930.1388	1984.5173	2628.95	1748.35
930.2767	1986.1112	2621.1	1738.4
930.4146	1987.7044	2620.35	1738.8
930.5525	1989.2968	2620.9	1736.2
930.6904	1990.8885	2624.15	1737
930.8282	1992.4795	2622.8	1738.5
930.966	1994.0697	2611.35	1730.35
931.1038	1995.6592	2603.6	1721.3
931.2415	1997.2479	2599.25	1714.85
931.3793	1998.8359	2589.8	1705.6
931.517	2000.4232	2590.45	1709.3
931.6547	2002.0097	2575.05	1695.2
931.7923	2003.5955	2567.95	1685.3
931.93	2005.1805	2582.1	1697
932.0676	2006.7648	2566.85	1684.7
932.2052	2008.3484	2569.4	1686.45
932.3427	2009.9312	2566.75	1683.85
932.4803	2011.5133	2553.25	1672.4
932.6178	2013.0946	2564.65	1684.1
932.7553	2014.6752	2550.8	1668.4
932.8928	2016.2551	2549.45	1667.7
933.0302	2017.8342	2542.05	1660.1
933.1676	2019.4126	2536.5	1657.05
933.305	2020.9902	2536.9	1655.95
933.4424	2022.5672	2527.5	1646.5
933.5798	2024.1433	2538.1	1651.7
933.7171	2025.7188	2521.8	1641.3
933.8544	2027.2935	2526.8	1646.4
933.9917	2028.8674	2516.25	1636.6
934.129	2030.4406	2511.5	1631.6
934.2662	2032.0131	2505.4	1625.25
934.4034	2033.5849	2506.7	1621.7
934.5406	2035.1559	2497.25	1617.65
934.6778	2036.7261	2499.1	1619.05
934.8149	2038.2957	2496.15	1613.1
934.952	2039.8645	2511.35	1630.2
935.0891	2041.4325	2493.85	1608.5
935.2262	2042.9998	2495.65	1614.15
935.3632	2044.5664	2474.55	1590.9
935.5002	2046.1323	2479.65	1597.55
935.6372	2047.6974	2470.8	1589.95
935.7742	2049.2617	2470.25	1591.9
935.9111	2050.8254	2463.8	1577
936.048	2052.3883	2473.3	1592.85
936.1849	2053.9504	2458.25	1575.85
936.3218	2055.5118	2456.35	1573.25
936.4586	2057.0725	2464.6	1579.2
936.5955	2058.6325	2450.25	1568.25
936.7323	2060.1917	2452.7	1571.5
936.869	2061.7502	2449.25	1568.25
937.0058	2063.3079	2454.65	1575.7
937.1425	2064.8649	2438.25	1552.9
937.2792	2066.4212	2432.3	1552.15
937.4159	2067.9767	2436.35	1555.6
937.5525	2069.5315	2430.4	1550.75
937.6891	2071.0856	2422.95	1540.5
937.8257	2072.6389	2428.5	1544.8
937.9623	2074.1915	2418.55	1539.25
938.0989	2075.7433	2400.6	1516.95
938.2354	2077.2945	2405.5	1525.3
938.3719	2078.8448	2401.15	1518
938.5084	2080.3945	2405.1	1524.05
938.6448	2081.9434	2405.05	1522.55
938.7812	2083.4916	2392.75	1509.65
938.9176	2085.039	2385.05	1500.2
939.054	2086.5857	2391.05	1505.85
939.1903	2088.1317	2383.7	1499.05
939.3267	2089.677	2382.35	1498.65
939.463	2091.2215	2368.5	1483.05
939.5992	2092.7652	2373.1	1486.55
939.7355	2094.3083	2365.5	1480.3
939.8717	2095.8506	2384.1	1502.25
940.0079	2097.3921	2363.75	1481.05
940.1441	2098.933	2357.95	1475.5
940.2802	2100.4731	2357.2	1476.6
940.4163	2102.0124	2367.05	1464.9
940.5524	2103.5511	2363.1	1481.65
940.6885	2105.089	2343.6	1460.5
940.8245	2106.6261	2361.1	1477.4
940.9606	2108.1626	2347.9	1466
941.0965	2109.6983	2366.1	1456.7
941.2325	2111.2332	2352.05	1470.25
941.3684	2112.7675	2345.35	1462.1
941.5044	2114.301	2334.95	1449.65
941.6403	2115.8337	2337.5	1455.45
941.7761	2117.3657	2336.95	1450.65
941.912	2118.897	2331.6	1446.8
942.0478	2120.4276	2330.2	1440.4
942.1835	2121.9575	2320.75	1436.15
942.3193	2123.4866	2341.95	1446.4
942.455	2125.0149	2327.45	1444.65
942.5907	2126.5426	2320.45	1438.05
942.7264	2128.0695	2318.3	1434.5
942.8621	2129.5956	2305.25	1425.9
942.9977	2131.1211	2314.5	1428.15
943.1333	2132.6458	2313.95	1432.2
943.2689	2134.1698	2294.85	1412.35
943.4044	2135.693	2299.6	1409.95
943.54	2137.2155	2301.5	1414.6
943.6755	2138.7373	2290.5	1407.55
943.8109	2140.2584	2279.2	1397.35
943.9464	2141.7787	2288.7	1401.4
944.0818	2143.2983	2276.8	1395.7
944.2172	2144.8171	2270.35	1392.45
944.3526	2146.3353	2271.75	1388.4
944.4879	2147.8527	2258.25	1377.1
944.6232	2149.3693	2268	1383.85
944.7585	2150.8853	2259.65	1375.35
944.8938	2152.4005	2246.8	1362.2
945.029	2153.9149	2251.65	1370
945.1642	2155.4287	2249.5	1365.5
945.2994	2156.9417	2247.1	1362.1
945.4346	2158.454	2233.5	1347.25
945.5697	2159.9655	2244.35	1363.55
945.7048	2161.4764	2232.8	1349.25
945.8399	2162.9865	2240.75	1358
945.9749	2164.4958	2228.5	1346
946.1099	2166.0045	2216.15	1332.05
946.2449	2167.5124	2223.75	1342
946.3799	2169.0195	2225.1	1342.15
946.5148	2170.526	2217.2	1334.85
946.6498	2172.0317	2211.6	1330.1
946.7846	2173.5367	2213.05	1330.35
946.9195	2175.0409	2206.4	1326.35
947.0543	2176.5445	2205.7	1325.55
947.1891	2178.0473	2210.5	1325.7
947.3239	2179.5494	2195.2	1310.25
947.4587	2181.0507	2207.1	1323
947.5934	2182.5513	2191.15	1307.4
947.7281	2184.0512	2189.35	1306.9
947.8628	2185.5504	2184.7	1300.95
947.9974	2187.0488	2171.65	1288.6
948.132	2188.5465	2175.85	1294.6
948.2666	2190.0435	2161.35	1277.45
948.4012	2191.5397	2165.8	1284.05
948.5357	2193.0353	2162	1281.05
948.6702	2194.5301	2159.55	1275.2
948.8047	2196.0241	2151.65	1265.5
948.9392	2197.5175	2159.25	1275.55
949.0736	2199.0101	2150.35	1265.55
949.208	2200.502	2135.35	1252.25
949.3424	2201.9931	2138.5	1256.55
949.4767	2203.4835	2131.35	1249.85
949.611	2204.9733	2139.7	1250.25
949.7453	2206.4622	2129.3	1248.75
949.8796	2207.9505	2117.1	1233.75
950.0138	2209.438	2112.45	1234
950.148	2210.9248	2113.5	1230.45
950.2822	2212.4109	2112.95	1231
950.4164	2213.8962	2115.75	1231.4
950.5505	2215.3809	2107.8	1221.3
950.6846	2216.8648	2096.55	1212.4
950.8186	2218.3479	2105.85	1216.1
950.9527	2219.8304	2104.05	1215.05
951.0867	2221.3121	2083.15	1198.3
951.2207	2222.7931	2083.05	1200.6
951.3546	2224.2733	2085.6	1201.5
951.4886	2225.7529	2067.25	1183.25
951.6225	2227.2317	2068.2	1182.6
951.7563	2228.7098	2076.85	1195.55
951.8902	2230.1872	2068.7	1186.7
952.024	2231.6638	2063.5	1180.9
952.1578	2233.1397	2052.9	1163
952.2916	2234.6149	2048.45	1168.9
952.4253	2236.0894	2056.2	1173.55
952.559	2237.5632	2052.85	1158.7
952.6927	2239.0362	2037.2	1155.05
952.8263	2240.5085	2046.1	1164
952.9599	2241.9801	2039.1	1155.3
953.0935	2243.4509	2030.1	1145.7
953.2271	2244.921	2037.55	1152.45
953.3606	2246.3904	2030.65	1144.1
953.4941	2247.8591	2029.2	1147.8
953.6276	2249.3271	2022.25	1140
953.7611	2250.7943	2011.2	1128.25
953.8945	2252.2608	2017.5	1133.2
954.0279	2253.7266	2004.85	1120.2
954.1612	2255.1917	2003.65	1120.2
954.2946	2256.656	2001.8	1118.3
954.4279	2258.1197	2001.9	1119.75
954.5612	2259.5826	1987.85	1103.45
954.6944	2261.0447	1996.85	1111.75
954.8276	2262.5062	1991.45	1106.75
954.9608	2263.9669	1985.35	1100.4
955.094	2265.4269	1986.95	1104.05
955.2271	2266.8862	1980.35	1097.25
955.3602	2268.3448	1981.2	1097.25
955.4933	2269.8026	1976.4	1094.1
955.6264	2271.2598	1965.6	1082.3
955.7594	2272.7162	1966.05	1085.3
955.8924	2274.1719	1972.35	1088.45
956.0253	2275.6268	1965.55	1080.95
956.1583	2277.0811	1964.95	1080.3
956.2912	2278.5346	1953.95	1070.75
956.4241	2279.9874	1952.3	1069.4
956.5569	2281.4395	1955.8	1075.15
956.6897	2282.8908	1950.6	1064
956.8225	2284.3414	1947.15	1063.65
956.9553	2285.7914	1942.15	1059.55
957.088	2287.2406	1942.6	1056.6
957.2207	2288.689	1940.65	1055.1
957.3534	2290.1368	1940.9	1054.9
957.486	2291.5838	1927.95	1040.3
957.6186	2293.0302	1921.7	1035.15
957.7512	2294.4758	1923.2	1039.3
957.8838	2295.9206	1918.8	1032.7
958.0163	2297.3648	1926.15	1043.3
958.1488	2298.8082	1912.9	1027.75
958.2813	2300.251	1913.35	1032.85
958.4137	2301.693	1904.05	1014.15
958.5461	2303.1343	1916	1031.6
958.6785	2304.5748	1899.5	1014.1
958.8108	2306.0147	1898.85	1015.6
958.9432	2307.4538	1891.5	1006.05
959.0754	2308.8922	1893	1014.8
959.2077	2310.3299	1889.55	1006.7
959.3399	2311.7669	1884.7	1002.95
959.4721	2313.2031	1883.3	998.2
959.6043	2314.6387	1872.3	986.8
959.7365	2316.0735	1872.85	989.25
959.8686	2317.5076	1870.55	987.55
960.0006	2318.941	1879.9	994.45
960.1327	2320.3737	1869.45	985.5
960.2647	2321.8056	1866.8	979.25
960.3967	2323.2369	1867.8	982.9
960.5287	2324.6674	1866.05	978.8
960.6606	2326.0972	1867.7	982.1
960.7925	2327.5263	1863.8	978.35
960.9244	2328.9547	1854.05	969.5
961.0562	2330.3823	1852.15	967.2
961.1881	2331.8092	1849.45	961.05
961.3198	2333.2355	1835.85	951.5
961.4516	2334.661	1834	947.9
961.5833	2336.0858	1840.65	954.75
961.715	2337.5098	1827.35	944.25
961.8467	2338.9332	1834.6	950
961.9783	2340.3558	1823.1	934.55
962.1099	2341.7778	1819.75	936.3
962.2415	2343.199	1822.8	936.3
962.373	2344.6195	1816.85	934.6
962.5045	2346.0393	1809.35	926
962.636	2347.4583	1812.25	929.55
962.7675	2348.8767	1804	918.7
962.8989	2350.2943	1803.2	918.45
963.0303	2351.7113	1803.3	916.15
963.1617	2353.1275	1794.7	910.65
963.293	2354.543	1804.1	909.4
963.4243	2355.9578	1793.2	907.95
963.5556	2357.3718	1786.5	903.05
963.6868	2358.7852	1778.55	892.9
963.818	2360.1978	1788.4	901.95
963.9492	2361.6098	1765.95	882.25
964.0803	2363.021	1768.45	878.3
964.2114	2364.4315	1764.85	881.9
964.3425	2365.8413	1766	879.9
964.4736	2367.2504	1765	881.9
964.6046	2368.6587	1751.95	867.5
964.7356	2370.0664	1752.25	866.5
964.8666	2371.4733	1746.95	861.2
964.9975	2372.8795	1749.1	864.95
965.1284	2374.285	1745.25	859.2
965.2593	2375.6899	1736	852.9
965.3901	2377.0939	1737.6	852.2
965.5209	2378.4973	1727.75	844.35
965.6517	2379.9	1716.25	833.5
965.7825	2381.3019	1736.85	852.5
965.9132	2382.7032	1719.45	835.85
966.0439	2384.1037	1713.6	829.5
966.1745	2385.5035	1714.65	831.55
966.3051	2386.9027	1707.95	824.05
966.4357	2388.3011	1702.95	814.35
966.5663	2389.6987	1707.45	824
966.6968	2391.0957	1708.6	825.4
966.8273	2392.492	1698.1	814.35
966.9578	2393.8876	1687.75	803.4
967.0882	2395.2824	1682.15	797.6
967.2186	2396.6765	1689.35	803.85
967.349	2398.07	1672.85	788.55
967.4793	2399.4627	1670.2	782.1
967.6097	2400.8547	1669.4	784.65
967.7399	2402.246	1682.15	791
967.8702	2403.6366	1665.65	780.55
968.0004	2405.0265	1665.2	781.55
968.1306	2406.4156	1664.8	774.65
968.2607	2407.8041	1667	778.95
968.3909	2409.1918	1665.45	778
968.521	2410.5789	1658.25	772.25
968.651	2411.9652	1655.45	768.1
968.781	2413.3508	1647.45	762.2
968.911	2414.7358	1643.45	758.7
969.041	2416.12	1645.75	761.15
969.1709	2417.5035	1633.4	746.85
969.3008	2418.8863	1633.9	746.95
969.4307	2420.2684	1636.75	750.35
969.5606	2421.6497	1628.05	742.25
969.6904	2423.0304	1621.6	736.75
969.8201	2424.4104	1618	731.75
969.9499	2425.7896	1614.9	726.1
970.0796	2427.1682	1617.45	731.6
970.2093	2428.546	1618	730.55
970.3389	2429.9232	1618.55	731.35
970.4685	2431.2996	1612.35	726.75
970.5981	2432.6753	1611.55	725.35
970.7277	2434.0503	1604.4	717.75
970.8572	2435.4246	1602.55	716.1
970.9867	2436.7982	1611	723.6
971.1161	2438.1711	1610.4	726.8
971.2456	2439.5433	1600.75	713.85
971.375	2440.9148	1604.6	712.95
971.5043	2442.2856	1593.95	709.65
971.6336	2443.6557	1598.65	711.7
971.7629	2445.025	1586.55	700.35
971.8922	2446.3937	1585.25	700.15
972.0214	2447.7617	1587.75	699.3
972.1506	2449.1289	1583.9	700.05
972.2798	2450.4955	1578.5	687.8
972.4089	2451.8613	1579.15	696.6
972.538	2453.2265	1573.15	687.35
972.6671	2454.5909	1568.95	683
972.7961	2455.9546	1572.95	685.95
972.9251	2457.3177	1563.75	681.05
973.0541	2458.68	1568.35	681
973.1831	2460.0416	1569.55	684.9
973.312	2461.4025	1569.65	680.75
973.4408	2462.7627	1573.85	678.9
973.5697	2464.1222	1561.65	680.3
973.6985	2465.4811	1558.6	674.35
973.8273	2466.8392	1562.95	678.8
973.956	2468.1966	1553.15	663.75
974.0847	2469.5533	1549.4	660.75
974.2134	2470.9093	1553.15	666.35
974.3421	2472.2645	1560.05	673.3
974.4707	2473.6191	1544	661.1
974.5993	2474.973	1540.4	653.45
974.7278	2476.3262	1544.05	658.8
974.8563	2477.6787	1537	654.7
974.9848	2479.0305	1531.7	645.75
975.1132	2480.3816	1536.4	650.45
975.2417	2481.7319	1523.25	637.55
975.37	2483.0816	1532.35	643.7
975.4984	2484.4306	1526.45	640.5
975.6267	2485.7789	1523.4	639.8
975.755	2487.1264	1522	636
975.8833	2488.4733	1515.9	634.5
976.0115	2489.8195	1524.05	633
976.1397	2491.165	1524.7	635.95
976.2678	2492.5097	1515.25	631.35
976.3959	2493.8538	1509.85	624.85
976.524	2495.1972	1506.55	622.35
976.6521	2496.5398	1503.6	618.15
976.7801	2497.8818	1497.35	610.35
976.9081	2499.2231	1499.85	615.2
977.036	2500.5637	1500.95	613.9
977.164	2501.9035	1494.2	609.4
977.2918	2503.2427	1496.7	606.45
977.4197	2504.5812	1491.6	607.5
977.5475	2505.919	1489.95	602.05
977.6753	2507.256	1491.4	603.95
977.8031	2508.5924	1472.45	587.7
977.9308	2509.9281	1488	596.3
978.0585	2511.2631	1478.7	594.55
978.1861	2512.5974	1474.4	590.8
978.3137	2513.9309	1480.85	594.35
978.4413	2515.2638	1499.05	584.15
978.5689	2516.596	1472	587.05
978.6964	2517.9275	1464.7	575.9
978.8239	2519.2583	1465.85	579.7
978.9513	2520.5884	1464.65	579.55
979.0788	2521.9178	1451.5	568.6
979.2062	2523.2465	1463.2	578.55
979.3335	2524.5745	1460.6	578.2
979.4608	2525.9018	1449.65	566.2
979.5881	2527.2284	1447.1	562.9
979.7154	2528.5543	1446.95	561.8
979.8426	2529.8796	1443.55	558.1
979.9698	2531.2041	1447.7	561.7
980.0969	2532.5279	1450.85	567.35
980.224	2533.851	1444.4	558.95
980.3511	2535.1735	1449.75	566.05
980.4781	2536.4952	1447.4	562.6
980.6052	2537.8163	1439	554.85
980.7321	2539.1366	1441.65	556.45
980.8591	2540.4562	1432.7	545
980.986	2541.7752	1440.2	555.15
981.1129	2543.0935	1433.4	548.5
981.2397	2544.411	1434.75	547.6
981.3665	2545.7279	1433.8	548.35
981.4933	2547.0441	1439.3	554.05
981.62	2548.3596	1433.8	545.95
981.7467	2549.6744	1426.65	541.35
981.8734	2550.9885	1431.7	538.35
982.0001	2552.3019	1424	538.9
982.1267	2553.6146	1415.45	528.95
982.2532	2554.9266	1423.85	539.25
982.3798	2556.2379	1417.6	531.85
982.5063	2557.5485	1412.3	526.5
982.6327	2558.8585	1423.55	533.15
982.7592	2560.1677	1416.65	525.5
982.8856	2561.4762	1407.55	519.55
983.0119	2562.7841	1412.6	522.3
983.1383	2564.0913	1411.25	527.75
983.2646	2565.3977	1406.6	522.65
983.3908	2566.7035	1411.75	527.75
983.517	2568.0086	1408.55	521.55
983.6432	2569.313	1401.9	515.85
983.7694	2570.6167	1409.35	519.95
983.8955	2571.9197	1403.55	519.6
984.0216	2573.222	1401.6	511.6
984.1476	2574.5236	1400.2	514.8
984.2737	2575.8246	1396.8	511.9
984.3996	2577.1248	1397.85	509.85
984.5256	2578.4244	1394.7	508.85
984.6515	2579.7232	1394.55	509.3
984.7774	2581.0214	1414.25	504.05
984.9032	2582.3189	1387.45	502.2
985.029	2583.6157	1396.35	507.35
985.1548	2584.9118	1393.3	507.6
985.2806	2586.2072	1384.75	499.05
985.4063	2587.5019	1381.8	495.75
985.5319	2588.7959	1380.1	494.9
985.6576	2590.0893	1380.55	494.05
985.7832	2591.3819	1379.2	494.85
985.9087	2592.6739	1376.9	489.75
986.0343	2593.9652	1374.9	488.2
986.1597	2595.2557	1368.4	483.95
986.2852	2596.5456	1370.8	481.7
986.4106	2597.8348	1368.05	482.8
986.536	2599.1234	1365.4	480.7
986.6614	2600.4112	1363.95	480.7
986.7867	2601.6983	1361.3	473.2
986.912	2602.9848	1354.25	469.15
987.0372	2604.2705	1372.1	481
987.1624	2605.5556	1361.65	476.95
987.2876	2606.84	1350.1	467.45
987.4128	2608.1237	1351.9	465.9
987.5379	2609.4067	1347.45	463.05
987.6629	2610.689	1354.45	460.75
987.788	2611.9707	1350.9	461
987.913	2613.2516	1346	458.05
988.0379	2614.5319	1347.2	461.9
988.1629	2615.8115	1338.3	452.65
988.2878	2617.0903	1336.45	450.85
988.4126	2618.3685	1330.35	446.2
988.5375	2619.6461	1339.2	454.9
988.6622	2620.9229	1322.25	435.15
988.787	2622.199	1333.65	445.6
988.9117	2623.4745	1320.8	434.7
989.0364	2624.7493	1322.55	438.6
989.161	2626.0234	1324.6	438.55
989.2857	2627.2968	1320.1	435.2
989.4102	2628.5695	1315.8	430.4
989.5348	2629.8415	1315.95	431.4
989.6593	2631.1128	1318	433.7
989.7837	2632.3835	1303.75	418
989.9082	2633.6535	1311.8	426.7
990.0326	2634.9228	1310.9	426.95
990.1569	2636.1914	1308.65	425.8
990.2812	2637.4593	1317.35	427.4
990.4055	2638.7265	1306.45	421.9
990.5298	2639.9931	1300.05	415.55
990.654	2641.259	1297.8	412.1
990.7782	2642.5242	1295	408.95
990.9023	2643.7887	1299.3	416.7
991.0264	2645.0525	1297.05	411.65
991.1505	2646.3156	1295.75	410.25
991.2745	2647.5781	1297.2	413.15
991.3985	2648.8398	1289.85	405.05
991.5225	2650.1009	1297.8	405.9
991.6464	2651.3613	1290.25	404.35
991.7703	2652.6211	1287.75	404.25
991.8942	2653.8801	1284.95	400.1
992.018	2655.1385	1287.25	401.3
992.1418	2656.3961	1276.5	390.9
992.2655	2657.6531	1280.35	396.25
992.3892	2658.9094	1282.1	398.2
992.5129	2660.1651	1278.25	394.65
992.6366	2661.42	1279.5	394.4
992.7602	2662.6743	1276.1	392.1
992.8837	2663.9279	1277.75	391.8
993.0073	2665.1808	1280.1	394.7
993.1307	2666.433	1273.9	388.3
993.2542	2667.6846	1272.15	386.6
993.3776	2668.9354	1273.1	385.55
993.501	2670.1856	1270.35	385.85
993.6244	2671.4351	1273.15	389.55
993.7477	2672.6839	1271.25	385.15
993.8709	2673.9321	1264.05	380.45
993.9942	2675.1795	1265.7	379.95
994.1174	2676.4263	1259.15	375.3
994.2405	2677.6724	1255.65	372.2
994.3637	2678.9179	1261.6	376.25
994.4868	2680.1626	1261.35	377.85
994.6098	2681.4067	1258.65	374.9
994.7328	2682.6501	1256.9	372.95
994.8558	2683.8928	1256.9	371.25
994.9788	2685.1348	1250.05	366.4
995.1017	2686.3761	1252.45	367.65
995.2245	2687.6168	1250.1	367.25
995.3474	2688.8568	1249.5	367.1
995.4702	2690.0961	1245.4	362.75
995.5929	2691.3348	1245	361.1
995.7156	2692.5727	1250.65	364.95
995.8383	2693.81	1246.55	364.3
995.961	2695.0466	1242.4	359.75
996.0836	2696.2826	1246.7	362.75
996.2062	2697.5178	1258.45	355.05
996.3287	2698.7524	1242.05	355.5
996.4512	2699.9863	1243.85	358.3
996.5737	2701.2195	1232.55	349.15
996.6961	2702.452	1234.2	348.35
996.8185	2703.6839	1230.15	343.6
996.9408	2704.9151	1234.7	350.5
997.0631	2706.1456	1228.15	343.3
997.1854	2707.3755	1228.75	344.65
997.3077	2708.6046	1227.3	339.7
997.4299	2709.8331	1225.3	340.9
997.552	2711.0609	1220.75	335.75
997.6742	2712.2881	1217.8	333.15
997.7963	2713.5145	1225	338.45
997.9183	2714.7403	1221.35	339.85
998.0403	2715.9654	1221.3	336.9
998.1623	2717.1899	1236.95	339.1
998.2842	2718.4136	1218.45	334.45
998.4062	2719.6367	1220.95	336.15
998.528	2720.8591	1224.4	334.15
998.6498	2722.0809	1218.4	334.8
998.7716	2723.3019	1215.7	326.05
998.8934	2724.5223	1213.9	327.9
999.0151	2725.7421	1214.35	329.65
999.1368	2726.9611	1210.8	324.85
999.2584	2728.1795	1214.1	326.95
999.38	2729.3972	1204.95	322.15
999.5016	2730.6142	1220.55	323.5
999.6231	2731.8306	1195.8	310.7
999.7446	2733.0462	1203	316.4
999.8661	2734.2612	1200.05	311.8
999.9875	2735.4756	1197.2	309.95
1000.1089	2736.6892	1191.9	306.45
1000.2302	2737.9022	1189.1	304.5
1000.3515	2739.1145	1193.9	311.45
1000.4728	2740.3262	1203.35	311.05
1000.594	2741.5372	1185.75	302.3
1000.7152	2742.7475	1188.65	303.7
1000.8363	2743.9571	1189.7	304.6
1000.9575	2745.1661	1192.4	303.05
1001.0785	2746.3744	1183.4	301.25
1001.1996	2747.582	1183.1	297.75
1001.3206	2748.7889	1185.1	299.9
1001.4415	2749.9952	1178.85	296.7
1001.5625	2751.2008	1179.05	292
1001.6833	2752.4057	1180.95	296.55
1001.8042	2753.61	1180.9	297.3
1001.925	2754.8136	1173.4	286.8
1002.0458	2756.0165	1169.55	287.2
1002.1665	2757.2188	1166.9	282
1002.2872	2758.4204	1170.3	285.5
1002.4078	2759.6213	1169.2	283.35
1002.5285	2760.8215	1176.7	288.9
1002.649	2762.0211	1175	289.75
1002.7696	2763.22	1170.8	285.2
1002.8901	2764.4182	1171.5	285.25
1003.0106	2765.6158	1168.3	285.5
1003.131	2766.8127	1164.45	280.6
1003.2514	2768.009	1154.95	273.85
1003.3717	2769.2045	1162.5	277.25
1003.492	2770.3994	1165.45	281.95
1003.6123	2771.5936	1157.6	272.9
1003.7325	2772.7872	1150.4	269.4
1003.8527	2773.9801	1155.8	271.4
1003.9729	2775.1723	1169.35	269.65
1004.093	2776.3639	1155.7	273.3
1004.2131	2777.5548	1159.5	274.2
1004.3331	2778.745	1155.6	271.7
1004.4531	2779.9346	1148.1	265.4
1004.5731	2781.1235	1148.5	264.9
1004.693	2782.3117	1147.3	265.75
1004.8129	2783.4992	1151.35	268.6
1004.9328	2784.6861	1143.7	260.4
1005.0526	2785.8723	1145.2	261.85
1005.1723	2787.0579	1146.15	263.4
1005.2921	2788.2428	1136.5	253.05
1005.4118	2789.427	1142.35	260.3
1005.5314	2790.6106	1142.95	260.35
1005.651	2791.7935	1142.05	257.65
1005.7706	2792.9757	1138.4	257.65
1005.8902	2794.1573	1137.3	252.65
1006.0097	2795.3382	1132.9	252.05
1006.1291	2796.5184	1132.6	250.95
1006.2485	2797.698	1137.45	253.25
1006.3679	2798.8769	1133.2	251.1
1006.4873	2800.0551	1133.9	251.05
1006.6066	2801.2327	1131.9	246.5
1006.7258	2802.4096	1127	245.9
1006.8451	2803.5859	1131.1	248.1
1006.9642	2804.7615	1131.5	249.2
1007.0834	2805.9364	1127.25	246.7
1007.2025	2807.1106	1123.75	240.55
1007.3216	2808.2842	1122.55	237.8
1007.4406	2809.4572	1133.35	250.15
1007.5596	2810.6294	1123.4	239.55
1007.6785	2811.801	1118.9	238.7
1007.7975	2812.972	1121.65	239.45
1007.9163	2814.1423	1123.6	241.5
1008.0352	2815.3119	1132.55	249.2
1008.154	2816.4808	1118.75	237.35
1008.2727	2817.6491	1128.45	244.05
1008.3914	2818.8167	1127.25	243.9
1008.5101	2819.9837	1132.5	247.05
1008.6288	2821.15	1131.55	250.05
1008.7474	2822.3157	1129.1	249.25
1008.8659	2823.4807	1134.95	252.2
1008.9844	2824.645	1136.7	254.9
1009.1029	2825.8086	1136.05	255.8
1009.2214	2826.9716	1140.8	258.75
1009.3398	2828.134	1152.75	271.6
1009.4581	2829.2957	1146.35	263.7
1009.5764	2830.4567	1152.95	273.2
1009.6947	2831.617	1150.95	268.8
1009.813	2832.7767	1154.1	272.05
1009.9312	2833.9358	1153.75	274.25
1010.0493	2835.0941	1152.5	268.35
1010.1675	2836.2519	1149.6	267.6
1010.2855	2837.4089	1146.55	263
1010.4036	2838.5653	1145.75	263.7
1010.5216	2839.7211	1138.8	259.4
1010.6396	2840.8761	1140.55	255.05
1010.7575	2842.0306	1133.6	252.95
1010.8754	2843.1843	1139.65	257
1010.9932	2844.3374	1135.5	253.45
1011.111	2845.4899	1142.95	259.55
1011.2288	2846.6417	1135.75	253.85
1011.3465	2847.7928	1131.95	250.1
1011.4642	2848.9433	1136.85	253.4
1011.5818	2850.0931	1137.55	254.85
1011.6995	2851.2422	1141.85	257.1
1011.817	2852.3907	1142.75	260.5
1011.9345	2853.5385	1137.4	253.35
1012.052	2854.6857	1150.9	259.45
1012.1695	2855.8323	1144.5	261.9
1012.2869	2856.9781	1143.1	260.3
1012.4042	2858.1233	1144.35	262.8
1012.5216	2859.2679	1139.6	257.9
1012.6389	2860.4118	1146.15	264.15
1012.7561	2861.555	1150.6	262.75
1012.8733	2862.6976	1143.2	260.5
1012.9905	2863.8395	1145.6	264.2
1013.1076	2864.9808	1140	258.35
1013.2247	2866.1214	1142.85	261.4
1013.3417	2867.2614	1141.85	259.2
1013.4587	2868.4007	1144.8	262.2
1013.5757	2869.5393	1148.45	264.6
1013.6926	2870.6773	1144.95	259.9
1013.8095	2871.8146	1144.1	258.3
1013.9263	2872.9513	1145.85	262.95
1014.0431	2874.0874	1136.95	254.15
1014.1599	2875.2227	1143.45	261.6
1014.2766	2876.3574	1145.85	263.65
1014.3933	2877.4915	1146.85	264.25
1014.51	2878.6249	1140.65	260.6
1014.6266	2879.7577	1146.95	264.9
1014.7431	2880.8898	1148.8	257.2
1014.8596	2882.0212	1139.9	256.85
1014.9761	2883.152	1142.35	259.65
1015.0925	2884.2821	1144.25	263
1015.2089	2885.4116	1140.65	259.05
1015.3253	2886.5405	1146	264.7
1015.4416	2887.6686	1148.9	264.5
1015.5579	2888.7962	1140.65	260.9
1015.6741	2889.923	1140.6	259.65
1015.7903	2891.0493	1141.25	260.45
1015.9065	2892.1748	1136.55	253.8
1016.0226	2893.2997	1139.65	258.5
1016.1387	2894.424	1134.55	252.25
1016.2547	2895.5476	1139.15	258.95
1016.3707	2896.6706	1134.05	252.4
1016.4866	2897.7929	1137	254.8
1016.6025	2898.9145	1133.95	251.9
1016.7184	2900.0355	1133.2	251.05
1016.8342	2901.1559	1132.65	251.9
1016.95	2902.2756	1129.6	248.7
1017.0658	2903.3946	1135.7	253.4
1017.1815	2904.513	1133.9	248.95
1017.2971	2905.6308	1129.95	249.1
1017.4127	2906.7479	1132	249.2
1017.5283	2907.8643	1128.2	247
1017.6439	2908.9801	1125.15	245.3
1017.7594	2910.0953	1130.05	248.25
1017.8748	2911.2098	1133	247.15
1017.9902	2912.3236	1133.3	243.65
1018.1056	2913.4368	1129.7	244.55
1018.2209	2914.5494	1127	242.6
1018.3362	2915.6613	1128.3	241.65
1018.4515	2916.7725	1121.2	239.1
1018.5667	2917.8831	1119.2	234.4
1018.6819	2918.9931	1118.1	233.5
1018.797	2920.1024	1121	236.85
1018.9121	2921.211	1115.85	233.3
1019.0271	2922.319	1112.1	230
1019.1421	2923.4264	1105	223.25
1019.2571	2924.5331	1111.45	232
1019.372	2925.6391	1108.9	227.25
1019.4869	2926.7445	1106.15	226.4
1019.6017	2927.8493	1105.75	223.05
1019.7165	2928.9534	1107.85	225.3
1019.8313	2930.0569	1112.15	229.3
1019.946	2931.1597	1109.05	227.25
1020.0606	2932.2619	1105.55	223.3
1020.1753	2933.3634	1103.3	223.95
1020.2899	2934.4643	1113.2	227.6
1020.4044	2935.5645	1117.6	227
1020.5189	2936.6641	1109.3	223.4
1020.6334	2937.763	1109	227.95
1020.7478	2938.8613	1104.5	223.6
1020.8622	2939.959	1108	220.9
1020.9765	2941.056	1101	220.45
1021.0908	2942.1523	1096.05	212.3
1021.2051	2943.248	1093.8	211.7
1021.3193	2944.3431	1089.4	207.9
1021.4334	2945.4375	1081.55	199.95
1021.5476	2946.5313	1076.35	195.7
1021.6617	2947.6244	1076.3	194.95
1021.7757	2948.7169	1069.6	187.1
1021.8897	2949.8087	1067	186.1
1022.0037	2950.8999	1062.6	179.5
1022.1176	2951.9904	1062.25	182.45
1022.2315	2953.0803	1055.8	172.75
1022.3453	2954.1696	1057.55	177.35
1022.4591	2955.2582	1053.4	171.7
1022.5728	2956.3462	1052.9	172.5
1022.6865	2957.4335	1055.3	173.7
1022.8002	2958.5202	1053.2	170.6
1022.9138	2959.6062	1049.85	169.75
1023.0274	2960.6916	1044.4	162.45
1023.141	2961.7764	1044.35	161.8
1023.2545	2962.8605	1043.9	162.15
1023.3679	2963.9439	1042.45	162.5
1023.4813	2965.0267	1046.35	163.2
1023.5947	2966.1089	1064.55	161.35
1023.708	2967.1905	1039.4	158.2
1023.8213	2968.2714	1041.3	161.3
1023.9346	2969.3516	1042.95	162.1
1024.0478	2970.4312	1046.45	159.15
1024.1609	2971.5102	1041.45	160.55
1024.274	2972.5885	1035.95	155.4
1024.3871	2973.6662	1045.1	159.9
1024.5002	2974.7432	1039.1	159.4
1024.6132	2975.8196	1037.35	156.6
1024.7261	2976.8954	1036.2	155.7
1024.839	2977.9705	1039.25	157.5
1024.9519	2979.045	1035.45	157.2
1025.0647	2980.1188	1036.3	156.05
1025.1775	2981.192	1032.2	155.05
1025.2902	2982.2645	1033.1	149.95
1025.4029	2983.3364	1034.8	155.8
1025.5156	2984.4077	1028.6	147.2
1025.6282	2985.4783	1031.1	143.95
1025.7407	2986.5483	1027.85	145.65
1025.8532	2987.6177	1028.15	146.6
1025.9657	2988.6864	1031.05	148.3
1026.0782	2989.7545	1021.05	138.6
1026.1906	2990.8219	1018.9	137.75
1026.3029	2991.8887	1018.15	135.8
1026.4152	2992.9548	1020.7	138.85
1026.5275	2994.0204	1017.7	138.4
1026.6397	2995.0852	1010.2	129.85
1026.7519	2996.1495	1011.2	130.2
1026.864	2997.2131	1005.7	126.55
1026.9761	2998.276	1005.8	123.55
1027.0882	2999.3383	1009.7	129
1027.2002	3000.4	1007.65	123.6
1027.3122	3001.4611	1008.5	126.75
1027.4241	3002.5215	1004.7	123.05
1027.536	3003.5812	999.55	118.7
1027.6478	3004.6404	1004.15	123.05
1027.7596	3005.6989	1003.85	120.9
1027.8714	3006.7567	999.8	120.9
1027.9831	3007.8139	1020.75	116.9
1028.0947	3008.8705	996.4	114.55
1028.2064	3009.9264	999.55	114.35
1028.3179	3010.9818	995.6	114
1028.4295	3012.0364	998.3	116.5
1028.541	3013.0905	995.15	114.95
1028.6524	3014.1439	994.25	111.7
1028.7638	3015.1966	993.9	114.55
1028.8752	3016.2487	992.8	110.7
1028.9865	3017.3002	993.45	107.5
1029.0978	3018.3511	989.75	111.2
1029.209	3019.4013	986.2	105.35
1029.3202	3020.4509	990.35	110.2
1029.4314	3021.4998	988.25	109.1
1029.5425	3022.5481	989.9	108.85
1029.6535	3023.5958	990.3	110.3
1029.7645	3024.6428	987.1	103.2
1029.8755	3025.6892	989.2	109
1029.9864	3026.735	986.55	106.2
1030.0973	3027.7802	986.1	104.45
1030.2082	3028.8247	985.9	107.6
1030.319	3029.8685	986.5	106.9
1030.4297	3030.9118	984.65	104.1
1030.5404	3031.9544	986.35	105.15
1030.6511	3032.9963	985.7	106.2
1030.7617	3034.0376	984.6	105.45
1030.8723	3035.0783	984.05	99.85
1030.9829	3036.1184	984.8	101.9
1031.0934	3037.1578	980.65	101.95
1031.2038	3038.1966	986.15	105.1
1031.3142	3039.2348	981.8	103.2
1031.4246	3040.2723	988	97.65
1031.5349	3041.3092	978.75	99.25
1031.6452	3042.3455	980.8	98.4
1031.7554	3043.3811	983.65	102.5
1031.8656	3044.4161	980.25	99.7
1031.9758	3045.4505	980.2	101.1
1032.0859	3046.4842	979.95	100.6
1032.1959	3047.5173	982.35	102.55
1032.3059	3048.5498	979.65	100.3
1032.4159	3049.5816	980.2	100.4
1032.5258	3050.6128	982.25	100
1032.6357	3051.6434	978.95	99
1032.7455	3052.6734	978.4	97.2
1032.8553	3053.7027	978.5	99.05
1032.9651	3054.7314	977.2	95.5
1033.0748	3055.7594	973.65	94.2
1033.1845	3056.7868	977.35	95.15
1033.2941	3057.8136	974.6	96.15
1033.4037	3058.8398	975.7	96.85
1033.5132	3059.8653	975.05	95.25
1033.6227	3060.8902	976	95.05
1033.7321	3061.9145	974.05	95.6
1033.8415	3062.9381	975.5	95.5
1033.9509	3063.9612	990	93.5
1034.0602	3064.9835	976.3	97.8
1034.1694	3066.0053	976	92.8
1034.2787	3067.0264	968.1	87.05
1034.3878	3068.0469	971.95	91.35
1034.497	3069.0668	975.5	91.15
1034.6061	3070.086	969.05	88.8
1034.7151	3071.1046	972.75	91.8
1034.8241	3072.1226	970.85	89.45
1034.9331	3073.1399	972.15	92.9
1035.042	3074.1567	970.05	89.25
1035.1508	3075.1727	973.05	90.4
1035.2597	3076.1882	968	86.25
1035.3684	3077.203	967.3	86.6
1035.4772	3078.2173	968.4	87.65
1035.5859	3079.2308	972.85	89
1035.6945	3080.2438	971.4	89.55
1035.8031	3081.2561	968.5	88.2
1035.9117	3082.2678	962.85	82.25
1036.0202	3083.2789	964.35	84.55
1036.1286	3084.2893	964.15	85.7
1036.2371	3085.2991	964.65	84.3
1036.3454	3086.3083	965.8	83.15
1036.4538	3087.3169	964.4	82.15
1036.562	3088.3248	964.4	84.45
1036.6703	3089.3321	966	84.05
1036.7785	3090.3388	961.8	84.9
1036.8866	3091.3449	962.35	82.9
1036.9948	3092.3503	963.8	79.75
1037.1028	3093.3551	960	82.25
1037.2108	3094.3593	957.95	78.65
1037.3188	3095.3629	956.8	76.95
1037.4267	3096.3658	958.95	77.45
1037.5346	3097.3681	959.35	80.9
1037.6425	3098.3698	960.25	78.35
1037.7503	3099.3708	964.1	77.25
1037.858	3100.3713	958.45	79.25
1037.9657	3101.3711	955.05	73.9
1038.0734	3102.3702	1092.05	76.45
1038.181	3103.3688	957.15	75.9
1038.2886	3104.3667	952.05	74.8
1038.3961	3105.364	954.05	73.9
1038.5036	3106.3607	956.55	74.6
1038.611	3107.3568	955.9	74.4
1038.7184	3108.3522	952.6	74.1
1038.8257	3109.347	951.85	70.15
1038.933	3110.3412	955.4	71.25
1039.0403	3111.3348	956.15	76.35
1039.1475	3112.3277	953.15	73.6
1039.2547	3113.32	949.45	70.85
1039.3618	3114.3117	949.4	69.15
1039.4689	3115.3028	947.7	66.4
1039.5759	3116.2932	949.35	67.7
1039.6829	3117.2831	952.05	68.45
1039.7898	3118.2723	951	73.15
1039.8967	3119.2608	949.2	68.65
1040.0035	3120.2488	949.25	68.2
1040.1103	3121.2361	948.95	70.3
1040.2171	3122.2229	948.1	68.5
1040.3238	3123.209	949.9	68.55
1040.4305	3124.1944	944.35	64.95
1040.5371	3125.1793	946.55	64.45
1040.6437	3126.1635	944.05	64.75
1040.7502	3127.1471	945.2	64.75
1040.8567	3128.1301	943.55	61.6
1040.9631	3129.1125	947.5	67.45
1041.0695	3130.0942	943.6	62.85
1041.1759	3131.0753	948.3	59.15
1041.2822	3132.0558	947.05	63.7
1041.3884	3133.0357	943.75	61.6
1041.4946	3134.015	944.95	63.55
1041.6008	3134.9936	943.4	60.95
1041.7069	3135.9716	962.65	61.9
1041.813	3136.949	942.95	63.6
1041.919	3137.9258	951.7	66
1042.025	3138.902	946.5	61.75
1042.1309	3139.8775	941.9	59.6
1042.2368	3140.8524	938.45	58.4
1042.3427	3141.8267	941.95	60.6
1042.4485	3142.8004	942.45	59.7
1042.5542	3143.7735	947.4	61.65
1042.6599	3144.7459	942.5	60.95
1042.7656	3145.7178	938.75	58.2
1042.8712	3146.689	940.25	60
1042.9768	3147.6596	941.25	59.2
1043.0823	3148.6295	936.4	57.85
1043.1878	3149.5989	938.4	58.2
1043.2932	3150.5676	937.4	58.9
1043.3986	3151.5357	935.8	56.7
1043.5039	3152.5032	937.85	58.75
1043.6092	3153.4701	937.05	57.8
1043.7145	3154.4364	941.2	58.55
1043.8197	3155.402	937.3	57.05
1043.9248	3156.367	938.75	56.85
1044.03	3157.3315	976	57.1
1044.135	3158.2952	936.25	54.8
1044.24	3159.2584	937.4	58.25
1044.345	3160.221	936.3	55.25
1044.4499	3161.1829	934.7	55.2
1044.5548	3162.1442	932.4	52.4
1044.6596	3163.105	937.7	58.8
1044.7644	3164.065	932.8	50.8
1044.8692	3165.0245	936	54.75
1044.9739	3165.9834	932.7	56.7
1045.0785	3166.9416	933.45	54.05
1045.1831	3167.8993	933.3	52.5
1045.2877	3168.8563	934.75	53.85
1045.3922	3169.8127	933.65	53.6
1045.4966	3170.7684	931.2	53.15
1045.6011	3171.7236	934	52.8
1045.7054	3172.6782	931.5	52.5
1045.8098	3173.6321	931.2	51.2
1045.914	3174.5854	937.95	52.45
1046.0183	3175.5381	929.15	51.2
1046.1224	3176.4902	930.1	49.35
1046.2266	3177.4417	927.55	48.1
1046.3307	3178.3926	928.8	48.15
1046.4347	3179.3428	928.6	51.95
1046.5387	3180.2924	928.5	47.85
1046.6427	3181.2415	927.85	46.75
1046.7466	3182.1899	928.3	47.5
1046.8504	3183.1377	930.55	52.4
1046.9542	3184.0848	930.65	48.3
1047.058	3185.0314	928.7	46.8
1047.1617	3185.9773	927.45	47.55
1047.2654	3186.9227	927.3	46.65
1047.369	3187.8674	927.45	48.5
1047.4726	3188.8115	928.55	43.15
1047.5761	3189.755	928.3	49.3
1047.6796	3190.6979	928	46.6
1047.783	3191.6402	924.9	45.75
1047.8864	3192.5818	922.4	42.1
1047.9898	3193.5229	939.25	41.15
1048.0931	3194.4633	925.1	44.8
1048.1963	3195.4031	925.05	46.45
1048.2995	3196.3423	925.6	45.25
1048.4027	3197.2809	925.6	45
1048.5058	3198.2189	923.7	42.75
1048.6089	3199.1563	941.9	46
1048.7119	3200.0931	921.65	42.75
1048.8148	3201.0292	923.1	43.55
1048.9178	3201.9648	923.05	42.55
1049.0206	3202.8997	924.75	40.85
1049.1235	3203.834	922.25	42
1049.2262	3204.7677	921.7	42.55
1049.329	3205.7008	922.65	39.45
1049.4317	3206.6333	921.95	44.1
1049.5343	3207.5652	924.35	41.75
1049.6369	3208.4964	922.4	43.55
1049.7394	3209.4271	920.75	40.35
1049.8419	3210.3571	922.55	44.45
1049.9444	3211.2865	923.7	42.6
1050.0468	3212.2154	923.35	44.15
1050.1491	3213.1436	921.95	39.45
1050.2514	3214.0712	925.2	37.95
1050.3537	3214.9982	922.9	42.8
1050.4559	3215.9246	917.25	35.8
1050.5581	3216.8503	918.25	38.3
1050.6602	3217.7755	919.5	39.2
1050.7623	3218.7001	917.55	38.05
1050.8643	3219.624	920.9	42.5
1050.9663	3220.5473	919.2	39.6
1051.0682	3221.4701	921.25	41
1051.1701	3222.3922	919.65	39.3
1051.2719	3223.3137	917.9	35.7
1051.3737	3224.2346	916.95	39.85
1051.4754	3225.1549	915.9	37.6
1051.5771	3226.0746	918.4	39.65
1051.6788	3226.9937	917.15	37.15
1051.7804	3227.9121	917.35	38.15
1051.8819	3228.83	917.3	37.65
1051.9834	3229.7473	916.95	36.2
1052.0849	3230.6639	916	35.45
1052.1863	3231.5799	915.75	37.1
1052.2876	3232.4954	919.4	39.95
1052.3889	3233.4102	914.1	34.55
1052.4902	3234.3244	917.2	35.9
1052.5914	3235.238	915.45	37.15
1052.6926	3236.151	941.05	37.6
1052.7937	3237.0634	914.9	37.65
1052.8948	3237.9752	915.9	35.5
1052.9958	3238.8864	914.8	34.95
1053.0968	3239.797	913.9	34.6
1053.1977	3240.7069	915.6	33.8
1053.2986	3241.6163	915.1	34.35
1053.3994	3242.5251	914.45	34.4
1053.5002	3243.4332	913.3	34.05
1053.6009	3244.3408	909.85	30.35
1053.7016	3245.2477	913.35	34.75
1053.8022	3246.154	913.85	34
1053.9028	3247.0598	914.75	31.1
1054.0034	3247.9649	913.2	34.95
1054.1039	3248.8694	913.95	33.9
1054.2043	3249.7733	911.05	33.9
1054.3047	3250.6766	913.65	31.15
1054.4051	3251.5793	911.7	31.75
1054.5054	3252.4814	912.95	34.05
1054.6056	3253.3829	910.35	30.85
1054.7058	3254.2838	912.25	32.65
1054.806	3255.1841	910.5	32.65
1054.9061	3256.0838	912.6	31.8
1055.0061	3256.9829	909	31.8
1055.1062	3257.8814	912.05	32.05
1055.2061	3258.7792	910.3	27.95
1055.306	3259.6765	910.55	32.05
1055.4059	3260.5731	909	30.3
1055.5057	3261.4692	908.55	29.55
1055.6055	3262.3647	907.45	28.8
1055.7052	3263.2595	907.9	27
1055.8049	3264.1538	908.55	30.85
1055.9045	3265.0474	909.5	27.9
1056.0041	3265.9404	906.3	28.1
1056.1036	3266.8329	904.95	26.25
1056.2031	3267.7247	915.9	26.25
1056.3025	3268.616	905.8	27.25
1056.4019	3269.5066	902.95	22.45
1056.5013	3270.3966	905.25	24.9
1056.6005	3271.286	902.75	26.25
