Software Version:	3.9.2.0
Unit SN:	10000200
Spectrometer SN:	6960
Date:	3/6/2024 11:04:35 AM
Data Line Index:	25
Spectral Points:	2048
Integration time (ms):	125
Averages:	20
Delay (ms):	30
Sequence Number:	1
Processing:	dark subtract
Laser Power (mW):	300
Laser Current (mA):	821
Laser Diode Temp (C):	25
Laser Case Temp (C):	28.4
System Temp (C):	28.2
Spectrometer Temp (C):	25.6
CCD Temp (C):	-0.005
Secondary Temp (C):	20.007
Heatsink Temp (C):	24
CCDPCB Temp (C):	37.43
SecondaryPCB Temp (C):	34.895

Wavelength	RamanShift	Raw Counts	Dark Subtracted
787.061	30.1047	1070.4	657.9
787.2016	32.3739	1102.05	690.85
787.3422	34.6426	1143.3	729.55
787.4828	36.9109	1186.15	771.25
787.6235	39.1787	1244.15	824.5
787.7642	41.4461	1297.05	873.7
787.9049	43.7131	1364.2	937.65
788.0456	45.9796	1429	999.15
788.1863	48.2456	1491.4	1058.25
788.3271	50.5112	1549.5	1110.95
788.4679	52.7764	1614.15	1175.25
788.6087	55.0411	1689.35	1246.2
788.7496	57.3054	1768.75	1320.25
788.8904	59.5692	1855.7	1401.9
789.0313	61.8326	1946.75	1491.25
789.1722	64.0955	2050.45	1590.3
789.3132	66.3579	2172.3	1707.5
789.4541	68.6199	2315.3	1848.25
789.5951	70.8815	2541.25	2071.1
789.7361	73.1426	3003.45	2527.25
789.8771	75.4032	4200.95	3719.8
790.0181	77.6634	7214.85	6727.35
790.1592	79.9231	14993.3	14505.2
790.3003	82.1824	48072.7	47574.4
790.4414	84.4412	65535	65021.15
790.5825	86.6995	65535	65001.55
790.7237	88.9574	65535	64982.25
790.8648	91.2148	65535	64969.15
791.006	93.4717	65535	64959.05
791.1472	95.7282	65535	64957.3
791.2885	97.9842	65535	64955.9
791.4297	100.2398	65535	64949.5
791.571	102.4949	65535	64943
791.7123	104.7495	65535	64940.5
791.8536	107.0036	65535	64939.8
791.9949	109.2573	65535	64942.2
792.1363	111.5105	65535	64941.3
792.2777	113.7632	65535	64937.2
792.4191	116.0154	65535	64929.2
792.5605	118.2672	65535	64934.5
792.7019	120.5185	65535	64932.7
792.8434	122.7693	65535	64928.85
792.9849	125.0197	65535	64924.75
793.1264	127.2696	65535	64925.45
793.2679	129.519	65535	64918.95
793.4094	131.7679	65535	64915.65
793.551	134.0163	65535	64914.9
793.6926	136.2642	65535	64907.55
793.8342	138.5117	65535	64900
793.9758	140.7587	65535	64904.3
794.1175	143.0052	65535	64899.75
794.2591	145.2512	65535	64903.7
794.4008	147.4967	65535	64900.4
794.5425	149.7417	65535	64896.8
794.6842	151.9863	65535	64896.7
794.826	154.2304	65535	64892.6
794.9677	156.4739	65535	64886.75
795.1095	158.717	65535	64884.95
795.2513	160.9596	65535	64882.5
795.3931	163.2017	65535	64883.1
795.535	165.4433	65535	64878.9
795.6768	167.6844	65535	64878.25
795.8187	169.925	65535	64873.2
795.9606	172.1651	65535	64869.6
796.1025	174.4047	65535	64865.3
796.2445	176.6439	65535	64865.2
796.3864	178.8825	65535	64861.45
796.5284	181.1206	65535	64860
796.6704	183.3582	65535	64856.65
796.8124	185.5954	65535	64853.65
796.9544	187.832	65535	64851.4
797.0965	190.0681	65535	64848.45
797.2386	192.3037	65535	64845.65
797.3806	194.5388	65535	64843.45
797.5228	196.7734	65535	64839
797.6649	199.0075	65535	64834.4
797.807	201.2411	65535	64832
797.9492	203.4742	65535	64835.9
798.0914	205.7068	65535	64833.15
798.2336	207.9389	65535	64831.85
798.3758	210.1704	65535	64828.8
798.518	212.4015	65535	64826
798.6603	214.632	65535	64831.5
798.8025	216.862	65535	64842.85
798.9448	219.0915	65535	64848.45
799.0871	221.3205	65535	64845.6
799.2294	223.549	65535	64851.5
799.3718	225.777	65535	64849.4
799.5141	228.0044	65535	64844.5
799.6565	230.2314	65535	64843.95
799.7989	232.4578	65535	64844.05
799.9413	234.6837	65535	64836.75
800.0837	236.909	65535	64834.05
800.2262	239.1339	65535	64806.9
800.3687	241.3582	65535	64822.9
800.5111	243.582	65535	64796.55
800.6536	245.8053	65535	64808.85
800.7961	248.0281	65535	64814.55
800.9387	250.2503	65535	64806.95
801.0812	252.472	65535	64800.85
801.2238	254.6932	65535	64798
801.3664	256.9139	65535	64800.9
801.509	259.134	65535	64795.1
801.6516	261.3536	65535	64797.25
801.7942	263.5727	65535	64795.05
801.9369	265.7912	65535	64799.55
802.0795	268.0092	65535	64796.65
802.2222	270.2267	65535	64795.2
802.3649	272.4436	65535	64795.65
802.5076	274.6601	65535	64786.25
802.6504	276.8759	65535	64789.2
802.7931	279.0913	65535	64788.2
802.9359	281.3061	65535	64784.2
803.0787	283.5204	65535	64784.3
803.2215	285.7341	65535	64779.8
803.3643	287.9473	65535	64766.65
803.5071	290.16	65535	64773.25
803.6499	292.3721	65535	64779.35
803.7928	294.5837	65535	64781.1
803.9357	296.7947	65535	64779.6
804.0786	299.0052	65535	64778.8
804.2215	301.2152	65535	64779.1
804.3644	303.4246	65535	64777.8
804.5074	305.6334	65535	64778.7
804.6503	307.8418	65535	64772.3
804.7933	310.0495	65535	64771.55
804.9363	312.2568	65535	64777.5
805.0793	314.4635	65535	64774.3
805.2223	316.6696	65535	64770.35
805.3653	318.8752	65535	64763.2
805.5084	321.0802	65535	64771.1
805.6514	323.2847	65535	64769.5
805.7945	325.4887	65535	64768.8
805.9376	327.692	65535	64765.95
806.0807	329.8949	65535	64767.2
806.2238	332.0972	65535	64766.3
806.367	334.2989	65535	64760.8
806.5101	336.5001	65535	64760.45
806.6533	338.7007	65535	64762.55
806.7965	340.9008	65535	64760
806.9397	343.1003	65535	64754.4
807.0829	345.2992	65535	64755.85
807.2261	347.4976	65535	64754.6
807.3693	349.6955	65535	64752.5
807.5126	351.8927	65535	64749.65
807.6559	354.0895	65535	64736.15
807.7991	356.2856	65535	64747.6
807.9424	358.4812	65535	64752.5
808.0857	360.6763	65535	64748.85
808.2291	362.8707	65535	64746.3
808.3724	365.0646	65535	64743.6
808.5158	367.258	65535	64739.15
808.6591	369.4508	65535	64736.4
808.8025	371.643	65535	64737.65
808.9459	373.8346	65535	64736.3
809.0893	376.0257	65535	64729.55
809.2327	378.2162	65535	64732.55
809.3762	380.4062	65535	64731.75
809.5196	382.5956	65535	64732.25
809.6631	384.7844	65535	64732.95
809.8066	386.9726	65535	64731.05
809.9501	389.1603	65535	64731.1
810.0936	391.3474	65535	64697.1
810.2371	393.5339	65535	64730.4
810.3806	395.7199	65535	64733.4
810.5241	397.9052	65535	64738.9
810.6677	400.09	65535	64738.25
810.8113	402.2743	65535	64736.35
810.9548	404.4579	65535	64739.7
811.0984	406.641	65535	64739.2
811.2421	408.8235	65535	64733.15
811.3857	411.0054	65535	64736.4
811.5293	413.1868	65535	64731.95
811.673	415.3675	65535	64730.45
811.8166	417.5477	65535	64729.8
811.9603	419.7273	65535	64728.35
812.104	421.9064	65535	64719.5
812.2477	424.0848	65535	64721.45
812.3914	426.2627	65535	64719.65
812.5351	428.4399	65535	64723.1
812.6788	430.6166	65535	64716.05
812.8226	432.7928	65535	64717.9
812.9663	434.9683	65535	64717.45
813.1101	437.1432	65535	64708.7
813.2539	439.3176	65535	64712.1
813.3977	441.4914	65535	64712.15
813.5415	443.6645	65535	64712.15
813.6853	445.8371	65535	64710.45
813.8291	448.0091	65535	64711.05
813.973	450.1806	65535	64712.25
814.1168	452.3514	65535	64707.4
814.2607	454.5216	65535	64701.6
814.4046	456.6913	65535	64707.55
814.5485	458.8603	65535	64707.35
814.6924	461.0288	65535	64706.75
814.8363	463.1967	65535	64707.5
814.9802	465.3639	65535	64708.2
815.1241	467.5306	65535	64706.05
815.2681	469.6967	65535	64707.7
815.412	471.8622	65535	64705.05
815.556	474.0271	65535	64704.65
815.7	476.1914	65535	64703.45
815.844	478.3551	65535	64705.25
815.988	480.5182	65535	64701.8
816.132	482.6807	65535	64702.2
816.276	484.8426	65535	64705
816.4201	487.0039	65535	64699.8
816.5641	489.1647	65535	64698
816.7082	491.3248	65535	64699.6
816.8522	493.4843	65535	64701.75
816.9963	495.6432	65535	64701.3
817.1404	497.8015	65535	64695.9
817.2845	499.9592	65535	64698.05
817.4286	502.1163	65535	64698.95
817.5727	504.2728	65535	64696.15
817.7168	506.4287	65535	64698.45
817.861	508.5839	65535	64696.45
818.0051	510.7386	65535	64698.7
818.1493	512.8927	65535	64692.75
818.2935	515.0461	65535	64694.35
818.4377	517.199	65535	64696.8
818.5818	519.3512	65535	64691.75
818.726	521.5029	65535	64688.4
818.8703	523.6539	65535	64692.15
819.0145	525.8043	65535	64694.15
819.1587	527.9541	65535	64689.15
819.303	530.1033	65535	64690.85
819.4472	532.2519	65535	64692.5
819.5915	534.3999	65535	64689.85
819.7357	536.5472	65535	64688.45
819.88	538.694	65535	64687.55
820.0243	540.8401	65535	64689.2
820.1686	542.9856	65535	64687.35
820.3129	545.1305	65535	64686.5
820.4572	547.2748	65535	64685.85
820.6016	549.4185	65535	64683.25
820.7459	551.5615	65535	64687.4
820.8902	553.704	65535	64688.05
821.0346	555.8458	65535	64684.65
821.1789	557.987	65535	64685.8
821.3233	560.1276	65535	64680.2
821.4677	562.2675	65535	64684.6
821.6121	564.4069	65535	64686.25
821.7565	566.5456	65535	64687.4
821.9009	568.6837	65535	64685.65
822.0453	570.8212	65535	64684.55
822.1897	572.958	65535	64683.05
822.3342	575.0942	65535	64686.05
822.4786	577.2299	65535	64681.85
822.6231	579.3648	65535	64682.1
822.7675	581.4992	65535	64685.15
822.912	583.6329	65535	64682.85
823.0565	585.766	65535	64686.4
823.201	587.8985	65535	64683
823.3454	590.0304	65535	64666.2
823.4899	592.1616	65535	64678.75
823.6345	594.2922	65535	64678.85
823.779	596.4222	65535	64680.65
823.9235	598.5515	65535	64680
824.068	600.6802	65535	64678.35
824.2126	602.8083	65535	64680.5
824.3571	604.9358	65535	64677.05
824.5017	607.0626	65535	64680.5
824.6462	609.1888	65535	64678.7
824.7908	611.3144	65535	64677.2
824.9354	613.4393	65535	64676.55
825.08	615.5636	65535	64676.65
825.2246	617.6873	65535	64677.4
825.3692	619.8103	65535	64676.8
825.5138	621.9327	65535	64673.7
825.6584	624.0544	65535	64678.9
825.803	626.1756	65535	64677.75
825.9477	628.2961	65535	64675.8
826.0923	630.4159	65535	64674.7
826.237	632.5351	65535	64675.45
826.3816	634.6537	65535	64676.55
826.5263	636.7716	65535	64671.85
826.6709	638.8889	65535	64672
826.8156	641.0056	65535	64673.15
826.9603	643.1216	65535	64671.2
827.105	645.237	65535	64671.55
827.2497	647.3518	65535	64668.9
827.3944	649.4659	65535	64672.65
827.5391	651.5793	65535	64670.35
827.6838	653.6922	65535	64671.2
827.8285	655.8043	65535	64672.1
827.9733	657.9159	65535	64668.55
828.118	660.0268	65535	64667.05
828.2627	662.137	65535	64668.6
828.4075	664.2466	65535	64667.95
828.5522	666.3556	65535	64671.05
828.697	668.4639	65535	64666.1
828.8418	670.5716	65535	64669.05
828.9865	672.6786	65535	64668.3
829.1313	674.785	65535	64667.55
829.2761	676.8907	65535	64666.7
829.4209	678.9958	65535	64669.25
829.5657	681.1002	65535	64665
829.7105	683.204	65535	64664.2
829.8553	685.3072	65535	64667.1
830.0001	687.4097	65535	64666.35
830.1449	689.5115	65535	64662.85
830.2898	691.6127	65535	64666.4
830.4346	693.7132	65535	64664.55
830.5794	695.8131	65535	64657.05
830.7243	697.9123	65535	64665.05
830.8691	700.0109	65535	64663.25
831.014	702.1089	65535	64663.3
831.1588	704.2061	65535	64663.3
831.3037	706.3028	65535	64662.85
831.4486	708.3987	65535	64663.55
831.5935	710.4941	65535	64663.85
831.7383	712.5887	65535	64663.35
831.8832	714.6827	65535	64654.9
832.0281	716.7761	65535	64662.2
832.173	718.8688	65535	64661.25
832.3179	720.9608	65535	64657.65
832.4628	723.0522	65535	64658.3
832.6077	725.1429	65535	64661.95
832.7527	727.233	65535	64658.7
832.8976	729.3224	65535	64660.3
833.0425	731.4112	65535	64661.5
833.1874	733.4993	65535	64656.3
833.3324	735.5867	65535	64659.8
833.4773	737.6735	65535	64659
833.6222	739.7596	65535	64655.7
833.7672	741.845	65535	64659.1
833.9122	743.9298	65535	64654.5
834.0571	746.014	65535	64660.85
834.2021	748.0974	65535	64656.45
834.347	750.1802	65535	64656.35
834.492	752.2624	65535	64660.05
834.637	754.3439	65535	64656.85
834.782	756.4247	65535	64648.5
834.9269	758.5048	65535	64656.8
835.0719	760.5843	65535	64657.85
835.2169	762.6631	65535	64655.85
835.3619	764.7413	65535	64659.4
835.5069	766.8188	65535	64655.5
835.6519	768.8956	65535	64654.8
835.7969	770.9718	65535	64657.8
835.9419	773.0473	65535	64656.65
836.0869	775.1221	65535	64657
836.232	777.1962	65535	64656.55
836.377	779.2697	65535	64654.45
836.522	781.3426	65535	64637.95
836.667	783.4147	65535	64654.5
836.8121	785.4862	65535	64657.95
836.9571	787.557	65535	64654.35
837.1021	789.6271	65535	64654.7
837.2472	791.6966	65535	64656.05
837.3922	793.7654	65535	64655.5
837.5373	795.8335	65535	64656.65
837.6823	797.901	65535	64655.35
837.8274	799.9678	65535	64656.5
837.9724	802.0339	65535	64655
838.1175	804.0993	65535	64646.4
838.2626	806.1641	65535	64655.15
838.4076	808.2282	65535	64654.15
838.5527	810.2916	65535	64650.75
838.6978	812.3544	65535	64657.35
838.8428	814.4164	65535	64655.55
838.9879	816.4778	65535	64652.65
839.133	818.5385	65535	64654.7
839.2781	820.5986	65535	64654.1
839.4232	822.658	65535	64652.05
839.5682	824.7166	65535	64654.85
839.7133	826.7747	65535	64652.95
839.8584	828.832	65535	64652.9
840.0035	830.8886	65535	64651
840.1486	832.9446	65535	64652
840.2937	834.9999	65535	64655.85
840.4388	837.0545	65535	64649.3
840.5839	839.1085	65535	64652.4
840.729	841.1618	65535	64649.75
840.8741	843.2143	65535	64652.15
841.0192	845.2662	65535	64651.25
841.1643	847.3175	65535	64650.5
841.3095	849.368	65535	64651.25
841.4546	851.4179	65535	64652.9
841.5997	853.467	65535	64650.6
841.7448	855.5155	65535	64652.65
841.8899	857.5633	65535	64651.2
842.0351	859.6105	65535	64652.2
842.1802	861.6569	65535	64651.6
842.3253	863.7027	65535	64652.2
842.4704	865.7478	65535	64651.6
842.6156	867.7922	65535	64651.9
842.7607	869.8359	65535	64650.65
842.9058	871.8789	65535	64648.25
843.0509	873.9212	65535	64617.3
843.1961	875.9629	65535	64650.5
843.3412	878.0039	65535	64649.65
843.4863	880.0441	65535	64654.1
843.6315	882.0837	65535	64650.1
843.7766	884.1226	65535	64648.45
843.9218	886.1609	65535	64652.05
844.0669	888.1984	65535	64650.5
844.212	890.2352	65535	64650.95
844.3572	892.2714	65535	64647.3
844.5023	894.3069	65535	64648.5
844.6475	896.3416	65535	64647.05
844.7926	898.3757	65535	64649.3
844.9377	900.4091	65535	64647.65
845.0829	902.4418	65535	64645.65
845.228	904.4739	65535	64647.9
845.3732	906.5052	65535	64649.25
845.5183	908.5358	65535	64649.05
845.6635	910.5658	65535	64646.7
845.8086	912.595	65535	64646.9
845.9538	914.6236	65535	64647.75
846.0989	916.6515	65535	64650.5
846.2441	918.6786	65535	64650.05
846.3892	920.7051	65535	64646.4
846.5344	922.7309	65535	64648.25
846.6795	924.756	65535	64646.8
846.8246	926.7804	65535	64643.3
846.9698	928.8041	65535	64645.9
847.1149	930.8272	65535	64648.55
847.2601	932.8495	65535	64644.4
847.4052	934.8711	65535	64647.95
847.5504	936.892	65535	64650.55
847.6955	938.9123	65535	64646.1
847.8407	940.9318	65535	64647.7
847.9858	942.9506	65535	64647.45
848.131	944.9688	65535	64646.25
848.2761	946.9862	65535	64647.05
848.4213	949.003	65535	64648.25
848.5664	951.019	65535	64646.7
848.7115	953.0344	65535	64644.65
848.8567	955.0491	65535	64644.15
849.0018	957.063	65535	64647.2
849.147	959.0763	65535	64645.85
849.2921	961.0888	65535	64643.95
849.4373	963.1007	65535	64645.85
849.5824	965.1119	65535	64648.5
849.7275	967.1223	65535	64647.05
849.8727	969.1321	65535	64647.65
850.0178	971.1412	65535	64647.4
850.1629	973.1495	65535	64645.65
850.3081	975.1572	65535	64613
850.4532	977.1641	65535	64647.4
850.5983	979.1704	65535	64646
850.7435	981.1759	65535	64643.75
850.8886	983.1808	65535	64643.55
851.0337	985.1849	65535	64635.4
851.1788	987.1884	65535	64644.45
851.324	989.1911	65535	64644.35
851.4691	991.1932	65535	64644
851.6142	993.1945	65535	64646.55
851.7593	995.1951	65535	64646.8
851.9045	997.1951	65535	64638.1
852.0496	999.1943	65535	64647.4
852.1947	1001.1928	65535	64645.35
852.3398	1003.1906	65535	64646.45
852.4849	1005.1877	65535	64644.9
852.63	1007.1841	65535	64646.65
852.7751	1009.1798	65535	64645.5
852.9202	1011.1748	65535	64646.95
853.0653	1013.1691	65535	64643.1
853.2104	1015.1627	65535	64646.4
853.3555	1017.1556	65535	64643.6
853.5006	1019.1477	65535	64644.1
853.6457	1021.1392	65535	64645.8
853.7908	1023.1299	65535	64645.25
853.9359	1025.12	65535	64644.6
854.081	1027.1093	65535	64647.45
854.2261	1029.0979	65535	64645.55
854.3712	1031.0859	65535	64647.75
854.5163	1033.0731	65535	64645.05
854.6613	1035.0596	65535	64646.85
854.8064	1037.0454	65535	64644.65
854.9515	1039.0304	65535	64640.9
855.0965	1041.0148	65535	64646
855.2416	1042.9985	65535	64642.55
855.3867	1044.9814	65535	64645.65
855.5317	1046.9636	65535	64642.9
855.6768	1048.9452	65535	64644
855.8219	1050.926	65535	64642.9
855.9669	1052.9061	65535	64645.2
856.112	1054.8855	65535	64645.1
856.257	1056.8642	65535	64643.25
856.4021	1058.8421	65535	64642.25
856.5471	1060.8194	65535	64642.1
856.6921	1062.7959	65535	64644.75
856.8372	1064.7717	65535	64644.8
856.9822	1066.7469	65535	64643.75
857.1272	1068.7213	65535	64640.45
857.2723	1070.695	65535	64646.2
857.4173	1072.6679	65535	64643.45
857.5623	1074.6402	65535	64643.25
857.7073	1076.6117	65535	64639.15
857.8523	1078.5826	65535	64644.95
857.9973	1080.5527	65535	64642.2
858.1423	1082.5221	65535	64644.35
858.2873	1084.4908	65535	64643.9
858.4323	1086.4587	65535	64643.5
858.5773	1088.426	65535	64641
858.7223	1090.3925	65535	64638.95
858.8673	1092.3584	65535	64642.95
859.0123	1094.3235	65535	64644.65
859.1573	1096.2879	65535	64642.75
859.3022	1098.2515	65535	64643.35
859.4472	1100.2145	65535	64642.55
859.5922	1102.1767	65535	64641.25
859.7371	1104.1382	65535	64644.4
859.8821	1106.099	65535	64639.3
860.027	1108.0591	65535	64641.7
860.172	1110.0185	65535	64640.15
860.3169	1111.9771	65535	64645.1
860.4619	1113.9351	65535	64644.85
860.6068	1115.8923	65535	64644.95
860.7517	1117.8488	65535	64641.55
860.8967	1119.8045	65535	64642.5
861.0416	1121.7596	65535	64644.8
861.1865	1123.7139	65535	64645.05
861.3314	1125.6675	65535	64642.85
861.4763	1127.6204	65535	64645
861.6212	1129.5726	65535	64642
861.7661	1131.524	65535	64644.9
861.911	1133.4748	65535	64643.65
862.0559	1135.4248	65535	64642.6
862.2008	1137.3741	65535	64641.1
862.3457	1139.3226	65535	64642
862.4905	1141.2705	65535	64643
862.6354	1143.2176	65535	64637.45
862.7803	1145.164	65535	64642.2
862.9251	1147.1097	65535	64642.2
863.07	1149.0546	65535	64641.95
863.2148	1150.9989	65535	64641.3
863.3597	1152.9424	65535	64640.2
863.5045	1154.8852	65535	64644.65
863.6493	1156.8272	65535	64642.15
863.7942	1158.7686	65535	64633.75
863.939	1160.7092	65535	64640.85
864.0838	1162.6491	65535	64639.25
864.2286	1164.5883	65535	64643.9
864.3734	1166.5267	65535	64639.85
864.5182	1168.4644	65535	64643.4
864.663	1170.4014	65535	64636.55
864.8078	1172.3377	65535	64643
864.9526	1174.2732	65535	64643.9
865.0974	1176.2081	65535	64644.05
865.2421	1178.1421	65535	64635.55
865.3869	1180.0755	65535	64641.7
865.5317	1182.0082	65535	64642.35
865.6764	1183.9401	65535	64641.55
865.8212	1185.8713	65535	64643.2
865.9659	1187.8017	65535	64642.3
866.1106	1189.7315	65535	64644.4
866.2554	1191.6605	65535	64615
866.4001	1193.5888	65535	64641.45
866.5448	1195.5163	65535	64643.1
866.6895	1197.4432	65535	64640.45
866.8342	1199.3693	65535	64643.2
866.9789	1201.2947	65535	64638.85
867.1236	1203.2193	65535	64642.45
867.2683	1205.1432	65535	64642.65
867.413	1207.0664	65535	64642.9
867.5576	1208.9889	65535	64638.85
867.7023	1210.9106	65535	64640.15
867.847	1212.8316	65535	64643.2
867.9916	1214.7519	65535	64633
868.1363	1216.6715	65535	64643.45
868.2809	1218.5903	65535	64645.35
868.4255	1220.5084	65535	64643.1
868.5701	1222.4257	65535	64645.25
868.7148	1224.3424	65535	64641.65
868.8594	1226.2583	65535	64639.8
869.004	1228.1735	65535	64640.7
869.1486	1230.0879	65535	64643.55
869.2932	1232.0016	65535	64640.95
869.4377	1233.9146	65535	64638.7
869.5823	1235.8269	65535	64639.95
869.7269	1237.7384	65535	64641.85
869.8715	1239.6492	65535	64642.3
870.016	1241.5592	65535	64639.1
870.1606	1243.4686	65535	64643.85
870.3051	1245.3772	65535	64641.35
870.4496	1247.285	65535	64640.5
870.5941	1249.1922	65535	64642.05
870.7387	1251.0986	65535	64642.45
870.8832	1253.0042	65535	64641.35
871.0277	1254.9092	65535	64642.25
871.1722	1256.8134	65535	64642.25
871.3167	1258.7169	65535	64642.65
871.4611	1260.6196	65535	64643.3
871.6056	1262.5216	65535	64639.6
871.7501	1264.4229	65535	64643.9
871.8945	1266.3234	65535	64641.75
872.039	1268.2232	65535	64641.1
872.1834	1270.1223	65535	64640.65
872.3278	1272.0207	65535	64642
872.4723	1273.9183	65535	64636.15
872.6167	1275.8151	65535	64641.9
872.7611	1277.7113	65535	64640.45
872.9055	1279.6067	65535	64641.15
873.0499	1281.5014	65535	64639.85
873.1943	1283.3953	65535	64640.05
873.3386	1285.2885	65535	64641.3
873.483	1287.181	65535	64639.6
873.6274	1289.0727	65535	64642.25
873.7717	1290.9637	65535	64640.45
873.9161	1292.854	65535	64642.05
874.0604	1294.7435	65535	64642.05
874.2047	1296.6323	65535	64641.85
874.349	1298.5204	65535	64638.75
874.4933	1300.4077	65535	64639.8
874.6376	1302.2943	65535	64641.7
874.7819	1304.1802	65535	64641.15
874.9262	1306.0653	65535	64637.35
875.0705	1307.9497	65535	64641.1
875.2147	1309.8333	65535	64644.05
875.359	1311.7162	65535	64644.45
875.5032	1313.5984	65535	64640.05
875.6475	1315.4798	65535	64628.8
875.7917	1317.3605	65535	64623.95
875.9359	1319.2405	65535	64640.75
876.0801	1321.1197	65535	64640
876.2243	1322.9982	65535	64637.85
876.3685	1324.876	65535	64640.6
876.5127	1326.753	65535	64639.3
876.6569	1328.6293	65535	64640.3
876.801	1330.5048	65535	64641.45
876.9452	1332.3796	65535	64642
877.0893	1334.2537	65535	64615.6
877.2335	1336.127	65535	64642.05
877.3776	1337.9996	65535	64641.7
877.5217	1339.8714	65535	64642.9
877.6658	1341.7426	65535	64598.9
877.8099	1343.6129	65535	64640.05
877.954	1345.4826	65535	64643.35
878.0981	1347.3515	65535	64637.85
878.2422	1349.2196	65535	64639.4
878.3862	1351.087	65535	64641.55
878.5303	1352.9537	65535	64640.45
878.6743	1354.8197	65535	64641.4
878.8184	1356.6849	65535	64638.05
878.9624	1358.5493	65535	64639.85
879.1064	1360.4131	65535	64641.1
879.2504	1362.276	65535	64642.15
879.3944	1364.1383	65535	64641.75
879.5384	1365.9998	65535	64635.8
879.6823	1367.8606	65535	64638.85
879.8263	1369.7206	65535	64639.8
879.9702	1371.5799	65535	64637.9
880.1142	1373.4384	65535	64641.15
880.2581	1375.2962	65535	64638.7
880.402	1377.1533	65535	64640.6
880.5459	1379.0096	65535	64641.45
880.6898	1380.8652	65535	64640.15
880.8337	1382.7201	65535	64641.25
880.9776	1384.5742	65535	64639.5
881.1215	1386.4275	65535	64640.1
881.2653	1388.2802	65535	64642.5
881.4092	1390.132	65535	64643.1
881.553	1391.9832	65535	64639.35
881.6968	1393.8336	65535	64638.2
881.8406	1395.6832	65535	64639.75
881.9844	1397.5322	65535	64640.7
882.1282	1399.3803	65535	64636.1
882.272	1401.2278	65535	64639.3
882.4158	1403.0745	65535	64639.9
882.5595	1404.9204	65535	64641.8
882.7033	1406.7656	65535	64643.75
882.847	1408.6101	65535	64640.25
882.9908	1410.4538	65535	64640.3
883.1345	1412.2968	65535	64640.7
883.2782	1414.139	65535	64641.7
883.4219	1415.9805	65535	64641.35
883.5656	1417.8213	65535	64632.45
883.7092	1419.6613	65535	64640.9
883.8529	1421.5006	65535	64641.85
883.9965	1423.3391	65535	64639.95
884.1402	1425.1769	65535	64639.9
884.2838	1427.0139	65535	64639
884.4274	1428.8502	65535	64639.65
884.571	1430.6858	65535	64639.9
884.7146	1432.5206	65535	64639.35
884.8582	1434.3547	65535	64640.35
885.0018	1436.188	65535	64639.8
885.1453	1438.0206	65535	64639.9
885.2889	1439.8524	65535	64640.65
885.4324	1441.6835	65535	64640.15
885.5759	1443.5139	65535	64637.85
885.7194	1445.3435	65535	64640.5
885.8629	1447.1724	65535	64642.55
886.0064	1449.0005	65535	64641.45
886.1499	1450.8279	65535	64639.85
886.2933	1452.6545	65535	64641.9
886.4368	1454.4804	65535	64643.55
886.5802	1456.3056	65535	64634.95
886.7237	1458.13	65535	64642.85
886.8671	1459.9536	65535	64640.2
887.0105	1461.7766	65535	64642.65
887.1539	1463.5987	65535	64641.5
887.2972	1465.4202	65535	64639.65
887.4406	1467.2409	65535	64640.55
887.584	1469.0608	65535	64643.4
887.7273	1470.88	65535	64640.1
887.8706	1472.6984	65535	64640.8
888.0139	1474.5161	65535	64636.5
888.1572	1476.3331	65535	64641.8
888.3005	1478.1493	65535	64639
888.4438	1479.9648	65535	64643.1
888.5871	1481.7795	65535	64641.15
888.7303	1483.5935	65535	64640.95
888.8736	1485.4067	65535	64643.6
889.0168	1487.2192	65535	64639.05
889.16	1489.031	65535	64640.7
889.3032	1490.842	65535	64640.9
889.4464	1492.6522	65535	64640.05
889.5896	1494.4618	65535	64640.4
889.7327	1496.2705	65535	64642
889.8759	1498.0785	65535	64641.65
890.019	1499.8858	65535	64640.6
890.1622	1501.6924	65535	64642.9
890.3053	1503.4981	65535	64642.6
890.4484	1505.3032	65535	64641.65
890.5914	1507.1075	65535	64641.55
890.7345	1508.911	65535	64640.35
890.8776	1510.7138	65535	64639.85
891.0206	1512.5159	65535	64641.15
891.1637	1514.3172	65488.55	64596.05
891.3067	1516.1178	65518.95	64625.45
891.4497	1517.9176	65534.1	64637.7
891.5927	1519.7166	65508.2	64615.2
891.7357	1521.515	65488.5	64590.15
891.8786	1523.3126	65359.95	64467.75
892.0216	1525.1094	65497.5	64602.6
892.1645	1526.9055	65435.45	64542
892.3074	1528.7008	65436.05	64542.65
892.4503	1530.4954	65194.2	64294.05
892.5932	1532.2893	65435.6	64542.05
892.7361	1534.0824	65139.85	64240.35
892.879	1535.8747	64911.4	64017.4
893.0218	1537.6663	65426.4	64530.65
893.1647	1539.4572	64386.4	63491.85
893.3075	1541.2473	64885.9	63991.05
893.4503	1543.0367	64736.1	63843.7
893.5931	1544.8253	64580.3	63684.3
893.7359	1546.6132	64730.8	63834.5
893.8787	1548.4003	64371.8	63466.5
894.0214	1550.1867	64260.95	63358
894.1642	1551.9723	64120.7	63220.85
894.3069	1553.7572	64209.15	63315.7
894.4496	1555.5414	64448.95	63555.3
894.5923	1557.3247	62860.3	61967.8
894.735	1559.1074	64150.6	63257.55
894.8777	1560.8893	63510.6	62615.1
895.0204	1562.6705	63834.7	62941.4
895.163	1564.4509	62845.05	61950
895.3056	1566.2305	63274.55	62381.85
895.4482	1568.0094	63916.4	63024.45
895.5908	1569.7876	63393.4	62498.95
895.7334	1571.565	62737.65	61844.6
895.876	1573.3417	63108.8	62217.65
896.0186	1575.1176	62917.4	62025.05
896.1611	1576.8928	62549.1	61655.2
896.3036	1578.6672	61961.55	61069.15
896.4461	1580.4409	62303.3	61411.1
896.5886	1582.2138	61455.35	60561.45
896.7311	1583.986	61644.25	60749.45
896.8736	1585.7575	60862.1	59970.2
897.0161	1587.5282	60992.4	60101.05
897.1585	1589.2981	61073.55	60182.75
897.3009	1591.0673	60319.6	59426.5
897.4433	1592.8358	59927.7	59037.6
897.5857	1594.6035	60346.7	59451.5
897.7281	1596.3704	60296.65	59403.15
897.8705	1598.1366	59469	58577.2
898.0128	1599.9021	59018.25	58123.4
898.1551	1601.6668	59579.95	58685.75
898.2975	1603.4308	59177	58282.3
898.4398	1605.194	59492.15	58595.55
898.5821	1606.9564	58349.45	57457.2
898.7243	1608.7182	58947.95	58051.45
898.8666	1610.4791	58416.5	57525.75
899.0088	1612.2394	58792.6	57901.35
899.1511	1613.9988	58416.9	57522.6
899.2933	1615.7576	58957.45	58066.25
899.4355	1617.5156	58879.85	57981.8
899.5776	1619.2728	59614.95	58722.55
899.7198	1621.0293	58607.3	57716.6
899.862	1622.785	58618.4	57722
900.0041	1624.54	58903.15	58009.35
900.1462	1626.2942	58347.05	57454.85
900.2883	1628.0477	57290.25	56394.7
900.4304	1629.8005	56839.55	55943.85
900.5725	1631.5525	57111.1	56217.4
900.7145	1633.3037	56170.15	55276.4
900.8566	1635.0542	56175.05	55281.25
900.9986	1636.804	56192.3	55299.15
901.1406	1638.553	55610.1	54602.65
901.2826	1640.3013	55608.45	54713.4
901.4245	1642.0488	55070.65	54176.45
901.5665	1643.7955	55257.75	54367.35
901.7085	1645.5416	54871	53977.9
901.8504	1647.2868	54679	53789.35
901.9923	1649.0313	54958.3	54066.9
902.1342	1650.7751	54800.55	53905.35
902.2761	1652.5181	54528.55	53637
902.4179	1654.2604	54604.5	53710.65
902.5598	1656.0019	55068.8	54175.5
902.7016	1657.7427	54876.1	53985.15
902.8434	1659.4828	55327.95	54436.25
902.9852	1661.222	55207.65	54316
903.127	1662.9606	55280.7	54389.2
903.2687	1664.6984	54822.9	53932.35
903.4105	1666.4354	54661.5	53768.1
903.5522	1668.1717	53778.15	52885.4
903.6939	1669.9072	53100.6	52206.6
903.8356	1671.642	52766.25	51872.1
903.9773	1673.3761	52419.1	51528
904.119	1675.1094	52035.7	51144.6
904.2606	1676.8419	51655.1	50764.05
904.4022	1678.5737	51335.9	50443.65
904.5439	1680.3048	51035.15	50142.85
904.6855	1682.0351	50742.35	49852.55
904.827	1683.7646	50432.5	49538.75
904.9686	1685.4934	50386.25	49495.6
905.1101	1687.2215	49873.35	48981.7
905.2517	1688.9488	49872.9	48980.05
905.3932	1690.6754	49265.15	48375.25
905.5347	1692.4012	49339.2	48449.35
905.6761	1694.1263	49112	48219.8
905.8176	1695.8506	48990.4	48100.85
905.9591	1697.5742	48798.2	47906.3
906.1005	1699.297	48584.35	47691.75
906.2419	1701.0191	48318.35	47425.45
906.3833	1702.7404	48050.45	47159
906.5246	1704.461	47805.9	46914.15
906.666	1706.1808	47626.95	46732.95
906.8073	1707.8999	47488	46596.85
906.9487	1709.6182	47352.7	46462.5
907.09	1711.3358	47178.75	46287.55
907.2313	1713.0527	47045.1	46155.35
907.3725	1714.7688	46826.35	45926.85
907.5138	1716.4841	46540.2	45647.15
907.655	1718.1987	46531.2	45634.55
907.7962	1719.9126	46397.55	45506.7
907.9374	1721.6257	46243.95	45348.9
908.0786	1723.338	46109.8	45219.45
908.2198	1725.0496	45716.65	44823.8
908.3609	1726.7605	45627.25	44736.5
908.502	1728.4706	45499.75	44607.55
908.6431	1730.18	45231.1	44338.5
908.7842	1731.8886	45129.6	44236.8
908.9253	1733.5964	45022.5	44111.1
909.0664	1735.3036	44891.8	43998.55
909.2074	1737.0099	44761.7	43871.15
909.3484	1738.7156	44576.05	43685.05
909.4894	1740.4204	44323.45	43429.65
909.6304	1742.1246	44241.45	43347.25
909.7714	1743.8279	44115.95	43225.85
909.9123	1745.5306	44065.05	43171.8
910.0532	1747.2325	43841.25	42951.45
910.1941	1748.9336	43729.4	42840.2
910.335	1750.634	43543	42649.9
910.4759	1752.3336	43390.05	42500
910.6168	1754.0325	43272.25	42380.1
910.7576	1755.7307	43155.75	42263.95
910.8984	1757.4281	43119.7	42229.6
911.0392	1759.1247	43052.35	42153.4
911.18	1760.8206	42921.5	42025.15
911.3208	1762.5158	42857.9	41962.9
911.4615	1764.2102	42627.95	41736.15
911.6022	1765.9039	42483.45	41593.15
911.7429	1767.5968	42394.55	41503.6
911.8836	1769.289	42191.25	41300.75
912.0243	1770.9804	42116.95	41223.85
912.1649	1772.6711	42013.2	41123.15
912.3056	1774.361	41884.75	40993.2
912.4462	1776.0502	41774.55	40881.4
912.5868	1777.7386	41644.65	40751.25
912.7274	1779.4263	41464.45	40572.15
912.8679	1781.1132	41464.25	40573.35
913.0084	1782.7994	41288.45	40398.6
913.149	1784.4849	41204.15	40313.4
913.2895	1786.1696	41008.3	40110.7
913.4299	1787.8535	40944.05	40054.65
913.5704	1789.5367	40757.45	39867
913.7108	1791.2192	40711.9	39822.2
913.8513	1792.9009	40553.6	39634.3
913.9917	1794.5818	40469.2	39577.5
914.132	1796.2621	40342	39453.2
914.2724	1797.9415	40190.5	39300.1
914.4128	1799.6202	40053.6	39163.95
914.5531	1801.2982	39944.4	39054.4
914.6934	1802.9755	39881.95	38989.95
914.8337	1804.6519	39801.15	38910.2
914.9739	1806.3277	39568.45	38677.15
915.1142	1808.0027	39353.4	38461.85
915.2544	1809.6769	39326.7	38436.25
915.3946	1811.3504	39187.8	38295
915.5348	1813.0231	39094	38200.55
915.675	1814.6951	39048.4	38157.05
915.8151	1816.3664	38990.2	38097.7
915.9553	1818.0369	38901	38010.4
916.0954	1819.7067	38713.7	37823.75
916.2355	1821.3757	38608.75	37717.2
916.3755	1823.044	38568.8	37677.3
916.5156	1824.7115	38464.2	37573.25
916.6556	1826.3783	38244.5	37354
916.7956	1828.0443	38135.35	37245.35
916.9356	1829.7096	38070.4	37177.7
917.0756	1831.3741	38013.55	37118.4
917.2155	1833.0379	37877.5	36986.6
917.3555	1834.701	37726.4	36834.2
917.4954	1836.3633	37691.25	36796.8
917.6353	1838.0248	37503.1	36608.65
917.7751	1839.6856	37437.2	36546.3
917.915	1841.3457	37442.85	36553.9
918.0548	1843.005	37323.25	36432.3
918.1946	1844.6636	37236.6	36346.15
918.3344	1846.3214	37081.4	36190.75
918.4742	1847.9785	37087	36197.2
918.6139	1849.6349	36871.65	35979.35
918.7537	1851.2904	36791.45	35890.05
918.8934	1852.9453	36703.25	35810.35
919.0331	1854.5994	36542.95	35648.7
919.1727	1856.2528	36591.35	35696.35
919.3124	1857.9054	36462.35	35570.55
919.452	1859.5572	36381.65	35490.95
919.5916	1861.2083	36290.65	35399.95
919.7312	1862.8587	36131.85	35242.25
919.8708	1864.5084	36095.95	35205.3
920.0103	1866.1572	35957.55	35068.85
920.1498	1867.8054	35804	34913.05
920.2893	1869.4528	35726.8	34835.75
920.4288	1871.0994	35622.4	34730.5
920.5683	1872.7453	35522.9	34631.05
920.7077	1874.3905	35478.6	34579.7
920.8471	1876.0349	35351.1	34459.35
920.9865	1877.6786	35316.75	34425.1
921.1259	1879.3215	35252.15	34362.25
921.2653	1880.9637	35137.6	34247.15
921.4046	1882.6051	35073.65	34184.75
921.5439	1884.2458	34963.5	34072.1
921.6832	1885.8858	34778.55	33887.45
921.8225	1887.525	34675.7	33784.65
921.9617	1889.1634	34552.5	33659.25
922.101	1890.8011	34382.55	33492
922.2402	1892.4381	34352.5	33460.8
922.3794	1894.0743	34304.9	33415.25
922.5185	1895.7098	34191	33301.4
922.6577	1897.3446	34083.7	33191.8
922.7968	1898.9786	34010.6	33115.6
922.9359	1900.6118	33929.9	33038.65
923.075	1902.2443	33681.85	32785.35
923.214	1903.8761	33609.25	32718.8
923.3531	1905.5071	33419.05	32527
923.4921	1907.1374	33330.95	32440.45
923.6311	1908.7669	33257.75	32368.65
923.77	1910.3957	33225.25	32335.85
923.909	1912.0237	32987.1	32096.95
924.0479	1913.651	32928.25	32036.25
924.1868	1915.2776	32842.8	31952.55
924.3257	1916.9034	32714.3	31826.1
924.4646	1918.5285	32563.15	31672.25
924.6034	1920.1528	32382.35	31492.2
924.7422	1921.7764	32350.95	31458.9
924.881	1923.3992	32199.45	31308.8
925.0198	1925.0213	31944.65	31053.8
925.1586	1926.6427	31843.05	30951.65
925.2973	1928.2633	31841.5	30845
925.436	1929.8832	31641.5	30747.85
925.5747	1931.5023	31537.6	30647.85
925.7134	1933.1207	31407.05	30516.25
925.852	1934.7383	31338.7	30447.05
925.9906	1936.3552	31212.75	30322.2
926.1292	1937.9714	31128.25	30236.75
926.2678	1939.5868	30989.5	30096.55
926.4064	1941.2015	30759.45	29867.55
926.5449	1942.8154	30702.8	29811.85
926.6834	1944.4286	30524.75	29632.55
926.8219	1946.041	30425.4	29515.35
926.9604	1947.6528	30221.85	29325.6
927.0988	1949.2637	30203.6	29312.95
927.2372	1950.8739	30079.5	29187.2
927.3756	1952.4834	30030.95	29141.55
927.514	1954.0921	29974.4	29083.9
927.6523	1955.7001	29835.4	28941.2
927.7907	1957.3074	29758.15	28867.25
927.929	1958.9139	29647.1	28756.2
928.0673	1960.5197	29502.6	28609.35
928.2055	1962.1247	29357.65	28465.8
928.3438	1963.729	29177.5	28287.15
928.482	1965.3325	29107.5	28193.9
928.6202	1966.9353	28984.45	28094.3
928.7584	1968.5374	28895.3	28004.3
928.8965	1970.1387	28788.8	27897.9
929.0346	1971.7393	28656.45	27765.2
929.1727	1973.3392	28603.7	27713.05
929.3108	1974.9383	28481.8	27590.95
929.4489	1976.5366	28346.6	27456.85
929.5869	1978.1342	28311.4	27420.85
929.7249	1979.7311	28240.2	27350
929.8629	1981.3273	28142.45	27252.6
930.0009	1982.9227	28010.3	27116.2
930.1388	1984.5173	27891.4	27000.75
930.2767	1986.1112	27782.1	26890.95
930.4146	1987.7044	27763.9	26872.35
930.5525	1989.2968	27639	26746.9
930.6904	1990.8885	27541.5	26647.15
930.8282	1992.4795	27474.4	26582.15
930.966	1994.0697	27345.2	26454.75
931.1038	1995.6592	27258.9	26369.7
931.2415	1997.2479	27189.9	26298.6
931.3793	1998.8359	27038.7	26149.5
931.517	2000.4232	26908.9	26018.9
931.6547	2002.0097	26832.95	25944.1
931.7923	2003.5955	26660.55	25770.6
931.93	2005.1805	26680.85	25791.35
932.0676	2006.7648	26607.8	25715.8
932.2052	2008.3484	26488.55	25596.65
932.3427	2009.9312	26537.3	25644.85
932.4803	2011.5133	26343.8	25453.05
932.6178	2013.0946	26264.75	25375.2
932.7553	2014.6752	26200.9	25310.8
932.8928	2016.2551	26087.35	25194.5
933.0302	2017.8342	25940.9	25050.9
933.1676	2019.4126	25926.3	25037.85
933.305	2020.9902	25815.85	24925.75
933.4424	2022.5672	25737.8	24846
933.5798	2024.1433	25651.85	24755.05
933.7171	2025.7188	25548.9	24659.25
933.8544	2027.2935	25474.25	24582.25
933.9917	2028.8674	25386.8	24497.65
934.129	2030.4406	25328.35	24441.25
934.2662	2032.0131	25157.65	24269.15
934.4034	2033.5849	25045.3	24142.2
934.5406	2035.1559	25024.45	24133.3
934.6778	2036.7261	24986.8	24096.75
934.8149	2038.2957	24901.35	24011.5
934.952	2039.8645	24821.3	23932.55
935.0891	2041.4325	24816.8	23923.8
935.2262	2042.9998	24655.4	23765.35
935.3632	2044.5664	24600.25	23705.7
935.5002	2046.1323	24520.5	23628.4
935.6372	2047.6974	24418	23528.35
935.7742	2049.2617	24360.7	23469.9
935.9111	2050.8254	24337.75	23424.1
936.048	2052.3883	24292.35	23397
936.1849	2053.9504	24198.55	23308.4
936.3218	2055.5118	24115.2	23224.3
936.4586	2057.0725	23956.1	23062.65
936.5955	2058.6325	23921.45	23030.8
936.7323	2060.1917	23843.6	22955.55
936.869	2061.7502	23789.3	22893.75
937.0058	2063.3079	23672.65	22782.45
937.1425	2064.8649	23623.45	22727.15
937.2792	2066.4212	23582.65	22690.05
937.4159	2067.9767	23432.15	22541.75
937.5525	2069.5315	23339.55	22450.15
937.6891	2071.0856	23227.4	22335.95
937.8257	2072.6389	23137.65	22245.45
937.9623	2074.1915	23006.1	22116.1
938.0989	2075.7433	22896.85	22002.45
938.2354	2077.2945	22893.3	22002.4
938.3719	2078.8448	22794.9	21904.45
938.5084	2080.3945	22703.55	21813.75
938.6448	2081.9434	22701.25	21811.45
938.7812	2083.4916	22588.2	21698.65
938.9176	2085.039	22492.3	21600.45
939.054	2086.5857	22455.4	21563.65
939.1903	2088.1317	22379.25	21487
939.3267	2089.677	22297.75	21405
939.463	2091.2215	22231.8	21342.35
939.5992	2092.7652	22192.6	21301.25
939.7355	2094.3083	22138.1	21247.75
939.8717	2095.8506	22078.65	21188.35
940.0079	2097.3921	22058.15	21167.7
940.1441	2098.933	21969.8	21079
940.2802	2100.4731	21911.65	21021.85
940.4163	2102.0124	21853.75	20955.45
940.5524	2103.5511	21770.3	20878.8
940.6885	2105.089	21760.6	20868
940.8245	2106.6261	21710.8	20819.5
940.9606	2108.1626	21603.3	20714
941.0965	2109.6983	21594.2	20674.15
941.2325	2111.2332	21516.9	20624.85
941.3684	2112.7675	21414.7	20522.75
941.5044	2114.301	21331.25	20438.5
941.6403	2115.8337	21316.75	20426.25
941.7761	2117.3657	21278.6	20388.4
941.912	2118.897	21206.1	20315.6
942.0478	2120.4276	21079.95	20184.65
942.1835	2121.9575	20997.65	20108
942.3193	2123.4866	21004.25	20098.9
942.455	2125.0149	20936.7	20042.8
942.5907	2126.5426	20797	19906.1
942.7264	2128.0695	20737.75	19842.2
942.8621	2129.5956	20700.85	19810.25
942.9977	2131.1211	20647.1	19754.9
943.1333	2132.6458	20571.75	19680.2
943.2689	2134.1698	20563.65	19672.5
943.4044	2135.693	20461.15	19568.65
943.54	2137.2155	20390.15	19497.8
943.6755	2138.7373	20359.1	19467.6
943.8109	2140.2584	20311	19419.15
943.9464	2141.7787	20190.45	19293.6
944.0818	2143.2983	20077.3	19187.6
944.2172	2144.8171	19994.75	19104.75
944.3526	2146.3353	19956.7	19065.5
944.4879	2147.8527	19861.55	18971.35
944.6232	2149.3693	19846.65	18955.4
944.7585	2150.8853	19753.05	18862.95
944.8938	2152.4005	19674.6	18783.7
945.029	2153.9149	19634.4	18743.1
945.1642	2155.4287	19572.5	18681.85
945.2994	2156.9417	19526.65	18635.45
945.4346	2158.454	19459.85	18564.45
945.5697	2159.9655	19412.65	18521.05
945.7048	2161.4764	19382.8	18491.15
945.8399	2162.9865	19290.25	18399.3
945.9749	2164.4958	19238.15	18345.4
946.1099	2166.0045	19197.2	18303.3
946.2449	2167.5124	19130.9	18238.4
946.3799	2169.0195	19064.9	18173.55
946.5148	2170.526	19034.95	18143.15
946.6498	2172.0317	18955.45	18063.5
946.7846	2173.5367	18906.65	18016.4
946.9195	2175.0409	18883.2	17992.85
947.0543	2176.5445	18825.2	17936.2
947.1891	2178.0473	18770.3	17880.3
947.3239	2179.5494	18677.55	17782.2
947.4587	2181.0507	18570.5	17679.6
947.5934	2182.5513	18512.3	17619.95
947.7281	2184.0512	18511.35	17618.55
947.8628	2185.5504	18416.7	17526.2
947.9974	2187.0488	18323.6	17431.6
948.132	2188.5465	18262.35	17372.65
948.2666	2190.0435	18178.8	17285.8
948.4012	2191.5397	18110.8	17221.2
948.5357	2193.0353	18083.35	17192.9
948.6702	2194.5301	17966.35	17074.6
948.8047	2196.0241	17915.85	17025.05
948.9392	2197.5175	17853.35	16961.9
949.0736	2199.0101	17776.6	16882.5
949.208	2200.502	17691.1	16800.75
949.3424	2201.9931	17657.35	16765.95
949.4767	2203.4835	17566.55	16675.2
949.611	2204.9733	17533.5	16635.25
949.7453	2206.4622	17463.55	16573.2
949.8796	2207.9505	17380.25	16489.8
950.0138	2209.438	17277.7	16387.15
950.148	2210.9248	17257.5	16365.8
950.2822	2212.4109	17188.85	16299.5
950.4164	2213.8962	17139.5	16245.25
950.5505	2215.3809	17099.35	16208.35
950.6846	2216.8648	17058.9	16167.1
950.8186	2218.3479	16985.4	16092.65
950.9527	2219.8304	16920.7	16026.75
951.0867	2221.3121	16869.55	15976.75
951.2207	2222.7931	16808.55	15917.35
951.3546	2224.2733	16753.7	15861.55
951.4886	2225.7529	16663.5	15772.45
951.6225	2227.2317	16619.65	15726.3
951.7563	2228.7098	16573.65	15680.9
951.8902	2230.1872	16467.85	15576.05
952.024	2231.6638	16464.85	15572.7
952.1578	2233.1397	16416.2	15519.45
952.2916	2234.6149	16357.5	15466.55
952.4253	2236.0894	16280.45	15388.9
952.559	2237.5632	16251.25	15351.55
952.6927	2239.0362	16154.65	15262.45
952.8263	2240.5085	16110.4	15220.8
952.9599	2241.9801	16036.85	15143.8
953.0935	2243.4509	15994.5	15103.65
953.2271	2244.921	15963.6	15073.2
953.3606	2246.3904	15881.15	14986
953.4941	2247.8591	15810.95	14919.25
953.6276	2249.3271	15772	14883.8
953.7611	2250.7943	15699.7	14808.65
953.8945	2252.2608	15654.25	14764.05
954.0279	2253.7266	15590.9	14699.7
954.1612	2255.1917	15550.3	14659.35
954.2946	2256.656	15498.3	14607.8
954.4279	2258.1197	15426.7	14537.4
954.5612	2259.5826	15403.45	14509.95
954.6944	2261.0447	15364.05	14472.5
954.8276	2262.5062	15298.2	14405.65
954.9608	2263.9669	15259.1	14366.45
955.094	2265.4269	15240.25	14348.85
955.2271	2266.8862	15161.05	14270.25
955.3602	2268.3448	15159.95	14270.2
955.4933	2269.8026	15102.45	14211.95
955.6264	2271.2598	15038.05	14145.8
955.7594	2272.7162	14998.05	14106.65
955.8924	2274.1719	14951.8	14061.15
956.0253	2275.6268	14922.65	14030.25
956.1583	2277.0811	14888.3	13998.1
956.2912	2278.5346	14806.3	13914.95
956.4241	2279.9874	14785.6	13893.9
956.5569	2281.4395	14727.2	13838.3
956.6897	2282.8908	14671.5	13774
956.8225	2284.3414	14636.35	13742.95
956.9553	2285.7914	14590.35	13700.85
957.088	2287.2406	14515.25	13622.8
957.2207	2288.689	14522.45	13633.25
957.3534	2290.1368	14467.3	13575.65
957.486	2291.5838	14411	13517.35
957.6186	2293.0302	14356.95	13464.25
957.7512	2294.4758	14294.75	13402.95
957.8838	2295.9206	14240	13344.35
958.0163	2297.3648	14187.1	13296.25
958.1488	2298.8082	14182.4	13289
958.2813	2300.251	14123.95	13235.75
958.4137	2301.693	14092.5	13198.7
958.5461	2303.1343	14068.8	13174.4
958.6785	2304.5748	13991.55	13099.8
958.8108	2306.0147	13942.2	13051.2
958.9432	2307.4538	13921.95	13029
959.0754	2308.8922	13853.65	12964.55
959.2077	2310.3299	13804.85	12914.2
959.3399	2311.7669	13793.4	12902.65
959.4721	2313.2031	13737.15	12844.25
959.6043	2314.6387	13639.9	12748.15
959.7365	2316.0735	13608.75	12716.55
959.8686	2317.5076	13554.8	12661.8
960.0006	2318.941	13545.25	12652.2
960.1327	2320.3737	13499.35	12608.3
960.2647	2321.8056	13450.5	12558.1
960.3967	2323.2369	13390.8	12499.85
960.5287	2324.6674	13357.75	12466.1
960.6606	2326.0972	13327	12433.1
960.7925	2327.5263	13256.35	12367.3
960.9244	2328.9547	13259.1	12368
961.0562	2330.3823	13197.35	12304.3
961.1881	2331.8092	13158.05	12263.55
961.3198	2333.2355	13075.4	12183.6
961.4516	2334.661	13079.65	12186.65
961.5833	2336.0858	13059.95	12167.8
961.715	2337.5098	13011.9	12120.65
961.8467	2338.9332	12986.15	12095.55
961.9783	2340.3558	12933.2	12038.35
962.1099	2341.7778	12872.45	11983.4
962.2415	2343.199	12793.15	11899.25
962.373	2344.6195	12758.05	11867.85
962.5045	2346.0393	12748.6	11857.25
962.636	2347.4583	12717.3	11826.05
962.7675	2348.8767	12691.25	11799
962.8989	2350.2943	12651.05	11758.9
963.0303	2351.7113	12613.85	11722.75
963.1617	2353.1275	12552.6	11660.8
963.293	2354.543	12528.2	11612.1
963.4243	2355.9578	12467.3	11576.6
963.5556	2357.3718	12385.95	11494.95
963.6868	2358.7852	12350.35	11458.7
963.818	2360.1978	12298.2	11407.05
963.9492	2361.6098	12258.85	11369
964.0803	2363.021	12223.7	11329.4
964.2114	2364.4315	12200	11309.3
964.3425	2365.8413	12155.7	11264.6
964.4736	2367.2504	12098.1	11207.75
964.6046	2368.6587	12022.5	11133.1
964.7356	2370.0664	11990.7	11100.65
964.8666	2371.4733	11918	11026.75
964.9975	2372.8795	11902.65	11013
965.1284	2374.285	11880.1	10988.25
965.2593	2375.6899	11810.75	10919.8
965.3901	2377.0939	11724.2	10834.65
965.5209	2378.4973	11699.55	10809.6
965.6517	2379.9	11626.2	10734.05
965.7825	2381.3019	11595.5	10704.7
965.9132	2382.7032	11559.05	10668.9
966.0439	2384.1037	11519.25	10629.8
966.1745	2385.5035	11508.05	10618.05
966.3051	2386.9027	11458.05	10568.5
966.4357	2388.3011	11423.1	10528.7
966.5663	2389.6987	11395.2	10503.4
966.6968	2391.0957	11341.85	10452.4
966.8273	2392.492	11283.85	10395.3
966.9578	2393.8876	11222.8	10333.4
967.0882	2395.2824	11149.3	10258
967.2186	2396.6765	11123.65	10235.65
967.349	2398.07	11087.2	10199.45
967.4793	2399.4627	11086.25	10195.5
967.6097	2400.8547	11049.3	10158.85
967.7399	2402.246	10998.2	10101.4
967.8702	2403.6366	10916.8	10025.6
968.0004	2405.0265	10865.9	9976.85
968.1306	2406.4156	10843.75	9952.1
968.2607	2407.8041	10790.85	9896.55
968.3909	2409.1918	10761.25	9869.4
968.521	2410.5789	10701.8	9813.15
968.651	2411.9652	10677.55	9783.15
968.781	2413.3508	10607.45	9717.1
968.911	2414.7358	10590.9	9698.75
969.041	2416.12	10541.5	9651.85
969.1709	2417.5035	10529.45	9638.25
969.3008	2418.8863	10459.8	9567.4
969.4307	2420.2684	10452.7	9561.95
969.5606	2421.6497	10434.2	9541.8
969.6904	2423.0304	10327.6	9438.9
969.8201	2424.4104	10304.85	9413.65
969.9499	2425.7896	10267.85	9372.5
970.0796	2427.1682	10273.15	9381.05
970.2093	2428.546	10240.85	9349.05
970.3389	2429.9232	10192.1	9300.1
970.4685	2431.2996	10161.7	9272.55
970.5981	2432.6753	10158.45	9270.45
970.7277	2434.0503	10100.55	9212.65
970.8572	2435.4246	10076.7	9186.75
970.9867	2436.7982	10055.65	9164.2
971.1161	2438.1711	10000.65	9112.8
971.2456	2439.5433	9949.85	9058
971.375	2440.9148	9895.95	9003.25
971.5043	2442.2856	9856.1	8966
971.6336	2443.6557	9838	8945.25
971.7629	2445.025	9820.25	8929.2
971.8922	2446.3937	9811.6	8920.8
972.0214	2447.7617	9741.8	8850.25
972.1506	2449.1289	9728.5	8836.6
972.2798	2450.4955	9694.35	8800.6
972.4089	2451.8613	9659.2	8770.25
972.538	2453.2265	9626.2	8735.95
972.6671	2454.5909	9608.85	8716.6
972.7961	2455.9546	9569.35	8678.85
972.9251	2457.3177	9549	8657.8
973.0541	2458.68	9511.7	8619.05
973.1831	2460.0416	9526.65	8636.8
973.312	2461.4025	9488.25	8597.7
973.4408	2462.7627	9456.7	8554.55
973.5697	2464.1222	9418.2	8527.3
973.6985	2465.4811	9384.65	8493.7
973.8273	2466.8392	9349	8458.35
973.956	2468.1966	9323.95	8428.6
974.0847	2469.5533	9323.3	8430.3
974.2134	2470.9093	9291.6	8400.3
974.3421	2472.2645	9258.55	8366.75
974.4707	2473.6191	9228.15	8338.4
974.5993	2474.973	9173.25	8280.95
974.7278	2476.3262	9143.15	8252.55
974.8563	2477.6787	9114.15	8223.9
974.9848	2479.0305	9082.65	8192.15
975.1132	2480.3816	9063.75	8170.85
975.2417	2481.7319	9007.7	8116.4
975.37	2483.0816	8985.15	8091.65
975.4984	2484.4306	8948.7	8058.1
975.6267	2485.7789	8922.45	8031
975.755	2487.1264	8842.7	7949
975.8833	2488.4733	8824.3	7934.8
976.0115	2489.8195	8814.2	7917.55
976.1397	2491.165	8772.7	7878.15
976.2678	2492.5097	8739.95	7846.1
976.3959	2493.8538	8708.5	7817.25
976.524	2495.1972	8680.95	7787.8
976.6521	2496.5398	8622.1	7727.55
976.7801	2497.8818	8620.45	7725.5
976.9081	2499.2231	8583.35	7692.3
977.036	2500.5637	8535.25	7642.1
977.164	2501.9035	8516	7624.4
977.2918	2503.2427	8488.85	7595.1
977.4197	2504.5812	8478.8	7588.25
977.5475	2505.919	8431.75	7539.2
977.6753	2507.256	8409.1	7518.65
977.8031	2508.5924	8383	7491.85
977.9308	2509.9281	8356.2	7458.85
978.0585	2511.2631	8326.7	7434.25
978.1861	2512.5974	8303.6	7412.45
978.3137	2513.9309	8289.7	7398.95
978.4413	2515.2638	8259.9	7336.15
978.5689	2516.596	8218.7	7327.75
978.6964	2517.9275	8173.6	7281.7
978.8239	2519.2583	8131.15	7239.45
978.9513	2520.5884	8104.65	7210.6
979.0788	2521.9178	8079.85	7187.85
979.2062	2523.2465	8061.45	7170.1
979.3335	2524.5745	8030.25	7139.85
979.4608	2525.9018	7989.7	7098.95
979.5881	2527.2284	7990.9	7103.35
979.7154	2528.5543	7976.45	7088.95
979.8426	2529.8796	7942.35	7051.25
979.9698	2531.2041	7933.35	7042.6
980.0969	2532.5279	7894.75	7005.2
980.224	2533.851	7902.9	7011.45
980.3511	2535.1735	7848.7	6957.45
980.4781	2536.4952	7839.95	6949.6
980.6052	2537.8163	7799.95	6908.25
980.7321	2539.1366	7783.15	6893.2
980.8591	2540.4562	7758.35	6867.15
980.986	2541.7752	7742.1	6852.65
981.1129	2543.0935	7733.3	6842.15
981.2397	2544.411	7709.95	6819.4
981.3665	2545.7279	7696.6	6806.8
981.4933	2547.0441	7684.9	6791.85
981.62	2548.3596	7663.35	6767.25
981.7467	2549.6744	7634.5	6743.2
981.8734	2550.9885	7612.2	6719.7
982.0001	2552.3019	7586.45	6696.4
982.1267	2553.6146	7562	6670.25
982.2532	2554.9266	7555.3	6663.85
982.3798	2556.2379	7518.05	6626.75
982.5063	2557.5485	7506.3	6616.95
982.6327	2558.8585	7470.25	6571.45
982.7592	2560.1677	7469.15	6574.25
982.8856	2561.4762	7446.9	6556.55
983.0119	2562.7841	7435.7	6541.05
983.1383	2564.0913	7407	6516.4
983.2646	2565.3977	7414.45	6523.9
983.3908	2566.7035	7394	6502.9
983.517	2568.0086	7354.65	6461.1
983.6432	2569.313	7358.5	6466.4
983.7694	2570.6167	7320.25	6426.4
983.8955	2571.9197	7315.75	6425.7
984.0216	2573.222	7300.8	6406.75
984.1476	2574.5236	7280.65	6388.8
984.2737	2575.8246	7245.85	6353.85
984.3996	2577.1248	7230.5	6335.35
984.5256	2578.4244	7220.3	6330
984.6515	2579.7232	7226.85	6334.6
984.7774	2581.0214	7208.6	6291.85
984.9032	2582.3189	7167.4	6275.05
985.029	2583.6157	7167.3	6272
985.1548	2584.9118	7137.45	6246.65
985.2806	2586.2072	7134.75	6245.05
985.4063	2587.5019	7096.05	6204.85
985.5319	2588.7959	7101.55	6209.3
985.6576	2590.0893	7096.95	6202.8
985.7832	2591.3819	7056.6	6166.9
985.9087	2592.6739	7035.05	6144
986.0343	2593.9652	7002.55	6110.9
986.1597	2595.2557	6983.8	6092.15
986.2852	2596.5456	6972.2	6079
986.4106	2597.8348	6927.95	6037.6
986.536	2599.1234	6923.4	6033.25
986.6614	2600.4112	6897.6	6008.1
986.7867	2601.6983	6866.25	5971.55
986.912	2602.9848	6853.65	5960.15
987.0372	2604.2705	6816.55	5919.95
987.1624	2605.5556	6797.45	5907
987.2876	2606.84	6802.85	5913.5
987.4128	2608.1237	6750	5858.85
987.5379	2609.4067	6720.65	5830
987.6629	2610.689	6681.8	5781.3
987.788	2611.9707	6678.55	5783
987.913	2613.2516	6660.5	5765.15
988.0379	2614.5319	6626.35	5733.85
988.1629	2615.8115	6577.6	5685.95
988.2878	2617.0903	6592.6	5701.2
988.4126	2618.3685	6558.05	5666.95
988.5375	2619.6461	6550.45	5659.5
988.6622	2620.9229	6524.4	5633.7
988.787	2622.199	6502.9	5610.75
988.9117	2623.4745	6485.45	5592.15
989.0364	2624.7493	6444.8	5553.35
989.161	2626.0234	6426.6	5534.8
989.2857	2627.2968	6411.4	5520.55
989.4102	2628.5695	6376.5	5483.6
989.5348	2629.8415	6364.35	5474.4
989.6593	2631.1128	6340.7	5448.9
989.7837	2632.3835	6308.1	5417.5
989.9082	2633.6535	6281.55	5389.9
990.0326	2634.9228	6245.2	5354.9
990.1569	2636.1914	6249.3	5358.8
990.2812	2637.4593	6221.7	5324.75
990.4055	2638.7265	6223.5	5331.1
990.5298	2639.9931	6211.05	5318.6
990.654	2641.259	6181.35	5289.5
990.7782	2642.5242	6166.75	5276.7
990.9023	2643.7887	6120.9	5227.65
991.0264	2645.0525	6116.65	5226
991.1505	2646.3156	6101.9	5209.4
991.2745	2647.5781	6083.45	5193.55
991.3985	2648.8398	6063.85	5174
991.5225	2650.1009	6041.9	5143.5
991.6464	2651.3613	6018.1	5127.1
991.7703	2652.6211	6009.5	5118.3
991.8942	2653.8801	5983.05	5093.85
992.018	2655.1385	5977.65	5085.15
992.1418	2656.3961	5956.9	5065.55
992.2655	2657.6531	5943.25	5052.9
992.3892	2658.9094	5927.85	5035
992.5129	2660.1651	5900.8	5009.8
992.6366	2661.42	5880.7	4990.25
992.7602	2662.6743	5888.45	4995.6
992.8837	2663.9279	5853.15	4962.05
993.0073	2665.1808	5833.45	4941.9
993.1307	2666.433	5828.25	4935.25
993.2542	2667.6846	5814.5	4922.45
993.3776	2668.9354	5788.4	4893.3
993.501	2670.1856	5780.15	4888.2
993.6244	2671.4351	5762.75	4873.4
993.7477	2672.6839	5777.4	4884.8
993.8709	2673.9321	5758.65	4869.35
993.9942	2675.1795	5721.8	4829.4
994.1174	2676.4263	5708.85	4816.9
994.2405	2677.6724	5690.2	4800.45
994.3637	2678.9179	5700.25	4809.75
994.4868	2680.1626	5685	4794.1
994.6098	2681.4067	5640.05	4750.25
994.7328	2682.6501	5640.3	4749.4
994.8558	2683.8928	5620.1	4729.9
994.9788	2685.1348	5581.35	4691.6
995.1017	2686.3761	5567.5	4678.6
995.2245	2687.6168	5549.45	4658.75
995.3474	2688.8568	5538.1	4647.75
995.4702	2690.0961	5527.55	4637.7
995.5929	2691.3348	5510.85	4617.15
995.7156	2692.5727	5471.6	4580.35
995.8383	2693.81	5461.4	4569.45
995.961	2695.0466	5444.3	4553.85
996.0836	2696.2826	5414.55	4521.85
996.2062	2697.5178	5423.8	4530.55
996.3287	2698.7524	5415.8	4523.6
996.4512	2699.9863	5410.1	4515.9
996.5737	2701.2195	5366	4475.45
996.6961	2702.452	5379.5	4487.1
996.8185	2703.6839	5347.3	4455.2
996.9408	2704.9151	5332.95	4444.1
997.0631	2706.1456	5320.2	4428.05
997.1854	2707.3755	5307.1	4416.55
997.3077	2708.6046	5298	4403
997.4299	2709.8331	5275.25	4383.4
997.552	2711.0609	5266.75	4375.6
997.6742	2712.2881	5261.8	4371.15
997.7963	2713.5145	5268.9	4374.95
997.9183	2714.7403	5263.5	4373.2
998.0403	2715.9654	5242.3	4349.05
998.1623	2717.1899	5240.8	4333.45
998.2842	2718.4136	5229.4	4337.65
998.4062	2719.6367	5239.7	4349.25
998.528	2720.8591	5240.65	4342.15
998.6498	2722.0809	5216.85	4325.4
998.7716	2723.3019	5194.5	4300.1
998.8934	2724.5223	5185.95	4293.9
999.0151	2725.7421	5187.65	4296.25
999.1368	2726.9611	5166.8	4272.55
999.2584	2728.1795	5137.9	4240.75
999.38	2729.3972	5135.65	4245.35
999.5016	2730.6142	5107.75	4209.35
999.6231	2731.8306	5073.45	4182.3
999.7446	2733.0462	5046.5	4152.65
999.8661	2734.2612	5012.55	4116.15
999.9875	2735.4756	4986.45	4093.05
1000.1089	2736.6892	4944.1	4050.8
1000.2302	2737.9022	4908.35	4018.3
1000.3515	2739.1145	4864.55	3973.75
1000.4728	2740.3262	4850	3952.1
1000.594	2741.5372	4827.35	3937.35
1000.7152	2742.7475	4805.1	3914.05
1000.8363	2743.9571	4786.85	3895.1
1000.9575	2745.1661	4763.25	3866.75
1001.0785	2746.3744	4749.9	3856.9
1001.1996	2747.582	4716.4	3822.75
1001.3206	2748.7889	4699.55	3806.25
1001.4415	2749.9952	4678.15	3786.5
1001.5625	2751.2008	4659.5	3769.55
1001.6833	2752.4057	4650.9	3755
1001.8042	2753.61	4628.15	3734.1
1001.925	2754.8136	4619.55	3727.25
1002.0458	2756.0165	4592	3701.5
1002.1665	2757.2188	4585.05	3694.1
1002.2872	2758.4204	4591.65	3700.6
1002.4078	2759.6213	4562.4	3669.85
1002.5285	2760.8215	4558.85	3664.4
1002.649	2762.0211	4541.15	3647.5
1002.7696	2763.22	4523.75	3629.3
1002.8901	2764.4182	4504	3612.8
1003.0106	2765.6158	4495.55	3603.85
1003.131	2766.8127	4474.85	3583.95
1003.2514	2768.009	4457.55	3566.4
1003.3717	2769.2045	4449.4	3557.7
1003.492	2770.3994	4438.55	3545.65
1003.6123	2771.5936	4426.2	3533.45
1003.7325	2772.7872	4396.4	3505.05
1003.8527	2773.9801	4388.05	3495.2
1003.9729	2775.1723	4376.2	3467.15
1004.093	2776.3639	4359.6	3470.05
1004.2131	2777.5548	4349.7	3456.7
1004.3331	2778.745	4337.25	3443
1004.4531	2779.9346	4336.4	3446.05
1004.5731	2781.1235	4319.45	3427.3
1004.693	2782.3117	4308.8	3416.1
1004.8129	2783.4992	4305.4	3413.15
1004.9328	2784.6861	4281.65	3390.05
1005.0526	2785.8723	4300.25	3407.95
1005.1723	2787.0579	4290.95	3399
1005.2921	2788.2428	4275.75	3384.55
1005.4118	2789.427	4257.45	3367.55
1005.5314	2790.6106	4259.95	3369.35
1005.651	2791.7935	4266.2	3372.3
1005.7706	2792.9757	4258.25	3368.2
1005.8902	2794.1573	4249.45	3357.75
1006.0097	2795.3382	4246.6	3355.45
1006.1291	2796.5184	4254.05	3365.4
1006.2485	2797.698	4259.7	3367.4
1006.3679	2798.8769	4270.4	3378.65
1006.4873	2800.0551	4255.7	3363.95
1006.6066	2801.2327	4260.15	3366.95
1006.7258	2802.4096	4282.45	3392.75
1006.8451	2803.5859	4284.4	3392.5
1006.9642	2804.7615	4281.75	3389.8
1007.0834	2805.9364	4296.9	3407.85
1007.2025	2807.1106	4314.05	3423.55
1007.3216	2808.2842	4327.6	3435.25
1007.4406	2809.4572	4352.9	3461.55
1007.5596	2810.6294	4380	3489.3
1007.6785	2811.801	4420.55	3530.15
1007.7975	2812.972	4448.05	3559.4
1007.9163	2814.1423	4465.15	3575.3
1008.0352	2815.3119	4513.1	3620.75
1008.154	2816.4808	4553.25	3663.3
1008.2727	2817.6491	4569.3	3678.15
1008.3914	2818.8167	4614.75	3725.6
1008.5101	2819.9837	4671.45	3777.4
1008.6288	2821.15	4673.75	3781.75
1008.7474	2822.3157	4704.1	3816
1008.8659	2823.4807	4753.7	3862.35
1008.9844	2824.645	4818.55	3927.3
1009.1029	2825.8086	4833.85	3944.2
1009.2214	2826.9716	4872.3	3982.45
1009.3398	2828.134	4892.9	4002.25
1009.4581	2829.2957	4929	4036.85
1009.5764	2830.4567	4935.2	4047.15
1009.6947	2831.617	4948.15	4056.7
1009.813	2832.7767	4967.25	4077.3
1009.9312	2833.9358	4953	4061.45
1010.0493	2835.0941	4938.65	4045.95
1010.1675	2836.2519	4916.9	4024.45
1010.2855	2837.4089	4906.7	4014
1010.4036	2838.5653	4899.9	4009.6
1010.5216	2839.7211	4896.2	4007.05
1010.6396	2840.8761	4881.3	3989.5
1010.7575	2842.0306	4907.6	4018.05
1010.8754	2843.1843	4938.05	4046.4
1010.9932	2844.3374	4958.85	4067.35
1011.111	2845.4899	5011.3	4120.35
1011.2288	2846.6417	5077.75	4187.1
1011.3465	2847.7928	5160.05	4268.95
1011.4642	2848.9433	5238.1	4346.4
1011.5818	2850.0931	5300.6	4410.45
1011.6995	2851.2422	5376.7	4485.75
1011.817	2852.3907	5435.65	4544.85
1011.9345	2853.5385	5499.7	4606.45
1012.052	2854.6857	5558.85	4641.05
1012.1695	2855.8323	5573.45	4683.1
1012.2869	2856.9781	5613.35	4722.5
1012.4042	2858.1233	5662.9	4772.1
1012.5216	2859.2679	5683	4791.4
1012.6389	2860.4118	5716.95	4826.15
1012.7561	2861.555	5760.8	4864.5
1012.8733	2862.6976	5791.35	4900.3
1012.9905	2863.8395	5819.85	4927.2
1013.1076	2864.9808	5817.7	4927.9
1013.2247	2866.1214	5827.35	4938.15
1013.3417	2867.2614	5820.35	4929.9
1013.4587	2868.4007	5841.55	4949.4
1013.5757	2869.5393	5823.6	4928.7
1013.6926	2870.6773	5851.85	4958.4
1013.8095	2871.8146	5838.65	4942.4
1013.9263	2872.9513	5845.05	4951.65
1014.0431	2874.0874	5811.1	4919.2
1014.1599	2875.2227	5809.8	4917.75
1014.2766	2876.3574	5778.15	4889.2
1014.3933	2877.4915	5739.25	4847.8
1014.51	2878.6249	5701.85	4811.15
1014.6266	2879.7577	5671.05	4777.75
1014.7431	2880.8898	5654.5	4753.75
1014.8596	2882.0212	5603.25	4711.2
1014.9761	2883.152	5599.75	4707.65
1015.0925	2884.2821	5578	4687.35
1015.2089	2885.4116	5546.3	4657.65
1015.3253	2886.5405	5528.7	4637.2
1015.4416	2887.6686	5556.4	4661.5
1015.5579	2888.7962	5534.45	4644.4
1015.6741	2889.923	5532.35	4643.3
1015.7903	2891.0493	5530.8	4639.45
1015.9065	2892.1748	5534.95	4643.8
1016.0226	2893.2997	5533.4	4641.2
1016.1387	2894.424	5547.1	4657.8
1016.2547	2895.5476	5560.05	4670.95
1016.3707	2896.6706	5571.1	4680.9
1016.4866	2897.7929	5592.9	4701.25
1016.6025	2898.9145	5640.75	4748.25
1016.7184	2900.0355	5643.95	4752.4
1016.8342	2901.1559	5649.95	4758.25
1016.95	2902.2756	5665.35	4774.6
1017.0658	2903.3946	5714.3	4823.5
1017.1815	2904.513	5732.35	4835.9
1017.2971	2905.6308	5744.8	4854.9
1017.4127	2906.7479	5765.7	4873.85
1017.5283	2907.8643	5772.45	4879
1017.6439	2908.9801	5786.9	4895.7
1017.7594	2910.0953	5777.35	4886.75
1017.8748	2911.2098	5771.65	4875.25
1017.9902	2912.3236	5749.75	4850.35
1018.1056	2913.4368	5730.3	4836.35
1018.2209	2914.5494	5717.5	4824.25
1018.3362	2915.6613	5690.15	4794.35
1018.4515	2916.7725	5630.85	4736.75
1018.5667	2917.8831	5582.5	4689.35
1018.6819	2918.9931	5569.4	4674.9
1018.797	2920.1024	5536.25	4644.3
1018.9121	2921.211	5520.55	4629.65
1019.0271	2922.319	5491.2	4599
1019.1421	2923.4264	5468.75	4578
1019.2571	2924.5331	5441.45	4551.55
1019.372	2925.6391	5406.7	4514.75
1019.4869	2926.7445	5397.05	4505.95
1019.6017	2927.8493	5372.2	4480.05
1019.7165	2928.9534	5367.1	4475.05
1019.8313	2930.0569	5372.35	4478.2
1019.946	2931.1597	5347.05	4452.1
1020.0606	2932.2619	5305.85	4415.15
1020.1753	2933.3634	5311.3	4419.2
1020.2899	2934.4643	5295.7	4401.45
1020.4044	2935.5645	5250.85	4353.75
1020.5189	2936.6641	5206.35	4313.7
1020.6334	2937.763	5170.25	4280.3
1020.7478	2938.8613	5110	4219.05
1020.8622	2939.959	5037.75	4140.4
1020.9765	2941.056	4953.6	4064.25
1021.0908	2942.1523	4878.95	3985.65
1021.2051	2943.248	4764.3	3872.8
1021.3193	2944.3431	4674.55	3785
1021.4334	2945.4375	4568.65	3676.95
1021.5476	2946.5313	4447.15	3557.15
1021.6617	2947.6244	4335.35	3445.4
1021.7757	2948.7169	4237.5	3345.15
1021.8897	2949.8087	4127.75	3237.65
1022.0037	2950.8999	4035.45	3145.25
1022.1176	2951.9904	3932.1	3041.45
1022.2315	2953.0803	3855.45	2962.3
1022.3453	2954.1696	3786.05	2893.7
1022.4591	2955.2582	3742.95	2852
1022.5728	2956.3462	3677.25	2788.5
1022.6865	2957.4335	3635.05	2743.2
1022.8002	2958.5202	3594.5	2699.85
1022.9138	2959.6062	3555.7	2664.15
1023.0274	2960.6916	3512.3	2622.85
1023.141	2961.7764	3495.15	2604.5
1023.2545	2962.8605	3488.25	2597.6
1023.3679	2963.9439	3467.15	2577.5
1023.4813	2965.0267	3440.35	2548.5
1023.5947	2966.1089	3441.5	2528.7
1023.708	2967.1905	3403	2515.65
1023.8213	2968.2714	3398.8	2510.85
1023.9346	2969.3516	3390.4	2499.3
1024.0478	2970.4312	3402	2502.2
1024.1609	2971.5102	3378.8	2486.7
1024.274	2972.5885	3372.05	2481.05
1024.3871	2973.6662	3368.6	2473.2
1024.5002	2974.7432	3346.1	2456.4
1024.6132	2975.8196	3339.55	2449.85
1024.7261	2976.8954	3326.4	2438.55
1024.839	2977.9705	3303.65	2411.9
1024.9519	2979.045	3305.85	2415.75
1025.0647	2980.1188	3271.15	2381.1
1025.1775	2981.192	3235.8	2346.2
1025.2902	2982.2645	3225.75	2334.3
1025.4029	2983.3364	3190.65	2299.6
1025.5156	2984.4077	3161.4	2272.45
1025.6282	2985.4783	3122.75	2225.2
1025.7407	2986.5483	3069.05	2178.7
1025.8532	2987.6177	3039.05	2150
1025.9657	2988.6864	2995.2	2106.05
1026.0782	2989.7545	2953.65	2059.05
1026.1906	2990.8219	2932.7	2041.05
1026.3029	2991.8887	2889.95	1998.35
1026.4152	2992.9548	2854.85	1963.15
1026.5275	2994.0204	2817.75	1926.3
1026.6397	2995.0852	2779.75	1892.45
1026.7519	2996.1495	2759.6	1867.75
1026.864	2997.2131	2724.95	1831.75
1026.9761	2998.276	2693.7	1803.35
1027.0882	2999.3383	2682.4	1791.6
1027.2002	3000.4	2655.9	1765.15
1027.3122	3001.4611	2635.2	1743.5
1027.4241	3002.5215	2613.5	1722.9
1027.536	3003.5812	2590.45	1699.8
1027.6478	3004.6404	2581.45	1689.3
1027.7596	3005.6989	2565.75	1673
1027.8714	3006.7567	2551.5	1660.85
1027.9831	3007.8139	2555.05	1641.9
1028.0947	3008.8705	2528.15	1637.4
1028.2064	3009.9264	2526.05	1619.95
1028.3179	3010.9818	2509.45	1617.55
1028.4295	3012.0364	2505.2	1615.25
1028.541	3013.0905	2496.1	1605.4
1028.6524	3014.1439	2490.15	1600.05
1028.7638	3015.1966	2475.45	1583.9
1028.8752	3016.2487	2476.8	1585.85
1028.9865	3017.3002	2469.9	1572.6
1029.0978	3018.3511	2462.4	1573.2
1029.209	3019.4013	2455.6	1565.75
1029.3202	3020.4509	2449.15	1560.55
1029.4314	3021.4998	2458.2	1567.35
1029.5425	3022.5481	2447.15	1557.5
1029.6535	3023.5958	2436.5	1544.75
1029.7645	3024.6428	2436.05	1544.35
1029.8755	3025.6892	2435.9	1547.6
1029.9864	3026.735	2433	1543.95
1030.0973	3027.7802	2433.85	1543.2
1030.2082	3028.8247	2424.8	1534.75
1030.319	3029.8685	2418.6	1526.2
1030.4297	3030.9118	2424.6	1533.75
1030.5404	3031.9544	2421	1531.5
1030.6511	3032.9963	2414.75	1525.25
1030.7617	3034.0376	2408.2	1518.05
1030.8723	3035.0783	2421.5	1528.6
1030.9829	3036.1184	2416.45	1524.3
1031.0934	3037.1578	2409.3	1519.6
1031.2038	3038.1966	2412.95	1521.6
1031.3142	3039.2348	2409.55	1518.65
1031.4246	3040.2723	2416.25	1516.85
1031.5349	3041.3092	2399.25	1507.25
1031.6452	3042.3455	2397.9	1505.55
1031.7554	3043.3811	2397.3	1507.55
1031.8656	3044.4161	2380.05	1488.2
1031.9758	3045.4505	2362.3	1473.95
1032.0859	3046.4842	2361.55	1472
1032.1959	3047.5173	2357.65	1469.35
1032.3059	3048.5498	2338.05	1448.3
1032.4159	3049.5816	2316.15	1426.5
1032.5258	3050.6128	2312.75	1420.3
1032.6357	3051.6434	2314.7	1424.25
1032.7455	3052.6734	2299.95	1408.6
1032.8553	3053.7027	2286.65	1396.25
1032.9651	3054.7314	2279.2	1388.65
1033.0748	3055.7594	2261.65	1371.1
1033.1845	3056.7868	2250.15	1358.7
1033.2941	3057.8136	2248.5	1356.65
1033.4037	3058.8398	2239.15	1349.35
1033.5132	3059.8653	2222.45	1332.25
1033.6227	3060.8902	2213.45	1324.1
1033.7321	3061.9145	2215.35	1325.8
1033.8415	3062.9381	2198	1308.05
1033.9509	3063.9612	2208.65	1302.25
1034.0602	3064.9835	2181.35	1289.85
1034.1694	3066.0053	2176.65	1285
1034.2787	3067.0264	2165.95	1277.65
1034.3878	3068.0469	2147.05	1255.6
1034.497	3069.0668	2134.65	1242.2
1034.6061	3070.086	2118.2	1227.9
1034.7151	3071.1046	2122.7	1231.95
1034.8241	3072.1226	2109.6	1216.6
1034.9331	3073.1399	2085.85	1195.2
1035.042	3074.1567	2072.45	1180.9
1035.1508	3075.1727	2067.05	1173.8
1035.2597	3076.1882	2042.3	1152.45
1035.3684	3077.203	2043	1153.2
1035.4772	3078.2173	2034.05	1143.1
1035.5859	3079.2308	2020.05	1129.5
1035.6945	3080.2438	2001.3	1108.7
1035.8031	3081.2561	1997.65	1108.85
1035.9117	3082.2678	1985.75	1096.7
1036.0202	3083.2789	1977	1086.5
1036.1286	3084.2893	1964.55	1073.7
1036.2371	3085.2991	1948.55	1056.7
1036.3454	3086.3083	1943.4	1049.8
1036.4538	3087.3169	1939.9	1047.15
1036.562	3088.3248	1928.1	1035.75
1036.6703	3089.3321	1926.6	1034.75
1036.7785	3090.3388	1920.75	1030.55
1036.8866	3091.3449	1897.45	1005.1
1036.9948	3092.3503	1903.05	1010.75
1037.1028	3093.3551	1890.25	1001
1037.2108	3094.3593	1877.55	986.8
1037.3188	3095.3629	1868.6	978.95
1037.4267	3096.3658	1876.95	984.65
1037.5346	3097.3681	1867.95	977.3
1037.6425	3098.3698	1866	974
1037.7503	3099.3708	1852.55	954.05
1037.858	3100.3713	1844.65	955.65
1037.9657	3101.3711	1826.15	935.55
1038.0734	3102.3702	1934.7	932.75
1038.181	3103.3688	1835.6	942.2
1038.2886	3104.3667	1817.3	927.65
1038.3961	3105.364	1814	924.3
1038.5036	3106.3607	1806.8	915.9
1038.611	3107.3568	1797.55	906.9
1038.7184	3108.3522	1788.3	898.35
1038.8257	3109.347	1786.65	894.45
1038.933	3110.3412	1794.05	900.9
1039.0403	3111.3348	1782.15	892.1
1039.1475	3112.3277	1771.35	881.55
1039.2547	3113.32	1763.4	874.85
1039.3618	3114.3117	1755.25	865.6
1039.4689	3115.3028	1754.35	863.25
1039.5759	3116.2932	1756.4	865.1
1039.6829	3117.2831	1759.8	864.25
1039.7898	3118.2723	1742.75	851.1
1039.8967	3119.2608	1728.2	838
1040.0035	3120.2488	1727.8	838.1
1040.1103	3121.2361	1729.8	839.75
1040.2171	3122.2229	1723.8	834.45
1040.3238	3123.209	1713.15	822.9
1040.4305	3124.1944	1711.85	822.3
1040.5371	3125.1793	1706.4	813.05
1040.6437	3126.1635	1697.5	809.4
1040.7502	3127.1471	1693.9	804.05
1040.8567	3128.1301	1694.25	804.15
1040.9631	3129.1125	1686.75	796.45
1041.0695	3130.0942	1687.35	798.3
1041.1759	3131.0753	1695.65	797.15
1041.2822	3132.0558	1687.95	794.75
1041.3884	3133.0357	1674.2	783.45
1041.4946	3134.015	1669.45	779
1041.6008	3134.9936	1669.45	777
1041.7069	3135.9716	1683.95	772.9
1041.813	3136.949	1653.3	762.35
1041.919	3137.9258	1658.85	762.05
1042.025	3138.902	1653.65	758.3
1042.1309	3139.8775	1648.5	759.15
1042.2368	3140.8524	1649.85	759.75
1042.3427	3141.8267	1640.1	748.3
1042.4485	3142.8004	1647.9	755.7
1042.5542	3143.7735	1643.65	748.05
1042.6599	3144.7459	1635.35	742.3
1042.7656	3145.7178	1626.55	736.1
1042.8712	3146.689	1617.65	728.15
1042.9768	3147.6596	1613.85	723.4
1043.0823	3148.6295	1610.35	721.45
1043.1878	3149.5989	1610.9	720.3
1043.2932	3150.5676	1601.5	711.75
1043.3986	3151.5357	1593.8	705.4
1043.5039	3152.5032	1595.25	706
1043.6092	3153.4701	1588.55	697.45
1043.7145	3154.4364	1597.2	704.95
1043.8197	3155.402	1579.7	690.35
1043.9248	3156.367	1581.9	689.75
1044.03	3157.3315	1615.15	685.45
1044.135	3158.2952	1578.55	688.55
1044.24	3159.2584	1570.05	681.2
1044.345	3160.221	1563.05	672.65
1044.4499	3161.1829	1557.2	666.9
1044.5548	3162.1442	1560	668.05
1044.6596	3163.105	1555.55	665.35
1044.7644	3164.065	1548.7	658.75
1044.8692	3165.0245	1545.4	653.85
1044.9739	3165.9834	1538.55	651.3
1045.0785	3166.9416	1533.5	642.35
1045.1831	3167.8993	1533.4	642.25
1045.2877	3168.8563	1524.6	633.7
1045.3922	3169.8127	1529.6	640.4
1045.4966	3170.7684	1520.1	630.8
1045.6011	3171.7236	1522.7	630.05
1045.7054	3172.6782	1517.95	628.05
1045.8098	3173.6321	1518	627.9
1045.914	3174.5854	1509.2	613.2
1046.0183	3175.5381	1501.35	610.55
1046.1224	3176.4902	1502.1	610.6
1046.2266	3177.4417	1496.15	608.3
1046.3307	3178.3926	1503.8	614.2
1046.4347	3179.3428	1487.75	598.75
1046.5387	3180.2924	1483.65	596.15
1046.6427	3181.2415	1478.05	587.2
1046.7466	3182.1899	1479	586.2
1046.8504	3183.1377	1475.45	585.85
1046.9542	3184.0848	1482.75	589
1047.058	3185.0314	1469.3	579.05
1047.1617	3185.9773	1469.8	577.9
1047.2654	3186.9227	1464.1	572.4
1047.369	3187.8674	1462.8	572.35
1047.4726	3188.8115	1464.55	570.55
1047.5761	3189.755	1455.85	567.2
1047.6796	3190.6979	1454.8	564.8
1047.783	3191.6402	1447	558.6
1047.8864	3192.5818	1443.55	552.75
1047.9898	3193.5229	1468	555.4
1048.0931	3194.4633	1443.4	551.05
1048.1963	3195.4031	1434.85	546.25
1048.2995	3196.3423	1442.9	553.9
1048.4027	3197.2809	1435.85	546.55
1048.5058	3198.2189	1436.4	545.4
1048.6089	3199.1563	1438.9	533.8
1048.7119	3200.0931	1425.35	535.05
1048.8148	3201.0292	1419.8	531.2
1048.9178	3201.9648	1423.1	534
1049.0206	3202.8997	1418.45	527.4
1049.1235	3203.834	1411	519.05
1049.2262	3204.7677	1408.2	517.75
1049.329	3205.7008	1418.25	527.8
1049.4317	3206.6333	1405.8	515.9
1049.5343	3207.5652	1406.9	515.95
1049.6369	3208.4964	1402.25	512.6
1049.7394	3209.4271	1395.4	505.2
1049.8419	3210.3571	1394.25	504.5
1049.9444	3211.2865	1396.05	505.3
1050.0468	3212.2154	1395.75	506.55
1050.1491	3213.1436	1390.05	496.1
1050.2514	3214.0712	1392.35	493.9
1050.3537	3214.9982	1385.2	494.65
1050.4559	3215.9246	1381.65	489.05
1050.5581	3216.8503	1379.85	491.4
1050.6602	3217.7755	1376.5	486.7
1050.7623	3218.7001	1373.6	483.3
1050.8643	3219.624	1367.65	477.65
1050.9663	3220.5473	1373.05	482.6
1051.0682	3221.4701	1373.3	482.45
1051.1701	3222.3922	1366.55	475.05
1051.2719	3223.3137	1360.35	471.9
1051.3737	3224.2346	1353.9	463.6
1051.4754	3225.1549	1355.95	465.8
1051.5771	3226.0746	1351.45	463.5
1051.6788	3226.9937	1351.15	461.85
1051.7804	3227.9121	1349.85	461.65
1051.8819	3228.83	1345.9	458.1
1051.9834	3229.7473	1346.95	456.85
1052.0849	3230.6639	1346.55	456.65
1052.1863	3231.5799	1339.65	449.3
1052.2876	3232.4954	1338.15	448.4
1052.3889	3233.4102	1335.1	446.2
1052.4902	3234.3244	1330.4	439.1
1052.5914	3235.238	1330.85	440.6
1052.6926	3236.151	1349.9	436.35
1052.7937	3237.0634	1330.4	441.4
1052.8948	3237.9752	1322.4	432
1052.9958	3238.8864	1318.5	427.75
1053.0968	3239.797	1318.25	426.9
1053.1977	3240.7069	1316.5	425.95
1053.2986	3241.6163	1320.35	429.25
1053.3994	3242.5251	1310.6	419.9
1053.5002	3243.4332	1305.75	417.7
1053.6009	3244.3408	1306.45	417.05
1053.7016	3245.2477	1298.15	408.05
1053.8022	3246.154	1303.2	413.55
1053.9028	3247.0598	1295.45	406.4
1054.0034	3247.9649	1288.2	399.65
1054.1039	3248.8694	1287.2	397.6
1054.2043	3249.7733	1288.65	399.25
1054.3047	3250.6766	1279.85	391.7
1054.4051	3251.5793	1284.7	394.65
1054.5054	3252.4814	1281.15	392.8
1054.6056	3253.3829	1284.1	393.25
1054.7058	3254.2838	1280.95	392.55
1054.806	3255.1841	1275.2	385.5
1054.9061	3256.0838	1270.25	379.55
1055.0061	3256.9829	1263.4	372.7
1055.1062	3257.8814	1263.85	371.55
1055.2061	3258.7792	1263.95	372.6
1055.306	3259.6765	1261.65	371.15
1055.4059	3260.5731	1255.75	367.3
1055.5057	3261.4692	1246	356.4
1055.6055	3262.3647	1243.05	351.85
1055.7052	3263.2595	1239.1	350.3
1055.8049	3264.1538	1237.5	346.9
1055.9045	3265.0474	1225.9	333.9
1056.0041	3265.9404	1224.1	333.75
1056.1036	3266.8329	1219	329.05
1056.2031	3267.7247	1218.6	319.55
1056.3025	3268.616	1209.05	319.6
1056.4019	3269.5066	1198.1	309.35
1056.5013	3270.3966	1193.15	300.8
1056.6005	3271.286	1184.2	295.7
