Software Version:	3.9.2.0
Unit SN:	10000200
Spectrometer SN:	6960
Date:	3/6/2024 10:22:12 AM
Data Line Index:	25
Spectral Points:	2048
Integration time (ms):	125
Averages:	20
Delay (ms):	30
Sequence Number:	1
Processing:	dark subtract
Laser Power (mW):	305
Laser Current (mA):	826
Laser Diode Temp (C):	25.1
Laser Case Temp (C):	25.6
System Temp (C):	25.3
Spectrometer Temp (C):	22.8
CCD Temp (C):	0.005
Secondary Temp (C):	20.017
Heatsink Temp (C):	20.672
CCDPCB Temp (C):	34.173
SecondaryPCB Temp (C):	27.492

Wavelength	RamanShift	Raw Counts	Dark Subtracted
787.061	30.1047	1085.05	673.75
787.2016	32.3739	1114.95	706.8
787.3422	34.6426	1154.8	743.25
787.4828	36.9109	1198.9	785.75
787.6235	39.1787	1260.8	845.5
787.7642	41.4461	1309.05	887.95
787.9049	43.7131	1366.05	943.1
788.0456	45.9796	1436.15	1009.25
788.1863	48.2456	1490	1058.2
788.3271	50.5112	1566.1	1129.85
788.4679	52.7764	1631.75	1194.15
788.6087	55.0411	1691.2	1249.4
788.7496	57.3054	1756.1	1308.65
788.8904	59.5692	1852.25	1403.25
789.0313	61.8326	1953.7	1502.15
789.1722	64.0955	2034.3	1579
789.3132	66.3579	2156.25	1696.15
789.4541	68.6199	2302.9	1841.25
789.5951	70.8815	2543.9	2077.25
789.7361	73.1426	3067.6	2597.2
789.8771	75.4032	4411.1	3935.2
790.0181	77.6634	7793.15	7312.6
790.1592	79.9231	16929.7	16444.25
790.3003	82.1824	53351	52856.35
790.4414	84.4412	65535	65018.15
790.5825	86.6995	65535	64996.15
790.7237	88.9574	65535	64971.7
790.8648	91.2148	65535	64950.25
791.006	93.4717	65535	64946.3
791.1472	95.7282	65535	64938.4
791.2885	97.9842	65535	64933.35
791.4297	100.2398	65535	64932.7
791.571	102.4949	65535	64929.85
791.7123	104.7495	65535	64925.5
791.8536	107.0036	65535	64923.55
791.9949	109.2573	65535	64927.85
792.1363	111.5105	65535	64922.55
792.2777	113.7632	65535	64926.15
792.4191	116.0154	65535	64914.5
792.5605	118.2672	65535	64920.2
792.7019	120.5185	65535	64914.8
792.8434	122.7693	65535	64913.05
792.9849	125.0197	65535	64907
793.1264	127.2696	65535	64904.45
793.2679	129.519	65535	64902.15
793.4094	131.7679	65535	64897.95
793.551	134.0163	65535	64898.65
793.6926	136.2642	65535	64895
793.8342	138.5117	65535	64881.5
793.9758	140.7587	65535	64891.35
794.1175	143.0052	65535	64889.75
794.2591	145.2512	65535	64882.8
794.4008	147.4967	65535	64884.45
794.5425	149.7417	65535	64884.35
794.6842	151.9863	65535	64881.6
794.826	154.2304	65535	64875.45
794.9677	156.4739	65535	64867.3
795.1095	158.717	65535	64870.75
795.2513	160.9596	65535	64864.8
795.3931	163.2017	65535	64863.5
795.535	165.4433	65535	64860.8
795.6768	167.6844	65535	64860.05
795.8187	169.925	65535	64858.2
795.9606	172.1651	65535	64854.9
796.1025	174.4047	65535	64850.2
796.2445	176.6439	65535	64847.65
796.3864	178.8825	65535	64847.95
796.5284	181.1206	65535	64844.7
796.6704	183.3582	65535	64839.2
796.8124	185.5954	65535	64836.6
796.9544	187.832	65535	64832.25
797.0965	190.0681	65535	64831.4
797.2386	192.3037	65535	64830.25
797.3806	194.5388	65535	64821.85
797.5228	196.7734	65535	64821.35
797.6649	199.0075	65535	64821.85
797.807	201.2411	65535	64818.55
797.9492	203.4742	65535	64821.6
798.0914	205.7068	65535	64812.25
798.2336	207.9389	65535	64810.5
798.3758	210.1704	65535	64811.1
798.518	212.4015	65535	64821.9
798.6603	214.632	65535	64830.3
798.8025	216.862	65535	64838.45
798.9448	219.0915	65535	64833.3
799.0871	221.3205	65535	64833.15
799.2294	223.549	65535	64835.8
799.3718	225.777	65535	64836.45
799.5141	228.0044	65535	64829.2
799.6565	230.2314	65535	64827.25
799.7989	232.4578	65535	64825.3
799.9413	234.6837	65535	64813.1
800.0837	236.909	65535	64813.8
800.2262	239.1339	65535	64792.95
800.3687	241.3582	65535	64808.15
800.5111	243.582	65535	64771.1
800.6536	245.8053	65535	64784.15
800.7961	248.0281	65535	64791.7
800.9387	250.2503	65535	64787.5
801.0812	252.472	65535	64782.25
801.2238	254.6932	65535	64783.35
801.3664	256.9139	65535	64785.95
801.509	259.134	65535	64781.9
801.6516	261.3536	65535	64781.5
801.7942	263.5727	65535	64780.15
801.9369	265.7912	65535	64783.15
802.0795	268.0092	65535	64778.8
802.2222	270.2267	65535	64782.6
802.3649	272.4436	65535	64783.1
802.5076	274.6601	65535	64771.05
802.6504	276.8759	65535	64774.2
802.7931	279.0913	65535	64772.3
802.9359	281.3061	65535	64766.75
803.0787	283.5204	65535	64768.9
803.2215	285.7341	65535	64763.2
803.3643	287.9473	65535	64753.6
803.5071	290.16	65535	64761.45
803.6499	292.3721	65535	64769
803.7928	294.5837	65535	64767.9
803.9357	296.7947	65535	64768.45
804.0786	299.0052	65535	64769.2
804.2215	301.2152	65535	64763.75
804.3644	303.4246	65535	64763.75
804.5074	305.6334	65535	64762.95
804.6503	307.8418	65535	64759.1
804.7933	310.0495	65535	64758.95
804.9363	312.2568	65535	64757.7
805.0793	314.4635	65535	64757.35
805.2223	316.6696	65535	64757.95
805.3653	318.8752	65535	64744.75
805.5084	321.0802	65535	64754.3
805.6514	323.2847	65535	64753.1
805.7945	325.4887	65535	64752.9
805.9376	327.692	65535	64747.35
806.0807	329.8949	65535	64749.55
806.2238	332.0972	65535	64749
806.367	334.2989	65535	64745.25
806.5101	336.5001	65535	64745.75
806.6533	338.7007	65535	64745.7
806.7965	340.9008	65535	64742.4
806.9397	343.1003	65535	64741.6
807.0829	345.2992	65535	64742.1
807.2261	347.4976	65535	64737.4
807.3693	349.6955	65535	64734.95
807.5126	351.8927	65535	64734.8
807.6559	354.0895	65535	64721.4
807.7991	356.2856	65535	64729.9
807.9424	358.4812	65535	64734.95
808.0857	360.6763	65535	64731.55
808.2291	362.8707	65535	64729.1
808.3724	365.0646	65535	64726.45
808.5158	367.258	65535	64724.25
808.6591	369.4508	65535	64720.75
808.8025	371.643	65535	64721.35
808.9459	373.8346	65535	64723.2
809.0893	376.0257	65535	64716.3
809.2327	378.2162	65535	64717.45
809.3762	380.4062	65535	64715.75
809.5196	382.5956	65535	64714.9
809.6631	384.7844	65535	64718.7
809.8066	386.9726	65535	64724.55
809.9501	389.1603	65535	64724.7
810.0936	391.3474	65535	64683.1
810.2371	393.5339	65535	64723.05
810.3806	395.7199	65535	64725.3
810.5241	397.9052	65535	64728.65
810.6677	400.09	65535	64724.75
810.8113	402.2743	65535	64723.9
810.9548	404.4579	65535	64725.25
811.0984	406.641	65535	64719.8
811.2421	408.8235	65535	64721.4
811.3857	411.0054	65535	64717.35
811.5293	413.1868	65535	64710.2
811.673	415.3675	65535	64710.65
811.8166	417.5477	65535	64710.4
811.9603	419.7273	65535	64705.8
812.104	421.9064	65535	64701.45
812.2477	424.0848	65535	64706.45
812.3914	426.2627	65535	64704.1
812.5351	428.4399	65535	64703.15
812.6788	430.6166	65535	64698.4
812.8226	432.7928	65535	64699.7
812.9663	434.9683	65535	64699.25
813.1101	437.1432	65535	64695.45
813.2539	439.3176	65535	64699
813.3977	441.4914	65535	64700.1
813.5415	443.6645	65535	64696.25
813.6853	445.8371	65535	64701.65
813.8291	448.0091	65535	64703
813.973	450.1806	65535	64699.3
814.1168	452.3514	65535	64695.6
814.2607	454.5216	65535	64683.15
814.4046	456.6913	65535	64694.15
814.5485	458.8603	65535	64696.35
814.6924	461.0288	65535	64699.7
814.8363	463.1967	65535	64698.35
814.9802	465.3639	65535	64696.45
815.1241	467.5306	65535	64695.5
815.2681	469.6967	65535	64692.3
815.412	471.8622	65535	64692.05
815.556	474.0271	65535	64692.85
815.7	476.1914	65535	64691.45
815.844	478.3551	65535	64693.45
815.988	480.5182	65535	64692.8
816.132	482.6807	65535	64690.1
816.276	484.8426	65535	64689.75
816.4201	487.0039	65535	64692.1
816.5641	489.1647	65535	64690.2
816.7082	491.3248	65535	64692.5
816.8522	493.4843	65535	64689.95
816.9963	495.6432	65535	64688.9
817.1404	497.8015	65535	64684.3
817.2845	499.9592	65535	64689.9
817.4286	502.1163	65535	64686.35
817.5727	504.2728	65535	64685.8
817.7168	506.4287	65535	64687.7
817.861	508.5839	65535	64689.1
818.0051	510.7386	65535	64686.55
818.1493	512.8927	65535	64681.65
818.2935	515.0461	65535	64682.6
818.4377	517.199	65535	64679.5
818.5818	519.3512	65535	64683.4
818.726	521.5029	65535	64678.6
818.8703	523.6539	65535	64679.6
819.0145	525.8043	65535	64679.2
819.1587	527.9541	65535	64676.3
819.303	530.1033	65535	64678.05
819.4472	532.2519	65535	64678.25
819.5915	534.3999	65535	64676.15
819.7357	536.5472	65535	64675.55
819.88	538.694	65535	64675.9
820.0243	540.8401	65535	64678.9
820.1686	542.9856	65535	64675.75
820.3129	545.1305	65535	64671.55
820.4572	547.2748	65535	64671.95
820.6016	549.4185	65535	64668.15
820.7459	551.5615	65535	64673.55
820.8902	553.704	65535	64671.7
821.0346	555.8458	65535	64674.25
821.1789	557.987	65535	64673.1
821.3233	560.1276	65535	64673.25
821.4677	562.2675	65535	64674.4
821.6121	564.4069	65535	64674.6
821.7565	566.5456	65535	64673.65
821.9009	568.6837	65535	64674.05
822.0453	570.8212	65535	64672.6
822.1897	572.958	65535	64670.15
822.3342	575.0942	65535	64674.4
822.4786	577.2299	65535	64672.25
822.6231	579.3648	65535	64673.2
822.7675	581.4992	65535	64673.85
822.912	583.6329	65535	64671.25
823.0565	585.766	65535	64673.05
823.201	587.8985	65535	64675.1
823.3454	590.0304	65535	64644.95
823.4899	592.1616	65535	64668.85
823.6345	594.2922	65535	64665.3
823.779	596.4222	65535	64666.75
823.9235	598.5515	65535	64667.05
824.068	600.6802	65535	64665.9
824.2126	602.8083	65535	64668.05
824.3571	604.9358	65535	64668.6
824.5017	607.0626	65535	64665.75
824.6462	609.1888	65535	64664.1
824.7908	611.3144	65535	64664.05
824.9354	613.4393	65535	64667
825.08	615.5636	65535	64662.95
825.2246	617.6873	65535	64666.25
825.3692	619.8103	65535	64663.15
825.5138	621.9327	65535	64660
825.6584	624.0544	65535	64668.25
825.803	626.1756	65535	64664.55
825.9477	628.2961	65535	64661.85
826.0923	630.4159	65535	64663.5
826.237	632.5351	65535	64662.55
826.3816	634.6537	65535	64662.75
826.5263	636.7716	65535	64659.85
826.6709	638.8889	65535	64659.55
826.8156	641.0056	65535	64659.7
826.9603	643.1216	65535	64659.85
827.105	645.237	65535	64655.7
827.2497	647.3518	65535	64661.3
827.3944	649.4659	65535	64661.25
827.5391	651.5793	65535	64657.4
827.6838	653.6922	65535	64661.5
827.8285	655.8043	65535	64662
827.9733	657.9159	65535	64659.45
828.118	660.0268	65535	64657.25
828.2627	662.137	65535	64659.6
828.4075	664.2466	65535	64655.4
828.5522	666.3556	65535	64659.1
828.697	668.4639	65535	64656.7
828.8418	670.5716	65535	64657
828.9865	672.6786	65535	64656.25
829.1313	674.785	65535	64655.05
829.2761	676.8907	65535	64656.95
829.4209	678.9958	65535	64655.65
829.5657	681.1002	65535	64655.3
829.7105	683.204	65535	64654.3
829.8553	685.3072	65535	64654.1
830.0001	687.4097	65535	64653.6
830.1449	689.5115	65535	64649.9
830.2898	691.6127	65535	64652.05
830.4346	693.7132	65535	64654.95
830.5794	695.8131	65535	64633.45
830.7243	697.9123	65535	64655.9
830.8691	700.0109	65535	64654.2
831.014	702.1089	65535	64654.6
831.1588	704.2061	65535	64650.95
831.3037	706.3028	65535	64653.7
831.4486	708.3987	65535	64652.6
831.5935	710.4941	65535	64650.7
831.7383	712.5887	65535	64652.05
831.8832	714.6827	65535	64647.25
832.0281	716.7761	65535	64652.25
832.173	718.8688	65535	64650.2
832.3179	720.9608	65535	64647.9
832.4628	723.0522	65535	64647.65
832.6077	725.1429	65535	64648.45
832.7527	727.233	65535	64648.95
832.8976	729.3224	65535	64649.4
833.0425	731.4112	65535	64651.7
833.1874	733.4993	65535	64646.7
833.3324	735.5867	65535	64645.5
833.4773	737.6735	65535	64646.95
833.6222	739.7596	65535	64647.7
833.7672	741.845	65535	64649.2
833.9122	743.9298	65535	64646.25
834.0571	746.014	65535	64648.25
834.2021	748.0974	65535	64647.15
834.347	750.1802	65535	64644.9
834.492	752.2624	65535	64649.35
834.637	754.3439	65535	64647.9
834.782	756.4247	65535	64639.45
834.9269	758.5048	65535	64645.95
835.0719	760.5843	65535	64646.45
835.2169	762.6631	65535	64649.05
835.3619	764.7413	65535	64648.25
835.5069	766.8188	65535	64644.95
835.6519	768.8956	65535	64643.7
835.7969	770.9718	65535	64647
835.9419	773.0473	65535	64646.65
836.0869	775.1221	65535	64648.9
836.232	777.1962	65535	64649.35
836.377	779.2697	65535	64645.45
836.522	781.3426	65535	64626.1
836.667	783.4147	65535	64643.95
836.8121	785.4862	65535	64648.85
836.9571	787.557	65535	64645.95
837.1021	789.6271	65535	64648.4
837.2472	791.6966	65535	64644.55
837.3922	793.7654	65535	64645.2
837.5373	795.8335	65535	64644.4
837.6823	797.901	65535	64644.85
837.8274	799.9678	65535	64641.25
837.9724	802.0339	65535	64646.9
838.1175	804.0993	65535	64635.45
838.2626	806.1641	65535	64644.95
838.4076	808.2282	65535	64644.3
838.5527	810.2916	65535	64641
838.6978	812.3544	65535	64646.9
838.8428	814.4164	65535	64644.9
838.9879	816.4778	65535	64644.5
839.133	818.5385	65535	64646.75
839.2781	820.5986	65535	64646.25
839.4232	822.658	65535	64642.35
839.5682	824.7166	65535	64645.45
839.7133	826.7747	65535	64645.2
839.8584	828.832	65535	64642.45
840.0035	830.8886	65535	64641.75
840.1486	832.9446	65535	64643.2
840.2937	834.9999	65535	64644.85
840.4388	837.0545	65535	64639.65
840.5839	839.1085	65535	64643.05
840.729	841.1618	65535	64641.2
840.8741	843.2143	65535	64642.5
841.0192	845.2662	65535	64643.85
841.1643	847.3175	65535	64642.6
841.3095	849.368	65535	64642.9
841.4546	851.4179	65535	64644.75
841.5997	853.467	65535	64642.8
841.7448	855.5155	65535	64638.85
841.8899	857.5633	65535	64640.4
842.0351	859.6105	65535	64640.55
842.1802	861.6569	65535	64640.9
842.3253	863.7027	65535	64638.8
842.4704	865.7478	65535	64642.15
842.6156	867.7922	65535	64639
842.7607	869.8359	65535	64639.75
842.9058	871.8789	65535	64639.65
843.0509	873.9212	65535	64607.45
843.1961	875.9629	65535	64641.1
843.3412	878.0039	65535	64639.45
843.4863	880.0441	65535	64642.7
843.6315	882.0837	65535	64641.75
843.7766	884.1226	65535	64639.2
843.9218	886.1609	65535	64643.25
844.0669	888.1984	65535	64641.95
844.212	890.2352	65535	64643.35
844.3572	892.2714	65535	64637.9
844.5023	894.3069	65535	64638.75
844.6475	896.3416	65535	64639.3
844.7926	898.3757	65535	64640.75
844.9377	900.4091	65535	64641.2
845.0829	902.4418	65535	64636.65
845.228	904.4739	65535	64638
845.3732	906.5052	65535	64639.4
845.5183	908.5358	65535	64638.5
845.6635	910.5658	65535	64639.15
845.8086	912.595	65535	64641.45
845.9538	914.6236	65535	64640.55
846.0989	916.6515	65535	64640.7
846.2441	918.6786	65535	64638
846.3892	920.7051	65535	64637.3
846.5344	922.7309	65535	64640.3
846.6795	924.756	65535	64638.9
846.8246	926.7804	65535	64635.9
846.9698	928.8041	65535	64636.85
847.1149	930.8272	65535	64642.75
847.2601	932.8495	65535	64640.35
847.4052	934.8711	65535	64637.8
847.5504	936.892	65535	64639.05
847.6955	938.9123	65535	64635.5
847.8407	940.9318	65535	64639.15
847.9858	942.9506	65535	64636.3
848.131	944.9688	65535	64641.35
848.2761	946.9862	65535	64637.55
848.4213	949.003	65535	64638.55
848.5664	951.019	65535	64639.2
848.7115	953.0344	65535	64637.55
848.8567	955.0491	65535	64640.6
849.0018	957.063	65535	64641.25
849.147	959.0763	65535	64640
849.2921	961.0888	65535	64637.2
849.4373	963.1007	65535	64638.3
849.5824	965.1119	65535	64639.8
849.7275	967.1223	65535	64640.05
849.8727	969.1321	65535	64638.95
850.0178	971.1412	65535	64637.45
850.1629	973.1495	65535	64638.8
850.3081	975.1572	65535	64606.2
850.4532	977.1641	65535	64638.1
850.5983	979.1704	65535	64638.3
850.7435	981.1759	65535	64635.35
850.8886	983.1808	65535	64638.85
851.0337	985.1849	65535	64627.05
851.1788	987.1884	65535	64634.6
851.324	989.1911	65535	64635.5
851.4691	991.1932	65535	64633.55
851.6142	993.1945	65535	64638.5
851.7593	995.1951	65535	64637.35
851.9045	997.1951	65535	64631.35
852.0496	999.1943	65535	64638.1
852.1947	1001.1928	65535	64637.4
852.3398	1003.1906	65535	64638.15
852.4849	1005.1877	65535	64634.7
852.63	1007.1841	65535	64639.75
852.7751	1009.1798	65535	64639.35
852.9202	1011.1748	65535	64636
853.0653	1013.1691	65535	64639.3
853.2104	1015.1627	65535	64638.1
853.3555	1017.1556	65535	64640.05
853.5006	1019.1477	65535	64637.6
853.6457	1021.1392	65535	64641.25
853.7908	1023.1299	65535	64640.9
853.9359	1025.12	65535	64635.6
854.081	1027.1093	65535	64639.5
854.2261	1029.0979	65535	64643.25
854.3712	1031.0859	65535	64639.1
854.5163	1033.0731	65535	64638.3
854.6613	1035.0596	65535	64639.65
854.8064	1037.0454	65535	64637.35
854.9515	1039.0304	65535	64636.9
855.0965	1041.0148	65535	64635.15
855.2416	1042.9985	65535	64635.35
855.3867	1044.9814	65535	64639.8
855.5317	1046.9636	65535	64635.4
855.6768	1048.9452	65535	64640.8
855.8219	1050.926	65535	64636.25
855.9669	1052.9061	65535	64641.1
856.112	1054.8855	65535	64640.9
856.257	1056.8642	65535	64637.05
856.4021	1058.8421	65535	64634.3
856.5471	1060.8194	65535	64635.95
856.6921	1062.7959	65535	64637.35
856.8372	1064.7717	65535	64636.8
856.9822	1066.7469	65535	64637.35
857.1272	1068.7213	65535	64638.8
857.2723	1070.695	65535	64637
857.4173	1072.6679	65535	64637.35
857.5623	1074.6402	65535	64637.3
857.7073	1076.6117	65535	64630.15
857.8523	1078.5826	65535	64637.15
857.9973	1080.5527	65535	64635.3
858.1423	1082.5221	65535	64637.4
858.2873	1084.4908	65535	64637.45
858.4323	1086.4587	65535	64638.75
858.5773	1088.426	65535	64640.35
858.7223	1090.3925	65535	64632
858.8673	1092.3584	65535	64638.45
859.0123	1094.3235	65535	64641.75
859.1573	1096.2879	65535	64635
859.3022	1098.2515	65535	64638.2
859.4472	1100.2145	65535	64635.7
859.5922	1102.1767	65535	64635.6
859.7371	1104.1382	65535	64638.55
859.8821	1106.099	65535	64634.7
860.027	1108.0591	65535	64638.85
860.172	1110.0185	65535	64636.05
860.3169	1111.9771	65535	64636.3
860.4619	1113.9351	65535	64636.55
860.6068	1115.8923	65535	64638.35
860.7517	1117.8488	65535	64634.25
860.8967	1119.8045	65535	64637.25
861.0416	1121.7596	65535	64636.3
861.1865	1123.7139	65535	64640.6
861.3314	1125.6675	65535	64636.3
861.4763	1127.6204	65535	64638.4
861.6212	1129.5726	65535	64635.75
861.7661	1131.524	65535	64636
861.911	1133.4748	65535	64636.2
862.0559	1135.4248	65535	64637.15
862.2008	1137.3741	65535	64638.9
862.3457	1139.3226	65535	64635.5
862.4905	1141.2705	65535	64637.85
862.6354	1143.2176	65535	64631.2
862.7803	1145.164	65535	64635.5
862.9251	1147.1097	65535	64639
863.07	1149.0546	65535	64637.25
863.2148	1150.9989	65535	64636.35
863.3597	1152.9424	65535	64638.55
863.5045	1154.8852	65535	64636.7
863.6493	1156.8272	65535	64638.4
863.7942	1158.7686	65535	64630.65
863.939	1160.7092	65535	64634.75
864.0838	1162.6491	65535	64639
864.2286	1164.5883	65535	64640.45
864.3734	1166.5267	65535	64636.05
864.5182	1168.4644	65535	64635.25
864.663	1170.4014	65535	64632.2
864.8078	1172.3377	65535	64640.7
864.9526	1174.2732	65535	64639.75
865.0974	1176.2081	65535	64639
865.2421	1178.1421	65535	64634.35
865.3869	1180.0755	65535	64636.15
865.5317	1182.0082	65535	64636.95
865.6764	1183.9401	65535	64637.1
865.8212	1185.8713	65535	64639.3
865.9659	1187.8017	65535	64639.75
866.1106	1189.7315	65535	64641.15
866.2554	1191.6605	65535	64610.5
866.4001	1193.5888	65535	64636.3
866.5448	1195.5163	65535	64637.05
866.6895	1197.4432	65535	64638.3
866.8342	1199.3693	65535	64636.2
866.9789	1201.2947	65535	64636.45
867.1236	1203.2193	65535	64638.1
867.2683	1205.1432	65535	64637.35
867.413	1207.0664	65535	64639
867.5576	1208.9889	65535	64635.7
867.7023	1210.9106	65535	64638.2
867.847	1212.8316	65535	64639.7
867.9916	1214.7519	65535	64628.45
868.1363	1216.6715	65535	64637.45
868.2809	1218.5903	65535	64638
868.4255	1220.5084	65535	64640.3
868.5701	1222.4257	65535	64636.7
868.7148	1224.3424	65535	64638.5
868.8594	1226.2583	65535	64637.8
869.004	1228.1735	65535	64637.6
869.1486	1230.0879	65535	64639.2
869.2932	1232.0016	65535	64638.25
869.4377	1233.9146	65535	64636.8
869.5823	1235.8269	65535	64639.7
869.7269	1237.7384	65535	64637.6
869.8715	1239.6492	65535	64640.2
870.016	1241.5592	65535	64638.35
870.1606	1243.4686	65535	64637.3
870.3051	1245.3772	65535	64637.35
870.4496	1247.285	65535	64639.4
870.5941	1249.1922	65535	64639.55
870.7387	1251.0986	65535	64638.85
870.8832	1253.0042	65535	64638
871.0277	1254.9092	65535	64638
871.1722	1256.8134	65535	64641.4
871.3167	1258.7169	65535	64637.5
871.4611	1260.6196	65535	64640.45
871.6056	1262.5216	65535	64638.3
871.7501	1264.4229	65535	64637.6
871.8945	1266.3234	65535	64637.05
872.039	1268.2232	65535	64638.2
872.1834	1270.1223	65535	64637.8
872.3278	1272.0207	65535	64639.1
872.4723	1273.9183	65535	64631.6
872.6167	1275.8151	65535	64639.55
872.7611	1277.7113	65535	64638.25
872.9055	1279.6067	65535	64638.95
873.0499	1281.5014	65535	64635.7
873.1943	1283.3953	65535	64637.75
873.3386	1285.2885	65535	64639
873.483	1287.181	65535	64635.95
873.6274	1289.0727	65535	64640.2
873.7717	1290.9637	65535	64638.15
873.9161	1292.854	65535	64639.7
874.0604	1294.7435	65535	64638.35
874.2047	1296.6323	65535	64636.25
874.349	1298.5204	65535	64633.35
874.4933	1300.4077	65535	64637.9
874.6376	1302.2943	65535	64637.65
874.7819	1304.1802	65535	64638.9
874.9262	1306.0653	65535	64638.15
875.0705	1307.9497	65535	64638.3
875.2147	1309.8333	65535	64639.85
875.359	1311.7162	65535	64635.3
875.5032	1313.5984	65535	64636.3
875.6475	1315.4798	65535	64635.55
875.7917	1317.3605	65535	64622.7
875.9359	1319.2405	65535	64637.8
876.0801	1321.1197	65535	64636.05
876.2243	1322.9982	65535	64633.75
876.3685	1324.876	65535	64637.8
876.5127	1326.753	65535	64637.4
876.6569	1328.6293	65535	64636.65
876.801	1330.5048	65535	64636.55
876.9452	1332.3796	65535	64640.55
877.0893	1334.2537	65535	64607.4
877.2335	1336.127	65535	64640
877.3776	1337.9996	65535	64638.75
877.5217	1339.8714	65535	64640.6
877.6658	1341.7426	65535	64596.7
877.8099	1343.6129	65535	64636.55
877.954	1345.4826	65535	64638.55
878.0981	1347.3515	65535	64635.95
878.2422	1349.2196	65535	64637.9
878.3862	1351.087	65535	64638.55
878.5303	1352.9537	65535	64638.05
878.6743	1354.8197	65535	64637.2
878.8184	1356.6849	65535	64635.15
878.9624	1358.5493	65535	64638.45
879.1064	1360.4131	65535	64638.45
879.2504	1362.276	65535	64639.7
879.3944	1364.1383	65535	64638.2
879.5384	1365.9998	65535	64635.2
879.6823	1367.8606	65535	64639.7
879.8263	1369.7206	65535	64637.75
879.9702	1371.5799	65535	64636.8
880.1142	1373.4384	65535	64638.1
880.2581	1375.2962	65535	64634.4
880.402	1377.1533	65535	64636.9
880.5459	1379.0096	65535	64636.4
880.6898	1380.8652	65535	64638.55
880.8337	1382.7201	65535	64640.1
880.9776	1384.5742	65535	64638.95
881.1215	1386.4275	65535	64636.3
881.2653	1388.2802	65535	64641.15
881.4092	1390.132	65535	64636.6
881.553	1391.9832	65535	64637.15
881.6968	1393.8336	65535	64637.55
881.8406	1395.6832	65535	64636.7
881.9844	1397.5322	65535	64640.15
882.1282	1399.3803	65535	64633.85
882.272	1401.2278	65535	64637.8
882.4158	1403.0745	65535	64637.75
882.5595	1404.9204	65535	64637.3
882.7033	1406.7656	65535	64640.05
882.847	1408.6101	65535	64636.4
882.9908	1410.4538	65535	64637.6
883.1345	1412.2968	65535	64638.1
883.2782	1414.139	65535	64635.2
883.4219	1415.9805	65535	64639.4
883.5656	1417.8213	65535	64632.7
883.7092	1419.6613	65535	64639.45
883.8529	1421.5006	65535	64637.4
883.9965	1423.3391	65535	64638.85
884.1402	1425.1769	65535	64635.4
884.2838	1427.0139	65535	64638.65
884.4274	1428.8502	65535	64634.7
884.571	1430.6858	65535	64638.35
884.7146	1432.5206	65535	64637.9
884.8582	1434.3547	65535	64639.15
885.0018	1436.188	65535	64638.15
885.1453	1438.0206	65535	64638.25
885.2889	1439.8524	65535	64637.15
885.4324	1441.6835	65535	64637
885.5759	1443.5139	65535	64634.8
885.7194	1445.3435	65535	64638.6
885.8629	1447.1724	65535	64639.7
886.0064	1449.0005	65535	64639.05
886.1499	1450.8279	65535	64638
886.2933	1452.6545	65535	64637.75
886.4368	1454.4804	65535	64640.35
886.5802	1456.3056	65535	64630.2
886.7237	1458.13	65535	64640.35
886.8671	1459.9536	65535	64640.15
887.0105	1461.7766	65535	64638.8
887.1539	1463.5987	65535	64638
887.2972	1465.4202	65535	64637.45
887.4406	1467.2409	65535	64639.5
887.584	1469.0608	65535	64639.6
887.7273	1470.88	65535	64638.9
887.8706	1472.6984	65535	64640.35
888.0139	1474.5161	65535	64636.75
888.1572	1476.3331	65535	64641.45
888.3005	1478.1493	65535	64636.85
888.4438	1479.9648	65535	64639.05
888.5871	1481.7795	65535	64639.9
888.7303	1483.5935	65535	64639.8
888.8736	1485.4067	65535	64639.9
889.0168	1487.2192	65535	64639
889.16	1489.031	65535	64637.15
889.3032	1490.842	65535	64639.6
889.4464	1492.6522	65535	64640.5
889.5896	1494.4618	65535	64637.35
889.7327	1496.2705	65535	64638.65
889.8759	1498.0785	65517.6	64623.2
890.019	1499.8858	65534.1	64638.5
890.1622	1501.6924	65535	64639.55
890.3053	1503.4981	65524.35	64628.5
890.4484	1505.3032	65533.05	64636.6
890.5914	1507.1075	65520.05	64625.45
890.7345	1508.911	65518.5	64622.4
890.8776	1510.7138	65518.85	64623
891.0206	1512.5159	65526.95	64632.3
891.1637	1514.3172	65458.8	64564.05
891.3067	1516.1178	65493.3	64598.55
891.4497	1517.9176	65521.25	64623.5
891.5927	1519.7166	65495.3	64600.25
891.7357	1521.515	65467.5	64564.65
891.8786	1523.3126	65420	64524.7
892.0216	1525.1094	65481.25	64583.6
892.1645	1526.9055	65443.5	64549.6
892.3074	1528.7008	65453.3	64560.35
892.4503	1530.4954	65400.95	64504.35
892.5932	1532.2893	65460.1	64566.75
892.7361	1534.0824	65393.85	64494.6
892.879	1535.8747	65360.05	64463.65
893.0218	1537.6663	65454.65	64557.65
893.1647	1539.4572	65321.9	64427.2
893.3075	1541.2473	65369.8	64472.1
893.4503	1543.0367	65358.85	64465.1
893.5931	1544.8253	65353.2	64452.75
893.7359	1546.6132	65357.95	64461.35
893.8787	1548.4003	65317.2	64412.45
894.0214	1550.1867	65313.6	64412.95
894.1642	1551.9723	65300.2	64401.15
894.3069	1553.7572	65312.6	64419.3
894.4496	1555.5414	65324.6	64430.35
894.5923	1557.3247	65248.6	64355.25
894.735	1559.1074	65308.75	64414.5
894.8777	1560.8893	65287.05	64390.95
895.0204	1562.6705	65301.45	64409.6
895.163	1564.4509	65250.9	64357.45
895.3056	1566.2305	65263	64369.9
895.4482	1568.0094	65313.45	64418.85
895.5908	1569.7876	65288.9	64392.5
895.7334	1571.565	65245.3	64352
895.876	1573.3417	65259.8	64366.3
896.0186	1575.1176	65251.95	64360
896.1611	1576.8928	65229.55	64336.55
896.3036	1578.6672	65214.5	64321.65
896.4461	1580.4409	65223.35	64330.75
896.5886	1582.2138	65190.15	64295.5
896.7311	1583.986	65205.7	64313.1
896.8736	1585.7575	65177.7	64285.55
897.0161	1587.5282	65188.55	64296.65
897.1585	1589.2981	65187.35	64294.55
897.3009	1591.0673	65156.35	64263.45
897.4433	1592.8358	65150.2	64258.45
897.5857	1594.6035	65160.7	64265.8
897.7281	1596.3704	65175.75	64280.2
897.8705	1598.1366	65130.75	64238.65
898.0128	1599.9021	65110.45	64219.5
898.1551	1601.6668	65131.5	64236.55
898.2975	1603.4308	65125.1	64232.8
898.4398	1605.194	65141	64241.55
898.5821	1606.9564	65083	64191.55
898.7243	1608.7182	65110.35	64213.6
898.8666	1610.4791	65094.9	64202.35
899.0088	1612.2394	65106.9	64215.15
899.1511	1613.9988	65095.3	64205.05
899.2933	1615.7576	65102.05	64209.15
899.4355	1617.5156	65112.4	64214.4
899.5776	1619.2728	65129.75	64235.45
899.7198	1621.0293	65082.05	64190
899.862	1622.785	65076.1	64180.05
900.0041	1624.54	65091	64194.55
900.1462	1626.2942	65068.55	64176.55
900.2883	1628.0477	65035.9	64140.75
900.4304	1629.8005	65000.9	64105.2
900.5725	1631.5525	65017.75	64125.45
900.7145	1633.3037	64990.55	64098.8
900.8566	1635.0542	64993.45	64100.75
900.9986	1636.804	64995.65	64102.05
901.1406	1638.553	64976.75	63993.65
901.2826	1640.3013	64963.55	64069.9
901.4245	1642.0488	64931.9	64039.15
901.5665	1643.7955	64959.2	64067.75
901.7085	1645.5416	64947.25	64056.65
901.8504	1647.2868	64941.45	64052.2
901.9923	1649.0313	64956.75	64066.1
902.1342	1650.7751	64941.25	64045.35
902.2761	1652.5181	64915.1	64024
902.4179	1654.2604	64906.5	64012.8
902.5598	1656.0019	64937.9	64046.9
902.7016	1657.7427	64912.2	64020.3
902.8434	1659.4828	64938.6	64047.15
902.9852	1661.222	64907.4	64016.2
903.127	1662.9606	64930.75	64040.2
903.2687	1664.6984	64895.05	64004
903.4105	1666.4354	64890.15	63998.7
903.5522	1668.1717	64845.05	63953.75
903.6939	1669.9072	64765.7	63875.25
903.8356	1671.642	64749.8	63854.75
903.9773	1673.3761	64728.05	63837.2
904.119	1675.1094	64692.65	63802.7
904.2606	1676.8419	64635.2	63743
904.4022	1678.5737	64644.55	63753.6
904.5439	1680.3048	64623.15	63732.45
904.6855	1682.0351	64579.35	63688.35
904.827	1683.7646	64552.85	63659.05
904.9686	1685.4934	64572.3	63680.7
905.1101	1687.2215	64474.3	63583.75
905.2517	1688.9488	64534.55	63644.3
905.3932	1690.6754	64362.9	63474.3
905.5347	1692.4012	64445.15	63555.55
905.6761	1694.1263	64457.3	63566.85
905.8176	1695.8506	64381.75	63491.25
905.9591	1697.5742	64396.5	63506.05
906.1005	1699.297	64349.5	63459.55
906.2419	1701.0191	64366.05	63476.8
906.3833	1702.7404	64257.25	63367.3
906.5246	1704.461	64187.65	63295.7
906.666	1706.1808	64271.05	63378.1
906.8073	1707.8999	64215.2	63323
906.9487	1709.6182	64194.8	63303.35
907.09	1711.3358	64159.75	63269.15
907.2313	1713.0527	64140.65	63252.55
907.3725	1714.7688	64161.5	63265.65
907.5138	1716.4841	63957.65	63065.3
907.655	1718.1987	64034.85	63139.75
907.7962	1719.9126	63965.85	63075.05
907.9374	1721.6257	64014.7	63122.25
908.0786	1723.338	64018.55	63126.4
908.2198	1725.0496	63762.25	62871
908.3609	1726.7605	63802.95	62909.5
908.502	1728.4706	63723.9	62832.55
908.6431	1730.18	63792.5	62901.4
908.7842	1731.8886	63681.8	62791.6
908.9253	1733.5964	63602.35	62707.3
909.0664	1735.3036	63725	62833.4
909.2074	1737.0099	63618.1	62726.35
909.3484	1738.7156	63493.75	62605.8
909.4894	1740.4204	63448.25	62555.4
909.6304	1742.1246	63519.6	62626.95
909.7714	1743.8279	63513.55	62622.2
909.9123	1745.5306	63479.85	62588.95
910.0532	1747.2325	63127.3	62237.75
910.1941	1748.9336	63134.25	62242.75
910.335	1750.634	63255.5	62360.45
910.4759	1752.3336	63320.5	62430.5
910.6168	1754.0325	63029.5	62140.5
910.7576	1755.7307	63287	62396.8
910.8984	1757.4281	62904.35	62014.3
911.0392	1759.1247	63187.75	62290.2
911.18	1760.8206	62767.9	61873.05
911.3208	1762.5158	62822.9	61927.5
911.4615	1764.2102	62926.4	62037.45
911.6022	1765.9039	62831.6	61943.1
911.7429	1767.5968	62706.15	61815
911.8836	1769.289	62670.45	61779.35
912.0243	1770.9804	62745	61855.35
912.1649	1772.6711	62613.4	61722.45
912.3056	1774.361	62524.45	61634.25
912.4462	1776.0502	62528.7	61637.2
912.5868	1777.7386	62202.65	61311.4
912.7274	1779.4263	62367.35	61476.6
912.8679	1781.1132	62361.8	61473.1
913.0084	1782.7994	62276.75	61386
913.149	1784.4849	62291.95	61402.1
913.2895	1786.1696	61905.1	61007.85
913.4299	1787.8535	62149.25	61258.25
913.5704	1789.5367	62159.2	61267.55
913.7108	1791.2192	61893.75	61005
913.8513	1792.9009	61725.05	60804.55
913.9917	1794.5818	61919.15	61028.05
914.132	1796.2621	61725.35	60838.95
914.2724	1797.9415	61746.6	60854.85
914.4128	1799.6202	61679.55	60790.15
914.5531	1801.2982	61672.9	60783.15
914.6934	1802.9755	61453.6	60563.9
914.8337	1804.6519	61372.7	60483.4
914.9739	1806.3277	61693.2	60806.2
915.1142	1808.0027	61120.1	60231.7
915.2544	1809.6769	61331.8	60442.65
915.3946	1811.3504	61372.95	60482.8
915.5348	1813.0231	60943.2	60053.05
915.675	1814.6951	61216.2	60325.05
915.8151	1816.3664	61015.05	60124.4
915.9553	1818.0369	61021	60130.6
916.0954	1819.7067	60880.4	59991.25
916.2355	1821.3757	61117.05	60225.85
916.3755	1823.044	60749.95	59860.05
916.5156	1824.7115	60515.55	59625.75
916.6556	1826.3783	60632.3	59743.6
916.7956	1828.0443	60660.9	59772.25
916.9356	1829.7096	60471.9	59581.35
917.0756	1831.3741	60072.8	59179
917.2155	1833.0379	60339.15	59447.7
917.3555	1834.701	60315.25	59424.5
917.4954	1836.3633	60036.2	59143.5
917.6353	1838.0248	60196.5	59304.5
917.7751	1839.6856	60078.8	59189.3
917.915	1841.3457	59710.7	58821.85
918.0548	1843.005	60072.15	59182.35
918.1946	1844.6636	59832.3	58944.9
918.3344	1846.3214	59178	58286.9
918.4742	1847.9785	59376.7	58490.85
918.6139	1849.6349	59266.9	58376.8
918.7537	1851.2904	59741.7	58842.4
918.8934	1852.9453	58969.6	58078.5
919.0331	1854.5994	59358.2	58466.1
919.1727	1856.2528	59351.1	58454.85
919.3124	1857.9054	58808.5	57918.6
919.452	1859.5572	58514.55	57626.1
919.5916	1861.2083	58854.55	57965.2
919.7312	1862.8587	59311	58421.8
919.8708	1864.5084	57882.3	56991.85
920.0103	1866.1572	58596.05	57706.2
920.1498	1867.8054	57820.7	56933.3
920.2893	1869.4528	58194.1	57302.4
920.4288	1871.0994	57734.2	56844.9
920.5683	1872.7453	57593.6	56703.25
920.7077	1874.3905	57979.95	57083.45
920.8471	1876.0349	57376.95	56487.1
920.9865	1877.6786	57803.1	56912.7
921.1259	1879.3215	57199.95	56312.2
921.2653	1880.9637	57833.6	56943.75
921.4046	1882.6051	57147.4	56259.8
921.5439	1884.2458	56910.6	56018.85
921.6832	1885.8858	56586.4	55696.9
921.8225	1887.525	56873.05	55983.05
921.9617	1889.1634	56712.1	55823.45
922.101	1890.8011	56471.6	55583.15
922.2402	1892.4381	55801.15	54914.4
922.3794	1894.0743	56504.05	55615.7
922.5185	1895.7098	56104.55	55215.55
922.6577	1897.3446	55715.9	54824.25
922.7968	1898.9786	55843.35	54948.85
922.9359	1900.6118	55490.35	54600.45
923.075	1902.2443	55213.2	54322.05
923.214	1903.8761	55533.2	54643.85
923.3531	1905.5071	55134.7	54244.7
923.4921	1907.1374	54380.85	53492.4
923.6311	1908.7669	54746.35	53858.25
923.77	1910.3957	55020.25	54130.2
923.909	1912.0237	54334.3	53444.4
924.0479	1913.651	54040.25	53148.9
924.1868	1915.2776	53895	53007.1
924.3257	1916.9034	53915.6	53026.9
924.4646	1918.5285	53657.7	52769.25
924.6034	1920.1528	53691.65	52802.05
924.7422	1921.7764	53455.65	52565.7
924.881	1923.3992	53335	52446.4
925.0198	1925.0213	52976.4	52086.1
925.1586	1926.6427	52384.2	51495.95
925.2973	1928.2633	52669.2	51698.9
925.436	1929.8832	52523.1	51632.4
925.5747	1931.5023	52325.5	51436.7
925.7134	1933.1207	51747.8	50861.15
925.852	1934.7383	52083.55	51192.95
925.9906	1936.3552	51701.25	50813
926.1292	1937.9714	51674.5	50783.95
926.2678	1939.5868	51559.55	50667.25
926.4064	1941.2015	51103	50212.95
926.5449	1942.8154	50726.35	49838.4
926.6834	1944.4286	50788.05	49897.95
926.8219	1946.041	50784.25	49877.75
926.9604	1947.6528	50494.25	49599.1
927.0988	1949.2637	50262	49375.15
927.2372	1950.8739	49993.5	49104
927.3756	1952.4834	50147.65	49257.55
927.514	1954.0921	49969.55	49080
927.6523	1955.7001	49514.6	48622
927.7907	1957.3074	49616.55	48728.3
927.929	1958.9139	49176.05	48289.45
928.0673	1960.5197	49297.8	48406.35
928.2055	1962.1247	49051	48161.45
928.3438	1963.729	48720.15	47833.55
928.482	1965.3325	48535.95	47625.6
928.6202	1966.9353	48607.9	47719.35
928.7584	1968.5374	48177	47286.6
928.8965	1970.1387	48037.6	47148.4
929.0346	1971.7393	48064.55	47175.9
929.1727	1973.3392	47815.9	46926.7
929.3108	1974.9383	47571.65	46681.7
929.4489	1976.5366	47344.6	46456
929.5869	1978.1342	47316.45	46428.35
929.7249	1979.7311	47177.45	46287
929.8629	1981.3273	47101.35	46212.3
930.0009	1982.9227	46812.4	45923.25
930.1388	1984.5173	46836.75	45949.1
930.2767	1986.1112	46529.7	45642
930.4146	1987.7044	46631.3	45743.15
930.5525	1989.2968	46178.35	45287
930.6904	1990.8885	46228.35	45335.5
930.8282	1992.4795	45982.5	45093.2
930.966	1994.0697	45878.15	44989.05
931.1038	1995.6592	45786.2	44897
931.2415	1997.2479	45566.5	44677.6
931.3793	1998.8359	45498.1	44610.45
931.517	2000.4232	45315.6	44428.7
931.6547	2002.0097	45129.5	44244.1
931.7923	2003.5955	44948.9	44061.95
931.93	2005.1805	44892.35	44003.5
932.0676	2006.7648	44779.75	43889.95
932.2052	2008.3484	44632.9	43745.5
932.3427	2009.9312	44638.1	43747.5
932.4803	2011.5133	44476.8	43588.85
932.6178	2013.0946	44319.6	43432.2
932.7553	2014.6752	44156.85	43269.55
932.8928	2016.2551	44007.45	43120.25
933.0302	2017.8342	43841.6	42954
933.1676	2019.4126	43644.1	42756.7
933.305	2020.9902	43522.45	42635.35
933.4424	2022.5672	43424.75	42534.85
933.5798	2024.1433	43345.3	42453.4
933.7171	2025.7188	43201.45	42315.85
933.8544	2027.2935	43027.75	42139.2
933.9917	2028.8674	42855.65	41968.35
934.129	2030.4406	42698.65	41813.2
934.2662	2032.0131	42565.85	41679.2
934.4034	2033.5849	42386.3	41494.55
934.5406	2035.1559	42360.6	41472.75
934.6778	2036.7261	42281.9	41394.2
934.8149	2038.2957	42175.25	41287.55
934.952	2039.8645	42049	41160.9
935.0891	2041.4325	42058.45	41166.2
935.2262	2042.9998	41866	40978.35
935.3632	2044.5664	41658.9	40769
935.5002	2046.1323	41605.3	40718.85
935.6372	2047.6974	41464.15	40575.95
935.7742	2049.2617	41382.6	40495.15
935.9111	2050.8254	41387.25	40493.3
936.048	2052.3883	41165.8	40276.4
936.1849	2053.9504	41046.75	40158.95
936.3218	2055.5118	40947.85	40058.15
936.4586	2057.0725	40738.55	39846.2
936.5955	2058.6325	40638.95	39751.65
936.7323	2060.1917	40513.5	39625.05
936.869	2061.7502	40482.75	39589.3
937.0058	2063.3079	40323.9	39435.3
937.1425	2064.8649	40140.75	39249.2
937.2792	2066.4212	40103.2	39212.75
937.4159	2067.9767	39941.45	39054.6
937.5525	2069.5315	39795.55	38908.05
937.6891	2071.0856	39582.7	38693.55
937.8257	2072.6389	39451	38564.2
937.9623	2074.1915	39207.75	38320.7
938.0989	2075.7433	39045.8	38155.1
938.2354	2077.2945	38999.35	38112.15
938.3719	2078.8448	38869.05	37981.6
938.5084	2080.3945	38802.3	37914.7
938.6448	2081.9434	38661.1	37772.85
938.7812	2083.4916	38543.55	37656.5
938.9176	2085.039	38361.25	37473.1
939.054	2086.5857	38325.9	37437.6
939.1903	2088.1317	38208.9	37319.85
939.3267	2089.677	38161.35	37272.45
939.463	2091.2215	37990.85	37101.65
939.5992	2092.7652	37909.05	37017.95
939.7355	2094.3083	37756.6	36868.9
939.8717	2095.8506	37748.85	36861.1
940.0079	2097.3921	37712.2	36824.7
940.1441	2098.933	37558.3	36670.85
940.2802	2100.4731	37430.8	36544.8
940.4163	2102.0124	37386.8	36490.25
940.5524	2103.5511	37282.2	36393.35
940.6885	2105.089	37201	36311.75
940.8245	2106.6261	37110.45	36222.65
940.9606	2108.1626	36992.6	36103.6
941.0965	2109.6983	36946.1	36027.75
941.2325	2111.2332	36862.2	35972.05
941.3684	2112.7675	36713.35	35826.45
941.5044	2114.301	36601.05	35711.45
941.6403	2115.8337	36529.15	35642.1
941.7761	2117.3657	36391.6	35502.15
941.912	2118.897	36347.2	35457.55
942.0478	2120.4276	36214.5	35318.7
942.1835	2121.9575	36053.25	35164.15
942.3193	2123.4866	36027.45	35123.7
942.455	2125.0149	35891.05	34999.8
942.5907	2126.5426	35717.55	34829.45
942.7264	2128.0695	35649.85	34757.95
942.8621	2129.5956	35531.55	34645.25
942.9977	2131.1211	35460.65	34568.8
943.1333	2132.6458	35361.5	34474.7
943.2689	2134.1698	35285.5	34397.8
943.4044	2135.693	35167.4	34275.95
943.54	2137.2155	35101.7	34209
943.6755	2138.7373	35029.1	34139.25
943.8109	2140.2584	34905.8	34016.3
943.9464	2141.7787	34789.35	33896.05
944.0818	2143.2983	34629.7	33742.1
944.2172	2144.8171	34440.65	33554.5
944.3526	2146.3353	34382.3	33493.8
944.4879	2147.8527	34250.25	33362.4
944.6232	2149.3693	34237.6	33348.55
944.7585	2150.8853	34061.7	33171.1
944.8938	2152.4005	33882.3	32993.3
945.029	2153.9149	33856.25	32967.25
945.1642	2155.4287	33759.3	32871.05
945.2994	2156.9417	33688.6	32798.25
945.4346	2158.454	33599.95	32712.05
945.5697	2159.9655	33486.95	32600.3
945.7048	2161.4764	33440.55	32552.9
945.8399	2162.9865	33314.3	32425.9
945.9749	2164.4958	33248.35	32358.45
946.1099	2166.0045	33094.2	32202
946.2449	2167.5124	33036.15	32147.25
946.3799	2169.0195	32984.15	32096.2
946.5148	2170.526	32925.5	32037.1
946.6498	2172.0317	32793.3	31906.05
946.7846	2173.5367	32710.4	31823.95
946.9195	2175.0409	32621.6	31733.7
947.0543	2176.5445	32570.85	31685.15
947.1891	2178.0473	32447.65	31560.7
947.3239	2179.5494	32292.55	31401
947.4587	2181.0507	32202.8	31312.65
947.5934	2182.5513	32059.95	31171.2
947.7281	2184.0512	31995.45	31107.65
947.8628	2185.5504	31891.35	31005
947.9974	2187.0488	31705.75	30817.85
948.132	2188.5465	31633.05	30744.9
948.2666	2190.0435	31476.3	30587.45
948.4012	2191.5397	31363.4	30476.1
948.5357	2193.0353	31296.45	30409.35
948.6702	2194.5301	31170.9	30282.05
948.8047	2196.0241	31015.8	30127.8
948.9392	2197.5175	30970.15	30081.3
949.0736	2199.0101	30769.2	29877.35
949.208	2200.502	30655.65	29767.3
949.3424	2201.9931	30585.95	29698.5
949.4767	2203.4835	30427.3	29538.9
949.611	2204.9733	30404.9	29511.1
949.7453	2206.4622	30310.1	29422.6
949.8796	2207.9505	30218.4	29328.4
950.0138	2209.438	30018.8	29132.1
950.148	2210.9248	29981.95	29092.8
950.2822	2212.4109	29863.1	28975.85
950.4164	2213.8962	29767.15	28877
950.5505	2215.3809	29709.15	28817.6
950.6846	2216.8648	29621.95	28734
950.8186	2218.3479	29515.95	28624.95
950.9527	2219.8304	29381.15	28490.55
951.0867	2221.3121	29274.65	28383.65
951.2207	2222.7931	29147.2	28261.45
951.3546	2224.2733	29076.45	28187.85
951.4886	2225.7529	28959.75	28069.95
951.6225	2227.2317	28861	27970.7
951.7563	2228.7098	28850.9	27962.35
951.8902	2230.1872	28680.55	27792.8
952.024	2231.6638	28634.6	27748
952.1578	2233.1397	28513.4	27620.05
952.2916	2234.6149	28427.4	27539.85
952.4253	2236.0894	28328.8	27440.05
952.559	2237.5632	28271.4	27381.5
952.6927	2239.0362	28118.9	27231.1
952.8263	2240.5085	28016.7	27127.45
952.9599	2241.9801	27936.3	27048.9
953.0935	2243.4509	27907.85	27022.75
953.2271	2244.921	27750.55	26860.65
953.3606	2246.3904	27661.15	26771.25
953.4941	2247.8591	27555.05	26666.95
953.6276	2249.3271	27530.3	26642.7
953.7611	2250.7943	27389.95	26501.2
953.8945	2252.2608	27266.55	26378.35
954.0279	2253.7266	27227.45	26340.25
954.1612	2255.1917	27181.4	26294.5
954.2946	2256.656	27048.1	26158.8
954.4279	2258.1197	26945.7	26058.55
954.5612	2259.5826	26882.45	25993.55
954.6944	2261.0447	26835.35	25945.55
954.8276	2262.5062	26684.2	25792.9
954.9608	2263.9669	26654	25764.1
955.094	2265.4269	26567.65	25679.8
955.2271	2266.8862	26519.95	25632.55
955.3602	2268.3448	26437.7	25550.7
955.4933	2269.8026	26403.15	25514.3
955.6264	2271.2598	26299.45	25410.75
955.7594	2272.7162	26212.25	25326.2
955.8924	2274.1719	26137.25	25250.5
956.0253	2275.6268	26031.05	25144.75
956.1583	2277.0811	25972.65	25082.8
956.2912	2278.5346	25893.45	25005.55
956.4241	2279.9874	25860.3	24971.8
956.5569	2281.4395	25796.8	24909.9
956.6897	2282.8908	25666.05	24772.25
956.8225	2284.3414	25635	24745.55
956.9553	2285.7914	25511.55	24625.05
957.088	2287.2406	25423.5	24534.75
957.2207	2288.689	25392.9	24504.8
957.3534	2290.1368	25288.65	24399.75
957.486	2291.5838	25184.85	24293.75
957.6186	2293.0302	25112.15	24222.2
957.7512	2294.4758	25003.25	24116.35
957.8838	2295.9206	24874.15	23983.85
958.0163	2297.3648	24852.8	23965.35
958.1488	2298.8082	24815.2	23927
958.2813	2300.251	24713.25	23826.95
958.4137	2301.693	24600.55	23710
958.5461	2303.1343	24625.2	23735.95
958.6785	2304.5748	24520.95	23633.3
958.8108	2306.0147	24443.6	23555.25
958.9432	2307.4538	24306.85	23416.2
959.0754	2308.8922	24269.05	23382.75
959.2077	2310.3299	24220.5	23332.65
959.3399	2311.7669	24114.8	23226.85
959.4721	2313.2031	24022.85	23136.65
959.6043	2314.6387	23926.55	23038.3
959.7365	2316.0735	23872.2	22983.75
959.8686	2317.5076	23827.35	22939.7
960.0006	2318.941	23749.3	22859.85
960.1327	2320.3737	23657.6	22766.65
960.2647	2321.8056	23592.15	22702.4
960.3967	2323.2369	23542.35	22652.1
960.5287	2324.6674	23440.95	22550.7
960.6606	2326.0972	23328.55	22439.4
960.7925	2327.5263	23253.2	22365.8
960.9244	2328.9547	23183.5	22296.3
961.0562	2330.3823	23115.05	22227.9
961.1881	2331.8092	23110.15	22220.35
961.3198	2333.2355	22974.2	22086.15
961.4516	2334.661	22985.75	22097.85
961.5833	2336.0858	22898.6	22007.95
961.715	2337.5098	22814.95	21928.3
961.8467	2338.9332	22787.15	21897.05
961.9783	2340.3558	22689.55	21797.2
962.1099	2341.7778	22640.8	21752.45
962.2415	2343.199	22531.35	21643.75
962.373	2344.6195	22457	21571.05
962.5045	2346.0393	22406.3	21518.9
962.636	2347.4583	22366.7	21476.6
962.7675	2348.8767	22282.2	21392.85
962.8989	2350.2943	22228.2	21340.6
963.0303	2351.7113	22167	21277.9
963.1617	2353.1275	22066.75	21177.95
963.293	2354.543	21988.85	21093.45
963.4243	2355.9578	21939.25	21050.15
963.5556	2357.3718	21825.7	20937.35
963.6868	2358.7852	21709.55	20819
963.818	2360.1978	21619.95	20730.05
963.9492	2361.6098	21600	20712
964.0803	2363.021	21503.8	20613
964.2114	2364.4315	21454.8	20566
964.3425	2365.8413	21395.85	20508.3
964.4736	2367.2504	21312.3	20424.75
964.6046	2368.6587	21202.35	20314.85
964.7356	2370.0664	21097.35	20211.4
964.8666	2371.4733	21107.45	20220.2
964.9975	2372.8795	21055.55	20168.65
965.1284	2374.285	20931.8	20044.05
965.2593	2375.6899	20839.25	19952.35
965.3901	2377.0939	20697.6	19809.25
965.5209	2378.4973	20656.3	19769.95
965.6517	2379.9	20596.25	19708.5
965.7825	2381.3019	20494.75	19606.85
965.9132	2382.7032	20464.85	19578.65
966.0439	2384.1037	20397.65	19513.6
966.1745	2385.5035	20335.7	19448.65
966.3051	2386.9027	20272	19383.7
966.4357	2388.3011	20212.85	19323.2
966.5663	2389.6987	20152.9	19263.3
966.6968	2391.0957	20083.45	19197.05
966.8273	2392.492	19983.85	19099.1
966.9578	2393.8876	19887.35	18999.05
967.0882	2395.2824	19816.65	18927.6
967.2186	2396.6765	19710.9	18824
967.349	2398.07	19639.05	18752.15
967.4793	2399.4627	19604.7	18716.55
967.6097	2400.8547	19554.6	18666.8
967.7399	2402.246	19499.15	18607.15
967.8702	2403.6366	19355.3	18466.35
968.0004	2405.0265	19259.4	18373.05
968.1306	2406.4156	19200.05	18308.4
968.2607	2407.8041	19131.05	18241.15
968.3909	2409.1918	19044	18153.35
968.521	2410.5789	18966.65	18078.45
968.651	2411.9652	18906.45	18016.7
968.781	2413.3508	18838.95	17951.1
968.911	2414.7358	18781.45	17893.5
969.041	2416.12	18711.25	17823.55
969.1709	2417.5035	18653.65	17769
969.3008	2418.8863	18585.45	17698.05
969.4307	2420.2684	18506.9	17621.5
969.5606	2421.6497	18438	17549.7
969.6904	2423.0304	18319.5	17431.65
969.8201	2424.4104	18285.85	17397.9
969.9499	2425.7896	18191.8	17304.05
970.0796	2427.1682	18148.2	17262.25
970.2093	2428.546	18096.45	17207.65
970.3389	2429.9232	18073.8	17186.1
970.4685	2431.2996	18015.05	17128.15
970.5981	2432.6753	17983.15	17093.8
970.7277	2434.0503	17923.5	17036.4
970.8572	2435.4246	17838.65	16950.85
970.9867	2436.7982	17781.45	16891.15
971.1161	2438.1711	17738.8	16852.4
971.2456	2439.5433	17662.35	16774.85
971.375	2440.9148	17587.6	16694
971.5043	2442.2856	17491.6	16606.25
971.6336	2443.6557	17463.8	16575.3
971.7629	2445.025	17373.25	16485
971.8922	2446.3937	17364.6	16474.5
972.0214	2447.7617	17297.35	16409.15
972.1506	2449.1289	17257.4	16371.2
972.2798	2450.4955	17206.55	16315.2
972.4089	2451.8613	17153.45	16268.6
972.538	2453.2265	17062.05	16174.9
972.6671	2454.5909	17051.65	16163.45
972.7961	2455.9546	17006.9	16120.95
972.9251	2457.3177	16895.6	16007.75
973.0541	2458.68	16870.8	15983.4
973.1831	2460.0416	16835.35	15947.8
973.312	2461.4025	16828.7	15940.3
973.4408	2462.7627	16775.2	15877.7
973.5697	2464.1222	16701.1	15813.5
973.6985	2465.4811	16670.05	15782.35
973.8273	2466.8392	16592.9	15703.6
973.956	2468.1966	16551	15662.3
974.0847	2469.5533	16514.65	15627.15
974.2134	2470.9093	16486	15596.6
974.3421	2472.2645	16394.3	15503.4
974.4707	2473.6191	16350.15	15461.95
974.5993	2474.973	16248.75	15361.7
974.7278	2476.3262	16206.85	15319.75
974.8563	2477.6787	16174.85	15287.8
974.9848	2479.0305	16100.1	15212.7
975.1132	2480.3816	16057.1	15168
975.2417	2481.7319	15967.55	15078.55
975.37	2483.0816	15912.8	15022.8
975.4984	2484.4306	15868	14978.5
975.6267	2485.7789	15800.15	14914.25
975.755	2487.1264	15726.25	14838.85
975.8833	2488.4733	15673.5	14787.85
976.0115	2489.8195	15611.3	14717.05
976.1397	2491.165	15546.95	14656.5
976.2678	2492.5097	15508.35	14620.05
976.3959	2493.8538	15435.55	14547.15
976.524	2495.1972	15363.8	14476.35
976.6521	2496.5398	15314.05	14424.65
976.7801	2497.8818	15284.2	14397.8
976.9081	2499.2231	15201.3	14313.55
977.036	2500.5637	15153.85	14266.35
977.164	2501.9035	15089	14199.15
977.2918	2503.2427	15065	14174.1
977.4197	2504.5812	14977.7	14091.05
977.5475	2505.919	14940.25	14050.2
977.6753	2507.256	14930.95	14044.2
977.8031	2508.5924	14860.45	13972.25
977.9308	2509.9281	14796.4	13903.65
978.0585	2511.2631	14747.45	13862.05
978.1861	2512.5974	14710.8	13824.8
978.3137	2513.9309	14645.6	13758.55
978.4413	2515.2638	14604.2	13690.85
978.5689	2516.596	14558.3	13668.6
978.6964	2517.9275	14483.7	13595.1
978.8239	2519.2583	14457.55	13569.15
978.9513	2520.5884	14385.85	13496.7
979.0788	2521.9178	14343.25	13455.75
979.2062	2523.2465	14303.7	13414.55
979.3335	2524.5745	14221	13335.05
979.4608	2525.9018	14147.3	13259.2
979.5881	2527.2284	14133.25	13247.85
979.7154	2528.5543	14104.3	13218.4
979.8426	2529.8796	14048.3	13160.9
979.9698	2531.2041	14011.35	13123.4
980.0969	2532.5279	13991.95	13103.4
980.224	2533.851	13928.7	13041.25
980.3511	2535.1735	13896.25	13008.65
980.4781	2536.4952	13841.6	12953.25
980.6052	2537.8163	13816.7	12929.15
980.7321	2539.1366	13784.15	12896.4
980.8591	2540.4562	13731.85	12844.15
980.986	2541.7752	13733.8	12846.9
981.1129	2543.0935	13689.4	12801.4
981.2397	2544.411	13641.25	12751.65
981.3665	2545.7279	13620.7	12734
981.4933	2547.0441	13579	12692.85
981.62	2548.3596	13576.05	12686.4
981.7467	2549.6744	13508.5	12618.65
981.8734	2550.9885	13474	12579.9
982.0001	2552.3019	13450.5	12563.05
982.1267	2553.6146	13417.65	12530.75
982.2532	2554.9266	13351.65	12462.95
982.3798	2556.2379	13299.2	12408.55
982.5063	2557.5485	13284.05	12397.85
982.6327	2558.8585	13253.85	12360.15
982.7592	2560.1677	13224.25	12331.15
982.8856	2561.4762	13220.15	12332.85
983.0119	2562.7841	13201.95	12310
983.1383	2564.0913	13105.6	12219.2
983.2646	2565.3977	13109.25	12223.65
983.3908	2566.7035	13078.15	12190
983.517	2568.0086	13063.85	12172.9
983.6432	2569.313	13027.35	12139.4
983.7694	2570.6167	12986.45	12097.1
983.8955	2571.9197	12925.9	12039.2
984.0216	2573.222	12915.35	12023.25
984.1476	2574.5236	12906.4	12018.15
984.2737	2575.8246	12872.85	11982.55
984.3996	2577.1248	12844.65	11955.4
984.5256	2578.4244	12796.45	11910.75
984.6515	2579.7232	12759.55	11871.35
984.7774	2581.0214	12777.15	11866.55
984.9032	2582.3189	12724.5	11839.15
985.029	2583.6157	12679.45	11789
985.1548	2584.9118	12641.2	11751.15
985.2806	2586.2072	12612.55	11725
985.4063	2587.5019	12565.4	11678.8
985.5319	2588.7959	12522.8	11634.35
985.6576	2590.0893	12527.55	11638.05
985.7832	2591.3819	12474.25	11588.45
985.9087	2592.6739	12445.45	11560.95
986.0343	2593.9652	12399.45	11511.3
986.1597	2595.2557	12351.35	11464.6
986.2852	2596.5456	12307.2	11417.4
986.4106	2597.8348	12242.45	11355.75
986.536	2599.1234	12171.4	11284.05
986.6614	2600.4112	12167.55	11280.25
986.7867	2601.6983	12132.3	11241.45
986.912	2602.9848	12082.85	11195.7
987.0372	2604.2705	12013.7	11119.7
987.1624	2605.5556	12002.2	11115.9
987.2876	2606.84	11947.2	11059.65
987.4128	2608.1237	11897.1	11008.55
987.5379	2609.4067	11849.05	10961.2
987.6629	2610.689	11816.25	10920.3
987.788	2611.9707	11781.45	10891.45
987.913	2613.2516	11731.55	10838.95
988.0379	2614.5319	11661.95	10775.95
988.1629	2615.8115	11586.4	10697.4
988.2878	2617.0903	11568.8	10683.15
988.4126	2618.3685	11511.85	10625.35
988.5375	2619.6461	11484.2	10596.55
988.6622	2620.9229	11458	10570.9
988.787	2622.199	11411.1	10523.5
988.9117	2623.4745	11384.2	10496.4
989.0364	2624.7493	11344.6	10458.55
989.161	2626.0234	11275.65	10389.7
989.2857	2627.2968	11253.9	10368.45
989.4102	2628.5695	11224.9	10335.95
989.5348	2629.8415	11142.7	10254.95
989.6593	2631.1128	11105.75	10217.4
989.7837	2632.3835	11067.8	10180.65
989.9082	2633.6535	11009.9	10124.15
990.0326	2634.9228	10985.55	10098
990.1569	2636.1914	10958.2	10071.8
990.2812	2637.4593	10921.9	10028.25
990.4055	2638.7265	10866.7	9977.15
990.5298	2639.9931	10851.85	9963.9
990.654	2641.259	10816	9928.45
990.7782	2642.5242	10778.6	9891.65
990.9023	2643.7887	10750.1	9862.3
991.0264	2645.0525	10717.05	9828.9
991.1505	2646.3156	10662.3	9774.15
991.2745	2647.5781	10634.65	9749.9
991.3985	2648.8398	10594.6	9709.4
991.5225	2650.1009	10601.65	9677.5
991.6464	2651.3613	10513.85	9625.2
991.7703	2652.6211	10519.75	9632.7
991.8942	2653.8801	10496.15	9608.4
992.018	2655.1385	10450.25	9559.45
992.1418	2656.3961	10416.5	9529.25
992.2655	2657.6531	10401.2	9512.75
992.3892	2658.9094	10374.9	9488.35
992.5129	2660.1651	10344.9	9458.8
992.6366	2661.42	10299.25	9412.2
992.7602	2662.6743	10260.5	9370.6
992.8837	2663.9279	10268.55	9381.7
993.0073	2665.1808	10203.65	9316.45
993.1307	2666.433	10199.35	9311.1
993.2542	2667.6846	10158.35	9271.85
993.3776	2668.9354	10128	9239.7
993.501	2670.1856	10110.55	9223.05
993.6244	2671.4351	10079.45	9192.05
993.7477	2672.6839	10056.75	9169.15
993.8709	2673.9321	10008.6	9120.8
993.9942	2675.1795	9968.3	9080.2
994.1174	2676.4263	9933.75	9046.95
994.2405	2677.6724	9930.75	9043.4
994.3637	2678.9179	9900.4	9013.05
994.4868	2680.1626	9843	8955.4
994.6098	2681.4067	9835.4	8946.5
994.7328	2682.6501	9789.25	8901.2
994.8558	2683.8928	9752.2	8863.9
994.9788	2685.1348	9714.05	8827.55
995.1017	2686.3761	9677	8790.7
995.2245	2687.6168	9649.2	8762.55
995.3474	2688.8568	9639.55	8751.3
995.4702	2690.0961	9564.35	8678.8
995.5929	2691.3348	9561.25	8675.35
995.7156	2692.5727	9530.7	8642.7
995.8383	2693.81	9490.2	8602.85
995.961	2695.0466	9479.2	8591.85
996.0836	2696.2826	9444.25	8556.3
996.2062	2697.5178	9421.95	8532.05
996.3287	2698.7524	9385.55	8497.85
996.4512	2699.9863	9370.05	8481.55
996.5737	2701.2195	9310.75	8422.7
996.6961	2702.452	9323.05	8435.15
996.8185	2703.6839	9281.75	8392.55
996.9408	2704.9151	9263.8	8378.4
997.0631	2706.1456	9198.5	8310
997.1854	2707.3755	9185.95	8298.55
997.3077	2708.6046	9158.2	8267.45
997.4299	2709.8331	9112.65	8224.35
997.552	2711.0609	9072.25	8186.65
997.6742	2712.2881	9056.1	8170.3
997.7963	2713.5145	9017.2	8127.45
997.9183	2714.7403	9014.95	8127.5
998.0403	2715.9654	8974	8087.55
998.1623	2717.1899	8964.25	8074.95
998.2842	2718.4136	8958.8	8071.9
998.4062	2719.6367	8907.2	8019.65
998.528	2720.8591	8903.85	8009.55
998.6498	2722.0809	8839.65	7951.4
998.7716	2723.3019	8808.4	7917.45
998.8934	2724.5223	8811.55	7924.85
999.0151	2725.7421	8775.9	7887.75
999.1368	2726.9611	8766.9	7877.8
999.2584	2728.1795	8739.85	7845.9
999.38	2729.3972	8711.35	7824.6
999.5016	2730.6142	8645.75	7751.6
999.6231	2731.8306	8609.65	7722.05
999.7446	2733.0462	8541.8	7653.55
999.8661	2734.2612	8513.8	7623.05
999.9875	2735.4756	8446.8	7557.2
1000.1089	2736.6892	8402.65	7515.5
1000.2302	2737.9022	8375.45	7489.8
1000.3515	2739.1145	8325.65	7437.75
1000.4728	2740.3262	8310.85	7415.4
1000.594	2741.5372	8266.15	7379
1000.7152	2742.7475	8216.65	7330.05
1000.8363	2743.9571	8197.4	7309.05
1000.9575	2745.1661	8176	7282.9
1001.0785	2746.3744	8125.9	7239.5
1001.1996	2747.582	8108.25	7220.35
1001.3206	2748.7889	8065.65	7177.4
1001.4415	2749.9952	8025.6	7139.05
1001.5625	2751.2008	8007.6	7119.2
1001.6833	2752.4057	7970.2	7081.1
1001.8042	2753.61	7958.1	7070.7
1001.925	2754.8136	7932	7042.4
1002.0458	2756.0165	7874.5	6987.45
1002.1665	2757.2188	7855.3	6968.65
1002.2872	2758.4204	7844.9	6956.7
1002.4078	2759.6213	7806.8	6916.6
1002.5285	2760.8215	7820.05	6928.7
1002.649	2762.0211	7768.1	6880.45
1002.7696	2763.22	7740.35	6851.85
1002.8901	2764.4182	7688.65	6801.4
1003.0106	2765.6158	7688.5	6799.9
1003.131	2766.8127	7663.45	6777.6
1003.2514	2768.009	7615.15	6729.2
1003.3717	2769.2045	7592.4	6705.2
1003.492	2770.3994	7591.95	6702.05
1003.6123	2771.5936	7572	6682.3
1003.7325	2772.7872	7527.3	6640
1003.8527	2773.9801	7489.2	6599.65
1003.9729	2775.1723	7479.95	6576.6
1004.093	2776.3639	7427.95	6539.6
1004.2131	2777.5548	7418.1	6529.05
1004.3331	2778.745	7404.15	6515.95
1004.4531	2779.9346	7370.05	6481.95
1004.5731	2781.1235	7361.05	6471.75
1004.693	2782.3117	7324.7	6438.3
1004.8129	2783.4992	7301.85	6415.5
1004.9328	2784.6861	7285.5	6396.95
1005.0526	2785.8723	7272.9	6384.95
1005.1723	2787.0579	7233.35	6345.8
1005.2921	2788.2428	7203.15	6317.15
1005.4118	2789.427	7193	6305.95
1005.5314	2790.6106	7167.35	6281.05
1005.651	2791.7935	7145.6	6258.8
1005.7706	2792.9757	7107.2	6222.15
1005.8902	2794.1573	7114.15	6223
1006.0097	2795.3382	7100.85	6211.45
1006.1291	2796.5184	7072.2	6186.95
1006.2485	2797.698	7051.2	6164.05
1006.3679	2798.8769	7048.5	6161.75
1006.4873	2800.0551	7052.85	6165.65
1006.6066	2801.2327	7033.6	6145.45
1006.7258	2802.4096	7005.45	6117.9
1006.8451	2803.5859	6984.65	6097.9
1006.9642	2804.7615	6980.9	6091.65
1007.0834	2805.9364	6975.45	6089.25
1007.2025	2807.1106	6959.6	6073.6
1007.3216	2808.2842	6963.45	6074.05
1007.4406	2809.4572	6957.85	6070.2
1007.5596	2810.6294	6984.15	6095.35
1007.6785	2811.801	6999.2	6113.3
1007.7975	2812.972	7017.1	6131.45
1007.9163	2814.1423	7015.2	6125.5
1008.0352	2815.3119	7027.4	6140.2
1008.154	2816.4808	7054.65	6166.8
1008.2727	2817.6491	7090.65	6202.2
1008.3914	2818.8167	7110.45	6222.2
1008.5101	2819.9837	7132.6	6241.4
1008.6288	2821.15	7143.6	6255.65
1008.7474	2822.3157	7173.8	6288.75
1008.8659	2823.4807	7208.3	6321.45
1008.9844	2824.645	7241.05	6353.3
1009.1029	2825.8086	7268.6	6381.3
1009.2214	2826.9716	7296.25	6410.05
1009.3398	2828.134	7351.65	6464.55
1009.4581	2829.2957	7352.05	6465.95
1009.5764	2830.4567	7379.2	6493.75
1009.6947	2831.617	7368.4	6480.1
1009.813	2832.7767	7381.45	6494.95
1009.9312	2833.9358	7351.3	6464.25
1010.0493	2835.0941	7349.8	6461.55
1010.1675	2836.2519	7296.05	6411.3
1010.2855	2837.4089	7262.5	6376.5
1010.4036	2838.5653	7262.95	6376.1
1010.5216	2839.7211	7219.6	6334.8
1010.6396	2840.8761	7215.45	6326
1010.7575	2842.0306	7203.85	6317.3
1010.8754	2843.1843	7216.15	6329.55
1010.9932	2844.3374	7247.1	6360.3
1011.111	2845.4899	7279.35	6391.55
1011.2288	2846.6417	7315.1	6428.4
1011.3465	2847.7928	7366.25	6481.8
1011.4642	2848.9433	7382.35	6497.25
1011.5818	2850.0931	7429.2	6542.5
1011.6995	2851.2422	7497.15	6607.35
1011.817	2852.3907	7535.1	6645.6
1011.9345	2853.5385	7563.25	6674.55
1012.052	2854.6857	7579.8	6683.1
1012.1695	2855.8323	7606.95	6720.75
1012.2869	2856.9781	7656.7	6770.95
1012.4042	2858.1233	7648	6760.3
1012.5216	2859.2679	7675.8	6789.8
1012.6389	2860.4118	7713.05	6825.95
1012.7561	2861.555	7726.55	6835.4
1012.8733	2862.6976	7751.65	6864
1012.9905	2863.8395	7743.45	6859.15
1013.1076	2864.9808	7772	6885.25
1013.2247	2866.1214	7763.05	6877.85
1013.3417	2867.2614	7765.2	6878.75
1013.4587	2868.4007	7751.35	6864.15
1013.5757	2869.5393	7725.1	6835.5
1013.6926	2870.6773	7726.85	6838.7
1013.8095	2871.8146	7701.9	6811.25
1013.9263	2872.9513	7685	6795.85
1014.0431	2874.0874	7656	6768.95
1014.1599	2875.2227	7634.45	6747.4
1014.2766	2876.3574	7593.15	6706.8
1014.3933	2877.4915	7542.75	6655.6
1014.51	2878.6249	7513.25	6627.35
1014.6266	2879.7577	7477.65	6589.35
1014.7431	2880.8898	7428.8	6529.65
1014.8596	2882.0212	7381.3	6495
1014.9761	2883.152	7357.15	6470.15
1015.0925	2884.2821	7322.15	6437.1
1015.2089	2885.4116	7307.1	6422.3
1015.3253	2886.5405	7285.7	6399.85
1015.4416	2887.6686	7282.75	6394.65
1015.5579	2888.7962	7248.55	6364.05
1015.6741	2889.923	7254.35	6369.5
1015.7903	2891.0493	7235.05	6348.5
1015.9065	2892.1748	7234.1	6346.55
1016.0226	2893.2997	7235.05	6348.7
1016.1387	2894.424	7211.1	6326.15
1016.2547	2895.5476	7221.1	6333.5
1016.3707	2896.6706	7193.85	6307.75
1016.4866	2897.7929	7200.35	6312.75
1016.6025	2898.9145	7200.15	6312.85
1016.7184	2900.0355	7198.75	6311.25
1016.8342	2901.1559	7214.1	6327.75
1016.95	2902.2756	7231.5	6346.3
1017.0658	2903.3946	7225.05	6339.4
1017.1815	2904.513	7229.7	6339.9
1017.2971	2905.6308	7236.3	6351.2
1017.4127	2906.7479	7269	6382.2
1017.5283	2907.8643	7277.95	6390.7
1017.6439	2908.9801	7246.3	6359.75
1017.7594	2910.0953	7233.8	6346.5
1017.8748	2911.2098	7209.35	6318.85
1017.9902	2912.3236	7192.25	6296.85
1018.1056	2913.4368	7165.7	6275.9
1018.2209	2914.5494	7127.95	6241.85
1018.3362	2915.6613	7083.75	6191.25
1018.4515	2916.7725	7045.9	6155.75
1018.5667	2917.8831	7003.1	6114.1
1018.6819	2918.9931	6984.5	6093.9
1018.797	2920.1024	6939.95	6051.6
1018.9121	2921.211	6909.8	6021.1
1019.0271	2922.319	6855.5	5968.3
1019.1421	2923.4264	6861	5974.1
1019.2571	2924.5331	6827.55	5943.65
1019.372	2925.6391	6795.55	5909.05
1019.4869	2926.7445	6764.2	5877.75
1019.6017	2927.8493	6751.35	5865.05
1019.7165	2928.9534	6731.9	5843.5
1019.8313	2930.0569	6720.4	5831.5
1019.946	2931.1597	6717.3	5829.8
1020.0606	2932.2619	6702.85	5815.7
1020.1753	2933.3634	6670.75	5786.45
1020.2899	2934.4643	6679.25	5786
1020.4044	2935.5645	6665.6	5773.25
1020.5189	2936.6641	6597.05	5704.5
1020.6334	2937.763	6563.8	5677.85
1020.7478	2938.8613	6508.15	5623.15
1020.8622	2939.959	6458.7	5567.3
1020.9765	2941.056	6374.1	5488.5
1021.0908	2942.1523	6297.95	5411.2
1021.2051	2943.248	6190.85	5302.6
1021.3193	2944.3431	6117.7	5232.75
1021.4334	2945.4375	5992.95	5105
1021.5476	2946.5313	5907.1	5023.45
1021.6617	2947.6244	5803.85	4916.85
1021.7757	2948.7169	5699.75	4812.4
1021.8897	2949.8087	5614.5	4726.3
1022.0037	2950.8999	5507.45	4619.6
1022.1176	2951.9904	5423.1	4537.3
1022.2315	2953.0803	5363.85	4475.95
1022.3453	2954.1696	5280.55	4394.95
1022.4591	2955.2582	5222.6	4335.9
1022.5728	2956.3462	5153.65	4265.75
1022.6865	2957.4335	5106.65	4218.6
1022.8002	2958.5202	5043.55	4155.95
1022.9138	2959.6062	4999.85	4113.45
1023.0274	2960.6916	4960.95	4075.3
1023.141	2961.7764	4959.3	4074.45
1023.2545	2962.8605	4915	4028.45
1023.3679	2963.9439	4897.45	4009.95
1023.4813	2965.0267	4860.2	3971.2
1023.5947	2966.1089	4852.7	3943.35
1023.708	2967.1905	4813.9	3924.45
1023.8213	2968.2714	4809.15	3924.65
1023.9346	2969.3516	4797.75	3912.7
1024.0478	2970.4312	4804.8	3909.85
1024.1609	2971.5102	4771	3885.25
1024.274	2972.5885	4761.5	3875.3
1024.3871	2973.6662	4745.45	3854.5
1024.5002	2974.7432	4719.75	3833.95
1024.6132	2975.8196	4712.85	3828.35
1024.7261	2976.8954	4698.9	3813.45
1024.839	2977.9705	4675.65	3791.4
1024.9519	2979.045	4647.95	3762
1025.0647	2980.1188	4620.5	3734.8
1025.1775	2981.192	4591.65	3704.8
1025.2902	2982.2645	4561.75	3674.75
1025.4029	2983.3364	4529.55	3643.4
1025.5156	2984.4077	4488.4	3603.2
1025.6282	2985.4783	4475.45	3581.2
1025.7407	2986.5483	4425.7	3539.95
1025.8532	2987.6177	4379.3	3492.75
1025.9657	2988.6864	4345.75	3459.35
1026.0782	2989.7545	4311.75	3422.95
1026.1906	2990.8219	4268.25	3382.55
1026.3029	2991.8887	4219.1	3329.1
1026.4152	2992.9548	4179.25	3292.25
1026.5275	2994.0204	4138.2	3252.85
1026.6397	2995.0852	4095.8	3209.7
1026.7519	2996.1495	4072.65	3184.7
1026.864	2997.2131	4036.35	3149.15
1026.9761	2998.276	3998.8	3112.05
1027.0882	2999.3383	3973.65	3087.5
1027.2002	3000.4	3945.65	3059.25
1027.3122	3001.4611	3926.15	3039.45
1027.4241	3002.5215	3898.2	3011.9
1027.536	3003.5812	3872.65	2986.35
1027.6478	3004.6404	3855.45	2968.9
1027.7596	3005.6989	3841.95	2951.65
1027.8714	3006.7567	3818.3	2932.6
1027.9831	3007.8139	3812.2	2904.1
1028.0947	3008.8705	3790.7	2902.45
1028.2064	3009.9264	3761.25	2873
1028.3179	3010.9818	3753.5	2866.45
1028.4295	3012.0364	3748.65	2863.45
1028.541	3013.0905	3710.75	2824.15
1028.6524	3014.1439	3703.8	2816.65
1028.7638	3015.1966	3700.5	2815.65
1028.8752	3016.2487	3672.95	2785.35
1028.9865	3017.3002	3668.7	2778.7
1029.0978	3018.3511	3659.95	2772.65
1029.209	3019.4013	3652.4	2765.95
1029.3202	3020.4509	3640.85	2756.1
1029.4314	3021.4998	3629.3	2740.5
1029.5425	3022.5481	3601.4	2713.25
1029.6535	3023.5958	3601.15	2714.95
1029.7645	3024.6428	3599.9	2711.2
1029.8755	3025.6892	3570.95	2685.55
1029.9864	3026.735	3556.5	2669.3
1030.0973	3027.7802	3556.55	2671.5
1030.2082	3028.8247	3528.6	2644
1030.319	3029.8685	3522.05	2635.25
1030.4297	3030.9118	3523.85	2636.15
1030.5404	3031.9544	3520.45	2633.75
1030.6511	3032.9963	3504.15	2616.95
1030.7617	3034.0376	3494.3	2609.55
1030.8723	3035.0783	3503.6	2616.2
1030.9829	3036.1184	3499	2612.2
1031.0934	3037.1578	3469.15	2584.35
1031.2038	3038.1966	3472.3	2585.95
1031.3142	3039.2348	3463.95	2579.75
1031.4246	3040.2723	3461.35	2566.45
1031.5349	3041.3092	3450.95	2564.4
1031.6452	3042.3455	3439.85	2551.8
1031.7554	3043.3811	3413.95	2526.9
1031.8656	3044.4161	3412.85	2526.25
1031.9758	3045.4505	3401.35	2515.3
1032.0859	3046.4842	3390.9	2504.2
1032.1959	3047.5173	3388.8	2504.55
1032.3059	3048.5498	3365.8	2479.8
1032.4159	3049.5816	3346.25	2459.7
1032.5258	3050.6128	3342.35	2455.1
1032.6357	3051.6434	3325.25	2436.95
1032.7455	3052.6734	3317.95	2429.15
1032.8553	3053.7027	3296.1	2408.25
1032.9651	3054.7314	3288.1	2403.55
1033.0748	3055.7594	3276.45	2390.7
1033.1845	3056.7868	3272.85	2386.55
1033.2941	3057.8136	3248.3	2360.8
1033.4037	3058.8398	3231.3	2344.05
1033.5132	3059.8653	3226.85	2339.85
1033.6227	3060.8902	3210.6	2324.7
1033.7321	3061.9145	3198.65	2311.2
1033.8415	3062.9381	3203.65	2317.55
1033.9509	3063.9612	3187.4	2284.65
1034.0602	3064.9835	3162.35	2276.65
1034.1694	3066.0053	3159.35	2270.35
1034.2787	3067.0264	3147.35	2263.55
1034.3878	3068.0469	3144	2256.75
1034.497	3069.0668	3132.9	2244.15
1034.6061	3070.086	3112.55	2228.15
1034.7151	3071.1046	3092.3	2205.45
1034.8241	3072.1226	3076.4	2188.7
1034.9331	3073.1399	3074.05	2188.35
1035.042	3074.1567	3060.85	2173.95
1035.1508	3075.1727	3024.4	2137.1
1035.2597	3076.1882	3018.4	2132.3
1035.3684	3077.203	3012.8	2128.3
1035.4772	3078.2173	2993.55	2105.2
1035.5859	3079.2308	2985.25	2094.45
1035.6945	3080.2438	2967.05	2078.9
1035.8031	3081.2561	2946.4	2058.5
1035.9117	3082.2678	2938.8	2053.55
1036.0202	3083.2789	2932.25	2043.7
1036.1286	3084.2893	2918	2031.75
1036.2371	3085.2991	2905	2018.9
1036.3454	3086.3083	2887.25	1995.15
1036.4538	3087.3169	2894.3	2006.65
1036.562	3088.3248	2869.6	1982.2
1036.6703	3089.3321	2860.1	1973.5
1036.7785	3090.3388	2838.2	1952.6
1036.8866	3091.3449	2833.6	1946.7
1036.9948	3092.3503	2827.6	1940.3
1037.1028	3093.3551	2808.5	1923.55
1037.2108	3094.3593	2793.75	1908.1
1037.3188	3095.3629	2781.1	1895.75
1037.4267	3096.3658	2790.55	1905.65
1037.5346	3097.3681	2775.6	1890.25
1037.6425	3098.3698	2755.15	1868.9
1037.7503	3099.3708	2755.15	1864.65
1037.858	3100.3713	2731.8	1847.2
1037.9657	3101.3711	2712.95	1824.55
1038.0734	3102.3702	2819.7	1791
1038.181	3103.3688	2719.8	1830.1
1038.2886	3104.3667	2680.55	1795.65
1038.3961	3105.364	2679.7	1792.75
1038.5036	3106.3607	2673.8	1785.95
1038.611	3107.3568	2655.25	1768.05
1038.7184	3108.3522	2650.45	1766.8
1038.8257	3109.347	2644.45	1755.5
1038.933	3110.3412	2627.15	1736.25
1039.0403	3111.3348	2620.4	1733.55
1039.1475	3112.3277	2600.5	1713.65
1039.2547	3113.32	2589.1	1705.4
1039.3618	3114.3117	2584.3	1696.65
1039.4689	3115.3028	2571.3	1684
1039.5759	3116.2932	2558.65	1672.3
1039.6829	3117.2831	2555.1	1662.05
1039.7898	3118.2723	2553.35	1667.7
1039.8967	3119.2608	2542.5	1655
1040.0035	3120.2488	2538.2	1650.5
1040.1103	3121.2361	2519.7	1634.15
1040.2171	3122.2229	2495.35	1610.55
1040.3238	3123.209	2490.7	1603
1040.4305	3124.1944	2483.8	1599.45
1040.5371	3125.1793	2491.45	1602.45
1040.6437	3126.1635	2481.75	1597.5
1040.7502	3127.1471	2456.9	1572.05
1040.8567	3128.1301	2453.25	1566.15
1040.9631	3129.1125	2452.1	1566.65
1041.0695	3130.0942	2438.4	1553.75
1041.1759	3131.0753	2446.25	1551.55
1041.2822	3132.0558	2424.05	1536.25
1041.3884	3133.0357	2420.8	1534.5
1041.4946	3134.015	2423.1	1536.8
1041.6008	3134.9936	2408.35	1522.6
1041.7069	3135.9716	2416.35	1510.15
1041.813	3136.949	2387.6	1502.15
1041.919	3137.9258	2397.65	1505.5
1042.025	3138.902	2387.4	1496.1
1042.1309	3139.8775	2378.6	1494
1042.2368	3140.8524	2365.4	1480.2
1042.3427	3141.8267	2360.45	1474.35
1042.4485	3142.8004	2362.1	1474.05
1042.5542	3143.7735	2355.5	1463.75
1042.6599	3144.7459	2339.7	1450.7
1042.7656	3145.7178	2337.7	1449.15
1042.8712	3146.689	2317.75	1432.85
1042.9768	3147.6596	2312	1425.6
1043.0823	3148.6295	2303.7	1418.05
1043.1878	3149.5989	2302.6	1419.25
1043.2932	3150.5676	2298.85	1412.15
1043.3986	3151.5357	2283.7	1396.2
1043.5039	3152.5032	2272.75	1386.7
1043.6092	3153.4701	2265.4	1378.65
1043.7145	3154.4364	2261.5	1372.5
1043.8197	3155.402	2260.75	1374.95
1043.9248	3156.367	2243.2	1355.85
1044.03	3157.3315	2281.4	1351.2
1044.135	3158.2952	2240.45	1354.5
1044.24	3159.2584	2218.55	1333
1044.345	3160.221	2213.55	1326.95
1044.4499	3161.1829	2211.3	1324.8
1044.5548	3162.1442	2206.5	1321.05
1044.6596	3163.105	2193.65	1306.9
1044.7644	3164.065	2189.1	1302.95
1044.8692	3165.0245	2177.95	1290.75
1044.9739	3165.9834	2176	1292.3
1045.0785	3166.9416	2173.45	1287.3
1045.1831	3167.8993	2153.3	1265.6
1045.2877	3168.8563	2145.05	1259.9
1045.3922	3169.8127	2140.25	1253.15
1045.4966	3170.7684	2134.25	1249.65
1045.6011	3171.7236	2124.5	1235.75
1045.7054	3172.6782	2120.55	1234.7
1045.8098	3173.6321	2114.4	1228.65
1045.914	3174.5854	2123.85	1233.4
1046.0183	3175.5381	2106.45	1220.45
1046.1224	3176.4902	2100.55	1215.45
1046.2266	3177.4417	2082.5	1198.8
1046.3307	3178.3926	2084.85	1199.1
1046.4347	3179.3428	2074.6	1190.95
1046.5387	3180.2924	2077	1189.9
1046.6427	3181.2415	2057.9	1173.35
1046.7466	3182.1899	2050.4	1163.3
1046.8504	3183.1377	2051.55	1166.15
1046.9542	3184.0848	2046.6	1157.35
1047.058	3185.0314	2035.65	1148.05
1047.1617	3185.9773	2030.05	1145.05
1047.2654	3186.9227	2028.3	1143.05
1047.369	3187.8674	2015.6	1129.15
1047.4726	3188.8115	2010.3	1119.75
1047.5761	3189.755	2008.2	1121.7
1047.6796	3190.6979	2004.8	1118.6
1047.783	3191.6402	2000.1	1115.2
1047.8864	3192.5818	1993.65	1107.1
1047.9898	3193.5229	2005.05	1094.9
1048.0931	3194.4633	1977.7	1091.25
1048.1963	3195.4031	1974.1	1087.2
1048.2995	3196.3423	1965.3	1078.7
1048.4027	3197.2809	1966.65	1080.7
1048.5058	3198.2189	1960	1072.5
1048.6089	3199.1563	1959.55	1068.5
1048.7119	3200.0931	1949.75	1065.5
1048.8148	3201.0292	1940.05	1053.95
1048.9178	3201.9648	1930.3	1046.35
1049.0206	3202.8997	1942.05	1054.15
1049.1235	3203.834	1926.4	1041.05
1049.2262	3204.7677	1923.45	1037.8
1049.329	3205.7008	1912.25	1023.9
1049.4317	3206.6333	1906.55	1020.85
1049.5343	3207.5652	1912.7	1023.3
1049.6369	3208.4964	1893	1007.65
1049.7394	3209.4271	1891.2	1005.7
1049.8419	3210.3571	1887.5	1001.8
1049.9444	3211.2865	1881.75	994.85
1050.0468	3212.2154	1879.85	995.3
1050.1491	3213.1436	1877.95	990.05
1050.2514	3214.0712	1875.65	983.4
1050.3537	3214.9982	1866.45	981.45
1050.4559	3215.9246	1853.7	966.7
1050.5581	3216.8503	1847.8	960.95
1050.6602	3217.7755	1855.2	968.55
1050.7623	3218.7001	1844.8	959.45
1050.8643	3219.624	1836.5	950.65
1050.9663	3220.5473	1839	953.1
1051.0682	3221.4701	1837.3	950.8
1051.1701	3222.3922	1827.15	939.45
1051.2719	3223.3137	1815.9	928.5
1051.3737	3224.2346	1817	931.4
1051.4754	3225.1549	1799.8	914.8
1051.5771	3226.0746	1802.95	918.35
1051.6788	3226.9937	1799.75	914
1051.7804	3227.9121	1794.35	908.05
1051.8819	3228.83	1796.15	910.55
1051.9834	3229.7473	1789.8	904.8
1052.0849	3230.6639	1782.45	895.6
1052.1863	3231.5799	1776.6	891.5
1052.2876	3232.4954	1762.35	874.9
1052.3889	3233.4102	1774.15	887.95
1052.4902	3234.3244	1761.55	875.05
1052.5914	3235.238	1758	871.5
1052.6926	3236.151	1773.6	865.45
1052.7937	3237.0634	1743.7	858
1052.8948	3237.9752	1731.65	847.25
1052.9958	3238.8864	1731.3	845.8
1053.0968	3239.797	1726.2	839.75
1053.1977	3240.7069	1731.7	844.65
1053.2986	3241.6163	1719.5	831.7
1053.3994	3242.5251	1714.4	828.5
1053.5002	3243.4332	1710.15	824.75
1053.6009	3244.3408	1700.85	812.9
1053.7016	3245.2477	1691.95	804.45
1053.8022	3246.154	1693.35	807.2
1053.9028	3247.0598	1692.7	807.1
1054.0034	3247.9649	1687.75	802.25
1054.1039	3248.8694	1673.8	786.55
1054.2043	3249.7733	1675.85	789.95
1054.3047	3250.6766	1673.05	788
1054.4051	3251.5793	1661.7	775.55
1054.5054	3252.4814	1658.85	774.95
1054.6056	3253.3829	1653.75	769.1
1054.7058	3254.2838	1641.4	755.55
1054.806	3255.1841	1644.25	758.5
1054.9061	3256.0838	1641.25	755.6
1055.0061	3256.9829	1624.6	739.2
1055.1062	3257.8814	1629.8	742.15
1055.2061	3258.7792	1621.65	735.15
1055.306	3259.6765	1614.75	730
1055.4059	3260.5731	1603.75	720.75
1055.5057	3261.4692	1595.65	707.05
1055.6055	3262.3647	1592.6	705.1
1055.7052	3263.2595	1579.5	694.55
1055.8049	3264.1538	1568.15	682.75
1055.9045	3265.0474	1561.05	674.55
1056.0041	3265.9404	1548.95	664.15
1056.1036	3266.8329	1545.4	657.75
1056.2031	3267.7247	1540.75	644.75
1056.3025	3268.616	1508.65	623.7
1056.4019	3269.5066	1493.4	605.1
1056.5013	3270.3966	1477.9	591.15
1056.6005	3271.286	1456.75	573.9
