Software Version:	3.9.2.0
Unit SN:	10000200
Spectrometer SN:	6960
Date:	3/6/2024 9:38:03 AM
Data Line Index:	25
Spectral Points:	2048
Integration time (ms):	125
Averages:	20
Delay (ms):	30
Sequence Number:	1
Processing:	dark subtract
Laser Power (mW):	305
Laser Current (mA):	824
Laser Diode Temp (C):	25.1
Laser Case Temp (C):	23.9
System Temp (C):	23.7
Spectrometer Temp (C):	21.4
CCD Temp (C):	-0.039
Secondary Temp (C):	20.004
Heatsink Temp (C):	17.182
CCDPCB Temp (C):	30.227
SecondaryPCB Temp (C):	25.669

Wavelength	RamanShift	Raw Counts	Dark Subtracted
787.061	30.1047	482.95	75.55
787.2016	32.3739	482.2	77.15
787.3422	34.6426	490.3	83.25
787.4828	36.9109	497.1	89.3
787.6235	39.1787	504.75	93.25
787.7642	41.4461	514.3	96.95
787.9049	43.7131	523	106.45
788.0456	45.9796	532.6	110.45
788.1863	48.2456	544.25	118.75
788.3271	50.5112	554.8	126.5
788.4679	52.7764	565.4	132.4
788.6087	55.0411	578.15	141.6
788.7496	57.3054	587.7	144.5
788.8904	59.5692	603.65	159.7
789.0313	61.8326	610.9	165.55
789.1722	64.0955	629.55	179.55
789.3132	66.3579	647.85	193.55
789.4541	68.6199	672.4	214.35
789.5951	70.8815	706.45	244.75
789.7361	73.1426	787.25	321.25
789.8771	75.4032	991.4	521.3
790.0181	77.6634	1479.15	1007.5
790.1592	79.9231	2658.1	2182.45
790.3003	82.1824	5200.95	4721.45
790.4414	84.4412	9678.9	9192.7
790.5825	86.6995	15726.9	15229.5
790.7237	88.9574	21705.6	21202.9
790.8648	91.2148	25959.3	25453.8
791.006	93.4717	28306.15	27795.9
791.1472	95.7282	29299.7	28788.3
791.2885	97.9842	29834.6	29318.8
791.4297	100.2398	29997.65	29480.05
791.571	102.4949	30147.85	29630.05
791.7123	104.7495	30153.8	29630.7
791.8536	107.0036	30089.2	29561.6
791.9949	109.2573	30177.95	29655.05
792.1363	111.5105	30229.25	29704.75
792.2777	113.7632	30221.95	29693.2
792.4191	116.0154	30248.2	29709.1
792.5605	118.2672	30377.55	29844.7
792.7019	120.5185	30415.4	29880.45
792.8434	122.7693	30495.55	29957.4
792.9849	125.0197	30524.9	29981.95
793.1264	127.2696	30537.05	29989.6
793.2679	129.519	30661.4	30112.1
793.4094	131.7679	30730.25	30177.8
793.551	134.0163	30858.4	30305.4
793.6926	136.2642	30891.75	30334.85
793.8342	138.5117	30932.1	30372
793.9758	140.7587	30974.8	30414.3
794.1175	143.0052	31015.6	30449.2
794.2591	145.2512	31009.65	30444.95
794.4008	147.4967	30983.3	30417.45
794.5425	149.7417	30979.35	30408.9
794.6842	151.9863	31025.5	30451.6
794.826	154.2304	31048.75	30468.85
794.9677	156.4739	30974	30387.05
795.1095	158.717	31035.45	30451.75
795.2513	160.9596	31054.4	30468.25
795.3931	163.2017	31106.8	30516.15
795.535	165.4433	31121.3	30528.8
795.6768	167.6844	31169.1	30573.55
795.8187	169.925	31209.25	30613.7
795.9606	172.1651	31107.6	30503.75
796.1025	174.4047	31136.4	30531.85
796.2445	176.6439	31181.95	30574.55
796.3864	178.8825	31158.45	30548.1
796.5284	181.1206	31259.85	30646.1
796.6704	183.3582	31283.45	30667.15
796.8124	185.5954	31351.85	30733
796.9544	187.832	31370.35	30748
797.0965	190.0681	31446	30820.8
797.2386	192.3037	31532.1	30904.55
797.3806	194.5388	31554.05	30922.8
797.5228	196.7734	31647.3	31016.9
797.6649	199.0075	31758	31124.05
797.807	201.2411	31920.55	31287.3
797.9492	203.4742	31961.2	31325.1
798.0914	205.7068	32062.7	31420.25
798.2336	207.9389	32120.05	31478.25
798.3758	210.1704	32235.65	31600.35
798.518	212.4015	32192.3	31565.65
798.6603	214.632	32293	31674.3
798.8025	216.862	32366.85	31748.35
798.9448	219.0915	32381.8	31762.4
799.0871	221.3205	32461.55	31838.15
799.2294	223.549	32522.15	31901
799.3718	225.777	32592.5	31972.1
799.5141	228.0044	32653.4	32023.75
799.6565	230.2314	32708.65	32077.75
799.7989	232.4578	32691.75	32055.95
799.9413	234.6837	32747.7	32102.4
800.0837	236.909	32849.4	32202.45
800.2262	239.1339	32871.25	32203.55
800.3687	241.3582	32940.25	32286.95
800.5111	243.582	32920.1	32236.25
800.6536	245.8053	32985.65	32312.9
800.7961	248.0281	33015.8	32348.75
800.9387	250.2503	32970.35	32300.85
801.0812	252.472	33060.45	32389.6
801.2238	254.6932	33170.8	32500.1
801.3664	256.9139	33122.7	32448.5
801.509	259.134	33120.4	32443.65
801.6516	261.3536	33190	32514.7
801.7942	263.5727	33289.4	32611.2
801.9369	265.7912	33254.15	32577.6
802.0795	268.0092	33366.4	32688.75
802.2222	270.2267	33371.8	32692.35
802.3649	272.4436	33409.05	32727.15
802.5076	274.6601	33493.65	32800.3
802.6504	276.8759	33465.4	32778.8
802.7931	279.0913	33548.45	32859.95
802.9359	281.3061	33526.8	32839.7
803.0787	283.5204	33625.55	32934.85
803.2215	285.7341	33691.95	32998.05
803.3643	287.9473	33743.3	33038.4
803.5071	290.16	33744.7	33046.45
803.6499	292.3721	33671.3	32979.8
803.7928	294.5837	33696.6	33004.8
803.9357	296.7947	33632.15	32939.3
804.0786	299.0052	33658.45	32963.1
804.2215	301.2152	33566.9	32868.65
804.3644	303.4246	33657.2	32960.2
804.5074	305.6334	33575.45	32880.8
804.6503	307.8418	33611.7	32910.85
804.7933	310.0495	33578.95	32877.95
804.9363	312.2568	33557.25	32858.2
805.0793	314.4635	33424	32722
805.2223	316.6696	33402.35	32697.05
805.3653	318.8752	33274.3	32558.15
805.5084	321.0802	33245.6	32539.1
805.6514	323.2847	33288.45	32578.2
805.7945	325.4887	33219	32506.2
805.9376	327.692	33197.6	32485.55
806.0807	329.8949	33341.7	32628.9
806.2238	332.0972	33329.4	32615.2
806.367	334.2989	33390.95	32670.95
806.5101	336.5001	33358.95	32639.5
806.6533	338.7007	33363.15	32644.5
806.7965	340.9008	33438.15	32717.15
806.9397	343.1003	33304.95	32580.9
807.0829	345.2992	33352.1	32627.6
807.2261	347.4976	33312.1	32586.5
807.3693	349.6955	33257.35	32529.05
807.5126	351.8927	33349.55	32617.7
807.6559	354.0895	33219.15	32478.35
807.7991	356.2856	33296.85	32564.5
807.9424	358.4812	33183.35	32450.2
808.0857	360.6763	33306.55	32573.65
808.2291	362.8707	33228.9	32490.25
808.3724	365.0646	33281.6	32540.65
808.5158	367.258	33178.85	32438.2
808.6591	369.4508	33143.4	32397.3
808.8025	371.643	33183.3	32440.1
808.9459	373.8346	33094.15	32348.15
809.0893	376.0257	33086.9	32338.55
809.2327	378.2162	33040.75	32293.75
809.3762	380.4062	33119.2	32370.25
809.5196	382.5956	33038.8	32290.5
809.6631	384.7844	33043.75	32302.85
809.8066	386.9726	32955.2	32214.1
809.9501	389.1603	32921.3	32183.35
810.0936	391.3474	32895.85	32106.65
810.2371	393.5339	32862.85	32119.15
810.3806	395.7199	32738.25	31997.6
810.5241	397.9052	32782.15	32041.3
810.6677	400.09	32751.05	32006.6
810.8113	402.2743	32774.35	32028.25
810.9548	404.4579	32759.1	32013.4
811.0984	406.641	32848.1	32099.7
811.2421	408.8235	32909.1	32157.25
811.3857	411.0054	32921.5	32167.6
811.5293	413.1868	33011.65	32256.25
811.673	415.3675	32956	32197.15
811.8166	417.5477	32968.2	32207.45
811.9603	419.7273	32885.3	32121.3
812.104	421.9064	32754.5	31982.4
812.2477	424.0848	32683.7	31919.55
812.3914	426.2627	32576.65	31813
812.5351	428.4399	32522.6	31759.75
812.6788	430.6166	32444.9	31673.4
812.8226	432.7928	32302.1	31530.15
812.9663	434.9683	32157.1	31385.9
813.1101	437.1432	32165.85	31390.85
813.2539	439.3176	32031.35	31262.2
813.3977	441.4914	31943	31172.55
813.5415	443.6645	31950.6	31178.35
813.6853	445.8371	31809.5	31037.5
813.8291	448.0091	31703.8	30932.25
813.973	450.1806	31642.35	30868.75
814.1168	452.3514	31543.3	30766.9
814.2607	454.5216	31570.45	30786.15
814.4046	456.6913	31365.8	30587.6
814.5485	458.8603	31418.85	30642.15
814.6924	461.0288	31450.1	30675.45
814.8363	463.1967	31317.6	30540.55
814.9802	465.3639	31379.65	30602
815.1241	467.5306	31310.95	30531.25
815.2681	469.6967	31226.05	30445.45
815.412	471.8622	31141.8	30362.2
815.556	474.0271	31127.95	30347.5
815.7	476.1914	31111.15	30329.75
815.844	478.3551	31098	30316.75
815.988	480.5182	31165.9	30383.1
816.132	482.6807	31127.55	30344
816.276	484.8426	31172.75	30391.4
816.4201	487.0039	31200.05	30415.45
816.5641	489.1647	31226.05	30443.25
816.7082	491.3248	31286.85	30502.2
816.8522	493.4843	31270.85	30485.25
816.9963	495.6432	31200	30414.95
817.1404	497.8015	31126	30334.4
817.2845	499.9592	31140.15	30352.5
817.4286	502.1163	31067.7	30278.85
817.5727	504.2728	30958.55	30168.4
817.7168	506.4287	31036.5	30247.8
817.861	508.5839	30947.75	30158.9
818.0051	510.7386	30911.55	30123.15
818.1493	512.8927	30915.4	30115.7
818.2935	515.0461	30877.25	30084
818.4377	517.199	30886.4	30094.75
818.5818	519.3512	30842.7	30048.4
818.726	521.5029	30862.3	30062.8
818.8703	523.6539	30894.3	30098.25
819.0145	525.8043	30855.65	30058.35
819.1587	527.9541	30858.65	30061.35
819.303	530.1033	30745.15	29946.55
819.4472	532.2519	30663.4	29863.25
819.5915	534.3999	30666.7	29863.8
819.7357	536.5472	30602.35	29800.85
819.88	538.694	30587.6	29786.5
820.0243	540.8401	30616.45	29814.95
820.1686	542.9856	30646.65	29845.25
820.3129	545.1305	30534.7	29728.45
820.4572	547.2748	30613.6	29811.65
820.6016	549.4185	30588.35	29781.7
820.7459	551.5615	30493.75	29688.2
820.8902	553.704	30573	29767.55
821.0346	555.8458	30406.55	29602.35
821.1789	557.987	30469.75	29665.4
821.3233	560.1276	30426.75	29621.55
821.4677	562.2675	30494.65	29691.95
821.6121	564.4069	30518.55	29712.8
821.7565	566.5456	30468.2	29664.5
821.9009	568.6837	30432.35	29627.2
822.0453	570.8212	30314.3	29510.35
822.1897	572.958	30178.55	29370.75
822.3342	575.0942	30069.75	29265.45
822.4786	577.2299	29967	29161
822.6231	579.3648	29945.75	29139.3
822.7675	581.4992	29789.5	28982.4
822.912	583.6329	29694.45	28884.45
823.0565	585.766	29681.7	28874.6
823.201	587.8985	29627.2	28818.55
823.3454	590.0304	29608.85	28788.2
823.4899	592.1616	29557.95	28746.2
823.6345	594.2922	29488	28675.55
823.779	596.4222	29404.2	28590.85
823.9235	598.5515	29297.85	28483.1
824.068	600.6802	29237.15	28424
824.2126	602.8083	29076.55	28262.05
824.3571	604.9358	29010.55	28193.85
824.5017	607.0626	28998.3	28182.7
824.6462	609.1888	28931.95	28113.85
824.7908	611.3144	28929.1	28112.1
824.9354	613.4393	28861.7	28045.25
825.08	615.5636	28876.1	28059.9
825.2246	617.6873	28894.9	28078.95
825.3692	619.8103	28920.45	28100.2
825.5138	621.9327	28829.9	28008
825.6584	624.0544	28846.85	28027.8
825.803	626.1756	28782.15	27962.75
825.9477	628.2961	28679.15	27858.1
826.0923	630.4159	28620.95	27800.95
826.237	632.5351	28600.35	27776.75
826.3816	634.6537	28566.05	27744.4
826.5263	636.7716	28489.7	27665.1
826.6709	638.8889	28493.4	27671.6
826.8156	641.0056	28513.65	27690.6
826.9603	643.1216	28441.15	27616
827.105	645.237	28528.8	27703.7
827.2497	647.3518	28440.45	27616.95
827.3944	649.4659	28399.95	27576.9
827.5391	651.5793	28370.65	27548.15
827.6838	653.6922	28271.95	27448.2
827.8285	655.8043	28205.55	27381.6
827.9733	657.9159	28217	27392.25
828.118	660.0268	28162.15	27334.75
828.2627	662.137	28084.35	27256.15
828.4075	664.2466	28045.4	27214.35
828.5522	666.3556	28064.45	27240.75
828.697	668.4639	27945.2	27115.8
828.8418	670.5716	28006.3	27178.5
828.9865	672.6786	27954.5	27126.9
829.1313	674.785	27830.25	26998.65
829.2761	676.8907	27765.8	26936.1
829.4209	678.9958	27750.5	26922.35
829.5657	681.1002	27623.25	26791.7
829.7105	683.204	27601.85	26766.15
829.8553	685.3072	27596.15	26763.45
830.0001	687.4097	27565.45	26735.75
830.1449	689.5115	27528.55	26693.9
830.2898	691.6127	27489.4	26659.35
830.4346	693.7132	27453.65	26624.1
830.5794	695.8131	27475.85	26637.75
830.7243	697.9123	27463.95	26630.2
830.8691	700.0109	27409.9	26576.9
831.014	702.1089	27395.95	26562.55
831.1588	704.2061	27365.75	26532.95
831.3037	706.3028	27377.6	26541.2
831.4486	708.3987	27348.85	26513.7
831.5935	710.4941	27270.3	26435.65
831.7383	712.5887	27311.9	26473.8
831.8832	714.6827	27297.7	26458.3
832.0281	716.7761	27242.6	26406.45
832.173	718.8688	27207	26370.05
832.3179	720.9608	27149.45	26309.2
832.4628	723.0522	27137.4	26298.2
832.6077	725.1429	27078.3	26240.45
832.7527	727.233	27089.55	26250.15
832.8976	729.3224	27138.15	26297.3
833.0425	731.4112	27052.9	26213.55
833.1874	733.4993	27055.4	26212.2
833.3324	735.5867	26962.25	26121.8
833.4773	737.6735	26904.2	26062.65
833.6222	739.7596	26782.1	25941.35
833.7672	741.845	26698.95	25856.6
833.9122	743.9298	26649.95	25806.3
834.0571	746.014	26637.4	25797.35
834.2021	748.0974	26604.95	25764
834.347	750.1802	26507.5	25663.95
834.492	752.2624	26412.85	25572.35
834.637	754.3439	26328.1	25482.85
834.782	756.4247	26226.7	25374.3
834.9269	758.5048	26144.5	25303.15
835.0719	760.5843	26146.45	25304.7
835.2169	762.6631	26058.05	25215.25
835.3619	764.7413	26103.6	25260.8
835.5069	766.8188	26108.7	25264.35
835.6519	768.8956	26058.6	25212.65
835.7969	770.9718	26126.4	25282.1
835.9419	773.0473	26000.4	25157.5
836.0869	775.1221	25970	25124
836.232	777.1962	25856.55	25013.5
836.377	779.2697	25847.4	25000.15
836.522	781.3426	25864.45	25000.3
836.667	783.4147	25884.65	25038.1
836.8121	785.4862	25830.55	24986.6
836.9571	787.557	25710.35	24865.25
837.1021	789.6271	25616.4	24770.6
837.2472	791.6966	25454.05	24607.3
837.3922	793.7654	25310.85	24462.9
837.5373	795.8335	25294.8	24449.15
837.6823	797.901	25190.6	24345.85
837.8274	799.9678	25190.55	24342.1
837.9724	802.0339	25052.3	24205.05
838.1175	804.0993	25082.6	24225.9
838.2626	806.1641	24970.5	24122.45
838.4076	808.2282	24930.85	24083.1
838.5527	810.2916	24888.3	24039.55
838.6978	812.3544	24885.55	24039.6
838.8428	814.4164	24805	23957.5
838.9879	816.4778	24837.65	23987.95
839.133	818.5385	24767	23919
839.2781	820.5986	24804.55	23954.95
839.4232	822.658	24787.55	23936.25
839.5682	824.7166	24769.95	23922.4
839.7133	826.7747	24861	24012.25
839.8584	828.832	24893	24043.95
840.0035	830.8886	24799.6	23946.55
840.1486	832.9446	24778.8	23925.85
840.2937	834.9999	24709.25	23860.85
840.4388	837.0545	24651	23797.05
840.5839	839.1085	24544.45	23692.3
840.729	841.1618	24486.85	23629.55
840.8741	843.2143	24400.15	23548.2
841.0192	845.2662	24266.85	23414.95
841.1643	847.3175	24250.6	23398.05
841.3095	849.368	24201.2	23351.2
841.4546	851.4179	24174.2	23323.55
841.5997	853.467	24044.55	23193.4
841.7448	855.5155	23993.5	23141.5
841.8899	857.5633	23990.7	23138.95
842.0351	859.6105	23931.95	23078.8
842.1802	861.6569	23906.75	23056.15
842.3253	863.7027	23839	22984.25
842.4704	865.7478	23809.25	22955
842.6156	867.7922	23788.75	22936.25
842.7607	869.8359	23746	22893.55
842.9058	871.8789	23747	22892.9
843.0509	873.9212	23722.45	22837.3
843.1961	875.9629	23628.75	22774.6
843.3412	878.0039	23652.6	22796.35
843.4863	880.0441	23594.8	22740.15
843.6315	882.0837	23631.8	22777.1
843.7766	884.1226	23615.05	22757.2
843.9218	886.1609	23607.5	22752.55
844.0669	888.1984	23637.65	22782.15
844.212	890.2352	23699.75	22844.15
844.3572	892.2714	23664.75	22804.15
844.5023	894.3069	23611.45	22754.8
844.6475	896.3416	23519.2	22660
844.7926	898.3757	23444.5	22586.5
844.9377	900.4091	23451.2	22593.7
845.0829	902.4418	23363.75	22502.45
845.228	904.4739	23285.3	22426.4
845.3732	906.5052	23271	22412.4
845.5183	908.5358	23248.3	22392.6
845.6635	910.5658	23172.55	22313.8
845.8086	912.595	23122.95	22265.7
845.9538	914.6236	23041.95	22185.9
846.0989	916.6515	23020.45	22161.2
846.2441	918.6786	22943.8	22083.45
846.3892	920.7051	22940.45	22082.2
846.5344	922.7309	22912.5	22055.25
846.6795	924.756	22824.45	21964.55
846.8246	926.7804	22820.35	21958.95
846.9698	928.8041	22682.6	21819.55
847.1149	930.8272	22707.15	21846.75
847.2601	932.8495	22597.2	21736.8
847.4052	934.8711	22590.45	21730.65
847.5504	936.892	22520.75	21659.5
847.6955	938.9123	22450.9	21590.25
847.8407	940.9318	22454.45	21595.25
847.9858	942.9506	22390.6	21530.4
848.131	944.9688	22255.55	21395.7
848.2761	946.9862	22223.4	21361.95
848.4213	949.003	22120.4	21258.4
848.5664	951.019	22080.4	21218.8
848.7115	953.0344	21981.55	21118.8
848.8567	955.0491	21928.85	21066.65
849.0018	957.063	21950.35	21087.7
849.147	959.0763	21989.45	21128.1
849.2921	961.0888	21864.95	21002.45
849.4373	963.1007	21890.75	21030.65
849.5824	965.1119	21855.7	20994.15
849.7275	967.1223	21807.8	20946.85
849.8727	969.1321	21747.65	20887.55
850.0178	971.1412	21764.35	20902.9
850.1629	973.1495	21655.8	20793.8
850.3081	975.1572	21721.45	20813.85
850.4532	977.1641	21659.95	20798.2
850.5983	979.1704	21579.3	20714.85
850.7435	981.1759	21525.15	20659.15
850.8886	983.1808	21484.55	20619.05
851.0337	985.1849	21415.15	20547.75
851.1788	987.1884	21382.2	20515.8
851.324	989.1911	21345.5	20479.15
851.4691	991.1932	21291.7	20427.55
851.6142	993.1945	21225.8	20362.35
851.7593	995.1951	21119.55	20257.15
851.9045	997.1951	21146.35	20277.85
852.0496	999.1943	21043.25	20180.4
852.1947	1001.1928	20961.65	20098.2
852.3398	1003.1906	20867.7	20004.1
852.4849	1005.1877	20866.75	20002.3
852.63	1007.1841	20810.7	19947.15
852.7751	1009.1798	20773.45	19908.65
852.9202	1011.1748	20688.8	19825
853.0653	1013.1691	20668	19801.85
853.2104	1015.1627	20507.55	19643
853.3555	1017.1556	20381.8	19516.2
853.5006	1019.1477	20348.3	19480.7
853.6457	1021.1392	20211.2	19348.9
853.7908	1023.1299	20168.7	19303.95
853.9359	1025.12	20083.65	19218.25
854.081	1027.1093	19976.4	19113.75
854.2261	1029.0979	19974.3	19111.85
854.3712	1031.0859	19902.35	19039.35
854.5163	1033.0731	19829	18963.6
854.6613	1035.0596	19800.6	18936.1
854.8064	1037.0454	19699.75	18832.85
854.9515	1039.0304	19662.2	18794.15
855.0965	1041.0148	19577.85	18713.1
855.2416	1042.9985	19534.8	18667
855.3867	1044.9814	19527.4	18660.75
855.5317	1046.9636	19392.55	18523.15
855.6768	1048.9452	19349.55	18483.9
855.8219	1050.926	19351.8	18485.6
855.9669	1052.9061	19288.85	18424.8
856.112	1054.8855	19232	18365.4
856.257	1056.8642	19209.95	18341.85
856.4021	1058.8421	19215.05	18341.7
856.5471	1060.8194	19131.6	18263.15
856.6921	1062.7959	19099.55	18231.4
856.8372	1064.7717	19071.8	18205.1
856.9822	1066.7469	19015.25	18148.6
857.1272	1068.7213	19012.5	18143.4
857.2723	1070.695	18974.1	18106.5
857.4173	1072.6679	18920.85	18053.65
857.5623	1074.6402	18943.4	18076.6
857.7073	1076.6117	18935.9	18063.95
857.8523	1078.5826	18910.9	18042.85
857.9973	1080.5527	18805.35	17935.45
858.1423	1082.5221	18685.15	17816.95
858.2873	1084.4908	18667.25	17797.9
858.4323	1086.4587	18621.7	17750.65
858.5773	1088.426	18586.1	17718.15
858.7223	1090.3925	18511.5	17639.1
858.8673	1092.3584	18501.3	17632.35
859.0123	1094.3235	18435.9	17567.9
859.1573	1096.2879	18379.95	17512
859.3022	1098.2515	18396.65	17528.9
859.4472	1100.2145	18399.55	17530.2
859.5922	1102.1767	18374	17502.25
859.7371	1104.1382	18370.95	17502.5
859.8821	1106.099	18376.7	17505.25
860.027	1108.0591	18362.6	17492.65
860.172	1110.0185	18337.35	17468.2
860.3169	1111.9771	18375.75	17507.4
860.4619	1113.9351	18340	17471.7
860.6068	1115.8923	18314.65	17444
860.7517	1117.8488	18297.2	17427
860.8967	1119.8045	18193.15	17322.8
861.0416	1121.7596	18097.15	17226.5
861.1865	1123.7139	17989.05	17119.85
861.3314	1125.6675	17908.6	17039
861.4763	1127.6204	17896.45	17026.75
861.6212	1129.5726	17853.05	16980.75
861.7661	1131.524	17799.6	16932.3
861.911	1133.4748	17811.35	16939.3
862.0559	1135.4248	17705.95	16833.35
862.2008	1137.3741	17638.7	16768.05
862.3457	1139.3226	17572.95	16701
862.4905	1141.2705	17560.5	16689.4
862.6354	1143.2176	17490.95	16613.45
862.7803	1145.164	17474.2	16601.15
862.9251	1147.1097	17445.05	16574.1
863.07	1149.0546	17425.2	16553.6
863.2148	1150.9989	17364.15	16493.65
863.3597	1152.9424	17360.55	16489.05
863.5045	1154.8852	17290.4	16418.75
863.6493	1156.8272	17275.7	16404.15
863.7942	1158.7686	17309.35	16430.8
863.939	1160.7092	17226.3	16355.4
864.0838	1162.6491	17194.85	16319.25
864.2286	1164.5883	17171.45	16300.2
864.3734	1166.5267	17121.95	16249.15
864.5182	1168.4644	17134.05	16262.85
864.663	1170.4014	17141.05	16264.25
864.8078	1172.3377	17184.7	16313.3
864.9526	1174.2732	17172.3	16301.6
865.0974	1176.2081	17229.55	16359.45
865.2421	1178.1421	17277.65	16401.7
865.3869	1180.0755	17396.35	16526.3
865.5317	1182.0082	17361.05	16486.25
865.6764	1183.9401	17343.95	16473.8
865.8212	1185.8713	17235.35	16363.1
865.9659	1187.8017	17112.5	16241.35
866.1106	1189.7315	17012.65	16140.3
866.2554	1191.6605	16818.55	15948.55
866.4001	1193.5888	16746.5	15875.65
866.5448	1195.5163	16670.25	15799
866.6895	1197.4432	16612.6	15738.05
866.8342	1199.3693	16564.1	15692.6
866.9789	1201.2947	16476.45	15601.05
867.1236	1203.2193	16416.55	15544.15
867.2683	1205.1432	16402.9	15530.7
867.413	1207.0664	16312.85	15438.15
867.5576	1208.9889	16303	15426.1
867.7023	1210.9106	16274.65	15401.65
867.847	1212.8316	16185.95	15315.45
867.9916	1214.7519	16199.85	15317.75
868.1363	1216.6715	16138.6	15265.15
868.2809	1218.5903	16151.1	15279.15
868.4255	1220.5084	16097.5	15224.6
868.5701	1222.4257	16089.55	15215.45
868.7148	1224.3424	16045.8	15173.9
868.8594	1226.2583	16037.45	15158.55
869.004	1228.1735	16020.65	15149.5
869.1486	1230.0879	15991.3	15116.3
869.2932	1232.0016	15983.5	15108.4
869.4377	1233.9146	15963.55	15089.85
869.5823	1235.8269	15940.2	15066.25
869.7269	1237.7384	15953	15080.5
869.8715	1239.6492	15886.65	15013.4
870.016	1241.5592	15916	15043.15
870.1606	1243.4686	15863.65	14990.95
870.3051	1245.3772	15923.85	15050
870.4496	1247.285	15925.9	15051
870.5941	1249.1922	15961.15	15086.35
870.7387	1251.0986	16005.55	15133.2
870.8832	1253.0042	16003.4	15128.9
871.0277	1254.9092	16056.35	15182.6
871.1722	1256.8134	16127.9	15256.35
871.3167	1258.7169	16199.55	15323.7
871.4611	1260.6196	16173.05	15299.35
871.6056	1262.5216	16193.75	15317.15
871.7501	1264.4229	16126.85	15253.3
871.8945	1266.3234	16119.35	15246
872.039	1268.2232	16029.9	15155.75
872.1834	1270.1223	15965.2	15090.15
872.3278	1272.0207	15905.15	15031.1
872.4723	1273.9183	15862.6	14982
872.6167	1275.8151	15831.8	14957.9
872.7611	1277.7113	15839.85	14961.5
872.9055	1279.6067	15870.75	14995.5
873.0499	1281.5014	15963.15	15086.9
873.1943	1283.3953	16127.85	15249.55
873.3386	1285.2885	16278.2	15404.4
873.483	1287.181	16361.3	15484.7
873.6274	1289.0727	16445.95	15570.05
873.7717	1290.9637	16353.55	15479.15
873.9161	1292.854	16276.1	15402
874.0604	1294.7435	16130.35	15257.15
874.2047	1296.6323	16004.2	15129.4
874.349	1298.5204	15927.05	15047.7
874.4933	1300.4077	15832.6	14955.45
874.6376	1302.2943	15778.25	14903.75
874.7819	1304.1802	15773.7	14898.7
874.9262	1306.0653	15696.75	14818.6
875.0705	1307.9497	15639.95	14764.5
875.2147	1309.8333	15596	14720.65
875.359	1311.7162	15563.95	14689.25
875.5032	1313.5984	15552	14674.25
875.6475	1315.4798	15463.7	14587.35
875.7917	1317.3605	15420.8	14539.5
875.9359	1319.2405	15429	14551.9
876.0801	1321.1197	15410.4	14532.95
876.2243	1322.9982	15334.25	14453.75
876.3685	1324.876	15257.55	14382.55
876.5127	1326.753	15157.9	14280.4
876.6569	1328.6293	15072.95	14197.85
876.801	1330.5048	15004.15	14126.45
876.9452	1332.3796	14902.7	14026.55
877.0893	1334.2537	14860.85	13958.75
877.2335	1336.127	14743.15	13867.7
877.3776	1337.9996	14716.25	13839.85
877.5217	1339.8714	14667.85	13789.9
877.6658	1341.7426	14660.4	13740.05
877.8099	1343.6129	14599.65	13723.9
877.954	1345.4826	14574.6	13696.25
878.0981	1347.3515	14601.35	13722.35
878.2422	1349.2196	14520.2	13645.05
878.3862	1351.087	14505.75	13629.65
878.5303	1352.9537	14499.1	13619.9
878.6743	1354.8197	14514.5	13638.35
878.8184	1356.6849	14489.85	13614.2
878.9624	1358.5493	14448.25	13572.8
879.1064	1360.4131	14445.9	13571.3
879.2504	1362.276	14442.55	13567.75
879.3944	1364.1383	14481.4	13605.1
879.5384	1365.9998	14435	13553.85
879.6823	1367.8606	14410.8	13534.5
879.8263	1369.7206	14374	13496.75
879.9702	1371.5799	14336.15	13457.9
880.1142	1373.4384	14304.85	13426.3
880.2581	1375.2962	14298.75	13421.8
880.402	1377.1533	14184.85	13308.85
880.5459	1379.0096	14058.85	13182.7
880.6898	1380.8652	14013.15	13136.1
880.8337	1382.7201	13976.95	13098.75
880.9776	1384.5742	13857.75	12979.75
881.1215	1386.4275	13814.75	12936.7
881.2653	1388.2802	13781.15	12906.05
881.4092	1390.132	13670.25	12795.7
881.553	1391.9832	13653.65	12774.75
881.6968	1393.8336	13595.95	12718.75
881.8406	1395.6832	13554.65	12677.8
881.9844	1397.5322	13495.9	12619.35
882.1282	1399.3803	13491.1	12610.35
882.272	1401.2278	13392.45	12513.05
882.4158	1403.0745	13387.75	12511.45
882.5595	1404.9204	13308	12432.85
882.7033	1406.7656	13302.65	12425.35
882.847	1408.6101	13234.25	12356.6
882.9908	1410.4538	13188.4	12312
883.1345	1412.2968	13147.8	12270.75
883.2782	1414.139	13109.5	12232.25
883.4219	1415.9805	13115.85	12238.85
883.5656	1417.8213	13081.45	12185.35
883.7092	1419.6613	13022	12147.85
883.8529	1421.5006	13026.7	12147.3
883.9965	1423.3391	13029.9	12154.1
884.1402	1425.1769	13025.95	12146.65
884.2838	1427.0139	13081.85	12204.25
884.4274	1428.8502	13099.1	12222.1
884.571	1430.6858	13165.35	12285.75
884.7146	1432.5206	13133.7	12256.75
884.8582	1434.3547	13100.85	12222.05
885.0018	1436.188	13081.85	12206.3
885.1453	1438.0206	13065.7	12187.85
885.2889	1439.8524	13037.45	12160.5
885.4324	1441.6835	13001.8	12124.15
885.5759	1443.5139	12935.2	12055.7
885.7194	1445.3435	12917.6	12040.9
885.8629	1447.1724	12949.85	12072.5
886.0064	1449.0005	12899.2	12021.4
886.1499	1450.8279	12903.95	12026.8
886.2933	1452.6545	12886	12009
886.4368	1454.4804	12845.3	11968.1
886.5802	1456.3056	12824.75	11942.1
886.7237	1458.13	12788.35	11911.05
886.8671	1459.9536	12749.2	11871.1
887.0105	1461.7766	12708	11830.35
887.1539	1463.5987	12659.2	11781.7
887.2972	1465.4202	12615.1	11736.55
887.4406	1467.2409	12525	11646.1
887.584	1469.0608	12520.9	11644
887.7273	1470.88	12440	11562.35
887.8706	1472.6984	12410.9	11533.95
888.0139	1474.5161	12339.8	11460.1
888.1572	1476.3331	12308.65	11431.85
888.3005	1478.1493	12282.8	11403.85
888.4438	1479.9648	12246.25	11367.1
888.5871	1481.7795	12229	11352.15
888.7303	1483.5935	12230.1	11352.45
888.8736	1485.4067	12201.7	11325.45
889.0168	1487.2192	12219.95	11342
889.16	1489.031	12176.65	11294.9
889.3032	1490.842	12137.25	11259.15
889.4464	1492.6522	12121.9	11244.9
889.5896	1494.4618	12092.8	11213.6
889.7327	1496.2705	12091.55	11215
889.8759	1498.0785	12038.5	11159.6
890.019	1499.8858	12007.35	11129.85
890.1622	1501.6924	11986.2	11111.6
890.3053	1503.4981	11974.9	11098.4
890.4484	1505.3032	11958.65	11080.7
890.5914	1507.1075	11898.3	11021.65
890.7345	1508.911	11884.9	11004.7
890.8776	1510.7138	11864.5	10985.65
891.0206	1512.5159	11801.75	10922.95
891.1637	1514.3172	11769.95	10891.8
891.3067	1516.1178	11720.4	10844.2
891.4497	1517.9176	11691.2	10809.6
891.5927	1519.7166	11634.35	10758.35
891.7357	1521.515	11640.95	10757.4
891.8786	1523.3126	11618.75	10740.75
892.0216	1525.1094	11575.25	10694.7
892.1645	1526.9055	11532.55	10655.4
892.3074	1528.7008	11472.75	10594.15
892.4503	1530.4954	11394.55	10513.95
892.5932	1532.2893	11397.9	10522
892.7361	1534.0824	11343.3	10461.95
892.879	1535.8747	11305.2	10428.45
893.0218	1537.6663	11293.3	10415.35
893.1647	1539.4572	11229.65	10349.8
893.3075	1541.2473	11220.1	10340.5
893.4503	1543.0367	11164.45	10286.9
893.5931	1544.8253	11153.1	10271.3
893.7359	1546.6132	11120	10241.2
893.8787	1548.4003	11083.5	10194.05
894.0214	1550.1867	11074.3	10188.3
894.1642	1551.9723	11066.05	10184.55
894.3069	1553.7572	11038.1	10159.8
894.4496	1555.5414	10978.4	10102.7
894.5923	1557.3247	10979.85	10099
894.735	1559.1074	10983.8	10106.15
894.8777	1560.8893	11011.95	10136.35
895.0204	1562.6705	10968.5	10089.95
895.163	1564.4509	11001.85	10127
895.3056	1566.2305	10988.1	10110.15
895.4482	1568.0094	10982.25	10106.1
895.5908	1569.7876	10952.1	10074.65
895.7334	1571.565	10913.35	10036.4
895.876	1573.3417	10879.2	10003.15
896.0186	1575.1176	10866.65	9988.6
896.1611	1576.8928	10847.3	9969.5
896.3036	1578.6672	10851.45	9975.8
896.4461	1580.4409	10834.9	9957.6
896.5886	1582.2138	10813.15	9934.75
896.7311	1583.986	10796.45	9918.45
896.8736	1585.7575	10824.7	9948.45
897.0161	1587.5282	10837.6	9962.7
897.1585	1589.2981	10827.05	9949.9
897.3009	1591.0673	10808.85	9933.15
897.4433	1592.8358	10799.4	9923.05
897.5857	1594.6035	10790.5	9909.7
897.7281	1596.3704	10715.3	9836.65
897.8705	1598.1366	10678	9802.6
898.0128	1599.9021	10641.1	9762.55
898.1551	1601.6668	10566.75	9689.1
898.2975	1603.4308	10496.65	9619.4
898.4398	1605.194	10509.75	9627.75
898.5821	1606.9564	10471.8	9594.85
898.7243	1608.7182	10477.35	9595.4
898.8666	1610.4791	10531.2	9654.1
899.0088	1612.2394	10568.85	9690.8
899.1511	1613.9988	10640.05	9760.4
899.2933	1615.7576	10700.3	9824.6
899.4355	1617.5156	10723.95	9841.1
899.5776	1619.2728	10680.45	9803.75
899.7198	1621.0293	10601.2	9723.15
899.862	1622.785	10484.05	9602.65
900.0041	1624.54	10305.5	9425.7
900.1462	1626.2942	10184.2	9307.05
900.2883	1628.0477	10050	9168.5
900.4304	1629.8005	9955.45	9073.7
900.5725	1631.5525	9856.65	8979.3
900.7145	1633.3037	9759.15	8880.9
900.8566	1635.0542	9698.05	8819.5
900.9986	1636.804	9658.1	8780.95
901.1406	1638.553	9680.05	8712.8
901.2826	1640.3013	9546.4	8670.1
901.4245	1642.0488	9488.35	8609.95
901.5665	1643.7955	9465.7	8589.6
901.7085	1645.5416	9397.25	8518.75
901.8504	1647.2868	9391.9	8513.85
901.9923	1649.0313	9330.1	8453.1
902.1342	1650.7751	9331	8449.75
902.2761	1652.5181	9296.1	8418.45
902.4179	1654.2604	9240	8362.05
902.5598	1656.0019	9222.7	8345.1
902.7016	1657.7427	9203.7	8327.35
902.8434	1659.4828	9227.9	8350.1
902.9852	1661.222	9202.5	8323.75
903.127	1662.9606	9202.4	8326.1
903.2687	1664.6984	9223.4	8345.75
903.4105	1666.4354	9227.1	8349.65
903.5522	1668.1717	9181.15	8302.2
903.6939	1669.9072	9088.45	8211.2
903.8356	1671.642	9035.85	8155.6
903.9773	1673.3761	8978.55	8102.65
904.119	1675.1094	8915.65	8040.2
904.2606	1676.8419	8851	7973.95
904.4022	1678.5737	8806.25	7928.7
904.5439	1680.3048	8764.9	7886.05
904.6855	1682.0351	8726.8	7848.95
904.827	1683.7646	8670.8	7792.55
904.9686	1685.4934	8649	7772.1
905.1101	1687.2215	8634.2	7756.7
905.2517	1688.9488	8568.9	7691.5
905.3932	1690.6754	8542.05	7664.25
905.5347	1692.4012	8529.35	7651.8
905.6761	1694.1263	8493.05	7615.35
905.8176	1695.8506	8464.9	7585.95
905.9591	1697.5742	8444.4	7569
906.1005	1699.297	8415	7536.95
906.2419	1701.0191	8364	7487.35
906.3833	1702.7404	8337.45	7461.95
906.5246	1704.461	8319.75	7440.7
906.666	1706.1808	8250.85	7372.9
906.8073	1707.8999	8222.25	7343.65
906.9487	1709.6182	8216.75	7337.65
907.09	1711.3358	8184.65	7306.85
907.2313	1713.0527	8167.85	7292.55
907.3725	1714.7688	8135.9	7254.65
907.5138	1716.4841	8106.1	7226.75
907.655	1718.1987	8123.3	7242.3
907.7962	1719.9126	8073.45	7197.15
907.9374	1721.6257	8053.35	7172.35
908.0786	1723.338	8025.95	7149.25
908.2198	1725.0496	7992.95	7113.95
908.3609	1726.7605	7985.4	7108.35
908.502	1728.4706	7976.3	7097.35
908.6431	1730.18	7917.4	7039.3
908.7842	1731.8886	7921	7044.55
908.9253	1733.5964	7941.05	7042
909.0664	1735.3036	7917.35	7038.05
909.2074	1737.0099	7887.2	7008.35
909.3484	1738.7156	7879.9	7003.55
909.4894	1740.4204	7834.55	6953.45
909.6304	1742.1246	7825.2	6946
909.7714	1743.8279	7819.8	6944.9
909.9123	1745.5306	7808.75	6930.45
910.0532	1747.2325	7789.4	6910.35
910.1941	1748.9336	7765.9	6888.15
910.335	1750.634	7735.15	6856.35
910.4759	1752.3336	7726.6	6849.45
910.6168	1754.0325	7715.75	6840
910.7576	1755.7307	7718.4	6840.85
910.8984	1757.4281	7715.3	6838.25
911.0392	1759.1247	7716	6830.55
911.18	1760.8206	7687.25	6804.65
911.3208	1762.5158	7688.65	6805.85
911.4615	1764.2102	7634.75	6756.55
911.6022	1765.9039	7629.35	6749.4
911.7429	1767.5968	7619.9	6742.1
911.8836	1769.289	7590.8	6712.65
912.0243	1770.9804	7572.45	6695.5
912.1649	1772.6711	7572.1	6694.25
912.3056	1774.361	7570.35	6691.05
912.4462	1776.0502	7526.95	6649.2
912.5868	1777.7386	7537.85	6656.9
912.7274	1779.4263	7522.5	6643.95
912.8679	1781.1132	7508.65	6631.1
913.0084	1782.7994	7467.65	6589.6
913.149	1784.4849	7456.6	6580.75
913.2895	1786.1696	7468.05	6571.25
913.4299	1787.8535	7440.35	6562.95
913.5704	1789.5367	7384.25	6505.9
913.7108	1791.2192	7396.2	6518.7
913.8513	1792.9009	7372.8	6474.7
913.9917	1794.5818	7367.6	6489.25
914.132	1796.2621	7339	6460.85
914.2724	1797.9415	7312	6433.2
914.4128	1799.6202	7320.35	6440.85
914.5531	1801.2982	7294.4	6415.7
914.6934	1802.9755	7297.25	6418.4
914.8337	1804.6519	7246.05	6370.35
914.9739	1806.3277	7215.3	6338.25
915.1142	1808.0027	7201.3	6325.55
915.2544	1809.6769	7228.1	6352.2
915.3946	1811.3504	7192.4	6314.8
915.5348	1813.0231	7197.95	6319.25
915.675	1814.6951	7169.25	6293.35
915.8151	1816.3664	7169.5	6288.85
915.9553	1818.0369	7143.2	6265.9
916.0954	1819.7067	7124.2	6245.85
916.2355	1821.3757	7114.9	6235.55
916.3755	1823.044	7105.85	6227.45
916.5156	1824.7115	7092.65	6214.35
916.6556	1826.3783	7049.2	6173
916.7956	1828.0443	7042.75	6165.4
916.9356	1829.7096	7017.5	6138.8
917.0756	1831.3741	7029.7	6150.3
917.2155	1833.0379	6998.85	6121.7
917.3555	1834.701	6994	6115.25
917.4954	1836.3633	6970.15	6093.2
917.6353	1838.0248	6954.7	6074.9
917.7751	1839.6856	6929.5	6054.15
917.915	1841.3457	6947.15	6070.9
918.0548	1843.005	6909.25	6031.9
918.1946	1844.6636	6901.8	6024.9
918.3344	1846.3214	6891.4	6013.75
918.4742	1847.9785	6870.7	5993.3
918.6139	1849.6349	6874.35	5997.6
918.7537	1851.2904	6862.9	5974.95
918.8934	1852.9453	6854.9	5978.6
919.0331	1854.5994	6836.2	5954.95
919.1727	1856.2528	6839.95	5957.9
919.3124	1857.9054	6780.65	5899.5
919.452	1859.5572	6785.2	5909.2
919.5916	1861.2083	6759.35	5879.85
919.7312	1862.8587	6773.35	5897.55
919.8708	1864.5084	6743	5863.3
920.0103	1866.1572	6738.4	5861.3
920.1498	1867.8054	6715.15	5839.55
920.2893	1869.4528	6709.4	5830.45
920.4288	1871.0994	6674.75	5796.8
920.5683	1872.7453	6681.4	5800.65
920.7077	1874.3905	6660.95	5774.55
920.8471	1876.0349	6644.15	5765.95
920.9865	1877.6786	6664.6	5785.55
921.1259	1879.3215	6635.55	5758.1
921.2653	1880.9637	6619.35	5738.95
921.4046	1882.6051	6613.35	5737.55
921.5439	1884.2458	6592.25	5714.25
921.6832	1885.8858	6567.75	5690.55
921.8225	1887.525	6554.1	5675.35
921.9617	1889.1634	6536.5	5661.6
922.101	1890.8011	6536.75	5658.75
922.2402	1892.4381	6507.1	5630.65
922.3794	1894.0743	6500.8	5622.7
922.5185	1895.7098	6487.1	5610.3
922.6577	1897.3446	6474.2	5594.85
922.7968	1898.9786	6461.4	5578.2
922.9359	1900.6118	6464.9	5589.6
923.075	1902.2443	6423.15	5542.6
923.214	1903.8761	6418.1	5541.2
923.3531	1905.5071	6403.1	5523.45
923.4921	1907.1374	6352.2	5474.2
923.6311	1908.7669	6364.75	5486.25
923.77	1910.3957	6347	5469.45
923.909	1912.0237	6322.9	5445.4
924.0479	1913.651	6313.15	5433.95
924.1868	1915.2776	6301.7	5424.15
924.3257	1916.9034	6241.5	5365.95
924.4646	1918.5285	6244.05	5367.65
924.6034	1920.1528	6216.95	5339.7
924.7422	1921.7764	6224	5344.25
924.881	1923.3992	6203.9	5327
925.0198	1925.0213	6163.65	5287.05
925.1586	1926.6427	6151.15	5274.65
925.2973	1928.2633	6313.65	5221
925.436	1929.8832	6157.7	5274.25
925.5747	1931.5023	6118.15	5242.15
925.7134	1933.1207	6089.65	5209.7
925.852	1934.7383	6103.6	5224.45
925.9906	1936.3552	6076.9	5199.85
926.1292	1937.9714	6078.9	5200.8
926.2678	1939.5868	6043.2	5163.5
926.4064	1941.2015	6019.15	5141.25
926.5449	1942.8154	5994	5115.05
926.6834	1944.4286	5986.5	5107.1
926.8219	1946.041	5969.9	5069.2
926.9604	1947.6528	5944.25	5064.65
927.0988	1949.2637	5922.75	5043.1
927.2372	1950.8739	5882.4	5002.4
927.3756	1952.4834	5908.15	5030.55
927.514	1954.0921	5887.9	5009.1
927.6523	1955.7001	5871.15	4987.65
927.7907	1957.3074	5866.3	4987.95
927.929	1958.9139	5842.15	4964.6
928.0673	1960.5197	5838.15	4959.1
928.2055	1962.1247	5810.5	4935.3
928.3438	1963.729	5798.15	4922.85
928.482	1965.3325	5785.95	4885.4
928.6202	1966.9353	5768.7	4891.1
928.7584	1968.5374	5741.4	4863.7
928.8965	1970.1387	5719.5	4841.15
929.0346	1971.7393	5710.95	4830.9
929.1727	1973.3392	5713.25	4835.95
929.3108	1974.9383	5700.45	4823.3
929.4489	1976.5366	5661.45	4782.75
929.5869	1978.1342	5661.65	4783.05
929.7249	1979.7311	5661.55	4784.05
929.8629	1981.3273	5629.15	4752.4
930.0009	1982.9227	5616.3	4738
930.1388	1984.5173	5619.3	4741.1
930.2767	1986.1112	5597.85	4721.2
930.4146	1987.7044	5575.5	4696.75
930.5525	1989.2968	5562.3	4682.4
930.6904	1990.8885	5565.85	4686
930.8282	1992.4795	5560.05	4679.85
930.966	1994.0697	5527.9	4651.35
931.1038	1995.6592	5517.8	4641.3
931.2415	1997.2479	5503.6	4627.4
931.3793	1998.8359	5493.45	4617.5
931.517	2000.4232	5463.8	4586.75
931.6547	2002.0097	5468.95	4596.45
931.7923	2003.5955	5454.75	4578.1
931.93	2005.1805	5433.3	4553.85
932.0676	2006.7648	5432.2	4553.9
932.2052	2008.3484	5409.95	4532.95
932.3427	2009.9312	5422.75	4543.2
932.4803	2011.5133	5402.15	4527.15
932.6178	2013.0946	5394.9	4517.55
932.7553	2014.6752	5380.95	4505.8
932.8928	2016.2551	5374.25	4497.4
933.0302	2017.8342	5360.15	4482.95
933.1676	2019.4126	5328.8	4454.1
933.305	2020.9902	5321.1	4444.6
933.4424	2022.5672	5313.05	4435.35
933.5798	2024.1433	5305.05	4422.8
933.7171	2025.7188	5290.35	4414.05
933.8544	2027.2935	5262.3	4384.35
933.9917	2028.8674	5274.65	4398.55
934.129	2030.4406	5265.6	4390.85
934.2662	2032.0131	5230.8	4354.05
934.4034	2033.5849	5219.75	4338.85
934.5406	2035.1559	5210.4	4334.95
934.6778	2036.7261	5219.65	4344.95
934.8149	2038.2957	5208.8	4331.45
934.952	2039.8645	5209.35	4332.3
935.0891	2041.4325	5209.85	4330.45
935.2262	2042.9998	5189.7	4314.65
935.3632	2044.5664	5180.5	4302.3
935.5002	2046.1323	5166.25	4291.1
935.6372	2047.6974	5147.15	4271.75
935.7742	2049.2617	5159.15	4281.7
935.9111	2050.8254	5154.75	4254.25
936.048	2052.3883	5131.45	4253.65
936.1849	2053.9504	5110	4230
936.3218	2055.5118	5118.15	4239.9
936.4586	2057.0725	5092.15	4207.8
936.5955	2058.6325	5073.15	4196.55
936.7323	2060.1917	5075.7	4197.95
936.869	2061.7502	5081.7	4202.05
937.0058	2063.3079	5080.05	4201.55
937.1425	2064.8649	5058.9	4177.05
937.2792	2066.4212	5038.15	4161.6
937.4159	2067.9767	5038.8	4161.75
937.5525	2069.5315	5010.65	4133.45
937.6891	2071.0856	4994.55	4116.45
937.8257	2072.6389	4987.75	4109.65
937.9623	2074.1915	4964.65	4088.7
938.0989	2075.7433	4954	4075.95
938.2354	2077.2945	4928.5	4052.55
938.3719	2078.8448	4937.5	4061.15
938.5084	2080.3945	4936.2	4060.75
938.6448	2081.9434	4909.95	4033.1
938.7812	2083.4916	4900.95	4023.3
938.9176	2085.039	4903.95	4024.75
939.054	2086.5857	4897.55	4018.6
939.1903	2088.1317	4904.15	4027.9
939.3267	2089.677	4867.3	3989.45
939.463	2091.2215	4870.05	3993.25
939.5992	2092.7652	4850.75	3969.45
939.7355	2094.3083	4854.7	3978
939.8717	2095.8506	4862.6	3986.2
940.0079	2097.3921	4854	3978.65
940.1441	2098.933	4850.5	3974.95
940.2802	2100.4731	4839.85	3963.45
940.4163	2102.0124	4857.7	3961.2
940.5524	2103.5511	4819.5	3943.7
940.6885	2105.089	4810.7	3932.55
940.8245	2106.6261	4807	3929.9
940.9606	2108.1626	4801.7	3922.5
941.0965	2109.6983	4817.45	3912.55
941.2325	2111.2332	4779.7	3902.7
941.3684	2112.7675	4776.55	3899.25
941.5044	2114.301	4756.65	3879.3
941.6403	2115.8337	4740.35	3864.85
941.7761	2117.3657	4741.3	3865.95
941.912	2118.897	4738.35	3860.15
942.0478	2120.4276	4722.05	3837.5
942.1835	2121.9575	4710.3	3833.65
942.3193	2123.4866	4714.35	3835.35
942.455	2125.0149	4717.95	3837.7
942.5907	2126.5426	4676.85	3798.95
942.7264	2128.0695	4695.25	3814.3
942.8621	2129.5956	4671.15	3795.05
942.9977	2131.1211	4665.5	3784.95
943.1333	2132.6458	4667.1	3790.8
943.2689	2134.1698	4667.45	3790.65
943.4044	2135.693	4644.6	3764.6
943.54	2137.2155	4624.2	3745.95
943.6755	2138.7373	4622.15	3746.35
943.8109	2140.2584	4631.9	3754.5
943.9464	2141.7787	4605.55	3723.2
944.0818	2143.2983	4586.05	3710.35
944.2172	2144.8171	4570.95	3696.55
944.3526	2146.3353	4573.95	3694.95
944.4879	2147.8527	4541.05	3665
944.6232	2149.3693	4563.7	3685.25
944.7585	2150.8853	4538.1	3662.95
944.8938	2152.4005	4534.9	3655.8
945.029	2153.9149	4522.65	3645.35
945.1642	2155.4287	4509.15	3631.3
945.2994	2156.9417	4506	3628.6
945.4346	2158.454	4495.85	3616.75
945.5697	2159.9655	4481.9	3606.55
945.7048	2161.4764	4483.3	3608
945.8399	2162.9865	4456.4	3578.85
945.9749	2164.4958	4462.4	3584.55
946.1099	2166.0045	4437.4	3556.65
946.2449	2167.5124	4442.5	3565.65
946.3799	2169.0195	4435.3	3557.65
946.5148	2170.526	4439.2	3563.2
946.6498	2172.0317	4425.75	3544.9
946.7846	2173.5367	4412.1	3535.45
946.9195	2175.0409	4395.65	3518.8
947.0543	2176.5445	4390.2	3514.15
947.1891	2178.0473	4372.95	3496.25
947.3239	2179.5494	4357.95	3479.1
947.4587	2181.0507	4347.15	3470.5
947.5934	2182.5513	4346.6	3470
947.7281	2184.0512	4337.35	3459
947.8628	2185.5504	4329.3	3452.55
947.9974	2187.0488	4300.85	3424.15
948.132	2188.5465	4302.45	3425.35
948.2666	2190.0435	4307.6	3431.2
948.4012	2191.5397	4284.3	3408.5
948.5357	2193.0353	4268.2	3393.3
948.6702	2194.5301	4265.15	3386.8
948.8047	2196.0241	4240.4	3361.65
948.9392	2197.5175	4235.05	3358
949.0736	2199.0101	4227.45	3345.65
949.208	2200.502	4217.3	3342.55
949.3424	2201.9931	4194.25	3317.85
949.4767	2203.4835	4180.85	3303
949.611	2204.9733	4182.35	3301.5
949.7453	2206.4622	4191.15	3314.15
949.8796	2207.9505	4178.25	3298.8
950.0138	2209.438	4161.85	3287.15
950.148	2210.9248	4149	3271.75
950.2822	2212.4109	4124.4	3247.35
950.4164	2213.8962	4117.5	3237.65
950.5505	2215.3809	4100	3220.3
950.6846	2216.8648	4101.9	3225.5
950.8186	2218.3479	4099.55	3219.6
950.9527	2219.8304	4090.35	3211.05
951.0867	2221.3121	4065.55	3186.75
951.2207	2222.7931	4051.4	3174.8
951.3546	2224.2733	4043.4	3166
951.4886	2225.7529	4023.7	3147.25
951.6225	2227.2317	4017.55	3139.05
951.7563	2228.7098	4017.6	3139.4
951.8902	2230.1872	4008	3130.7
952.024	2231.6638	3986.9	3109.7
952.1578	2233.1397	3997.15	3113.15
952.2916	2234.6149	3979.35	3103.65
952.4253	2236.0894	3974.45	3096.15
952.559	2237.5632	3958.3	3079.3
952.6927	2239.0362	3944.1	3066.6
952.8263	2240.5085	3942.4	3066.45
952.9599	2241.9801	3927.2	3050.75
953.0935	2243.4509	3913.35	3036.35
953.2271	2244.921	3919.55	3041.75
953.3606	2246.3904	3915	3035
953.4941	2247.8591	3895	3017.7
953.6276	2249.3271	3877.4	3001.7
953.7611	2250.7943	3868.45	2991.1
953.8945	2252.2608	3861.5	2984.35
954.0279	2253.7266	3855.5	2979.1
954.1612	2255.1917	3836.8	2958
954.2946	2256.656	3824.15	2948.35
954.4279	2258.1197	3820.85	2945.85
954.5612	2259.5826	3815.3	2936.35
954.6944	2261.0447	3811.75	2936.2
954.8276	2262.5062	3794.95	2913.1
954.9608	2263.9669	3781.05	2902.05
955.094	2265.4269	3779.1	2902.35
955.2271	2266.8862	3767.7	2890
955.3602	2268.3448	3763.65	2886.2
955.4933	2269.8026	3778.3	2901.15
955.6264	2271.2598	3746.4	2869.5
955.7594	2272.7162	3754.9	2877.8
955.8924	2274.1719	3738.2	2859.95
956.0253	2275.6268	3717.75	2840.15
956.1583	2277.0811	3736	2857.05
956.2912	2278.5346	3714.5	2836.8
956.4241	2279.9874	3723.55	2846.6
956.5569	2281.4395	3700.15	2823.35
956.6897	2282.8908	3700.8	2818.45
956.8225	2284.3414	3700.5	2823.6
956.9553	2285.7914	3678.3	2802.2
957.088	2287.2406	3666.3	2790.4
957.2207	2288.689	3656.6	2780.4
957.3534	2290.1368	3647.8	2772.15
957.486	2291.5838	3637.2	2757.8
957.6186	2293.0302	3630.65	2752
957.7512	2294.4758	3604.9	2729.7
957.8838	2295.9206	3594.4	2714.4
958.0163	2297.3648	3609.5	2733.35
958.1488	2298.8082	3587.75	2710.8
958.2813	2300.251	3588.85	2713.8
958.4137	2301.693	3577.25	2697.25
958.5461	2303.1343	3574	2695.95
958.6785	2304.5748	3570.6	2693.2
958.8108	2306.0147	3566.95	2690.15
958.9432	2307.4538	3547.1	2667.05
959.0754	2308.8922	3554.7	2678.6
959.2077	2310.3299	3553.25	2677.6
959.3399	2311.7669	3534.5	2657.4
959.4721	2313.2031	3509.65	2633.3
959.6043	2314.6387	3491.6	2613.8
959.7365	2316.0735	3494.65	2619.05
959.8686	2317.5076	3496.5	2615.35
960.0006	2318.941	3482.25	2607.05
960.1327	2320.3737	3478.75	2601.5
960.2647	2321.8056	3472.65	2593.1
960.3967	2323.2369	3465.9	2587.15
960.5287	2324.6674	3455.45	2576.4
960.6606	2326.0972	3444.75	2566.35
960.7925	2327.5263	3436.2	2559.6
960.9244	2328.9547	3431.5	2554.05
961.0562	2330.3823	3405.9	2527.9
961.1881	2331.8092	3414.5	2534.9
961.3198	2333.2355	3407	2531.05
961.4516	2334.661	3396.4	2519.05
961.5833	2336.0858	3393.6	2513.7
961.715	2337.5098	3389.45	2512.3
961.8467	2338.9332	3386.55	2508.15
961.9783	2340.3558	3366.65	2487.25
962.1099	2341.7778	3358.1	2480.55
962.2415	2343.199	3352.15	2470.45
962.373	2344.6195	3346.7	2469.9
962.5045	2346.0393	3330.05	2452.3
962.636	2347.4583	3322.9	2444.45
962.7675	2348.8767	3321.85	2444.35
962.8989	2350.2943	3325.2	2447.15
963.0303	2351.7113	3320.8	2444.25
963.1617	2353.1275	3296.9	2417.7
963.293	2354.543	3294.65	2408.75
963.4243	2355.9578	3287.15	2409.6
963.5556	2357.3718	3274.9	2397.7
963.6868	2358.7852	3263.2	2381.95
963.818	2360.1978	3243.5	2364.25
963.9492	2361.6098	3247.85	2370.3
964.0803	2363.021	3247.7	2367.55
964.2114	2364.4315	3229.7	2351.6
964.3425	2365.8413	3232.2	2350
964.4736	2367.2504	3211.65	2335.3
964.6046	2368.6587	3187.8	2309.95
964.7356	2370.0664	3191.15	2313.8
964.8666	2371.4733	3182.2	2303.45
964.9975	2372.8795	3180.5	2304.3
965.1284	2374.285	3165.05	2287.1
965.2593	2375.6899	3153.95	2277.55
965.3901	2377.0939	3135.45	2258.95
965.5209	2378.4973	3129.25	2253.15
965.6517	2379.9	3127.5	2249.75
965.7825	2381.3019	3119.15	2242.35
965.9132	2382.7032	3104.9	2226.85
966.0439	2384.1037	3101	2224.4
966.1745	2385.5035	3094.2	2215.15
966.3051	2386.9027	3085.95	2209.8
966.4357	2388.3011	3087.9	2207.9
966.5663	2389.6987	3085.8	2208.75
966.6968	2391.0957	3077.85	2200.35
966.8273	2392.492	3052.65	2176.05
966.9578	2393.8876	3050.9	2172.25
967.0882	2395.2824	3043.95	2166.85
967.2186	2396.6765	3022.75	2146.15
967.349	2398.07	3004.3	2126.4
967.4793	2399.4627	3013.95	2135.8
967.6097	2400.8547	3000.75	2123.3
967.7399	2402.246	2997	2113.8
967.8702	2403.6366	2987.55	2111.25
968.0004	2405.0265	2965.8	2089.1
968.1306	2406.4156	2967.05	2085.8
968.2607	2407.8041	2954.5	2073.5
968.3909	2409.1918	2954.85	2075.55
968.521	2410.5789	2938.2	2060.6
968.651	2411.9652	2935.55	2056.05
968.781	2413.3508	2916.3	2037.85
968.911	2414.7358	2914.7	2035.65
969.041	2416.12	2903.35	2027
969.1709	2417.5035	2909.2	2034
969.3008	2418.8863	2898.8	2020.9
969.4307	2420.2684	2881.85	2004.7
969.5606	2421.6497	2881.6	2003.9
969.6904	2423.0304	2855.55	1979.15
969.8201	2424.4104	2861.15	1981.85
969.9499	2425.7896	2844.15	1964.45
970.0796	2427.1682	2842	1962.9
970.2093	2428.546	2838.8	1958.95
970.3389	2429.9232	2842.6	1962.9
970.4685	2431.2996	2852.1	1974.8
970.5981	2432.6753	2829.4	1951.9
970.7277	2434.0503	2812.2	1933.55
970.8572	2435.4246	2801.4	1923.15
970.9867	2436.7982	2798.4	1919
971.1161	2438.1711	2795.5	1919
971.2456	2439.5433	2794.3	1915.9
971.375	2440.9148	2775.3	1890.4
971.5043	2442.2856	2770.2	1894.8
971.6336	2443.6557	2761.4	1881.85
971.7629	2445.025	2752.6	1874.1
971.8922	2446.3937	2748.25	1869.75
972.0214	2447.7617	2745.25	1865.75
972.1506	2449.1289	2741.15	1864.4
972.2798	2450.4955	2740.1	1859.45
972.4089	2451.8613	2729.7	1853.7
972.538	2453.2265	2719.85	1843
972.6671	2454.5909	2716.25	1840.2
972.7961	2455.9546	2725.95	1848.35
972.9251	2457.3177	2707.1	1831.15
973.0541	2458.68	2694.65	1814.75
973.1831	2460.0416	2695.85	1817.95
973.312	2461.4025	2694.75	1814.95
973.4408	2462.7627	2695.7	1804.85
973.5697	2464.1222	2689.25	1814.2
973.6985	2465.4811	2679.15	1799.95
973.8273	2466.8392	2657.95	1779.5
973.956	2468.1966	2656.1	1775.25
974.0847	2469.5533	2664.75	1785.5
974.2134	2470.9093	2658.45	1779.65
974.3421	2472.2645	2645.75	1767.2
974.4707	2473.6191	2650.25	1773.55
974.5993	2474.973	2645.85	1768.15
974.7278	2476.3262	2623.9	1744.7
974.8563	2477.6787	2616.75	1738.6
974.9848	2479.0305	2610.8	1734.2
975.1132	2480.3816	2609.55	1730.5
975.2417	2481.7319	2601.05	1724.2
975.37	2483.0816	2590.75	1712.25
975.4984	2484.4306	2585.6	1707.4
975.6267	2485.7789	2579.2	1701.55
975.755	2487.1264	2566.5	1685.75
975.8833	2488.4733	2563.35	1686.45
976.0115	2489.8195	2568.25	1682.95
976.1397	2491.165	2567.85	1689.05
976.2678	2492.5097	2546.15	1667.25
976.3959	2493.8538	2524.9	1647.25
976.524	2495.1972	2521.85	1643.6
976.6521	2496.5398	2529.05	1649.05
976.7801	2497.8818	2513.15	1633.1
976.9081	2499.2231	2506.5	1628.2
977.036	2500.5637	2506.2	1626.5
977.164	2501.9035	2496.25	1618.9
977.2918	2503.2427	2499.3	1617.7
977.4197	2504.5812	2490.5	1613.4
977.5475	2505.919	2491.7	1612.45
977.6753	2507.256	2487.45	1609.05
977.8031	2508.5924	2488.15	1609.05
977.9308	2509.9281	2468.3	1586.2
978.0585	2511.2631	2461.7	1583.05
978.1861	2512.5974	2465.4	1587.9
978.3137	2513.9309	2440.6	1563.65
978.4413	2515.2638	2458.45	1553
978.5689	2516.596	2436.6	1560.2
978.6964	2517.9275	2430.6	1551.75
978.8239	2519.2583	2424.3	1544.95
978.9513	2520.5884	2415.75	1534.6
979.0788	2521.9178	2431.6	1554.15
979.2062	2523.2465	2409.15	1531.6
979.3335	2524.5745	2395.45	1517.45
979.4608	2525.9018	2396.5	1517.8
979.5881	2527.2284	2396.15	1520.2
979.7154	2528.5543	2379.35	1500.1
979.8426	2529.8796	2380.2	1502.6
979.9698	2531.2041	2376.95	1498.55
980.0969	2532.5279	2385.6	1509.55
980.224	2533.851	2373.55	1496.6
980.3511	2535.1735	2366.7	1489.4
980.4781	2536.4952	2355.1	1478.25
980.6052	2537.8163	2362.05	1485.05
980.7321	2539.1366	2354.2	1476.35
980.8591	2540.4562	2343.4	1464.25
980.986	2541.7752	2352.1	1476.1
981.1129	2543.0935	2345.2	1468.05
981.2397	2544.411	2330.85	1451.85
981.3665	2545.7279	2327.2	1450.2
981.4933	2547.0441	2329.9	1450.3
981.62	2548.3596	2331.25	1450.35
981.7467	2549.6744	2314.75	1438.35
981.8734	2550.9885	2322.55	1437.3
982.0001	2552.3019	2309.25	1433.1
982.1267	2553.6146	2302.1	1422.2
982.2532	2554.9266	2291.2	1412.8
982.3798	2556.2379	2288.55	1408.25
982.5063	2557.5485	2290.55	1413.9
982.6327	2558.8585	2285.45	1400.05
982.7592	2560.1677	2294.05	1411.25
982.8856	2561.4762	2283.1	1404.4
983.0119	2562.7841	2279.05	1398.25
983.1383	2564.0913	2287.95	1411.6
983.2646	2565.3977	2276.4	1399.1
983.3908	2566.7035	2281.05	1405
983.517	2568.0086	2262.8	1383.15
983.6432	2569.313	2257.1	1378.85
983.7694	2570.6167	2255.85	1374.25
983.8955	2571.9197	2255.45	1380.25
984.0216	2573.222	2253.95	1372.6
984.1476	2574.5236	2252	1373.75
984.2737	2575.8246	2237.6	1356
984.3996	2577.1248	2252.3	1370.45
984.5256	2578.4244	2241.3	1364
984.6515	2579.7232	2224.1	1346.65
984.7774	2581.0214	2249.7	1347.8
984.9032	2582.3189	2221.8	1346.75
985.029	2583.6157	2215.55	1330.7
985.1548	2584.9118	2217	1341.1
985.2806	2586.2072	2208.95	1333.15
985.4063	2587.5019	2206.3	1329.55
985.5319	2588.7959	2201.25	1323.8
985.6576	2590.0893	2200.45	1320.45
985.7832	2591.3819	2210.6	1333
985.9087	2592.6739	2183.6	1305.8
986.0343	2593.9652	2185.95	1307.3
986.1597	2595.2557	2176.7	1301.35
986.2852	2596.5456	2169.55	1290.3
986.4106	2597.8348	2169.3	1295.35
986.536	2599.1234	2164.45	1285.8
986.6614	2600.4112	2163.15	1284.65
986.7867	2601.6983	2152.8	1272.5
986.912	2602.9848	2149.25	1270.45
987.0372	2604.2705	2145.45	1261.1
987.1624	2605.5556	2134.2	1257.15
987.2876	2606.84	2132.9	1254.9
987.4128	2608.1237	2130.35	1252
987.5379	2609.4067	2111.35	1234.4
987.6629	2610.689	2116.1	1229.55
987.788	2611.9707	2114.35	1233.85
987.913	2613.2516	2118.25	1236.55
988.0379	2614.5319	2100.65	1224
988.1629	2615.8115	2088.4	1210.75
988.2878	2617.0903	2086.85	1206.35
988.4126	2618.3685	2085.5	1206.75
988.5375	2619.6461	2074.15	1195.15
988.6622	2620.9229	2073.65	1194.75
988.787	2622.199	2061.75	1184.45
988.9117	2623.4745	2061.1	1183.65
989.0364	2624.7493	2061.05	1184.15
989.161	2626.0234	2059.05	1182.35
989.2857	2627.2968	2053.65	1177.7
989.4102	2628.5695	2052.65	1173.4
989.5348	2629.8415	2042.9	1165.4
989.6593	2631.1128	2028.35	1148.75
989.7837	2632.3835	2026.65	1147.55
989.9082	2633.6535	2021.95	1146.6
990.0326	2634.9228	2014.1	1136.35
990.1569	2636.1914	2011.8	1133.95
990.2812	2637.4593	2012.75	1129.1
990.4055	2638.7265	2004.45	1126.95
990.5298	2639.9931	1995.65	1118.2
990.654	2641.259	1999.15	1121.8
990.7782	2642.5242	1999	1119.9
990.9023	2643.7887	1984.95	1105.4
991.0264	2645.0525	1985.45	1107.3
991.1505	2646.3156	1976.4	1097.55
991.2745	2647.5781	1975.95	1099.55
991.3985	2648.8398	1975.75	1099.25
991.5225	2650.1009	1971.75	1085.1
991.6464	2651.3613	1968.15	1092.8
991.7703	2652.6211	1961	1081.15
991.8942	2653.8801	1961	1084.35
992.018	2655.1385	1954.65	1073.3
992.1418	2656.3961	1954.2	1077.3
992.2655	2657.6531	1949.5	1072.5
992.3892	2658.9094	1938.15	1061.55
992.5129	2660.1651	1942.2	1066.2
992.6366	2661.42	1938.8	1061.75
992.7602	2662.6743	1938.9	1059.6
992.8837	2663.9279	1935.2	1057.9
993.0073	2665.1808	1920.8	1042.5
993.1307	2666.433	1917.1	1040.05
993.2542	2667.6846	1915.15	1038.1
993.3776	2668.9354	1922.7	1041.5
993.501	2670.1856	1905.6	1029.7
993.6244	2671.4351	1913.55	1037.3
993.7477	2672.6839	1907.9	1029.3
993.8709	2673.9321	1894.25	1014.3
993.9942	2675.1795	1899.65	1020.35
994.1174	2676.4263	1898.9	1023
994.2405	2677.6724	1892.6	1016.1
994.3637	2678.9179	1881.2	1004.95
994.4868	2680.1626	1890.65	1014.35
994.6098	2681.4067	1877.85	1000.15
994.7328	2682.6501	1872.1	994.35
994.8558	2683.8928	1867.6	991.4
994.9788	2685.1348	1867.55	990.65
995.1017	2686.3761	1852	975.55
995.2245	2687.6168	1855.45	978.15
995.3474	2688.8568	1855.95	980.05
995.4702	2690.0961	1846.7	971.85
995.5929	2691.3348	1850.65	972.3
995.7156	2692.5727	1840.55	962.8
995.8383	2693.81	1842.85	964.15
995.961	2695.0466	1833.2	957.45
996.0836	2696.2826	1830.9	952
996.2062	2697.5178	1830.3	950.5
996.3287	2698.7524	1821.85	945.1
996.4512	2699.9863	1821.25	943.25
996.5737	2701.2195	1820.45	943.6
996.6961	2702.452	1813.55	934.7
996.8185	2703.6839	1814.25	936.25
996.9408	2704.9151	1804.9	929.65
997.0631	2706.1456	1806.6	929.3
997.1854	2707.3755	1792.25	914.2
997.3077	2708.6046	1802.75	924.9
997.4299	2709.8331	1787.85	910.15
997.552	2711.0609	1792.8	914.85
997.6742	2712.2881	1789.3	911.95
997.7963	2713.5145	1784.85	904.85
997.9183	2714.7403	1772.15	895.8
998.0403	2715.9654	1773.55	894.9
998.1623	2717.1899	1781.65	889.1
998.2842	2718.4136	1769.6	895.6
998.4062	2719.6367	1769.85	893.25
998.528	2720.8591	1776.2	893.05
998.6498	2722.0809	1763.2	885.5
998.7716	2723.3019	1764.25	884.6
998.8934	2724.5223	1758.45	880.25
999.0151	2725.7421	1739.65	860.45
999.1368	2726.9611	1745.9	867.85
999.2584	2728.1795	1744.95	863.5
999.38	2729.3972	1738.25	862.55
999.5016	2730.6142	1736.55	845.85
999.6231	2731.8306	1727.65	850.65
999.7446	2733.0462	1727.5	847.65
999.8661	2734.2612	1715	831.2
999.9875	2735.4756	1722.75	843.65
1000.1089	2736.6892	1703.7	827.85
1000.2302	2737.9022	1697.7	818.9
1000.3515	2739.1145	1705.75	828.1
1000.4728	2740.3262	1705.85	821.15
1000.594	2741.5372	1702.1	823.45
1000.7152	2742.7475	1686.1	810.45
1000.8363	2743.9571	1682.15	801.6
1000.9575	2745.1661	1681.55	800.3
1001.0785	2746.3744	1681.8	805.55
1001.1996	2747.582	1668.9	791.35
1001.3206	2748.7889	1677.85	798.65
1001.4415	2749.9952	1668.2	790.5
1001.5625	2751.2008	1673.35	795.1
1001.6833	2752.4057	1674.25	795.6
1001.8042	2753.61	1652.6	773.6
1001.925	2754.8136	1656.7	778.2
1002.0458	2756.0165	1651.05	774.15
1002.1665	2757.2188	1647.6	768.95
1002.2872	2758.4204	1653	775.95
1002.4078	2759.6213	1632.45	753
1002.5285	2760.8215	1646	763.15
1002.649	2762.0211	1639.05	762.2
1002.7696	2763.22	1637.65	755.7
1002.8901	2764.4182	1638.65	762.5
1003.0106	2765.6158	1632.1	752.75
1003.131	2766.8127	1626.8	751.15
1003.2514	2768.009	1621.15	743.7
1003.3717	2769.2045	1618.65	740
1003.492	2770.3994	1626.5	745
1003.6123	2771.5936	1615.35	736.25
1003.7325	2772.7872	1610.3	733.45
1003.8527	2773.9801	1605.55	726.9
1003.9729	2775.1723	1621.6	726.8
1004.093	2776.3639	1595.95	719.6
1004.2131	2777.5548	1598.55	719.75
1004.3331	2778.745	1596.4	716.45
1004.4531	2779.9346	1594.4	719.1
1004.5731	2781.1235	1592.25	714.65
1004.693	2782.3117	1584.55	710.65
1004.8129	2783.4992	1577.95	702.3
1004.9328	2784.6861	1583.4	705.8
1005.0526	2785.8723	1581.35	702.9
1005.1723	2787.0579	1564.55	684.15
1005.2921	2788.2428	1575.1	697.3
1005.4118	2789.427	1563.65	685.25
1005.5314	2790.6106	1560.35	682.85
1005.651	2791.7935	1557.2	680.45
1005.7706	2792.9757	1556.75	680.45
1005.8902	2794.1573	1558.1	678.75
1006.0097	2795.3382	1545.35	669.3
1006.1291	2796.5184	1544.55	669.1
1006.2485	2797.698	1558.4	680
1006.3679	2798.8769	1548.6	669.85
1006.4873	2800.0551	1542.35	665.65
1006.6066	2801.2327	1540.6	660.95
1006.7258	2802.4096	1539.45	663.25
1006.8451	2803.5859	1529.85	650.45
1006.9642	2804.7615	1539.2	660.95
1007.0834	2805.9364	1526.95	651.35
1007.2025	2807.1106	1527.5	652.3
1007.3216	2808.2842	1522.8	644.1
1007.4406	2809.4572	1517.35	638.8
1007.5596	2810.6294	1524.4	645.95
1007.6785	2811.801	1524.15	647.65
1007.7975	2812.972	1511.65	634.8
1007.9163	2814.1423	1521.9	645.55
1008.0352	2815.3119	1518.5	639.2
1008.154	2816.4808	1516.4	639.4
1008.2727	2817.6491	1522.6	645.1
1008.3914	2818.8167	1520	644.35
1008.5101	2819.9837	1532.2	649.1
1008.6288	2821.15	1526.55	649.7
1008.7474	2822.3157	1531.4	654.95
1008.8659	2823.4807	1534.85	658
1008.9844	2824.645	1541.85	662.5
1009.1029	2825.8086	1542.05	664.4
1009.2214	2826.9716	1545.25	669.4
1009.3398	2828.134	1565.9	690.75
1009.4581	2829.2957	1564.15	687.7
1009.5764	2830.4567	1569	692.9
1009.6947	2831.617	1576.45	698.05
1009.813	2832.7767	1572.35	695.85
1009.9312	2833.9358	1567.5	690.65
1010.0493	2835.0941	1570.9	691.7
1010.1675	2836.2519	1558.1	681.55
1010.2855	2837.4089	1559.35	680.8
1010.4036	2838.5653	1554.05	678.65
1010.5216	2839.7211	1541.9	666.95
1010.6396	2840.8761	1537.6	657.85
1010.7575	2842.0306	1535.15	659.45
1010.8754	2843.1843	1538.25	660.9
1010.9932	2844.3374	1533.5	655.35
1011.111	2845.4899	1539.55	660.05
1011.2288	2846.6417	1537.75	661.2
1011.3465	2847.7928	1540.65	664.95
1011.4642	2848.9433	1536.65	660.7
1011.5818	2850.0931	1535.6	657.5
1011.6995	2851.2422	1536.05	656.85
1011.817	2852.3907	1535.95	656.3
1011.9345	2853.5385	1536.85	658.05
1012.052	2854.6857	1540.85	653.3
1012.1695	2855.8323	1536.25	660.5
1012.2869	2856.9781	1535.05	658.25
1012.4042	2858.1233	1533.8	656.15
1012.5216	2859.2679	1541.4	663.55
1012.6389	2860.4118	1543.5	667.05
1012.7561	2861.555	1545.85	664.45
1012.8733	2862.6976	1536.35	658.25
1012.9905	2863.8395	1537.4	660.55
1013.1076	2864.9808	1541.6	665.3
1013.2247	2866.1214	1533.15	657.9
1013.3417	2867.2614	1539.25	662.2
1013.4587	2868.4007	1536.9	657.05
1013.5757	2869.5393	1545.45	665.4
1013.6926	2870.6773	1536.45	655.75
1013.8095	2871.8146	1543.85	666
1013.9263	2872.9513	1545.85	667.2
1014.0431	2874.0874	1535.3	658.05
1014.1599	2875.2227	1532.15	653
1014.2766	2876.3574	1529.65	652.5
1014.3933	2877.4915	1537.35	659.45
1014.51	2878.6249	1526.4	650.3
1014.6266	2879.7577	1534.15	656.3
1014.7431	2880.8898	1546.55	660.6
1014.8596	2882.0212	1536.85	661.35
1014.9761	2883.152	1530.1	651.75
1015.0925	2884.2821	1533.9	657.25
1015.2089	2885.4116	1527.6	651.2
1015.3253	2886.5405	1535.15	658.5
1015.4416	2887.6686	1531.35	649.7
1015.5579	2888.7962	1525.5	648.9
1015.6741	2889.923	1518.85	642.55
1015.7903	2891.0493	1527.9	653.75
1015.9065	2892.1748	1520.5	644.1
1016.0226	2893.2997	1518	639.2
1016.1387	2894.424	1511	635.15
1016.2547	2895.5476	1511.8	634.8
1016.3707	2896.6706	1512.05	635.45
1016.4866	2897.7929	1507.7	630.55
1016.6025	2898.9145	1504.75	626.95
1016.7184	2900.0355	1503.3	624.55
1016.8342	2901.1559	1504.85	628.45
1016.95	2902.2756	1504.35	627.75
1017.0658	2903.3946	1501.6	625.05
1017.1815	2904.513	1499.8	620.9
1017.2971	2905.6308	1483.9	606.8
1017.4127	2906.7479	1485.65	607.55
1017.5283	2907.8643	1492.95	615.8
1017.6439	2908.9801	1487.65	611.8
1017.7594	2910.0953	1490.6	613.2
1017.8748	2911.2098	1488.7	607.4
1017.9902	2912.3236	1483.9	599.75
1018.1056	2913.4368	1487.45	608.05
1018.2209	2914.5494	1475.15	599.2
1018.3362	2915.6613	1477.1	595
1018.4515	2916.7725	1467.4	587.85
1018.5667	2917.8831	1461.05	582.25
1018.6819	2918.9931	1454.8	575.7
1018.797	2920.1024	1450.9	573.3
1018.9121	2921.211	1454.1	577.1
1019.0271	2922.319	1451.05	573.75
1019.1421	2923.4264	1442.55	564.35
1019.2571	2924.5331	1446.65	569.45
1019.372	2925.6391	1432.05	555.55
1019.4869	2926.7445	1437.95	563.35
1019.6017	2927.8493	1439.5	563.4
1019.7165	2928.9534	1444.85	567.9
1019.8313	2930.0569	1436.4	557.15
1019.946	2931.1597	1439.9	560.2
1020.0606	2932.2619	1438.8	561
1020.1753	2933.3634	1428.8	550.9
1020.2899	2934.4643	1439.35	555.3
1020.4044	2935.5645	1443.7	559.85
1020.5189	2936.6641	1439.05	556.3
1020.6334	2937.763	1434	558.9
1020.7478	2938.8613	1431.9	554.05
1020.8622	2939.959	1433.8	552.8
1020.9765	2941.056	1416.3	541.1
1021.0908	2942.1523	1412.85	535.6
1021.2051	2943.248	1399.95	523.85
1021.3193	2944.3431	1393.6	517.1
1021.4334	2945.4375	1386.85	510.9
1021.5476	2946.5313	1374.95	497.6
1021.6617	2947.6244	1365.45	489.3
1021.7757	2948.7169	1358.25	481.45
1021.8897	2949.8087	1347.05	470.5
1022.0037	2950.8999	1340.6	463.7
1022.1176	2951.9904	1334.35	457.3
1022.2315	2953.0803	1329.1	450.1
1022.3453	2954.1696	1315.35	437.8
1022.4591	2955.2582	1314.35	436.9
1022.5728	2956.3462	1312.05	435.45
1022.6865	2957.4335	1307.9	429.9
1022.8002	2958.5202	1306.75	427.05
1022.9138	2959.6062	1304.15	428.3
1023.0274	2960.6916	1302.2	425.6
1023.141	2961.7764	1295.85	419
1023.2545	2962.8605	1297.75	420.35
1023.3679	2963.9439	1294.9	418.05
1023.4813	2965.0267	1293.85	416.75
1023.5947	2966.1089	1322.2	421.05
1023.708	2967.1905	1287.7	412.25
1023.8213	2968.2714	1281.8	405.25
1023.9346	2969.3516	1284.95	407.35
1024.0478	2970.4312	1288.95	404.7
1024.1609	2971.5102	1279.95	406.15
1024.274	2972.5885	1276.9	399.85
1024.3871	2973.6662	1285.35	404.55
1024.5002	2974.7432	1276.05	400.55
1024.6132	2975.8196	1276.85	398.1
1024.7261	2976.8954	1270.6	394.25
1024.839	2977.9705	1275.2	397.15
1024.9519	2979.045	1273.25	397.9
1025.0647	2980.1188	1270.5	393.2
1025.1775	2981.192	1267.6	392.55
1025.2902	2982.2645	1264	386.35
1025.4029	2983.3364	1263.3	385.45
1025.5156	2984.4077	1256.1	378.1
1025.6282	2985.4783	1262.35	379.5
1025.7407	2986.5483	1251.95	375.25
1025.8532	2987.6177	1249.65	374.9
1025.9657	2988.6864	1244.35	365.55
1026.0782	2989.7545	1247.95	368.8
1026.1906	2990.8219	1235.55	359.4
1026.3029	2991.8887	1234.8	356.5
1026.4152	2992.9548	1233.1	353.45
1026.5275	2994.0204	1229.1	354.65
1026.6397	2995.0852	1221.95	345.15
1026.7519	2996.1495	1213.75	337
1026.864	2997.2131	1214.15	337.2
1026.9761	2998.276	1208.5	331.6
1027.0882	2999.3383	1212.05	334.65
1027.2002	3000.4	1200.85	324.75
1027.3122	3001.4611	1201.8	324
1027.4241	3002.5215	1198.85	324.1
1027.536	3003.5812	1193.2	316.8
1027.6478	3004.6404	1189.45	311.7
1027.7596	3005.6989	1189.1	309.3
1027.8714	3006.7567	1191.15	313.75
1027.9831	3007.8139	1210.5	310
1028.0947	3008.8705	1181.55	307.65
1028.2064	3009.9264	1186.1	307.4
1028.3179	3010.9818	1182.7	306.7
1028.4295	3012.0364	1177.2	299.65
1028.541	3013.0905	1183.85	306.95
1028.6524	3014.1439	1174.65	297.25
1028.7638	3015.1966	1174.15	297.5
1028.8752	3016.2487	1175.95	298.3
1028.9865	3017.3002	1175.5	292.85
1029.0978	3018.3511	1171	295.85
1029.209	3019.4013	1169.65	293.9
1029.3202	3020.4509	1168.15	290.8
1029.4314	3021.4998	1164.9	287.85
1029.5425	3022.5481	1167.95	292.3
1029.6535	3023.5958	1167.7	291.35
1029.7645	3024.6428	1161.05	281.95
1029.8755	3025.6892	1157.45	281
1029.9864	3026.735	1165.45	287.25
1030.0973	3027.7802	1161.15	285.25
1030.2082	3028.8247	1156.3	279.3
1030.319	3029.8685	1149.55	273.75
1030.4297	3030.9118	1161.55	284.95
1030.5404	3031.9544	1157.2	281.85
1030.6511	3032.9963	1150.1	274.3
1030.7617	3034.0376	1152.1	276.3
1030.8723	3035.0783	1152.8	273.05
1030.9829	3036.1184	1153.2	274.4
1031.0934	3037.1578	1148.7	271.55
1031.2038	3038.1966	1149.15	271.05
1031.3142	3039.2348	1147.25	272.7
1031.4246	3040.2723	1150.55	265.05
1031.5349	3041.3092	1145	270.65
1031.6452	3042.3455	1141.85	264.1
1031.7554	3043.3811	1143.1	264.85
1031.8656	3044.4161	1144.85	268.3
1031.9758	3045.4505	1136.55	260.8
1032.0859	3046.4842	1139.15	263.7
1032.1959	3047.5173	1138.4	262.35
1032.3059	3048.5498	1137.7	263.1
1032.4159	3049.5816	1134	255.7
1032.5258	3050.6128	1136.95	259.95
1032.6357	3051.6434	1131.95	252.15
1032.7455	3052.6734	1134.3	257.15
1032.8553	3053.7027	1131.85	255.4
1032.9651	3054.7314	1131.45	253.55
1033.0748	3055.7594	1128.15	251.3
1033.1845	3056.7868	1135.85	257.9
1033.2941	3057.8136	1133.7	258.8
1033.4037	3058.8398	1129.95	252.9
1033.5132	3059.8653	1129.35	251.55
1033.6227	3060.8902	1126.25	249.8
1033.7321	3061.9145	1129.45	252.5
1033.8415	3062.9381	1125.45	249.2
1033.9509	3063.9612	1138.6	245.75
1034.0602	3064.9835	1128.35	252.55
1034.1694	3066.0053	1127.8	248.75
1034.2787	3067.0264	1120.45	245.05
1034.3878	3068.0469	1123.5	245.8
1034.497	3069.0668	1121.9	243.3
1034.6061	3070.086	1118.3	242.45
1034.7151	3071.1046	1118.6	241.75
1034.8241	3072.1226	1116.95	238.65
1034.9331	3073.1399	1114.5	239.2
1035.042	3074.1567	1113.9	238.25
1035.1508	3075.1727	1113.65	235.2
1035.2597	3076.1882	1111.25	236
1035.3684	3077.203	1111	235.45
1035.4772	3078.2173	1107.05	228.55
1035.5859	3079.2308	1104.7	222.5
1035.6945	3080.2438	1108.3	231.05
1035.8031	3081.2561	1104.4	226
1035.9117	3082.2678	1106	227.85
1036.0202	3083.2789	1100.3	224.95
1036.1286	3084.2893	1098.75	223.25
1036.2371	3085.2991	1098.55	222.45
1036.3454	3086.3083	1103.3	220.7
1036.4538	3087.3169	1103.45	227.35
1036.562	3088.3248	1098.45	219.9
1036.6703	3089.3321	1095.1	217
1036.7785	3090.3388	1093.85	219
1036.8866	3091.3449	1088.6	212.55
1036.9948	3092.3503	1089.9	211.15
1037.1028	3093.3551	1088.35	213.75
1037.2108	3094.3593	1088.65	213.05
1037.3188	3095.3629	1085.7	210.7
1037.4267	3096.3658	1088.45	211.9
1037.5346	3097.3681	1083.75	208.55
1037.6425	3098.3698	1082.4	204.4
1037.7503	3099.3708	1091.15	209.95
1037.858	3100.3713	1082.85	207.45
1037.9657	3101.3711	1077.1	199.95
1038.0734	3102.3702	1214.85	202.7
1038.181	3103.3688	1084.1	206.55
1038.2886	3104.3667	1075.85	200.6
1038.3961	3105.364	1072.2	196.15
1038.5036	3106.3607	1074.95	196.75
1038.611	3107.3568	1073	196.2
1038.7184	3108.3522	1073.95	199.45
1038.8257	3109.347	1069.8	190.55
1038.933	3110.3412	1080.8	200.7
1039.0403	3111.3348	1070.8	193.6
1039.1475	3112.3277	1070.45	195.55
1039.2547	3113.32	1064.05	187.75
1039.3618	3114.3117	1063.55	187.2
1039.4689	3115.3028	1067.15	191.5
1039.5759	3116.2932	1063.7	184.2
1039.6829	3117.2831	1070.15	186.45
1039.7898	3118.2723	1063.15	188.75
1039.8967	3119.2608	1060.35	182.75
1040.0035	3120.2488	1060.85	184.15
1040.1103	3121.2361	1058.35	181.7
1040.2171	3122.2229	1058.5	182.65
1040.3238	3123.209	1055.4	178.75
1040.4305	3124.1944	1055.15	178.25
1040.5371	3125.1793	1057.2	178.1
1040.6437	3126.1635	1047.3	170.9
1040.7502	3127.1471	1051.15	176.35
1040.8567	3128.1301	1047	172.5
1040.9631	3129.1125	1048.8	170.85
1041.0695	3130.0942	1051.75	174
1041.1759	3131.0753	1053.55	169.75
1041.2822	3132.0558	1047.9	167.6
1041.3884	3133.0357	1048.8	170.9
1041.4946	3134.015	1047.2	170.7
1041.6008	3134.9936	1049.7	172.7
1041.7069	3135.9716	1065.5	169
1041.813	3136.949	1042.6	166.9
1041.919	3137.9258	1050.2	168.05
1042.025	3138.902	1045.65	162.95
1042.1309	3139.8775	1041.85	166.1
1042.2368	3140.8524	1042.95	166.5
1042.3427	3141.8267	1041.25	163.05
1042.4485	3142.8004	1036.45	158.25
1042.5542	3143.7735	1044.05	161.45
1042.6599	3144.7459	1039.1	161.3
1042.7656	3145.7178	1036.3	159.25
1042.8712	3146.689	1036.45	161.75
1042.9768	3147.6596	1035.35	157.05
1043.0823	3148.6295	1038.25	162.4
1043.1878	3149.5989	1032.5	156.9
1043.2932	3150.5676	1030.55	155.1
1043.3986	3151.5357	1027.1	151.4
1043.5039	3152.5032	1028.35	152.6
1043.6092	3153.4701	1028.2	151.1
1043.7145	3154.4364	1030.25	151.3
1043.8197	3155.402	1030.65	154.75
1043.9248	3156.367	1031.8	154.5
1044.03	3157.3315	1066.05	152.05
1044.135	3158.2952	1025.3	149.6
1044.24	3159.2584	1022.05	146.35
1044.345	3160.221	1024.75	148.95
1044.4499	3161.1829	1025.15	147.85
1044.5548	3162.1442	1022.8	146.15
1044.6596	3163.105	1025.2	148.4
1044.7644	3164.065	1023.95	147.95
1044.8692	3165.0245	1024.3	145.55
1044.9739	3165.9834	1019.3	143.55
1045.0785	3166.9416	1019.7	144.1
1045.1831	3167.8993	1015.6	136.85
1045.2877	3168.8563	1014.15	136.75
1045.3922	3169.8127	1014.8	138.05
1045.4966	3170.7684	1013.6	136.45
1045.6011	3171.7236	1013.95	137.5
1045.7054	3172.6782	1014.85	138.9
1045.8098	3173.6321	1012.45	137.3
1045.914	3174.5854	1015.25	134.3
1046.0183	3175.5381	1009.25	132.55
1046.1224	3176.4902	1007.35	131.45
1046.2266	3177.4417	1014.15	137.15
1046.3307	3178.3926	1011.75	133.8
1046.4347	3179.3428	1006.5	130.7
1046.5387	3180.2924	1004.95	128.25
1046.6427	3181.2415	1007.4	130.25
1046.7466	3182.1899	1008.65	131.1
1046.8504	3183.1377	1006.85	130.4
1046.9542	3184.0848	1007.05	127.05
1047.058	3185.0314	1003.85	125.65
1047.1617	3185.9773	1007.9	129.55
1047.2654	3186.9227	1004.9	128.3
1047.369	3187.8674	1002.75	126.45
1047.4726	3188.8115	1007.2	124.5
1047.5761	3189.755	1004.15	128.8
1047.6796	3190.6979	1000.75	126.8
1047.783	3191.6402	998.3	121.65
1047.8864	3192.5818	997.3	120.4
1047.9898	3193.5229	1005.25	121.45
1048.0931	3194.4633	997.05	120.3
1048.1963	3195.4031	994.4	116.2
1048.2995	3196.3423	997.75	120.75
1048.4027	3197.2809	995.75	117.2
1048.5058	3198.2189	995.2	118
1048.6089	3199.1563	999.3	115.9
1048.7119	3200.0931	991.15	116.4
1048.8148	3201.0292	990.05	114.45
1048.9178	3201.9648	991.75	117.9
1049.0206	3202.8997	992.6	113.35
1049.1235	3203.834	991.95	114.65
1049.2262	3204.7677	991.25	114.8
1049.329	3205.7008	995.45	117.4
1049.4317	3206.6333	988.7	112.1
1049.5343	3207.5652	992.55	116.35
1049.6369	3208.4964	988.8	111.65
1049.7394	3209.4271	987.65	111.75
1049.8419	3210.3571	984.15	109.15
1049.9444	3211.2865	988.4	110.55
1050.0468	3212.2154	986.35	109.9
1050.1491	3213.1436	987.95	109.45
1050.2514	3214.0712	993.75	110.4
1050.3537	3214.9982	986.7	111.25
1050.4559	3215.9246	984.95	107.5
1050.5581	3216.8503	982.5	107.75
1050.6602	3217.7755	984.05	107
1050.7623	3218.7001	980.9	103.8
1050.8643	3219.624	983.65	105.55
1050.9663	3220.5473	982.2	104.6
1051.0682	3221.4701	983.9	105.9
1051.1701	3222.3922	984.05	108.7
1051.2719	3223.3137	977.4	100.25
1051.3737	3224.2346	977.7	102.1
1051.4754	3225.1549	979.9	103.15
1051.5771	3226.0746	977.3	103.55
1051.6788	3226.9937	977.15	101.35
1051.7804	3227.9121	975	99.5
1051.8819	3228.83	972.25	97.55
1051.9834	3229.7473	978.7	100.2
1052.0849	3230.6639	977.25	99.6
1052.1863	3231.5799	975.15	99.4
1052.2876	3232.4954	973.6	95.6
1052.3889	3233.4102	972.55	95.85
1052.4902	3234.3244	973.25	97.9
1052.5914	3235.238	973.35	97.8
1052.6926	3236.151	992.95	92.8
1052.7937	3237.0634	968.15	93.1
1052.8948	3237.9752	969.15	93.55
1052.9958	3238.8864	969.6	91.35
1053.0968	3239.797	971.1	94.35
1053.1977	3240.7069	972.85	94.3
1053.2986	3241.6163	969.1	89.3
1053.3994	3242.5251	965.15	88.05
1053.5002	3243.4332	968.2	91.95
1053.6009	3244.3408	967.3	91
1053.7016	3245.2477	965.35	91.5
1053.8022	3246.154	967.2	88.15
1053.9028	3247.0598	968.6	91.1
1054.0034	3247.9649	961.1	84.55
1054.1039	3248.8694	965.1	88.8
1054.2043	3249.7733	964.9	88.9
1054.3047	3250.6766	962.6	86.2
1054.4051	3251.5793	962.75	85.7
1054.5054	3252.4814	964.4	88.9
1054.6056	3253.3829	960.8	84.9
1054.7058	3254.2838	962.3	85.6
1054.806	3255.1841	956.85	80
1054.9061	3256.0838	961.35	84.95
1055.0061	3256.9829	957.3	81.4
1055.1062	3257.8814	959.9	80.85
1055.2061	3258.7792	958.55	80.55
1055.306	3259.6765	957.5	80.2
1055.4059	3260.5731	953.15	77.95
1055.5057	3261.4692	954.7	78.65
1055.6055	3262.3647	955.1	77.3
1055.7052	3263.2595	950.95	75.8
1055.8049	3264.1538	949.95	74.45
1055.9045	3265.0474	952.6	73.8
1056.0041	3265.9404	948.85	72.2
1056.1036	3266.8329	944.7	69.35
1056.2031	3267.7247	956.7	70.3
1056.3025	3268.616	943.25	68.3
1056.4019	3269.5066	946.15	68.65
1056.5013	3270.3966	945.6	67.8
1056.6005	3271.286	938.8	62.65
