Software Version:	3.9.2.0
Unit SN:	10000200
Spectrometer SN:	6960
Date:	3/6/2024 11:02:48 AM
Data Line Index:	25
Spectral Points:	2048
Integration time (ms):	125
Averages:	20
Delay (ms):	30
Sequence Number:	1
Processing:	dark subtract
Laser Power (mW):	295
Laser Current (mA):	822
Laser Diode Temp (C):	25
Laser Case Temp (C):	28.3
System Temp (C):	28.1
Spectrometer Temp (C):	25.6
CCD Temp (C):	0.008
Secondary Temp (C):	20.014
Heatsink Temp (C):	24.035
CCDPCB Temp (C):	37.63
SecondaryPCB Temp (C):	34.773

Wavelength	RamanShift	Raw Counts	Dark Subtracted
787.061	30.1047	1062.45	647.65
787.2016	32.3739	1093.1	682.35
787.3422	34.6426	1134.6	721.4
787.4828	36.9109	1178.15	764.5
787.6235	39.1787	1231.3	813.15
787.7642	41.4461	1294.75	872.35
787.9049	43.7131	1352.05	924.3
788.0456	45.9796	1402.95	973.75
788.1863	48.2456	1468.25	1035.4
788.3271	50.5112	1526.5	1089.4
788.4679	52.7764	1599.8	1158.85
788.6087	55.0411	1678	1232.7
788.7496	57.3054	1751.1	1302.65
788.8904	59.5692	1833.55	1381.25
789.0313	61.8326	1925.15	1468.75
789.1722	64.0955	2023	1562.35
789.3132	66.3579	2149.15	1684.2
789.4541	68.6199	2294.65	1826.2
789.5951	70.8815	2518.4	2046.5
789.7361	73.1426	2970.75	2495.6
789.8771	75.4032	4133.7	3650.8
790.0181	77.6634	7128.05	6641
790.1592	79.9231	14731.9	14241.7
790.3003	82.1824	46987.45	46486.8
790.4414	84.4412	65535	65017.9
790.5825	86.6995	65535	64994
790.7237	88.9574	65535	64972
790.8648	91.2148	65535	64953.15
791.006	93.4717	65535	64944
791.1472	95.7282	65535	64940.3
791.2885	97.9842	65535	64935.05
791.4297	100.2398	65535	64936.25
791.571	102.4949	65535	64934.1
791.7123	104.7495	65535	64926.15
791.8536	107.0036	65535	64926.8
791.9949	109.2573	65535	64928.15
792.1363	111.5105	65535	64924.4
792.2777	113.7632	65535	64923.35
792.4191	116.0154	65535	64913.55
792.5605	118.2672	65535	64920
792.7019	120.5185	65535	64916.7
792.8434	122.7693	65535	64913.25
792.9849	125.0197	65535	64912.8
793.1264	127.2696	65535	64912.85
793.2679	129.519	65535	64905.9
793.4094	131.7679	65535	64901
793.551	134.0163	65535	64899.8
793.6926	136.2642	65535	64893.5
793.8342	138.5117	65535	64887.05
793.9758	140.7587	65535	64892
794.1175	143.0052	65535	64889.9
794.2591	145.2512	65535	64890.2
794.4008	147.4967	65535	64888.4
794.5425	149.7417	65535	64883.6
794.6842	151.9863	65535	64884
794.826	154.2304	65535	64881.45
794.9677	156.4739	65535	64874.25
795.1095	158.717	65535	64874.2
795.2513	160.9596	65535	64867.75
795.3931	163.2017	65535	64870
795.535	165.4433	65535	64865.75
795.6768	167.6844	65535	64862.15
795.8187	169.925	65535	64859.4
795.9606	172.1651	65535	64854.15
796.1025	174.4047	65535	64850.85
796.2445	176.6439	65535	64851.5
796.3864	178.8825	65535	64846.7
796.5284	181.1206	65535	64845.8
796.6704	183.3582	65535	64840.9
796.8124	185.5954	65535	64842.25
796.9544	187.832	65535	64835.8
797.0965	190.0681	65535	64832.85
797.2386	192.3037	65535	64831.2
797.3806	194.5388	65535	64827.05
797.5228	196.7734	65535	64826.1
797.6649	199.0075	65535	64819.4
797.807	201.2411	65535	64819
797.9492	203.4742	65535	64823.4
798.0914	205.7068	65535	64818.5
798.2336	207.9389	65535	64815.55
798.3758	210.1704	65535	64812.2
798.518	212.4015	65535	64811.6
798.6603	214.632	65535	64814.8
798.8025	216.862	65535	64827.95
798.9448	219.0915	65535	64834.25
799.0871	221.3205	65535	64832.5
799.2294	223.549	65535	64829.65
799.3718	225.777	65535	64836.5
799.5141	228.0044	65535	64836.9
799.6565	230.2314	65535	64834.35
799.7989	232.4578	65535	64830.55
799.9413	234.6837	65535	64824.15
800.0837	236.909	65535	64820.95
800.2262	239.1339	65535	64795.65
800.3687	241.3582	65535	64808.5
800.5111	243.582	65535	64777.1
800.6536	245.8053	65535	64793.95
800.7961	248.0281	65535	64796.9
800.9387	250.2503	65535	64793.55
801.0812	252.472	65535	64785.9
801.2238	254.6932	65535	64788.7
801.3664	256.9139	65535	64788.35
801.509	259.134	65535	64783.05
801.6516	261.3536	65535	64783.75
801.7942	263.5727	65535	64780.05
801.9369	265.7912	65535	64785.1
802.0795	268.0092	65535	64787.25
802.2222	270.2267	65535	64778.3
802.3649	272.4436	65535	64779.3
802.5076	274.6601	65535	64772.6
802.6504	276.8759	65535	64776.85
802.7931	279.0913	65535	64775.7
802.9359	281.3061	65535	64769.6
803.0787	283.5204	65535	64771
803.2215	285.7341	65535	64769.8
803.3643	287.9473	65535	64755.1
803.5071	290.16	65535	64759.3
803.6499	292.3721	65535	64766.15
803.7928	294.5837	65535	64766.8
803.9357	296.7947	65535	64766.5
804.0786	299.0052	65535	64767.5
804.2215	301.2152	65535	64759.95
804.3644	303.4246	65535	64765.5
804.5074	305.6334	65535	64763.6
804.6503	307.8418	65535	64760.55
804.7933	310.0495	65535	64760.55
804.9363	312.2568	65535	64761.45
805.0793	314.4635	65535	64756.95
805.2223	316.6696	65535	64758.65
805.3653	318.8752	65535	64744.95
805.5084	321.0802	65535	64756.95
805.6514	323.2847	65535	64754.55
805.7945	325.4887	65535	64756.35
805.9376	327.692	65535	64751.95
806.0807	329.8949	65535	64753.1
806.2238	332.0972	65535	64751.65
806.367	334.2989	65535	64747.7
806.5101	336.5001	65535	64747.2
806.6533	338.7007	65535	64744.1
806.7965	340.9008	65535	64743.8
806.9397	343.1003	65535	64743.95
807.0829	345.2992	65535	64739.7
807.2261	347.4976	65535	64738.25
807.3693	349.6955	65535	64735.95
807.5126	351.8927	65535	64736.7
807.6559	354.0895	65535	64728.55
807.7991	356.2856	65535	64732.85
807.9424	358.4812	65535	64734.5
808.0857	360.6763	65535	64734.95
808.2291	362.8707	65535	64732.2
808.3724	365.0646	65535	64731.5
808.5158	367.258	65535	64727.1
808.6591	369.4508	65535	64724.55
808.8025	371.643	65535	64726.85
808.9459	373.8346	65535	64723
809.0893	376.0257	65535	64719.6
809.2327	378.2162	65535	64717.6
809.3762	380.4062	65535	64718.2
809.5196	382.5956	65535	64715.95
809.6631	384.7844	65535	64720.85
809.8066	386.9726	65535	64717.3
809.9501	389.1603	65535	64722
810.0936	391.3474	65535	64686.85
810.2371	393.5339	65535	64715.9
810.3806	395.7199	65535	64723.65
810.5241	397.9052	65535	64725.45
810.6677	400.09	65535	64726.65
810.8113	402.2743	65535	64726.45
810.9548	404.4579	65535	64725.25
811.0984	406.641	65535	64725.5
811.2421	408.8235	65535	64722.35
811.3857	411.0054	65535	64721.25
811.5293	413.1868	65535	64720.95
811.673	415.3675	65535	64717.1
811.8166	417.5477	65535	64712.35
811.9603	419.7273	65535	64713
812.104	421.9064	65535	64702.35
812.2477	424.0848	65535	64708.25
812.3914	426.2627	65535	64707.6
812.5351	428.4399	65535	64710.6
812.6788	430.6166	65535	64702.15
812.8226	432.7928	65535	64701.45
812.9663	434.9683	65535	64700.3
813.1101	437.1432	65535	64699.6
813.2539	439.3176	65535	64702.85
813.3977	441.4914	65535	64701.55
813.5415	443.6645	65535	64698.05
813.6853	445.8371	65535	64699.9
813.8291	448.0091	65535	64698.85
813.973	450.1806	65535	64700
814.1168	452.3514	65535	64697.45
814.2607	454.5216	65535	64692.35
814.4046	456.6913	65535	64697.2
814.5485	458.8603	65535	64697.25
814.6924	461.0288	65535	64697.95
814.8363	463.1967	65535	64698.85
814.9802	465.3639	65535	64694
815.1241	467.5306	65535	64694.85
815.2681	469.6967	65535	64695.2
815.412	471.8622	65535	64697.6
815.556	474.0271	65535	64697.95
815.7	476.1914	65535	64692.45
815.844	478.3551	65535	64693.05
815.988	480.5182	65535	64693.85
816.132	482.6807	65535	64694.1
816.276	484.8426	65535	64694.55
816.4201	487.0039	65535	64692.7
816.5641	489.1647	65535	64691.95
816.7082	491.3248	65535	64689.15
816.8522	493.4843	65535	64690.65
816.9963	495.6432	65535	64691.75
817.1404	497.8015	65535	64684.65
817.2845	499.9592	65535	64687.15
817.4286	502.1163	65535	64683.45
817.5727	504.2728	65535	64685.85
817.7168	506.4287	65535	64686.45
817.861	508.5839	65535	64687.6
818.0051	510.7386	65535	64688.9
818.1493	512.8927	65535	64681.4
818.2935	515.0461	65535	64684.25
818.4377	517.199	65535	64680.7
818.5818	519.3512	65535	64682.4
818.726	521.5029	65535	64679.55
818.8703	523.6539	65535	64682.45
819.0145	525.8043	65535	64678.1
819.1587	527.9541	65535	64678.9
819.303	530.1033	65535	64680.8
819.4472	532.2519	65535	64682.95
819.5915	534.3999	65535	64676.15
819.7357	536.5472	65535	64679.55
819.88	538.694	65535	64677.7
820.0243	540.8401	65535	64677.75
820.1686	542.9856	65535	64674.55
820.3129	545.1305	65535	64673.85
820.4572	547.2748	65535	64674.05
820.6016	549.4185	65535	64673.7
820.7459	551.5615	65535	64674.6
820.8902	553.704	65535	64674.85
821.0346	555.8458	65535	64675.8
821.1789	557.987	65535	64674.4
821.3233	560.1276	65535	64674.7
821.4677	562.2675	65535	64675.25
821.6121	564.4069	65535	64676.2
821.7565	566.5456	65535	64676.05
821.9009	568.6837	65535	64672.9
822.0453	570.8212	65535	64673.4
822.1897	572.958	65535	64674.6
822.3342	575.0942	65535	64674.1
822.4786	577.2299	65535	64673.85
822.6231	579.3648	65535	64673.75
822.7675	581.4992	65535	64673.15
822.912	583.6329	65535	64677.45
823.0565	585.766	65535	64675.4
823.201	587.8985	65535	64674.7
823.3454	590.0304	65535	64661.55
823.4899	592.1616	65535	64668.85
823.6345	594.2922	65535	64669.55
823.779	596.4222	65535	64668.85
823.9235	598.5515	65535	64667.15
824.068	600.6802	65535	64667.25
824.2126	602.8083	65535	64671.95
824.3571	604.9358	65535	64669.95
824.5017	607.0626	65535	64667.45
824.6462	609.1888	65535	64665.8
824.7908	611.3144	65535	64667.15
824.9354	613.4393	65535	64670.25
825.08	615.5636	65535	64665.15
825.2246	617.6873	65535	64665.15
825.3692	619.8103	65535	64663.7
825.5138	621.9327	65535	64661.75
825.6584	624.0544	65535	64665.95
825.803	626.1756	65535	64663.95
825.9477	628.2961	65535	64663
826.0923	630.4159	65535	64664.35
826.237	632.5351	65535	64661.3
826.3816	634.6537	65535	64664.2
826.5263	636.7716	65535	64659.2
826.6709	638.8889	65535	64660.95
826.8156	641.0056	65535	64659.5
826.9603	643.1216	65535	64662.7
827.105	645.237	65535	64659.5
827.2497	647.3518	65535	64661.95
827.3944	649.4659	65535	64661.1
827.5391	651.5793	65535	64659.9
827.6838	653.6922	65535	64664.35
827.8285	655.8043	65535	64662
827.9733	657.9159	65535	64658.5
828.118	660.0268	65535	64658.15
828.2627	662.137	65535	64660.3
828.4075	664.2466	65535	64657.15
828.5522	666.3556	65535	64658.15
828.697	668.4639	65535	64654.45
828.8418	670.5716	65535	64659.7
828.9865	672.6786	65535	64658.2
829.1313	674.785	65535	64654.05
829.2761	676.8907	65535	64655.2
829.4209	678.9958	65535	64658.7
829.5657	681.1002	65535	64658.3
829.7105	683.204	65535	64653.75
829.8553	685.3072	65535	64651.95
830.0001	687.4097	65535	64656.75
830.1449	689.5115	65535	64652.25
830.2898	691.6127	65535	64655.95
830.4346	693.7132	65535	64654.85
830.5794	695.8131	65535	64642.1
830.7243	697.9123	65535	64652.6
830.8691	700.0109	65535	64653.4
831.014	702.1089	65535	64657.7
831.1588	704.2061	65535	64653.35
831.3037	706.3028	65535	64651.15
831.4486	708.3987	65535	64654.9
831.5935	710.4941	65535	64651.95
831.7383	712.5887	65535	64651.7
831.8832	714.6827	65535	64647.95
832.0281	716.7761	65535	64650.9
832.173	718.8688	65535	64649.45
832.3179	720.9608	65535	64647.2
832.4628	723.0522	65535	64646.8
832.6077	725.1429	65535	64647.95
832.7527	727.233	65535	64647.4
832.8976	729.3224	65535	64651.15
833.0425	731.4112	65535	64648.6
833.1874	733.4993	65535	64646.95
833.3324	735.5867	65535	64649.45
833.4773	737.6735	65535	64646.55
833.6222	739.7596	65535	64646.95
833.7672	741.845	65535	64648.55
833.9122	743.9298	65535	64646.3
834.0571	746.014	65535	64650.45
834.2021	748.0974	65535	64645
834.347	750.1802	65535	64644.75
834.492	752.2624	65535	64648.4
834.637	754.3439	65535	64643.3
834.782	756.4247	65535	64637
834.9269	758.5048	65535	64648.25
835.0719	760.5843	65535	64646.45
835.2169	762.6631	65535	64645.55
835.3619	764.7413	65535	64647.35
835.5069	766.8188	65535	64646.3
835.6519	768.8956	65535	64645.75
835.7969	770.9718	65535	64646.7
835.9419	773.0473	65535	64649.25
836.0869	775.1221	65535	64644.85
836.232	777.1962	65535	64647.2
836.377	779.2697	65535	64642.25
836.522	781.3426	65535	64627.8
836.667	783.4147	65535	64644.05
836.8121	785.4862	65535	64646.95
836.9571	787.557	65535	64645.3
837.1021	789.6271	65535	64647.6
837.2472	791.6966	65535	64643.35
837.3922	793.7654	65535	64643.65
837.5373	795.8335	65535	64643.65
837.6823	797.901	65535	64644.8
837.8274	799.9678	65535	64645.05
837.9724	802.0339	65535	64644.55
838.1175	804.0993	65535	64633.7
838.2626	806.1641	65535	64644.6
838.4076	808.2282	65535	64646.55
838.5527	810.2916	65535	64641.35
838.6978	812.3544	65535	64646.5
838.8428	814.4164	65535	64644.3
838.9879	816.4778	65535	64641.1
839.133	818.5385	65535	64642.7
839.2781	820.5986	65535	64644.85
839.4232	822.658	65535	64643.8
839.5682	824.7166	65535	64643.7
839.7133	826.7747	65535	64644
839.8584	828.832	65535	64643.5
840.0035	830.8886	65535	64642.35
840.1486	832.9446	65535	64640.1
840.2937	834.9999	65535	64644.9
840.4388	837.0545	65535	64638.75
840.5839	839.1085	65535	64642.65
840.729	841.1618	65535	64638.2
840.8741	843.2143	65535	64642.55
841.0192	845.2662	65535	64646.35
841.1643	847.3175	65535	64644.7
841.3095	849.368	65535	64643.8
841.4546	851.4179	65535	64641.85
841.5997	853.467	65535	64643.2
841.7448	855.5155	65535	64642.45
841.8899	857.5633	65535	64640.6
842.0351	859.6105	65535	64642.75
842.1802	861.6569	65535	64643.75
842.3253	863.7027	65535	64640.6
842.4704	865.7478	65535	64640.65
842.6156	867.7922	65535	64641.7
842.7607	869.8359	65535	64638.6
842.9058	871.8789	65535	64641
843.0509	873.9212	65535	64607
843.1961	875.9629	65535	64641.15
843.3412	878.0039	65535	64640
843.4863	880.0441	65535	64640.75
843.6315	882.0837	65535	64637.9
843.7766	884.1226	65535	64639.45
843.9218	886.1609	65535	64640.1
844.0669	888.1984	65535	64640.25
844.212	890.2352	65535	64641.5
844.3572	892.2714	65535	64634.6
844.5023	894.3069	65535	64640.45
844.6475	896.3416	65535	64639.3
844.7926	898.3757	65535	64639.1
844.9377	900.4091	65535	64637.4
845.0829	902.4418	65535	64634
845.228	904.4739	65535	64636
845.3732	906.5052	65535	64636.55
845.5183	908.5358	65535	64637.9
845.6635	910.5658	65535	64637.75
845.8086	912.595	65535	64638.85
845.9538	914.6236	65535	64639.65
846.0989	916.6515	65535	64636.7
846.2441	918.6786	65535	64638.6
846.3892	920.7051	65535	64635.1
846.5344	922.7309	65535	64635.85
846.6795	924.756	65535	64638.35
846.8246	926.7804	65535	64637
846.9698	928.8041	65535	64635.3
847.1149	930.8272	65535	64640.35
847.2601	932.8495	65535	64634.9
847.4052	934.8711	65535	64637.3
847.5504	936.892	65535	64638.6
847.6955	938.9123	65535	64636
847.8407	940.9318	65535	64637.4
847.9858	942.9506	65535	64636.4
848.131	944.9688	65535	64634.3
848.2761	946.9862	65535	64638.35
848.4213	949.003	65535	64640.8
848.5664	951.019	65535	64636.5
848.7115	953.0344	65535	64637.7
848.8567	955.0491	65535	64634.75
849.0018	957.063	65535	64637.15
849.147	959.0763	65535	64637.35
849.2921	961.0888	65535	64635.5
849.4373	963.1007	65535	64638.55
849.5824	965.1119	65535	64638.15
849.7275	967.1223	65535	64638.65
849.8727	969.1321	65535	64638.3
850.0178	971.1412	65535	64638.95
850.1629	973.1495	65535	64638.15
850.3081	975.1572	65535	64600
850.4532	977.1641	65535	64637
850.5983	979.1704	65535	64637.25
850.7435	981.1759	65535	64633.65
850.8886	983.1808	65535	64634.8
851.0337	985.1849	65535	64622.7
851.1788	987.1884	65535	64630.65
851.324	989.1911	65535	64634.35
851.4691	991.1932	65535	64635.6
851.6142	993.1945	65535	64638.2
851.7593	995.1951	65535	64635.3
851.9045	997.1951	65535	64629.15
852.0496	999.1943	65535	64638.25
852.1947	1001.1928	65535	64637.7
852.3398	1003.1906	65535	64636.9
852.4849	1005.1877	65535	64633.1
852.63	1007.1841	65535	64636.6
852.7751	1009.1798	65535	64635.35
852.9202	1011.1748	65535	64636.65
853.0653	1013.1691	65535	64637.55
853.2104	1015.1627	65535	64636.4
853.3555	1017.1556	65535	64636.7
853.5006	1019.1477	65535	64634.7
853.6457	1021.1392	65535	64639.1
853.7908	1023.1299	65535	64637.75
853.9359	1025.12	65535	64636.7
854.081	1027.1093	65535	64639.8
854.2261	1029.0979	65535	64642.7
854.3712	1031.0859	65535	64639.6
854.5163	1033.0731	65535	64635.5
854.6613	1035.0596	65535	64639.35
854.8064	1037.0454	65535	64635.65
854.9515	1039.0304	65535	64636.6
855.0965	1041.0148	65535	64639.8
855.2416	1042.9985	65535	64635.6
855.3867	1044.9814	65535	64637.95
855.5317	1046.9636	65535	64634.2
855.6768	1048.9452	65535	64639.95
855.8219	1050.926	65535	64637.85
855.9669	1052.9061	65535	64636.65
856.112	1054.8855	65535	64635.1
856.257	1056.8642	65535	64634.3
856.4021	1058.8421	65535	64632.9
856.5471	1060.8194	65535	64635.55
856.6921	1062.7959	65535	64636.65
856.8372	1064.7717	65535	64633.7
856.9822	1066.7469	65535	64634.8
857.1272	1068.7213	65535	64635.4
857.2723	1070.695	65535	64638.3
857.4173	1072.6679	65535	64633.8
857.5623	1074.6402	65535	64634.15
857.7073	1076.6117	65535	64628.75
857.8523	1078.5826	65535	64634.3
857.9973	1080.5527	65535	64632.45
858.1423	1082.5221	65535	64634.9
858.2873	1084.4908	65535	64635.55
858.4323	1086.4587	65535	64635.85
858.5773	1088.426	65535	64634.8
858.7223	1090.3925	65535	64631.4
858.8673	1092.3584	65535	64635.55
859.0123	1094.3235	65535	64636.05
859.1573	1096.2879	65535	64632.75
859.3022	1098.2515	65535	64634.6
859.4472	1100.2145	65535	64637.3
859.5922	1102.1767	65535	64635.4
859.7371	1104.1382	65535	64634.9
859.8821	1106.099	65535	64633.45
860.027	1108.0591	65535	64638.05
860.172	1110.0185	65535	64630.5
860.3169	1111.9771	65535	64634.3
860.4619	1113.9351	65535	64635.1
860.6068	1115.8923	65535	64633.85
860.7517	1117.8488	65535	64630.95
860.8967	1119.8045	65535	64633.75
861.0416	1121.7596	65535	64633.75
861.1865	1123.7139	65535	64635.55
861.3314	1125.6675	65535	64634.65
861.4763	1127.6204	65535	64637.1
861.6212	1129.5726	65535	64635.7
861.7661	1131.524	65535	64636.85
861.911	1133.4748	65535	64636.05
862.0559	1135.4248	65535	64631
862.2008	1137.3741	65535	64634.55
862.3457	1139.3226	65535	64632.4
862.4905	1141.2705	65535	64634.1
862.6354	1143.2176	65535	64628.9
862.7803	1145.164	65535	64631.85
862.9251	1147.1097	65535	64633.8
863.07	1149.0546	65535	64634.5
863.2148	1150.9989	65535	64636.75
863.3597	1152.9424	65535	64635.9
863.5045	1154.8852	65535	64634.95
863.6493	1156.8272	65535	64634.35
863.7942	1158.7686	65535	64626.3
863.939	1160.7092	65535	64634.4
864.0838	1162.6491	65535	64633.55
864.2286	1164.5883	65535	64635.35
864.3734	1166.5267	65535	64633.65
864.5182	1168.4644	65535	64636.3
864.663	1170.4014	65535	64628.65
864.8078	1172.3377	65535	64635.4
864.9526	1174.2732	65535	64636.15
865.0974	1176.2081	65535	64634.1
865.2421	1178.1421	65535	64631.55
865.3869	1180.0755	65535	64633.35
865.5317	1182.0082	65535	64635.6
865.6764	1183.9401	65535	64633.5
865.8212	1185.8713	65535	64636.1
865.9659	1187.8017	65535	64634.95
866.1106	1189.7315	65535	64639.05
866.2554	1191.6605	65535	64610.1
866.4001	1193.5888	65535	64635.8
866.5448	1195.5163	65535	64637.05
866.6895	1197.4432	65535	64634.85
866.8342	1199.3693	65535	64636.1
866.9789	1201.2947	65535	64633.45
867.1236	1203.2193	65535	64633.7
867.2683	1205.1432	65535	64634.8
867.413	1207.0664	65535	64636.1
867.5576	1208.9889	65535	64633.25
867.7023	1210.9106	65535	64633.2
867.847	1212.8316	65535	64637.8
867.9916	1214.7519	65535	64627.8
868.1363	1216.6715	65535	64636.5
868.2809	1218.5903	65535	64634.1
868.4255	1220.5084	65535	64635.35
868.5701	1222.4257	65535	64633.65
868.7148	1224.3424	65535	64636.8
868.8594	1226.2583	65535	64631.5
869.004	1228.1735	65535	64633.2
869.1486	1230.0879	65535	64635.85
869.2932	1232.0016	65535	64635.6
869.4377	1233.9146	65535	64633.8
869.5823	1235.8269	65535	64634.8
869.7269	1237.7384	65535	64635.3
869.8715	1239.6492	65535	64634.45
870.016	1241.5592	65535	64634.9
870.1606	1243.4686	65535	64633.9
870.3051	1245.3772	65535	64634.3
870.4496	1247.285	65535	64635.3
870.5941	1249.1922	65535	64635.4
870.7387	1251.0986	65535	64634.75
870.8832	1253.0042	65535	64634.25
871.0277	1254.9092	65535	64634.7
871.1722	1256.8134	65535	64635.5
871.3167	1258.7169	65535	64633.25
871.4611	1260.6196	65535	64634.75
871.6056	1262.5216	65535	64632.75
871.7501	1264.4229	65535	64638
871.8945	1266.3234	65535	64636.65
872.039	1268.2232	65535	64633.3
872.1834	1270.1223	65535	64635.55
872.3278	1272.0207	65535	64634.1
872.4723	1273.9183	65535	64627.9
872.6167	1275.8151	65535	64634.85
872.7611	1277.7113	65535	64633.55
872.9055	1279.6067	65535	64634.65
873.0499	1281.5014	65535	64631.8
873.1943	1283.3953	65535	64635.45
873.3386	1285.2885	65535	64634.8
873.483	1287.181	65535	64635.3
873.6274	1289.0727	65535	64636.65
873.7717	1290.9637	65535	64633.45
873.9161	1292.854	65535	64637.2
874.0604	1294.7435	65535	64636.2
874.2047	1296.6323	65535	64633.9
874.349	1298.5204	65535	64630.9
874.4933	1300.4077	65535	64630.55
874.6376	1302.2943	65535	64632.65
874.7819	1304.1802	65535	64635.3
874.9262	1306.0653	65535	64632.95
875.0705	1307.9497	65535	64636.05
875.2147	1309.8333	65535	64635.5
875.359	1311.7162	65535	64636.6
875.5032	1313.5984	65535	64631.7
875.6475	1315.4798	65535	64626.15
875.7917	1317.3605	65535	64618.55
875.9359	1319.2405	65535	64633.6
876.0801	1321.1197	65535	64633.8
876.2243	1322.9982	65535	64630.5
876.3685	1324.876	65535	64635.45
876.5127	1326.753	65535	64635.75
876.6569	1328.6293	65535	64631.5
876.801	1330.5048	65535	64631.05
876.9452	1332.3796	65535	64636.75
877.0893	1334.2537	65535	64607.35
877.2335	1336.127	65535	64634.2
877.3776	1337.9996	65535	64636.4
877.5217	1339.8714	65535	64633.35
877.6658	1341.7426	65535	64591.2
877.8099	1343.6129	65535	64634
877.954	1345.4826	65535	64637.3
878.0981	1347.3515	65535	64630.95
878.2422	1349.2196	65535	64631.45
878.3862	1351.087	65535	64635.55
878.5303	1352.9537	65535	64632.6
878.6743	1354.8197	65535	64635.5
878.8184	1356.6849	65535	64634.7
878.9624	1358.5493	65535	64632.2
879.1064	1360.4131	65535	64634.5
879.2504	1362.276	65535	64635.55
879.3944	1364.1383	65535	64633.5
879.5384	1365.9998	65535	64629.7
879.6823	1367.8606	65535	64633.45
879.8263	1369.7206	65535	64634.65
879.9702	1371.5799	65535	64632.8
880.1142	1373.4384	65535	64635.25
880.2581	1375.2962	65535	64632.9
880.402	1377.1533	65535	64635.05
880.5459	1379.0096	65535	64634.65
880.6898	1380.8652	65535	64634.65
880.8337	1382.7201	65535	64635.85
880.9776	1384.5742	65535	64635
881.1215	1386.4275	65535	64633.25
881.2653	1388.2802	65535	64636.8
881.4092	1390.132	65535	64634.6
881.553	1391.9832	65535	64632.45
881.6968	1393.8336	65535	64633.65
881.8406	1395.6832	65535	64632.55
881.9844	1397.5322	65535	64637.2
882.1282	1399.3803	65535	64631.9
882.272	1401.2278	65535	64635.3
882.4158	1403.0745	65535	64635.95
882.5595	1404.9204	65535	64635.55
882.7033	1406.7656	65535	64634.2
882.847	1408.6101	65535	64632.1
882.9908	1410.4538	65535	64633.7
883.1345	1412.2968	65535	64636.25
883.2782	1414.139	65535	64634.95
883.4219	1415.9805	65535	64635.7
883.5656	1417.8213	65535	64628.2
883.7092	1419.6613	65535	64635.15
883.8529	1421.5006	65535	64634.75
883.9965	1423.3391	65535	64633.1
884.1402	1425.1769	65535	64633.8
884.2838	1427.0139	65535	64633.35
884.4274	1428.8502	65535	64634.5
884.571	1430.6858	65535	64637.05
884.7146	1432.5206	65535	64635.95
884.8582	1434.3547	65535	64636.1
885.0018	1436.188	65535	64635.5
885.1453	1438.0206	65535	64633.65
885.2889	1439.8524	65535	64633.8
885.4324	1441.6835	65535	64631.75
885.5759	1443.5139	65535	64632.05
885.7194	1445.3435	65535	64635.55
885.8629	1447.1724	65535	64635.7
886.0064	1449.0005	65535	64637.3
886.1499	1450.8279	65535	64633.65
886.2933	1452.6545	65535	64633.95
886.4368	1454.4804	65535	64636.9
886.5802	1456.3056	65535	64628.1
886.7237	1458.13	65535	64634.95
886.8671	1459.9536	65535	64634.15
887.0105	1461.7766	65535	64634.4
887.1539	1463.5987	65535	64631.7
887.2972	1465.4202	65535	64634.3
887.4406	1467.2409	65535	64635.05
887.584	1469.0608	65535	64636.55
887.7273	1470.88	65535	64633.85
887.8706	1472.6984	65535	64633.8
888.0139	1474.5161	65535	64630.9
888.1572	1476.3331	65535	64637.05
888.3005	1478.1493	65535	64633.25
888.4438	1479.9648	65535	64637.8
888.5871	1481.7795	65535	64635.7
888.7303	1483.5935	65535	64635.25
888.8736	1485.4067	65535	64635.95
889.0168	1487.2192	65535	64634.75
889.16	1489.031	65524.85	64621.5
889.3032	1490.842	65529.85	64630.6
889.4464	1492.6522	65530.25	64630.95
889.5896	1494.4618	65523.25	64620.2
889.7327	1496.2705	65530.65	64633.85
889.8759	1498.0785	65470.85	64568.45
890.019	1499.8858	65523.65	64624.7
890.1622	1501.6924	65532.75	64632.55
890.3053	1503.4981	65504.55	64607
890.4484	1505.3032	65519.65	64620.2
890.5914	1507.1075	65484.65	64585.5
890.7345	1508.911	65482.25	64583.3
890.8776	1510.7138	65471.4	64569.5
891.0206	1512.5159	65500.25	64599.35
891.1637	1514.3172	65332.05	64432.35
891.3067	1516.1178	65376.8	64477.15
891.4497	1517.9176	65457.75	64557
891.5927	1519.7166	65373.1	64474
891.7357	1521.515	65334.8	64429.55
891.8786	1523.3126	65197.45	64299.7
892.0216	1525.1094	65353.15	64452.5
892.1645	1526.9055	65264.85	64367.9
892.3074	1528.7008	65288.8	64388.1
892.4503	1530.4954	65048.45	64142.35
892.5932	1532.2893	65269.75	64373.15
892.7361	1534.0824	64978.3	64074.95
892.879	1535.8747	64776.1	63876.95
893.0218	1537.6663	65259.55	64360.5
893.1647	1539.4572	64156.95	63259.6
893.3075	1541.2473	64715.75	63816.35
893.4503	1543.0367	64596.55	63699.35
893.5931	1544.8253	64448.65	63546.15
893.7359	1546.6132	64589.8	63688.35
893.8787	1548.4003	64163.75	63254.3
894.0214	1550.1867	63988.05	63079.55
894.1642	1551.9723	63801.2	62898.75
894.3069	1553.7572	63888.95	62990.3
894.4496	1555.5414	64184.7	63288
894.5923	1557.3247	62529.35	61631.1
894.735	1559.1074	63919	63021.1
894.8777	1560.8893	63260.25	62361.4
895.0204	1562.6705	63489.6	62591.15
895.163	1564.4509	62422	61525.35
895.3056	1566.2305	62920.1	62023.45
895.4482	1568.0094	63623.3	62727.75
895.5908	1569.7876	63017.05	62121.75
895.7334	1571.565	62370.6	61472.35
895.876	1573.3417	62750.8	61855.75
896.0186	1575.1176	62556.45	61659.1
896.1611	1576.8928	62218.95	61320.55
896.3036	1578.6672	61637.65	60743.55
896.4461	1580.4409	61886.1	60990.55
896.5886	1582.2138	61062.6	60165.7
896.7311	1583.986	61252.2	60354.6
896.8736	1585.7575	60575.35	59680.15
897.0161	1587.5282	60578.35	59682.45
897.1585	1589.2981	60658.8	59764.5
897.3009	1591.0673	59921.3	59026.15
897.4433	1592.8358	59545.75	58650.35
897.5857	1594.6035	60001.7	59103.7
897.7281	1596.3704	60040.45	59144.05
897.8705	1598.1366	59113.45	58216.3
898.0128	1599.9021	58681.3	57788
898.1551	1601.6668	59228.8	58329.1
898.2975	1603.4308	58877.45	57979.75
898.4398	1605.194	59213	58310.95
898.5821	1606.9564	58100.15	57203.95
898.7243	1608.7182	58606	57706.9
898.8666	1610.4791	58098.75	57203.55
899.0088	1612.2394	58436.55	57542.75
899.1511	1613.9988	58075.2	57180.55
899.2933	1615.7576	58673	57777.65
899.4355	1617.5156	58607.3	57703.95
899.5776	1619.2728	59341.85	58444
899.7198	1621.0293	58319.2	57423.05
899.862	1622.785	58300.65	57401.15
900.0041	1624.54	58607.85	57709.5
900.1462	1626.2942	58124.75	57228.45
900.2883	1628.0477	57036.85	56138.35
900.4304	1629.8005	56554.25	55655.9
900.5725	1631.5525	56870.8	55976.8
900.7145	1633.3037	55919.15	55023.05
900.8566	1635.0542	55875.65	54982.6
900.9986	1636.804	55864.95	54971.45
901.1406	1638.553	55265.15	54250.8
901.2826	1640.3013	55295.7	54400.8
901.4245	1642.0488	54833.2	53937.1
901.5665	1643.7955	54935.45	54042.5
901.7085	1645.5416	54609.85	53714.15
901.8504	1647.2868	54406.65	53511.8
901.9923	1649.0313	54728.15	53834.7
902.1342	1650.7751	54504.45	53605.6
902.2761	1652.5181	54267.35	53372.7
902.4179	1654.2604	54337.7	53442.35
902.5598	1656.0019	54785.85	53891.45
902.7016	1657.7427	54647.7	53754.05
902.8434	1659.4828	55018.95	54124.35
902.9852	1661.222	54943.85	54049.45
903.127	1662.9606	55035.7	54143.15
903.2687	1664.6984	54597.15	53701.6
903.4105	1666.4354	54367.35	53470.15
903.5522	1668.1717	53494.95	52600.8
903.6939	1669.9072	52858.8	51964.8
903.8356	1671.642	52503.9	51604.5
903.9773	1673.3761	52120.05	51224.45
904.119	1675.1094	51757.4	50863.05
904.2606	1676.8419	51399.7	50504.4
904.4022	1678.5737	51049.75	50154.65
904.5439	1680.3048	50794.45	49898.75
904.6855	1682.0351	50483.95	49590.45
904.827	1683.7646	50176.8	49279.25
904.9686	1685.4934	50138.15	49245
905.1101	1687.2215	49620.75	48725.75
905.2517	1688.9488	49608.85	48714.1
905.3932	1690.6754	49064.05	48169.85
905.5347	1692.4012	49100.15	48206.55
905.6761	1694.1263	48926.45	48033.15
905.8176	1695.8506	48740.55	47845.35
905.9591	1697.5742	48573.25	47680.15
906.1005	1699.297	48378.85	47484.15
906.2419	1701.0191	48073.95	47179.9
906.3833	1702.7404	47857.05	46966.3
906.5246	1704.461	47550.35	46655.1
906.666	1706.1808	47389.05	46492.25
906.8073	1707.8999	47257.9	46364.1
906.9487	1709.6182	47107.5	46213.1
907.09	1711.3358	46930.4	46038.6
907.2313	1713.0527	46802.65	45910
907.3725	1714.7688	46565.05	45666.35
907.5138	1716.4841	46303.4	45409.1
907.655	1718.1987	46352.95	45454.15
907.7962	1719.9126	46113.55	45221.35
907.9374	1721.6257	45918.65	45022.75
908.0786	1723.338	45849.1	44955.15
908.2198	1725.0496	45519.55	44626.05
908.3609	1726.7605	45430.45	44536.95
908.502	1728.4706	45251.85	44357.6
908.6431	1730.18	45000.05	44103.75
908.7842	1731.8886	44866.25	43974.35
908.9253	1733.5964	44816.45	43902.4
909.0664	1735.3036	44614.65	43718.15
909.2074	1737.0099	44486.05	43592.75
909.3484	1738.7156	44362.15	43470.3
909.4894	1740.4204	44107.05	43209.1
909.6304	1742.1246	44050.15	43153.85
909.7714	1743.8279	43949.45	43056.25
909.9123	1745.5306	43825.35	42933.3
910.0532	1747.2325	43667.65	42773.9
910.1941	1748.9336	43524.45	42632.9
910.335	1750.634	43338.95	42444.5
910.4759	1752.3336	43210.5	42319.3
910.6168	1754.0325	43111.6	42217.7
910.7576	1755.7307	42997.4	42103.7
910.8984	1757.4281	42979.2	42086.45
911.0392	1759.1247	42863.45	41960.8
911.18	1760.8206	42689.9	41791.2
911.3208	1762.5158	42642	41746.25
911.4615	1764.2102	42370.55	41478.25
911.6022	1765.9039	42240.55	41348.3
911.7429	1767.5968	42156.85	41265.25
911.8836	1769.289	41998.6	41103.55
912.0243	1770.9804	41913.3	41019.95
912.1649	1772.6711	41848.5	40956.75
912.3056	1774.361	41686.35	40791.85
912.4462	1776.0502	41610.95	40718.3
912.5868	1777.7386	41495.9	40599.65
912.7274	1779.4263	41380.45	40488.85
912.8679	1781.1132	41355.45	40461.25
913.0084	1782.7994	41100.85	40208.3
913.149	1784.4849	41014.45	40123.15
913.2895	1786.1696	40872.95	39971.85
913.4299	1787.8535	40735.45	39843.25
913.5704	1789.5367	40548.5	39655.05
913.7108	1791.2192	40579.8	39687.4
913.8513	1792.9009	40385.6	39464.05
913.9917	1794.5818	40297.85	39401.4
914.132	1796.2621	40165.95	39272.85
914.2724	1797.9415	40046.65	39154.8
914.4128	1799.6202	39884.15	38990.45
914.5531	1801.2982	39809.1	38914.7
914.6934	1802.9755	39688.95	38794.25
914.8337	1804.6519	39647.6	38753.4
914.9739	1806.3277	39420.4	38527.6
915.1142	1808.0027	39239.5	38346.1
915.2544	1809.6769	39225	38335.4
915.3946	1811.3504	39104.4	38210.65
915.5348	1813.0231	38952.95	38059.65
915.675	1814.6951	38901.75	38008.5
915.8151	1816.3664	38902.15	38007.6
915.9553	1818.0369	38752.6	37859.6
916.0954	1819.7067	38545.5	37653.2
916.2355	1821.3757	38476.85	37579.9
916.3755	1823.044	38391.55	37498.8
916.5156	1824.7115	38314.1	37419.4
916.6556	1826.3783	38093.25	37202.45
916.7956	1828.0443	37959.3	37068.7
916.9356	1829.7096	37842.4	36948.45
917.0756	1831.3741	37829.65	36932.6
917.2155	1833.0379	37710.85	36817.6
917.3555	1834.701	37576.35	36682.2
917.4954	1836.3633	37492.8	36599.55
917.6353	1838.0248	37384.5	36492.35
917.7751	1839.6856	37291.25	36400.35
917.915	1841.3457	37276.65	36384.25
918.0548	1843.005	37131.65	36238.4
918.1946	1844.6636	37078.45	36185.65
918.3344	1846.3214	36924	36033
918.4742	1847.9785	36883.4	35990.5
918.6139	1849.6349	36768.95	35872.9
918.7537	1851.2904	36636.05	35733.3
918.8934	1852.9453	36527.9	35634.4
919.0331	1854.5994	36340.65	35445.2
919.1727	1856.2528	36457.4	35560.35
919.3124	1857.9054	36264.25	35371.35
919.452	1859.5572	36187.7	35296.25
919.5916	1861.2083	36112.05	35217
919.7312	1862.8587	36036.2	35143.85
919.8708	1864.5084	36009.6	35114.4
920.0103	1866.1572	35846.35	34954.65
920.1498	1867.8054	35679.45	34785.65
920.2893	1869.4528	35634.95	34741.55
920.4288	1871.0994	35472.4	34579.1
920.5683	1872.7453	35392.15	34497.15
920.7077	1874.3905	35300.05	34400.6
920.8471	1876.0349	35137.4	34242.8
920.9865	1877.6786	35124.8	34232.1
921.1259	1879.3215	35126.8	34233.1
921.2653	1880.9637	34985.7	34092.85
921.4046	1882.6051	34929.1	34036.9
921.5439	1884.2458	34772.05	33875.6
921.6832	1885.8858	34660.6	33766.45
921.8225	1887.525	34585.15	33691.25
921.9617	1889.1634	34391.6	33499.9
922.101	1890.8011	34280.1	33384.95
922.2402	1892.4381	34203.15	33310.8
922.3794	1894.0743	34185.8	33293.05
922.5185	1895.7098	34073.45	33180.2
922.6577	1897.3446	34014.75	33121.35
922.7968	1898.9786	33860.4	32962.35
922.9359	1900.6118	33820.15	32927.95
923.075	1902.2443	33600.4	32707.1
923.214	1903.8761	33540.65	32648
923.3531	1905.5071	33319	32423.65
923.4921	1907.1374	33211.9	32317.6
923.6311	1908.7669	33157.3	32264.85
923.77	1910.3957	33106.9	32212.6
923.909	1912.0237	32860.05	31966.15
924.0479	1913.651	32833.8	31937.2
924.1868	1915.2776	32728.4	31837.6
924.3257	1916.9034	32564.05	31673.4
924.4646	1918.5285	32418.1	31526.8
924.6034	1920.1528	32259.45	31366.45
924.7422	1921.7764	32199.85	31306.85
924.881	1923.3992	32097.15	31205.6
925.0198	1925.0213	31854.5	30961.15
925.1586	1926.6427	31711.55	30820.3
925.2973	1928.2633	31729.95	30726.3
925.436	1929.8832	31533.15	30639.8
925.5747	1931.5023	31374.55	30481.75
925.7134	1933.1207	31300.45	30407.5
925.852	1934.7383	31249.05	30355.05
925.9906	1936.3552	31099.8	30210.35
926.1292	1937.9714	31024.35	30133.4
926.2678	1939.5868	30900.75	30008.05
926.4064	1941.2015	30740.85	29847.7
926.5449	1942.8154	30604.35	29712.4
926.6834	1944.4286	30451	29556.95
926.8219	1946.041	30359.45	29447.1
926.9604	1947.6528	30127.9	29228.9
927.0988	1949.2637	30038.9	29146.8
927.2372	1950.8739	30025.25	29133.75
927.3756	1952.4834	29914.35	29021.1
927.514	1954.0921	29806.55	28913.05
927.6523	1955.7001	29746.15	28850.1
927.7907	1957.3074	29625.6	28732
927.929	1958.9139	29513.55	28621.65
928.0673	1960.5197	29401.35	28506.85
928.2055	1962.1247	29207.1	28315.55
928.3438	1963.729	29115.65	28225.15
928.482	1965.3325	28983.1	28066.3
928.6202	1966.9353	28855.45	27964.65
928.7584	1968.5374	28747.2	27853.4
928.8965	1970.1387	28685.55	27792.35
929.0346	1971.7393	28598.65	27705.85
929.1727	1973.3392	28477.4	27586.65
929.3108	1974.9383	28385.7	27494.85
929.4489	1976.5366	28226.35	27334.6
929.5869	1978.1342	28245.3	27354.95
929.7249	1979.7311	28131.55	27238.7
929.8629	1981.3273	28053.4	27160.7
930.0009	1982.9227	27964.05	27070.5
930.1388	1984.5173	27819.65	26926.15
930.2767	1986.1112	27648.35	26756.5
930.4146	1987.7044	27623.65	26733.75
930.5525	1989.2968	27504.75	26611.1
930.6904	1990.8885	27432.35	26536.35
930.8282	1992.4795	27399.6	26506.2
930.966	1994.0697	27243.65	26353.75
931.1038	1995.6592	27188.2	26298.1
931.2415	1997.2479	27079.75	26188.45
931.3793	1998.8359	26978.45	26086
931.517	2000.4232	26818.05	25925.95
931.6547	2002.0097	26716.85	25828.4
931.7923	2003.5955	26606.4	25715.5
931.93	2005.1805	26550.75	25658.4
932.0676	2006.7648	26509.15	25617.2
932.2052	2008.3484	26393.5	25500.55
932.3427	2009.9312	26431.25	25536.3
932.4803	2011.5133	26252.85	25362.15
932.6178	2013.0946	26219.9	25327.45
932.7553	2014.6752	26112.2	25221.2
932.8928	2016.2551	26058.1	25165.95
933.0302	2017.8342	25945.35	25054.75
933.1676	2019.4126	25810.6	24920.25
933.305	2020.9902	25686.25	24795.1
933.4424	2022.5672	25649.1	24755.1
933.5798	2024.1433	25600.05	24703.7
933.7171	2025.7188	25451.8	24560.1
933.8544	2027.2935	25345.45	24454.55
933.9917	2028.8674	25256.05	24365.05
934.129	2030.4406	25193.55	24304.35
934.2662	2032.0131	25073.9	24182.1
934.4034	2033.5849	24980.3	24082.45
934.5406	2035.1559	24910.65	24020.45
934.6778	2036.7261	24885.7	23995.6
934.8149	2038.2957	24819.25	23928.9
934.952	2039.8645	24779.15	23887.7
935.0891	2041.4325	24720.05	23825.15
935.2262	2042.9998	24583.75	23692.1
935.3632	2044.5664	24574.65	23681.4
935.5002	2046.1323	24455.9	23564.5
935.6372	2047.6974	24367.7	23477.1
935.7742	2049.2617	24287.85	23394.75
935.9111	2050.8254	24219.55	23305.45
936.048	2052.3883	24243.1	23350.8
936.1849	2053.9504	24134.75	23243.8
936.3218	2055.5118	24007.45	23114.55
936.4586	2057.0725	23869	22975.3
936.5955	2058.6325	23850.45	22958.45
936.7323	2060.1917	23747.55	22856.85
936.869	2061.7502	23721.4	22828.45
937.0058	2063.3079	23617.5	22728.05
937.1425	2064.8649	23521.2	22627.25
937.2792	2066.4212	23477	22585.85
937.4159	2067.9767	23388.55	22497.55
937.5525	2069.5315	23310.7	22419.55
937.6891	2071.0856	23166.7	22274.95
937.8257	2072.6389	23087.15	22195.8
937.9623	2074.1915	22990.55	22101.6
938.0989	2075.7433	22836.7	21943.2
938.2354	2077.2945	22779	21888.95
938.3719	2078.8448	22695.2	21802.15
938.5084	2080.3945	22689.75	21798.35
938.6448	2081.9434	22599.8	21707.2
938.7812	2083.4916	22523.45	21633.7
938.9176	2085.039	22463.65	21570.25
939.054	2086.5857	22373	21479.3
939.1903	2088.1317	22325.25	21433.35
939.3267	2089.677	22253.25	21361.2
939.463	2091.2215	22185.35	21294.8
939.5992	2092.7652	22113.6	21220.1
939.7355	2094.3083	22049.05	21155.75
939.8717	2095.8506	21975.2	21083.95
940.0079	2097.3921	21963.45	21071.15
940.1441	2098.933	21870.3	20979.2
940.2802	2100.4731	21824.75	20934.2
940.4163	2102.0124	21801.45	20905.15
940.5524	2103.5511	21729.65	20837.5
940.6885	2105.089	21670.8	20779
940.8245	2106.6261	21584.55	20691.65
940.9606	2108.1626	21500.25	20608.7
941.0965	2109.6983	21494.95	20573.25
941.2325	2111.2332	21396.85	20504.25
941.3684	2112.7675	21287.55	20395.75
941.5044	2114.301	21248.6	20355
941.6403	2115.8337	21249.15	20357.4
941.7761	2117.3657	21145.6	20254.4
941.912	2118.897	21136.25	20241.65
942.0478	2120.4276	21018.55	20119.9
942.1835	2121.9575	20933.3	20040.35
942.3193	2123.4866	20956.8	20049.15
942.455	2125.0149	20861.65	19968.25
942.5907	2126.5426	20716.8	19826.25
942.7264	2128.0695	20671.1	19777.3
942.8621	2129.5956	20613.95	19724.1
942.9977	2131.1211	20607.25	19711.05
943.1333	2132.6458	20535.15	19644.25
943.2689	2134.1698	20479.8	19587.2
943.4044	2135.693	20418.4	19525.3
943.54	2137.2155	20384.35	19489.4
943.6755	2138.7373	20289.25	19395.65
943.8109	2140.2584	20218.7	19325.2
943.9464	2141.7787	20143.85	19246.8
944.0818	2143.2983	20023.35	19131.75
944.2172	2144.8171	19905.5	19016.6
944.3526	2146.3353	19860.3	18967.6
944.4879	2147.8527	19787.65	18895.85
944.6232	2149.3693	19801.95	18911.85
944.7585	2150.8853	19709.75	18816.6
944.8938	2152.4005	19599.1	18706.55
945.029	2153.9149	19584.6	18692
945.1642	2155.4287	19516	18624.8
945.2994	2156.9417	19480.45	18586.6
945.4346	2158.454	19393.7	18497
945.5697	2159.9655	19318.95	18428.85
945.7048	2161.4764	19248.6	18357.55
945.8399	2162.9865	19222.75	18331.4
945.9749	2164.4958	19217.05	18324.4
946.1099	2166.0045	19106.25	18212.9
946.2449	2167.5124	19078.4	18187.8
946.3799	2169.0195	19037.2	18143.05
946.5148	2170.526	18976.95	18084.3
946.6498	2172.0317	18896.75	18005.6
946.7846	2173.5367	18838.6	17945.15
946.9195	2175.0409	18800.55	17910.4
947.0543	2176.5445	18815.4	17924.9
947.1891	2178.0473	18705.05	17813.15
947.3239	2179.5494	18587.95	17692.65
947.4587	2181.0507	18507.1	17613.95
947.5934	2182.5513	18470.4	17578.4
947.7281	2184.0512	18440.5	17548.75
947.8628	2185.5504	18371.6	17479.55
947.9974	2187.0488	18268.45	17379.75
948.132	2188.5465	18232.25	17339.25
948.2666	2190.0435	18168.3	17277.9
948.4012	2191.5397	18063.85	17172.85
948.5357	2193.0353	18015.85	17125.1
948.6702	2194.5301	17914.45	17021.3
948.8047	2196.0241	17858.45	16964.95
948.9392	2197.5175	17819.5	16927.6
949.0736	2199.0101	17743.6	16848.1
949.208	2200.502	17657.4	16766.6
949.3424	2201.9931	17580.9	16690.05
949.4767	2203.4835	17497.1	16603.4
949.611	2204.9733	17460.05	16561.55
949.7453	2206.4622	17408.55	16517.25
949.8796	2207.9505	17340.95	16445.3
950.0138	2209.438	17255.4	16366
950.148	2210.9248	17190.4	16297.1
950.2822	2212.4109	17148.25	16256.3
950.4164	2213.8962	17078.5	16183.15
950.5505	2215.3809	17052.7	16158.1
950.6846	2216.8648	16985.9	16092.8
950.8186	2218.3479	16957.6	16060.85
950.9527	2219.8304	16858.05	15964.05
951.0867	2221.3121	16806.05	15911.6
951.2207	2222.7931	16700	15807.2
951.3546	2224.2733	16670.7	15778.95
951.4886	2225.7529	16599.1	15705.8
951.6225	2227.2317	16575.65	15680.1
951.7563	2228.7098	16518.35	15629
951.8902	2230.1872	16471	15578.8
952.024	2231.6638	16406.3	15514.75
952.1578	2233.1397	16318.75	15420.95
952.2916	2234.6149	16288.1	15397
952.4253	2236.0894	16207.9	15313.35
952.559	2237.5632	16223.9	15320.95
952.6927	2239.0362	16125.35	15232.95
952.8263	2240.5085	16056.55	15162.35
952.9599	2241.9801	16006.3	15113.75
953.0935	2243.4509	15977.35	15086
953.2271	2244.921	15909.2	15015.65
953.3606	2246.3904	15815.85	14922.85
953.4941	2247.8591	15761.7	14871.15
953.6276	2249.3271	15726.65	14833.45
953.7611	2250.7943	15701.5	14809.25
953.8945	2252.2608	15599.15	14706.5
954.0279	2253.7266	15542.95	14653.1
954.1612	2255.1917	15523.7	14631.8
954.2946	2256.656	15452.4	14559.5
954.4279	2258.1197	15415	14522.75
954.5612	2259.5826	15357.55	14461.75
954.6944	2261.0447	15310.55	14414.9
954.8276	2262.5062	15255.15	14361.35
954.9608	2263.9669	15222.1	14327.55
955.094	2265.4269	15196	14306.2
955.2271	2266.8862	15137.6	14245.25
955.3602	2268.3448	15128.05	14235.25
955.4933	2269.8026	15071.5	14179.95
955.6264	2271.2598	14990.8	14098.85
955.7594	2272.7162	14972.4	14082.75
955.8924	2274.1719	14920.55	14029.55
956.0253	2275.6268	14848.2	13954.6
956.1583	2277.0811	14864.55	13970.05
956.2912	2278.5346	14801.25	13908.25
956.4241	2279.9874	14755.75	13862.75
956.5569	2281.4395	14712.9	13822.25
956.6897	2282.8908	14638.4	13741.25
956.8225	2284.3414	14595.6	13703.1
956.9553	2285.7914	14553.5	13663.55
957.088	2287.2406	14484.9	13592.2
957.2207	2288.689	14450.05	13556.25
957.3534	2290.1368	14412	13520.45
957.486	2291.5838	14341.3	13447.65
957.6186	2293.0302	14309.55	13416.55
957.7512	2294.4758	14235.75	13343.5
957.8838	2295.9206	14205.55	13311.8
958.0163	2297.3648	14136.65	13244.7
958.1488	2298.8082	14124.35	13232.6
958.2813	2300.251	14084.85	13193.8
958.4137	2301.693	14029.3	13133.8
958.5461	2303.1343	14050.4	13157.25
958.6785	2304.5748	13962.2	13070.25
958.8108	2306.0147	13872.7	12982.05
958.9432	2307.4538	13870.85	12977.15
959.0754	2308.8922	13808	12917.85
959.2077	2310.3299	13780.2	12888.1
959.3399	2311.7669	13706.35	12814.45
959.4721	2313.2031	13694.45	12803.15
959.6043	2314.6387	13649.95	12755.8
959.7365	2316.0735	13574.05	12683.45
959.8686	2317.5076	13553	12659.8
960.0006	2318.941	13513.35	12620.1
960.1327	2320.3737	13459.85	12566.6
960.2647	2321.8056	13420	12525.7
960.3967	2323.2369	13352.7	12460.65
960.5287	2324.6674	13346.3	12451.1
960.6606	2326.0972	13242.85	12349.2
960.7925	2327.5263	13233.75	12342.25
960.9244	2328.9547	13172.9	12279.1
961.0562	2330.3823	13153.4	12260.65
961.1881	2331.8092	13128.35	12231.05
961.3198	2333.2355	13065.9	12172.4
961.4516	2334.661	13049.9	12157.6
961.5833	2336.0858	12995.65	12100.05
961.715	2337.5098	12950.95	12059.9
961.8467	2338.9332	12931.2	12037.45
961.9783	2340.3558	12874.3	11978
962.1099	2341.7778	12827.9	11936.1
962.2415	2343.199	12784.15	11889.55
962.373	2344.6195	12721.65	11829.75
962.5045	2346.0393	12696.7	11804.25
962.636	2347.4583	12685.35	11792.1
962.7675	2348.8767	12641	11747.8
962.8989	2350.2943	12586.1	11693.5
963.0303	2351.7113	12581.85	11688.1
963.1617	2353.1275	12534.75	11642.1
963.293	2354.543	12505.15	11588.55
963.4243	2355.9578	12431.55	11538.55
963.5556	2357.3718	12377.1	11485.95
963.6868	2358.7852	12297.6	11403.45
963.818	2360.1978	12275.45	11383.9
963.9492	2361.6098	12218.55	11326.2
964.0803	2363.021	12193.9	11297.55
964.2114	2364.4315	12155.6	11263.75
964.3425	2365.8413	12099.55	11207.25
964.4736	2367.2504	12061.55	11169.45
964.6046	2368.6587	11975.5	11082.25
964.7356	2370.0664	11942.65	11052.05
964.8666	2371.4733	11915.05	11022.05
964.9975	2372.8795	11886.85	10995.35
965.1284	2374.285	11801.7	10910.35
965.2593	2375.6899	11749.15	10858.25
965.3901	2377.0939	11708.8	10818.8
965.5209	2378.4973	11669.45	10778.8
965.6517	2379.9	11621.9	10730.75
965.7825	2381.3019	11558.5	10668.45
965.9132	2382.7032	11543.2	10653.8
966.0439	2384.1037	11507	10616.7
966.1745	2385.5035	11457.5	10566.85
966.3051	2386.9027	11385.8	10495.7
966.4357	2388.3011	11385.4	10489.8
966.5663	2389.6987	11351	10461.2
966.6968	2391.0957	11315.5	10424.1
966.8273	2392.492	11243.85	10351.15
966.9578	2393.8876	11157	10265.9
967.0882	2395.2824	11115.4	10224.85
967.2186	2396.6765	11088.75	10199.05
967.349	2398.07	11059.3	10168.25
967.4793	2399.4627	11040.9	10147.85
967.6097	2400.8547	11004.35	10112.8
967.7399	2402.246	10944.1	10047.15
967.8702	2403.6366	10905.3	10012
968.0004	2405.0265	10869.5	9978
968.1306	2406.4156	10811.1	9915.45
968.2607	2407.8041	10761	9865.15
968.3909	2409.1918	10728.7	9835.65
968.521	2410.5789	10698.6	9806.95
968.651	2411.9652	10645.2	9750.8
968.781	2413.3508	10598.95	9707.6
968.911	2414.7358	10558.55	9666.2
969.041	2416.12	10511.1	9620.5
969.1709	2417.5035	10504.1	9613.25
969.3008	2418.8863	10465.25	9572.45
969.4307	2420.2684	10416.75	9525.5
969.5606	2421.6497	10369.35	9477.45
969.6904	2423.0304	10313.8	9423.25
969.8201	2424.4104	10295.9	9405.25
969.9499	2425.7896	10249.1	9350.75
970.0796	2427.1682	10213.9	9324.65
970.2093	2428.546	10201.45	9309.25
970.3389	2429.9232	10161.85	9269.3
970.4685	2431.2996	10141.9	9250.6
970.5981	2432.6753	10121.1	9230.2
970.7277	2434.0503	10076.4	9184.95
970.8572	2435.4246	10043.15	9153.1
970.9867	2436.7982	9977.95	9085.15
971.1161	2438.1711	9949.15	9059.45
971.2456	2439.5433	9906.25	9013.05
971.375	2440.9148	9891.65	8999.2
971.5043	2442.2856	9836.05	8945.4
971.6336	2443.6557	9826.45	8933.3
971.7629	2445.025	9795.4	8902.85
971.8922	2446.3937	9772.85	8880.85
972.0214	2447.7617	9709.8	8818.25
972.1506	2449.1289	9702.35	8811.8
972.2798	2450.4955	9670.4	8775.5
972.4089	2451.8613	9642.9	8751.6
972.538	2453.2265	9627.55	8736
972.6671	2454.5909	9595.9	8704.1
972.7961	2455.9546	9573.05	8681.2
972.9251	2457.3177	9536	8645.1
973.0541	2458.68	9504.1	8611
973.1831	2460.0416	9484.1	8591.55
973.312	2461.4025	9486.1	8593.15
973.4408	2462.7627	9445.45	8542.6
973.5697	2464.1222	9405.4	8514.85
973.6985	2465.4811	9390.35	8499.15
973.8273	2466.8392	9343.5	8450.75
973.956	2468.1966	9297.25	8403.05
974.0847	2469.5533	9284	8390.15
974.2134	2470.9093	9256.25	8364.05
974.3421	2472.2645	9240.55	8348.7
974.4707	2473.6191	9208.45	8316.25
974.5993	2474.973	9152.85	8260.65
974.7278	2476.3262	9136.05	8242.75
974.8563	2477.6787	9086	8195.65
974.9848	2479.0305	9046	8155.55
975.1132	2480.3816	9011.45	8119.2
975.2417	2481.7319	8973.8	8081.9
975.37	2483.0816	8964.85	8069.95
975.4984	2484.4306	8925.25	8032.15
975.6267	2485.7789	8904.6	8014.8
975.755	2487.1264	8857.4	7962.45
975.8833	2488.4733	8809.1	7917.85
976.0115	2489.8195	8786.75	7888.25
976.1397	2491.165	8759.95	7864.25
976.2678	2492.5097	8731.2	7837.2
976.3959	2493.8538	8711.85	7820.75
976.524	2495.1972	8645.9	7753.7
976.6521	2496.5398	8615.35	7722.2
976.7801	2497.8818	8592.3	7698.65
976.9081	2499.2231	8556.4	7665.1
977.036	2500.5637	8520.15	7625.4
977.164	2501.9035	8489.8	7597.1
977.2918	2503.2427	8483.2	7587.5
977.4197	2504.5812	8425.7	7531.75
977.5475	2505.919	8425.75	7531.75
977.6753	2507.256	8418.35	7529.25
977.8031	2508.5924	8362.85	7471.7
977.9308	2509.9281	8326.8	7426.85
978.0585	2511.2631	8291.75	7400.05
978.1861	2512.5974	8279.45	7389.35
978.3137	2513.9309	8268.9	7376.75
978.4413	2515.2638	8262.85	7338.6
978.5689	2516.596	8217.25	7326.45
978.6964	2517.9275	8163.5	7270.1
978.8239	2519.2583	8120.25	7227.1
978.9513	2520.5884	8096.45	7202.25
979.0788	2521.9178	8035.85	7142.2
979.2062	2523.2465	8053.4	7162.55
979.3335	2524.5745	7993.9	7104.05
979.4608	2525.9018	7981.6	7090.35
979.5881	2527.2284	7940.8	7049.9
979.7154	2528.5543	7934.05	7042.15
979.8426	2529.8796	7890.35	6997.8
979.9698	2531.2041	7881.15	6988.4
980.0969	2532.5279	7864.35	6974.35
980.224	2533.851	7867.8	6974.95
980.3511	2535.1735	7828	6937.95
980.4781	2536.4952	7811.95	6920.55
980.6052	2537.8163	7789.85	6897.7
980.7321	2539.1366	7754.7	6863.7
980.8591	2540.4562	7747.65	6854.6
980.986	2541.7752	7751.2	6856.15
981.1129	2543.0935	7706.35	6815.6
981.2397	2544.411	7703.55	6810.35
981.3665	2545.7279	7668.9	6778.05
981.4933	2547.0441	7660.05	6766.3
981.62	2548.3596	7655.45	6759.15
981.7467	2549.6744	7617.35	6724.9
981.8734	2550.9885	7592.85	6697.15
982.0001	2552.3019	7559.95	6668.8
982.1267	2553.6146	7552.15	6661.95
982.2532	2554.9266	7512.95	6619.5
982.3798	2556.2379	7479.9	6586.9
982.5063	2557.5485	7478.85	6588.9
982.6327	2558.8585	7456.95	6557.7
982.7592	2560.1677	7454.85	6558.9
982.8856	2561.4762	7441.5	6548.7
983.0119	2562.7841	7414	6519.25
983.1383	2564.0913	7402.15	6511.6
983.2646	2565.3977	7372.2	6480.4
983.3908	2566.7035	7356.25	6462.7
983.517	2568.0086	7353.15	6459.2
983.6432	2569.313	7331.75	6439.4
983.7694	2570.6167	7307.85	6412.8
983.8955	2571.9197	7281.2	6390.95
984.0216	2573.222	7269.4	6375.2
984.1476	2574.5236	7254.45	6360.5
984.2737	2575.8246	7228.8	6335.15
984.3996	2577.1248	7233.9	6339.1
984.5256	2578.4244	7208.4	6317.4
984.6515	2579.7232	7205.2	6312.3
984.7774	2581.0214	7231.4	6313.4
984.9032	2582.3189	7161.15	6270.2
985.029	2583.6157	7174	6277.25
985.1548	2584.9118	7140.45	6246.75
985.2806	2586.2072	7119.15	6226.95
985.4063	2587.5019	7090.7	6199.45
985.5319	2588.7959	7061	6168.3
985.6576	2590.0893	7047	6153.7
985.7832	2591.3819	7032.65	6143.55
985.9087	2592.6739	7008.65	6115.15
986.0343	2593.9652	7000.85	6105.7
986.1597	2595.2557	6983.55	6091.7
986.2852	2596.5456	6946.8	6051.9
986.4106	2597.8348	6916.65	6025.6
986.536	2599.1234	6906.75	6015.35
986.6614	2600.4112	6877.05	5984.15
986.7867	2601.6983	6864.65	5968.05
986.912	2602.9848	6841.4	5948.2
987.0372	2604.2705	6817.75	5919.15
987.1624	2605.5556	6775.25	5882.65
987.2876	2606.84	6776.6	5885.3
987.4128	2608.1237	6752.15	5857.95
987.5379	2609.4067	6722.7	5828.35
987.6629	2610.689	6682.1	5781.4
987.788	2611.9707	6661.6	5765.5
987.913	2613.2516	6659.9	5763.3
988.0379	2614.5319	6617.05	5725.05
988.1629	2615.8115	6589.3	5696.5
988.2878	2617.0903	6559.9	5666.7
988.4126	2618.3685	6543.8	5651.65
988.5375	2619.6461	6525.7	5634.75
988.6622	2620.9229	6505.3	5613.35
988.787	2622.199	6507.15	5614.4
988.9117	2623.4745	6476.25	5583.75
989.0364	2624.7493	6443.7	5552
989.161	2626.0234	6424.2	5534.45
989.2857	2627.2968	6393.6	5500.95
989.4102	2628.5695	6370.65	5476.35
989.5348	2629.8415	6338.45	5445.95
989.6593	2631.1128	6308.2	5414.65
989.7837	2632.3835	6293.35	5401.65
989.9082	2633.6535	6260	5367.3
990.0326	2634.9228	6258.55	5367.15
990.1569	2636.1914	6241.85	5351.95
990.2812	2637.4593	6221.6	5322.3
990.4055	2638.7265	6194.7	5302
990.5298	2639.9931	6180.7	5288.45
990.654	2641.259	6160.2	5267.35
990.7782	2642.5242	6149.8	5256.35
990.9023	2643.7887	6123.3	5230.9
991.0264	2645.0525	6105.05	5214.1
991.1505	2646.3156	6091.55	5197
991.2745	2647.5781	6062.55	5171.65
991.3985	2648.8398	6043.5	5153.4
991.5225	2650.1009	6030.25	5130.75
991.6464	2651.3613	6010.8	5118.05
991.7703	2652.6211	5967.2	5075.15
991.8942	2653.8801	5940.25	5048.25
992.018	2655.1385	5961.25	5066.6
992.1418	2656.3961	5928.7	5037.55
992.2655	2657.6531	5941.4	5050.05
992.3892	2658.9094	5905.1	5014
992.5129	2660.1651	5888.5	4996.65
992.6366	2661.42	5891.45	4999.25
992.7602	2662.6743	5881.95	4987.55
992.8837	2663.9279	5860.85	4968.85
993.0073	2665.1808	5821.6	4928.75
993.1307	2666.433	5827.4	4936.05
993.2542	2667.6846	5810.65	4920.1
993.3776	2668.9354	5790	4893.9
993.501	2670.1856	5764.4	4871.9
993.6244	2671.4351	5742.25	4849.3
993.7477	2672.6839	5759.5	4864.65
993.8709	2673.9321	5735	4842.2
993.9942	2675.1795	5729.9	4838.15
994.1174	2676.4263	5699.8	4807.3
994.2405	2677.6724	5694.5	4803.8
994.3637	2678.9179	5666.05	4772.75
994.4868	2680.1626	5651.6	4760.9
994.6098	2681.4067	5628.35	4736.2
994.7328	2682.6501	5632.55	4740.6
994.8558	2683.8928	5627.85	4736.8
994.9788	2685.1348	5592.7	4701.8
995.1017	2686.3761	5557.3	4666.25
995.2245	2687.6168	5532.95	4642.1
995.3474	2688.8568	5534.85	4642.75
995.4702	2690.0961	5519.75	4632.05
995.5929	2691.3348	5506.2	4613.35
995.7156	2692.5727	5468.55	4576.65
995.8383	2693.81	5444.6	4552.35
995.961	2695.0466	5442.7	4551.8
996.0836	2696.2826	5429.45	4538.45
996.2062	2697.5178	5408.1	4513.65
996.3287	2698.7524	5398.35	4506.55
996.4512	2699.9863	5375.3	4481.95
996.5737	2701.2195	5357.55	4465.65
996.6961	2702.452	5366.9	4473.4
996.8185	2703.6839	5329.25	4437.1
996.9408	2704.9151	5316.15	4423.95
997.0631	2706.1456	5297.4	4405.2
997.1854	2707.3755	5287.95	4396.45
997.3077	2708.6046	5285.4	4391.15
997.4299	2709.8331	5289.9	4397.05
997.552	2711.0609	5271.15	4379.3
997.6742	2712.2881	5257	4363.9
997.7963	2713.5145	5257.95	4362.9
997.9183	2714.7403	5236.65	4345.45
998.0403	2715.9654	5226.15	4335.65
998.1623	2717.1899	5228.65	4320.8
998.2842	2718.4136	5233.7	4342.85
998.4062	2719.6367	5222.5	4329.9
998.528	2720.8591	5226.45	4329.3
998.6498	2722.0809	5189.65	4297.4
998.7716	2723.3019	5179.6	4283.85
998.8934	2724.5223	5182.05	4287.8
999.0151	2725.7421	5165.4	4273.85
999.1368	2726.9611	5150.05	4256.35
999.2584	2728.1795	5138.15	4240.55
999.38	2729.3972	5116.95	4223.1
999.5016	2730.6142	5086.9	4187.15
999.6231	2731.8306	5060.55	4164.6
999.7446	2733.0462	5037.75	4145.5
999.8661	2734.2612	4996.65	4098.6
999.9875	2735.4756	4968.8	4076
1000.1089	2736.6892	4942	4050.15
1000.2302	2737.9022	4902.75	4011.5
1000.3515	2739.1145	4872.7	3981.6
1000.4728	2740.3262	4856.2	3954.65
1000.594	2741.5372	4812.15	3920.15
1000.7152	2742.7475	4804.15	3909.4
1000.8363	2743.9571	4768.15	3875.25
1000.9575	2745.1661	4761.25	3866.8
1001.0785	2746.3744	4736.2	3845.05
1001.1996	2747.582	4706.4	3815
1001.3206	2748.7889	4693.65	3800
1001.4415	2749.9952	4669.15	3776.1
1001.5625	2751.2008	4662.25	3768.15
1001.6833	2752.4057	4651.9	3756.4
1001.8042	2753.61	4639.9	3745.3
1001.925	2754.8136	4603.25	3708.95
1002.0458	2756.0165	4587.65	3696.15
1002.1665	2757.2188	4589.85	3698.8
1002.2872	2758.4204	4569.35	3679.5
1002.4078	2759.6213	4537.35	3642.5
1002.5285	2760.8215	4556.6	3659.55
1002.649	2762.0211	4530.55	3636.3
1002.7696	2763.22	4518.55	3622.95
1002.8901	2764.4182	4494.7	3599.25
1003.0106	2765.6158	4480.7	3588.2
1003.131	2766.8127	4463.1	3570.45
1003.2514	2768.009	4460.55	3567.85
1003.3717	2769.2045	4439.75	3547.7
1003.492	2770.3994	4443.1	3545.8
1003.6123	2771.5936	4419.1	3526.3
1003.7325	2772.7872	4397.35	3505.8
1003.8527	2773.9801	4389.95	3496.35
1003.9729	2775.1723	4384.1	3476.8
1004.093	2776.3639	4364.65	3472.9
1004.2131	2777.5548	4333.95	3439.15
1004.3331	2778.745	4326.3	3432.5
1004.4531	2779.9346	4321.9	3431.15
1004.5731	2781.1235	4310.65	3417.4
1004.693	2782.3117	4302.15	3408.1
1004.8129	2783.4992	4290.8	3400.35
1004.9328	2784.6861	4287.15	3393.05
1005.0526	2785.8723	4276.65	3382.15
1005.1723	2787.0579	4274.75	3382.7
1005.2921	2788.2428	4264.7	3372.95
1005.4118	2789.427	4253.1	3361.8
1005.5314	2790.6106	4262	3371.35
1005.651	2791.7935	4253.7	3359.95
1005.7706	2792.9757	4243.1	3353.1
1005.8902	2794.1573	4242	3346.65
1006.0097	2795.3382	4259.4	3367.25
1006.1291	2796.5184	4245.9	3355.1
1006.2485	2797.698	4259.3	3365.25
1006.3679	2798.8769	4257.7	3364.6
1006.4873	2800.0551	4267	3375.1
1006.6066	2801.2327	4272.35	3378.3
1006.7258	2802.4096	4267.55	3377.85
1006.8451	2803.5859	4284.9	3392.4
1006.9642	2804.7615	4275.6	3383.9
1007.0834	2805.9364	4299.7	3410
1007.2025	2807.1106	4301.6	3408.65
1007.3216	2808.2842	4327.7	3435.2
1007.4406	2809.4572	4356.3	3463.1
1007.5596	2810.6294	4384	3490.6
1007.6785	2811.801	4414.45	3522.1
1007.7975	2812.972	4443.25	3552.2
1007.9163	2814.1423	4484.05	3593.4
1008.0352	2815.3119	4515.3	3622.4
1008.154	2816.4808	4529	3638.9
1008.2727	2817.6491	4572.45	3678.95
1008.3914	2818.8167	4602	3711.7
1008.5101	2819.9837	4662.9	3766.5
1008.6288	2821.15	4686.5	3793.5
1008.7474	2822.3157	4714.95	3822.2
1008.8659	2823.4807	4743.9	3851.35
1008.9844	2824.645	4819.6	3926.85
1009.1029	2825.8086	4840.45	3949.05
1009.2214	2826.9716	4868.25	3977.4
1009.3398	2828.134	4908.9	4018.4
1009.4581	2829.2957	4924.8	4032.95
1009.5764	2830.4567	4952.3	4060.3
1009.6947	2831.617	4965.6	4074.55
1009.813	2832.7767	4961.9	4068.8
1009.9312	2833.9358	4950.95	4060.45
1010.0493	2835.0941	4937.05	4042.15
1010.1675	2836.2519	4927.25	4036.15
1010.2855	2837.4089	4904.45	4011.05
1010.4036	2838.5653	4885.3	3993.4
1010.5216	2839.7211	4884.4	3994.6
1010.6396	2840.8761	4880.4	3988.6
1010.7575	2842.0306	4911.2	4021.5
1010.8754	2843.1843	4912.7	4021.4
1010.9932	2844.3374	4967.15	4074.15
1011.111	2845.4899	5004.15	4110.7
1011.2288	2846.6417	5076	4184.05
1011.3465	2847.7928	5148.25	4256.55
1011.4642	2848.9433	5218.9	4328.45
1011.5818	2850.0931	5295.25	4403.35
1011.6995	2851.2422	5381	4488.25
1011.817	2852.3907	5441.95	4548.35
1011.9345	2853.5385	5496.55	4600.2
1012.052	2854.6857	5562.7	4643.8
1012.1695	2855.8323	5585.4	4695.45
1012.2869	2856.9781	5611.55	4720.6
1012.4042	2858.1233	5650.75	4760.15
1012.5216	2859.2679	5692	4799.35
1012.6389	2860.4118	5744.5	4854.45
1012.7561	2861.555	5755	4858.85
1012.8733	2862.6976	5782.7	4889.8
1012.9905	2863.8395	5805.35	4913.65
1013.1076	2864.9808	5811.85	4920.05
1013.2247	2866.1214	5834.6	4943.95
1013.3417	2867.2614	5828.6	4937.5
1013.4587	2868.4007	5834.9	4941.5
1013.5757	2869.5393	5831.1	4937
1013.6926	2870.6773	5847.7	4954.65
1013.8095	2871.8146	5842.75	4946.4
1013.9263	2872.9513	5840.7	4947.85
1014.0431	2874.0874	5821.6	4931.3
1014.1599	2875.2227	5802.15	4910.1
1014.2766	2876.3574	5771.8	4881.1
1014.3933	2877.4915	5732.05	4840.6
1014.51	2878.6249	5685.85	4794.35
1014.6266	2879.7577	5687.15	4792.35
1014.7431	2880.8898	5646.35	4746.55
1014.8596	2882.0212	5610.7	4720.25
1014.9761	2883.152	5601.6	4709.85
1015.0925	2884.2821	5571.1	4681.45
1015.2089	2885.4116	5554.15	4663.85
1015.3253	2886.5405	5538.85	4645.05
1015.4416	2887.6686	5553.55	4659.5
1015.5579	2888.7962	5528.6	4638.2
1015.6741	2889.923	5514.8	4623.25
1015.7903	2891.0493	5548.25	4656.3
1015.9065	2892.1748	5548.2	4656.6
1016.0226	2893.2997	5545.4	4652.6
1016.1387	2894.424	5538.55	4648.65
1016.2547	2895.5476	5560.45	4670.8
1016.3707	2896.6706	5576.1	4685.3
1016.4866	2897.7929	5599.15	4706.45
1016.6025	2898.9145	5618.55	4727.75
1016.7184	2900.0355	5626.6	4733.95
1016.8342	2901.1559	5669.4	4776.7
1016.95	2902.2756	5706.65	4814.35
1017.0658	2903.3946	5712.45	4822.35
1017.1815	2904.513	5721.25	4828.9
1017.2971	2905.6308	5729.5	4837.7
1017.4127	2906.7479	5735.4	4842.5
1017.5283	2907.8643	5779.65	4887.1
1017.6439	2908.9801	5782.3	4890
1017.7594	2910.0953	5769.15	4877.85
1017.8748	2911.2098	5775.5	4879.5
1017.9902	2912.3236	5762.25	4862.1
1018.1056	2913.4368	5741.25	4846.55
1018.2209	2914.5494	5722.5	4831.95
1018.3362	2915.6613	5680.6	4784.5
1018.4515	2916.7725	5642.85	4748.5
1018.5667	2917.8831	5597.3	4704.65
1018.6819	2918.9931	5568.05	4674.65
1018.797	2920.1024	5525.1	4632.75
1018.9121	2921.211	5503.8	4613.75
1019.0271	2922.319	5479	4586.55
1019.1421	2923.4264	5463.45	4571.8
1019.2571	2924.5331	5424	4534.45
1019.372	2925.6391	5415.15	4524.2
1019.4869	2926.7445	5389.45	4499.9
1019.6017	2927.8493	5394.15	4503.3
1019.7165	2928.9534	5379.4	4486.9
1019.8313	2930.0569	5361.3	4467.3
1019.946	2931.1597	5357.25	4464.1
1020.0606	2932.2619	5313.15	4421.95
1020.1753	2933.3634	5298.35	4406
1020.2899	2934.4643	5317.8	4418.45
1020.4044	2935.5645	5268.1	4370.6
1020.5189	2936.6641	5226.6	4331.4
1020.6334	2937.763	5168.6	4277.65
1020.7478	2938.8613	5123.5	4232.75
1020.8622	2939.959	5061.7	4166.1
1020.9765	2941.056	4962.2	4072.5
1021.0908	2942.1523	4888.2	3997.7
1021.2051	2943.248	4785.65	3893
1021.3193	2944.3431	4669	3777.75
1021.4334	2945.4375	4557.5	3665.55
1021.5476	2946.5313	4449.85	3558.8
1021.6617	2947.6244	4338.25	3446.2
1021.7757	2948.7169	4232.9	3340.45
1021.8897	2949.8087	4124.4	3232.4
1022.0037	2950.8999	4031.4	3139.45
1022.1176	2951.9904	3947.3	3056.05
1022.2315	2953.0803	3856.6	2963.6
1022.3453	2954.1696	3797.7	2905.7
1022.4591	2955.2582	3720.8	2831.8
1022.5728	2956.3462	3685.65	2792.7
1022.6865	2957.4335	3625.85	2733.05
1022.8002	2958.5202	3600.9	2707.1
1022.9138	2959.6062	3558.75	2668.05
1023.0274	2960.6916	3520.65	2629.75
1023.141	2961.7764	3503.7	2611
1023.2545	2962.8605	3460.6	2569.35
1023.3679	2963.9439	3452.45	2561.6
1023.4813	2965.0267	3421.6	2528.7
1023.5947	2966.1089	3447.8	2531
1023.708	2967.1905	3404.2	2512.65
1023.8213	2968.2714	3399.5	2509
1023.9346	2969.3516	3382.5	2491.25
1024.0478	2970.4312	3401.85	2504.65
1024.1609	2971.5102	3374.7	2482.8
1024.274	2972.5885	3366.6	2474.25
1024.3871	2973.6662	3370.75	2474.65
1024.5002	2974.7432	3361.1	2469.95
1024.6132	2975.8196	3351.55	2459
1024.7261	2976.8954	3339.15	2449.15
1024.839	2977.9705	3305.2	2413.95
1024.9519	2979.045	3287.55	2395.95
1025.0647	2980.1188	3262.7	2371.75
1025.1775	2981.192	3235.15	2344.45
1025.2902	2982.2645	3213.4	2322.2
1025.4029	2983.3364	3184.5	2294
1025.5156	2984.4077	3154.05	2261.8
1025.6282	2985.4783	3111.95	2214.25
1025.7407	2986.5483	3071.5	2180.55
1025.8532	2987.6177	3025.75	2136.5
1025.9657	2988.6864	3004.4	2113.05
1026.0782	2989.7545	2958.4	2066.1
1026.1906	2990.8219	2917.65	2028.9
1026.3029	2991.8887	2875.6	1983.35
1026.4152	2992.9548	2855.95	1963.65
1026.5275	2994.0204	2808.4	1917
1026.6397	2995.0852	2783	1894.2
1026.7519	2996.1495	2748.65	1855
1026.864	2997.2131	2725	1832.55
1026.9761	2998.276	2698.55	1807
1027.0882	2999.3383	2672.15	1781.3
1027.2002	3000.4	2635.85	1742.45
1027.3122	3001.4611	2638.45	1748
1027.4241	3002.5215	2612.7	1719.7
1027.536	3003.5812	2581.15	1691.5
1027.6478	3004.6404	2577	1686.75
1027.7596	3005.6989	2564.95	1672.8
1027.8714	3006.7567	2562.3	1672.2
1027.9831	3007.8139	2561.2	1649.15
1028.0947	3008.8705	2521.2	1629.95
1028.2064	3009.9264	2536.95	1630.3
1028.3179	3010.9818	2501.1	1608.5
1028.4295	3012.0364	2496.75	1603.95
1028.541	3013.0905	2491.15	1600.45
1028.6524	3014.1439	2487.35	1596.75
1028.7638	3015.1966	2492.45	1602.95
1028.8752	3016.2487	2492.8	1602.8
1028.9865	3017.3002	2459.7	1561.75
1029.0978	3018.3511	2466.7	1575.85
1029.209	3019.4013	2459.2	1567.55
1029.3202	3020.4509	2447.3	1556.8
1029.4314	3021.4998	2444	1553
1029.5425	3022.5481	2449.7	1560.05
1029.6535	3023.5958	2430.55	1540.05
1029.7645	3024.6428	2439.2	1547.35
1029.8755	3025.6892	2429.45	1539.5
1029.9864	3026.735	2431.85	1540.8
1030.0973	3027.7802	2427.25	1536.55
1030.2082	3028.8247	2418.9	1529.75
1030.319	3029.8685	2407.75	1517.2
1030.4297	3030.9118	2427.95	1536.95
1030.5404	3031.9544	2406.85	1515.3
1030.6511	3032.9963	2415.2	1525.5
1030.7617	3034.0376	2405.8	1515.5
1030.8723	3035.0783	2419.2	1524.9
1030.9829	3036.1184	2406.9	1515.9
1031.0934	3037.1578	2409.85	1519.4
1031.2038	3038.1966	2413.75	1521.4
1031.3142	3039.2348	2402.9	1513.65
1031.4246	3040.2723	2420.25	1523.25
1031.5349	3041.3092	2394.25	1504
1031.6452	3042.3455	2395.15	1504.35
1031.7554	3043.3811	2378.65	1487.8
1031.8656	3044.4161	2373.65	1483.2
1031.9758	3045.4505	2365.1	1475.75
1032.0859	3046.4842	2366	1474.25
1032.1959	3047.5173	2347.2	1458.35
1032.3059	3048.5498	2336.8	1445.35
1032.4159	3049.5816	2331.3	1439.55
1032.5258	3050.6128	2321.7	1430.55
1032.6357	3051.6434	2307.25	1412.6
1032.7455	3052.6734	2300.1	1406.65
1032.8553	3053.7027	2279.6	1388.65
1032.9651	3054.7314	2276.85	1386.7
1033.0748	3055.7594	2263.75	1374.6
1033.1845	3056.7868	2251.5	1360.9
1033.2941	3057.8136	2234.7	1345.35
1033.4037	3058.8398	2222.3	1332.9
1033.5132	3059.8653	2225.3	1334.05
1033.6227	3060.8902	2205.45	1314.5
1033.7321	3061.9145	2212.1	1322.35
1033.8415	3062.9381	2196.1	1305.2
1033.9509	3063.9612	2193.95	1288
1034.0602	3064.9835	2182.6	1290.5
1034.1694	3066.0053	2173.4	1280.95
1034.2787	3067.0264	2159.5	1268.9
1034.3878	3068.0469	2149.1	1258.5
1034.497	3069.0668	2138.4	1244.7
1034.6061	3070.086	2127.25	1236.85
1034.7151	3071.1046	2109.4	1218.5
1034.8241	3072.1226	2105.1	1215.3
1034.9331	3073.1399	2091.6	1198.75
1035.042	3074.1567	2076.95	1185.35
1035.1508	3075.1727	2062.65	1169.65
1035.2597	3076.1882	2042.15	1152.15
1035.3684	3077.203	2034.45	1143.65
1035.4772	3078.2173	2017.95	1125.25
1035.5859	3079.2308	2013.1	1120.05
1035.6945	3080.2438	2012.9	1119.45
1035.8031	3081.2561	1992.5	1100.35
1035.9117	3082.2678	1976.15	1085.25
1036.0202	3083.2789	1968.75	1077.05
1036.1286	3084.2893	1972.45	1081.15
1036.2371	3085.2991	1952.05	1060.05
1036.3454	3086.3083	1935.9	1040.5
1036.4538	3087.3169	1933.85	1041.6
1036.562	3088.3248	1933.95	1043.55
1036.6703	3089.3321	1917.6	1025.2
1036.7785	3090.3388	1909.75	1019.55
1036.8866	3091.3449	1894.8	1001.85
1036.9948	3092.3503	1883.75	991.4
1037.1028	3093.3551	1889.15	999.9
1037.2108	3094.3593	1879.65	990.65
1037.3188	3095.3629	1875.25	984.45
1037.4267	3096.3658	1874.25	982.45
1037.5346	3097.3681	1853.9	962.8
1037.6425	3098.3698	1855.3	963.55
1037.7503	3099.3708	1851.25	953.8
1037.858	3100.3713	1848.95	959.25
1037.9657	3101.3711	1828.6	937.9
1038.0734	3102.3702	1930.2	925.4
1038.181	3103.3688	1834.45	941.5
1038.2886	3104.3667	1822.75	934.5
1038.3961	3105.364	1807.7	918.55
1038.5036	3106.3607	1802.8	911.2
1038.611	3107.3568	1803	913.15
1038.7184	3108.3522	1789.85	900.3
1038.8257	3109.347	1784.9	893.15
1038.933	3110.3412	1790.4	896.2
1039.0403	3111.3348	1779.9	890.1
1039.1475	3112.3277	1769.95	878.5
1039.2547	3113.32	1758.75	870.05
1039.3618	3114.3117	1759.1	868.4
1039.4689	3115.3028	1758	866.8
1039.5759	3116.2932	1751.9	858.45
1039.6829	3117.2831	1750.05	855.05
1039.7898	3118.2723	1739.6	848.1
1039.8967	3119.2608	1731.85	841.1
1040.0035	3120.2488	1725.8	833.9
1040.1103	3121.2361	1724.85	834.85
1040.2171	3122.2229	1717.3	827.25
1040.3238	3123.209	1703.65	813.15
1040.4305	3124.1944	1707.95	816.35
1040.5371	3125.1793	1706.95	814.3
1040.6437	3126.1635	1708.95	818.4
1040.7502	3127.1471	1693.85	804
1040.8567	3128.1301	1689.75	799.4
1040.9631	3129.1125	1692.75	804.2
1041.0695	3130.0942	1692.55	801.45
1041.1759	3131.0753	1694.55	795.4
1041.2822	3132.0558	1676.35	783.4
1041.3884	3133.0357	1681.4	788.65
1041.4946	3134.015	1670.75	778.4
1041.6008	3134.9936	1665.15	773.5
1041.7069	3135.9716	1672.35	760.3
1041.813	3136.949	1660.9	770.1
1041.919	3137.9258	1653.45	759.25
1042.025	3138.902	1657.35	762.1
1042.1309	3139.8775	1643.8	755.25
1042.2368	3140.8524	1641.5	750.45
1042.3427	3141.8267	1635.45	743.7
1042.4485	3142.8004	1632.8	742.45
1042.5542	3143.7735	1631.6	736.6
1042.6599	3144.7459	1630.65	738.05
1042.7656	3145.7178	1619.2	729.55
1042.8712	3146.689	1622.9	732.8
1042.9768	3147.6596	1614.7	722.65
1043.0823	3148.6295	1613.8	724.95
1043.1878	3149.5989	1616.2	726.6
1043.2932	3150.5676	1600.15	711.7
1043.3986	3151.5357	1595.15	705.05
1043.5039	3152.5032	1589.1	700.2
1043.6092	3153.4701	1586	698.4
1043.7145	3154.4364	1592.95	700.4
1043.8197	3155.402	1579.85	688.5
1043.9248	3156.367	1587.2	693.3
1044.03	3157.3315	1626.05	693.85
1044.135	3158.2952	1575.7	685.2
1044.24	3159.2584	1566.95	677.4
1044.345	3160.221	1557.95	666.75
1044.4499	3161.1829	1557.45	667.3
1044.5548	3162.1442	1553.4	662.4
1044.6596	3163.105	1554.4	664.6
1044.7644	3164.065	1546.4	655.1
1044.8692	3165.0245	1540.85	645.8
1044.9739	3165.9834	1537.95	647.5
1045.0785	3166.9416	1540.95	650.3
1045.1831	3167.8993	1532.2	641.6
1045.2877	3168.8563	1521.45	629.2
1045.3922	3169.8127	1520.1	631.25
1045.4966	3170.7684	1520.15	630.25
1045.6011	3171.7236	1517.35	625.3
1045.7054	3172.6782	1511.95	621.85
1045.8098	3173.6321	1520.55	630.45
1045.914	3174.5854	1503.65	610.05
1046.0183	3175.5381	1504.9	613.95
1046.1224	3176.4902	1498.8	611.1
1046.2266	3177.4417	1495.45	604.6
1046.3307	3178.3926	1493.85	605.05
1046.4347	3179.3428	1487.7	598.5
1046.5387	3180.2924	1481.05	592
1046.6427	3181.2415	1482.5	592.95
1046.7466	3182.1899	1482.75	590.55
1046.8504	3183.1377	1473.6	584
1046.9542	3184.0848	1477.8	587.3
1047.058	3185.0314	1468.9	579.15
1047.1617	3185.9773	1469.5	579
1047.2654	3186.9227	1465.5	574
1047.369	3187.8674	1464.3	575.55
1047.4726	3188.8115	1459.9	566.3
1047.5761	3189.755	1454.35	564.3
1047.6796	3190.6979	1455.45	563.95
1047.783	3191.6402	1446.65	557.55
1047.8864	3192.5818	1448.5	557.75
1047.9898	3193.5229	1468.65	554.65
1048.0931	3194.4633	1445.55	554.5
1048.1963	3195.4031	1437.1	545.8
1048.2995	3196.3423	1429.9	541.3
1048.4027	3197.2809	1431.75	543.9
1048.5058	3198.2189	1432.2	541.7
1048.6089	3199.1563	1443.45	536.6
1048.7119	3200.0931	1416.2	526.35
1048.8148	3201.0292	1420.55	532.8
1048.9178	3201.9648	1423.35	531.05
1049.0206	3202.8997	1416.05	521.2
1049.1235	3203.834	1419.7	528.85
1049.2262	3204.7677	1401.95	512.15
1049.329	3205.7008	1404.55	512.85
1049.4317	3206.6333	1397.75	510.2
1049.5343	3207.5652	1403.45	511.2
1049.6369	3208.4964	1401.65	511.3
1049.7394	3209.4271	1392.85	504.3
1049.8419	3210.3571	1393.55	504.1
1049.9444	3211.2865	1389.8	499
1050.0468	3212.2154	1387.05	492.5
1050.1491	3213.1436	1386.95	493.9
1050.2514	3214.0712	1390.95	493.3
1050.3537	3214.9982	1385.8	495.5
1050.4559	3215.9246	1385.4	496.2
1050.5581	3216.8503	1379.8	491.35
1050.6602	3217.7755	1380.5	489.15
1050.7623	3218.7001	1368.4	477.35
1050.8643	3219.624	1372.4	483
1050.9663	3220.5473	1363.6	473.95
1051.0682	3221.4701	1368.15	476
1051.1701	3222.3922	1366.05	474.5
1051.2719	3223.3137	1359.9	469.95
1051.3737	3224.2346	1357.5	467.1
1051.4754	3225.1549	1355.9	466.7
1051.5771	3226.0746	1354.8	466.1
1051.6788	3226.9937	1351.65	461.3
1051.7804	3227.9121	1341.6	452.15
1051.8819	3228.83	1342.85	453.05
1051.9834	3229.7473	1343.45	453.45
1052.0849	3230.6639	1341.55	450.5
1052.1863	3231.5799	1334.25	445.85
1052.2876	3232.4954	1334.05	442.35
1052.3889	3233.4102	1335.3	445.65
1052.4902	3234.3244	1330.45	441.15
1052.5914	3235.238	1327.1	437.45
1052.6926	3236.151	1348	434.55
1052.7937	3237.0634	1320.35	430.45
1052.8948	3237.9752	1318.65	429.4
1052.9958	3238.8864	1314.6	424.35
1053.0968	3239.797	1320.2	430.1
1053.1977	3240.7069	1313.9	423.05
1053.2986	3241.6163	1309.2	418.25
1053.3994	3242.5251	1312.7	423.55
1053.5002	3243.4332	1302.45	413.9
1053.6009	3244.3408	1304.85	414.05
1053.7016	3245.2477	1300.25	411.3
1053.8022	3246.154	1300	407.45
1053.9028	3247.0598	1293.15	401.2
1054.0034	3247.9649	1288.6	397.45
1054.1039	3248.8694	1288.25	396.1
1054.2043	3249.7733	1293.25	403.8
1054.3047	3250.6766	1294.35	405.35
1054.4051	3251.5793	1281.4	390.4
1054.5054	3252.4814	1277.3	388.3
1054.6056	3253.3829	1276.8	387.15
1054.7058	3254.2838	1276.75	388.75
1054.806	3255.1841	1270.3	381
1054.9061	3256.0838	1269.35	380.3
1055.0061	3256.9829	1265.75	377.75
1055.1062	3257.8814	1259.5	365.2
1055.2061	3258.7792	1260.85	369.45
1055.306	3259.6765	1251.85	359.95
1055.4059	3260.5731	1250.85	360.25
1055.5057	3261.4692	1246.55	357.5
1055.6055	3262.3647	1241.25	350
1055.7052	3263.2595	1234.4	344.3
1055.8049	3264.1538	1235.1	347.8
1055.9045	3265.0474	1228.35	337.2
1056.0041	3265.9404	1226.1	337.25
1056.1036	3266.8329	1220.2	329.9
1056.2031	3267.7247	1220.35	320.35
1056.3025	3268.616	1202.5	314.05
1056.4019	3269.5066	1194.45	305.2
1056.5013	3270.3966	1194.45	302.15
1056.6005	3271.286	1176.85	287.75
