Software Version:	3.9.2.0
Unit SN:	10000200
Spectrometer SN:	6960
Date:	3/6/2024 10:50:10 AM
Data Line Index:	25
Spectral Points:	2048
Integration time (ms):	125
Averages:	20
Delay (ms):	30
Sequence Number:	1
Processing:	dark subtract
Laser Power (mW):	305
Laser Current (mA):	821
Laser Diode Temp (C):	25.1
Laser Case Temp (C):	27.6
System Temp (C):	27.4
Spectrometer Temp (C):	24.9
CCD Temp (C):	0.007
Secondary Temp (C):	20.007
Heatsink Temp (C):	23.102
CCDPCB Temp (C):	36.685
SecondaryPCB Temp (C):	34.039

Wavelength	RamanShift	Raw Counts	Dark Subtracted
787.061	30.1047	1136.6	724.3
787.2016	32.3739	1168.25	757.2
787.3422	34.6426	1218.05	805.5
787.4828	36.9109	1272.9	857.85
787.6235	39.1787	1324.6	906.5
787.7642	41.4461	1386.05	963.65
787.9049	43.7131	1451.15	1024.6
788.0456	45.9796	1517.65	1087.9
788.1863	48.2456	1586.35	1151.1
788.3271	50.5112	1660.1	1221.9
788.4679	52.7764	1726.85	1285.5
788.6087	55.0411	1815.05	1372.25
788.7496	57.3054	1901.6	1451.7
788.8904	59.5692	1980.35	1527.5
789.0313	61.8326	2095.85	1641.1
789.1722	64.0955	2210.25	1753.2
789.3132	66.3579	2329.85	1865.9
789.4541	68.6199	2492.7	2025
789.5951	70.8815	2736.15	2265.85
789.7361	73.1426	3261.2	2787.05
789.8771	75.4032	4577.35	4097.4
790.0181	77.6634	7944.15	7461
790.1592	79.9231	16748.2	16260.75
790.3003	82.1824	55124.7	54626.2
790.4414	84.4412	65535	65019.95
790.5825	86.6995	65535	64993.6
790.7237	88.9574	65535	64971.75
790.8648	91.2148	65535	64958
791.006	93.4717	65535	64946.55
791.1472	95.7282	65535	64943.85
791.2885	97.9842	65535	64940.3
791.4297	100.2398	65535	64936.1
791.571	102.4949	65535	64930.95
791.7123	104.7495	65535	64926.3
791.8536	107.0036	65535	64926.3
791.9949	109.2573	65535	64929.15
792.1363	111.5105	65535	64924.05
792.2777	113.7632	65535	64926.15
792.4191	116.0154	65535	64916.45
792.5605	118.2672	65535	64922.5
792.7019	120.5185	65535	64918.2
792.8434	122.7693	65535	64918.45
792.9849	125.0197	65535	64914.8
793.1264	127.2696	65535	64908.35
793.2679	129.519	65535	64911.5
793.4094	131.7679	65535	64903.25
793.551	134.0163	65535	64899.3
793.6926	136.2642	65535	64897.3
793.8342	138.5117	65535	64886.9
793.9758	140.7587	65535	64893.15
794.1175	143.0052	65535	64891.65
794.2591	145.2512	65535	64887.3
794.4008	147.4967	65535	64889.65
794.5425	149.7417	65535	64885.55
794.6842	151.9863	65535	64881.75
794.826	154.2304	65535	64880.7
794.9677	156.4739	65535	64874.6
795.1095	158.717	65535	64875
795.2513	160.9596	65535	64868.75
795.3931	163.2017	65535	64870
795.535	165.4433	65535	64862.65
795.6768	167.6844	65535	64863.25
795.8187	169.925	65535	64859.7
795.9606	172.1651	65535	64859.2
796.1025	174.4047	65535	64855.85
796.2445	176.6439	65535	64849.65
796.3864	178.8825	65535	64850.05
796.5284	181.1206	65535	64848.05
796.6704	183.3582	65535	64842.5
796.8124	185.5954	65535	64841
796.9544	187.832	65535	64838.7
797.0965	190.0681	65535	64833.85
797.2386	192.3037	65535	64832.7
797.3806	194.5388	65535	64827.25
797.5228	196.7734	65535	64825.3
797.6649	199.0075	65535	64822.7
797.807	201.2411	65535	64821.6
797.9492	203.4742	65535	64822.75
798.0914	205.7068	65535	64818.55
798.2336	207.9389	65535	64817.3
798.3758	210.1704	65535	64814.1
798.518	212.4015	65535	64813.6
798.6603	214.632	65535	64816.95
798.8025	216.862	65535	64829.55
798.9448	219.0915	65535	64831.6
799.0871	221.3205	65535	64833.3
799.2294	223.549	65535	64836.45
799.3718	225.777	65535	64833.95
799.5141	228.0044	65535	64833
799.6565	230.2314	65535	64829.5
799.7989	232.4578	65535	64828.15
799.9413	234.6837	65535	64821.9
800.0837	236.909	65535	64821.95
800.2262	239.1339	65535	64798.1
800.3687	241.3582	65535	64809.45
800.5111	243.582	65535	64780.15
800.6536	245.8053	65535	64793.55
800.7961	248.0281	65535	64799.15
800.9387	250.2503	65535	64791.65
801.0812	252.472	65535	64787.85
801.2238	254.6932	65535	64787.45
801.3664	256.9139	65535	64785.65
801.509	259.134	65535	64785.35
801.6516	261.3536	65535	64784.15
801.7942	263.5727	65535	64782.55
801.9369	265.7912	65535	64782.9
802.0795	268.0092	65535	64784.45
802.2222	270.2267	65535	64777.45
802.3649	272.4436	65535	64782.4
802.5076	274.6601	65535	64774.45
802.6504	276.8759	65535	64777.05
802.7931	279.0913	65535	64776.95
802.9359	281.3061	65535	64773.7
803.0787	283.5204	65535	64772.25
803.2215	285.7341	65535	64767.7
803.3643	287.9473	65535	64756.7
803.5071	290.16	65535	64758.2
803.6499	292.3721	65535	64769.75
803.7928	294.5837	65535	64766.6
803.9357	296.7947	65535	64763.85
804.0786	299.0052	65535	64766.35
804.2215	301.2152	65535	64762
804.3644	303.4246	65535	64766.6
804.5074	305.6334	65535	64766.7
804.6503	307.8418	65535	64762.15
804.7933	310.0495	65535	64760.35
804.9363	312.2568	65535	64760.7
805.0793	314.4635	65535	64758.8
805.2223	316.6696	65535	64756.95
805.3653	318.8752	65535	64748.45
805.5084	321.0802	65535	64758.35
805.6514	323.2847	65535	64754
805.7945	325.4887	65535	64756.2
805.9376	327.692	65535	64754.45
806.0807	329.8949	65535	64753.3
806.2238	332.0972	65535	64749.85
806.367	334.2989	65535	64747.45
806.5101	336.5001	65535	64746.35
806.6533	338.7007	65535	64749.15
806.7965	340.9008	65535	64745.25
806.9397	343.1003	65535	64743.45
807.0829	345.2992	65535	64742.1
807.2261	347.4976	65535	64738.95
807.3693	349.6955	65535	64735.9
807.5126	351.8927	65535	64738.45
807.6559	354.0895	65535	64723.25
807.7991	356.2856	65535	64735.05
807.9424	358.4812	65535	64735.4
808.0857	360.6763	65535	64733.65
808.2291	362.8707	65535	64730.85
808.3724	365.0646	65535	64727.55
808.5158	367.258	65535	64729.85
808.6591	369.4508	65535	64724.9
808.8025	371.643	65535	64726.15
808.9459	373.8346	65535	64721.45
809.0893	376.0257	65535	64719.8
809.2327	378.2162	65535	64720.9
809.3762	380.4062	65535	64718.35
809.5196	382.5956	65535	64716.1
809.6631	384.7844	65535	64714.6
809.8066	386.9726	65535	64714.65
809.9501	389.1603	65535	64716.5
810.0936	391.3474	65535	64675.75
810.2371	393.5339	65535	64720.6
810.3806	395.7199	65535	64721.45
810.5241	397.9052	65535	64726.45
810.6677	400.09	65535	64726.75
810.8113	402.2743	65535	64725.3
810.9548	404.4579	65535	64727.2
811.0984	406.641	65535	64719.95
811.2421	408.8235	65535	64722.95
811.3857	411.0054	65535	64721.25
811.5293	413.1868	65535	64720.1
811.673	415.3675	65535	64717.15
811.8166	417.5477	65535	64715.75
811.9603	419.7273	65535	64714.65
812.104	421.9064	65535	64707.45
812.2477	424.0848	65535	64709
812.3914	426.2627	65535	64705.85
812.5351	428.4399	65535	64707.6
812.6788	430.6166	65535	64701.95
812.8226	432.7928	65535	64701.75
812.9663	434.9683	65535	64703.35
813.1101	437.1432	65535	64700.1
813.2539	439.3176	65535	64700.2
813.3977	441.4914	65535	64695.55
813.5415	443.6645	65535	64700
813.6853	445.8371	65535	64696.55
813.8291	448.0091	65535	64701.45
813.973	450.1806	65535	64700.95
814.1168	452.3514	65535	64695.55
814.2607	454.5216	65535	64688.65
814.4046	456.6913	65535	64694.5
814.5485	458.8603	65535	64697.55
814.6924	461.0288	65535	64698.95
814.8363	463.1967	65535	64698.45
814.9802	465.3639	65535	64695.7
815.1241	467.5306	65535	64696.45
815.2681	469.6967	65535	64696.95
815.412	471.8622	65535	64693.45
815.556	474.0271	65535	64696.55
815.7	476.1914	65535	64694.1
815.844	478.3551	65535	64690.95
815.988	480.5182	65535	64690.85
816.132	482.6807	65535	64693.2
816.276	484.8426	65535	64694.95
816.4201	487.0039	65535	64692.5
816.5641	489.1647	65535	64689.85
816.7082	491.3248	65535	64692.75
816.8522	493.4843	65535	64692.2
816.9963	495.6432	65535	64689.85
817.1404	497.8015	65535	64687.1
817.2845	499.9592	65535	64687.85
817.4286	502.1163	65535	64686.7
817.5727	504.2728	65535	64685.5
817.7168	506.4287	65535	64689.1
817.861	508.5839	65535	64690.4
818.0051	510.7386	65535	64688.5
818.1493	512.8927	65535	64680.2
818.2935	515.0461	65535	64684.1
818.4377	517.199	65535	64683.4
818.5818	519.3512	65535	64685.4
818.726	521.5029	65535	64676.35
818.8703	523.6539	65535	64681
819.0145	525.8043	65535	64681.75
819.1587	527.9541	65535	64675.75
819.303	530.1033	65535	64680.7
819.4472	532.2519	65535	64683
819.5915	534.3999	65535	64674.65
819.7357	536.5472	65535	64681.25
819.88	538.694	65535	64678.9
820.0243	540.8401	65535	64676.45
820.1686	542.9856	65535	64676.2
820.3129	545.1305	65535	64673.7
820.4572	547.2748	65535	64676.55
820.6016	549.4185	65535	64669.95
820.7459	551.5615	65535	64673.95
820.8902	553.704	65535	64674.2
821.0346	555.8458	65535	64672.75
821.1789	557.987	65535	64675.25
821.3233	560.1276	65535	64673
821.4677	562.2675	65535	64674.8
821.6121	564.4069	65535	64675.7
821.7565	566.5456	65535	64674.55
821.9009	568.6837	65535	64676.05
822.0453	570.8212	65535	64676.1
822.1897	572.958	65535	64673.75
822.3342	575.0942	65535	64675.65
822.4786	577.2299	65535	64671.7
822.6231	579.3648	65535	64675.85
822.7675	581.4992	65535	64676.6
822.912	583.6329	65535	64677.65
823.0565	585.766	65535	64677.5
823.201	587.8985	65535	64673.3
823.3454	590.0304	65535	64648.65
823.4899	592.1616	65535	64669.15
823.6345	594.2922	65535	64667.9
823.779	596.4222	65535	64666.75
823.9235	598.5515	65535	64666.35
824.068	600.6802	65535	64667.35
824.2126	602.8083	65535	64671.05
824.3571	604.9358	65535	64665.95
824.5017	607.0626	65535	64667.85
824.6462	609.1888	65535	64662.8
824.7908	611.3144	65535	64666.95
824.9354	613.4393	65535	64664.85
825.08	615.5636	65535	64667.2
825.2246	617.6873	65535	64669.15
825.3692	619.8103	65535	64663.1
825.5138	621.9327	65535	64663.35
825.6584	624.0544	65535	64672.25
825.803	626.1756	65535	64666.55
825.9477	628.2961	65535	64666.1
826.0923	630.4159	65535	64666.2
826.237	632.5351	65535	64662.95
826.3816	634.6537	65535	64664.65
826.5263	636.7716	65535	64661.35
826.6709	638.8889	65535	64660.65
826.8156	641.0056	65535	64661.75
826.9603	643.1216	65535	64661.1
827.105	645.237	65535	64657.6
827.2497	647.3518	65535	64662.7
827.3944	649.4659	65535	64664.2
827.5391	651.5793	65535	64661.15
827.6838	653.6922	65535	64662
827.8285	655.8043	65535	64663.15
827.9733	657.9159	65535	64657.3
828.118	660.0268	65535	64657.75
828.2627	662.137	65535	64660.45
828.4075	664.2466	65535	64657.3
828.5522	666.3556	65535	64658.45
828.697	668.4639	65535	64656.4
828.8418	670.5716	65535	64658.35
828.9865	672.6786	65535	64657.8
829.1313	674.785	65535	64654.15
829.2761	676.8907	65535	64658.9
829.4209	678.9958	65535	64657.4
829.5657	681.1002	65535	64655.8
829.7105	683.204	65535	64655.2
829.8553	685.3072	65535	64653.95
830.0001	687.4097	65535	64656.1
830.1449	689.5115	65535	64654.15
830.2898	691.6127	65535	64654.6
830.4346	693.7132	65535	64653.9
830.5794	695.8131	65535	64637.55
830.7243	697.9123	65535	64654.15
830.8691	700.0109	65535	64653.55
831.014	702.1089	65535	64652.85
831.1588	704.2061	65535	64653.35
831.3037	706.3028	65535	64652.55
831.4486	708.3987	65535	64652
831.5935	710.4941	65535	64654.5
831.7383	712.5887	65535	64649.9
831.8832	714.6827	65535	64645.55
832.0281	716.7761	65535	64648.75
832.173	718.8688	65535	64650.4
832.3179	720.9608	65535	64648.3
832.4628	723.0522	65535	64648.1
832.6077	725.1429	65535	64651.7
832.7527	727.233	65535	64647.8
832.8976	729.3224	65535	64651.15
833.0425	731.4112	65535	64649.65
833.1874	733.4993	65535	64646.8
833.3324	735.5867	65535	64646.15
833.4773	737.6735	65535	64645.6
833.6222	739.7596	65535	64648.25
833.7672	741.845	65535	64648.45
833.9122	743.9298	65535	64647.35
834.0571	746.014	65535	64650.65
834.2021	748.0974	65535	64644.5
834.347	750.1802	65535	64646.75
834.492	752.2624	65535	64650.5
834.637	754.3439	65535	64648.5
834.782	756.4247	65535	64639.6
834.9269	758.5048	65535	64650.15
835.0719	760.5843	65535	64645.65
835.2169	762.6631	65535	64645.6
835.3619	764.7413	65535	64650.2
835.5069	766.8188	65535	64645.5
835.6519	768.8956	65535	64644.75
835.7969	770.9718	65535	64646.35
835.9419	773.0473	65535	64648.75
836.0869	775.1221	65535	64647.55
836.232	777.1962	65535	64645.3
836.377	779.2697	65535	64643.55
836.522	781.3426	65535	64626.45
836.667	783.4147	65535	64643.65
836.8121	785.4862	65535	64649.05
836.9571	787.557	65535	64647.3
837.1021	789.6271	65535	64646.4
837.2472	791.6966	65535	64646.95
837.3922	793.7654	65535	64644.85
837.5373	795.8335	65535	64645
837.6823	797.901	65535	64644.6
837.8274	799.9678	65535	64643.95
837.9724	802.0339	65535	64644.35
838.1175	804.0993	65535	64634.2
838.2626	806.1641	65535	64643.1
838.4076	808.2282	65535	64645.95
838.5527	810.2916	65535	64641.8
838.6978	812.3544	65535	64648.4
838.8428	814.4164	65535	64645.5
838.9879	816.4778	65535	64641.6
839.133	818.5385	65535	64645.65
839.2781	820.5986	65535	64643.5
839.4232	822.658	65535	64642.3
839.5682	824.7166	65535	64646.6
839.7133	826.7747	65535	64642.45
839.8584	828.832	65535	64642.65
840.0035	830.8886	65535	64640.9
840.1486	832.9446	65535	64641
840.2937	834.9999	65535	64646.9
840.4388	837.0545	65535	64638.65
840.5839	839.1085	65535	64641.65
840.729	841.1618	65535	64637.45
840.8741	843.2143	65535	64643.2
841.0192	845.2662	65535	64643.5
841.1643	847.3175	65535	64641.6
841.3095	849.368	65535	64641.6
841.4546	851.4179	65535	64642.15
841.5997	853.467	65535	64642.35
841.7448	855.5155	65535	64642.45
841.8899	857.5633	65535	64640.05
842.0351	859.6105	65535	64643.5
842.1802	861.6569	65535	64642.6
842.3253	863.7027	65535	64642.5
842.4704	865.7478	65535	64640.05
842.6156	867.7922	65535	64640.1
842.7607	869.8359	65535	64639.4
842.9058	871.8789	65535	64640.85
843.0509	873.9212	65535	64607.8
843.1961	875.9629	65535	64638.5
843.3412	878.0039	65535	64640.35
843.4863	880.0441	65535	64641.6
843.6315	882.0837	65535	64640.05
843.7766	884.1226	65535	64638.05
843.9218	886.1609	65535	64639.5
844.0669	888.1984	65535	64636.8
844.212	890.2352	65535	64641.1
844.3572	892.2714	65535	64637
844.5023	894.3069	65535	64639.6
844.6475	896.3416	65535	64639.2
844.7926	898.3757	65535	64640.55
844.9377	900.4091	65535	64638.55
845.0829	902.4418	65535	64632.35
845.228	904.4739	65535	64636.85
845.3732	906.5052	65535	64638.65
845.5183	908.5358	65535	64639.4
845.6635	910.5658	65535	64638.15
845.8086	912.595	65535	64636.4
845.9538	914.6236	65535	64641.15
846.0989	916.6515	65535	64640.7
846.2441	918.6786	65535	64634.95
846.3892	920.7051	65535	64635.4
846.5344	922.7309	65535	64635.9
846.6795	924.756	65535	64637
846.8246	926.7804	65535	64635.9
846.9698	928.8041	65535	64636.6
847.1149	930.8272	65535	64638.85
847.2601	932.8495	65535	64637.2
847.4052	934.8711	65535	64637
847.5504	936.892	65535	64638.35
847.6955	938.9123	65535	64638.6
847.8407	940.9318	65535	64639.5
847.9858	942.9506	65535	64637.95
848.131	944.9688	65535	64636.7
848.2761	946.9862	65535	64637
848.4213	949.003	65535	64635.2
848.5664	951.019	65535	64636.25
848.7115	953.0344	65535	64639.95
848.8567	955.0491	65535	64634.5
849.0018	957.063	65535	64636.1
849.147	959.0763	65535	64640.65
849.2921	961.0888	65535	64635.75
849.4373	963.1007	65535	64636.95
849.5824	965.1119	65535	64637.2
849.7275	967.1223	65535	64638.15
849.8727	969.1321	65535	64640.75
850.0178	971.1412	65535	64635.7
850.1629	973.1495	65535	64635.35
850.3081	975.1572	65535	64602.6
850.4532	977.1641	65535	64636.5
850.5983	979.1704	65535	64637.6
850.7435	981.1759	65535	64633.85
850.8886	983.1808	65535	64634.2
851.0337	985.1849	65535	64626.15
851.1788	987.1884	65535	64634.85
851.324	989.1911	65535	64633.8
851.4691	991.1932	65535	64631.95
851.6142	993.1945	65535	64638.4
851.7593	995.1951	65535	64635.55
851.9045	997.1951	65535	64631.9
852.0496	999.1943	65535	64634
852.1947	1001.1928	65535	64635.75
852.3398	1003.1906	65535	64639.2
852.4849	1005.1877	65535	64636.9
852.63	1007.1841	65535	64635.15
852.7751	1009.1798	65535	64636.25
852.9202	1011.1748	65535	64635.65
853.0653	1013.1691	65535	64633.5
853.2104	1015.1627	65535	64637.8
853.3555	1017.1556	65535	64634.1
853.5006	1019.1477	65535	64636.25
853.6457	1021.1392	65535	64636.4
853.7908	1023.1299	65535	64638.9
853.9359	1025.12	65535	64635.45
854.081	1027.1093	65535	64637.65
854.2261	1029.0979	65535	64644.15
854.3712	1031.0859	65535	64639.65
854.5163	1033.0731	65535	64638.7
854.6613	1035.0596	65535	64638.35
854.8064	1037.0454	65535	64634.5
854.9515	1039.0304	65535	64634.75
855.0965	1041.0148	65535	64636.15
855.2416	1042.9985	65535	64634.45
855.3867	1044.9814	65535	64637.5
855.5317	1046.9636	65535	64634.8
855.6768	1048.9452	65535	64638.5
855.8219	1050.926	65535	64638.55
855.9669	1052.9061	65535	64637.05
856.112	1054.8855	65535	64636.15
856.257	1056.8642	65535	64637.9
856.4021	1058.8421	65535	64630.5
856.5471	1060.8194	65535	64634.55
856.6921	1062.7959	65535	64634.1
856.8372	1064.7717	65535	64635.6
856.9822	1066.7469	65535	64632
857.1272	1068.7213	65535	64634.2
857.2723	1070.695	65535	64637.95
857.4173	1072.6679	65535	64632.8
857.5623	1074.6402	65535	64634.95
857.7073	1076.6117	65535	64630.75
857.8523	1078.5826	65535	64634.85
857.9973	1080.5527	65535	64631.3
858.1423	1082.5221	65535	64634.95
858.2873	1084.4908	65535	64637.35
858.4323	1086.4587	65535	64635.6
858.5773	1088.426	65535	64634.3
858.7223	1090.3925	65535	64631.8
858.8673	1092.3584	65535	64635.05
859.0123	1094.3235	65535	64636.55
859.1573	1096.2879	65535	64633.25
859.3022	1098.2515	65535	64634.5
859.4472	1100.2145	65535	64636.25
859.5922	1102.1767	65535	64632.3
859.7371	1104.1382	65535	64633.9
859.8821	1106.099	65535	64634.25
860.027	1108.0591	65535	64635.25
860.172	1110.0185	65535	64635.6
860.3169	1111.9771	65535	64635.65
860.4619	1113.9351	65535	64635.25
860.6068	1115.8923	65535	64633.8
860.7517	1117.8488	65535	64630.65
860.8967	1119.8045	65535	64634.55
861.0416	1121.7596	65535	64634.35
861.1865	1123.7139	65535	64635.9
861.3314	1125.6675	65535	64635.15
861.4763	1127.6204	65535	64636.65
861.6212	1129.5726	65535	64632.95
861.7661	1131.524	65535	64635
861.911	1133.4748	65535	64636.3
862.0559	1135.4248	65535	64634.55
862.2008	1137.3741	65535	64638.35
862.3457	1139.3226	65535	64633.65
862.4905	1141.2705	65535	64634.4
862.6354	1143.2176	65535	64626.85
862.7803	1145.164	65535	64632.15
862.9251	1147.1097	65535	64633.5
863.07	1149.0546	65535	64634.25
863.2148	1150.9989	65535	64635.3
863.3597	1152.9424	65535	64635.65
863.5045	1154.8852	65535	64632.95
863.6493	1156.8272	65535	64634.95
863.7942	1158.7686	65535	64626.75
863.939	1160.7092	65535	64634.45
864.0838	1162.6491	65535	64633.9
864.2286	1164.5883	65535	64636.7
864.3734	1166.5267	65535	64634.95
864.5182	1168.4644	65535	64634.4
864.663	1170.4014	65535	64631.05
864.8078	1172.3377	65535	64636.5
864.9526	1174.2732	65535	64638.25
865.0974	1176.2081	65535	64634.5
865.2421	1178.1421	65535	64628.95
865.3869	1180.0755	65535	64636.3
865.5317	1182.0082	65535	64636.25
865.6764	1183.9401	65535	64635
865.8212	1185.8713	65535	64636.75
865.9659	1187.8017	65535	64635.4
866.1106	1189.7315	65535	64638.6
866.2554	1191.6605	65535	64610.25
866.4001	1193.5888	65535	64634.8
866.5448	1195.5163	65535	64634.3
866.6895	1197.4432	65535	64635.9
866.8342	1199.3693	65535	64634.95
866.9789	1201.2947	65535	64633
867.1236	1203.2193	65535	64633.55
867.2683	1205.1432	65535	64634.95
867.413	1207.0664	65535	64635.1
867.5576	1208.9889	65535	64634.1
867.7023	1210.9106	65535	64634.25
867.847	1212.8316	65535	64635.9
867.9916	1214.7519	65535	64626.3
868.1363	1216.6715	65535	64634.35
868.2809	1218.5903	65535	64636
868.4255	1220.5084	65535	64633.25
868.5701	1222.4257	65535	64635.9
868.7148	1224.3424	65535	64634.65
868.8594	1226.2583	65535	64630.35
869.004	1228.1735	65535	64633.9
869.1486	1230.0879	65535	64634.6
869.2932	1232.0016	65535	64633.95
869.4377	1233.9146	65535	64633.85
869.5823	1235.8269	65535	64634.7
869.7269	1237.7384	65535	64635.6
869.8715	1239.6492	65535	64638.4
870.016	1241.5592	65535	64635.65
870.1606	1243.4686	65535	64632.25
870.3051	1245.3772	65535	64636.4
870.4496	1247.285	65535	64635.7
870.5941	1249.1922	65535	64634.95
870.7387	1251.0986	65535	64633.3
870.8832	1253.0042	65535	64635.75
871.0277	1254.9092	65535	64634.55
871.1722	1256.8134	65535	64638.05
871.3167	1258.7169	65535	64634.85
871.4611	1260.6196	65535	64636
871.6056	1262.5216	65535	64633.55
871.7501	1264.4229	65535	64635.65
871.8945	1266.3234	65535	64638
872.039	1268.2232	65535	64633.1
872.1834	1270.1223	65535	64632.6
872.3278	1272.0207	65535	64632.55
872.4723	1273.9183	65535	64628.7
872.6167	1275.8151	65535	64635.2
872.7611	1277.7113	65535	64635.65
872.9055	1279.6067	65535	64636.25
873.0499	1281.5014	65535	64633.7
873.1943	1283.3953	65535	64633.95
873.3386	1285.2885	65535	64635.4
873.483	1287.181	65535	64636
873.6274	1289.0727	65535	64637.1
873.7717	1290.9637	65535	64633.4
873.9161	1292.854	65535	64634.9
874.0604	1294.7435	65535	64634.55
874.2047	1296.6323	65535	64634.3
874.349	1298.5204	65535	64631.5
874.4933	1300.4077	65535	64633.35
874.6376	1302.2943	65535	64635.65
874.7819	1304.1802	65535	64637
874.9262	1306.0653	65535	64631.15
875.0705	1307.9497	65535	64632.7
875.2147	1309.8333	65535	64636.55
875.359	1311.7162	65535	64633.95
875.5032	1313.5984	65535	64631.6
875.6475	1315.4798	65535	64624.8
875.7917	1317.3605	65535	64618.45
875.9359	1319.2405	65535	64634.65
876.0801	1321.1197	65535	64634.5
876.2243	1322.9982	65535	64632.65
876.3685	1324.876	65535	64634.2
876.5127	1326.753	65535	64632.35
876.6569	1328.6293	65535	64632.6
876.801	1330.5048	65535	64630.85
876.9452	1332.3796	65535	64637.3
877.0893	1334.2537	65535	64610.95
877.2335	1336.127	65535	64635.85
877.3776	1337.9996	65535	64636.15
877.5217	1339.8714	65535	64634.6
877.6658	1341.7426	65535	64591.8
877.8099	1343.6129	65535	64632.25
877.954	1345.4826	65535	64633.95
878.0981	1347.3515	65535	64633.7
878.2422	1349.2196	65535	64634.05
878.3862	1351.087	65535	64635.5
878.5303	1352.9537	65535	64634.75
878.6743	1354.8197	65535	64632.85
878.8184	1356.6849	65535	64635.9
878.9624	1358.5493	65535	64633.05
879.1064	1360.4131	65535	64634.1
879.2504	1362.276	65535	64635.5
879.3944	1364.1383	65535	64632.35
879.5384	1365.9998	65535	64630.5
879.6823	1367.8606	65535	64634.05
879.8263	1369.7206	65535	64632.6
879.9702	1371.5799	65535	64634.75
880.1142	1373.4384	65535	64634.95
880.2581	1375.2962	65535	64632.05
880.402	1377.1533	65535	64635.95
880.5459	1379.0096	65535	64633.9
880.6898	1380.8652	65535	64636.15
880.8337	1382.7201	65535	64633.85
880.9776	1384.5742	65535	64634.85
881.1215	1386.4275	65535	64632.5
881.2653	1388.2802	65535	64635.9
881.4092	1390.132	65535	64636.15
881.553	1391.9832	65535	64634.55
881.6968	1393.8336	65535	64635.65
881.8406	1395.6832	65535	64632
881.9844	1397.5322	65535	64633.1
882.1282	1399.3803	65535	64632.85
882.272	1401.2278	65535	64633.95
882.4158	1403.0745	65535	64637.1
882.5595	1404.9204	65535	64636.6
882.7033	1406.7656	65535	64635.5
882.847	1408.6101	65535	64634.75
882.9908	1410.4538	65535	64636.6
883.1345	1412.2968	65535	64634.7
883.2782	1414.139	65535	64633.6
883.4219	1415.9805	65535	64634.5
883.5656	1417.8213	65535	64629.55
883.7092	1419.6613	65535	64635.7
883.8529	1421.5006	65535	64635.25
883.9965	1423.3391	65535	64633.1
884.1402	1425.1769	65535	64632.3
884.2838	1427.0139	65535	64633.9
884.4274	1428.8502	65535	64634.3
884.571	1430.6858	65535	64634.1
884.7146	1432.5206	65535	64634.55
884.8582	1434.3547	65535	64634.4
885.0018	1436.188	65535	64634.5
885.1453	1438.0206	65535	64636.1
885.2889	1439.8524	65535	64636
885.4324	1441.6835	65535	64636.8
885.5759	1443.5139	65535	64630.9
885.7194	1445.3435	65535	64635.4
885.8629	1447.1724	65535	64634.15
886.0064	1449.0005	65535	64637.4
886.1499	1450.8279	65535	64632.85
886.2933	1452.6545	65535	64637.7
886.4368	1454.4804	65535	64636.9
886.5802	1456.3056	65535	64627.85
886.7237	1458.13	65535	64633.55
886.8671	1459.9536	65535	64634
887.0105	1461.7766	65535	64634.05
887.1539	1463.5987	65535	64634.75
887.2972	1465.4202	65535	64635.8
887.4406	1467.2409	65535	64635.35
887.584	1469.0608	65535	64637.5
887.7273	1470.88	65535	64635.65
887.8706	1472.6984	65535	64635.95
888.0139	1474.5161	65535	64631.45
888.1572	1476.3331	65535	64634.85
888.3005	1478.1493	65535	64635
888.4438	1479.9648	65535	64633.9
888.5871	1481.7795	65535	64637.45
888.7303	1483.5935	65535	64634.8
888.8736	1485.4067	65535	64637.05
889.0168	1487.2192	65535	64636.85
889.16	1489.031	65535	64631.1
889.3032	1490.842	65535	64635.55
889.4464	1492.6522	65535	64635.4
889.5896	1494.4618	65535	64633.35
889.7327	1496.2705	65535	64637.4
889.8759	1498.0785	65535	64633.75
890.019	1499.8858	65535	64636.8
890.1622	1501.6924	65535	64638.1
890.3053	1503.4981	65535	64635.05
890.4484	1505.3032	65535	64636.1
890.5914	1507.1075	65535	64636.55
890.7345	1508.911	65535	64634.1
890.8776	1510.7138	65535	64635.75
891.0206	1512.5159	65535	64635.95
891.1637	1514.3172	65535	64635.5
891.3067	1516.1178	65535	64636.45
891.4497	1517.9176	65535	64633.5
891.5927	1519.7166	65535	64636.4
891.7357	1521.515	65535	64630.55
891.8786	1523.3126	65535	64634.65
892.0216	1525.1094	65535	64634.9
892.1645	1526.9055	65535	64637.6
892.3074	1528.7008	65535	64636
892.4503	1530.4954	65535	64629.95
892.5932	1532.2893	65535	64638.9
892.7361	1534.0824	65535	64632.1
892.879	1535.8747	65535	64635.7
893.0218	1537.6663	65535	64635.05
893.1647	1539.4572	65535	64634.9
893.3075	1541.2473	65535	64634.2
893.4503	1543.0367	65535	64637.45
893.5931	1544.8253	65535	64630.15
893.7359	1546.6132	65535	64633.9
893.8787	1548.4003	65535	64626.1
894.0214	1550.1867	65535	64626.75
894.1642	1551.9723	65535	64630.3
894.3069	1553.7572	65535	64638.3
894.4496	1555.5414	65535	64638.05
894.5923	1557.3247	65531.1	64630.9
894.735	1559.1074	65535	64638.15
894.8777	1560.8893	65535	64637.5
895.0204	1562.6705	65535	64637.5
895.163	1564.4509	65533.4	64637.75
895.3056	1566.2305	65535	64636.85
895.4482	1568.0094	65535	64638.05
895.5908	1569.7876	65535	64638.65
895.7334	1571.565	65535	64634.35
895.876	1573.3417	65535	64635.9
896.0186	1575.1176	65535	64636.85
896.1611	1576.8928	65531.15	64633.3
896.3036	1578.6672	65520.05	64624.45
896.4461	1580.4409	65529.45	64636.1
896.5886	1582.2138	65501	64603.2
896.7311	1583.986	65514.65	64617.85
896.8736	1585.7575	65467.55	64570.9
897.0161	1587.5282	65489.15	64591.5
897.1585	1589.2981	65478.4	64581.75
897.3009	1591.0673	65404.1	64508.6
897.4433	1592.8358	65295.05	64399.8
897.5857	1594.6035	65405.25	64508
897.7281	1596.3704	65421.25	64525.35
897.8705	1598.1366	65166.95	64271.2
898.0128	1599.9021	64984.35	64089.75
898.1551	1601.6668	65254.8	64356.8
898.2975	1603.4308	65132.15	64234.15
898.4398	1605.194	65130.65	64229.85
898.5821	1606.9564	64555.2	63655.55
898.7243	1608.7182	64913.15	64013.95
898.8666	1610.4791	64613.6	63718.6
899.0088	1612.2394	64933.5	64038.45
899.1511	1613.9988	64434.25	63539.75
899.2933	1615.7576	64958.85	64062.25
899.4355	1617.5156	64944.25	64040.3
899.5776	1619.2728	65255.3	64359.15
899.7198	1621.0293	64630.4	63733.95
899.862	1622.785	64655.5	63756.25
900.0041	1624.54	64936.4	64036.9
900.1462	1626.2942	64473.1	63576.45
900.2883	1628.0477	63663.95	62766.3
900.4304	1629.8005	62874.05	61975.55
900.5725	1631.5525	63674.6	62781.55
900.7145	1633.3037	62409	61512.5
900.8566	1635.0542	62250.95	61355.1
900.9986	1636.804	62847.85	61952
901.1406	1638.553	61561.5	60556.35
901.2826	1640.3013	62029.15	61132.9
901.4245	1642.0488	61290.3	60393.8
901.5665	1643.7955	61798.25	60903.3
901.7085	1645.5416	61201.25	60306.45
901.8504	1647.2868	60672	59776.25
901.9923	1649.0313	61588.2	60693
902.1342	1650.7751	61049.15	60151.8
902.2761	1652.5181	60639.45	59744.05
902.4179	1654.2604	60753.05	59858.55
902.5598	1656.0019	61169.5	60273.3
902.7016	1657.7427	60945.4	60049.75
902.8434	1659.4828	61543.05	60647.6
902.9852	1661.222	61005.5	60107.7
903.127	1662.9606	61600.05	60705.35
903.2687	1664.6984	60684.1	59791.15
903.4105	1666.4354	60920.9	60024.9
903.5522	1668.1717	59674.7	58780.3
903.6939	1669.9072	58833.05	57938.4
903.8356	1671.642	58559.25	57663.45
903.9773	1673.3761	58309.75	57412.7
904.119	1675.1094	57973.6	57078.8
904.2606	1676.8419	57337.05	56442.7
904.4022	1678.5737	57283.45	56391.35
904.5439	1680.3048	56891.7	55996.15
904.6855	1682.0351	56619.2	55723.75
904.827	1683.7646	56336.8	55439.25
904.9686	1685.4934	56385.55	55492.15
905.1101	1687.2215	55329.7	54435.8
905.2517	1688.9488	55937.85	55044.5
905.3932	1690.6754	54531.85	53638.65
905.5347	1692.4012	55064.05	54171.35
905.6761	1694.1263	54941.9	54049
905.8176	1695.8506	54514.25	53618.75
905.9591	1697.5742	54362.25	53467.65
906.1005	1699.297	54082.95	53188.8
906.2419	1701.0191	54000.6	53108.45
906.3833	1702.7404	53509.05	52614.8
906.5246	1704.461	53254.65	52358.45
906.666	1706.1808	53129.7	52232.4
906.8073	1707.8999	52993.95	52098.7
906.9487	1709.6182	52730.5	51838.15
907.09	1711.3358	52684.4	51790.8
907.2313	1713.0527	52425.05	51532.25
907.3725	1714.7688	52327.95	51430.35
907.5138	1716.4841	51783.5	50888.35
907.655	1718.1987	51929.1	51031.85
907.7962	1719.9126	51645.3	50751.65
907.9374	1721.6257	51519.25	50624.7
908.0786	1723.338	51539.95	50644
908.2198	1725.0496	50918.6	50024.75
908.3609	1726.7605	50873.55	49978.9
908.502	1728.4706	50654.9	49761.25
908.6431	1730.18	50423.9	49527.05
908.7842	1731.8886	50284	49391.6
908.9253	1733.5964	50180.65	49269.3
909.0664	1735.3036	50028.55	49135.05
909.2074	1737.0099	49854.85	48961.7
909.3484	1738.7156	49657.95	48764.25
909.4894	1740.4204	49398.25	48503.55
909.6304	1742.1246	49368.35	48473.7
909.7714	1743.8279	49242.4	48350.45
909.9123	1745.5306	49120.2	48228.3
910.0532	1747.2325	48856.75	47963.8
910.1941	1748.9336	48666	47773.55
910.335	1750.634	48451.35	47556.7
910.4759	1752.3336	48490.5	47597.45
910.6168	1754.0325	48260.65	47368.5
910.7576	1755.7307	48203.7	47311.05
910.8984	1757.4281	48141.95	47248.15
911.0392	1759.1247	48018.15	47116.75
911.18	1760.8206	47775.65	46877
911.3208	1762.5158	47723.7	46826.2
911.4615	1764.2102	47502.85	46611.4
911.6022	1765.9039	47313.45	46421.1
911.7429	1767.5968	47234.75	46342.55
911.8836	1769.289	47058.65	46165.6
912.0243	1770.9804	46968.35	46075.1
912.1649	1772.6711	46871.6	45975.3
912.3056	1774.361	46704	45808.75
912.4462	1776.0502	46620.55	45727.8
912.5868	1777.7386	46426.55	45529
912.7274	1779.4263	46270.25	45376.45
912.8679	1781.1132	46242.45	45349.3
913.0084	1782.7994	45996.6	45102.7
913.149	1784.4849	45939.65	45047.85
913.2895	1786.1696	45742.85	44842.15
913.4299	1787.8535	45554.25	44663.55
913.5704	1789.5367	45442.25	44547.9
913.7108	1791.2192	45390	44498.55
913.8513	1792.9009	45148.9	44226.75
913.9917	1794.5818	45079.3	44183.7
914.132	1796.2621	44893	44001.15
914.2724	1797.9415	44805.1	43911.35
914.4128	1799.6202	44641.4	43749.6
914.5531	1801.2982	44559.8	43665.65
914.6934	1802.9755	44410.45	43514.1
914.8337	1804.6519	44359.9	43467.5
914.9739	1806.3277	44115.65	43222.3
915.1142	1808.0027	43872.95	42980.05
915.2544	1809.6769	43860.8	42967.8
915.3946	1811.3504	43693.85	42799.95
915.5348	1813.0231	43611.9	42718.5
915.675	1814.6951	43524.15	42632.45
915.8151	1816.3664	43507.45	42613.95
915.9553	1818.0369	43348	42454.6
916.0954	1819.7067	43155.6	42261.8
916.2355	1821.3757	43075.9	42180.2
916.3755	1823.044	43002.35	42109.05
916.5156	1824.7115	42910.9	42017.1
916.6556	1826.3783	42686.35	41794.65
916.7956	1828.0443	42483.25	41590
916.9356	1829.7096	42364.35	41471.3
917.0756	1831.3741	42292.35	41395.1
917.2155	1833.0379	42171.3	41278.9
917.3555	1834.701	42031.95	41137.25
917.4954	1836.3633	41980	41087.05
917.6353	1838.0248	41814.1	40919.7
917.7751	1839.6856	41689.95	40797.4
917.915	1841.3457	41648.25	40756
918.0548	1843.005	41533.1	40638.65
918.1946	1844.6636	41418.2	40527.1
918.3344	1846.3214	41303.15	40411.5
918.4742	1847.9785	41253.4	40362.3
918.6139	1849.6349	41089.2	40195.75
918.7537	1851.2904	40973.6	40070.9
918.8934	1852.9453	40887.75	39993.35
919.0331	1854.5994	40727.75	39835.15
919.1727	1856.2528	40747.5	39849.95
919.3124	1857.9054	40569.8	39674.9
919.452	1859.5572	40518.75	39627.35
919.5916	1861.2083	40391.65	39497.4
919.7312	1862.8587	40301.95	39410.2
919.8708	1864.5084	40205.9	39313.5
920.0103	1866.1572	40081.6	39187.85
920.1498	1867.8054	39851.4	38958.35
920.2893	1869.4528	39804.65	38911.7
920.4288	1871.0994	39703.55	38812
920.5683	1872.7453	39583.4	38689.25
920.7077	1874.3905	39460.45	38562.25
920.8471	1876.0349	39355.6	38461.1
920.9865	1877.6786	39282.6	38388.25
921.1259	1879.3215	39280.35	38387.3
921.2653	1880.9637	39107.8	38213.8
921.4046	1882.6051	39027.35	38135.05
921.5439	1884.2458	38909.25	38015.25
921.6832	1885.8858	38722.8	37829.1
921.8225	1887.525	38667.25	37773.95
921.9617	1889.1634	38438.05	37545.25
922.101	1890.8011	38322.4	37429.15
922.2402	1892.4381	38186.25	37294.7
922.3794	1894.0743	38183.6	37291.95
922.5185	1895.7098	38046.75	37152.7
922.6577	1897.3446	37918.35	37025.15
922.7968	1898.9786	37775.85	36876.7
922.9359	1900.6118	37716.75	36823.65
923.075	1902.2443	37524.3	36630.8
923.214	1903.8761	37412.1	36520.7
923.3531	1905.5071	37172.85	36280.65
923.4921	1907.1374	37074.95	36181.5
923.6311	1908.7669	36991.65	36097.85
923.77	1910.3957	36962.4	36068.8
923.909	1912.0237	36687.3	35794.9
924.0479	1913.651	36629.7	35738.1
924.1868	1915.2776	36559.85	35668.15
924.3257	1916.9034	36355.55	35464.25
924.4646	1918.5285	36165.15	35273.5
924.6034	1920.1528	35977.15	35084.65
924.7422	1921.7764	35965.35	35073.85
924.881	1923.3992	35794.25	34902.3
925.0198	1925.0213	35534.25	34642.05
925.1586	1926.6427	35413.4	34521.65
925.2973	1928.2633	35402.45	34402.7
925.436	1929.8832	35225.75	34331.45
925.5747	1931.5023	35026.15	34133.2
925.7134	1933.1207	34943.15	34050.15
925.852	1934.7383	34886.05	33993.4
925.9906	1936.3552	34725.55	33833.5
926.1292	1937.9714	34630.95	33737.55
926.2678	1939.5868	34430.7	33534.45
926.4064	1941.2015	34250.25	33356.1
926.5449	1942.8154	34097.05	33203.4
926.6834	1944.4286	33989.9	33096.55
926.8219	1946.041	33842.35	32928.05
926.9604	1947.6528	33677.15	32779.55
927.0988	1949.2637	33551.25	32659.05
927.2372	1950.8739	33452.35	32560.25
927.3756	1952.4834	33388.8	32494.65
927.514	1954.0921	33290.5	32396.9
927.6523	1955.7001	33144.5	32246.6
927.7907	1957.3074	33045.2	32154.5
927.929	1958.9139	32888.6	31997.15
928.0673	1960.5197	32786.05	31893.2
928.2055	1962.1247	32674.3	31782.55
928.3438	1963.729	32490.65	31597.75
928.482	1965.3325	32350.5	31435.25
928.6202	1966.9353	32228.7	31336.65
928.7584	1968.5374	32101.3	31207.7
928.8965	1970.1387	32049.25	31155.25
929.0346	1971.7393	31903.7	31011.2
929.1727	1973.3392	31803.55	30909.1
929.3108	1974.9383	31605.55	30715.35
929.4489	1976.5366	31503.25	30611.05
929.5869	1978.1342	31461.6	30569.75
929.7249	1979.7311	31360.2	30466.95
929.8629	1981.3273	31239.65	30344.15
930.0009	1982.9227	31156.6	30264.9
930.1388	1984.5173	31029.9	30138.2
930.2767	1986.1112	30842.7	29952.25
930.4146	1987.7044	30761.15	29870.85
930.5525	1989.2968	30645.6	29753.3
930.6904	1990.8885	30594.2	29698.8
930.8282	1992.4795	30517.8	29624.4
930.966	1994.0697	30324.2	29432.15
931.1038	1995.6592	30254.25	29364.15
931.2415	1997.2479	30151.4	29257.8
931.3793	1998.8359	30047.25	29156
931.517	2000.4232	29922.2	29031.2
931.6547	2002.0097	29809.9	28920.75
931.7923	2003.5955	29677.5	28785.6
931.93	2005.1805	29614.25	28718.6
932.0676	2006.7648	29518.9	28629.4
932.2052	2008.3484	29423.8	28533.15
932.3427	2009.9312	29432.65	28540.6
932.4803	2011.5133	29314.45	28424.3
932.6178	2013.0946	29226.65	28334.65
932.7553	2014.6752	29116.45	28225.8
932.8928	2016.2551	29023.4	28131.6
933.0302	2017.8342	28870.5	27978
933.1676	2019.4126	28766.9	27875.95
933.305	2020.9902	28634.7	27743.35
933.4424	2022.5672	28548.45	27655.95
933.5798	2024.1433	28495.35	27598.45
933.7171	2025.7188	28341.8	27452.75
933.8544	2027.2935	28263.95	27372.2
933.9917	2028.8674	28152.05	27260.75
934.129	2030.4406	28059.9	27170.8
934.2662	2032.0131	27927.95	27036.5
934.4034	2033.5849	27876.35	26981.05
934.5406	2035.1559	27788.8	26897.65
934.6778	2036.7261	27685.75	26794.5
934.8149	2038.2957	27652.35	26762.5
934.952	2039.8645	27592.7	26701.35
935.0891	2041.4325	27541.5	26646.4
935.2262	2042.9998	27407.1	26515.65
935.3632	2044.5664	27322.95	26429.2
935.5002	2046.1323	27229.1	26337.95
935.6372	2047.6974	27143.7	26254
935.7742	2049.2617	27040.3	26150.25
935.9111	2050.8254	26988.75	26077.1
936.048	2052.3883	26923.2	26030.2
936.1849	2053.9504	26836.35	25943.8
936.3218	2055.5118	26722.5	25831
936.4586	2057.0725	26581.95	25686.05
936.5955	2058.6325	26564.5	25671.45
936.7323	2060.1917	26447.9	25556
936.869	2061.7502	26401.3	25506.5
937.0058	2063.3079	26281.95	25388.95
937.1425	2064.8649	26194.95	25301.05
937.2792	2066.4212	26113.05	25219.45
937.4159	2067.9767	26039.55	25148.35
937.5525	2069.5315	25943.05	25051.4
937.6891	2071.0856	25801.85	24910.6
937.8257	2072.6389	25690.65	24798.25
937.9623	2074.1915	25575.8	24687.4
938.0989	2075.7433	25440.25	24546.65
938.2354	2077.2945	25360.6	24469.4
938.3719	2078.8448	25298.15	24407.05
938.5084	2080.3945	25218.2	24326.55
938.6448	2081.9434	25164.6	24273.45
938.7812	2083.4916	25047.8	24154.6
938.9176	2085.039	24931.2	24038
939.054	2086.5857	24886.2	23994.55
939.1903	2088.1317	24833.8	23940.55
939.3267	2089.677	24754.05	23862.05
939.463	2091.2215	24675.95	23785.55
939.5992	2092.7652	24581.4	23688.25
939.7355	2094.3083	24543.2	23648.95
939.8717	2095.8506	24495.85	23603.35
940.0079	2097.3921	24486.65	23595.05
940.1441	2098.933	24334.9	23444.2
940.2802	2100.4731	24273.8	23381.55
940.4163	2102.0124	24262.4	23363.65
940.5524	2103.5511	24137.9	23245.55
940.6885	2105.089	24084.5	23191.45
940.8245	2106.6261	24042.55	23151.5
940.9606	2108.1626	23946.1	23053.25
941.0965	2109.6983	23878.55	22957.4
941.2325	2111.2332	23755.15	22863.5
941.3684	2112.7675	23746.2	22854.3
941.5044	2114.301	23626.6	22732.9
941.6403	2115.8337	23609.8	22715.4
941.7761	2117.3657	23533.4	22640.3
941.912	2118.897	23498.35	22607.1
942.0478	2120.4276	23374	22475.45
942.1835	2121.9575	23254.45	22362.65
942.3193	2123.4866	23287.25	22382.5
942.455	2125.0149	23169	22275.5
942.5907	2126.5426	23032.1	22139.25
942.7264	2128.0695	22956.75	22062.7
942.8621	2129.5956	22940.15	22051.8
942.9977	2131.1211	22874.35	21978.65
943.1333	2132.6458	22801.05	21908.7
943.2689	2134.1698	22749.1	21857.35
943.4044	2135.693	22677.65	21783.4
943.54	2137.2155	22569.55	21675.9
943.6755	2138.7373	22529.75	21638.6
943.8109	2140.2584	22468	21575.9
943.9464	2141.7787	22365.7	21466.9
944.0818	2143.2983	22264.55	21374.4
944.2172	2144.8171	22136.5	21247.6
944.3526	2146.3353	22078.8	21183.7
944.4879	2147.8527	22002.65	21111
944.6232	2149.3693	21964.6	21072.35
944.7585	2150.8853	21873.8	20980.55
944.8938	2152.4005	21754.4	20862.55
945.029	2153.9149	21756.75	20863.65
945.1642	2155.4287	21644.6	20751.75
945.2994	2156.9417	21602.6	20710.2
945.4346	2158.454	21534.8	20641.1
945.5697	2159.9655	21476.65	20583.35
945.7048	2161.4764	21464	20572.75
945.8399	2162.9865	21362.7	20471.5
945.9749	2164.4958	21313.4	20419.55
946.1099	2166.0045	21195.25	20300.65
946.2449	2167.5124	21207.2	20315.45
946.3799	2169.0195	21097.2	20207.25
946.5148	2170.526	21086.1	20195.25
946.6498	2172.0317	21017.25	20124.2
946.7846	2173.5367	20952.05	20058.05
946.9195	2175.0409	20866.05	19974.55
947.0543	2176.5445	20838.45	19947.5
947.1891	2178.0473	20758.15	19864.1
947.3239	2179.5494	20626.2	19729.4
947.4587	2181.0507	20569.95	19675.95
947.5934	2182.5513	20475.6	19584
947.7281	2184.0512	20442.2	19550.85
947.8628	2185.5504	20394.5	19504.95
947.9974	2187.0488	20288.6	19395.4
948.132	2188.5465	20197.5	19303.95
948.2666	2190.0435	20148.75	19256.95
948.4012	2191.5397	20047.5	19155.9
948.5357	2193.0353	19987.85	19097.55
948.6702	2194.5301	19897.65	19004.35
948.8047	2196.0241	19810.7	18918.6
948.9392	2197.5175	19754.75	18862.3
949.0736	2199.0101	19650.35	18754.85
949.208	2200.502	19565	18673.9
949.3424	2201.9931	19470.85	18579.3
949.4767	2203.4835	19423.45	18530.2
949.611	2204.9733	19359.25	18462.4
949.7453	2206.4622	19302.95	18411.6
949.8796	2207.9505	19216.15	18322.2
950.0138	2209.438	19105.8	18214.55
950.148	2210.9248	19094.6	18199.95
950.2822	2212.4109	19019.2	18127.15
950.4164	2213.8962	18937.25	18041.6
950.5505	2215.3809	18924.4	18030.15
950.6846	2216.8648	18840.95	17946.7
950.8186	2218.3479	18768.95	17871.9
950.9527	2219.8304	18699.35	17804.45
951.0867	2221.3121	18648	17753.8
951.2207	2222.7931	18564.85	17673.1
951.3546	2224.2733	18475.45	17582.95
951.4886	2225.7529	18413.8	17522.15
951.6225	2227.2317	18337.6	17443.15
951.7563	2228.7098	18310.65	17417.75
951.8902	2230.1872	18231.3	17339.15
952.024	2231.6638	18210.25	17319.15
952.1578	2233.1397	18113.75	17215.8
952.2916	2234.6149	18044.15	17151.5
952.4253	2236.0894	17949.1	17056.85
952.559	2237.5632	17973.55	17070.55
952.6927	2239.0362	17873.4	16980.95
952.8263	2240.5085	17788.65	16896.7
952.9599	2241.9801	17712.2	16818.4
953.0935	2243.4509	17661.3	16768.95
953.2271	2244.921	17643.1	16753.35
953.3606	2246.3904	17519.2	16625.4
953.4941	2247.8591	17456.4	16563.85
953.6276	2249.3271	17408.45	16516.15
953.7611	2250.7943	17362.45	16468.8
953.8945	2252.2608	17250.85	16359.4
954.0279	2253.7266	17235.15	16343.65
954.1612	2255.1917	17200.1	16307.65
954.2946	2256.656	17104.45	16212.9
954.4279	2258.1197	17082.75	16191.3
954.5612	2259.5826	17009.4	16115.3
954.6944	2261.0447	16975.15	16082.35
954.8276	2262.5062	16877.5	15983.1
954.9608	2263.9669	16837.55	15944.4
955.094	2265.4269	16833.95	15942.75
955.2271	2266.8862	16765.35	15874
955.3602	2268.3448	16716.2	15824.1
955.4933	2269.8026	16672.15	15779.25
955.6264	2271.2598	16611.9	15719.75
955.7594	2272.7162	16574.55	15682.75
955.8924	2274.1719	16527.1	15634.35
956.0253	2275.6268	16448.15	15555.5
956.1583	2277.0811	16392.9	15498.6
956.2912	2278.5346	16336.15	15444.95
956.4241	2279.9874	16297.55	15407.4
956.5569	2281.4395	16265.3	15374.95
956.6897	2282.8908	16207.2	15309.6
956.8225	2284.3414	16163.9	15268.9
956.9553	2285.7914	16087.95	15196.8
957.088	2287.2406	16023.6	15126.8
957.2207	2288.689	15997.85	15105.85
957.3534	2290.1368	15954.1	15062.6
957.486	2291.5838	15875.8	14980.45
957.6186	2293.0302	15852.65	14958.5
957.7512	2294.4758	15742.75	14851.35
957.8838	2295.9206	15660.3	14764.75
958.0163	2297.3648	15650.05	14757.4
958.1488	2298.8082	15603.5	14709.8
958.2813	2300.251	15561.6	14670.9
958.4137	2301.693	15519.35	14622.6
958.5461	2303.1343	15504.65	14609.2
958.6785	2304.5748	15435.95	14542.1
958.8108	2306.0147	15377.9	14484.6
958.9432	2307.4538	15318.35	14423.05
959.0754	2308.8922	15282.15	14390.85
959.2077	2310.3299	15210.45	14320.1
959.3399	2311.7669	15183.15	14292
959.4721	2313.2031	15113.7	14221.95
959.6043	2314.6387	15055	14162.85
959.7365	2316.0735	15013.75	14121.5
959.8686	2317.5076	14966.25	14074.45
960.0006	2318.941	14923.9	14032.05
960.1327	2320.3737	14866.2	13972.45
960.2647	2321.8056	14806.75	13910.65
960.3967	2323.2369	14765.5	13873.15
960.5287	2324.6674	14726.55	13829.8
960.6606	2326.0972	14659.05	13762.9
960.7925	2327.5263	14583.4	13691.4
960.9244	2328.9547	14548.25	13655.1
961.0562	2330.3823	14523.1	13630.2
961.1881	2331.8092	14526.1	13631.8
961.3198	2333.2355	14425.25	13530.65
961.4516	2334.661	14413.4	13519.9
961.5833	2336.0858	14357.05	13462.6
961.715	2337.5098	14321.5	13428.8
961.8467	2338.9332	14278.6	13385.1
961.9783	2340.3558	14228.4	13331.9
962.1099	2341.7778	14164.8	13271.95
962.2415	2343.199	14117.9	13225.3
962.373	2344.6195	14064.55	13172.8
962.5045	2346.0393	14025.15	13132.6
962.636	2347.4583	14020.65	13127.25
962.7675	2348.8767	13952.55	13060.05
962.8989	2350.2943	13894.45	13001.1
963.0303	2351.7113	13856.75	12966.25
963.1617	2353.1275	13832.05	12938.25
963.293	2354.543	13777.15	12875.75
963.4243	2355.9578	13742.15	12849.15
963.5556	2357.3718	13646.8	12753.35
963.6868	2358.7852	13604.4	12708.65
963.818	2360.1978	13540.7	12649
963.9492	2361.6098	13498.1	12605.7
964.0803	2363.021	13472.15	12576.45
964.2114	2364.4315	13398.65	12507.5
964.3425	2365.8413	13366.55	12471.8
964.4736	2367.2504	13313.15	12421.4
964.6046	2368.6587	13236.3	12344.25
964.7356	2370.0664	13222	12329.25
964.8666	2371.4733	13113.6	12221.35
964.9975	2372.8795	13093.5	12202.85
965.1284	2374.285	13047.95	12157.25
965.2593	2375.6899	12966.5	12076.3
965.3901	2377.0939	12892.7	12001.95
965.5209	2378.4973	12855.5	11963.3
965.6517	2379.9	12808.9	11917.3
965.7825	2381.3019	12784.55	11893.55
965.9132	2382.7032	12724.65	11832.25
966.0439	2384.1037	12688.45	11797.4
966.1745	2385.5035	12628.9	11735.35
966.3051	2386.9027	12600.55	11709.1
966.4357	2388.3011	12553.75	11658.6
966.5663	2389.6987	12509.6	11616.75
966.6968	2391.0957	12463.45	11572.85
966.8273	2392.492	12424.05	11533.45
966.9578	2393.8876	12321	11431.15
967.0882	2395.2824	12270.1	11378.15
967.2186	2396.6765	12228.75	11338.25
967.349	2398.07	12181.95	11290.45
967.4793	2399.4627	12158.8	11268.05
967.6097	2400.8547	12131.55	11239.95
967.7399	2402.246	12077.35	11180.15
967.8702	2403.6366	11990	11096.8
968.0004	2405.0265	11955.7	11066.05
968.1306	2406.4156	11916.85	11021.75
968.2607	2407.8041	11849.6	10956.4
968.3909	2409.1918	11821.1	10927.65
968.521	2410.5789	11790.25	10895.75
968.651	2411.9652	11728.6	10833.6
968.781	2413.3508	11678.65	10787.7
968.911	2414.7358	11608.75	10715.85
969.041	2416.12	11597.55	10706.15
969.1709	2417.5035	11550.15	10658.4
969.3008	2418.8863	11502.05	10610
969.4307	2420.2684	11475.55	10583.55
969.5606	2421.6497	11402.3	10508.95
969.6904	2423.0304	11343.65	10453.25
969.8201	2424.4104	11333.4	10441.6
969.9499	2425.7896	11294.2	10401.35
970.0796	2427.1682	11260.05	10365.55
970.2093	2428.546	11216.9	10322.45
970.3389	2429.9232	11200.75	10307.35
970.4685	2431.2996	11188.25	10297.65
970.5981	2432.6753	11123.65	10232.85
970.7277	2434.0503	11104	10212.45
970.8572	2435.4246	11061.15	10167.85
970.9867	2436.7982	11007.15	10112.25
971.1161	2438.1711	10965.85	10075.8
971.2456	2439.5433	10940.25	10047.25
971.375	2440.9148	10888.7	9995.4
971.5043	2442.2856	10808.85	9917.8
971.6336	2443.6557	10802.8	9909.15
971.7629	2445.025	10778.25	9886.1
971.8922	2446.3937	10748.95	9857.05
972.0214	2447.7617	10673.2	9781.5
972.1506	2449.1289	10686.3	9793.85
972.2798	2450.4955	10652.7	9757.35
972.4089	2451.8613	10618.8	9728.65
972.538	2453.2265	10569.15	9676.95
972.6671	2454.5909	10556.25	9663.35
972.7961	2455.9546	10527.5	9636.05
972.9251	2457.3177	10452	9560.1
973.0541	2458.68	10443.4	9549.05
973.1831	2460.0416	10428.3	9534.1
973.312	2461.4025	10418.85	9526.35
973.4408	2462.7627	10365	9460.65
973.5697	2464.1222	10326.25	9434.75
973.6985	2465.4811	10294.05	9402
973.8273	2466.8392	10233.05	9342.2
973.956	2468.1966	10257.95	9364.7
974.0847	2469.5533	10250.05	9357.65
974.2134	2470.9093	10221.8	9328.4
974.3421	2472.2645	10167.5	9272.3
974.4707	2473.6191	10097.3	9205.15
974.5993	2474.973	10064.3	9173.7
974.7278	2476.3262	10022.75	9129.7
974.8563	2477.6787	10000.4	9110.1
974.9848	2479.0305	9924.25	9032
975.1132	2480.3816	9893.3	9000.95
975.2417	2481.7319	9865	8973.4
975.37	2483.0816	9864.05	8969.5
975.4984	2484.4306	9818.25	8923.6
975.6267	2485.7789	9772.15	8880.5
975.755	2487.1264	9728.6	8834.55
975.8833	2488.4733	9686.5	8795.1
976.0115	2489.8195	9658	8747.5
976.1397	2491.165	9606.65	8710.65
976.2678	2492.5097	9592.45	8699.15
976.3959	2493.8538	9559.2	8667.4
976.524	2495.1972	9497.95	8606.65
976.6521	2496.5398	9461.4	8567.65
976.7801	2497.8818	9422.4	8527.3
976.9081	2499.2231	9408.2	8514.5
977.036	2500.5637	9369.95	8477
977.164	2501.9035	9319	8426.05
977.2918	2503.2427	9303.7	8406.8
977.4197	2504.5812	9258.7	8367.1
977.5475	2505.919	9262.85	8369.95
977.6753	2507.256	9201	8307.95
977.8031	2508.5924	9139.45	8247.9
977.9308	2509.9281	9129.75	8229.65
978.0585	2511.2631	9108.2	8215.3
978.1861	2512.5974	9089.6	8196.35
978.3137	2513.9309	9043.95	8150.55
978.4413	2515.2638	9042.35	8118.1
978.5689	2516.596	8997.6	8105.85
978.6964	2517.9275	8948.9	8055.95
978.8239	2519.2583	8926.15	8033
978.9513	2520.5884	8867.65	7971.95
979.0788	2521.9178	8861.05	7967.65
979.2062	2523.2465	8822.65	7931.15
979.3335	2524.5745	8760.75	7869.95
979.4608	2525.9018	8748.65	7856.8
979.5881	2527.2284	8728.05	7838.6
979.7154	2528.5543	8727.5	7836.1
979.8426	2529.8796	8676.95	7782.05
979.9698	2531.2041	8659.9	7767.6
980.0969	2532.5279	8652.55	7762.5
980.224	2533.851	8637.7	7745.25
980.3511	2535.1735	8597.4	7705.5
980.4781	2536.4952	8561.1	7669.05
980.6052	2537.8163	8530.6	7639.1
980.7321	2539.1366	8500.6	7609.45
980.8591	2540.4562	8475.65	7583.3
980.986	2541.7752	8472.25	7581.1
981.1129	2543.0935	8459.7	7566.45
981.2397	2544.411	8453.65	7559.75
981.3665	2545.7279	8413.85	7521.5
981.4933	2547.0441	8366.8	7474.7
981.62	2548.3596	8366.7	7473.6
981.7467	2549.6744	8347.35	7454.25
981.8734	2550.9885	8342.7	7448.4
982.0001	2552.3019	8278.5	7385.4
982.1267	2553.6146	8259.1	7366.6
982.2532	2554.9266	8260.65	7369.75
982.3798	2556.2379	8197.1	7305.7
982.5063	2557.5485	8194.15	7304.5
982.6327	2558.8585	8159.15	7260.3
982.7592	2560.1677	8180.75	7284.15
982.8856	2561.4762	8149.25	7255.3
983.0119	2562.7841	8135.55	7239.7
983.1383	2564.0913	8101.5	7210.05
983.2646	2565.3977	8070.95	7180.9
983.3908	2566.7035	8037.6	7145.8
983.517	2568.0086	8055.1	7160.45
983.6432	2569.313	8013.55	7121.75
983.7694	2570.6167	8013.8	7116.35
983.8955	2571.9197	7972.45	7081.6
984.0216	2573.222	7985.15	7089.5
984.1476	2574.5236	7959.1	7068.1
984.2737	2575.8246	7937.9	7043.2
984.3996	2577.1248	7904.35	7009.75
984.5256	2578.4244	7887.85	6994.5
984.6515	2579.7232	7873.4	6980.6
984.7774	2581.0214	7859.8	6942.6
984.9032	2582.3189	7836.4	6944.2
985.029	2583.6157	7807.85	6912.15
985.1548	2584.9118	7804.85	6910.65
985.2806	2586.2072	7778.6	6886.8
985.4063	2587.5019	7773.7	6882.6
985.5319	2588.7959	7746.8	6852.8
985.6576	2590.0893	7699.9	6806.6
985.7832	2591.3819	7707.05	6816.5
985.9087	2592.6739	7663.9	6772.1
986.0343	2593.9652	7644.7	6750.05
986.1597	2595.2557	7624.2	6729.4
986.2852	2596.5456	7587.3	6693.1
986.4106	2597.8348	7558.55	6667.1
986.536	2599.1234	7554.45	6664.6
986.6614	2600.4112	7501.9	6610.2
986.7867	2601.6983	7500.85	6605.55
986.912	2602.9848	7459.3	6566.8
987.0372	2604.2705	7440.9	6543.25
987.1624	2605.5556	7434.75	6541.55
987.2876	2606.84	7393.6	6501.55
987.4128	2608.1237	7343.75	6448.75
987.5379	2609.4067	7344	6452.5
987.6629	2610.689	7307.25	6407
987.788	2611.9707	7278.4	6380.65
987.913	2613.2516	7274.2	6377.6
988.0379	2614.5319	7217.25	6325.05
988.1629	2615.8115	7191.45	6299
988.2878	2617.0903	7160.2	6267.95
988.4126	2618.3685	7150.8	6258.65
988.5375	2619.6461	7106.85	6213.75
988.6622	2620.9229	7101.45	6210.65
988.787	2622.199	7075.3	6181.35
988.9117	2623.4745	7063.25	6170.3
989.0364	2624.7493	7000.55	6109.2
989.161	2626.0234	7023.9	6131.55
989.2857	2627.2968	6986.05	6094.15
989.4102	2628.5695	6951.4	6056.85
989.5348	2629.8415	6904.75	6014.9
989.6593	2631.1128	6876.55	5984.15
989.7837	2632.3835	6857.35	5961.65
989.9082	2633.6535	6831.9	5941.85
990.0326	2634.9228	6824.9	5932.55
990.1569	2636.1914	6796.75	5904.55
990.2812	2637.4593	6797.6	5898.2
990.4055	2638.7265	6755.7	5860.95
990.5298	2639.9931	6735.65	5845.55
990.654	2641.259	6725.15	5831.3
990.7782	2642.5242	6669.4	5776.6
990.9023	2643.7887	6667.1	5774.45
991.0264	2645.0525	6656.65	5764.25
991.1505	2646.3156	6634.2	5740.55
991.2745	2647.5781	6598.2	5705.85
991.3985	2648.8398	6590.5	5697.75
991.5225	2650.1009	6564.65	5666.1
991.6464	2651.3613	6538.15	5644.25
991.7703	2652.6211	6531	5636.15
991.8942	2653.8801	6504.8	5612.8
992.018	2655.1385	6490.65	5594.8
992.1418	2656.3961	6481.2	5589.9
992.2655	2657.6531	6447.85	5556.3
992.3892	2658.9094	6413.75	5521.8
992.5129	2660.1651	6426	5533.2
992.6366	2661.42	6427.35	5534.6
992.7602	2662.6743	6383.35	5491.15
992.8837	2663.9279	6372.85	5481.65
993.0073	2665.1808	6350.6	5456.7
993.1307	2666.433	6324.9	5432.3
993.2542	2667.6846	6308.2	5416.55
993.3776	2668.9354	6276.75	5381.6
993.501	2670.1856	6271	5376.3
993.6244	2671.4351	6269.2	5375.9
993.7477	2672.6839	6267.2	5372.95
993.8709	2673.9321	6240.1	5347.4
993.9942	2675.1795	6229.25	5339.25
994.1174	2676.4263	6224	5331.05
994.2405	2677.6724	6175.45	5283.65
994.3637	2678.9179	6168.25	5275.7
994.4868	2680.1626	6140.5	5250.25
994.6098	2681.4067	6133.3	5241.3
994.7328	2682.6501	6114.65	5219.7
994.8558	2683.8928	6091.3	5200.25
994.9788	2685.1348	6073.15	5181.7
995.1017	2686.3761	6035.5	5143.3
995.2245	2687.6168	6037.15	5145.85
995.3474	2688.8568	6010.95	5117.8
995.4702	2690.0961	5984.1	5092.4
995.5929	2691.3348	5967.15	5074.9
995.7156	2692.5727	5941.1	5049.15
995.8383	2693.81	5897	5004.5
995.961	2695.0466	5913.65	5022.4
996.0836	2696.2826	5896.05	5004.3
996.2062	2697.5178	5880.4	4985.8
996.3287	2698.7524	5875.95	4982.2
996.4512	2699.9863	5855.15	4960.55
996.5737	2701.2195	5810.25	4918.6
996.6961	2702.452	5824.65	4931.4
996.8185	2703.6839	5785.6	4892.45
996.9408	2704.9151	5772.85	4880.7
997.0631	2706.1456	5757.2	4864.35
997.1854	2707.3755	5725.5	4832.8
997.3077	2708.6046	5747.75	4851.85
997.4299	2709.8331	5706.75	4813.8
997.552	2711.0609	5690.4	4799
997.6742	2712.2881	5707.1	4817.15
997.7963	2713.5145	5690.5	4796.05
997.9183	2714.7403	5707.7	4813.35
998.0403	2715.9654	5668.7	4774.85
998.1623	2717.1899	5681.8	4773.9
998.2842	2718.4136	5674.7	4783.15
998.4062	2719.6367	5643.95	4752.7
998.528	2720.8591	5640.9	4742.35
998.6498	2722.0809	5617.55	4724.55
998.7716	2723.3019	5624.35	4728.8
998.8934	2724.5223	5599.1	4704.95
999.0151	2725.7421	5589.55	4696.25
999.1368	2726.9611	5567.05	4673.9
999.2584	2728.1795	5557.8	4662
999.38	2729.3972	5538.85	4648.55
999.5016	2730.6142	5512.2	4615.05
999.6231	2731.8306	5466	4573.2
999.7446	2733.0462	5440.15	4546.2
999.8661	2734.2612	5422.2	4526
999.9875	2735.4756	5380.85	4485.4
1000.1089	2736.6892	5339.75	4447.95
1000.2302	2737.9022	5305.65	4416.4
1000.3515	2739.1145	5272.5	4379.9
1000.4728	2740.3262	5240.75	4339.15
1000.594	2741.5372	5216.95	4324.6
1000.7152	2742.7475	5203.05	4309.7
1000.8363	2743.9571	5171.2	4276.95
1000.9575	2745.1661	5159.85	4260.55
1001.0785	2746.3744	5120.1	4228.6
1001.1996	2747.582	5102.4	4211.15
1001.3206	2748.7889	5086.1	4192.1
1001.4415	2749.9952	5058.25	4166.8
1001.5625	2751.2008	5043.75	4150.85
1001.6833	2752.4057	5026.7	4132.65
1001.8042	2753.61	5011	4118.65
1001.925	2754.8136	4993.5	4100.65
1002.0458	2756.0165	4969.3	4078.45
1002.1665	2757.2188	4939.65	4049.4
1002.2872	2758.4204	4931.4	4039.9
1002.4078	2759.6213	4921.8	4027.25
1002.5285	2760.8215	4935.4	4038.15
1002.649	2762.0211	4899.9	4005.85
1002.7696	2763.22	4867.95	3972.9
1002.8901	2764.4182	4858.5	3964.25
1003.0106	2765.6158	4836	3944.75
1003.131	2766.8127	4820.75	3928.35
1003.2514	2768.009	4809.6	3918
1003.3717	2769.2045	4805.85	3911.5
1003.492	2770.3994	4802.6	3906.35
1003.6123	2771.5936	4790.55	3895.6
1003.7325	2772.7872	4747.8	3856.65
1003.8527	2773.9801	4734.25	3840.95
1003.9729	2775.1723	4714	3805.55
1004.093	2776.3639	4701.35	3809.15
1004.2131	2777.5548	4692.6	3798.2
1004.3331	2778.745	4679.55	3785.9
1004.4531	2779.9346	4655.3	3761.85
1004.5731	2781.1235	4657.55	3764.75
1004.693	2782.3117	4633.45	3741.8
1004.8129	2783.4992	4637.15	3745.85
1004.9328	2784.6861	4622.45	3729.75
1005.0526	2785.8723	4618.3	3725.5
1005.1723	2787.0579	4599.1	3706.3
1005.2921	2788.2428	4593.7	3700.1
1005.4118	2789.427	4596.4	3706.6
1005.5314	2790.6106	4586.8	3696.05
1005.651	2791.7935	4589.65	3696.45
1005.7706	2792.9757	4576.65	3687.65
1005.8902	2794.1573	4574.95	3682.3
1006.0097	2795.3382	4548.2	3656.75
1006.1291	2796.5184	4576.1	3685
1006.2485	2797.698	4572.15	3679.9
1006.3679	2798.8769	4576.55	3682.7
1006.4873	2800.0551	4570.6	3674.9
1006.6066	2801.2327	4573	3679.05
1006.7258	2802.4096	4581	3690.4
1006.8451	2803.5859	4604.55	3713.2
1006.9642	2804.7615	4583.2	3691.1
1007.0834	2805.9364	4611.2	3720.45
1007.2025	2807.1106	4611.6	3721.05
1007.3216	2808.2842	4626.1	3733
1007.4406	2809.4572	4652.65	3759.95
1007.5596	2810.6294	4679.45	3786.1
1007.6785	2811.801	4715.2	3822.95
1007.7975	2812.972	4751.65	3860.6
1007.9163	2814.1423	4776.25	3885
1008.0352	2815.3119	4796.25	3905.9
1008.154	2816.4808	4835.95	3944.9
1008.2727	2817.6491	4889.2	3995.7
1008.3914	2818.8167	4912.25	4021.75
1008.5101	2819.9837	4947.8	4051.65
1008.6288	2821.15	4981.65	4088.9
1008.7474	2822.3157	5001.55	4111.1
1008.8659	2823.4807	5056	4164.15
1008.9844	2824.645	5107	4215.35
1009.1029	2825.8086	5111.85	4221.3
1009.2214	2826.9716	5146.1	4254.65
1009.3398	2828.134	5195.1	4303.95
1009.4581	2829.2957	5219.9	4327.85
1009.5764	2830.4567	5215.65	4324.4
1009.6947	2831.617	5242.3	4350.7
1009.813	2832.7767	5254.15	4363.15
1009.9312	2833.9358	5250.1	4359.1
1010.0493	2835.0941	5235.45	4342.85
1010.1675	2836.2519	5230.75	4340.7
1010.2855	2837.4089	5179.4	4287
1010.4036	2838.5653	5183.2	4292.25
1010.5216	2839.7211	5171.2	4280.2
1010.6396	2840.8761	5165.75	4272.25
1010.7575	2842.0306	5205.45	4314.2
1010.8754	2843.1843	5224.65	4331.75
1010.9932	2844.3374	5254.55	4362.7
1011.111	2845.4899	5300.65	4409.2
1011.2288	2846.6417	5368.7	4476.6
1011.3465	2847.7928	5435.75	4544.85
1011.4642	2848.9433	5512.1	4622
1011.5818	2850.0931	5589.85	4699.15
1011.6995	2851.2422	5658.9	4766.2
1011.817	2852.3907	5727.6	4835.5
1011.9345	2853.5385	5781.15	4888.2
1012.052	2854.6857	5824.3	4905.35
1012.1695	2855.8323	5858.25	4966.2
1012.2869	2856.9781	5903.6	5014.3
1012.4042	2858.1233	5931.15	5040.55
1012.5216	2859.2679	5968.65	5077.15
1012.6389	2860.4118	5999.35	5108.25
1012.7561	2861.555	6015.85	5121
1012.8733	2862.6976	6053.15	5158.9
1012.9905	2863.8395	6060.95	5169.6
1013.1076	2864.9808	6076.95	5185.9
1013.2247	2866.1214	6080.55	5189.4
1013.3417	2867.2614	6084	5191.25
1013.4587	2868.4007	6104	5209.95
1013.5757	2869.5393	6106.9	5212.8
1013.6926	2870.6773	6090.15	5196.8
1013.8095	2871.8146	6107.05	5210.55
1013.9263	2872.9513	6093.65	5198
1014.0431	2874.0874	6059.45	5168.4
1014.1599	2875.2227	6058.8	5166.5
1014.2766	2876.3574	6026.1	5134.65
1014.3933	2877.4915	5999.75	5108
1014.51	2878.6249	5966.55	5076.85
1014.6266	2879.7577	5918.75	5024.5
1014.7431	2880.8898	5895.55	4992.85
1014.8596	2882.0212	5854.55	4962.8
1014.9761	2883.152	5846.3	4952.85
1015.0925	2884.2821	5812.7	4923.05
1015.2089	2885.4116	5789.9	4898.55
1015.3253	2886.5405	5787.25	4894.35
1015.4416	2887.6686	5782.9	4886.6
1015.5579	2888.7962	5788.45	4899.5
1015.6741	2889.923	5758.95	4868.3
1015.7903	2891.0493	5768.65	4878.05
1015.9065	2892.1748	5768.7	4876.35
1016.0226	2893.2997	5764.15	4872.3
1016.1387	2894.424	5779.9	4889.85
1016.2547	2895.5476	5788.25	4898.85
1016.3707	2896.6706	5805.9	4915.85
1016.4866	2897.7929	5824.35	4932.35
1016.6025	2898.9145	5831	4940.6
1016.7184	2900.0355	5860.3	4966.35
1016.8342	2901.1559	5877.35	4983.35
1016.95	2902.2756	5902.75	5013.45
1017.0658	2903.3946	5919.05	5028.4
1017.1815	2904.513	5958.45	5065.15
1017.2971	2905.6308	5967.35	5074.8
1017.4127	2906.7479	5986.9	5091.75
1017.5283	2907.8643	5991.2	5099.7
1017.6439	2908.9801	5995.15	5103.25
1017.7594	2910.0953	5981.4	5090.65
1017.8748	2911.2098	5990.1	5096.9
1017.9902	2912.3236	5967.15	5068
1018.1056	2913.4368	5951.35	5057
1018.2209	2914.5494	5916.2	5023.95
1018.3362	2915.6613	5891.8	4995.7
1018.4515	2916.7725	5849.7	4954.15
1018.5667	2917.8831	5808.65	4914.75
1018.6819	2918.9931	5775.5	4881.55
1018.797	2920.1024	5742.9	4849.6
1018.9121	2921.211	5701.85	4809.75
1019.0271	2922.319	5679.7	4789.15
1019.1421	2923.4264	5651.55	4760.1
1019.2571	2924.5331	5626.05	4735.4
1019.372	2925.6391	5608.45	4716.35
1019.4869	2926.7445	5606.05	4717.4
1019.6017	2927.8493	5603.05	4710.9
1019.7165	2928.9534	5582.65	4689.15
1019.8313	2930.0569	5547.6	4653.15
1019.946	2931.1597	5520.15	4627.4
1020.0606	2932.2619	5508.8	4618.3
1020.1753	2933.3634	5495.9	4605.15
1020.2899	2934.4643	5495.05	4594.9
1020.4044	2935.5645	5479.35	4581.15
1020.5189	2936.6641	5415.95	4519.05
1020.6334	2937.763	5347.35	4456
1020.7478	2938.8613	5308.7	4418.75
1020.8622	2939.959	5241.95	4343.5
1020.9765	2941.056	5146.95	4255.55
1021.0908	2942.1523	5069.55	4176.3
1021.2051	2943.248	4971.6	4078.7
1021.3193	2944.3431	4870.85	3980.8
1021.4334	2945.4375	4744.85	3853.1
1021.5476	2946.5313	4627.45	3736.9
1021.6617	2947.6244	4524.4	3632.15
1021.7757	2948.7169	4427.35	3534.35
1021.8897	2949.8087	4311.55	3420.2
1022.0037	2950.8999	4200.7	3309.05
1022.1176	2951.9904	4118.95	3228.4
1022.2315	2953.0803	4046.7	3155.95
1022.3453	2954.1696	3966.85	3076.7
1022.4591	2955.2582	3911.2	3020.4
1022.5728	2956.3462	3858.15	2966.55
1022.6865	2957.4335	3806.3	2914.15
1022.8002	2958.5202	3747.85	2857.4
1022.9138	2959.6062	3733.65	2841.3
1023.0274	2960.6916	3701.45	2808.7
1023.141	2961.7764	3675.6	2783.65
1023.2545	2962.8605	3632.9	2742.15
1023.3679	2963.9439	3625.15	2736.15
1023.4813	2965.0267	3599.85	2706
1023.5947	2966.1089	3613.4	2698.85
1023.708	2967.1905	3570.95	2677.85
1023.8213	2968.2714	3560.55	2670.05
1023.9346	2969.3516	3553.1	2663.65
1024.0478	2970.4312	3555.75	2657.45
1024.1609	2971.5102	3565.3	2673.4
1024.274	2972.5885	3531.95	2641.35
1024.3871	2973.6662	3523.7	2625.05
1024.5002	2974.7432	3524.5	2633.8
1024.6132	2975.8196	3505	2615.8
1024.7261	2976.8954	3495.85	2604.1
1024.839	2977.9705	3470.95	2577
1024.9519	2979.045	3446.45	2555.65
1025.0647	2980.1188	3418.65	2529.2
1025.1775	2981.192	3392.6	2502.4
1025.2902	2982.2645	3365.95	2471.25
1025.4029	2983.3364	3326.45	2435.8
1025.5156	2984.4077	3297.25	2406.3
1025.6282	2985.4783	3264.4	2368.9
1025.7407	2986.5483	3223.15	2333
1025.8532	2987.6177	3191.5	2301.3
1025.9657	2988.6864	3151.2	2258.6
1026.0782	2989.7545	3106.9	2214.05
1026.1906	2990.8219	3086	2195.45
1026.3029	2991.8887	3030.35	2137.65
1026.4152	2992.9548	2998.15	2105
1026.5275	2994.0204	2963	2073.4
1026.6397	2995.0852	2938.4	2047.8
1026.7519	2996.1495	2900.25	2007.25
1026.864	2997.2131	2863.15	1971.15
1026.9761	2998.276	2847.8	1954.6
1027.0882	2999.3383	2818.7	1927.7
1027.2002	3000.4	2791.15	1899.7
1027.3122	3001.4611	2775.35	1883.25
1027.4241	3002.5215	2754.7	1865.25
1027.536	3003.5812	2737.75	1846.4
1027.6478	3004.6404	2723.7	1832.95
1027.7596	3005.6989	2707.85	1812.3
1027.8714	3006.7567	2692.3	1800.2
1027.9831	3007.8139	2702.5	1789.5
1028.0947	3008.8705	2667.6	1775.75
1028.2064	3009.9264	2660.3	1767.75
1028.3179	3010.9818	2649.4	1757.15
1028.4295	3012.0364	2634.8	1744.55
1028.541	3013.0905	2626.35	1735.9
1028.6524	3014.1439	2613.15	1721.3
1028.7638	3015.1966	2611.7	1722.9
1028.8752	3016.2487	2605.95	1713.8
1028.9865	3017.3002	2601.75	1705.1
1029.0978	3018.3511	2601.2	1711.5
1029.209	3019.4013	2593.95	1703.4
1029.3202	3020.4509	2574.1	1685.2
1029.4314	3021.4998	2593	1702.05
1029.5425	3022.5481	2568.5	1676.25
1029.6535	3023.5958	2569.25	1678.45
1029.7645	3024.6428	2572.85	1681.35
1029.8755	3025.6892	2558.4	1670.2
1029.9864	3026.735	2561.7	1670.5
1030.0973	3027.7802	2561.6	1669.7
1030.2082	3028.8247	2556.9	1667.4
1030.319	3029.8685	2539.25	1645.9
1030.4297	3030.9118	2545	1655.15
1030.5404	3031.9544	2542.45	1651.85
1030.6511	3032.9963	2533.45	1639.95
1030.7617	3034.0376	2541.4	1651.25
1030.8723	3035.0783	2542.4	1646.45
1030.9829	3036.1184	2550.5	1657.75
1031.0934	3037.1578	2540.6	1651.7
1031.2038	3038.1966	2542.15	1649.35
1031.3142	3039.2348	2537.9	1647.75
1031.4246	3040.2723	2539.05	1637.4
1031.5349	3041.3092	2518.75	1627.35
1031.6452	3042.3455	2513.4	1620.8
1031.7554	3043.3811	2507.05	1615.05
1031.8656	3044.4161	2482.75	1591.45
1031.9758	3045.4505	2498.05	1606.75
1032.0859	3046.4842	2484.15	1593.3
1032.1959	3047.5173	2461.1	1570
1032.3059	3048.5498	2456.3	1565.7
1032.4159	3049.5816	2452.05	1561.1
1032.5258	3050.6128	2434.45	1542.95
1032.6357	3051.6434	2411.95	1519.65
1032.7455	3052.6734	2417.3	1525.25
1032.8553	3053.7027	2401.45	1509.65
1032.9651	3054.7314	2386.45	1497.35
1033.0748	3055.7594	2365.05	1473.75
1033.1845	3056.7868	2360.6	1468.7
1033.2941	3057.8136	2364.25	1475.35
1033.4037	3058.8398	2340.05	1449.45
1033.5132	3059.8653	2339	1449.25
1033.6227	3060.8902	2325.8	1436.15
1033.7321	3061.9145	2323.8	1432.5
1033.8415	3062.9381	2297.6	1406.6
1033.9509	3063.9612	2311	1405.4
1034.0602	3064.9835	2295.85	1405.1
1034.1694	3066.0053	2276.5	1383.2
1034.2787	3067.0264	2261.6	1370.3
1034.3878	3068.0469	2255.5	1366.3
1034.497	3069.0668	2244.8	1352.4
1034.6061	3070.086	2228.6	1338.3
1034.7151	3071.1046	2228.35	1336.85
1034.8241	3072.1226	2216.25	1322.1
1034.9331	3073.1399	2200.2	1309.85
1035.042	3074.1567	2182.8	1291.4
1035.1508	3075.1727	2176.65	1283.45
1035.2597	3076.1882	2159.45	1267.75
1035.3684	3077.203	2136.45	1245.25
1035.4772	3078.2173	2134.25	1242.2
1035.5859	3079.2308	2122.6	1226.45
1035.6945	3080.2438	2111.75	1218.55
1035.8031	3081.2561	2091.55	1200.65
1035.9117	3082.2678	2080.65	1191.3
1036.0202	3083.2789	2059.85	1168.25
1036.1286	3084.2893	2063.95	1173.4
1036.2371	3085.2991	2040.5	1149.55
1036.3454	3086.3083	2047.1	1152.4
1036.4538	3087.3169	2036.15	1144.55
1036.562	3088.3248	2027.05	1132.5
1036.6703	3089.3321	2022.95	1130.15
1036.7785	3090.3388	2008.9	1118.65
1036.8866	3091.3449	2008.05	1118.25
1036.9948	3092.3503	1997.35	1103.7
1037.1028	3093.3551	1988.95	1101
1037.2108	3094.3593	1984.7	1095.05
1037.3188	3095.3629	1971.75	1081.15
1037.4267	3096.3658	1960.75	1068.6
1037.5346	3097.3681	1946.45	1054
1037.6425	3098.3698	1955.55	1063.05
1037.7503	3099.3708	1943.1	1044.25
1037.858	3100.3713	1934.6	1043.6
1037.9657	3101.3711	1921.85	1032.75
1038.0734	3102.3702	2026.75	1024.4
1038.181	3103.3688	1923.05	1028.7
1038.2886	3104.3667	1907.4	1017.35
1038.3961	3105.364	1904.8	1015.7
1038.5036	3106.3607	1892.7	1001.7
1038.611	3107.3568	1888.85	994.85
1038.7184	3108.3522	1881.55	991.9
1038.8257	3109.347	1876.75	986.55
1038.933	3110.3412	1874.7	980.15
1039.0403	3111.3348	1865.65	974.7
1039.1475	3112.3277	1859	969
1039.2547	3113.32	1851.25	961.6
1039.3618	3114.3117	1847	955.5
1039.4689	3115.3028	1843.8	952.85
1039.5759	3116.2932	1833.3	939
1039.6829	3117.2831	1838.65	943.5
1039.7898	3118.2723	1826.8	935.6
1039.8967	3119.2608	1814.4	925.55
1040.0035	3120.2488	1808.15	918.45
1040.1103	3121.2361	1809	917.15
1040.2171	3122.2229	1797.2	907.4
1040.3238	3123.209	1796.3	905.75
1040.4305	3124.1944	1789.85	901
1040.5371	3125.1793	1784.35	892.25
1040.6437	3126.1635	1780.05	889.75
1040.7502	3127.1471	1780.1	889.6
1040.8567	3128.1301	1771.75	881.1
1040.9631	3129.1125	1770.6	879.4
1041.0695	3130.0942	1765.8	876.3
1041.1759	3131.0753	1771.15	870.2
1041.2822	3132.0558	1764	869.6
1041.3884	3133.0357	1752.2	861.35
1041.4946	3134.015	1746.1	852.85
1041.6008	3134.9936	1741.15	851.4
1041.7069	3135.9716	1757.15	844.55
1041.813	3136.949	1738.6	848.3
1041.919	3137.9258	1732.1	833.25
1042.025	3138.902	1730.6	834.15
1042.1309	3139.8775	1721.2	830.3
1042.2368	3140.8524	1724.05	831.25
1042.3427	3141.8267	1712.1	819.1
1042.4485	3142.8004	1712.2	821.85
1042.5542	3143.7735	1709.05	813.8
1042.6599	3144.7459	1711.85	817.9
1042.7656	3145.7178	1702.5	811.25
1042.8712	3146.689	1697.05	807.3
1042.9768	3147.6596	1692.7	799
1043.0823	3148.6295	1686.85	793.95
1043.1878	3149.5989	1682.25	791.65
1043.2932	3150.5676	1671.1	781.6
1043.3986	3151.5357	1672.1	782.65
1043.5039	3152.5032	1655.35	765.15
1043.6092	3153.4701	1665	774
1043.7145	3154.4364	1669.55	775.25
1043.8197	3155.402	1651.35	764.2
1043.9248	3156.367	1646.55	754.65
1044.03	3157.3315	1686.7	752.7
1044.135	3158.2952	1641.2	749.45
1044.24	3159.2584	1634.9	746.4
1044.345	3160.221	1626.65	735.45
1044.4499	3161.1829	1625.35	733.2
1044.5548	3162.1442	1617.55	726.4
1044.6596	3163.105	1611.9	721.45
1044.7644	3164.065	1611.4	720.3
1044.8692	3165.0245	1613.4	721.25
1044.9739	3165.9834	1604.6	714.55
1045.0785	3166.9416	1605.55	716.15
1045.1831	3167.8993	1603.85	711.3
1045.2877	3168.8563	1592.95	699.4
1045.3922	3169.8127	1588.45	698.3
1045.4966	3170.7684	1587.35	696.3
1045.6011	3171.7236	1584.65	692.45
1045.7054	3172.6782	1578.8	688.8
1045.8098	3173.6321	1576.55	686.1
1045.914	3174.5854	1572.4	679.3
1046.0183	3175.5381	1567.55	674.2
1046.1224	3176.4902	1561.9	672.6
1046.2266	3177.4417	1560.8	670.45
1046.3307	3178.3926	1555.6	665.95
1046.4347	3179.3428	1553.85	665.9
1046.5387	3180.2924	1555.2	664.75
1046.6427	3181.2415	1544.05	652.1
1046.7466	3182.1899	1541	649.3
1046.8504	3183.1377	1536.8	645.75
1046.9542	3184.0848	1535.6	639.85
1047.058	3185.0314	1528.95	637.35
1047.1617	3185.9773	1527	636
1047.2654	3186.9227	1518.35	629.1
1047.369	3187.8674	1521.85	629.05
1047.4726	3188.8115	1524.9	629.55
1047.5761	3189.755	1512.85	621.3
1047.6796	3190.6979	1508.6	618.35
1047.783	3191.6402	1512.1	624.65
1047.8864	3192.5818	1501.2	610.4
1047.9898	3193.5229	1526.4	612.95
1048.0931	3194.4633	1496.55	605
1048.1963	3195.4031	1495.2	605.9
1048.2995	3196.3423	1483.35	594.25
1048.4027	3197.2809	1491.25	601.15
1048.5058	3198.2189	1479.5	589.8
1048.6089	3199.1563	1491.35	594
1048.7119	3200.0931	1477	586.85
1048.8148	3201.0292	1476.5	586.3
1048.9178	3201.9648	1475.9	584.4
1049.0206	3202.8997	1472.6	580.25
1049.1235	3203.834	1470.7	580.3
1049.2262	3204.7677	1467.75	576.1
1049.329	3205.7008	1467.9	576.25
1049.4317	3206.6333	1457.1	566.9
1049.5343	3207.5652	1462.7	569.25
1049.6369	3208.4964	1450.4	560.1
1049.7394	3209.4271	1449.15	559.8
1049.8419	3210.3571	1446	557.55
1049.9444	3211.2865	1442.2	551.3
1050.0468	3212.2154	1435.8	545.2
1050.1491	3213.1436	1440.45	546.7
1050.2514	3214.0712	1448	549.25
1050.3537	3214.9982	1437.75	547.25
1050.4559	3215.9246	1426.65	535.15
1050.5581	3216.8503	1421.55	532.95
1050.6602	3217.7755	1424.6	535.65
1050.7623	3218.7001	1427.4	537.7
1050.8643	3219.624	1416.8	526.15
1050.9663	3220.5473	1420	528.2
1051.0682	3221.4701	1421.6	529.2
1051.1701	3222.3922	1412.2	521.15
1051.2719	3223.3137	1416.6	524.4
1051.3737	3224.2346	1403.2	513.45
1051.4754	3225.1549	1407.95	519
1051.5771	3226.0746	1401.95	512.1
1051.6788	3226.9937	1393.4	504
1051.7804	3227.9121	1391.6	501.85
1051.8819	3228.83	1391.5	503.15
1051.9834	3229.7473	1396.6	507.95
1052.0849	3230.6639	1392.9	501.55
1052.1863	3231.5799	1378.25	490.15
1052.2876	3232.4954	1387.45	495.15
1052.3889	3233.4102	1378.25	488.5
1052.4902	3234.3244	1382.8	493.25
1052.5914	3235.238	1375.95	486.85
1052.6926	3236.151	1391.05	476.95
1052.7937	3237.0634	1362.05	470.65
1052.8948	3237.9752	1360.8	472.9
1052.9958	3238.8864	1361.4	471.5
1053.0968	3239.797	1364.4	473.8
1053.1977	3240.7069	1354.3	464.8
1053.2986	3241.6163	1353.75	460.85
1053.3994	3242.5251	1352.6	462.85
1053.5002	3243.4332	1352.5	464.4
1053.6009	3244.3408	1348.1	458.1
1053.7016	3245.2477	1338.85	450.85
1053.8022	3246.154	1337.7	448.15
1053.9028	3247.0598	1331.55	439.9
1054.0034	3247.9649	1333.95	443.95
1054.1039	3248.8694	1334.1	444.95
1054.2043	3249.7733	1322.9	432.75
1054.3047	3250.6766	1327.6	437.5
1054.4051	3251.5793	1326	435.5
1054.5054	3252.4814	1319.8	430.25
1054.6056	3253.3829	1318.2	429.55
1054.7058	3254.2838	1312.6	423.6
1054.806	3255.1841	1311.8	422.7
1054.9061	3256.0838	1313.8	423.55
1055.0061	3256.9829	1304.1	416.2
1055.1062	3257.8814	1296.95	404.2
1055.2061	3258.7792	1299.55	406.1
1055.306	3259.6765	1297.8	407.9
1055.4059	3260.5731	1289.7	399.35
1055.5057	3261.4692	1282.05	393.1
1055.6055	3262.3647	1280.8	389.1
1055.7052	3263.2595	1275.9	386.2
1055.8049	3264.1538	1271	382.25
1055.9045	3265.0474	1262	371.65
1056.0041	3265.9404	1258.3	370.75
1056.1036	3266.8329	1249.4	359.25
1056.2031	3267.7247	1255	355.9
1056.3025	3268.616	1234.9	347.45
1056.4019	3269.5066	1226.2	334.6
1056.5013	3270.3966	1222.45	332.65
1056.6005	3271.286	1207.95	319.65
