Software Version:	3.9.2.0
Unit SN:	10000200
Spectrometer SN:	6960
Date:	3/6/2024 9:38:21 AM
Data Line Index:	25
Spectral Points:	2048
Integration time (ms):	125
Averages:	20
Delay (ms):	30
Sequence Number:	1
Processing:	dark subtract
Laser Power (mW):	305
Laser Current (mA):	824
Laser Diode Temp (C):	25
Laser Case Temp (C):	23.9
System Temp (C):	23.7
Spectrometer Temp (C):	21.4
CCD Temp (C):	-0.03
Secondary Temp (C):	20.01
Heatsink Temp (C):	17.241
CCDPCB Temp (C):	30.449
SecondaryPCB Temp (C):	25.658

Wavelength	RamanShift	Raw Counts	Dark Subtracted
787.061	30.1047	495	89.65
787.2016	32.3739	497.2	93
787.3422	34.6426	500.15	94.4
787.4828	36.9109	509.75	102.55
787.6235	39.1787	515.45	104.35
787.7642	41.4461	528.55	112.4
787.9049	43.7131	539.9	121.7
788.0456	45.9796	545	121.65
788.1863	48.2456	559.7	134.45
788.3271	50.5112	574.6	146.5
788.4679	52.7764	579.9	146.65
788.6087	55.0411	590.3	151.45
788.7496	57.3054	605.55	162.7
788.8904	59.5692	620.4	176.45
789.0313	61.8326	636.95	190.45
789.1722	64.0955	654.5	204.9
789.3132	66.3579	668.45	214.3
789.4541	68.6199	695.1	236.25
789.5951	70.8815	738.8	275.35
789.7361	73.1426	827.1	361.05
789.8771	75.4032	1055.9	587.55
790.0181	77.6634	1604.4	1132.5
790.1592	79.9231	2909.45	2435.15
790.3003	82.1824	5741.75	5263.45
790.4414	84.4412	10803.6	10315.7
790.5825	86.6995	17609.75	17113.2
790.7237	88.9574	24205.8	23704
790.8648	91.2148	28961.55	28453.5
791.006	93.4717	31540.1	31029.3
791.1472	95.7282	32611.2	32098.25
791.2885	97.9842	33220.25	32705.05
791.4297	100.2398	33445.25	32927.8
791.571	102.4949	33518	32997.5
791.7123	104.7495	33585.1	33060.25
791.8536	107.0036	33574.45	33047.7
791.9949	109.2573	33657.05	33132.2
792.1363	111.5105	33610.4	33084.05
792.2777	113.7632	33656.55	33128.15
792.4191	116.0154	33697.65	33157.45
792.5605	118.2672	33827.7	33293.65
792.7019	120.5185	33866	33328.85
792.8434	122.7693	33917.4	33376.7
792.9849	125.0197	33957.1	33412.6
793.1264	127.2696	34016.05	33468.75
793.2679	129.519	34216.45	33664.65
793.4094	131.7679	34363.05	33810.4
793.551	134.0163	34290.35	33738.15
793.6926	136.2642	34388.75	33830.85
793.8342	138.5117	34498.35	33938.55
793.9758	140.7587	34532.25	33970.55
794.1175	143.0052	34619.35	34053.85
794.2591	145.2512	34525	33959.75
794.4008	147.4967	34597.1	34028.8
794.5425	149.7417	34540.95	33969.85
794.6842	151.9863	34596.5	34022.7
794.826	154.2304	34583.6	34006.6
794.9677	156.4739	34554.15	33970.05
795.1095	158.717	34641.35	34058.65
795.2513	160.9596	34725.9	34135.7
795.3931	163.2017	34696.3	34105.5
795.535	165.4433	34776.35	34183.4
795.6768	167.6844	34774.5	34179.7
795.8187	169.925	34833.55	34234.05
795.9606	172.1651	34762.15	34157.95
796.1025	174.4047	34750.05	34143.45
796.2445	176.6439	34802.1	34192.95
796.3864	178.8825	34845.45	34232
796.5284	181.1206	34940.15	34324.1
796.6704	183.3582	34985.85	34368.6
796.8124	185.5954	34992.6	34373.35
796.9544	187.832	35048.5	34423.65
797.0965	190.0681	35104.7	34478.7
797.2386	192.3037	35267.3	34635.35
797.3806	194.5388	35349.95	34716.95
797.5228	196.7734	35278.5	34646.35
797.6649	199.0075	35504.05	34870.55
797.807	201.2411	35682.85	35048.85
797.9492	203.4742	35773.4	35136.95
798.0914	205.7068	35940.9	35293.9
798.2336	207.9389	35995.3	35351.95
798.3758	210.1704	36061.85	35428.7
798.518	212.4015	36103.55	35478.1
798.6603	214.632	36096.5	35473.85
798.8025	216.862	36229.05	35608.55
798.9448	219.0915	36281	35659.1
799.0871	221.3205	36297.7	35674.7
799.2294	223.549	36462.85	35845.2
799.3718	225.777	36587.85	35965.3
799.5141	228.0044	36616.15	35983.25
799.6565	230.2314	36685.05	36053.2
799.7989	232.4578	36680.9	36044.6
799.9413	234.6837	36715.7	36069.35
800.0837	236.909	36862.75	36213.7
800.2262	239.1339	36746.25	36074.6
800.3687	241.3582	36867.75	36212.45
800.5111	243.582	36876.75	36188.6
800.6536	245.8053	36982.2	36308.05
800.7961	248.0281	36985.35	36316.3
800.9387	250.2503	37051	36378.65
801.0812	252.472	37089.05	36415.7
801.2238	254.6932	37234.5	36560.6
801.3664	256.9139	37135.2	36459.15
801.509	259.134	37320.15	36642.35
801.6516	261.3536	37140.7	36463.75
801.7942	263.5727	37433.7	36755.25
801.9369	265.7912	37351.55	36673.45
802.0795	268.0092	37454.75	36776.35
802.2222	270.2267	37515.1	36837
802.3649	272.4436	37513.95	36829.85
802.5076	274.6601	37595.05	36902.45
802.6504	276.8759	37651.25	36960.45
802.7931	279.0913	37633.45	36944.15
802.9359	281.3061	37669.05	36981
803.0787	283.5204	37799.5	37106.15
803.2215	285.7341	37841.1	37145.95
803.3643	287.9473	37991.35	37285.9
803.5071	290.16	37904.05	37204.65
803.6499	292.3721	37985.3	37293.25
803.7928	294.5837	37812.45	37120.45
803.9357	296.7947	37735.6	37042.05
804.0786	299.0052	37852.3	37156.9
804.2215	301.2152	37770.65	37072.55
804.3644	303.4246	37932.45	37234.5
804.5074	305.6334	37862.65	37164.3
804.6503	307.8418	37776.15	37074.8
804.7933	310.0495	37841.1	37141
804.9363	312.2568	37778.95	37075.45
805.0793	314.4635	37648.05	36943.8
805.2223	316.6696	37661.35	36955.35
805.3653	318.8752	37581.3	36864
805.5084	321.0802	37382.5	36672.55
805.6514	323.2847	37455.45	36741.7
805.7945	325.4887	37454.75	36742.05
805.9376	327.692	37383.4	36669.55
806.0807	329.8949	37558	36840.95
806.2238	332.0972	37566.05	36851.7
806.367	334.2989	37662.65	36940.85
806.5101	336.5001	37630.85	36910.1
806.6533	338.7007	37579.5	36861.9
806.7965	340.9008	37659.15	36936.6
806.9397	343.1003	37607.45	36882.05
807.0829	345.2992	37624.2	36896.65
807.2261	347.4976	37515.25	36787.45
807.3693	349.6955	37485.4	36752.4
807.5126	351.8927	37531.9	36801
807.6559	354.0895	37514.95	36775.4
807.7991	356.2856	37526.25	36791.35
807.9424	358.4812	37516.25	36783.5
808.0857	360.6763	37504.9	36768.1
808.2291	362.8707	37459.7	36721.75
808.3724	365.0646	37498.7	36757.65
808.5158	367.258	37403.9	36660.1
808.6591	369.4508	37390.55	36644
808.8025	371.643	37490.05	36744.85
808.9459	373.8346	37382.65	36634.55
809.0893	376.0257	37383.25	36631
809.2327	378.2162	37358.85	36609.8
809.3762	380.4062	37321.5	36572.25
809.5196	382.5956	37254.9	36504.85
809.6631	384.7844	37283.85	36541.45
809.8066	386.9726	37163.2	36422.75
809.9501	389.1603	37170.85	36430.45
810.0936	391.3474	37106.65	36315
810.2371	393.5339	37113.7	36365.95
810.3806	395.7199	36952.45	36208.2
810.5241	397.9052	36972.2	36228.9
810.6677	400.09	36920.85	36176
810.8113	402.2743	37041.2	36292.35
810.9548	404.4579	36958.5	36209.6
811.0984	406.641	37080.65	36327.25
811.2421	408.8235	37171.5	36420
811.3857	411.0054	37193.6	36437.25
811.5293	413.1868	37269.05	36511
811.673	415.3675	37254.45	36493.7
811.8166	417.5477	37261.95	36502
811.9603	419.7273	37198.3	36435.05
812.104	421.9064	37055.25	36283.75
812.2477	424.0848	36922.15	36158.35
812.3914	426.2627	36865.85	36099.15
812.5351	428.4399	36752.9	35984.9
812.6788	430.6166	36646.75	35875.55
812.8226	432.7928	36584.5	35811.95
812.9663	434.9683	36435.2	35663.5
813.1101	437.1432	36326.9	35554.35
813.2539	439.3176	36233.95	35464.75
813.3977	441.4914	36093.75	35324.6
813.5415	443.6645	36076.7	35304.5
813.6853	445.8371	35964.85	35190.75
813.8291	448.0091	35805.8	35032.85
813.973	450.1806	35722.85	34947.05
814.1168	452.3514	35674.05	34896.3
814.2607	454.5216	35672.55	34888.35
814.4046	456.6913	35483.8	34703.3
814.5485	458.8603	35525.4	34746.35
814.6924	461.0288	35592.15	34814.65
814.8363	463.1967	35449.75	34671.8
814.9802	465.3639	35532.7	34752.95
815.1241	467.5306	35433.05	34652.85
815.2681	469.6967	35347.55	34567.25
815.412	471.8622	35239.45	34459.5
815.556	474.0271	35240.3	34462.2
815.7	476.1914	35220.8	34439.35
815.844	478.3551	35190.75	34407
815.988	480.5182	35275.75	34493.6
816.132	482.6807	35213.3	34429.1
816.276	484.8426	35236.9	34452.8
816.4201	487.0039	35337	34551.65
816.5641	489.1647	35431.95	34645.65
816.7082	491.3248	35398.25	34613.85
816.8522	493.4843	35420.25	34633.8
816.9963	495.6432	35352.45	34563.3
817.1404	497.8015	35247.8	34457.55
817.2845	499.9592	35290.8	34502.5
817.4286	502.1163	35242.6	34452.8
817.5727	504.2728	35058.2	34264.45
817.7168	506.4287	35131.8	34340.4
817.861	508.5839	35026.2	34234.55
818.0051	510.7386	34989.45	34196.75
818.1493	512.8927	35015.35	34213.3
818.2935	515.0461	35005.95	34210.45
818.4377	517.199	34980.65	34187.35
818.5818	519.3512	34978.2	34184.6
818.726	521.5029	34988.15	34186.35
818.8703	523.6539	35008.1	34212.1
819.0145	525.8043	34968	34169.35
819.1587	527.9541	34939.3	34140.6
819.303	530.1033	34832.1	34031.75
819.4472	532.2519	34711.85	33911.45
819.5915	534.3999	34706.25	33903.45
819.7357	536.5472	34697.9	33896.35
819.88	538.694	34622.2	33823.45
820.0243	540.8401	34685.3	33885.6
820.1686	542.9856	34663.95	33860.35
820.3129	545.1305	34611.05	33808.25
820.4572	547.2748	34695.35	33890.95
820.6016	549.4185	34626.2	33821.2
820.7459	551.5615	34564.7	33761.5
820.8902	553.704	34562.75	33760.55
821.0346	555.8458	34492.15	33691.25
821.1789	557.987	34545.5	33744.5
821.3233	560.1276	34517.95	33712.6
821.4677	562.2675	34582.65	33777.15
821.6121	564.4069	34565.3	33760.15
821.7565	566.5456	34531.9	33726.75
821.9009	568.6837	34532.4	33726.8
822.0453	570.8212	34364.4	33556.75
822.1897	572.958	34193.55	33384.7
822.3342	575.0942	34087.8	33280.75
822.4786	577.2299	33987.35	33178.55
822.6231	579.3648	33878.6	33068.35
822.7675	581.4992	33701.25	32891.65
822.912	583.6329	33616.15	32806.8
823.0565	585.766	33603.4	32794.6
823.201	587.8985	33561.75	32750.5
823.3454	590.0304	33506.25	32682.9
823.4899	592.1616	33450.65	32636.1
823.6345	594.2922	33448.55	32635.5
823.779	596.4222	33318.6	32502.6
823.9235	598.5515	33185	32371.6
824.068	600.6802	33071.45	32258
824.2126	602.8083	32897.65	32082
824.3571	604.9358	32925.45	32109.35
824.5017	607.0626	32854.75	32041.85
824.6462	609.1888	32804.65	31987.3
824.7908	611.3144	32775.35	31958.55
824.9354	613.4393	32724.75	31906.6
825.08	615.5636	32755.95	31939.55
825.2246	617.6873	32738.75	31921.65
825.3692	619.8103	32797.6	31978
825.5138	621.9327	32711.85	31890.25
825.6584	624.0544	32679.15	31862.05
825.803	626.1756	32619.4	31801.15
825.9477	628.2961	32509.25	31687.95
826.0923	630.4159	32450.95	31629.7
826.237	632.5351	32412.85	31591.65
826.3816	634.6537	32339.05	31515.2
826.5263	636.7716	32352.55	31528.4
826.6709	638.8889	32348.45	31528.1
826.8156	641.0056	32346.7	31523.9
826.9603	643.1216	32256.85	31432.9
827.105	645.237	32324.2	31498.6
827.2497	647.3518	32228.15	31404.15
827.3944	649.4659	32200.3	31375.95
827.5391	651.5793	32119.15	31294.6
827.6838	653.6922	32011.9	31188.3
827.8285	655.8043	32073.95	31249.6
827.9733	657.9159	32013.8	31187.35
828.118	660.0268	31893.8	31065.7
828.2627	662.137	31811.05	30982.65
828.4075	664.2466	31813.65	30983.5
828.5522	666.3556	31803.55	30975.3
828.697	668.4639	31712.55	30881.55
828.8418	670.5716	31699.85	30872.7
828.9865	672.6786	31712.1	30883.3
829.1313	674.785	31537.35	30706.2
829.2761	676.8907	31463.2	30632
829.4209	678.9958	31462.4	30632.4
829.5657	681.1002	31364.1	30534.95
829.7105	683.204	31322	30486.4
829.8553	685.3072	31257.15	30423.8
830.0001	687.4097	31195.65	30364.3
830.1449	689.5115	31207.85	30373.25
830.2898	691.6127	31207.8	30375.05
830.4346	693.7132	31116.05	30281.6
830.5794	695.8131	31134.1	30293.7
830.7243	697.9123	31151.35	30314.3
830.8691	700.0109	31090.6	30255.35
831.014	702.1089	31044.45	30210.75
831.1588	704.2061	30995.3	30161.25
831.3037	706.3028	30993.4	30156.6
831.4486	708.3987	30990.35	30154.75
831.5935	710.4941	30901.1	30064.5
831.7383	712.5887	30912	30075.4
831.8832	714.6827	30893.55	30052.3
832.0281	716.7761	30907.1	30069.65
832.173	718.8688	30866.95	30028.85
832.3179	720.9608	30737.6	29894.45
832.4628	723.0522	30832.4	29990.75
832.6077	725.1429	30727.95	29889.2
832.7527	727.233	30708.8	29868.8
832.8976	729.3224	30773.95	29935.35
833.0425	731.4112	30699.75	29860
833.1874	733.4993	30638.65	29794.45
833.3324	735.5867	30557.05	29713.95
833.4773	737.6735	30474.5	29631.75
833.6222	739.7596	30359.4	29516.15
833.7672	741.845	30295.4	29454.05
833.9122	743.9298	30250.6	29407.25
834.0571	746.014	30149.7	29309.1
834.2021	748.0974	30118.05	29274.45
834.347	750.1802	30018.2	29175.45
834.492	752.2624	29942.85	29099.3
834.637	754.3439	29858.55	29014.2
834.782	756.4247	29769.75	28917.8
834.9269	758.5048	29650.75	28809.3
835.0719	760.5843	29621.6	28778.1
835.2169	762.6631	29531.35	28688.25
835.3619	764.7413	29565.95	28721.75
835.5069	766.8188	29664.95	28819.85
835.6519	768.8956	29513.8	28666.75
835.7969	770.9718	29609.3	28763.95
835.9419	773.0473	29484.4	28638.75
836.0869	775.1221	29452.45	28609.4
836.232	777.1962	29363.7	28517.95
836.377	779.2697	29298.55	28452.25
836.522	781.3426	29334.8	28469.65
836.667	783.4147	29327.5	28480.95
836.8121	785.4862	29308.25	28463.8
836.9571	787.557	29165.5	28319.15
837.1021	789.6271	29032.6	28184.2
837.2472	791.6966	28865.9	28018.05
837.3922	793.7654	28738.3	27890.6
837.5373	795.8335	28656.15	27808.95
837.6823	797.901	28551.95	27705.25
837.8274	799.9678	28531	27681.15
837.9724	802.0339	28445.85	27598.55
838.1175	804.0993	28455.9	27596.35
838.2626	806.1641	28366.75	27514.2
838.4076	808.2282	28261.8	27414.2
838.5527	810.2916	28287.35	27437.55
838.6978	812.3544	28208.7	27359.35
838.8428	814.4164	28143	27294.75
838.9879	816.4778	28231	27381.85
839.133	818.5385	28095.6	27246.5
839.2781	820.5986	28120.9	27270.55
839.4232	822.658	28143.1	27290.4
839.5682	824.7166	28064	27213.25
839.7133	826.7747	28184.05	27336.05
839.8584	828.832	28235.95	27384.7
840.0035	830.8886	28156.35	27304.05
840.1486	832.9446	28151.25	27297.25
840.2937	834.9999	28035.2	27182
840.4388	837.0545	27921.6	27066
840.5839	839.1085	27853.75	27002.85
840.729	841.1618	27759.65	26903.1
840.8741	843.2143	27657.4	26806.25
841.0192	845.2662	27474.45	26624.65
841.1643	847.3175	27498.2	26648.35
841.3095	849.368	27442.95	26590.3
841.4546	851.4179	27437.65	26584.55
841.5997	853.467	27251.05	26397.35
841.7448	855.5155	27283.4	26429.25
841.8899	857.5633	27200.7	26348.6
842.0351	859.6105	27117.85	26262.9
842.1802	861.6569	27091.05	26236.65
842.3253	863.7027	27063.9	26206.65
842.4704	865.7478	27056.45	26202.35
842.6156	867.7922	27012.1	26157.2
842.7607	869.8359	26943.6	26088.6
842.9058	871.8789	26894.35	26039.9
843.0509	873.9212	26903	26017.15
843.1961	875.9629	26821.6	25965.85
843.3412	878.0039	26831.25	25974
843.4863	880.0441	26761.05	25906.2
843.6315	882.0837	26810.6	25953.65
843.7766	884.1226	26795.3	25937.8
843.9218	886.1609	26794.85	25939.65
844.0669	888.1984	26837.85	25984.05
844.212	890.2352	26855.5	26000.85
844.3572	892.2714	26822.6	25962.75
844.5023	894.3069	26812.65	25954.6
844.6475	896.3416	26642	25783.85
844.7926	898.3757	26624.05	25766.45
844.9377	900.4091	26594	25735.25
845.0829	902.4418	26538.3	25674
845.228	904.4739	26444.45	25583.9
845.3732	906.5052	26463.75	25605.6
845.5183	908.5358	26397.5	25539
845.6635	910.5658	26327.55	25466.85
845.8086	912.595	26251.35	25392.6
845.9538	914.6236	26147.4	25289.85
846.0989	916.6515	26096.9	25239.15
846.2441	918.6786	26016.35	25154.35
846.3892	920.7051	26029.75	25168.75
846.5344	922.7309	25998.2	25138
846.6795	924.756	25878.85	25016.4
846.8246	926.7804	25891.8	25029.4
846.9698	928.8041	25728.2	24865.5
847.1149	930.8272	25806.55	24946.55
847.2601	932.8495	25644	24781.65
847.4052	934.8711	25666.15	24803.75
847.5504	936.892	25571.15	24711.05
847.6955	938.9123	25517.85	24654.2
847.8407	940.9318	25483	24623.8
847.9858	942.9506	25396.4	24535.05
848.131	944.9688	25291.5	24429.55
848.2761	946.9862	25245.15	24384.45
848.4213	949.003	25116.2	24253.35
848.5664	951.019	25056.45	24196.15
848.7115	953.0344	24981.6	24119.6
848.8567	955.0491	24928.45	24063.6
849.0018	957.063	24937	24075.1
849.147	959.0763	24950.7	24087.05
849.2921	961.0888	24830.5	23967.5
849.4373	963.1007	24835.25	23972.45
849.5824	965.1119	24831.3	23970.6
849.7275	967.1223	24763.25	23902.1
849.8727	969.1321	24728.15	23866
850.0178	971.1412	24681.5	23820.65
850.1629	973.1495	24609.9	23746.15
850.3081	975.1572	24653.2	23743.95
850.4532	977.1641	24604.45	23742.3
850.5983	979.1704	24509.35	23646
850.7435	981.1759	24443.6	23576.45
850.8886	983.1808	24446.35	23580.65
851.0337	985.1849	24375.55	23505
851.1788	987.1884	24308.25	23442.7
851.324	989.1911	24287.3	23420.35
851.4691	991.1932	24238.8	23375.6
851.6142	993.1945	24125	23261.1
851.7593	995.1951	23988.25	23123.25
851.9045	997.1951	23990.7	23120.4
852.0496	999.1943	23882.75	23018.9
852.1947	1001.1928	23816.4	22948.8
852.3398	1003.1906	23756.75	22891.5
852.4849	1005.1877	23704.8	22838.35
852.63	1007.1841	23628.6	22762.35
852.7751	1009.1798	23571.8	22705
852.9202	1011.1748	23483.25	22619.15
853.0653	1013.1691	23397.55	22531.9
853.2104	1015.1627	23352.35	22487.05
853.3555	1017.1556	23131.7	22265.85
853.5006	1019.1477	23108.75	22243.25
853.6457	1021.1392	22971.85	22106.8
853.7908	1023.1299	22923.85	22058.8
853.9359	1025.12	22822.05	21953.1
854.081	1027.1093	22764.9	21899.8
854.2261	1029.0979	22686.8	21822.4
854.3712	1031.0859	22651.25	21786.6
854.5163	1033.0731	22566.75	21701.15
854.6613	1035.0596	22513.2	21648.4
854.8064	1037.0454	22433.8	21564.5
854.9515	1039.0304	22375.2	21507.5
855.0965	1041.0148	22230.7	21365.25
855.2416	1042.9985	22149.9	21283.25
855.3867	1044.9814	22155.05	21288.3
855.5317	1046.9636	22051.9	21183.35
855.6768	1048.9452	22015.8	21148.35
855.8219	1050.926	22000.8	21134.2
855.9669	1052.9061	21916.25	21048.15
856.112	1054.8855	21903.55	21037.9
856.257	1056.8642	21839.3	20972.55
856.4021	1058.8421	21869.5	20999.25
856.5471	1060.8194	21793.45	20926.3
856.6921	1062.7959	21727.15	20860.35
856.8372	1064.7717	21696.1	20827
856.9822	1066.7469	21657.5	20789.35
857.1272	1068.7213	21651.75	20781.35
857.2723	1070.695	21609.75	20743.15
857.4173	1072.6679	21517.5	20646.7
857.5623	1074.6402	21548.05	20679.05
857.7073	1076.6117	21567.7	20693.7
857.8523	1078.5826	21518.2	20649.3
857.9973	1080.5527	21413	20542.9
858.1423	1082.5221	21326.3	20457.75
858.2873	1084.4908	21265.05	20396.75
858.4323	1086.4587	21180.35	20309.7
858.5773	1088.426	21145.8	20276.65
858.7223	1090.3925	21070	20193.9
858.8673	1092.3584	21042.35	20171.9
859.0123	1094.3235	20961.45	20092.8
859.1573	1096.2879	20916.85	20046.45
859.3022	1098.2515	20939.35	20069.4
859.4472	1100.2145	20949.4	20079.5
859.5922	1102.1767	20864.95	19994.95
859.7371	1104.1382	20908.35	20039.25
859.8821	1106.099	20902.9	20031.9
860.027	1108.0591	20861.9	19992.7
860.172	1110.0185	20882.65	20011.65
860.3169	1111.9771	20908.35	20037.35
860.4619	1113.9351	20835.95	19965.4
860.6068	1115.8923	20853.25	19981.5
860.7517	1117.8488	20834.45	19964.25
860.8967	1119.8045	20753.15	19883.2
861.0416	1121.7596	20673.55	19802.9
861.1865	1123.7139	20456.3	19585.15
861.3314	1125.6675	20377.75	19507.95
861.4763	1127.6204	20404.75	19534.15
861.6212	1129.5726	20337.35	19464.9
861.7661	1131.524	20331.5	19459.65
861.911	1133.4748	20257.45	19387.55
862.0559	1135.4248	20165	19292.7
862.2008	1137.3741	20096	19226.25
862.3457	1139.3226	20007.15	19134.95
862.4905	1141.2705	20049.4	19179.3
862.6354	1143.2176	19970.2	19093.2
862.7803	1145.164	19932.2	19058.15
862.9251	1147.1097	19876.1	19004.45
863.07	1149.0546	19831.1	18958.45
863.2148	1150.9989	19820.55	18947.6
863.3597	1152.9424	19782.95	18911.2
863.5045	1154.8852	19717.35	18845.25
863.6493	1156.8272	19725.95	18853.4
863.7942	1158.7686	19723.2	18845.55
863.939	1160.7092	19653.7	18781.3
864.0838	1162.6491	19574.55	18701.75
864.2286	1164.5883	19626.7	18754.85
864.3734	1166.5267	19559.8	18686.75
864.5182	1168.4644	19585.5	18711.65
864.663	1170.4014	19584.75	18705.9
864.8078	1172.3377	19570.05	18700.95
864.9526	1174.2732	19598.7	18727.6
865.0974	1176.2081	19679.8	18808.35
865.2421	1178.1421	19742.45	18865.85
865.3869	1180.0755	19879.1	19009.15
865.5317	1182.0082	19808.7	18935.85
865.6764	1183.9401	19815.55	18941.95
865.8212	1185.8713	19689.95	18817.95
865.9659	1187.8017	19562.25	18689.05
866.1106	1189.7315	19409.5	18539.35
866.2554	1191.6605	19240.45	18372.2
866.4001	1193.5888	19100.25	18227.7
866.5448	1195.5163	19074.35	18201.1
866.6895	1197.4432	18976.7	18103.1
866.8342	1199.3693	18911	18036.95
866.9789	1201.2947	18845.55	17971.1
867.1236	1203.2193	18757.1	17884.7
867.2683	1205.1432	18748.4	17876
867.413	1207.0664	18675.25	17804.4
867.5576	1208.9889	18643.85	17768.9
867.7023	1210.9106	18577.25	17703.9
867.847	1212.8316	18524.35	17651.55
867.9916	1214.7519	18477.35	17593.2
868.1363	1216.6715	18425.3	17553.7
868.2809	1218.5903	18430.65	17556.4
868.4255	1220.5084	18404	17530.2
868.5701	1222.4257	18377.05	17503.35
868.7148	1224.3424	18322.2	17449.05
868.8594	1226.2583	18316.5	17436.9
869.004	1228.1735	18290.4	17416.45
869.1486	1230.0879	18255.95	17381.15
869.2932	1232.0016	18239.05	17366.2
869.4377	1233.9146	18259.6	17383.95
869.5823	1235.8269	18192.55	17317.8
869.7269	1237.7384	18238.7	17363.05
869.8715	1239.6492	18160.05	17285.6
870.016	1241.5592	18151.35	17277.1
870.1606	1243.4686	18153.95	17279.9
870.3051	1245.3772	18206.6	17331.75
870.4496	1247.285	18236.25	17361.45
870.5941	1249.1922	18251.75	17376.15
870.7387	1251.0986	18294.85	17423.95
870.8832	1253.0042	18296	17419.8
871.0277	1254.9092	18393.5	17519.8
871.1722	1256.8134	18434.35	17559.3
871.3167	1258.7169	18516.65	17641.3
871.4611	1260.6196	18532.95	17660.75
871.6056	1262.5216	18512.75	17636.8
871.7501	1264.4229	18475.65	17601.45
871.8945	1266.3234	18443.85	17570.4
872.039	1268.2232	18334.9	17459.25
872.1834	1270.1223	18254.9	17378.75
872.3278	1272.0207	18207.8	17331.05
872.4723	1273.9183	18160.75	17279.5
872.6167	1275.8151	18111.85	17238.15
872.7611	1277.7113	18132.2	17255.3
872.9055	1279.6067	18162.65	17288.65
873.0499	1281.5014	18282.5	17405.2
873.1943	1283.3953	18464.35	17588
873.3386	1285.2885	18608.1	17733.85
873.483	1287.181	18737.8	17863.3
873.6274	1289.0727	18818.65	17945.05
873.7717	1290.9637	18739.1	17863.1
873.9161	1292.854	18653.05	17777.7
874.0604	1294.7435	18476.95	17604.2
874.2047	1296.6323	18364	17487.8
874.349	1298.5204	18246.4	17371.15
874.4933	1300.4077	18147.05	17272.5
874.6376	1302.2943	18062.35	17185.2
874.7819	1304.1802	18055.7	17180.6
874.9262	1306.0653	17973.8	17095.8
875.0705	1307.9497	17899.85	17026.2
875.2147	1309.8333	17889.7	17013.65
875.359	1311.7162	17824	16946.75
875.5032	1313.5984	17774	16894.1
875.6475	1315.4798	17697.65	16820.7
875.7917	1317.3605	17663.55	16785.15
875.9359	1319.2405	17705.75	16829
876.0801	1321.1197	17617.4	16738.85
876.2243	1322.9982	17529.1	16648.5
876.3685	1324.876	17476.3	16601.55
876.5127	1326.753	17339.6	16464.1
876.6569	1328.6293	17293.9	16415.85
876.801	1330.5048	17218.4	16339.55
876.9452	1332.3796	17052.3	16176.35
877.0893	1334.2537	16994.5	16092.7
877.2335	1336.127	16913.5	16039.75
877.3776	1337.9996	16880.6	16001.7
877.5217	1339.8714	16824.1	15946
877.6658	1341.7426	16767.95	15848.05
877.8099	1343.6129	16734.25	15856.9
877.954	1345.4826	16696.55	15821.2
878.0981	1347.3515	16687.5	15809.9
878.2422	1349.2196	16634.5	15758
878.3862	1351.087	16616.55	15739.25
878.5303	1352.9537	16559	15684.15
878.6743	1354.8197	16591	15715.65
878.8184	1356.6849	16586.5	15710.3
878.9624	1358.5493	16549.65	15670.65
879.1064	1360.4131	16538.6	15662.2
879.2504	1362.276	16572.7	15695.45
879.3944	1364.1383	16560.35	15684.75
879.5384	1365.9998	16514.85	15631.6
879.6823	1367.8606	16486.05	15610.55
879.8263	1369.7206	16444.35	15567.9
879.9702	1371.5799	16417.7	15540.3
880.1142	1373.4384	16352.25	15473.4
880.2581	1375.2962	16321.4	15445.15
880.402	1377.1533	16237.45	15361.3
880.5459	1379.0096	16075.75	15197.4
880.6898	1380.8652	16036.85	15160.55
880.8337	1382.7201	15965	15086.55
880.9776	1384.5742	15854.65	14978.25
881.1215	1386.4275	15772.55	14893.45
881.2653	1388.2802	15739.55	14863.5
881.4092	1390.132	15690.25	14812.5
881.553	1391.9832	15679.95	14800.6
881.6968	1393.8336	15568.9	14692
881.8406	1395.6832	15547.85	14669.1
881.9844	1397.5322	15481.5	14605.9
882.1282	1399.3803	15430.3	14548.3
882.272	1401.2278	15351.2	14474.4
882.4158	1403.0745	15290.75	14413.95
882.5595	1404.9204	15265.7	14389.8
882.7033	1406.7656	15212.35	14335
882.847	1408.6101	15135.6	14258.05
882.9908	1410.4538	15095.6	14218.2
883.1345	1412.2968	15059.95	14181.5
883.2782	1414.139	15010.8	14134.25
883.4219	1415.9805	15015.15	14137.1
883.5656	1417.8213	14940.95	14044.9
883.7092	1419.6613	14918.85	14042.75
883.8529	1421.5006	14927.35	14048.8
883.9965	1423.3391	14912.2	14034.4
884.1402	1425.1769	14913.05	14034
884.2838	1427.0139	14988.9	14110.5
884.4274	1428.8502	15017.1	14138.7
884.571	1430.6858	15062.1	14183.9
884.7146	1432.5206	15020.15	14143.85
884.8582	1434.3547	15022.5	14146.05
885.0018	1436.188	15006.85	14132.1
885.1453	1438.0206	14959.9	14081.6
885.2889	1439.8524	14910.75	14032.1
885.4324	1441.6835	14900.05	14021.65
885.5759	1443.5139	14874.5	13992.7
885.7194	1445.3435	14831.5	13954.5
885.8629	1447.1724	14823.05	13945.15
886.0064	1449.0005	14825.6	13947.05
886.1499	1450.8279	14771.7	13891.1
886.2933	1452.6545	14748.75	13871
886.4368	1454.4804	14739.4	13863.8
886.5802	1456.3056	14701	13816.1
886.7237	1458.13	14649.95	13771.4
886.8671	1459.9536	14635.8	13756.35
887.0105	1461.7766	14585.2	13708.4
887.1539	1463.5987	14506.7	13625.9
887.2972	1465.4202	14439.6	13562.15
887.4406	1467.2409	14304.55	13426.75
887.584	1469.0608	14326.95	13451.85
887.7273	1470.88	14255.35	13373.25
887.8706	1472.6984	14210.5	13333.9
888.0139	1474.5161	14133.1	13253.95
888.1572	1476.3331	14089	13212.55
888.3005	1478.1493	14072.2	13193.8
888.4438	1479.9648	14059	13180.8
888.5871	1481.7795	13984.9	13105.4
888.7303	1483.5935	13973.1	13095.1
888.8736	1485.4067	13979.6	13100.3
889.0168	1487.2192	13975.5	13097.35
889.16	1489.031	13996.5	13116.4
889.3032	1490.842	13939.05	13059.9
889.4464	1492.6522	13914.4	13037.85
889.5896	1494.4618	13877.1	12995.95
889.7327	1496.2705	13867.4	12990.3
889.8759	1498.0785	13808.45	12928.85
890.019	1499.8858	13793.1	12914.2
890.1622	1501.6924	13754.2	12877.5
890.3053	1503.4981	13712.3	12833.55
890.4484	1505.3032	13694.25	12816.8
890.5914	1507.1075	13637.85	12760.5
890.7345	1508.911	13620.95	12742.25
890.8776	1510.7138	13565.65	12686.85
891.0206	1512.5159	13587.3	12707.05
891.1637	1514.3172	13515.7	12636.35
891.3067	1516.1178	13475.7	12600.15
891.4497	1517.9176	13434.45	12555
891.5927	1519.7166	13356.15	12478.55
891.7357	1521.515	13363.25	12479.65
891.8786	1523.3126	13335.55	12456.95
892.0216	1525.1094	13262.1	12382.15
892.1645	1526.9055	13237.9	12360.8
892.3074	1528.7008	13191.75	12315.05
892.4503	1530.4954	13079.8	12198.1
892.5932	1532.2893	13056.5	12181.6
892.7361	1534.0824	13008.95	12127.25
892.879	1535.8747	12995.35	12117.7
893.0218	1537.6663	12948.85	12070.15
893.1647	1539.4572	12903.45	12025.7
893.3075	1541.2473	12894.45	12014.85
893.4503	1543.0367	12844.15	11967.45
893.5931	1544.8253	12787.85	11904.75
893.7359	1546.6132	12804	11923.75
893.8787	1548.4003	12739	11853
894.0214	1550.1867	12717.4	11829.4
894.1642	1551.9723	12682.75	11799.4
894.3069	1553.7572	12683.9	11802.95
894.4496	1555.5414	12666.35	11789.05
894.5923	1557.3247	12644.8	11765.8
894.735	1559.1074	12639.6	11762.85
894.8777	1560.8893	12650.05	11773.8
895.0204	1562.6705	12627.1	11749.8
895.163	1564.4509	12617.45	11740.5
895.3056	1566.2305	12594.35	11717.4
895.4482	1568.0094	12634.2	11759.05
895.5908	1569.7876	12593.8	11715
895.7334	1571.565	12555.75	11677.7
895.876	1573.3417	12534.3	11658.1
896.0186	1575.1176	12500.8	11623.75
896.1611	1576.8928	12484.05	11607.55
896.3036	1578.6672	12451.1	11573
896.4461	1580.4409	12448.7	11572.5
896.5886	1582.2138	12448.15	11568.65
896.7311	1583.986	12450.8	11573.3
896.8736	1585.7575	12503.8	11627.05
897.0161	1587.5282	12479.85	11603.15
897.1585	1589.2981	12487.2	11610.95
897.3009	1591.0673	12448.65	11570.85
897.4433	1592.8358	12422.95	11545.35
897.5857	1594.6035	12428.8	11548.6
897.7281	1596.3704	12345.75	11469.7
897.8705	1598.1366	12305.55	11428.05
898.0128	1599.9021	12260	11383.85
898.1551	1601.6668	12160.3	11280.45
898.2975	1603.4308	12094.2	11216
898.4398	1605.194	12078.1	11196.05
898.5821	1606.9564	12071	11194.9
898.7243	1608.7182	12095.6	11215.45
898.8666	1610.4791	12171.55	11294.75
899.0088	1612.2394	12234.7	11357.75
899.1511	1613.9988	12280.35	11403.35
899.2933	1615.7576	12361.55	11485.55
899.4355	1617.5156	12382.9	11499.75
899.5776	1619.2728	12313.85	11436.95
899.7198	1621.0293	12206.35	11329.55
899.862	1622.785	12073.15	11193.85
900.0041	1624.54	11911	11031.4
900.1462	1626.2942	11764.95	10887.55
900.2883	1628.0477	11556.2	10675.85
900.4304	1629.8005	11448.75	10567.3
900.5725	1631.5525	11353.25	10477.15
900.7145	1633.3037	11265.2	10389.1
900.8566	1635.0542	11194.15	10317.9
900.9986	1636.804	11092.85	10213.45
901.1406	1638.553	11144.55	10179.9
901.2826	1640.3013	11024.7	10148.95
901.4245	1642.0488	10943	10064.7
901.5665	1643.7955	10892.25	10015
901.7085	1645.5416	10842.7	9964
901.8504	1647.2868	10807.65	9932.15
901.9923	1649.0313	10772.65	9896.2
902.1342	1650.7751	10752.85	9873.65
902.2761	1652.5181	10726.3	9848.45
902.4179	1654.2604	10677.1	9798.95
902.5598	1656.0019	10645.95	9768.8
902.7016	1657.7427	10632.45	9755.65
902.8434	1659.4828	10623.8	9745.25
902.9852	1661.222	10641.15	9761.85
903.127	1662.9606	10645.55	9767.95
903.2687	1664.6984	10652.7	9774.6
903.4105	1666.4354	10661.6	9784.6
903.5522	1668.1717	10589.05	9712.45
903.6939	1669.9072	10505.95	9628.35
903.8356	1671.642	10429.5	9549.45
903.9773	1673.3761	10382.05	9503.9
904.119	1675.1094	10304.4	9427.65
904.2606	1676.8419	10211.25	9335.55
904.4022	1678.5737	10183.85	9306.55
904.5439	1680.3048	10129.15	9250.4
904.6855	1682.0351	10094	9216.75
904.827	1683.7646	10026.3	9145.3
904.9686	1685.4934	9983.35	9107.9
905.1101	1687.2215	9960.15	9081.4
905.2517	1688.9488	9898.55	9021.3
905.3932	1690.6754	9853.85	8977.35
905.5347	1692.4012	9822.85	8944.85
905.6761	1694.1263	9808.45	8929.05
905.8176	1695.8506	9777.85	8898.95
905.9591	1697.5742	9735.05	8858.75
906.1005	1699.297	9700.95	8823.05
906.2419	1701.0191	9631.55	8754.15
906.3833	1702.7404	9610.2	8731.8
906.5246	1704.461	9565.45	8686.45
906.666	1706.1808	9558.25	8679.6
906.8073	1707.8999	9499.1	8621.2
906.9487	1709.6182	9469	8590.05
907.09	1711.3358	9444.2	8567.7
907.2313	1713.0527	9436.8	8561.1
907.3725	1714.7688	9409.5	8526.15
907.5138	1716.4841	9362.7	8485.5
907.655	1718.1987	9339.95	8456.3
907.7962	1719.9126	9304.4	8428.8
907.9374	1721.6257	9270.1	8389
908.0786	1723.338	9279.95	8402.3
908.2198	1725.0496	9248.15	8368.75
908.3609	1726.7605	9210.1	8334
908.502	1728.4706	9214.9	8337.35
908.6431	1730.18	9152.1	8271.35
908.7842	1731.8886	9140.1	8262.45
908.9253	1733.5964	9123.3	8224.4
909.0664	1735.3036	9109.3	8229.4
909.2074	1737.0099	9102.95	8224.55
909.3484	1738.7156	9063.6	8185.7
909.4894	1740.4204	9054.4	8173.7
909.6304	1742.1246	9050	8170.85
909.7714	1743.8279	9019.05	8142.6
909.9123	1745.5306	9037.95	8161
910.0532	1747.2325	9006.8	8129.05
910.1941	1748.9336	8988.15	8111.1
910.335	1750.634	8948.65	8070.65
910.4759	1752.3336	8917.6	8039.05
910.6168	1754.0325	8915.6	8036.75
910.7576	1755.7307	8874	7998
910.8984	1757.4281	8891.35	8014.45
911.0392	1759.1247	8879.2	7992.75
911.18	1760.8206	8883.9	8000.9
911.3208	1762.5158	8862.6	7982.15
911.4615	1764.2102	8823.1	7945.2
911.6022	1765.9039	8796.35	7917
911.7429	1767.5968	8792.55	7915
911.8836	1769.289	8775.05	7899.25
912.0243	1770.9804	8746.9	7867.75
912.1649	1772.6711	8744.8	7866.55
912.3056	1774.361	8711.45	7832.95
912.4462	1776.0502	8710.65	7834.95
912.5868	1777.7386	8695.6	7812.85
912.7274	1779.4263	8658.15	7780.3
912.8679	1781.1132	8640.45	7761.9
913.0084	1782.7994	8628.35	7749.5
913.149	1784.4849	8624.75	7746.8
913.2895	1786.1696	8584.45	7685.25
913.4299	1787.8535	8563.9	7687
913.5704	1789.5367	8532.15	7654.35
913.7108	1791.2192	8547.55	7671.25
913.8513	1792.9009	8511.55	7615.05
913.9917	1794.5818	8470.3	7592.75
914.132	1796.2621	8448.7	7571.35
914.2724	1797.9415	8443.5	7565
914.4128	1799.6202	8412.7	7533.05
914.5531	1801.2982	8410.15	7532.5
914.6934	1802.9755	8390.4	7510.6
914.8337	1804.6519	8384.55	7507.5
914.9739	1806.3277	8357.5	7480.05
915.1142	1808.0027	8313.55	7436.95
915.2544	1809.6769	8312.9	7435.05
915.3946	1811.3504	8275.25	7395.55
915.5348	1813.0231	8276.35	7399.65
915.675	1814.6951	8263.1	7385.35
915.8151	1816.3664	8272.6	7392.6
915.9553	1818.0369	8237.8	7358.85
916.0954	1819.7067	8184.95	7308.9
916.2355	1821.3757	8196.1	7317.15
916.3755	1823.044	8202.35	7324.2
916.5156	1824.7115	8165.35	7287.85
916.6556	1826.3783	8140.65	7264.4
916.7956	1828.0443	8099.1	7222.6
916.9356	1829.7096	8104	7224.7
917.0756	1831.3741	8085.85	7203.15
917.2155	1833.0379	8072.6	7193.95
917.3555	1834.701	8069.3	7191
917.4954	1836.3633	8056.6	7178.55
917.6353	1838.0248	8034.95	7153.85
917.7751	1839.6856	8023.65	7146.3
917.915	1841.3457	8015.35	7139.65
918.0548	1843.005	7985.35	7108.3
918.1946	1844.6636	7967.3	7092.25
918.3344	1846.3214	7934.2	7057
918.4742	1847.9785	7952.55	7076.55
918.6139	1849.6349	7920.85	7042.4
918.7537	1851.2904	7905.85	7017.2
918.8934	1852.9453	7891.1	7013.6
919.0331	1854.5994	7867.8	6989.65
919.1727	1856.2528	7865.55	6983.55
919.3124	1857.9054	7844.8	6963.6
919.452	1859.5572	7830.6	6952.75
919.5916	1861.2083	7806.35	6926.8
919.7312	1862.8587	7808.85	6930.25
919.8708	1864.5084	7772.6	6894.2
920.0103	1866.1572	7770.4	6893.8
920.1498	1867.8054	7732.25	6853.3
920.2893	1869.4528	7703.85	6825.85
920.4288	1871.0994	7713.95	6836.5
920.5683	1872.7453	7689	6811
920.7077	1874.3905	7677	6791.6
920.8471	1876.0349	7662	6784.05
920.9865	1877.6786	7643.95	6765.4
921.1259	1879.3215	7641.3	6763.15
921.2653	1880.9637	7636.35	6757.65
921.4046	1882.6051	7629.1	6751.3
921.5439	1884.2458	7608.6	6728.75
921.6832	1885.8858	7590.1	6711.3
921.8225	1887.525	7574.95	6694.75
921.9617	1889.1634	7508.35	6629.4
922.101	1890.8011	7505.85	6626.6
922.2402	1892.4381	7498.2	6621.4
922.3794	1894.0743	7496.7	6620.05
922.5185	1895.7098	7488.05	6609.65
922.6577	1897.3446	7475.25	6597.55
922.7968	1898.9786	7478.4	6596.9
922.9359	1900.6118	7443.8	6565.8
923.075	1902.2443	7413.35	6531.85
923.214	1903.8761	7407.25	6530.65
923.3531	1905.5071	7354.65	6476.05
923.4921	1907.1374	7342.1	6463.5
923.6311	1908.7669	7345.55	6468.2
923.77	1910.3957	7288.1	6409.9
923.909	1912.0237	7280.25	6401.55
924.0479	1913.651	7269.85	6391.95
924.1868	1915.2776	7247.65	6372.1
924.3257	1916.9034	7216.3	6340.65
924.4646	1918.5285	7184.8	6308.95
924.6034	1920.1528	7173.1	6295.3
924.7422	1921.7764	7170.85	6293.7
924.881	1923.3992	7146.75	6268.95
925.0198	1925.0213	7103.45	6225.25
925.1586	1926.6427	7087.95	6211.4
925.2973	1928.2633	7245.25	6154.85
925.436	1929.8832	7082.3	6201.3
925.5747	1931.5023	7041.35	6161.8
925.7134	1933.1207	7000.4	6121.45
925.852	1934.7383	7014.95	6136.95
925.9906	1936.3552	6961.2	6085.1
926.1292	1937.9714	6952.2	6074.7
926.2678	1939.5868	6950.9	6070.25
926.4064	1941.2015	6929.45	6051.55
926.5449	1942.8154	6911.75	6034.3
926.6834	1944.4286	6881.25	6001.65
926.8219	1946.041	6853.5	5952.8
926.9604	1947.6528	6827.5	5943.35
927.0988	1949.2637	6810.15	5932.45
927.2372	1950.8739	6791.95	5911.8
927.3756	1952.4834	6785.45	5906.9
927.514	1954.0921	6776.5	5897.65
927.6523	1955.7001	6766.95	5884.2
927.7907	1957.3074	6739.7	5864.7
927.929	1958.9139	6713.65	5837.25
928.0673	1960.5197	6694.3	5813.55
928.2055	1962.1247	6670.95	5793.85
928.3438	1963.729	6647.75	5770.35
928.482	1965.3325	6649.35	5748.2
928.6202	1966.9353	6625.7	5748.2
928.7584	1968.5374	6604.1	5724.6
928.8965	1970.1387	6592.05	5713.1
929.0346	1971.7393	6575	5698.55
929.1727	1973.3392	6557.65	5681.5
929.3108	1974.9383	6516.45	5640.75
929.4489	1976.5366	6485.55	5608.8
929.5869	1978.1342	6494.8	5616.7
929.7249	1979.7311	6483.75	5604.35
929.8629	1981.3273	6482.4	5603.15
930.0009	1982.9227	6450.3	5572.6
930.1388	1984.5173	6429.55	5550.05
930.2767	1986.1112	6397.6	5521.2
930.4146	1987.7044	6399.85	5522.2
930.5525	1989.2968	6409.95	5531.8
930.6904	1990.8885	6383.75	5504.1
930.8282	1992.4795	6371.7	5493.1
930.966	1994.0697	6379.65	5503.4
931.1038	1995.6592	6340.9	5463.9
931.2415	1997.2479	6318.9	5440.2
931.3793	1998.8359	6302.7	5425.3
931.517	2000.4232	6287.25	5409.9
931.6547	2002.0097	6292.95	5418.2
931.7923	2003.5955	6245.45	5368.8
931.93	2005.1805	6247.2	5369.55
932.0676	2006.7648	6239.85	5363.35
932.2052	2008.3484	6225.2	5346.05
932.3427	2009.9312	6219.45	5342.25
932.4803	2011.5133	6196.05	5320.25
932.6178	2013.0946	6198	5321.55
932.7553	2014.6752	6161.3	5286.35
932.8928	2016.2551	6175	5298.95
933.0302	2017.8342	6134.85	5257.9
933.1676	2019.4126	6107.8	5232.25
933.305	2020.9902	6102.95	5227.7
933.4424	2022.5672	6082.6	5203.9
933.5798	2024.1433	6090.6	5207.65
933.7171	2025.7188	6080.25	5205.55
933.8544	2027.2935	6057.35	5180.15
933.9917	2028.8674	6033.55	5157.85
934.129	2030.4406	6010.65	5134.3
934.2662	2032.0131	5985.9	5111.45
934.4034	2033.5849	5984.35	5104.5
934.5406	2035.1559	5980.9	5105.55
934.6778	2036.7261	5973.95	5097.65
934.8149	2038.2957	5968.15	5091.75
934.952	2039.8645	5959.05	5081.5
935.0891	2041.4325	5952.7	5072.25
935.2262	2042.9998	5915.35	5038.05
935.3632	2044.5664	5922.8	5045
935.5002	2046.1323	5921.9	5043.9
935.6372	2047.6974	5904.9	5030.2
935.7742	2049.2617	5890.95	5015
935.9111	2050.8254	5898.9	5002.05
936.048	2052.3883	5883.4	5007
936.1849	2053.9504	5851.65	4974.3
936.3218	2055.5118	5837.4	4961.05
936.4586	2057.0725	5839.65	4957.95
936.5955	2058.6325	5819.15	4941.95
936.7323	2060.1917	5805.25	4930.9
936.869	2061.7502	5798.35	4919.6
937.0058	2063.3079	5762.3	4888.85
937.1425	2064.8649	5766.55	4888.4
937.2792	2066.4212	5768.9	4892.5
937.4159	2067.9767	5758.05	4883.15
937.5525	2069.5315	5730.25	4854.45
937.6891	2071.0856	5711.1	4834.1
937.8257	2072.6389	5691	4812.6
937.9623	2074.1915	5671.05	4796.9
938.0989	2075.7433	5646.95	4768.3
938.2354	2077.2945	5642.15	4767.65
938.3719	2078.8448	5639.1	4762.05
938.5084	2080.3945	5626.45	4747.85
938.6448	2081.9434	5634.1	4758.7
938.7812	2083.4916	5616.25	4736.8
938.9176	2085.039	5603.55	4724.4
939.054	2086.5857	5586.35	4709.2
939.1903	2088.1317	5578	4699.95
939.3267	2089.677	5578.05	4701.45
939.463	2091.2215	5549.95	4671.6
939.5992	2092.7652	5537.45	4658.2
939.7355	2094.3083	5547.75	4670.35
939.8717	2095.8506	5531.95	4657.6
940.0079	2097.3921	5526.3	4651.45
940.1441	2098.933	5533.75	4658
940.2802	2100.4731	5503.45	4625.1
940.4163	2102.0124	5520.95	4627.35
940.5524	2103.5511	5517.3	4642.45
940.6885	2105.089	5500.4	4621.35
940.8245	2106.6261	5473.75	4597.1
940.9606	2108.1626	5472.65	4594.45
941.0965	2109.6983	5485.95	4580.95
941.2325	2111.2332	5459.25	4581.4
941.3684	2112.7675	5451.75	4575.4
941.5044	2114.301	5424.3	4545.85
941.6403	2115.8337	5421.7	4546.95
941.7761	2117.3657	5395.25	4520.6
941.912	2118.897	5408.9	4532.25
942.0478	2120.4276	5377.75	4494.15
942.1835	2121.9575	5366.4	4490.3
942.3193	2123.4866	5367.15	4485.75
942.455	2125.0149	5360.15	4479.95
942.5907	2126.5426	5331	4453.8
942.7264	2128.0695	5328.95	4449.9
942.8621	2129.5956	5316.65	4443.6
942.9977	2131.1211	5298.25	4415.95
943.1333	2132.6458	5301.65	4426.85
943.2689	2134.1698	5293.45	4415.75
943.4044	2135.693	5275.75	4396.65
943.54	2137.2155	5281.05	4402.85
943.6755	2138.7373	5266.9	4388.65
943.8109	2140.2584	5243.4	4365
943.9464	2141.7787	5251.35	4369.5
944.0818	2143.2983	5225.3	4350.5
944.2172	2144.8171	5202.8	4329.45
944.3526	2146.3353	5206.85	4329.15
944.4879	2147.8527	5170.2	4294.3
944.6232	2149.3693	5184.1	4305.7
944.7585	2150.8853	5168.15	4290.45
944.8938	2152.4005	5138.55	4261.45
945.029	2153.9149	5155.45	4278.9
945.1642	2155.4287	5113.6	4236.5
945.2994	2156.9417	5106.25	4226.8
945.4346	2158.454	5103.8	4224.3
945.5697	2159.9655	5090.15	4214.95
945.7048	2161.4764	5087.85	4211.95
945.8399	2162.9865	5069.05	4191.6
945.9749	2164.4958	5071.55	4194.65
946.1099	2166.0045	5044.45	4167.7
946.2449	2167.5124	5045.8	4167.95
946.3799	2169.0195	5028.6	4150.75
946.5148	2170.526	5029.35	4152.2
946.6498	2172.0317	5030.15	4153.85
946.7846	2173.5367	5003.7	4126.35
946.9195	2175.0409	4983.95	4108.45
947.0543	2176.5445	4983.8	4108.05
947.1891	2178.0473	4948.55	4072.1
947.3239	2179.5494	4946.8	4066.85
947.4587	2181.0507	4940.25	4063.25
947.5934	2182.5513	4923.25	4046.95
947.7281	2184.0512	4923.95	4047.05
947.8628	2185.5504	4908.65	4032.15
947.9974	2187.0488	4894.95	4018.3
948.132	2188.5465	4880.25	4003.8
948.2666	2190.0435	4860.4	3984.7
948.4012	2191.5397	4850.7	3973.65
948.5357	2193.0353	4844.4	3969.85
948.6702	2194.5301	4829.4	3949.55
948.8047	2196.0241	4811.45	3933.1
948.9392	2197.5175	4799.5	3924.1
949.0736	2199.0101	4799.6	3920.6
949.208	2200.502	4765.45	3889.25
949.3424	2201.9931	4759.45	3883.75
949.4767	2203.4835	4729.5	3852
949.611	2204.9733	4751.7	3869.65
949.7453	2206.4622	4738.1	3861.8
949.8796	2207.9505	4731.55	3851.25
950.0138	2209.438	4712	3836.25
950.148	2210.9248	4695.35	3818
950.2822	2212.4109	4668.65	3793.15
950.4164	2213.8962	4668.6	3788.35
950.5505	2215.3809	4666.8	3788.7
950.6846	2216.8648	4656	3778.35
950.8186	2218.3479	4642.3	3760.5
950.9527	2219.8304	4613.65	3733.9
951.0867	2221.3121	4598.85	3719.7
951.2207	2222.7931	4602.8	3726.3
951.3546	2224.2733	4565.75	3689.05
951.4886	2225.7529	4576.95	3698.25
951.6225	2227.2317	4563.55	3683.55
951.7563	2228.7098	4553.65	3676.75
951.8902	2230.1872	4517.5	3641.1
952.024	2231.6638	4532.75	3655.5
952.1578	2233.1397	4509.4	3627.25
952.2916	2234.6149	4509.65	3633.1
952.4253	2236.0894	4491.65	3613.9
952.559	2237.5632	4479.7	3593
952.6927	2239.0362	4469.85	3594.45
952.8263	2240.5085	4451.85	3574.1
952.9599	2241.9801	4441.6	3565
953.0935	2243.4509	4436.5	3560.85
953.2271	2244.921	4418.75	3543.05
953.3606	2246.3904	4397.65	3518.9
953.4941	2247.8591	4383.75	3505.95
953.6276	2249.3271	4384.25	3509.5
953.7611	2250.7943	4377.15	3498.5
953.8945	2252.2608	4348.6	3473.45
954.0279	2253.7266	4359.1	3482.75
954.1612	2255.1917	4340.65	3464.45
954.2946	2256.656	4339.55	3462.7
954.4279	2258.1197	4332.3	3456.45
954.5612	2259.5826	4316.4	3437.1
954.6944	2261.0447	4293.95	3417.1
954.8276	2262.5062	4278.3	3399.55
954.9608	2263.9669	4287.1	3407.75
955.094	2265.4269	4283.85	3407.9
955.2271	2266.8862	4258.25	3383.05
955.3602	2268.3448	4258.25	3382.35
955.4933	2269.8026	4246.05	3368.5
955.6264	2271.2598	4236.65	3362.25
955.7594	2272.7162	4224.25	3349.2
955.8924	2274.1719	4213.45	3337.45
956.0253	2275.6268	4200.3	3324.9
956.1583	2277.0811	4209.3	3332.85
956.2912	2278.5346	4178.9	3301.65
956.4241	2279.9874	4181.7	3304.6
956.5569	2281.4395	4175.2	3299.6
956.6897	2282.8908	4159.95	3279.8
956.8225	2284.3414	4150.7	3271.95
956.9553	2285.7914	4146.1	3270.35
957.088	2287.2406	4131.75	3255.05
957.2207	2288.689	4118.3	3240.1
957.3534	2290.1368	4113.3	3234.35
957.486	2291.5838	4096.55	3218.55
957.6186	2293.0302	4086.2	3207.9
957.7512	2294.4758	4062.6	3185.4
957.8838	2295.9206	4062.45	3184.1
958.0163	2297.3648	4068.9	3193.55
958.1488	2298.8082	4059.2	3181.15
958.2813	2300.251	4048	3170.6
958.4137	2301.693	4057.75	3177.65
958.5461	2303.1343	4024.35	3147.05
958.6785	2304.5748	4015.7	3138.4
958.8108	2306.0147	3988.45	3112.4
958.9432	2307.4538	3981.9	3100.7
959.0754	2308.8922	3979.55	3103.75
959.2077	2310.3299	3966.4	3089
959.3399	2311.7669	3962.8	3086.2
959.4721	2313.2031	3964.9	3086.4
959.6043	2314.6387	3935.35	3058.25
959.7365	2316.0735	3937.35	3060.45
959.8686	2317.5076	3927.8	3050.95
960.0006	2318.941	3924.7	3047
960.1327	2320.3737	3932.95	3056.25
960.2647	2321.8056	3912.15	3032.9
960.3967	2323.2369	3888.35	3013.4
960.5287	2324.6674	3898.75	3018.8
960.6606	2326.0972	3869.9	2989.6
960.7925	2327.5263	3873.3	2996
960.9244	2328.9547	3846.9	2970.6
961.0562	2330.3823	3833.85	2957.15
961.1881	2331.8092	3843.7	2963.7
961.3198	2333.2355	3847.75	2969.5
961.4516	2334.661	3823.8	2946.9
961.5833	2336.0858	3814.2	2936.6
961.715	2337.5098	3792	2915.75
961.8467	2338.9332	3797.5	2920.05
961.9783	2340.3558	3793.5	2914.4
962.1099	2341.7778	3787.55	2909.65
962.2415	2343.199	3769.1	2888.5
962.373	2344.6195	3758.6	2881.7
962.5045	2346.0393	3751.25	2875.75
962.636	2347.4583	3751.85	2873.05
962.7675	2348.8767	3731.75	2853.85
962.8989	2350.2943	3724.1	2845
963.0303	2351.7113	3720.65	2840.95
963.1617	2353.1275	3707.2	2830.35
963.293	2354.543	3707.35	2821.9
963.4243	2355.9578	3689.3	2811.05
963.5556	2357.3718	3668.6	2792.6
963.6868	2358.7852	3657.8	2778.6
963.818	2360.1978	3648.55	2768.7
963.9492	2361.6098	3652.55	2773.55
964.0803	2363.021	3648.2	2765.8
964.2114	2364.4315	3621.35	2742.85
964.3425	2365.8413	3619.05	2735.6
964.4736	2367.2504	3602.65	2727
964.6046	2368.6587	3591.6	2713.85
964.7356	2370.0664	3575.2	2699.65
964.8666	2371.4733	3581.1	2703.95
964.9975	2372.8795	3553.4	2676.1
965.1284	2374.285	3566.2	2688.05
965.2593	2375.6899	3540.75	2661.95
965.3901	2377.0939	3527.85	2648.9
965.5209	2378.4973	3514.15	2637.3
965.6517	2379.9	3508.05	2628.8
965.7825	2381.3019	3489.05	2611.8
965.9132	2382.7032	3482.5	2604.65
966.0439	2384.1037	3484.95	2610
966.1745	2385.5035	3471.25	2591.7
966.3051	2386.9027	3462.5	2585.7
966.4357	2388.3011	3449.1	2570.1
966.5663	2389.6987	3441.5	2563.5
966.6968	2391.0957	3431.9	2556.15
966.8273	2392.492	3425.85	2548.75
966.9578	2393.8876	3400.6	2521.65
967.0882	2395.2824	3401.85	2523.05
967.2186	2396.6765	3383.75	2506.75
967.349	2398.07	3364.1	2485.7
967.4793	2399.4627	3367.25	2488.95
967.6097	2400.8547	3357.4	2481.2
967.7399	2402.246	3365.65	2485.2
967.8702	2403.6366	3342.35	2463.65
968.0004	2405.0265	3321.45	2442.9
968.1306	2406.4156	3325.55	2443.85
968.2607	2407.8041	3315.7	2434.55
968.3909	2409.1918	3302.15	2421.25
968.521	2410.5789	3291.05	2414.1
968.651	2411.9652	3276	2397.4
968.781	2413.3508	3275.7	2399.3
968.911	2414.7358	3247.4	2370.9
969.041	2416.12	3252.9	2377.5
969.1709	2417.5035	3245.25	2366.95
969.3008	2418.8863	3220.35	2339.9
969.4307	2420.2684	3226.3	2348.45
969.5606	2421.6497	3217.3	2337.35
969.6904	2423.0304	3195.05	2317.3
969.8201	2424.4104	3191.75	2313.65
969.9499	2425.7896	3182.35	2302.8
970.0796	2427.1682	3181.8	2307
970.2093	2428.546	3156.35	2277
970.3389	2429.9232	3150.9	2272.65
970.4685	2431.2996	3158.9	2281
970.5981	2432.6753	3139.6	2262.05
970.7277	2434.0503	3143.3	2263.85
970.8572	2435.4246	3135.95	2258.95
970.9867	2436.7982	3135.9	2254
971.1161	2438.1711	3112.8	2235.55
971.2456	2439.5433	3102.75	2224.8
971.375	2440.9148	3110.3	2228.9
971.5043	2442.2856	3092.05	2217.2
971.6336	2443.6557	3079.25	2201.25
971.7629	2445.025	3086.85	2208.8
971.8922	2446.3937	3078.6	2198.95
972.0214	2447.7617	3070.95	2193
972.1506	2449.1289	3056.55	2178.85
972.2798	2450.4955	3041.6	2162.5
972.4089	2451.8613	3038.05	2161.05
972.538	2453.2265	3045.6	2170.5
972.6671	2454.5909	3033.25	2153.35
972.7961	2455.9546	3044.1	2164.8
972.9251	2457.3177	3012.25	2135.8
973.0541	2458.68	3006.85	2127.15
973.1831	2460.0416	3005.95	2126.75
973.312	2461.4025	3009.75	2132.25
973.4408	2462.7627	3005.6	2115.15
973.5697	2464.1222	2987.8	2112.85
973.6985	2465.4811	2981.65	2103.1
973.8273	2466.8392	2973.9	2095.05
973.956	2468.1966	2965.7	2085.4
974.0847	2469.5533	2955.25	2075.25
974.2134	2470.9093	2954.3	2075.4
974.3421	2472.2645	2950.3	2071.05
974.4707	2473.6191	2943.55	2066.6
974.5993	2474.973	2932.1	2055.75
974.7278	2476.3262	2939.45	2060.4
974.8563	2477.6787	2923.95	2047.65
974.9848	2479.0305	2903.6	2025.55
975.1132	2480.3816	2901.85	2021.65
975.2417	2481.7319	2891.3	2014.55
975.37	2483.0816	2879.45	1999.95
975.4984	2484.4306	2872.5	1994.1
975.6267	2485.7789	2870.6	1993.6
975.755	2487.1264	2853.75	1974.95
975.8833	2488.4733	2844.2	1968.1
976.0115	2489.8195	2837.1	1950.15
976.1397	2491.165	2845.05	1965.8
976.2678	2492.5097	2838.05	1958.15
976.3959	2493.8538	2822.25	1944.6
976.524	2495.1972	2817.4	1940.6
976.6521	2496.5398	2817.2	1937.25
976.7801	2497.8818	2797.75	1918.7
976.9081	2499.2231	2787.4	1910.9
977.036	2500.5637	2784.75	1904
977.164	2501.9035	2786.05	1908.4
977.2918	2503.2427	2778.4	1897.15
977.4197	2504.5812	2762.9	1888.5
977.5475	2505.919	2745.6	1866.95
977.6753	2507.256	2738.45	1860.75
977.8031	2508.5924	2742.95	1865.9
977.9308	2509.9281	2746.35	1861.95
978.0585	2511.2631	2744.45	1867.6
978.1861	2512.5974	2726.85	1850.4
978.3137	2513.9309	2716.65	1838
978.4413	2515.2638	2732.6	1825.8
978.5689	2516.596	2705.1	1829
978.6964	2517.9275	2692.55	1814.1
978.8239	2519.2583	2691.45	1814.15
978.9513	2520.5884	2680.6	1801.55
979.0788	2521.9178	2678.3	1799.85
979.2062	2523.2465	2673.2	1797.25
979.3335	2524.5745	2654.6	1777.3
979.4608	2525.9018	2643.25	1767
979.5881	2527.2284	2648.05	1770.9
979.7154	2528.5543	2640.35	1764.05
979.8426	2529.8796	2632.4	1754.8
979.9698	2531.2041	2644.05	1765.65
980.0969	2532.5279	2623.2	1745.8
980.224	2533.851	2625.35	1746.9
980.3511	2535.1735	2624.65	1748
980.4781	2536.4952	2605.75	1729.1
980.6052	2537.8163	2612.5	1734.4
980.7321	2539.1366	2602	1725.05
980.8591	2540.4562	2593.15	1715.95
980.986	2541.7752	2586.65	1710.25
981.1129	2543.0935	2597.6	1718.95
981.2397	2544.411	2580.65	1700.55
981.3665	2545.7279	2575.7	1698.35
981.4933	2547.0441	2576.6	1699.8
981.62	2548.3596	2567.4	1687.2
981.7467	2549.6744	2568.65	1690.75
981.8734	2550.9885	2566.15	1680.95
982.0001	2552.3019	2537.6	1661.25
982.1267	2553.6146	2551.65	1673.05
982.2532	2554.9266	2540.15	1660.75
982.3798	2556.2379	2544.25	1664.9
982.5063	2557.5485	2538.85	1661.35
982.6327	2558.8585	2529.45	1645.3
982.7592	2560.1677	2545.15	1665.05
982.8856	2561.4762	2520	1641.2
983.0119	2562.7841	2518.1	1638.05
983.1383	2564.0913	2515.85	1638.55
983.2646	2565.3977	2505	1628.3
983.3908	2566.7035	2507.55	1631.55
983.517	2568.0086	2493.35	1612.85
983.6432	2569.313	2506.85	1630.45
983.7694	2570.6167	2504.35	1622.15
983.8955	2571.9197	2493.75	1618.6
984.0216	2573.222	2490.55	1610.15
984.1476	2574.5236	2480.8	1604.4
984.2737	2575.8246	2474.3	1595.6
984.3996	2577.1248	2485.1	1605.5
984.5256	2578.4244	2465.85	1587.95
984.6515	2579.7232	2461.25	1582.95
984.7774	2581.0214	2478.75	1574.7
984.9032	2582.3189	2452.95	1577.3
985.029	2583.6157	2466.1	1585.1
985.1548	2584.9118	2436.45	1557.6
985.2806	2586.2072	2438.1	1561.35
985.4063	2587.5019	2444.6	1567.35
985.5319	2588.7959	2431.95	1554.55
985.6576	2590.0893	2437.6	1559.05
985.7832	2591.3819	2422	1546.2
985.9087	2592.6739	2415.1	1540.1
986.0343	2593.9652	2401.7	1522.35
986.1597	2595.2557	2396.05	1520.2
986.2852	2596.5456	2401.1	1520
986.4106	2597.8348	2389.75	1510.7
986.536	2599.1234	2376.75	1500.85
986.6614	2600.4112	2371.9	1494.2
986.7867	2601.6983	2364.85	1483.45
986.912	2602.9848	2359.9	1481.35
987.0372	2604.2705	2376.8	1495.35
987.1624	2605.5556	2353.75	1475.6
987.2876	2606.84	2349.75	1472.1
987.4128	2608.1237	2341.2	1464.75
987.5379	2609.4067	2335.65	1457
987.6629	2610.689	2330.15	1442.85
987.788	2611.9707	2320	1439.65
987.913	2613.2516	2312.3	1431.15
988.0379	2614.5319	2308.65	1432.45
988.1629	2615.8115	2300.75	1423.3
988.2878	2617.0903	2302.5	1424
988.4126	2618.3685	2296.55	1417.35
988.5375	2619.6461	2282.1	1404
988.6622	2620.9229	2288	1412.6
988.787	2622.199	2278.5	1400.1
988.9117	2623.4745	2262.6	1384.75
989.0364	2624.7493	2259.5	1381.75
989.161	2626.0234	2257.15	1380.85
989.2857	2627.2968	2254.1	1378.5
989.4102	2628.5695	2252.8	1374.3
989.5348	2629.8415	2242.1	1364.85
989.6593	2631.1128	2235.1	1357.4
989.7837	2632.3835	2228.95	1351.9
989.9082	2633.6535	2212.75	1336
990.0326	2634.9228	2212.55	1335.05
990.1569	2636.1914	2215.5	1336.4
990.2812	2637.4593	2213.85	1331.45
990.4055	2638.7265	2203.85	1327
990.5298	2639.9931	2193.05	1315.6
990.654	2641.259	2189.9	1309.5
990.7782	2642.5242	2178.2	1302.4
990.9023	2643.7887	2169.9	1292.1
991.0264	2645.0525	2184.4	1306.8
991.1505	2646.3156	2176.75	1298.5
991.2745	2647.5781	2162.2	1285.75
991.3985	2648.8398	2167.95	1289.8
991.5225	2650.1009	2156.15	1269.75
991.6464	2651.3613	2151.25	1273.25
991.7703	2652.6211	2147.85	1270.05
991.8942	2653.8801	2135.6	1258.95
992.018	2655.1385	2139.25	1257.25
992.1418	2656.3961	2138.15	1259.85
992.2655	2657.6531	2131.35	1254.8
992.3892	2658.9094	2128.9	1250.45
992.5129	2660.1651	2124.7	1247.95
992.6366	2661.42	2118.8	1241.55
992.7602	2662.6743	2118.95	1240.35
992.8837	2663.9279	2111.45	1233.9
993.0073	2665.1808	2110.2	1231.9
993.1307	2666.433	2110.1	1229.95
993.2542	2667.6846	2107	1230.9
993.3776	2668.9354	2094.65	1214.15
993.501	2670.1856	2088.2	1210.05
993.6244	2671.4351	2094.5	1217.8
993.7477	2672.6839	2088.2	1208.6
993.8709	2673.9321	2078.7	1202.25
993.9942	2675.1795	2066.45	1189.4
994.1174	2676.4263	2072.85	1195
994.2405	2677.6724	2059.25	1182.25
994.3637	2678.9179	2067.9	1190.7
994.4868	2680.1626	2054.15	1177.3
994.6098	2681.4067	2059.55	1183.8
994.7328	2682.6501	2043.25	1165.7
994.8558	2683.8928	2041.35	1163.6
994.9788	2685.1348	2037.3	1161.95
995.1017	2686.3761	2021.85	1144.65
995.2245	2687.6168	2030.25	1153.05
995.3474	2688.8568	2022.5	1145.7
995.4702	2690.0961	2012.9	1138.3
995.5929	2691.3348	2014.45	1137.2
995.7156	2692.5727	2015.6	1137.05
995.8383	2693.81	2003.45	1126.4
995.961	2695.0466	1993.35	1117.5
996.0836	2696.2826	1992.8	1113.5
996.2062	2697.5178	1997.05	1115.45
996.3287	2698.7524	1997.55	1119.95
996.4512	2699.9863	1995.95	1117.8
996.5737	2701.2195	1986.7	1111.5
996.6961	2702.452	1988.35	1109.1
996.8185	2703.6839	1987.55	1108.45
996.9408	2704.9151	1974.8	1098.9
997.0631	2706.1456	1967.55	1090.2
997.1854	2707.3755	1952.1	1073.25
997.3077	2708.6046	1969.5	1091.6
997.4299	2709.8331	1954.35	1076.85
997.552	2711.0609	1950.1	1071.9
997.6742	2712.2881	1950.05	1073.05
997.7963	2713.5145	1945.8	1064.95
997.9183	2714.7403	1932.45	1057.85
998.0403	2715.9654	1926.95	1048.9
998.1623	2717.1899	1946.45	1052.6
998.2842	2718.4136	1935.85	1059
998.4062	2719.6367	1925.75	1048.85
998.528	2720.8591	1924.95	1041.2
998.6498	2722.0809	1921.85	1044.25
998.7716	2723.3019	1915.85	1033.15
998.8934	2724.5223	1911.55	1030.8
999.0151	2725.7421	1904.75	1025.3
999.1368	2726.9611	1900.65	1022.05
999.2584	2728.1795	1896.1	1014.2
999.38	2729.3972	1888.1	1012.35
999.5016	2730.6142	1903.5	1015
999.6231	2731.8306	1879.5	1000.5
999.7446	2733.0462	1880.25	999.7
999.8661	2734.2612	1870.5	988.85
999.9875	2735.4756	1865.85	987.8
1000.1089	2736.6892	1858.9	982.45
1000.2302	2737.9022	1850.9	973.65
1000.3515	2739.1145	1843.5	966.8
1000.4728	2740.3262	1847.05	962.75
1000.594	2741.5372	1840.7	965.75
1000.7152	2742.7475	1830.5	953.7
1000.8363	2743.9571	1835.65	955.9
1000.9575	2745.1661	1827.5	944.8
1001.0785	2746.3744	1822.9	946.75
1001.1996	2747.582	1811.45	935.1
1001.3206	2748.7889	1812.55	934.45
1001.4415	2749.9952	1811.75	932.65
1001.5625	2751.2008	1807.75	930.75
1001.6833	2752.4057	1806.05	928.35
1001.8042	2753.61	1798.8	920.35
1001.925	2754.8136	1798	919.25
1002.0458	2756.0165	1785.35	908.25
1002.1665	2757.2188	1788.05	910.7
1002.2872	2758.4204	1781.25	904.25
1002.4078	2759.6213	1779.25	898.7
1002.5285	2760.8215	1789.2	909.9
1002.649	2762.0211	1766.8	888.1
1002.7696	2763.22	1777.4	896.65
1002.8901	2764.4182	1763.85	885.45
1003.0106	2765.6158	1764.55	886.7
1003.131	2766.8127	1757.3	880.2
1003.2514	2768.009	1748.1	870.75
1003.3717	2769.2045	1740.45	863.25
1003.492	2770.3994	1743.9	866.4
1003.6123	2771.5936	1741.55	863.7
1003.7325	2772.7872	1739.3	862.6
1003.8527	2773.9801	1732.45	852.85
1003.9729	2775.1723	1748.9	856.1
1004.093	2776.3639	1730.9	855.95
1004.2131	2777.5548	1718.9	839.4
1004.3331	2778.745	1722.25	841.45
1004.4531	2779.9346	1716	841.05
1004.5731	2781.1235	1721.7	842.6
1004.693	2782.3117	1702.45	826.1
1004.8129	2783.4992	1705.75	827.9
1004.9328	2784.6861	1704.75	826.5
1005.0526	2785.8723	1701.85	822.2
1005.1723	2787.0579	1700.85	821.5
1005.2921	2788.2428	1693.85	818.1
1005.4118	2789.427	1692.1	816.05
1005.5314	2790.6106	1693.45	817.4
1005.651	2791.7935	1688.45	810.4
1005.7706	2792.9757	1683.95	807.7
1005.8902	2794.1573	1683.15	803.65
1006.0097	2795.3382	1672.45	795.05
1006.1291	2796.5184	1671.35	795.25
1006.2485	2797.698	1663.95	788.3
1006.3679	2798.8769	1670.05	794.2
1006.4873	2800.0551	1654	777
1006.6066	2801.2327	1657.75	779.65
1006.7258	2802.4096	1645.8	771.45
1006.8451	2803.5859	1643.7	765.5
1006.9642	2804.7615	1642.65	763.6
1007.0834	2805.9364	1649.55	773.1
1007.2025	2807.1106	1649.5	773.25
1007.3216	2808.2842	1645.85	766.15
1007.4406	2809.4572	1635.55	759.35
1007.5596	2810.6294	1638.4	760.25
1007.6785	2811.801	1635.95	759.85
1007.7975	2812.972	1631.05	756.15
1007.9163	2814.1423	1637.35	760.65
1008.0352	2815.3119	1632.4	755.5
1008.154	2816.4808	1638.45	762.4
1008.2727	2817.6491	1632.3	752.65
1008.3914	2818.8167	1643.2	768.5
1008.5101	2819.9837	1642.9	760.25
1008.6288	2821.15	1637.85	761.55
1008.7474	2822.3157	1645	768.4
1008.8659	2823.4807	1652.8	776.4
1008.9844	2824.645	1662.3	784.05
1009.1029	2825.8086	1661.55	783.95
1009.2214	2826.9716	1672.75	796.6
1009.3398	2828.134	1678.05	801.4
1009.4581	2829.2957	1680.85	803.6
1009.5764	2830.4567	1687.9	811.55
1009.6947	2831.617	1687.15	809.9
1009.813	2832.7767	1697.3	821.3
1009.9312	2833.9358	1699.3	822.25
1010.0493	2835.0941	1691.55	810.95
1010.1675	2836.2519	1680.95	805.55
1010.2855	2837.4089	1676.7	797.65
1010.4036	2838.5653	1674.3	798
1010.5216	2839.7211	1666.7	790
1010.6396	2840.8761	1665.4	786.1
1010.7575	2842.0306	1655.95	780.65
1010.8754	2843.1843	1659.6	784.2
1010.9932	2844.3374	1655.4	779.65
1011.111	2845.4899	1648.25	770.05
1011.2288	2846.6417	1650	772.45
1011.3465	2847.7928	1642.25	765.55
1011.4642	2848.9433	1652.75	775.65
1011.5818	2850.0931	1652.4	775.2
1011.6995	2851.2422	1659.4	782.55
1011.817	2852.3907	1651.9	773.5
1011.9345	2853.5385	1651.4	774.45
1012.052	2854.6857	1655.45	770.55
1012.1695	2855.8323	1647.45	771.7
1012.2869	2856.9781	1657.25	779.1
1012.4042	2858.1233	1649.6	772.5
1012.5216	2859.2679	1650.95	775.8
1012.6389	2860.4118	1657.55	778.95
1012.7561	2861.555	1662.4	779.4
1012.8733	2862.6976	1652.65	775.2
1012.9905	2863.8395	1658.9	781.95
1013.1076	2864.9808	1659.8	782.65
1013.2247	2866.1214	1663.4	787.35
1013.3417	2867.2614	1657.8	782.35
1013.4587	2868.4007	1658.5	780.15
1013.5757	2869.5393	1654.55	776.3
1013.6926	2870.6773	1652.45	773.05
1013.8095	2871.8146	1656.75	776.8
1013.9263	2872.9513	1653.6	774.5
1014.0431	2874.0874	1653.2	777.65
1014.1599	2875.2227	1657.25	780
1014.2766	2876.3574	1659.15	782.4
1014.3933	2877.4915	1647.25	769.45
1014.51	2878.6249	1650.85	776.45
1014.6266	2879.7577	1653.75	775.75
1014.7431	2880.8898	1657.15	771.7
1014.8596	2882.0212	1649.85	774.05
1014.9761	2883.152	1655.5	775.95
1015.0925	2884.2821	1650.6	776.1
1015.2089	2885.4116	1654.25	778.2
1015.3253	2886.5405	1647.9	771.2
1015.4416	2887.6686	1651.45	771.95
1015.5579	2888.7962	1641.45	766.9
1015.6741	2889.923	1646.1	770
1015.7903	2891.0493	1636.25	762.4
1015.9065	2892.1748	1633.5	755.45
1016.0226	2893.2997	1640.85	764.85
1016.1387	2894.424	1627.85	752.55
1016.2547	2895.5476	1627.7	750.4
1016.3707	2896.6706	1626.5	748.9
1016.4866	2897.7929	1621.45	744.35
1016.6025	2898.9145	1622.6	744
1016.7184	2900.0355	1617.8	742.65
1016.8342	2901.1559	1620.8	742.9
1016.95	2902.2756	1617.75	741.2
1017.0658	2903.3946	1608.65	732.25
1017.1815	2904.513	1608.5	728.25
1017.2971	2905.6308	1614.25	737.5
1017.4127	2906.7479	1599.6	721.95
1017.5283	2907.8643	1599.1	721.5
1017.6439	2908.9801	1595.55	719.55
1017.7594	2910.0953	1600.9	725.4
1017.8748	2911.2098	1598	720.35
1017.9902	2912.3236	1600.3	716.75
1018.1056	2913.4368	1591.4	712
1018.2209	2914.5494	1584.25	705.05
1018.3362	2915.6613	1579.55	696.35
1018.4515	2916.7725	1576.5	698.4
1018.5667	2917.8831	1571.6	692.2
1018.6819	2918.9931	1565.4	686.85
1018.797	2920.1024	1565.7	687.7
1018.9121	2921.211	1552.65	674.35
1019.0271	2922.319	1553.5	675.6
1019.1421	2923.4264	1543.1	666.45
1019.2571	2924.5331	1549.8	675.4
1019.372	2925.6391	1533.05	656.1
1019.4869	2926.7445	1548.75	673.45
1019.6017	2927.8493	1542.85	664.4
1019.7165	2928.9534	1536.2	659.8
1019.8313	2930.0569	1542.45	662.9
1019.946	2931.1597	1538.3	662.25
1020.0606	2932.2619	1545.45	667.25
1020.1753	2933.3634	1537	660.95
1020.2899	2934.4643	1546.15	662.75
1020.4044	2935.5645	1549.15	668.5
1020.5189	2936.6641	1537.9	657.55
1020.6334	2937.763	1535.7	660.5
1020.7478	2938.8613	1532.7	655.75
1020.8622	2939.959	1536.2	655.55
1020.9765	2941.056	1521.45	645.8
1021.0908	2942.1523	1516	637.4
1021.2051	2943.248	1501.4	624.1
1021.3193	2944.3431	1490.8	613.75
1021.4334	2945.4375	1480.1	602.05
1021.5476	2946.5313	1468.85	594.15
1021.6617	2947.6244	1453.95	578.1
1021.7757	2948.7169	1445.85	568.85
1021.8897	2949.8087	1433.55	556.15
1022.0037	2950.8999	1422.65	545
1022.1176	2951.9904	1414.1	537.3
1022.2315	2953.0803	1403.6	527.4
1022.3453	2954.1696	1408.3	530.9
1022.4591	2955.2582	1394.85	518
1022.5728	2956.3462	1398.9	521.85
1022.6865	2957.4335	1386.7	509.25
1022.8002	2958.5202	1383.7	505.5
1022.9138	2959.6062	1386.45	510.7
1023.0274	2960.6916	1381	504.5
1023.141	2961.7764	1380.85	503.3
1023.2545	2962.8605	1374.75	498
1023.3679	2963.9439	1374.55	498.55
1023.4813	2965.0267	1369.95	491
1023.5947	2966.1089	1391.1	490.7
1023.708	2967.1905	1363.8	486.1
1023.8213	2968.2714	1366	489.2
1023.9346	2969.3516	1354.5	479.1
1024.0478	2970.4312	1367.35	482.05
1024.1609	2971.5102	1354.3	478.6
1024.274	2972.5885	1353.85	478
1024.3871	2973.6662	1357.55	475.45
1024.5002	2974.7432	1354.05	477.75
1024.6132	2975.8196	1350.85	474.75
1024.7261	2976.8954	1344.1	468.8
1024.839	2977.9705	1343.6	466.6
1024.9519	2979.045	1344.25	466.35
1025.0647	2980.1188	1340.4	463.2
1025.1775	2981.192	1334.2	457.95
1025.2902	2982.2645	1331	454.25
1025.4029	2983.3364	1336.1	459.85
1025.5156	2984.4077	1330.3	454.8
1025.6282	2985.4783	1330.75	448.4
1025.7407	2986.5483	1323.1	448.2
1025.8532	2987.6177	1315.15	440.6
1025.9657	2988.6864	1306.8	429.8
1026.0782	2989.7545	1309.7	428.65
1026.1906	2990.8219	1300.45	425.9
1026.3029	2991.8887	1303.65	423.05
1026.4152	2992.9548	1292.35	414.15
1026.5275	2994.0204	1290.6	413.3
1026.6397	2995.0852	1278.75	403.15
1026.7519	2996.1495	1279.5	401.85
1026.864	2997.2131	1274.05	397.6
1026.9761	2998.276	1270.4	394.25
1027.0882	2999.3383	1266.3	390.25
1027.2002	3000.4	1261.2	383.7
1027.3122	3001.4611	1261.6	384.6
1027.4241	3002.5215	1254.3	377.4
1027.536	3003.5812	1251.45	374.95
1027.6478	3004.6404	1251.65	376.4
1027.7596	3005.6989	1257.55	379.05
1027.8714	3006.7567	1241.9	366.65
1027.9831	3007.8139	1261	360.4
1028.0947	3008.8705	1238	362.6
1028.2064	3009.9264	1241.4	360.25
1028.3179	3010.9818	1232.5	357.3
1028.4295	3012.0364	1239.9	362.25
1028.541	3013.0905	1230.9	354.2
1028.6524	3014.1439	1227.4	351.75
1028.7638	3015.1966	1229	352.45
1028.8752	3016.2487	1224.35	346.65
1028.9865	3017.3002	1228.25	350.1
1029.0978	3018.3511	1218.9	345.7
1029.209	3019.4013	1223.2	347.85
1029.3202	3020.4509	1224.95	349.3
1029.4314	3021.4998	1224.2	349.45
1029.5425	3022.5481	1218.85	342.35
1029.6535	3023.5958	1219.25	343.05
1029.7645	3024.6428	1213.75	335.5
1029.8755	3025.6892	1210.75	334.7
1029.9864	3026.735	1210.7	332.8
1030.0973	3027.7802	1204.3	328.6
1030.2082	3028.8247	1203.15	327.25
1030.319	3029.8685	1211.05	334.5
1030.4297	3030.9118	1208.95	333.1
1030.5404	3031.9544	1209.35	334.5
1030.6511	3032.9963	1205.1	328.25
1030.7617	3034.0376	1198.8	323.4
1030.8723	3035.0783	1200.3	320.7
1030.9829	3036.1184	1199.05	322.65
1031.0934	3037.1578	1201.1	327.05
1031.2038	3038.1966	1199.85	324.15
1031.3142	3039.2348	1193.4	318.6
1031.4246	3040.2723	1204.85	319.4
1031.5349	3041.3092	1192.7	317.95
1031.6452	3042.3455	1188.35	310.45
1031.7554	3043.3811	1189.7	313.4
1031.8656	3044.4161	1189.05	310.65
1031.9758	3045.4505	1186.05	308.95
1032.0859	3046.4842	1189.5	313.3
1032.1959	3047.5173	1181.9	304.9
1032.3059	3048.5498	1184.4	308.35
1032.4159	3049.5816	1186.35	309.25
1032.5258	3050.6128	1180.3	301.95
1032.6357	3051.6434	1184.7	307.7
1032.7455	3052.6734	1177.45	298
1032.8553	3053.7027	1179.5	302
1032.9651	3054.7314	1179.7	304.45
1033.0748	3055.7594	1176.2	300.4
1033.1845	3056.7868	1181.9	304.75
1033.2941	3057.8136	1169.1	293.5
1033.4037	3058.8398	1176.55	301.05
1033.5132	3059.8653	1170.1	292.85
1033.6227	3060.8902	1171.5	294.75
1033.7321	3061.9145	1169.05	291.95
1033.8415	3062.9381	1170.35	294.1
1033.9509	3063.9612	1185.1	293.1
1034.0602	3064.9835	1166.4	290.45
1034.1694	3066.0053	1166.95	287.4
1034.2787	3067.0264	1161.7	286.05
1034.3878	3068.0469	1167.75	290.35
1034.497	3069.0668	1171.8	291.6
1034.6061	3070.086	1167.95	293.15
1034.7151	3071.1046	1168.45	290.85
1034.8241	3072.1226	1162.4	282.5
1034.9331	3073.1399	1160.9	285.2
1035.042	3074.1567	1156.4	280.25
1035.1508	3075.1727	1157.85	280.2
1035.2597	3076.1882	1156.5	278.8
1035.3684	3077.203	1152.15	277
1035.4772	3078.2173	1151.75	273.95
1035.5859	3079.2308	1150.85	273.4
1035.6945	3080.2438	1148.25	268
1035.8031	3081.2561	1146.8	271.4
1035.9117	3082.2678	1144.65	268.15
1036.0202	3083.2789	1140.15	262.2
1036.1286	3084.2893	1143.4	268.4
1036.2371	3085.2991	1133.35	255.65
1036.3454	3086.3083	1142.8	264.25
1036.4538	3087.3169	1136.95	257.65
1036.562	3088.3248	1136.65	258.8
1036.6703	3089.3321	1132.15	254.1
1036.7785	3090.3388	1134.5	258.35
1036.8866	3091.3449	1128.7	251.55
1036.9948	3092.3503	1132.3	253.25
1037.1028	3093.3551	1127.95	253.3
1037.2108	3094.3593	1125.9	249.3
1037.3188	3095.3629	1128.75	253.55
1037.4267	3096.3658	1126.45	248.9
1037.5346	3097.3681	1129.2	254.05
1037.6425	3098.3698	1123.15	244.6
1037.7503	3099.3708	1130.45	245.9
1037.858	3100.3713	1116.65	241.5
1037.9657	3101.3711	1117.15	240.5
1038.0734	3102.3702	1250	239.1
1038.181	3103.3688	1116.05	239.2
1038.2886	3104.3667	1104.55	229.25
1038.3961	3105.364	1110.95	233.95
1038.5036	3106.3607	1114.65	237.55
1038.611	3107.3568	1112	234.2
1038.7184	3108.3522	1104.65	231.15
1038.8257	3109.347	1103.85	226.7
1038.933	3110.3412	1109.55	228.25
1039.0403	3111.3348	1105.4	229.3
1039.1475	3112.3277	1094.9	219.7
1039.2547	3113.32	1097.65	220.35
1039.3618	3114.3117	1096.6	218.7
1039.4689	3115.3028	1095.85	221.1
1039.5759	3116.2932	1101.85	223.45
1039.6829	3117.2831	1102.2	221
1039.7898	3118.2723	1093.85	218.9
1039.8967	3119.2608	1092.9	217
1040.0035	3120.2488	1092.9	217.8
1040.1103	3121.2361	1087.65	211.15
1040.2171	3122.2229	1090.6	214.25
1040.3238	3123.209	1085.3	208.6
1040.4305	3124.1944	1083.05	207.25
1040.5371	3125.1793	1092.05	215.25
1040.6437	3126.1635	1085.5	210.5
1040.7502	3127.1471	1081.4	205.35
1040.8567	3128.1301	1081.9	207.7
1040.9631	3129.1125	1085.35	206.85
1041.0695	3130.0942	1085.15	209.7
1041.1759	3131.0753	1087.25	202.95
1041.2822	3132.0558	1077.5	198.55
1041.3884	3133.0357	1080.65	202.2
1041.4946	3134.015	1072.75	198.05
1041.6008	3134.9936	1076.5	199.1
1041.7069	3135.9716	1095.75	198.65
1041.813	3136.949	1073.3	196.3
1041.919	3137.9258	1077.1	194.55
1042.025	3138.902	1073.65	192.9
1042.1309	3139.8775	1067.8	190.65
1042.2368	3140.8524	1067.15	192
1042.3427	3141.8267	1066	186.6
1042.4485	3142.8004	1068.1	188.65
1042.5542	3143.7735	1070.7	188.5
1042.6599	3144.7459	1069.9	194.65
1042.7656	3145.7178	1065.65	188.1
1042.8712	3146.689	1064.6	190.45
1042.9768	3147.6596	1067.85	192.05
1043.0823	3148.6295	1063.25	185.4
1043.1878	3149.5989	1060.95	184.85
1043.2932	3150.5676	1060.85	186.5
1043.3986	3151.5357	1058.6	182.5
1043.5039	3152.5032	1057	180.75
1043.6092	3153.4701	1059.6	183.85
1043.7145	3154.4364	1063.2	185.95
1043.8197	3155.402	1052.3	176.6
1043.9248	3156.367	1060.8	183
1044.03	3157.3315	1094.25	180.5
1044.135	3158.2952	1051.05	175.95
1044.24	3159.2584	1049.95	172.15
1044.345	3160.221	1054.2	177.4
1044.4499	3161.1829	1052.1	174.65
1044.5548	3162.1442	1048.3	173.9
1044.6596	3163.105	1049.65	173.25
1044.7644	3164.065	1047.85	171.75
1044.8692	3165.0245	1048	169.8
1044.9739	3165.9834	1043.8	167.05
1045.0785	3166.9416	1038.6	162.55
1045.1831	3167.8993	1042.45	167.8
1045.2877	3168.8563	1042.1	165.1
1045.3922	3169.8127	1039.35	165
1045.4966	3170.7684	1039.65	162.85
1045.6011	3171.7236	1041.45	163.05
1045.7054	3172.6782	1039.3	161.15
1045.8098	3173.6321	1041.75	164.25
1045.914	3174.5854	1043.05	161.6
1046.0183	3175.5381	1036.9	162.2
1046.1224	3176.4902	1032.1	156.85
1046.2266	3177.4417	1032.5	157.5
1046.3307	3178.3926	1034.3	158.95
1046.4347	3179.3428	1030.7	155.7
1046.5387	3180.2924	1033.15	157.15
1046.6427	3181.2415	1028.05	153.2
1046.7466	3182.1899	1033.15	156.15
1046.8504	3183.1377	1029.4	153.2
1046.9542	3184.0848	1030.4	150.55
1047.058	3185.0314	1026.8	151.45
1047.1617	3185.9773	1028.65	151.15
1047.2654	3186.9227	1026.35	151.05
1047.369	3187.8674	1026.5	147.45
1047.4726	3188.8115	1029.65	150.1
1047.5761	3189.755	1023.4	148.85
1047.6796	3190.6979	1022.55	146.2
1047.783	3191.6402	1021.1	147.15
1047.8864	3192.5818	1019.95	143.4
1047.9898	3193.5229	1028.25	146.15
1048.0931	3194.4633	1019.05	144.4
1048.1963	3195.4031	1017.95	140.55
1048.2995	3196.3423	1018.3	143.05
1048.4027	3197.2809	1016.45	140.45
1048.5058	3198.2189	1017.75	141.9
1048.6089	3199.1563	1020.3	137.85
1048.7119	3200.0931	1015.15	138.35
1048.8148	3201.0292	1012.55	138.55
1048.9178	3201.9648	1013.2	137.55
1049.0206	3202.8997	1022.75	144.05
1049.1235	3203.834	1013.25	138.15
1049.2262	3204.7677	1012.3	135.8
1049.329	3205.7008	1011.1	131.55
1049.4317	3206.6333	1008.9	133
1049.5343	3207.5652	1014.7	134.8
1049.6369	3208.4964	1008.45	132
1049.7394	3209.4271	1008.55	131.75
1049.8419	3210.3571	1007.4	132.35
1049.9444	3211.2865	1006.4	130.35
1050.0468	3212.2154	1008.55	131.95
1050.1491	3213.1436	1007.75	129.9
1050.2514	3214.0712	1011.45	126.2
1050.3537	3214.9982	1007.25	130.85
1050.4559	3215.9246	1005	127.75
1050.5581	3216.8503	1002.65	125.95
1050.6602	3217.7755	999.65	123.15
1050.7623	3218.7001	1002.25	125.6
1050.8643	3219.624	1002.55	125.65
1050.9663	3220.5473	998.7	121.9
1051.0682	3221.4701	1000.3	123.3
1051.1701	3222.3922	1002.45	125.1
1051.2719	3223.3137	998.25	121.55
1051.3737	3224.2346	997.6	123.2
1051.4754	3225.1549	995.75	119.4
1051.5771	3226.0746	995	116.8
1051.6788	3226.9937	996.65	118.75
1051.7804	3227.9121	995.35	120.6
1051.8819	3228.83	995.65	120
1051.9834	3229.7473	998.5	122.25
1052.0849	3230.6639	992.1	116.65
1052.1863	3231.5799	991.9	116.65
1052.2876	3232.4954	988.25	110.6
1052.3889	3233.4102	991.4	114.45
1052.4902	3234.3244	990.9	113
1052.5914	3235.238	987.8	113
1052.6926	3236.151	1012.35	112.9
1052.7937	3237.0634	990.05	114.75
1052.8948	3237.9752	986.4	109.75
1052.9958	3238.8864	985.35	110.1
1053.0968	3239.797	983.65	106.3
1053.1977	3240.7069	982.45	103.75
1053.2986	3241.6163	987.15	109.85
1053.3994	3242.5251	982.95	106.35
1053.5002	3243.4332	982.35	107.3
1053.6009	3244.3408	983.6	106.25
1053.7016	3245.2477	981.4	105.5
1053.8022	3246.154	983.8	107.15
1053.9028	3247.0598	985.55	107.85
1054.0034	3247.9649	981.65	106.05
1054.1039	3248.8694	980.15	103.1
1054.2043	3249.7733	976.3	100.9
1054.3047	3250.6766	978.35	102.5
1054.4051	3251.5793	979.3	102.35
1054.5054	3252.4814	978.45	103.8
1054.6056	3253.3829	974.15	97.9
1054.7058	3254.2838	974.55	98.9
1054.806	3255.1841	975	98.3
1054.9061	3256.0838	971.2	94.15
1055.0061	3256.9829	969.6	94.35
1055.1062	3257.8814	974	95.95
1055.2061	3258.7792	972.9	95.3
1055.306	3259.6765	971.75	94.3
1055.4059	3260.5731	970.1	94.05
1055.5057	3261.4692	971.25	94.2
1055.6055	3262.3647	967.35	91.55
1055.7052	3263.2595	961.6	84.5
1055.8049	3264.1538	964.8	89.15
1055.9045	3265.0474	965.8	88.45
1056.0041	3265.9404	963.35	87.2
1056.1036	3266.8329	959.25	84.95
1056.2031	3267.7247	968.7	82.1
1056.3025	3268.616	955.7	80.95
1056.4019	3269.5066	956.95	79.9
1056.5013	3270.3966	955.05	77.4
1056.6005	3271.286	951.5	75.65
