Software Version:	3.9.2.0
Unit SN:	10000200
Spectrometer SN:	6960
Date:	3/6/2024 10:05:58 AM
Data Line Index:	25
Spectral Points:	2048
Integration time (ms):	125
Averages:	20
Delay (ms):	30
Sequence Number:	1
Processing:	dark subtract
Laser Power (mW):	300
Laser Current (mA):	825
Laser Diode Temp (C):	25
Laser Case Temp (C):	24.8
System Temp (C):	24.6
Spectrometer Temp (C):	22.1
CCD Temp (C):	0.009
Secondary Temp (C):	20.008
Heatsink Temp (C):	18.524
CCDPCB Temp (C):	30.893
SecondaryPCB Temp (C):	26.036

Wavelength	RamanShift	Raw Counts	Dark Subtracted
787.061	30.1047	686.95	278.55
787.2016	32.3739	705.15	299.05
787.3422	34.6426	720.75	313.8
787.4828	36.9109	741.35	331.1
787.6235	39.1787	763.55	351.2
787.7642	41.4461	787.05	369.7
787.9049	43.7131	811.8	390.25
788.0456	45.9796	846.05	421.1
788.1863	48.2456	868.6	442.2
788.3271	50.5112	898.05	466.4
788.4679	52.7764	923.6	488.95
788.6087	55.0411	963.55	525.4
788.7496	57.3054	996.05	551.65
788.8904	59.5692	1027.85	581.55
789.0313	61.8326	1076.8	626.55
789.1722	64.0955	1112.7	662.45
789.3132	66.3579	1175.3	718.3
789.4541	68.6199	1233.2	773
789.5951	70.8815	1353.2	887.8
789.7361	73.1426	1605.6	1136.15
789.8771	75.4032	2227.85	1757.4
790.0181	77.6634	3838.9	3363.95
790.1592	79.9231	7830.35	7350.55
790.3003	82.1824	18171.45	17679.15
790.4414	84.4412	39012.55	38502.95
790.5825	86.6995	51598.35	51069.95
790.7237	88.9574	57867.1	57322.3
790.8648	91.2148	61221.55	60668
791.006	93.4717	62007.05	61439.5
791.1472	95.7282	62386.55	61815.95
791.2885	97.9842	62572	61997.4
791.4297	100.2398	62586	62009.25
791.571	102.4949	62570.7	61993.15
791.7123	104.7495	62577.45	61996.15
791.8536	107.0036	62507.35	61921.35
791.9949	109.2573	62662.7	62080.9
792.1363	111.5105	62545	61962
792.2777	113.7632	62619.1	62032.5
792.4191	116.0154	62700.55	62101.7
792.5605	118.2672	62793.65	62200.95
792.7019	120.5185	62802.65	62211.1
792.8434	122.7693	62814.6	62217.65
792.9849	125.0197	62657.2	62054.45
793.1264	127.2696	62996.3	62391.95
793.2679	129.519	62929.3	62321.55
793.4094	131.7679	63082.25	62469.1
793.551	134.0163	62746.4	62131.8
793.6926	136.2642	62876.05	62259.25
793.8342	138.5117	63080	62456.3
793.9758	140.7587	63002.95	62383.45
794.1175	143.0052	63000.6	62377.05
794.2591	145.2512	62843.9	62220.5
794.4008	147.4967	63079.05	62451.95
794.5425	149.7417	63031.6	62405.8
794.6842	151.9863	63028.9	62394
794.826	154.2304	62917.2	62280.3
794.9677	156.4739	62988.85	62345.75
795.1095	158.717	63143.15	62501.05
795.2513	160.9596	63037.6	62391.05
795.3931	163.2017	62894.75	62244.55
795.535	165.4433	63055.65	62404.45
795.6768	167.6844	62977.7	62322.5
795.8187	169.925	63092	62435.5
795.9606	172.1651	62956.75	62298.7
796.1025	174.4047	63043.8	62382.1
796.2445	176.6439	63021	62359.15
796.3864	178.8825	62983.05	62318.25
796.5284	181.1206	63144.4	62469.65
796.6704	183.3582	63120.45	62442.95
796.8124	185.5954	63058.75	62377.85
796.9544	187.832	63073	62394.1
797.0965	190.0681	62955.9	62273.25
797.2386	192.3037	63166.35	62479.55
797.3806	194.5388	63385.15	62697.3
797.5228	196.7734	62876.15	62187.95
797.6649	199.0075	63378.65	62683.6
797.807	201.2411	63178.25	62481.5
797.9492	203.4742	63489.95	62791.85
798.0914	205.7068	63405.55	62702.65
798.2336	207.9389	63389.3	62686.8
798.3758	210.1704	63352.45	62655.2
798.518	212.4015	63561.85	62877.5
798.6603	214.632	63317.45	62636
798.8025	216.862	63576.45	62899.75
798.9448	219.0915	63443.7	62763
799.0871	221.3205	63416.85	62729.25
799.2294	223.549	63664.15	62985.6
799.3718	225.777	63619.5	62939.1
799.5141	228.0044	63724.25	63036.15
799.6565	230.2314	63629.75	62940.7
799.7989	232.4578	63635.65	62941.85
799.9413	234.6837	63682.25	62981.85
800.0837	236.909	64056.7	63353.65
800.2262	239.1339	63515.1	62787.65
800.3687	241.3582	63763.7	63049.9
800.5111	243.582	63805.4	63063.5
800.6536	245.8053	63767.9	63039.1
800.7961	248.0281	63817.9	63092.65
800.9387	250.2503	63897.25	63166.45
801.0812	252.472	63697	62967.45
801.2238	254.6932	63851.05	63119.35
801.3664	256.9139	63746.35	63013.35
801.509	259.134	64078.25	63343.3
801.6516	261.3536	63728.6	62997.15
801.7942	263.5727	63914.4	63179.1
801.9369	265.7912	63818.9	63084.75
802.0795	268.0092	63870.9	63133.6
802.2222	270.2267	63927.75	63193.2
802.3649	272.4436	63768.9	63029.65
802.5076	274.6601	63939.55	63194.35
802.6504	276.8759	63997.7	63252.1
802.7931	279.0913	63895.85	63152.75
802.9359	281.3061	63956.85	63207.25
803.0787	283.5204	63941.4	63192.55
803.2215	285.7341	63933.05	63180.8
803.3643	287.9473	64069.5	63302.05
803.5071	290.16	63958.1	63201.1
803.6499	292.3721	64023.65	63277.1
803.7928	294.5837	63915.8	63162.75
803.9357	296.7947	63819.5	63068.55
804.0786	299.0052	64085.7	63329.15
804.2215	301.2152	63989.1	63234.85
804.3644	303.4246	64072.35	63322.2
804.5074	305.6334	64066.15	63310.55
804.6503	307.8418	63904.2	63148.3
804.7933	310.0495	63896.6	63137.55
804.9363	312.2568	63896.3	63140.1
805.0793	314.4635	63906.65	63144.2
805.2223	316.6696	64007.15	63241.5
805.3653	318.8752	64075.65	63299.15
805.5084	321.0802	63719.5	62952.55
805.6514	323.2847	63906.05	63138.7
805.7945	325.4887	63870.9	63104.2
805.9376	327.692	63793.05	63024
806.0807	329.8949	63887.5	63114.75
806.2238	332.0972	63820.1	63045.65
806.367	334.2989	63911.35	63135.7
806.5101	336.5001	64009.1	63230.25
806.6533	338.7007	63751.8	62974.5
806.7965	340.9008	63899.2	63121.05
806.9397	343.1003	63918.8	63138.55
807.0829	345.2992	64016.45	63235.2
807.2261	347.4976	63863.65	63083.85
807.3693	349.6955	63947.4	63157.8
807.5126	351.8927	63850.2	63063.1
807.6559	354.0895	63966	63165.7
807.7991	356.2856	63939.65	63150.45
807.9424	358.4812	64033.45	63245.7
808.0857	360.6763	63802.7	63012.1
808.2291	362.8707	64035.05	63240.3
808.3724	365.0646	63908.05	63111.85
808.5158	367.258	63911.2	63111.85
808.6591	369.4508	63764.45	62964.75
808.8025	371.643	63978.35	63177.15
808.9459	373.8346	63881.2	63078.5
809.0893	376.0257	63927.3	63121.55
809.2327	378.2162	63855.4	63051.1
809.3762	380.4062	63662.65	62861.15
809.5196	382.5956	63856.1	63053.15
809.6631	384.7844	63852.35	63054
809.8066	386.9726	63942.3	63143.1
809.9501	389.1603	63894.15	63095.55
810.0936	391.3474	63776.55	62939.65
810.2371	393.5339	63902.35	63102.9
810.3806	395.7199	63656.15	62861.05
810.5241	397.9052	63720.95	62928.85
810.6677	400.09	63784.15	62986.45
810.8113	402.2743	63931.45	63132.25
810.9548	404.4579	63737.15	62935.5
811.0984	406.641	63752.85	62949.15
811.2421	408.8235	63797.75	62992.95
811.3857	411.0054	63832.2	63027.75
811.5293	413.1868	63880.75	63072.7
811.673	415.3675	63800.25	62984.4
811.8166	417.5477	63801.15	62989.9
811.9603	419.7273	63795.9	62981.7
812.104	421.9064	63766.85	62942.7
812.2477	424.0848	63787.25	62970.5
812.3914	426.2627	63905.35	63089.05
812.5351	428.4399	63723.7	62906.1
812.6788	430.6166	63521.65	62697.6
812.8226	432.7928	63767.25	62941.45
812.9663	434.9683	63601.2	62778.45
813.1101	437.1432	63588.45	62765.55
813.2539	439.3176	63741.15	62923.25
813.3977	441.4914	63449.75	62628.9
813.5415	443.6645	63520.75	62700.15
813.6853	445.8371	63534	62711.9
813.8291	448.0091	63420.9	62598.4
813.973	450.1806	63343.3	62521.55
814.1168	452.3514	63389.25	62564.75
814.2607	454.5216	63255.55	62419.3
814.4046	456.6913	63391.45	62564.3
814.5485	458.8603	63433.4	62607.85
814.6924	461.0288	63250.55	62430.45
814.8363	463.1967	63429.8	62608.95
814.9802	465.3639	63368.5	62543.8
815.1241	467.5306	63090.5	62261.35
815.2681	469.6967	63271.7	62446.9
815.412	471.8622	63368.75	62544.15
815.556	474.0271	63221.4	62395.3
815.7	476.1914	63254.25	62421.45
815.844	478.3551	63275.7	62443.35
815.988	480.5182	63463.05	62634.2
816.132	482.6807	63213.45	62385.6
816.276	484.8426	63237.7	62413.05
816.4201	487.0039	63453.7	62627.45
816.5641	489.1647	63442.7	62608.45
816.7082	491.3248	63178.85	62348.9
816.8522	493.4843	63433.25	62601.8
816.9963	495.6432	63442.5	62608.8
817.1404	497.8015	63180	62341.6
817.2845	499.9592	63345.55	62507.3
817.4286	502.1163	63334.8	62499.25
817.5727	504.2728	63338.05	62501.05
817.7168	506.4287	63306.75	62476.35
817.861	508.5839	63175.5	62344.85
818.0051	510.7386	63270.6	62437.5
818.1493	512.8927	63294.65	62453.4
818.2935	515.0461	63233.5	62392.65
818.4377	517.199	63368.75	62528.1
818.5818	519.3512	63233.1	62391.95
818.726	521.5029	63222.3	62376.35
818.8703	523.6539	63235.05	62393.65
819.0145	525.8043	63094.5	62252.25
819.1587	527.9541	63249.8	62402
819.303	530.1033	63202.95	62359.9
819.4472	532.2519	63112.25	62267.1
819.5915	534.3999	63265.15	62422.15
819.7357	536.5472	63333.25	62489.05
819.88	538.694	63050.95	62206.85
820.0243	540.8401	63196.55	62348.75
820.1686	542.9856	63227.2	62376.55
820.3129	545.1305	63313.9	62458.65
820.4572	547.2748	63129.2	62275.2
820.6016	549.4185	63133.5	62280
820.7459	551.5615	63268.4	62412.85
820.8902	553.704	63209.8	62353.75
821.0346	555.8458	63091.75	62243.25
821.1789	557.987	63128.2	62275.9
821.3233	560.1276	63192.45	62338
821.4677	562.2675	63117.45	62263.2
821.6121	564.4069	63115.95	62262.6
821.7565	566.5456	63210.95	62358.35
821.9009	568.6837	63044.2	62190.95
822.0453	570.8212	63130	62280.65
822.1897	572.958	62919.35	62067.1
822.3342	575.0942	63104.15	62251.35
822.4786	577.2299	62944.35	62095.9
822.6231	579.3648	62894.2	62046.8
822.7675	581.4992	62855	62011.1
822.912	583.6329	62830.15	61986.9
823.0565	585.766	62833.7	61988.8
823.201	587.8985	62893.85	62043.3
823.3454	590.0304	62656.15	61778.85
823.4899	592.1616	62833.4	61979.95
823.6345	594.2922	62738.25	61880.35
823.779	596.4222	62664.95	61804.75
823.9235	598.5515	62689.7	61830.15
824.068	600.6802	62726.45	61866.8
824.2126	602.8083	62581.15	61720.1
824.3571	604.9358	62545.85	61685.85
824.5017	607.0626	62691	61830.1
824.6462	609.1888	62499.1	61632.45
824.7908	611.3144	62606.6	61741.6
824.9354	613.4393	62510.95	61648.95
825.08	615.5636	62438.95	61575.8
825.2246	617.6873	62543.65	61679.65
825.3692	619.8103	62425.35	61559.8
825.5138	621.9327	62527.85	61663.75
825.6584	624.0544	62564.55	61704.6
825.803	626.1756	62469.35	61607.65
825.9477	628.2961	62466.6	61601.5
826.0923	630.4159	62368.05	61503.35
826.237	632.5351	62361.05	61492.55
826.3816	634.6537	62570	61703.65
826.5263	636.7716	62342.2	61473.35
826.6709	638.8889	62384.55	61511.6
826.8156	641.0056	62387.35	61516
826.9603	643.1216	62406.05	61535.4
827.105	645.237	62443.6	61574.1
827.2497	647.3518	62302.15	61433.7
827.3944	649.4659	62337.15	61469.1
827.5391	651.5793	62354.9	61490.8
827.6838	653.6922	62371.65	61504.05
827.8285	655.8043	62250.35	61385.3
827.9733	657.9159	62437.25	61568.95
828.118	660.0268	62054	61184.35
828.2627	662.137	62233.85	61365.9
828.4075	664.2466	62257.2	61383.35
828.5522	666.3556	62176.05	61303.85
828.697	668.4639	62229.8	61357.05
828.8418	670.5716	62187.55	61317.9
828.9865	672.6786	62219.15	61347.55
829.1313	674.785	62104.9	61233.25
829.2761	676.8907	62117.1	61243.1
829.4209	678.9958	62129.35	61258.55
829.5657	681.1002	62152.65	61280.5
829.7105	683.204	62041.45	61163.45
829.8553	685.3072	62007.9	61132.7
830.0001	687.4097	62026.05	61150.75
830.1449	689.5115	61987.4	61109.5
830.2898	691.6127	62076.85	61202.3
830.4346	693.7132	61974.45	61101
830.5794	695.8131	61989.65	61088.7
830.7243	697.9123	61984.75	61105.15
830.8691	700.0109	62002	61123.65
831.014	702.1089	61849.9	60973.65
831.1588	704.2061	61912	61035.65
831.3037	706.3028	61914.2	61035.35
831.4486	708.3987	61932.6	61058.25
831.5935	710.4941	61841.2	60962.8
831.7383	712.5887	61907.4	61029.55
831.8832	714.6827	61872.6	60991.25
832.0281	716.7761	61931.1	61053.9
832.173	718.8688	61897.4	61016
832.3179	720.9608	61805.4	60920.35
832.4628	723.0522	61840.5	60952.85
832.6077	725.1429	61738.5	60858.6
832.7527	727.233	61936.4	61055.4
832.8976	729.3224	61614.3	60733.3
833.0425	731.4112	61731.65	60850.15
833.1874	733.4993	61724.7	60842.65
833.3324	735.5867	61719.6	60835.5
833.4773	737.6735	61634	60750.7
833.6222	739.7596	61544.7	60659.6
833.7672	741.845	61550.05	60665.5
833.9122	743.9298	61611	60725.4
834.0571	746.014	61475.95	60596.25
834.2021	748.0974	61404.35	60515.55
834.347	750.1802	61541.55	60654.85
834.492	752.2624	61310.45	60427.5
834.637	754.3439	61327.7	60439.75
834.782	756.4247	61353.8	60455.6
834.9269	758.5048	61242.45	60354.6
835.0719	760.5843	61263.7	60375.2
835.2169	762.6631	61236.25	60347.05
835.3619	764.7413	61177.75	60291.7
835.5069	766.8188	61198	60310.85
835.6519	768.8956	61241.6	60351.15
835.7969	770.9718	61183.95	60297.2
835.9419	773.0473	61130.15	60242.7
836.0869	775.1221	61043.05	60155.4
836.232	777.1962	61024.3	60135.3
836.377	779.2697	60890.6	60004.7
836.522	781.3426	60932.45	60026.05
836.667	783.4147	60935.3	60045.8
836.8121	785.4862	60910.6	60027.35
836.9571	787.557	60814.8	59925.05
837.1021	789.6271	60885	59993.85
837.2472	791.6966	60797.2	59904.35
837.3922	793.7654	60685.85	59795.25
837.5373	795.8335	60712.85	59824.65
837.6823	797.901	60676.55	59788.2
837.8274	799.9678	60627.3	59736.1
837.9724	802.0339	60565.95	59676.65
838.1175	804.0993	60583.95	59679.2
838.2626	806.1641	60506.35	59615.65
838.4076	808.2282	60460.8	59572.65
838.5527	810.2916	60388.15	59496
838.6978	812.3544	60504.1	59615.3
838.8428	814.4164	60310.8	59423.3
838.9879	816.4778	60360.7	59468.35
839.133	818.5385	60320.8	59425.85
839.2781	820.5986	60311.2	59418.95
839.4232	822.658	60331.95	59437.55
839.5682	824.7166	60305.2	59411.85
839.7133	826.7747	60239.95	59349.6
839.8584	828.832	60264.35	59371.8
840.0035	830.8886	60283.25	59388.1
840.1486	832.9446	60270.45	59375.7
840.2937	834.9999	60061.9	59168.2
840.4388	837.0545	60120	59221.4
840.5839	839.1085	60183.4	59289.35
840.729	841.1618	60102.9	59210.5
840.8741	843.2143	59972.1	59075.95
841.0192	845.2662	59911.4	59018.4
841.1643	847.3175	59951.7	59059.35
841.3095	849.368	59796.95	58903.9
841.4546	851.4179	59893.2	58997.5
841.5997	853.467	59765.65	58873.25
841.7448	855.5155	59773.45	58879.45
841.8899	857.5633	59703.8	58809.5
842.0351	859.6105	59645.85	58749.95
842.1802	861.6569	59671.3	58773.9
842.3253	863.7027	59552.4	58656.35
842.4704	865.7478	59575.8	58679.85
842.6156	867.7922	59563.5	58667.25
842.7607	869.8359	59583.6	58686.9
842.9058	871.8789	59430.45	58535.2
843.0509	873.9212	59492.65	58565.3
843.1961	875.9629	59437.4	58540.6
843.3412	878.0039	59441.85	58542.5
843.4863	880.0441	59374.85	58480.65
843.6315	882.0837	59382.6	58483.45
843.7766	884.1226	59368.8	58471.3
843.9218	886.1609	59365.95	58472.35
844.0669	888.1984	59290.9	58390.8
844.212	890.2352	59378.75	58482.6
844.3572	892.2714	59261.6	58359.25
844.5023	894.3069	59325.05	58425.55
844.6475	896.3416	59204.8	58308.6
844.7926	898.3757	59173.55	58278.15
844.9377	900.4091	58998.9	58099.3
845.0829	902.4418	59201.4	58298.85
845.228	904.4739	59034.6	58134.95
845.3732	906.5052	59062.85	58162
845.5183	908.5358	58977	58076.45
845.6635	910.5658	58903.7	58002.3
845.8086	912.595	58894.6	57993.9
845.9538	914.6236	58673.55	57771.6
846.0989	916.6515	58919.65	58020.95
846.2441	918.6786	58572.25	57670.65
846.3892	920.7051	58664.55	57764.95
846.5344	922.7309	58597.15	57699.8
846.6795	924.756	58636.65	57736
846.8246	926.7804	58544.35	57642.55
846.9698	928.8041	58280.25	57379.25
847.1149	930.8272	58386.6	57485.75
847.2601	932.8495	58375.5	57472.7
847.4052	934.8711	58220.25	57319.1
847.5504	936.892	58110.3	57207.6
847.6955	938.9123	58140.35	57237.95
847.8407	940.9318	58048	57146.9
847.9858	942.9506	58011.3	57109.3
848.131	944.9688	58015.35	57116.1
848.2761	946.9862	57757.35	56858.35
848.4213	949.003	57776.25	56874.8
848.5664	951.019	57573.5	56671.95
848.7115	953.0344	57607.8	56708.2
848.8567	955.0491	57589.45	56688.3
849.0018	957.063	57625.25	56726.9
849.147	959.0763	57622.9	56720.35
849.2921	961.0888	57440.25	56538.35
849.4373	963.1007	57524.9	56627.35
849.5824	965.1119	57461.6	56562.25
849.7275	967.1223	57378.7	56480.95
849.8727	969.1321	57449.7	56555
850.0178	971.1412	57252.45	56355.05
850.1629	973.1495	57161.35	56261.2
850.3081	975.1572	57254.6	56313.2
850.4532	977.1641	57169.6	56269.8
850.5983	979.1704	57097.05	56192.7
850.7435	981.1759	57089.05	56182.7
850.8886	983.1808	56939.85	56039.45
851.0337	985.1849	56957.5	56045.1
851.1788	987.1884	56941.05	56036.75
851.324	989.1911	56957.6	56053.8
851.4691	991.1932	56647.1	55744.15
851.6142	993.1945	56692.35	55795.1
851.7593	995.1951	56699.45	55797.3
851.9045	997.1951	56543.8	55635.25
852.0496	999.1943	56459.55	55558.35
852.1947	1001.1928	56382.45	55476.15
852.3398	1003.1906	56359.55	55457.5
852.4849	1005.1877	56159.7	55256.5
852.63	1007.1841	56090.05	55186.8
852.7751	1009.1798	56066.25	55160.25
852.9202	1011.1748	55989.65	55086.35
853.0653	1013.1691	55948.9	55041.8
853.2104	1015.1627	55682.3	54779.75
853.3555	1017.1556	55640.85	54738.75
853.5006	1019.1477	55646.8	54745.4
853.6457	1021.1392	55461.45	54562.55
853.7908	1023.1299	55255.4	54357.55
853.9359	1025.12	55313.45	54415.45
854.081	1027.1093	55133.2	54243.3
854.2261	1029.0979	55128.9	54237.05
854.3712	1031.0859	55077.8	54186.8
854.5163	1033.0731	54888.1	53988.5
854.6613	1035.0596	54889.15	53988.9
854.8064	1037.0454	54790.6	53889.4
854.9515	1039.0304	54709.05	53805.6
855.0965	1041.0148	54536.8	53635.95
855.2416	1042.9985	54501	53597.45
855.3867	1044.9814	54557.35	53657.3
855.5317	1046.9636	54365.95	53462.75
855.6768	1048.9452	54347.8	53449.35
855.8219	1050.926	54324.6	53423.3
855.9669	1052.9061	54248.45	53346.1
856.112	1054.8855	54186	53284.2
856.257	1056.8642	54107.75	53204.95
856.4021	1058.8421	54043.95	53136.45
856.5471	1060.8194	54019.15	53114.65
856.6921	1062.7959	53961.05	53056.8
856.8372	1064.7717	53985.5	53083
856.9822	1066.7469	53931.5	53025.55
857.1272	1068.7213	53900.2	52995.4
857.2723	1070.695	53856.6	52953.6
857.4173	1072.6679	53718.75	52813.7
857.5623	1074.6402	53738.7	52835
857.7073	1076.6117	53651.7	52743.1
857.8523	1078.5826	53618.6	52716.95
857.9973	1080.5527	53507.25	52600.95
858.1423	1082.5221	53435.65	52533.4
858.2873	1084.4908	53420.45	52516.65
858.4323	1086.4587	53332.15	52430.25
858.5773	1088.426	53328.65	52425.45
858.7223	1090.3925	53238.1	52328.3
858.8673	1092.3584	53236.5	52334.8
859.0123	1094.3235	53047.5	52143.95
859.1573	1096.2879	53006.05	52101.15
859.3022	1098.2515	53015.45	52111.6
859.4472	1100.2145	53018.65	52116.65
859.5922	1102.1767	52917.45	52011.5
859.7371	1104.1382	52937.1	52035.9
859.8821	1106.099	52836.45	51931.95
860.027	1108.0591	52810.4	51908.25
860.172	1110.0185	52642.25	51737.65
860.3169	1111.9771	52732.05	51826.65
860.4619	1113.9351	52646.75	51744.9
860.6068	1115.8923	52510.95	51606.3
860.7517	1117.8488	52437.45	51532.65
860.8967	1119.8045	52297.1	51391.75
861.0416	1121.7596	52325.2	51422.4
861.1865	1123.7139	52187.35	51285.45
861.3314	1125.6675	52157.25	51252.5
861.4763	1127.6204	52140.05	51238
861.6212	1129.5726	51982.75	51077.4
861.7661	1131.524	51963.7	51059.8
861.911	1133.4748	51972.55	51066.9
862.0559	1135.4248	51827.05	50921.05
862.2008	1137.3741	51811.4	50907.45
862.3457	1139.3226	51784	50876.2
862.4905	1141.2705	51768.7	50865.9
862.6354	1143.2176	51611.1	50703.85
862.7803	1145.164	51572.35	50667.25
862.9251	1147.1097	51551.65	50648.45
863.07	1149.0546	51559.75	50653.4
863.2148	1150.9989	51565.9	50660.8
863.3597	1152.9424	51410.1	50506.1
863.5045	1154.8852	51384.2	50481.1
863.6493	1156.8272	51339.4	50438.35
863.7942	1158.7686	51370.4	50460.2
863.939	1160.7092	51226.05	50319.9
864.0838	1162.6491	51183.9	50276.45
864.2286	1164.5883	51205.15	50304.25
864.3734	1166.5267	51139.8	50235.3
864.5182	1168.4644	51136.9	50234.3
864.663	1170.4014	51100.95	50195.6
864.8078	1172.3377	51118.5	50214.4
864.9526	1174.2732	51138.1	50234.3
865.0974	1176.2081	51124.3	50221.3
865.2421	1178.1421	51097.15	50189.85
865.3869	1180.0755	51157.95	50253.5
865.5317	1182.0082	51044.35	50141.05
865.6764	1183.9401	51058.85	50154
865.8212	1185.8713	50956.9	50054.75
865.9659	1187.8017	50901.45	50003.45
866.1106	1189.7315	50888.05	49993.1
866.2554	1191.6605	50695.2	49772.05
866.4001	1193.5888	50579.2	49682.45
866.5448	1195.5163	50498	49597.3
866.6895	1197.4432	50444.35	49539.85
866.8342	1199.3693	50360.2	49457.3
866.9789	1201.2947	50281.55	49370.8
867.1236	1203.2193	50191.25	49286.8
867.2683	1205.1432	50158.35	49254.5
867.413	1207.0664	50108.85	49205.85
867.5576	1208.9889	50052.8	49146.65
867.7023	1210.9106	49972.7	49070.65
867.847	1212.8316	49855.15	48955.1
867.9916	1214.7519	49859.15	48946.7
868.1363	1216.6715	49763.4	48860.35
868.2809	1218.5903	49811.85	48911.25
868.4255	1220.5084	49738.6	48834.3
868.5701	1222.4257	49732	48829.4
868.7148	1224.3424	49636.45	48734.4
868.8594	1226.2583	49585.75	48676.1
869.004	1228.1735	49580.95	48677.3
869.1486	1230.0879	49491.3	48587.3
869.2932	1232.0016	49439.4	48536.4
869.4377	1233.9146	49415.35	48510.45
869.5823	1235.8269	49356.6	48453.7
869.7269	1237.7384	49323.75	48420.15
869.8715	1239.6492	49204.1	48302.95
870.016	1241.5592	49166.3	48264.9
870.1606	1243.4686	49118.15	48215.35
870.3051	1245.3772	49085.85	48182.7
870.4496	1247.285	49065.9	48163.85
870.5941	1249.1922	49021.85	48117.8
870.7387	1251.0986	49022.05	48119.75
870.8832	1253.0042	48941.7	48039.85
871.0277	1254.9092	48925.45	48022.3
871.1722	1256.8134	48819.3	47917.9
871.3167	1258.7169	48869.2	47963.45
871.4611	1260.6196	48792.95	47890.2
871.6056	1262.5216	48815.75	47910.4
871.7501	1264.4229	48781.3	47879.15
871.8945	1266.3234	48780.9	47879.55
872.039	1268.2232	48763.6	47858.95
872.1834	1270.1223	48707	47801.95
872.3278	1272.0207	48678.5	47775.45
872.4723	1273.9183	48631.55	47725
872.6167	1275.8151	48589.2	47685.9
872.7611	1277.7113	48537.4	47636.2
872.9055	1279.6067	48485.65	47585.25
873.0499	1281.5014	48459.7	47553.2
873.1943	1283.3953	48449.25	47547.45
873.3386	1285.2885	48492.7	47591.25
873.483	1287.181	48500.6	47598.95
873.6274	1289.0727	48565.35	47665.5
873.7717	1290.9637	48485.8	47581.9
873.9161	1292.854	48542.55	47640.5
874.0604	1294.7435	48454.1	47553.2
874.2047	1296.6323	48423.2	47522.6
874.349	1298.5204	48389.8	47484.35
874.4933	1300.4077	48327.3	47423.05
874.6376	1302.2943	48310.35	47406.75
874.7819	1304.1802	48260.6	47359.2
874.9262	1306.0653	48152.45	47248.95
875.0705	1307.9497	48077.6	47174.1
875.2147	1309.8333	48055.35	47151.7
875.359	1311.7162	47966.8	47066.3
875.5032	1313.5984	47927.9	47025.3
875.6475	1315.4798	47813.1	46909.95
875.7917	1317.3605	47797.9	46880.2
875.9359	1319.2405	47802.2	46897.55
876.0801	1321.1197	47644.85	46739.75
876.2243	1322.9982	47621.95	46715.2
876.3685	1324.876	47560.8	46658.45
876.5127	1326.753	47479.15	46576.75
876.6569	1328.6293	47494.15	46591.6
876.801	1330.5048	47450.85	46544.9
876.9452	1332.3796	47335.25	46432.75
877.0893	1334.2537	47350.15	46422.35
877.2335	1336.127	47279.15	46375.45
877.3776	1337.9996	47212.9	46312.5
877.5217	1339.8714	47219.35	46316.9
877.6658	1341.7426	47054	46109
877.8099	1343.6129	47111.4	46209.85
877.954	1345.4826	47083.15	46180.3
878.0981	1347.3515	46977.5	46073.6
878.2422	1349.2196	47019.95	46116.65
878.3862	1351.087	46983	46079.6
878.5303	1352.9537	46955.15	46051.85
878.6743	1354.8197	46991.8	46089.25
878.8184	1356.6849	46942.45	46039
878.9624	1358.5493	46883.85	45981.05
879.1064	1360.4131	46830.15	45927.15
879.2504	1362.276	46892.85	45987.85
879.3944	1364.1383	46741.35	45838.15
879.5384	1365.9998	46638.3	45730.55
879.6823	1367.8606	46610.75	45705.65
879.8263	1369.7206	46485.8	45580.05
879.9702	1371.5799	46395.9	45492.05
880.1142	1373.4384	46253.6	45350.15
880.2581	1375.2962	46267.6	45362.1
880.402	1377.1533	45967.75	45064.4
880.5459	1379.0096	45850.6	44947.45
880.6898	1380.8652	45779.5	44879.45
880.8337	1382.7201	45636	44733.1
880.9776	1384.5742	45602.05	44701.1
881.1215	1386.4275	45262.75	44361.85
881.2653	1388.2802	45301.6	44399.85
881.4092	1390.132	45308.5	44406.25
881.553	1391.9832	45058.55	44153.85
881.6968	1393.8336	44875.05	43975.35
881.8406	1395.6832	44878.55	43976.45
881.9844	1397.5322	44852.65	43952.2
882.1282	1399.3803	44665.55	43758.4
882.272	1401.2278	44594.65	43690.2
882.4158	1403.0745	44522.7	43620.1
882.5595	1404.9204	44423.7	43520.85
882.7033	1406.7656	44392.4	43491.5
882.847	1408.6101	44141	43217.8
882.9908	1410.4538	44173.4	43228.8
883.1345	1412.2968	44190.9	43280.8
883.2782	1414.139	43945.35	43042.7
883.4219	1415.9805	44023.45	43122.85
883.5656	1417.8213	43842.35	42933.55
883.7092	1419.6613	43922.9	43021.55
883.8529	1421.5006	43788.15	42884.6
883.9965	1423.3391	43722.75	42818.3
884.1402	1425.1769	43729.3	42828.3
884.2838	1427.0139	43915.25	43011.75
884.4274	1428.8502	43838.95	42935.45
884.571	1430.6858	43845.25	42942.75
884.7146	1432.5206	44048.55	43147.55
884.8582	1434.3547	43882.85	42978.45
885.0018	1436.188	43761.85	42859.4
885.1453	1438.0206	43876.3	42971.95
885.2889	1439.8524	43759.65	42857.9
885.4324	1441.6835	43608.4	42704.8
885.5759	1443.5139	43636.85	42730.4
885.7194	1445.3435	43426.55	42527.75
885.8629	1447.1724	43497.35	42597.15
886.0064	1449.0005	43256.65	42356.8
886.1499	1450.8279	43350.15	42447.7
886.2933	1452.6545	43259.55	42359.55
886.4368	1454.4804	43221.1	42321.8
886.5802	1456.3056	43131.05	42224.3
886.7237	1458.13	43162.75	42264.1
886.8671	1459.9536	43224.15	42321.3
887.0105	1461.7766	42951.65	42049.15
887.1539	1463.5987	42719.65	41818.55
887.2972	1465.4202	42737.1	41837.95
887.4406	1467.2409	42622.75	41722.05
887.584	1469.0608	42347.4	41447.2
887.7273	1470.88	42299.5	41397.2
887.8706	1472.6984	42258.15	41359.8
888.0139	1474.5161	41971.6	41069.05
888.1572	1476.3331	42044.15	41143.05
888.3005	1478.1493	41829.05	40929.85
888.4438	1479.9648	41729.55	40828.95
888.5871	1481.7795	41846.5	40946.05
888.7303	1483.5935	41779.2	40880.2
888.8736	1485.4067	41508	40608.7
889.0168	1487.2192	41598.4	40700.35
889.16	1489.031	41417	40515.4
889.3032	1490.842	41449.45	40549.15
889.4464	1492.6522	41439.9	40539.45
889.5896	1494.4618	41259.7	40357.05
889.7327	1496.2705	41341.7	40442.1
889.8759	1498.0785	40914.45	40012.65
890.019	1499.8858	41058	40157.4
890.1622	1501.6924	41180.25	40282.2
890.3053	1503.4981	40898.8	39997.75
890.4484	1505.3032	40927.5	40027.15
890.5914	1507.1075	40662.85	39761.2
890.7345	1508.911	40661.7	39761.55
890.8776	1510.7138	40599.7	39699.6
891.0206	1512.5159	40679.3	39776.65
891.1637	1514.3172	40190.35	39291.85
891.3067	1516.1178	40232.95	39332.9
891.4497	1517.9176	40374.85	39473.4
891.5927	1519.7166	40119.25	39219.65
891.7357	1521.515	39997.2	39090.7
891.8786	1523.3126	39821.5	38921.5
892.0216	1525.1094	39975.15	39074.65
892.1645	1526.9055	39763.5	38868.2
892.3074	1528.7008	39719.8	38822.25
892.4503	1530.4954	39400.9	38501.05
892.5932	1532.2893	39548.25	38652.25
892.7361	1534.0824	39241.6	38340.45
892.879	1535.8747	39147.35	38250.1
893.0218	1537.6663	39400.25	38503.55
893.1647	1539.4572	38796.8	37896
893.3075	1541.2473	38958	38061.9
893.4503	1543.0367	38841	37946.1
893.5931	1544.8253	38749.4	37848
893.7359	1546.6132	38778.75	37878.8
893.8787	1548.4003	38545.65	37637.2
894.0214	1550.1867	38474.25	37569.05
894.1642	1551.9723	38477.1	37577.9
894.3069	1553.7572	38450.4	37551.4
894.4496	1555.5414	38470.25	37574.65
894.5923	1557.3247	38207.25	37311.1
894.735	1559.1074	38328.25	37435.35
894.8777	1560.8893	38239.05	37344.9
895.0204	1562.6705	38223.45	37327.75
895.163	1564.4509	38035	37140.65
895.3056	1566.2305	38059.2	37165.45
895.4482	1568.0094	38200.45	37306.95
895.5908	1569.7876	38108.6	37213.75
895.7334	1571.565	37918.9	37025.85
895.876	1573.3417	37945.25	37053
896.0186	1575.1176	37902.25	37008.35
896.1611	1576.8928	37768.9	36874.35
896.3036	1578.6672	37605.8	36716.95
896.4461	1580.4409	37561.75	36671.15
896.5886	1582.2138	37410.35	36517.3
896.7311	1583.986	37381.15	36484.55
896.8736	1585.7575	37252.55	36359.8
897.0161	1587.5282	37265.5	36375.05
897.1585	1589.2981	37329.5	36438.6
897.3009	1591.0673	37174.55	36285.65
897.4433	1592.8358	37124.7	36233.25
897.5857	1594.6035	37180.8	36286.9
897.7281	1596.3704	37111.6	36219.15
897.8705	1598.1366	36944.15	36050.45
898.0128	1599.9021	36862.3	35972.9
898.1551	1601.6668	36864.15	35969.9
898.2975	1603.4308	36785.95	35892.75
898.4398	1605.194	36898	36001.6
898.5821	1606.9564	36643.3	35753
898.7243	1608.7182	36756.6	35865.5
898.8666	1610.4791	36694.55	35808.25
899.0088	1612.2394	36740	35855.4
899.1511	1613.9988	36697.25	35810.45
899.2933	1615.7576	36785.85	35897.05
899.4355	1617.5156	36793.55	35895.85
899.5776	1619.2728	36883.4	35990.65
899.7198	1621.0293	36672.2	35781.1
899.862	1622.785	36579.15	35685.05
900.0041	1624.54	36473.65	35581.65
900.1462	1626.2942	36299.45	35409.9
900.2883	1628.0477	35949.75	35059
900.4304	1629.8005	35801.95	34910.6
900.5725	1631.5525	35769.2	34880.5
900.7145	1633.3037	35512.95	34623.95
900.8566	1635.0542	35422.35	34532.75
900.9986	1636.804	35359	34471.95
901.1406	1638.553	35226.6	34292.9
901.2826	1640.3013	35117.6	34228.3
901.4245	1642.0488	34980.8	34091.35
901.5665	1643.7955	34982	34094.2
901.7085	1645.5416	34879.3	33989.85
901.8504	1647.2868	34795.4	33905.95
901.9923	1649.0313	34861.4	33973.55
902.1342	1650.7751	34836.3	33946.3
902.2761	1652.5181	34735.5	33847.4
902.4179	1654.2604	34686.1	33797.35
902.5598	1656.0019	34725.35	33836.35
902.7016	1657.7427	34752.15	33863.75
902.8434	1659.4828	34829.95	33942.35
902.9852	1661.222	34716.2	33824.7
903.127	1662.9606	34684.3	33795.85
903.2687	1664.6984	34527.85	33638.55
903.4105	1666.4354	34422.3	33529.2
903.5522	1668.1717	34092.9	33200.7
903.6939	1669.9072	33760.2	32868.5
903.8356	1671.642	33583.4	32690.4
903.9773	1673.3761	33406.8	32519.35
904.119	1675.1094	33261.45	32371.45
904.2606	1676.8419	32986.8	32100.35
904.4022	1678.5737	32876.6	31986.3
904.5439	1680.3048	32714.95	31824.4
904.6855	1682.0351	32530.15	31638.75
904.827	1683.7646	32361.6	31467.45
904.9686	1685.4934	32310.25	31423.15
905.1101	1687.2215	32039	31149.85
905.2517	1688.9488	32039	31150.15
905.3932	1690.6754	31671.7	30785.7
905.5347	1692.4012	31764.9	30874.55
905.6761	1694.1263	31681.5	30792.85
905.8176	1695.8506	31529.3	30642.65
905.9591	1697.5742	31456.3	30568.95
906.1005	1699.297	31326.2	30440
906.2419	1701.0191	31235.2	30348.05
906.3833	1702.7404	31049.55	30163.1
906.5246	1704.461	30863.8	29975.05
906.666	1706.1808	30850.15	29961.05
906.8073	1707.8999	30730.7	29842.5
906.9487	1709.6182	30609.7	29723.6
907.09	1711.3358	30581.45	29697
907.2313	1713.0527	30478.9	29596
907.3725	1714.7688	30381.3	29488.4
907.5138	1716.4841	30170.5	29281.9
907.655	1718.1987	30191.45	29297.7
907.7962	1719.9126	30076	29190.7
907.9374	1721.6257	29977.85	29089.95
908.0786	1723.338	29976.2	29089.3
908.2198	1725.0496	29728.5	28842.05
908.3609	1726.7605	29694.15	28806.1
908.502	1728.4706	29613.15	28726.5
908.6431	1730.18	29485.45	28598.75
908.7842	1731.8886	29410.5	28524.25
908.9253	1733.5964	29312.6	28422.35
909.0664	1735.3036	29308.45	28418.6
909.2074	1737.0099	29219.9	28333.75
909.3484	1738.7156	29169.05	28282.15
909.4894	1740.4204	28981.55	28090.8
909.6304	1742.1246	29000	28109.9
909.7714	1743.8279	28968.15	28082.2
909.9123	1745.5306	28944.35	28061.35
910.0532	1747.2325	28740.05	27853.95
910.1941	1748.9336	28663.65	27779.25
910.335	1750.634	28567.85	27678.95
910.4759	1752.3336	28574.95	27688.35
910.6168	1754.0325	28452.45	27568.2
910.7576	1755.7307	28403.45	27516.85
910.8984	1757.4281	28386.5	27502.95
911.0392	1759.1247	28342.45	27447.9
911.18	1760.8206	28240.15	27348.45
911.3208	1762.5158	28223.65	27330.35
911.4615	1764.2102	28116.65	27231.25
911.6022	1765.9039	27968.45	27080.7
911.7429	1767.5968	27966.75	27082.65
911.8836	1769.289	27883.3	26996.85
912.0243	1770.9804	27821.55	26935.6
912.1649	1772.6711	27763.1	26875.1
912.3056	1774.361	27707.4	26819.1
912.4462	1776.0502	27669.4	26782.7
912.5868	1777.7386	27547.2	26656.9
912.7274	1779.4263	27483.7	26599.45
912.8679	1781.1132	27454	26568.45
913.0084	1782.7994	27309.65	26422.85
913.149	1784.4849	27364.05	26480
913.2895	1786.1696	27206.5	26302.85
913.4299	1787.8535	27205.4	26319.3
913.5704	1789.5367	27131.85	26248.05
913.7108	1791.2192	27031.1	26145.95
913.8513	1792.9009	26950.6	26036.8
913.9917	1794.5818	26911.95	26023.1
914.132	1796.2621	26837.4	25951.65
914.2724	1797.9415	26827.55	25939.1
914.4128	1799.6202	26706.5	25820.5
914.5531	1801.2982	26663.95	25777.6
914.6934	1802.9755	26563.45	25676.15
914.8337	1804.6519	26565.6	25679.25
914.9739	1806.3277	26460.5	25578.55
915.1142	1808.0027	26321.55	25437.45
915.2544	1809.6769	26337.75	25454.15
915.3946	1811.3504	26312.85	25427.2
915.5348	1813.0231	26193.35	25308.55
915.675	1814.6951	26202.6	25318.05
915.8151	1816.3664	26160	25272.1
915.9553	1818.0369	26050.3	25165.1
916.0954	1819.7067	26006.9	25121
916.2355	1821.3757	25951.1	25064.5
916.3755	1823.044	25879	24995.05
916.5156	1824.7115	25854.65	24967.8
916.6556	1826.3783	25767.2	24882.2
916.7956	1828.0443	25667.35	24782.25
916.9356	1829.7096	25601.85	24715.6
917.0756	1831.3741	25558.3	24669.55
917.2155	1833.0379	25559.15	24674.45
917.3555	1834.701	25453.5	24568.15
917.4954	1836.3633	25412.1	24527.6
917.6353	1838.0248	25331.55	24446.8
917.7751	1839.6856	25281	24394.8
917.915	1841.3457	25266.95	24381.75
918.0548	1843.005	25190.2	24302.55
918.1946	1844.6636	25123.85	24238.45
918.3344	1846.3214	25047.65	24160.5
918.4742	1847.9785	25070.6	24187.4
918.6139	1849.6349	24974.7	24086.9
918.7537	1851.2904	24953	24056.6
918.8934	1852.9453	24889.65	24003.4
919.0331	1854.5994	24800.35	23912.65
919.1727	1856.2528	24818.6	23929.65
919.3124	1857.9054	24725	23839.85
919.452	1859.5572	24693.15	23809.05
919.5916	1861.2083	24667.15	23778.65
919.7312	1862.8587	24632.55	23747.25
919.8708	1864.5084	24585.85	23698.65
920.0103	1866.1572	24507.55	23623.05
920.1498	1867.8054	24378.85	23493.7
920.2893	1869.4528	24370	23481.7
920.4288	1871.0994	24288.6	23403.5
920.5683	1872.7453	24267.3	23379.9
920.7077	1874.3905	24195.9	23304.8
920.8471	1876.0349	24125.05	23240.2
920.9865	1877.6786	24114.2	23227.65
921.1259	1879.3215	24058.8	23173.05
921.2653	1880.9637	24026.75	23141.15
921.4046	1882.6051	23983.8	23098.95
921.5439	1884.2458	23917.15	23029.85
921.6832	1885.8858	23857.85	22972.6
921.8225	1887.525	23797.05	22909.55
921.9617	1889.1634	23689.8	22804.6
922.101	1890.8011	23629.95	22742.9
922.2402	1892.4381	23580.2	22695.55
922.3794	1894.0743	23571.05	22685.3
922.5185	1895.7098	23525.8	22641.1
922.6577	1897.3446	23446.65	22559.2
922.7968	1898.9786	23352.9	22464.15
922.9359	1900.6118	23319.05	22435.3
923.075	1902.2443	23229.9	22342.3
923.214	1903.8761	23172.6	22288.3
923.3531	1905.5071	23050.45	22163.8
923.4921	1907.1374	22983.5	22097.45
923.6311	1908.7669	22939.65	22055.95
923.77	1910.3957	22924.7	22039.3
923.909	1912.0237	22809.8	21926.3
924.0479	1913.651	22702.7	21818.7
924.1868	1915.2776	22701.65	21819.3
924.3257	1916.9034	22587.5	21703.6
924.4646	1918.5285	22518.15	21635.8
924.6034	1920.1528	22397.35	21511.3
924.7422	1921.7764	22377.4	21492.5
924.881	1923.3992	22283.5	21398.15
925.0198	1925.0213	22141.4	21255.1
925.1586	1926.6427	22070.3	21186.05
925.2973	1928.2633	22227.8	21092.9
925.436	1929.8832	22025.65	21136.3
925.5747	1931.5023	21890.6	21006.9
925.7134	1933.1207	21820.85	20937.7
925.852	1934.7383	21799	20915.5
925.9906	1936.3552	21713.05	20828.45
926.1292	1937.9714	21687.8	20803.25
926.2678	1939.5868	21584	20697.5
926.4064	1941.2015	21474.75	20589.4
926.5449	1942.8154	21384.7	20498.35
926.6834	1944.4286	21315.85	20429.35
926.8219	1946.041	21273	20364.3
926.9604	1947.6528	21148.05	20258.1
927.0988	1949.2637	21109.8	20224.1
927.2372	1950.8739	21012.55	20127.2
927.3756	1952.4834	20976.65	20090.95
927.514	1954.0921	20947.15	20064.05
927.6523	1955.7001	20874.2	19985.7
927.7907	1957.3074	20810.3	19926.55
927.929	1958.9139	20728.9	19844.8
928.0673	1960.5197	20669.1	19783.55
928.2055	1962.1247	20562.65	19678.15
928.3438	1963.729	20454.65	19573.6
928.482	1965.3325	20432.65	19525.7
928.6202	1966.9353	20353.65	19471.2
928.7584	1968.5374	20273.1	19389.3
928.8965	1970.1387	20236.75	19352.85
929.0346	1971.7393	20163.5	19280
929.1727	1973.3392	20109	19225.85
929.3108	1974.9383	20034.55	19152.45
929.4489	1976.5366	19930.25	19047.85
929.5869	1978.1342	19918.75	19034.9
929.7249	1979.7311	19865.8	18983.35
929.8629	1981.3273	19803.4	18920.75
930.0009	1982.9227	19757.15	18872.3
930.1388	1984.5173	19632.5	18750.8
930.2767	1986.1112	19564.05	18683.3
930.4146	1987.7044	19560.9	18678.35
930.5525	1989.2968	19519.3	18637.15
930.6904	1990.8885	19483.1	18598.25
930.8282	1992.4795	19389.8	18506.2
930.966	1994.0697	19320.95	18440.55
931.1038	1995.6592	19281.9	18399.8
931.2415	1997.2479	19217.75	18336
931.3793	1998.8359	19165.45	18284.3
931.517	2000.4232	19055.35	18172.95
931.6547	2002.0097	19029.55	18150.7
931.7923	2003.5955	18911.9	18030.75
931.93	2005.1805	18918.6	18035.9
932.0676	2006.7648	18874.05	17992.5
932.2052	2008.3484	18812.3	17929.4
932.3427	2009.9312	18855.55	17970.35
932.4803	2011.5133	18767.05	17887.15
932.6178	2013.0946	18672.4	17791.3
932.7553	2014.6752	18585.05	17706.1
932.8928	2016.2551	18568.85	17687.6
933.0302	2017.8342	18482.7	17601.2
933.1676	2019.4126	18476.6	17598.8
933.305	2020.9902	18395.2	17513.8
933.4424	2022.5672	18337.85	17456.75
933.5798	2024.1433	18299.2	17412.3
933.7171	2025.7188	18237.85	17358.4
933.8544	2027.2935	18150	17268.05
933.9917	2028.8674	18100.6	17219.45
934.129	2030.4406	18066.05	17187.6
934.2662	2032.0131	17999.85	17122.15
934.4034	2033.5849	17930	17042.75
934.5406	2035.1559	17915.35	17039.45
934.6778	2036.7261	17845.95	16964.6
934.8149	2038.2957	17789.8	16908.95
934.952	2039.8645	17767.05	16885.8
935.0891	2041.4325	17773.75	16888.7
935.2262	2042.9998	17663.2	16783.4
935.3632	2044.5664	17637.05	16753.2
935.5002	2046.1323	17569.5	16688.6
935.6372	2047.6974	17558.5	16677.35
935.7742	2049.2617	17509.05	16629.85
935.9111	2050.8254	17454.65	16569.45
936.048	2052.3883	17445.4	16563.3
936.1849	2053.9504	17386.8	16504.1
936.3218	2055.5118	17293.55	16412.85
936.4586	2057.0725	17240.3	16354
936.5955	2058.6325	17237.55	16356.15
936.7323	2060.1917	17144.05	16262.45
936.869	2061.7502	17101.35	16218.65
937.0058	2063.3079	17055.45	16177.4
937.1425	2064.8649	17006	16122.35
937.2792	2066.4212	16982.1	16102.4
937.4159	2067.9767	16925.1	16043.9
937.5525	2069.5315	16859.9	15980.25
937.6891	2071.0856	16776	15894.9
937.8257	2072.6389	16741.3	15859.4
937.9623	2074.1915	16683.75	15805.5
938.0989	2075.7433	16581.8	15698.7
938.2354	2077.2945	16536.85	15656.15
938.3719	2078.8448	16470.05	15589.15
938.5084	2080.3945	16443.3	15561.4
938.6448	2081.9434	16448.15	15564.25
938.7812	2083.4916	16390.65	15508.5
938.9176	2085.039	16307.8	15424.1
939.054	2086.5857	16296.6	15411.1
939.1903	2088.1317	16246.9	15361.55
939.3267	2089.677	16171.4	15287.4
939.463	2091.2215	16131.2	15248.15
939.5992	2092.7652	16091.9	15206.65
939.7355	2094.3083	16076.4	15192.6
939.8717	2095.8506	16018.3	15137.05
940.0079	2097.3921	16013.1	15132.05
940.1441	2098.933	15904.6	15022.55
940.2802	2100.4731	15931.15	15049.9
940.4163	2102.0124	15903.7	15005.3
940.5524	2103.5511	15858.55	14976.8
940.6885	2105.089	15823.7	14941.7
940.8245	2106.6261	15801.95	14918.8
940.9606	2108.1626	15755.5	14871.75
941.0965	2109.6983	15715.3	14804.7
941.2325	2111.2332	15673.9	14790.3
941.3684	2112.7675	15638	14754.8
941.5044	2114.301	15600.85	14717.15
941.6403	2115.8337	15570.3	14688.15
941.7761	2117.3657	15515.8	14632.35
941.912	2118.897	15454.2	14571.75
942.0478	2120.4276	15418.85	14530.2
942.1835	2121.9575	15371.7	14489.9
942.3193	2123.4866	15385.65	14489.15
942.455	2125.0149	15302.95	14419
942.5907	2126.5426	15193.8	14311.65
942.7264	2128.0695	15208.85	14323.4
942.8621	2129.5956	15156.95	14276.3
942.9977	2131.1211	15133.7	14247.6
943.1333	2132.6458	15094.25	14212.3
943.2689	2134.1698	15051.65	14168.5
943.4044	2135.693	15012.1	14124.95
943.54	2137.2155	14976.7	14090.45
943.6755	2138.7373	14941.9	14059.4
943.8109	2140.2584	14894.95	14012.8
943.9464	2141.7787	14846.7	13962.85
944.0818	2143.2983	14782.55	13903.25
944.2172	2144.8171	14731.9	13851.3
944.3526	2146.3353	14670.3	13788.1
944.4879	2147.8527	14639.8	13760.6
944.6232	2149.3693	14624.35	13742.35
944.7585	2150.8853	14567.9	13684.05
944.8938	2152.4005	14473.6	13591.25
945.029	2153.9149	14478.3	13593.55
945.1642	2155.4287	14429	13547.1
945.2994	2156.9417	14407.2	13522.8
945.4346	2158.454	14345.75	13461.15
945.5697	2159.9655	14328.4	13449.15
945.7048	2161.4764	14286.05	13401.15
945.8399	2162.9865	14246.1	13364.15
945.9749	2164.4958	14247.4	13364.25
946.1099	2166.0045	14159.7	13276
946.2449	2167.5124	14141.95	13261.75
946.3799	2169.0195	14090.6	13208.5
946.5148	2170.526	14097.7	13213.45
946.6498	2172.0317	14003.9	13123.4
946.7846	2173.5367	13997.7	13115
946.9195	2175.0409	13918.9	13039.4
947.0543	2176.5445	13965.15	13083.55
947.1891	2178.0473	13881.15	12999.8
947.3239	2179.5494	13812.3	12926.4
947.4587	2181.0507	13775	12891.4
947.5934	2182.5513	13724.25	12841.35
947.7281	2184.0512	13693.55	12809.2
947.8628	2185.5504	13650.35	12767.65
947.9974	2187.0488	13578.15	12696.5
948.132	2188.5465	13534.45	12653.7
948.2666	2190.0435	13501.4	12617.55
948.4012	2191.5397	13447.6	12566.5
948.5357	2193.0353	13428.45	12547.35
948.6702	2194.5301	13340.25	12457.5
948.8047	2196.0241	13290.5	12406
948.9392	2197.5175	13285.85	12402.4
949.0736	2199.0101	13246.85	12358.85
949.208	2200.502	13153.55	12272.4
949.3424	2201.9931	13118	12237.45
949.4767	2203.4835	13108	12225.6
949.611	2204.9733	13078.25	12190.8
949.7453	2206.4622	13053.55	12174.2
949.8796	2207.9505	12967.55	12082.6
950.0138	2209.438	12933.75	12056.2
950.148	2210.9248	12869.8	11987.85
950.2822	2212.4109	12825.7	11945
950.4164	2213.8962	12799.4	11913.95
950.5505	2215.3809	12780.3	11894.35
950.6846	2216.8648	12753.95	11868.2
950.8186	2218.3479	12729.05	11838.8
950.9527	2219.8304	12673.35	11785.7
951.0867	2221.3121	12612.7	11726.45
951.2207	2222.7931	12588.4	11703.55
951.3546	2224.2733	12519.95	11636.25
951.4886	2225.7529	12494.2	11609.2
951.6225	2227.2317	12443.75	11559.85
951.7563	2228.7098	12415.05	11532.4
951.8902	2230.1872	12366.1	11485.15
952.024	2231.6638	12360.3	11480.7
952.1578	2233.1397	12312.7	11425.4
952.2916	2234.6149	12284.9	11403.95
952.4253	2236.0894	12214.5	11333.4
952.559	2237.5632	12239.7	11345.95
952.6927	2239.0362	12145	11263.75
952.8263	2240.5085	12100.5	11218.75
952.9599	2241.9801	12080.35	11198.2
953.0935	2243.4509	12040.3	11158.9
953.2271	2244.921	11998.4	11111.95
953.3606	2246.3904	11952.75	11067.35
953.4941	2247.8591	11925.8	11043.05
953.6276	2249.3271	11888.55	11006.05
953.7611	2250.7943	11848.05	10962.05
953.8945	2252.2608	11787.7	10903.4
954.0279	2253.7266	11760.4	10879.9
954.1612	2255.1917	11736.4	10853.3
954.2946	2256.656	11701.55	10818.85
954.4279	2258.1197	11658.2	10776.9
954.5612	2259.5826	11634.65	10750.35
954.6944	2261.0447	11627.05	10743.95
954.8276	2262.5062	11563.9	10680.55
954.9608	2263.9669	11534.15	10646.55
955.094	2265.4269	11510.95	10627.65
955.2271	2266.8862	11491.7	10607.4
955.3602	2268.3448	11449.85	10569
955.4933	2269.8026	11436.6	10554.6
955.6264	2271.2598	11407.65	10524.55
955.7594	2272.7162	11359.65	10477.7
955.8924	2274.1719	11313.45	10431.1
956.0253	2275.6268	11297.5	10414.35
956.1583	2277.0811	11265.4	10381.9
956.2912	2278.5346	11238.7	10357.1
956.4241	2279.9874	11236.35	10354.1
956.5569	2281.4395	11195.45	10313.3
956.6897	2282.8908	11133.25	10244.5
956.8225	2284.3414	11153.9	10269.35
956.9553	2285.7914	11094.35	10211.95
957.088	2287.2406	11071.35	10186.9
957.2207	2288.689	11040.95	10155.1
957.3534	2290.1368	10990.65	10106.55
957.486	2291.5838	10955.95	10067.4
957.6186	2293.0302	10905	10017.65
957.7512	2294.4758	10866.7	9982.75
957.8838	2295.9206	10849.65	9963.4
958.0163	2297.3648	10794.35	9910.2
958.1488	2298.8082	10784.15	9900
958.2813	2300.251	10788.65	9905.4
958.4137	2301.693	10700.7	9814.5
958.5461	2303.1343	10716.65	9832.65
958.6785	2304.5748	10656.45	9773.5
958.8108	2306.0147	10627.3	9747.05
958.9432	2307.4538	10606.15	9719.8
959.0754	2308.8922	10560.7	9678.1
959.2077	2310.3299	10550	9666.95
959.3399	2311.7669	10491.55	9610.65
959.4721	2313.2031	10466.1	9583.25
959.6043	2314.6387	10439.45	9556.05
959.7365	2316.0735	10402.75	9520.6
959.8686	2317.5076	10400.8	9517.35
960.0006	2318.941	10372.25	9488.6
960.1327	2320.3737	10332.35	9447.6
960.2647	2321.8056	10301.15	9416.95
960.3967	2323.2369	10266.95	9384.45
960.5287	2324.6674	10244.15	9359.5
960.6606	2326.0972	10193	9307.45
960.7925	2327.5263	10146.55	9263.75
960.9244	2328.9547	10129.2	9245.1
961.0562	2330.3823	10126.45	9243.5
961.1881	2331.8092	10114.95	9226.3
961.3198	2333.2355	10024.75	9138.4
961.4516	2334.661	10074.05	9188.4
961.5833	2336.0858	10034.3	9146.8
961.715	2337.5098	9971.95	9088
961.8467	2338.9332	9959.25	9074.35
961.9783	2340.3558	9947.95	9060.5
962.1099	2341.7778	9892.95	9010
962.2415	2343.199	9862.95	8978
962.373	2344.6195	9839.75	8958.15
962.5045	2346.0393	9816.7	8934.75
962.636	2347.4583	9799.2	8916.9
962.7675	2348.8767	9774.65	8890
962.8989	2350.2943	9747.75	8861
963.0303	2351.7113	9719.55	8835.25
963.1617	2353.1275	9693.95	8810.15
963.293	2354.543	9647.5	8755.05
963.4243	2355.9578	9628.65	8743
963.5556	2357.3718	9559.3	8676.5
963.6868	2358.7852	9528	8646.3
963.818	2360.1978	9509.45	8625.6
963.9492	2361.6098	9483.4	8599.9
964.0803	2363.021	9454.35	8565.7
964.2114	2364.4315	9427.4	8542.85
964.3425	2365.8413	9407.25	8521.85
964.4736	2367.2504	9376	8492.35
964.6046	2368.6587	9343.1	8460.25
964.7356	2370.0664	9281.4	8398.95
964.8666	2371.4733	9256.6	8372.85
964.9975	2372.8795	9232.9	8350.3
965.1284	2374.285	9203.6	8317.95
965.2593	2375.6899	9164.2	8280.2
965.3901	2377.0939	9126.05	8243.65
965.5209	2378.4973	9094.45	8211.85
965.6517	2379.9	9082.5	8198.85
965.7825	2381.3019	9065.25	8181.85
965.9132	2382.7032	9037.55	8154.85
966.0439	2384.1037	8998	8114.85
966.1745	2385.5035	8949	8069.7
966.3051	2386.9027	8962.15	8080.15
966.4357	2388.3011	8945.65	8061.7
966.5663	2389.6987	8884.45	8002.8
966.6968	2391.0957	8844.45	7961.1
966.8273	2392.492	8821.35	7941.3
966.9578	2393.8876	8779.85	7896.85
967.0882	2395.2824	8743.95	7862.25
967.2186	2396.6765	8710.9	7828.9
967.349	2398.07	8691.8	7810.85
967.4793	2399.4627	8681.65	7798.1
967.6097	2400.8547	8642.25	7760.7
967.7399	2402.246	8606.7	7718.5
967.8702	2403.6366	8556.35	7674.1
968.0004	2405.0265	8532.1	7651.2
968.1306	2406.4156	8504.95	7616.5
968.2607	2407.8041	8485.05	7600.5
968.3909	2409.1918	8436.3	7552.8
968.521	2410.5789	8391.85	7508.7
968.651	2411.9652	8378.75	7491.75
968.781	2413.3508	8336.8	7453.65
968.911	2414.7358	8326.7	7442.05
969.041	2416.12	8300.05	7417.9
969.1709	2417.5035	8273.2	7390.65
969.3008	2418.8863	8242.55	7358.1
969.4307	2420.2684	8200.85	7318.15
969.5606	2421.6497	8153.65	7271.05
969.6904	2423.0304	8109.95	7226.55
969.8201	2424.4104	8127.2	7244.3
969.9499	2425.7896	8093.55	7206.2
970.0796	2427.1682	8066	7183.6
970.2093	2428.546	8065.95	7180.25
970.3389	2429.9232	8016.3	7132.4
970.4685	2431.2996	8004.75	7121.45
970.5981	2432.6753	7972.05	7088.15
970.7277	2434.0503	7965.6	7083.45
970.8572	2435.4246	7941.25	7057.4
970.9867	2436.7982	7926.15	7040.2
971.1161	2438.1711	7896.7	7014.05
971.2456	2439.5433	7846.95	6961.15
971.375	2440.9148	7847.95	6960.3
971.5043	2442.2856	7807.15	6922.55
971.6336	2443.6557	7770.75	6885
971.7629	2445.025	7745.95	6862.25
971.8922	2446.3937	7749.8	6865.1
972.0214	2447.7617	7702.75	6818.5
972.1506	2449.1289	7705.75	6822.6
972.2798	2450.4955	7675.1	6788.55
972.4089	2451.8613	7656.75	6774.2
972.538	2453.2265	7649.2	6766.35
972.6671	2454.5909	7601.45	6718.45
972.7961	2455.9546	7590.35	6706.1
972.9251	2457.3177	7564.95	6683.8
973.0541	2458.68	7535.35	6649.95
973.1831	2460.0416	7546.75	6664.35
973.312	2461.4025	7522.2	6637
973.4408	2462.7627	7504.45	6610.65
973.5697	2464.1222	7476.3	6597.85
973.6985	2465.4811	7449.4	6567.5
973.8273	2466.8392	7421.55	6538.55
973.956	2468.1966	7382.25	6496.35
974.0847	2469.5533	7395.7	6510.4
974.2134	2470.9093	7375.65	6491.55
974.3421	2472.2645	7354.15	6470.65
974.4707	2473.6191	7348.65	6465.55
974.5993	2474.973	7293.8	6409.55
974.7278	2476.3262	7279.7	6395.05
974.8563	2477.6787	7257.05	6375.85
974.9848	2479.0305	7199.85	6316.9
975.1132	2480.3816	7176.25	6292.3
975.2417	2481.7319	7161.8	6278.85
975.37	2483.0816	7136.25	6251.75
975.4984	2484.4306	7124.8	6240.35
975.6267	2485.7789	7081.5	6200.15
975.755	2487.1264	7075.7	6191.25
975.8833	2488.4733	7041.95	6160.7
976.0115	2489.8195	7017.55	6127.65
976.1397	2491.165	6989	6103.1
976.2678	2492.5097	6973.2	6090.35
976.3959	2493.8538	6933.95	6050.4
976.524	2495.1972	6911.8	6030.15
976.6521	2496.5398	6895.85	6011
976.7801	2497.8818	6878.5	5992.4
976.9081	2499.2231	6862.85	5979.7
977.036	2500.5637	6816	5930
977.164	2501.9035	6805.5	5921.05
977.2918	2503.2427	6781.5	5894.35
977.4197	2504.5812	6758	5876.1
977.5475	2505.919	6757.7	5873.7
977.6753	2507.256	6736.7	5853.05
977.8031	2508.5924	6687.9	5805.5
977.9308	2509.9281	6697.35	5809
978.0585	2511.2631	6676.15	5793.35
978.1861	2512.5974	6641.4	5759.75
978.3137	2513.9309	6608.4	5724.8
978.4413	2515.2638	6622.4	5709
978.5689	2516.596	6587.45	5706.15
978.6964	2517.9275	6542.6	5656.8
978.8239	2519.2583	6533.15	5648
978.9513	2520.5884	6502.1	5617.5
979.0788	2521.9178	6484.2	5601.7
979.2062	2523.2465	6475.15	5592.4
979.3335	2524.5745	6441.9	5561.7
979.4608	2525.9018	6418.05	5533.4
979.5881	2527.2284	6424.9	5542.05
979.7154	2528.5543	6396.4	5514.35
979.8426	2529.8796	6371.1	5487.4
979.9698	2531.2041	6367.75	5482.95
980.0969	2532.5279	6350.65	5469.5
980.224	2533.851	6348.4	5466.25
980.3511	2535.1735	6295.2	5413.2
980.4781	2536.4952	6282.65	5399.05
980.6052	2537.8163	6287.8	5403.75
980.7321	2539.1366	6276.9	5395.5
980.8591	2540.4562	6255.45	5368.75
980.986	2541.7752	6239.75	5357.95
981.1129	2543.0935	6240.7	5356.85
981.2397	2544.411	6208.1	5323.05
981.3665	2545.7279	6186.6	5304.7
981.4933	2547.0441	6182.6	5297.25
981.62	2548.3596	6183.1	5295.8
981.7467	2549.6744	6184.1	5300.15
981.8734	2550.9885	6137.65	5246
982.0001	2552.3019	6120.8	5236.35
982.1267	2553.6146	6110.2	5227.05
982.2532	2554.9266	6094.4	5210.1
982.3798	2556.2379	6087.4	5203.4
982.5063	2557.5485	6064.25	5182.1
982.6327	2558.8585	6063.25	5173.25
982.7592	2560.1677	6047.95	5160.05
982.8856	2561.4762	6036.75	5153.7
983.0119	2562.7841	6014.8	5129.8
983.1383	2564.0913	6001.4	5117.6
983.2646	2565.3977	6002.85	5121.1
983.3908	2566.7035	5984.55	5101.15
983.517	2568.0086	5970	5085.8
983.6432	2569.313	5945.95	5062.1
983.7694	2570.6167	5937.55	5051.55
983.8955	2571.9197	5916.6	5033.1
984.0216	2573.222	5909.6	5022.35
984.1476	2574.5236	5895.95	5010.95
984.2737	2575.8246	5880.2	4993.5
984.3996	2577.1248	5882.65	4996.85
984.5256	2578.4244	5871.05	4988.2
984.6515	2579.7232	5869.1	4985.25
984.7774	2581.0214	5861.95	4952.85
984.9032	2582.3189	5837.8	4955.85
985.029	2583.6157	5812.65	4925.85
985.1548	2584.9118	5791.5	4906.15
985.2806	2586.2072	5778.35	4894.05
985.4063	2587.5019	5763.35	4878.25
985.5319	2588.7959	5750.35	4866.95
985.6576	2590.0893	5737.25	4852
985.7832	2591.3819	5729.35	4846.6
985.9087	2592.6739	5700.5	4818.9
986.0343	2593.9652	5695.65	4809.95
986.1597	2595.2557	5688.65	4807.5
986.2852	2596.5456	5647.05	4761.2
986.4106	2597.8348	5623.1	4741.8
986.536	2599.1234	5626.1	4742.65
986.6614	2600.4112	5606.15	4723.15
986.7867	2601.6983	5589.35	4704.25
986.912	2602.9848	5561.9	4679.8
987.0372	2604.2705	5541.5	4648.65
987.1624	2605.5556	5528.1	4645.7
987.2876	2606.84	5502.45	4621.3
987.4128	2608.1237	5476	4592.75
987.5379	2609.4067	5466.35	4583.45
987.6629	2610.689	5473.55	4581.6
987.788	2611.9707	5430	4543.1
987.913	2613.2516	5412.1	4524.9
988.0379	2614.5319	5395.55	4512
988.1629	2615.8115	5379.4	4495.75
988.2878	2617.0903	5345.15	4458.6
988.4126	2618.3685	5345.1	4462.35
988.5375	2619.6461	5304.05	4422.8
988.6622	2620.9229	5295.95	4412.45
988.787	2622.199	5295.1	4412.3
988.9117	2623.4745	5272.15	4391.05
989.0364	2624.7493	5260.2	4376.95
989.161	2626.0234	5247.7	4365.1
989.2857	2627.2968	5234.7	4352.35
989.4102	2628.5695	5198.55	4316
989.5348	2629.8415	5188.65	4304.3
989.6593	2631.1128	5161.1	4278.05
989.7837	2632.3835	5133.7	4252.35
989.9082	2633.6535	5134.45	4251.6
990.0326	2634.9228	5112.4	4230.35
990.1569	2636.1914	5089.4	4205.4
990.2812	2637.4593	5091.2	4204.6
990.4055	2638.7265	5084.15	4200.9
990.5298	2639.9931	5039.05	4155
990.654	2641.259	5043.25	4158.35
990.7782	2642.5242	5020.3	4136.4
990.9023	2643.7887	5013.8	4130.4
991.0264	2645.0525	5001.5	4119.9
991.1505	2646.3156	4974	4089.9
991.2745	2647.5781	4964.7	4083.6
991.3985	2648.8398	4950	4067.2
991.5225	2650.1009	4942.6	4050.7
991.6464	2651.3613	4920.05	4038.45
991.7703	2652.6211	4904.95	4020
991.8942	2653.8801	4883.2	4001.05
992.018	2655.1385	4881.5	3995.35
992.1418	2656.3961	4866.9	3984.85
992.2655	2657.6531	4862.65	3979.75
992.3892	2658.9094	4847.35	3964.6
992.5129	2660.1651	4847.25	3964.6
992.6366	2661.42	4822.25	3941.05
992.7602	2662.6743	4847.05	3962.35
992.8837	2663.9279	4831.05	3948.95
993.0073	2665.1808	4797.2	3913.8
993.1307	2666.433	4788	3905.15
993.2542	2667.6846	4757.55	3877.5
993.3776	2668.9354	4752.1	3866.65
993.501	2670.1856	4741	3857.05
993.6244	2671.4351	4743.35	3861.4
993.7477	2672.6839	4739.45	3855.7
993.8709	2673.9321	4722.6	3840.35
993.9942	2675.1795	4691.25	3806.2
994.1174	2676.4263	4670.8	3788.7
994.2405	2677.6724	4665.8	3783.25
994.3637	2678.9179	4662.8	3781.1
994.4868	2680.1626	4636.7	3754.1
994.6098	2681.4067	4647.15	3764
994.7328	2682.6501	4611.15	3728.35
994.8558	2683.8928	4596.85	3715.15
994.9788	2685.1348	4570.45	3688.05
995.1017	2686.3761	4565.9	3684.1
995.2245	2687.6168	4566.95	3683.1
995.3474	2688.8568	4544.5	3663
995.4702	2690.0961	4524.8	3642.75
995.5929	2691.3348	4513.7	3631.6
995.7156	2692.5727	4496.55	3614.7
995.8383	2693.81	4489.15	3606
995.961	2695.0466	4488.6	3608.4
996.0836	2696.2826	4468.25	3585.25
996.2062	2697.5178	4478.7	3575.1
996.3287	2698.7524	4455.55	3576.35
996.4512	2699.9863	4442.1	3557.4
996.5737	2701.2195	4409.05	3529.55
996.6961	2702.452	4409.35	3524.95
996.8185	2703.6839	4386.35	3504.75
996.9408	2704.9151	4385.45	3503.3
997.0631	2706.1456	4371.5	3487.75
997.1854	2707.3755	4365.25	3484.95
997.3077	2708.6046	4356.25	3471.95
997.4299	2709.8331	4332.4	3446.1
997.552	2711.0609	4336.9	3454.35
997.6742	2712.2881	4299.95	3417.15
997.7963	2713.5145	4316	3432.15
997.9183	2714.7403	4305.7	3424.7
998.0403	2715.9654	4297.45	3416.85
998.1623	2717.1899	4280.5	3397.3
998.2842	2718.4136	4264.65	3381.9
998.4062	2719.6367	4245.25	3362.4
998.528	2720.8591	4247	3357.2
998.6498	2722.0809	4233.6	3349.7
998.7716	2723.3019	4226.6	3340.9
998.8934	2724.5223	4213.75	3330
999.0151	2725.7421	4212.2	3328.25
999.1368	2726.9611	4172.15	3288.25
999.2584	2728.1795	4177.3	3293.15
999.38	2729.3972	4158.35	3275.8
999.5016	2730.6142	4140.5	3249.9
999.6231	2731.8306	4130.55	3245.9
999.7446	2733.0462	4116	3231.6
999.8661	2734.2612	4090.3	3204.25
999.9875	2735.4756	4069.7	3185.95
1000.1089	2736.6892	4047.8	3167.05
1000.2302	2737.9022	4035.3	3152.1
1000.3515	2739.1145	4025.7	3144.15
1000.4728	2740.3262	4006.85	3118.95
1000.594	2741.5372	4000.55	3119.6
1000.7152	2742.7475	3973.65	3090.55
1000.8363	2743.9571	3954.55	3070.8
1000.9575	2745.1661	3954.05	3067.55
1001.0785	2746.3744	3930	3048.75
1001.1996	2747.582	3899.95	3020.35
1001.3206	2748.7889	3901.4	3016.55
1001.4415	2749.9952	3878.65	2998.85
1001.5625	2751.2008	3876.7	2994.25
1001.6833	2752.4057	3869	2984.75
1001.8042	2753.61	3856	2973.45
1001.925	2754.8136	3848.75	2965.2
1002.0458	2756.0165	3822.7	2939.5
1002.1665	2757.2188	3806.15	2924.95
1002.2872	2758.4204	3807.8	2928.2
1002.4078	2759.6213	3784.9	2900.7
1002.5285	2760.8215	3802.3	2916
1002.649	2762.0211	3771.65	2888.5
1002.7696	2763.22	3761.55	2877.75
1002.8901	2764.4182	3749.8	2867.05
1003.0106	2765.6158	3749.4	2866.95
1003.131	2766.8127	3730.95	2852.25
1003.2514	2768.009	3711.35	2831.5
1003.3717	2769.2045	3709.05	2826.2
1003.492	2770.3994	3702.2	2818.1
1003.6123	2771.5936	3695.85	2813.3
1003.7325	2772.7872	3664.95	2784.6
1003.8527	2773.9801	3669.55	2785.75
1003.9729	2775.1723	3670.2	2771.35
1004.093	2776.3639	3639.35	2757.55
1004.2131	2777.5548	3628.95	2746.7
1004.3331	2778.745	3617.75	2734.05
1004.4531	2779.9346	3607.95	2727.3
1004.5731	2781.1235	3605	2721.8
1004.693	2782.3117	3587.85	2705.3
1004.8129	2783.4992	3584.85	2703.85
1004.9328	2784.6861	3569.9	2687.4
1005.0526	2785.8723	3567.8	2687.25
1005.1723	2787.0579	3557.6	2676.65
1005.2921	2788.2428	3545.15	2663.5
1005.4118	2789.427	3535.4	2652.85
1005.5314	2790.6106	3529.2	2647.85
1005.651	2791.7935	3521.05	2637.95
1005.7706	2792.9757	3521.9	2641.6
1005.8902	2794.1573	3500.75	2617.7
1006.0097	2795.3382	3487.8	2606.3
1006.1291	2796.5184	3481.45	2601.95
1006.2485	2797.698	3474.95	2592.1
1006.3679	2798.8769	3469.25	2587.65
1006.4873	2800.0551	3481.15	2600.2
1006.6066	2801.2327	3449.5	2566.95
1006.7258	2802.4096	3451.15	2569.8
1006.8451	2803.5859	3444.65	2560.5
1006.9642	2804.7615	3439.3	2556.45
1007.0834	2805.9364	3421.35	2539.85
1007.2025	2807.1106	3437.65	2558.45
1007.3216	2808.2842	3429.25	2545.8
1007.4406	2809.4572	3432.05	2549.9
1007.5596	2810.6294	3440.6	2558.6
1007.6785	2811.801	3444.75	2565.45
1007.7975	2812.972	3465.85	2587.1
1007.9163	2814.1423	3454.9	2574.8
1008.0352	2815.3119	3462.25	2580.15
1008.154	2816.4808	3478.2	2597.9
1008.2727	2817.6491	3491.85	2611.4
1008.3914	2818.8167	3487.65	2607.95
1008.5101	2819.9837	3502.7	2617.55
1008.6288	2821.15	3519.15	2637.7
1008.7474	2822.3157	3534.95	2653.9
1008.8659	2823.4807	3556.6	2677.8
1008.9844	2824.645	3584.05	2702.5
1009.1029	2825.8086	3580.85	2700.7
1009.2214	2826.9716	3597.9	2716.3
1009.3398	2828.134	3596.35	2715.9
1009.4581	2829.2957	3621.4	2740.8
1009.5764	2830.4567	3626.85	2748.05
1009.6947	2831.617	3620.25	2738.25
1009.813	2832.7767	3625.6	2746.95
1009.9312	2833.9358	3619.05	2739.4
1010.0493	2835.0941	3611	2726.8
1010.1675	2836.2519	3603.7	2724.85
1010.2855	2837.4089	3581.05	2698.35
1010.4036	2838.5653	3564.25	2683.45
1010.5216	2839.7211	3567.65	2689.7
1010.6396	2840.8761	3561.2	2679.05
1010.7575	2842.0306	3567.55	2687.2
1010.8754	2843.1843	3558.5	2678.85
1010.9932	2844.3374	3570.4	2690.35
1011.111	2845.4899	3571.05	2689.3
1011.2288	2846.6417	3594.25	2713.4
1011.3465	2847.7928	3620	2740.25
1011.4642	2848.9433	3628.55	2748.45
1011.5818	2850.0931	3652.9	2773.5
1011.6995	2851.2422	3670.55	2789.85
1011.817	2852.3907	3678.55	2797.35
1011.9345	2853.5385	3695.35	2815.85
1012.052	2854.6857	3714.9	2823.7
1012.1695	2855.8323	3718.15	2837.45
1012.2869	2856.9781	3727.9	2847.15
1012.4042	2858.1233	3741.75	2860
1012.5216	2859.2679	3753.65	2874.05
1012.6389	2860.4118	3762.4	2881.95
1012.7561	2861.555	3770.6	2883
1012.8733	2862.6976	3779.25	2895.95
1012.9905	2863.8395	3787.5	2907
1013.1076	2864.9808	3802	2921.65
1013.2247	2866.1214	3795.55	2917.25
1013.3417	2867.2614	3803.45	2924.25
1013.4587	2868.4007	3798.9	2916.45
1013.5757	2869.5393	3792.4	2911.45
1013.6926	2870.6773	3783.95	2897.7
1013.8095	2871.8146	3789.6	2905.25
1013.9263	2872.9513	3770.55	2886.8
1014.0431	2874.0874	3747.85	2868.55
1014.1599	2875.2227	3740.35	2860.4
1014.2766	2876.3574	3728.85	2846.75
1014.3933	2877.4915	3696.95	2816.5
1014.51	2878.6249	3688.3	2807.5
1014.6266	2879.7577	3661.35	2777.9
1014.7431	2880.8898	3667.4	2777.35
1014.8596	2882.0212	3649.5	2770.45
1014.9761	2883.152	3634.1	2752.3
1015.0925	2884.2821	3615.4	2734.7
1015.2089	2885.4116	3604.55	2724.15
1015.3253	2886.5405	3592.35	2711
1015.4416	2887.6686	3594.85	2711.75
1015.5579	2888.7962	3588.2	2710.15
1015.6741	2889.923	3582.5	2704.3
1015.7903	2891.0493	3575.8	2694.8
1015.9065	2892.1748	3584.1	2704.6
1016.0226	2893.2997	3573	2691.8
1016.1387	2894.424	3571.15	2691.65
1016.2547	2895.5476	3542.4	2663.4
1016.3707	2896.6706	3570.65	2690.95
1016.4866	2897.7929	3559.4	2680.1
1016.6025	2898.9145	3573.45	2692.05
1016.7184	2900.0355	3568.9	2687.65
1016.8342	2901.1559	3565.45	2684.6
1016.95	2902.2756	3583.15	2700.55
1017.0658	2903.3946	3576.4	2696.4
1017.1815	2904.513	3584.15	2700.15
1017.2971	2905.6308	3589.2	2710.1
1017.4127	2906.7479	3584.6	2703.2
1017.5283	2907.8643	3580.95	2697.85
1017.6439	2908.9801	3582.8	2701.9
1017.7594	2910.0953	3579.2	2698.4
1017.8748	2911.2098	3571.25	2687.3
1017.9902	2912.3236	3574	2685.8
1018.1056	2913.4368	3547.4	2665.05
1018.2209	2914.5494	3535.15	2653.75
1018.3362	2915.6613	3517.75	2631.65
1018.4515	2916.7725	3496.35	2614.4
1018.5667	2917.8831	3482.9	2601.35
1018.6819	2918.9931	3451	2568
1018.797	2920.1024	3447.3	2564.05
1018.9121	2921.211	3433.6	2553.5
1019.0271	2922.319	3408.25	2527.3
1019.1421	2923.4264	3416.05	2537
1019.2571	2924.5331	3393.85	2515.2
1019.372	2925.6391	3394.15	2514.8
1019.4869	2926.7445	3388.6	2509.95
1019.6017	2927.8493	3377.5	2497
1019.7165	2928.9534	3383.35	2502.55
1019.8313	2930.0569	3367.9	2484.2
1019.946	2931.1597	3352.2	2469.05
1020.0606	2932.2619	3349.2	2470.15
1020.1753	2933.3634	3337.5	2458.35
1020.2899	2934.4643	3341.1	2453.9
1020.4044	2935.5645	3346.3	2461.4
1020.5189	2936.6641	3332.8	2448.55
1020.6334	2937.763	3300.35	2422.05
1020.7478	2938.8613	3280.2	2398.2
1020.8622	2939.959	3252.35	2368.8
1020.9765	2941.056	3225.4	2346.6
1021.0908	2942.1523	3181	2299.25
1021.2051	2943.248	3149.25	2270.8
1021.3193	2944.3431	3104.85	2225.55
1021.4334	2945.4375	3074.5	2195.1
1021.5476	2946.5313	3019.9	2140.3
1021.6617	2947.6244	2970.55	2089.9
1021.7757	2948.7169	2934.7	2053.2
1021.8897	2949.8087	2892.35	2011.6
1022.0037	2950.8999	2849.45	1969.85
1022.1176	2951.9904	2823.5	1944.35
1022.2315	2953.0803	2770.55	1889
1022.3453	2954.1696	2743.15	1864.85
1022.4591	2955.2582	2720.9	1839.7
1022.5728	2956.3462	2693.25	1813.15
1022.6865	2957.4335	2680.75	1801.1
1022.8002	2958.5202	2659.65	1778.85
1022.9138	2959.6062	2635.1	1754.45
1023.0274	2960.6916	2621.6	1742.65
1023.141	2961.7764	2618.4	1738.85
1023.2545	2962.8605	2598.45	1716.7
1023.3679	2963.9439	2586.5	1705.85
1023.4813	2965.0267	2574.2	1691.9
1023.5947	2966.1089	2600.75	1697.7
1023.708	2967.1905	2565.65	1687.65
1023.8213	2968.2714	2550	1670.55
1023.9346	2969.3516	2541	1659.8
1024.0478	2970.4312	2548.25	1660.05
1024.1609	2971.5102	2545.35	1665.55
1024.274	2972.5885	2533.3	1654.25
1024.3871	2973.6662	2538.35	1653.45
1024.5002	2974.7432	2519.25	1639.3
1024.6132	2975.8196	2514.8	1634.1
1024.7261	2976.8954	2503.7	1625.2
1024.839	2977.9705	2498.55	1618.45
1024.9519	2979.045	2488.25	1611.2
1025.0647	2980.1188	2476.4	1596.45
1025.1775	2981.192	2465.05	1586.25
1025.2902	2982.2645	2455.65	1574.8
1025.4029	2983.3364	2431.75	1551.5
1025.5156	2984.4077	2412.25	1532.4
1025.6282	2985.4783	2402.45	1516
1025.7407	2986.5483	2389.5	1511.8
1025.8532	2987.6177	2366.8	1488.25
1025.9657	2988.6864	2364.05	1485.15
1026.0782	2989.7545	2345.05	1461.4
1026.1906	2990.8219	2316.1	1438.5
1026.3029	2991.8887	2311.6	1429.25
1026.4152	2992.9548	2296.15	1416.7
1026.5275	2994.0204	2273.15	1396.05
1026.6397	2995.0852	2259.9	1381.5
1026.7519	2996.1495	2243.65	1361.3
1026.864	2997.2131	2223.95	1344.25
1026.9761	2998.276	2208.55	1329.15
1027.0882	2999.3383	2195.75	1314.4
1027.2002	3000.4	2183.75	1302.8
1027.3122	3001.4611	2175.4	1294.35
1027.4241	3002.5215	2164.85	1284.35
1027.536	3003.5812	2143.75	1264.2
1027.6478	3004.6404	2149.5	1268.35
1027.7596	3005.6989	2132.65	1251.7
1027.8714	3006.7567	2130.8	1251.95
1027.9831	3007.8139	2135.35	1226.25
1028.0947	3008.8705	2104.1	1224.15
1028.2064	3009.9264	2106.25	1223.2
1028.3179	3010.9818	2090.7	1211.5
1028.4295	3012.0364	2086.8	1205.4
1028.541	3013.0905	2074.95	1196.5
1028.6524	3014.1439	2077.15	1198.45
1028.7638	3015.1966	2064.15	1185.8
1028.8752	3016.2487	2056.75	1178.55
1028.9865	3017.3002	2060.65	1176.7
1029.0978	3018.3511	2048.6	1170.75
1029.209	3019.4013	2050.95	1171
1029.3202	3020.4509	2040.65	1159.75
1029.4314	3021.4998	2043.35	1166.45
1029.5425	3022.5481	2037.65	1157.55
1029.6535	3023.5958	2029.5	1151.3
1029.7645	3024.6428	2028.85	1148.7
1029.8755	3025.6892	2012.4	1131.9
1029.9864	3026.735	2017.1	1136.05
1030.0973	3027.7802	2015.25	1136.45
1030.2082	3028.8247	2000.7	1120
1030.319	3029.8685	2000.4	1120.05
1030.4297	3030.9118	1992.7	1111.8
1030.5404	3031.9544	1984.8	1106.15
1030.6511	3032.9963	2000	1119.7
1030.7617	3034.0376	1980.35	1100.45
1030.8723	3035.0783	1977.65	1097.75
1030.9829	3036.1184	1978.65	1096.15
1031.0934	3037.1578	1969.45	1091.85
1031.2038	3038.1966	1971.85	1090.1
1031.3142	3039.2348	1964.95	1086.95
1031.4246	3040.2723	1969.3	1080.8
1031.5349	3041.3092	1954.6	1075.1
1031.6452	3042.3455	1957.3	1076.2
1031.7554	3043.3811	1947.7	1067.8
1031.8656	3044.4161	1943.95	1062.25
1031.9758	3045.4505	1939.25	1060.85
1032.0859	3046.4842	1933.7	1053.9
1032.1959	3047.5173	1918.4	1041.2
1032.3059	3048.5498	1923.5	1043.3
1032.4159	3049.5816	1918.4	1038.05
1032.5258	3050.6128	1915.2	1036.55
1032.6357	3051.6434	1906	1025.6
1032.7455	3052.6734	1911.75	1031.35
1032.8553	3053.7027	1899.15	1019.4
1032.9651	3054.7314	1901.7	1021.3
1033.0748	3055.7594	1888.25	1010.2
1033.1845	3056.7868	1892.45	1012.25
1033.2941	3057.8136	1879.4	999.8
1033.4037	3058.8398	1869.85	992.5
1033.5132	3059.8653	1871.2	991.1
1033.6227	3060.8902	1856.35	977.45
1033.7321	3061.9145	1864.3	984.75
1033.8415	3062.9381	1858.55	978.2
1033.9509	3063.9612	1871.75	975
1034.0602	3064.9835	1844.05	965.15
1034.1694	3066.0053	1847.05	965.15
1034.2787	3067.0264	1842.55	963.6
1034.3878	3068.0469	1839.3	959.25
1034.497	3069.0668	1828.55	946.3
1034.6061	3070.086	1821.45	942.65
1034.7151	3071.1046	1815.6	935.05
1034.8241	3072.1226	1808.8	927.4
1034.9331	3073.1399	1802.05	922.85
1035.042	3074.1567	1805.85	925.65
1035.1508	3075.1727	1794.3	914.5
1035.2597	3076.1882	1791	911.45
1035.3684	3077.203	1780.2	898.95
1035.4772	3078.2173	1776.5	895.4
1035.5859	3079.2308	1775.55	893.1
1035.6945	3080.2438	1767.3	888.2
1035.8031	3081.2561	1757.55	877.9
1035.9117	3082.2678	1750.75	872.3
1036.0202	3083.2789	1749.2	870.25
1036.1286	3084.2893	1738.45	861.35
1036.2371	3085.2991	1738.9	857.1
1036.3454	3086.3083	1734.55	851.4
1036.4538	3087.3169	1730.85	851.7
1036.562	3088.3248	1722.7	841.05
1036.6703	3089.3321	1714.2	832.1
1036.7785	3090.3388	1715.5	838
1036.8866	3091.3449	1698.6	818.55
1036.9948	3092.3503	1704.5	821.25
1037.1028	3093.3551	1698.15	818.7
1037.2108	3094.3593	1686.3	807.3
1037.3188	3095.3629	1686.85	807.8
1037.4267	3096.3658	1681.95	800.2
1037.5346	3097.3681	1677.15	796.5
1037.6425	3098.3698	1673.6	793
1037.7503	3099.3708	1676.35	789.95
1037.858	3100.3713	1665.9	788.4
1037.9657	3101.3711	1656.5	776.5
1038.0734	3102.3702	1781.6	769.5
1038.181	3103.3688	1656.15	775.35
1038.2886	3104.3667	1646.25	767.8
1038.3961	3105.364	1637.15	758.15
1038.5036	3106.3607	1633.3	752.95
1038.611	3107.3568	1632.65	753.85
1038.7184	3108.3522	1624.2	745.2
1038.8257	3109.347	1627.75	747.95
1038.933	3110.3412	1621.6	736.9
1039.0403	3111.3348	1606.3	729.65
1039.1475	3112.3277	1611.25	731.4
1039.2547	3113.32	1603.25	723.7
1039.3618	3114.3117	1597.3	717.6
1039.4689	3115.3028	1595.95	716.6
1039.5759	3116.2932	1594.85	714.85
1039.6829	3117.2831	1590.3	706.05
1039.7898	3118.2723	1584.5	706.7
1039.8967	3119.2608	1580.15	701.95
1040.0035	3120.2488	1573.65	694.4
1040.1103	3121.2361	1571.3	690.95
1040.2171	3122.2229	1563	684.8
1040.3238	3123.209	1566.1	685.15
1040.4305	3124.1944	1564.3	685.6
1040.5371	3125.1793	1557.45	675.7
1040.6437	3126.1635	1545	666.55
1040.7502	3127.1471	1545.4	665.8
1040.8567	3128.1301	1541.1	662.5
1040.9631	3129.1125	1538.35	659.9
1041.0695	3130.0942	1538.4	660.2
1041.1759	3131.0753	1545.65	658.85
1041.2822	3132.0558	1537.35	655.55
1041.3884	3133.0357	1526.95	648.15
1041.4946	3134.015	1522.6	641.7
1041.6008	3134.9936	1525.05	644.6
1041.7069	3135.9716	1542.75	643.4
1041.813	3136.949	1524.45	646.35
1041.919	3137.9258	1520.25	634
1042.025	3138.902	1516.05	633.05
1042.1309	3139.8775	1508.1	629.55
1042.2368	3140.8524	1510.45	632.35
1042.3427	3141.8267	1501.8	619.7
1042.4485	3142.8004	1498.25	618.85
1042.5542	3143.7735	1510.8	625.5
1042.6599	3144.7459	1495.65	615.45
1042.7656	3145.7178	1492.65	612.7
1042.8712	3146.689	1493.45	614.15
1042.9768	3147.6596	1490.55	609.85
1043.0823	3148.6295	1484.45	603.8
1043.1878	3149.5989	1484.2	604.8
1043.2932	3150.5676	1475	598.4
1043.3986	3151.5357	1469.4	592.5
1043.5039	3152.5032	1465.5	588.7
1043.6092	3153.4701	1475.35	596.85
1043.7145	3154.4364	1461.45	580.45
1043.8197	3155.402	1455.1	577.05
1043.9248	3156.367	1452.3	572.1
1044.03	3157.3315	1486.35	569.75
1044.135	3158.2952	1449.2	569.95
1044.24	3159.2584	1444	564.35
1044.345	3160.221	1440.8	561.35
1044.4499	3161.1829	1436.05	555.95
1044.5548	3162.1442	1431.65	553
1044.6596	3163.105	1435.85	557.15
1044.7644	3164.065	1424.45	545.35
1044.8692	3165.0245	1432.35	551.05
1044.9739	3165.9834	1423.95	546.85
1045.0785	3166.9416	1427.65	548.7
1045.1831	3167.8993	1417.6	538.05
1045.2877	3168.8563	1409.3	529.8
1045.3922	3169.8127	1407.7	527.15
1045.4966	3170.7684	1409.8	531.9
1045.6011	3171.7236	1404.45	525.55
1045.7054	3172.6782	1403.15	523.75
1045.8098	3173.6321	1394.65	516.8
1045.914	3174.5854	1411.15	528.7
1046.0183	3175.5381	1397.7	520.6
1046.1224	3176.4902	1399.15	521.55
1046.2266	3177.4417	1384.25	507.4
1046.3307	3178.3926	1385.65	506.65
1046.4347	3179.3428	1381.75	504.5
1046.5387	3180.2924	1380.9	501.1
1046.6427	3181.2415	1377.7	498.25
1046.7466	3182.1899	1375.05	497.4
1046.8504	3183.1377	1373.9	495.05
1046.9542	3184.0848	1372.4	489.35
1047.058	3185.0314	1366.65	486.75
1047.1617	3185.9773	1367.65	487.35
1047.2654	3186.9227	1364.2	485.95
1047.369	3187.8674	1360.1	480.6
1047.4726	3188.8115	1363.75	481.05
1047.5761	3189.755	1350.35	473.2
1047.6796	3190.6979	1354.2	477.45
1047.783	3191.6402	1348.7	472.1
1047.8864	3192.5818	1346.2	469.2
1047.9898	3193.5229	1363.45	468.1
1048.0931	3194.4633	1346.4	468.05
1048.1963	3195.4031	1346.25	467.45
1048.2995	3196.3423	1335.7	458.1
1048.4027	3197.2809	1336.85	456.45
1048.5058	3198.2189	1334.5	455.25
1048.6089	3199.1563	1344.6	449.45
1048.7119	3200.0931	1330.2	454.7
1048.8148	3201.0292	1329.25	449.9
1048.9178	3201.9648	1323.1	447.2
1049.0206	3202.8997	1319.55	439.5
1049.1235	3203.834	1322.75	442.8
1049.2262	3204.7677	1314.3	435
1049.329	3205.7008	1311.5	428.8
1049.4317	3206.6333	1311.9	434
1049.5343	3207.5652	1315.5	433.95
1049.6369	3208.4964	1302.15	424.5
1049.7394	3209.4271	1307.9	430.75
1049.8419	3210.3571	1303.05	425.45
1049.9444	3211.2865	1306.05	426.35
1050.0468	3212.2154	1301.25	421.6
1050.1491	3213.1436	1301.55	419.35
1050.2514	3214.0712	1309.25	424.8
1050.3537	3214.9982	1290.65	410.7
1050.4559	3215.9246	1289.1	411
1050.5581	3216.8503	1288.2	409
1050.6602	3217.7755	1291	411.25
1050.7623	3218.7001	1278.2	400.55
1050.8643	3219.624	1279.4	401.55
1050.9663	3220.5473	1280.5	402.5
1051.0682	3221.4701	1282.8	401.75
1051.1701	3222.3922	1278.45	398.95
1051.2719	3223.3137	1269.95	392.6
1051.3737	3224.2346	1271.7	391.55
1051.4754	3225.1549	1272.9	394.65
1051.5771	3226.0746	1267.5	389.05
1051.6788	3226.9937	1266.65	386.75
1051.7804	3227.9121	1264.6	388.25
1051.8819	3228.83	1263.75	385.8
1051.9834	3229.7473	1256.4	379.9
1052.0849	3230.6639	1255.3	375
1052.1863	3231.5799	1251.95	372.55
1052.2876	3232.4954	1251.55	372.45
1052.3889	3233.4102	1250.2	371.2
1052.4902	3234.3244	1249.1	369.1
1052.5914	3235.238	1244.45	367.85
1052.6926	3236.151	1268.9	365.15
1052.7937	3237.0634	1236.45	357.65
1052.8948	3237.9752	1239.8	361.55
1052.9958	3238.8864	1239.5	359.75
1053.0968	3239.797	1231.55	352.75
1053.1977	3240.7069	1228.85	348.4
1053.2986	3241.6163	1229.7	349.8
1053.3994	3242.5251	1226.95	349
1053.5002	3243.4332	1226.5	350.85
1053.6009	3244.3408	1228.75	349.2
1053.7016	3245.2477	1220.45	340.45
1053.8022	3246.154	1224.15	345.05
1053.9028	3247.0598	1227.4	347.7
1054.0034	3247.9649	1211.65	332.85
1054.1039	3248.8694	1212	333.35
1054.2043	3249.7733	1205.05	327.25
1054.3047	3250.6766	1213.45	333.4
1054.4051	3251.5793	1206.1	326.6
1054.5054	3252.4814	1206.95	326.25
1054.6056	3253.3829	1203.2	325.65
1054.7058	3254.2838	1201.25	322.65
1054.806	3255.1841	1199.65	321.3
1054.9061	3256.0838	1197.25	319.45
1055.0061	3256.9829	1191.6	313.75
1055.1062	3257.8814	1195	316.55
1055.2061	3258.7792	1193.15	311.45
1055.306	3259.6765	1186.2	307.25
1055.4059	3260.5731	1176.8	298.4
1055.5057	3261.4692	1182.6	303.8
1055.6055	3262.3647	1170.2	292.8
1055.7052	3263.2595	1168.05	289.4
1055.8049	3264.1538	1167.9	288.45
1055.9045	3265.0474	1165.6	285.8
1056.0041	3265.9404	1160.05	283.65
1056.1036	3266.8329	1149.3	273.35
1056.2031	3267.7247	1154.2	266.65
1056.3025	3268.616	1141.8	262.95
1056.4019	3269.5066	1140.15	260.55
1056.5013	3270.3966	1129.6	248.8
1056.6005	3271.286	1118.2	239
