Software Version:	3.9.2.0
Unit SN:	10000200
Spectrometer SN:	6960
Date:	3/6/2024 10:26:23 AM
Data Line Index:	25
Spectral Points:	2048
Integration time (ms):	125
Averages:	20
Delay (ms):	30
Sequence Number:	1
Processing:	dark subtract
Laser Power (mW):	305
Laser Current (mA):	825
Laser Diode Temp (C):	25.1
Laser Case Temp (C):	26
System Temp (C):	25.7
Spectrometer Temp (C):	23.2
CCD Temp (C):	0.012
Secondary Temp (C):	20.01
Heatsink Temp (C):	21.274
CCDPCB Temp (C):	35.707
SecondaryPCB Temp (C):	29.415

Wavelength	RamanShift	Raw Counts	Dark Subtracted
787.061	30.1047	1086.65	675.2
787.2016	32.3739	1116.35	704.65
787.3422	34.6426	1155.75	743.2
787.4828	36.9109	1208.1	795.65
787.6235	39.1787	1258.9	841.05
787.7642	41.4461	1316.9	897.75
787.9049	43.7131	1374.85	950.05
788.0456	45.9796	1441.4	1014.25
788.1863	48.2456	1501.55	1069.85
788.3271	50.5112	1553.9	1116.5
788.4679	52.7764	1632.05	1193.95
788.6087	55.0411	1707.6	1267.1
788.7496	57.3054	1781.6	1334
788.8904	59.5692	1864.1	1415.8
789.0313	61.8326	1948.1	1494.55
789.1722	64.0955	2041.5	1587.35
789.3132	66.3579	2164.6	1704.2
789.4541	68.6199	2303	1839.7
789.5951	70.8815	2549.55	2082.7
789.7361	73.1426	3056.55	2583.7
789.8771	75.4032	4363.45	3887
790.0181	77.6634	7702.75	7222
790.1592	79.9231	16450.1	15962.3
790.3003	82.1824	52354.05	51854.65
790.4414	84.4412	65535	65016.5
790.5825	86.6995	65535	64989.25
790.7237	88.9574	65535	64963.5
790.8648	91.2148	65535	64947.7
791.006	93.4717	65535	64938.1
791.1472	95.7282	65535	64931.9
791.2885	97.9842	65535	64926.4
791.4297	100.2398	65535	64924.45
791.571	102.4949	65535	64921.45
791.7123	104.7495	65535	64915.2
791.8536	107.0036	65535	64914.75
791.9949	109.2573	65535	64917.2
792.1363	111.5105	65535	64913.6
792.2777	113.7632	65535	64914.45
792.4191	116.0154	65535	64899.9
792.5605	118.2672	65535	64910.85
792.7019	120.5185	65535	64911.05
792.8434	122.7693	65535	64904.8
792.9849	125.0197	65535	64900.5
793.1264	127.2696	65535	64897.4
793.2679	129.519	65535	64894.7
793.4094	131.7679	65535	64892
793.551	134.0163	65535	64889.95
793.6926	136.2642	65535	64884
793.8342	138.5117	65535	64878.15
793.9758	140.7587	65535	64883.3
794.1175	143.0052	65535	64875.45
794.2591	145.2512	65535	64877.15
794.4008	147.4967	65535	64878.05
794.5425	149.7417	65535	64875
794.6842	151.9863	65535	64869.25
794.826	154.2304	65535	64867.4
794.9677	156.4739	65535	64859.95
795.1095	158.717	65535	64863.8
795.2513	160.9596	65535	64856.75
795.3931	163.2017	65535	64858.4
795.535	165.4433	65535	64854.5
795.6768	167.6844	65535	64852
795.8187	169.925	65535	64848.65
795.9606	172.1651	65535	64847.55
796.1025	174.4047	65535	64844.7
796.2445	176.6439	65535	64840
796.3864	178.8825	65535	64836.9
796.5284	181.1206	65535	64834.2
796.6704	183.3582	65535	64831
796.8124	185.5954	65535	64829.55
796.9544	187.832	65535	64823.4
797.0965	190.0681	65535	64823.2
797.2386	192.3037	65535	64819.4
797.3806	194.5388	65535	64815.05
797.5228	196.7734	65535	64810.35
797.6649	199.0075	65535	64809.8
797.807	201.2411	65535	64809.45
797.9492	203.4742	65535	64811.05
798.0914	205.7068	65535	64808.4
798.2336	207.9389	65535	64806.2
798.3758	210.1704	65535	64803.6
798.518	212.4015	65535	64810.1
798.6603	214.632	65535	64821.3
798.8025	216.862	65535	64829.15
798.9448	219.0915	65535	64823.5
799.0871	221.3205	65535	64821.5
799.2294	223.549	65535	64827.2
799.3718	225.777	65535	64828.4
799.5141	228.0044	65535	64822.4
799.6565	230.2314	65535	64822.1
799.7989	232.4578	65535	64818.3
799.9413	234.6837	65535	64806.4
800.0837	236.909	65535	64809.05
800.2262	239.1339	65535	64780.35
800.3687	241.3582	65535	64801.95
800.5111	243.582	65535	64768.8
800.6536	245.8053	65535	64779.4
800.7961	248.0281	65535	64784.8
800.9387	250.2503	65535	64777.35
801.0812	252.472	65535	64778.2
801.2238	254.6932	65535	64779
801.3664	256.9139	65535	64778.35
801.509	259.134	65535	64775.1
801.6516	261.3536	65535	64774.45
801.7942	263.5727	65535	64773.85
801.9369	265.7912	65535	64775.4
802.0795	268.0092	65535	64771.8
802.2222	270.2267	65535	64770.1
802.3649	272.4436	65535	64770
802.5076	274.6601	65535	64761.2
802.6504	276.8759	65535	64762.8
802.7931	279.0913	65535	64764.3
802.9359	281.3061	65535	64764.2
803.0787	283.5204	65535	64759.5
803.2215	285.7341	65535	64753.4
803.3643	287.9473	65535	64744.65
803.5071	290.16	65535	64756.35
803.6499	292.3721	65535	64759.45
803.7928	294.5837	65535	64757.95
803.9357	296.7947	65535	64757.35
804.0786	299.0052	65535	64755.85
804.2215	301.2152	65535	64754.05
804.3644	303.4246	65535	64757.35
804.5074	305.6334	65535	64756.5
804.6503	307.8418	65535	64755.35
804.7933	310.0495	65535	64753.6
804.9363	312.2568	65535	64750.45
805.0793	314.4635	65535	64751.65
805.2223	316.6696	65535	64747.5
805.3653	318.8752	65535	64737.3
805.5084	321.0802	65535	64751.4
805.6514	323.2847	65535	64742.8
805.7945	325.4887	65535	64743.95
805.9376	327.692	65535	64742.65
806.0807	329.8949	65535	64740.35
806.2238	332.0972	65535	64741.7
806.367	334.2989	65535	64736.85
806.5101	336.5001	65535	64735.25
806.6533	338.7007	65535	64735.25
806.7965	340.9008	65535	64737.1
806.9397	343.1003	65535	64733.7
807.0829	345.2992	65535	64735.05
807.2261	347.4976	65535	64732.25
807.3693	349.6955	65535	64728.25
807.5126	351.8927	65535	64729.75
807.6559	354.0895	65535	64714.3
807.7991	356.2856	65535	64726.25
807.9424	358.4812	65535	64726.55
808.0857	360.6763	65535	64724.25
808.2291	362.8707	65535	64722.5
808.3724	365.0646	65535	64718.35
808.5158	367.258	65535	64716.6
808.6591	369.4508	65535	64713.55
808.8025	371.643	65535	64717.15
808.9459	373.8346	65535	64711.5
809.0893	376.0257	65535	64711.6
809.2327	378.2162	65535	64713.45
809.3762	380.4062	65535	64708.75
809.5196	382.5956	65535	64706.5
809.6631	384.7844	65535	64710.65
809.8066	386.9726	65535	64715.45
809.9501	389.1603	65535	64718
810.0936	391.3474	65535	64674
810.2371	393.5339	65535	64714.55
810.3806	395.7199	65535	64716.65
810.5241	397.9052	65535	64719.15
810.6677	400.09	65535	64716.5
810.8113	402.2743	65535	64718.6
810.9548	404.4579	65535	64715.85
811.0984	406.641	65535	64717.5
811.2421	408.8235	65535	64712.95
811.3857	411.0054	65535	64708
811.5293	413.1868	65535	64709.3
811.673	415.3675	65535	64703.95
811.8166	417.5477	65535	64702.6
811.9603	419.7273	65535	64698.75
812.104	421.9064	65535	64692.5
812.2477	424.0848	65535	64700.7
812.3914	426.2627	65535	64698.4
812.5351	428.4399	65535	64699.65
812.6788	430.6166	65535	64696.15
812.8226	432.7928	65535	64694.85
812.9663	434.9683	65535	64692.45
813.1101	437.1432	65535	64693.5
813.2539	439.3176	65535	64691.15
813.3977	441.4914	65535	64696.1
813.5415	443.6645	65535	64690.9
813.6853	445.8371	65535	64693.85
813.8291	448.0091	65535	64692.6
813.973	450.1806	65535	64696.25
814.1168	452.3514	65535	64691.2
814.2607	454.5216	65535	64682.8
814.4046	456.6913	65535	64685.7
814.5485	458.8603	65535	64686.9
814.6924	461.0288	65535	64689.75
814.8363	463.1967	65535	64686.9
814.9802	465.3639	65535	64689.1
815.1241	467.5306	65535	64686.5
815.2681	469.6967	65535	64689.45
815.412	471.8622	65535	64690.35
815.556	474.0271	65535	64686.15
815.7	476.1914	65535	64687.6
815.844	478.3551	65535	64687.55
815.988	480.5182	65535	64687.3
816.132	482.6807	65535	64686.6
816.276	484.8426	65535	64688.6
816.4201	487.0039	65535	64686.7
816.5641	489.1647	65535	64683.45
816.7082	491.3248	65535	64685.9
816.8522	493.4843	65535	64683.25
816.9963	495.6432	65535	64679.75
817.1404	497.8015	65535	64678.45
817.2845	499.9592	65535	64679.45
817.4286	502.1163	65535	64678.9
817.5727	504.2728	65535	64678.65
817.7168	506.4287	65535	64682.05
817.861	508.5839	65535	64679.95
818.0051	510.7386	65535	64677.9
818.1493	512.8927	65535	64675.65
818.2935	515.0461	65535	64677.5
818.4377	517.199	65535	64676.6
818.5818	519.3512	65535	64675.75
818.726	521.5029	65535	64672.9
818.8703	523.6539	65535	64675.05
819.0145	525.8043	65535	64673.65
819.1587	527.9541	65535	64668.35
819.303	530.1033	65535	64673.8
819.4472	532.2519	65535	64673.95
819.5915	534.3999	65535	64671.45
819.7357	536.5472	65535	64672
819.88	538.694	65535	64674.85
820.0243	540.8401	65535	64674.15
820.1686	542.9856	65535	64667.75
820.3129	545.1305	65535	64672.75
820.4572	547.2748	65535	64670.15
820.6016	549.4185	65535	64671.05
820.7459	551.5615	65535	64672.3
820.8902	553.704	65535	64670.15
821.0346	555.8458	65535	64670.2
821.1789	557.987	65535	64670.9
821.3233	560.1276	65535	64668.6
821.4677	562.2675	65535	64666.6
821.6121	564.4069	65535	64667.85
821.7565	566.5456	65535	64675.1
821.9009	568.6837	65535	64667.75
822.0453	570.8212	65535	64669.15
822.1897	572.958	65535	64662.4
822.3342	575.0942	65535	64668.25
822.4786	577.2299	65535	64669.95
822.6231	579.3648	65535	64668
822.7675	581.4992	65535	64666.95
822.912	583.6329	65535	64669
823.0565	585.766	65535	64670.15
823.201	587.8985	65535	64670.65
823.3454	590.0304	65535	64641.8
823.4899	592.1616	65535	64661.8
823.6345	594.2922	65535	64663.1
823.779	596.4222	65535	64664.75
823.9235	598.5515	65535	64658.95
824.068	600.6802	65535	64664.05
824.2126	602.8083	65535	64663.85
824.3571	604.9358	65535	64663.8
824.5017	607.0626	65535	64661.4
824.6462	609.1888	65535	64659.65
824.7908	611.3144	65535	64659.55
824.9354	613.4393	65535	64660.05
825.08	615.5636	65535	64659.1
825.2246	617.6873	65535	64660.65
825.3692	619.8103	65535	64658.25
825.5138	621.9327	65535	64657.6
825.6584	624.0544	65535	64660.1
825.803	626.1756	65535	64660.1
825.9477	628.2961	65535	64660.7
826.0923	630.4159	65535	64660.15
826.237	632.5351	65535	64656.25
826.3816	634.6537	65535	64657
826.5263	636.7716	65535	64660.2
826.6709	638.8889	65535	64654.95
826.8156	641.0056	65535	64656.15
826.9603	643.1216	65535	64654.85
827.105	645.237	65535	64655.35
827.2497	647.3518	65535	64653.5
827.3944	649.4659	65535	64657.75
827.5391	651.5793	65535	64656.6
827.6838	653.6922	65535	64656.85
827.8285	655.8043	65535	64654.45
827.9733	657.9159	65535	64654.45
828.118	660.0268	65535	64652.55
828.2627	662.137	65535	64651.95
828.4075	664.2466	65535	64654.15
828.5522	666.3556	65535	64652.3
828.697	668.4639	65535	64648.8
828.8418	670.5716	65535	64653.9
828.9865	672.6786	65535	64650.95
829.1313	674.785	65535	64648.15
829.2761	676.8907	65535	64651.55
829.4209	678.9958	65535	64652.8
829.5657	681.1002	65535	64650.7
829.7105	683.204	65535	64645.8
829.8553	685.3072	65535	64649.05
830.0001	687.4097	65535	64651.3
830.1449	689.5115	65535	64646
830.2898	691.6127	65535	64651
830.4346	693.7132	65535	64649.05
830.5794	695.8131	65535	64640.25
830.7243	697.9123	65535	64644.05
830.8691	700.0109	65535	64646.15
831.014	702.1089	65535	64649.55
831.1588	704.2061	65535	64648.8
831.3037	706.3028	65535	64646.25
831.4486	708.3987	65535	64649.2
831.5935	710.4941	65535	64650.55
831.7383	712.5887	65535	64646.05
831.8832	714.6827	65535	64642.25
832.0281	716.7761	65535	64646.65
832.173	718.8688	65535	64645.85
832.3179	720.9608	65535	64642.25
832.4628	723.0522	65535	64644.25
832.6077	725.1429	65535	64646.7
832.7527	727.233	65535	64648.65
832.8976	729.3224	65535	64644
833.0425	731.4112	65535	64643
833.1874	733.4993	65535	64644.55
833.3324	735.5867	65535	64643.85
833.4773	737.6735	65535	64642.75
833.6222	739.7596	65535	64645.45
833.7672	741.845	65535	64641.85
833.9122	743.9298	65535	64643.65
834.0571	746.014	65535	64642.55
834.2021	748.0974	65535	64641.95
834.347	750.1802	65535	64644.6
834.492	752.2624	65535	64642.1
834.637	754.3439	65535	64642.5
834.782	756.4247	65535	64632.45
834.9269	758.5048	65535	64641.95
835.0719	760.5843	65535	64642.95
835.2169	762.6631	65535	64643.85
835.3619	764.7413	65535	64646.5
835.5069	766.8188	65535	64642.2
835.6519	768.8956	65535	64640.8
835.7969	770.9718	65535	64643.05
835.9419	773.0473	65535	64643.8
836.0869	775.1221	65535	64641.45
836.232	777.1962	65535	64643.4
836.377	779.2697	65535	64639.95
836.522	781.3426	65535	64623.65
836.667	783.4147	65535	64642.25
836.8121	785.4862	65535	64646.25
836.9571	787.557	65535	64641.6
837.1021	789.6271	65535	64640.65
837.2472	791.6966	65535	64641.05
837.3922	793.7654	65535	64641.25
837.5373	795.8335	65535	64640.6
837.6823	797.901	65535	64640.25
837.8274	799.9678	65535	64634.6
837.9724	802.0339	65535	64641.65
838.1175	804.0993	65535	64630.6
838.2626	806.1641	65535	64639.45
838.4076	808.2282	65535	64643.4
838.5527	810.2916	65535	64637.35
838.6978	812.3544	65535	64643.1
838.8428	814.4164	65535	64642.3
838.9879	816.4778	65535	64640.25
839.133	818.5385	65535	64640.3
839.2781	820.5986	65535	64639.25
839.4232	822.658	65535	64637.85
839.5682	824.7166	65535	64638.35
839.7133	826.7747	65535	64640.6
839.8584	828.832	65535	64641.65
840.0035	830.8886	65535	64636.65
840.1486	832.9446	65535	64639.35
840.2937	834.9999	65535	64642.65
840.4388	837.0545	65535	64634.4
840.5839	839.1085	65535	64636.5
840.729	841.1618	65535	64636.85
840.8741	843.2143	65535	64638.05
841.0192	845.2662	65535	64638.55
841.1643	847.3175	65535	64640.65
841.3095	849.368	65535	64639.75
841.4546	851.4179	65535	64639.4
841.5997	853.467	65535	64637.75
841.7448	855.5155	65535	64637.7
841.8899	857.5633	65535	64638.55
842.0351	859.6105	65535	64635.85
842.1802	861.6569	65535	64639.95
842.3253	863.7027	65535	64636.75
842.4704	865.7478	65535	64635.1
842.6156	867.7922	65535	64637.25
842.7607	869.8359	65535	64634.6
842.9058	871.8789	65535	64638.6
843.0509	873.9212	65535	64603.5
843.1961	875.9629	65535	64635
843.3412	878.0039	65535	64638.8
843.4863	880.0441	65535	64637.9
843.6315	882.0837	65535	64637.05
843.7766	884.1226	65535	64635.5
843.9218	886.1609	65535	64638.45
844.0669	888.1984	65535	64637.05
844.212	890.2352	65535	64640.05
844.3572	892.2714	65535	64636.05
844.5023	894.3069	65535	64635.8
844.6475	896.3416	65535	64632.65
844.7926	898.3757	65535	64635.7
844.9377	900.4091	65535	64634.3
845.0829	902.4418	65535	64633.2
845.228	904.4739	65535	64633.25
845.3732	906.5052	65535	64636.75
845.5183	908.5358	65535	64638.1
845.6635	910.5658	65535	64634.5
845.8086	912.595	65535	64637.55
845.9538	914.6236	65535	64635.5
846.0989	916.6515	65535	64636.15
846.2441	918.6786	65535	64635.15
846.3892	920.7051	65535	64635.7
846.5344	922.7309	65535	64637.2
846.6795	924.756	65535	64636.4
846.8246	926.7804	65535	64633.85
846.9698	928.8041	65535	64631.35
847.1149	930.8272	65535	64637
847.2601	932.8495	65535	64632.35
847.4052	934.8711	65535	64635.3
847.5504	936.892	65535	64636
847.6955	938.9123	65535	64634
847.8407	940.9318	65535	64635.75
847.9858	942.9506	65535	64634.05
848.131	944.9688	65535	64632.3
848.2761	946.9862	65535	64635.05
848.4213	949.003	65535	64634.1
848.5664	951.019	65535	64635.6
848.7115	953.0344	65535	64634.45
848.8567	955.0491	65535	64633.3
849.0018	957.063	65535	64636.05
849.147	959.0763	65535	64632.6
849.2921	961.0888	65535	64632.95
849.4373	963.1007	65535	64634.3
849.5824	965.1119	65535	64635.05
849.7275	967.1223	65535	64635.95
849.8727	969.1321	65535	64639.3
850.0178	971.1412	65535	64635.7
850.1629	973.1495	65535	64634.05
850.3081	975.1572	65535	64601.85
850.4532	977.1641	65535	64634.15
850.5983	979.1704	65535	64633.2
850.7435	981.1759	65535	64631.9
850.8886	983.1808	65535	64632.9
851.0337	985.1849	65535	64623.3
851.1788	987.1884	65535	64631.6
851.324	989.1911	65535	64631.65
851.4691	991.1932	65535	64633.6
851.6142	993.1945	65535	64632.85
851.7593	995.1951	65535	64634.5
851.9045	997.1951	65535	64628.95
852.0496	999.1943	65535	64634.1
852.1947	1001.1928	65535	64634
852.3398	1003.1906	65535	64632.9
852.4849	1005.1877	65535	64631.85
852.63	1007.1841	65535	64636.05
852.7751	1009.1798	65535	64635.05
852.9202	1011.1748	65535	64633.5
853.0653	1013.1691	65535	64633.7
853.2104	1015.1627	65535	64631.2
853.3555	1017.1556	65535	64631.65
853.5006	1019.1477	65535	64632.85
853.6457	1021.1392	65535	64635.95
853.7908	1023.1299	65535	64636.7
853.9359	1025.12	65535	64635.2
854.081	1027.1093	65535	64638.5
854.2261	1029.0979	65535	64640.3
854.3712	1031.0859	65535	64637.65
854.5163	1033.0731	65535	64636.6
854.6613	1035.0596	65535	64635.45
854.8064	1037.0454	65535	64636.1
854.9515	1039.0304	65535	64634.45
855.0965	1041.0148	65535	64636.25
855.2416	1042.9985	65535	64632.75
855.3867	1044.9814	65535	64633.05
855.5317	1046.9636	65535	64632
855.6768	1048.9452	65535	64635.4
855.8219	1050.926	65535	64636.1
855.9669	1052.9061	65535	64636.65
856.112	1054.8855	65535	64635.05
856.257	1056.8642	65535	64635.6
856.4021	1058.8421	65535	64629.5
856.5471	1060.8194	65535	64633.8
856.6921	1062.7959	65535	64634.05
856.8372	1064.7717	65535	64631.9
856.9822	1066.7469	65535	64632.15
857.1272	1068.7213	65535	64633.65
857.2723	1070.695	65535	64634.65
857.4173	1072.6679	65535	64634.05
857.5623	1074.6402	65535	64634.3
857.7073	1076.6117	65535	64629.65
857.8523	1078.5826	65535	64631.85
857.9973	1080.5527	65535	64631.2
858.1423	1082.5221	65535	64632.8
858.2873	1084.4908	65535	64634.15
858.4323	1086.4587	65535	64634.4
858.5773	1088.426	65535	64635.5
858.7223	1090.3925	65535	64630.25
858.8673	1092.3584	65535	64633.9
859.0123	1094.3235	65535	64635.75
859.1573	1096.2879	65535	64634.85
859.3022	1098.2515	65535	64635.7
859.4472	1100.2145	65535	64633.15
859.5922	1102.1767	65535	64633.7
859.7371	1104.1382	65535	64636.05
859.8821	1106.099	65535	64633.1
860.027	1108.0591	65535	64633.75
860.172	1110.0185	65535	64633.5
860.3169	1111.9771	65535	64635.85
860.4619	1113.9351	65535	64636.15
860.6068	1115.8923	65535	64636.2
860.7517	1117.8488	65535	64631
860.8967	1119.8045	65535	64632.65
861.0416	1121.7596	65535	64633.5
861.1865	1123.7139	65535	64636.6
861.3314	1125.6675	65535	64633.2
861.4763	1127.6204	65535	64635.95
861.6212	1129.5726	65535	64632.7
861.7661	1131.524	65535	64635.75
861.911	1133.4748	65535	64635.3
862.0559	1135.4248	65535	64631
862.2008	1137.3741	65535	64633.45
862.3457	1139.3226	65535	64635.25
862.4905	1141.2705	65535	64636.55
862.6354	1143.2176	65535	64630.35
862.7803	1145.164	65535	64633.85
862.9251	1147.1097	65535	64634.5
863.07	1149.0546	65535	64631.15
863.2148	1150.9989	65535	64631.35
863.3597	1152.9424	65535	64633.45
863.5045	1154.8852	65535	64634.25
863.6493	1156.8272	65535	64635.15
863.7942	1158.7686	65535	64631.05
863.939	1160.7092	65535	64632.25
864.0838	1162.6491	65535	64630.4
864.2286	1164.5883	65535	64633.3
864.3734	1166.5267	65535	64632.6
864.5182	1168.4644	65535	64636.85
864.663	1170.4014	65535	64631.2
864.8078	1172.3377	65535	64635.95
864.9526	1174.2732	65535	64635.2
865.0974	1176.2081	65535	64633.85
865.2421	1178.1421	65535	64631.4
865.3869	1180.0755	65535	64633.45
865.5317	1182.0082	65535	64636.35
865.6764	1183.9401	65535	64633.9
865.8212	1185.8713	65535	64636.15
865.9659	1187.8017	65535	64638.25
866.1106	1189.7315	65535	64637.15
866.2554	1191.6605	65535	64610.55
866.4001	1193.5888	65535	64637.2
866.5448	1195.5163	65535	64635.9
866.6895	1197.4432	65535	64632.55
866.8342	1199.3693	65535	64637.6
866.9789	1201.2947	65535	64632.55
867.1236	1203.2193	65535	64633.5
867.2683	1205.1432	65535	64635.4
867.413	1207.0664	65535	64635.95
867.5576	1208.9889	65535	64632.7
867.7023	1210.9106	65535	64634.3
867.847	1212.8316	65535	64636.2
867.9916	1214.7519	65535	64624.6
868.1363	1216.6715	65535	64635.2
868.2809	1218.5903	65535	64637.45
868.4255	1220.5084	65535	64633.55
868.5701	1222.4257	65535	64636.25
868.7148	1224.3424	65535	64633
868.8594	1226.2583	65535	64629
869.004	1228.1735	65535	64633.65
869.1486	1230.0879	65535	64634.85
869.2932	1232.0016	65535	64637.9
869.4377	1233.9146	65535	64633.3
869.5823	1235.8269	65535	64635.35
869.7269	1237.7384	65535	64634.8
869.8715	1239.6492	65535	64634.35
870.016	1241.5592	65535	64634.35
870.1606	1243.4686	65535	64635
870.3051	1245.3772	65535	64637.9
870.4496	1247.285	65535	64635.15
870.5941	1249.1922	65535	64634.35
870.7387	1251.0986	65535	64638.05
870.8832	1253.0042	65535	64634.95
871.0277	1254.9092	65535	64634.45
871.1722	1256.8134	65535	64638.45
871.3167	1258.7169	65535	64633.25
871.4611	1260.6196	65535	64634
871.6056	1262.5216	65535	64634.65
871.7501	1264.4229	65535	64638.15
871.8945	1266.3234	65535	64637.3
872.039	1268.2232	65535	64633.55
872.1834	1270.1223	65535	64633.3
872.3278	1272.0207	65535	64633.65
872.4723	1273.9183	65535	64629.55
872.6167	1275.8151	65535	64634
872.7611	1277.7113	65535	64635
872.9055	1279.6067	65535	64636.2
873.0499	1281.5014	65535	64632.25
873.1943	1283.3953	65535	64633.15
873.3386	1285.2885	65535	64637.95
873.483	1287.181	65535	64635.25
873.6274	1289.0727	65535	64635.2
873.7717	1290.9637	65535	64636.9
873.9161	1292.854	65535	64635.55
874.0604	1294.7435	65535	64636.2
874.2047	1296.6323	65535	64636.7
874.349	1298.5204	65535	64633.85
874.4933	1300.4077	65535	64636.1
874.6376	1302.2943	65535	64638.3
874.7819	1304.1802	65535	64636.1
874.9262	1306.0653	65535	64631.65
875.0705	1307.9497	65535	64634.8
875.2147	1309.8333	65535	64635.4
875.359	1311.7162	65535	64635.4
875.5032	1313.5984	65535	64633.8
875.6475	1315.4798	65535	64633.9
875.7917	1317.3605	65535	64620.3
875.9359	1319.2405	65535	64633
876.0801	1321.1197	65535	64633.85
876.2243	1322.9982	65535	64632.9
876.3685	1324.876	65535	64635.15
876.5127	1326.753	65535	64633.75
876.6569	1328.6293	65535	64633.5
876.801	1330.5048	65535	64633.1
876.9452	1332.3796	65535	64636.35
877.0893	1334.2537	65535	64611.25
877.2335	1336.127	65535	64635.75
877.3776	1337.9996	65535	64635.1
877.5217	1339.8714	65535	64636.15
877.6658	1341.7426	65535	64591.1
877.8099	1343.6129	65535	64636.1
877.954	1345.4826	65535	64635.5
878.0981	1347.3515	65535	64632.4
878.2422	1349.2196	65535	64636.75
878.3862	1351.087	65535	64636.5
878.5303	1352.9537	65535	64635.45
878.6743	1354.8197	65535	64635.15
878.8184	1356.6849	65535	64634.25
878.9624	1358.5493	65535	64635.7
879.1064	1360.4131	65535	64635.4
879.2504	1362.276	65535	64635.9
879.3944	1364.1383	65535	64635
879.5384	1365.9998	65535	64630.55
879.6823	1367.8606	65535	64633.75
879.8263	1369.7206	65535	64635.4
879.9702	1371.5799	65535	64634.6
880.1142	1373.4384	65535	64635.35
880.2581	1375.2962	65535	64636.05
880.402	1377.1533	65535	64636.95
880.5459	1379.0096	65535	64634.45
880.6898	1380.8652	65535	64635.25
880.8337	1382.7201	65535	64636.85
880.9776	1384.5742	65535	64633.9
881.1215	1386.4275	65535	64633.1
881.2653	1388.2802	65535	64636.2
881.4092	1390.132	65535	64635.25
881.553	1391.9832	65535	64634.85
881.6968	1393.8336	65535	64635.75
881.8406	1395.6832	65535	64634.75
881.9844	1397.5322	65535	64635.9
882.1282	1399.3803	65535	64631.6
882.272	1401.2278	65535	64635.55
882.4158	1403.0745	65535	64636.15
882.5595	1404.9204	65535	64636.3
882.7033	1406.7656	65535	64635.9
882.847	1408.6101	65535	64636
882.9908	1410.4538	65535	64635.25
883.1345	1412.2968	65535	64634.5
883.2782	1414.139	65535	64636.95
883.4219	1415.9805	65535	64636.9
883.5656	1417.8213	65535	64629.3
883.7092	1419.6613	65535	64636
883.8529	1421.5006	65535	64633.4
883.9965	1423.3391	65535	64635.25
884.1402	1425.1769	65535	64634.4
884.2838	1427.0139	65535	64636.65
884.4274	1428.8502	65535	64633.65
884.571	1430.6858	65535	64633.95
884.7146	1432.5206	65535	64633.9
884.8582	1434.3547	65535	64635.1
885.0018	1436.188	65535	64636.85
885.1453	1438.0206	65535	64635.2
885.2889	1439.8524	65535	64637.9
885.4324	1441.6835	65535	64635.65
885.5759	1443.5139	65535	64631.05
885.7194	1445.3435	65535	64637.6
885.8629	1447.1724	65535	64636.2
886.0064	1449.0005	65535	64639
886.1499	1450.8279	65535	64634.6
886.2933	1452.6545	65535	64636.25
886.4368	1454.4804	65535	64635.5
886.5802	1456.3056	65535	64629.3
886.7237	1458.13	65535	64638.5
886.8671	1459.9536	65535	64637.1
887.0105	1461.7766	65535	64637.8
887.1539	1463.5987	65535	64635.4
887.2972	1465.4202	65535	64636.6
887.4406	1467.2409	65535	64635.75
887.584	1469.0608	65535	64637.9
887.7273	1470.88	65535	64636.3
887.8706	1472.6984	65535	64638.4
888.0139	1474.5161	65535	64633.45
888.1572	1476.3331	65535	64636.6
888.3005	1478.1493	65535	64635.85
888.4438	1479.9648	65535	64636.6
888.5871	1481.7795	65535	64633.4
888.7303	1483.5935	65535	64636.95
888.8736	1485.4067	65535	64636.1
889.0168	1487.2192	65535	64638.85
889.16	1489.031	65535	64635.65
889.3032	1490.842	65535	64637.1
889.4464	1492.6522	65535	64636.55
889.5896	1494.4618	65535	64635.8
889.7327	1496.2705	65535	64637.75
889.8759	1498.0785	65535	64636.6
890.019	1499.8858	65535	64636.45
890.1622	1501.6924	65535	64638.05
890.3053	1503.4981	65535	64636.3
890.4484	1505.3032	65535	64637.2
890.5914	1507.1075	65535	64638.05
890.7345	1508.911	65535	64638.05
890.8776	1510.7138	65535	64637.25
891.0206	1512.5159	65535	64636.55
891.1637	1514.3172	65535	64638.3
891.3067	1516.1178	65535	64636.25
891.4497	1517.9176	65535	64635.9
891.5927	1519.7166	65535	64638.9
891.7357	1521.515	65535	64631.4
891.8786	1523.3126	65535	64636.75
892.0216	1525.1094	65535	64635.7
892.1645	1526.9055	65535	64638.15
892.3074	1528.7008	65535	64637.1
892.4503	1530.4954	65535	64637.35
892.5932	1532.2893	65535	64638.55
892.7361	1534.0824	65535	64631.75
892.879	1535.8747	65535	64639.1
893.0218	1537.6663	65535	64637.5
893.1647	1539.4572	65535	64636.35
893.3075	1541.2473	65535	64637.5
893.4503	1543.0367	65535	64637.95
893.5931	1544.8253	65535	64634.5
893.7359	1546.6132	65535	64636.8
893.8787	1548.4003	65535	64626.95
894.0214	1550.1867	65535	64631.6
894.1642	1551.9723	65535	64633.5
894.3069	1553.7572	65535	64639.6
894.4496	1555.5414	65535	64639.35
894.5923	1557.3247	65535	64637.85
894.735	1559.1074	65535	64641.85
894.8777	1560.8893	65535	64639.2
895.0204	1562.6705	65535	64637.7
895.163	1564.4509	65535	64638.9
895.3056	1566.2305	65535	64641.45
895.4482	1568.0094	65535	64642.15
895.5908	1569.7876	65535	64638.95
895.7334	1571.565	65535	64639.05
895.876	1573.3417	65535	64640.2
896.0186	1575.1176	65535	64638
896.1611	1576.8928	65535	64639.05
896.3036	1578.6672	65535	64640.65
896.4461	1580.4409	65535	64641.8
896.5886	1582.2138	65535	64639.15
896.7311	1583.986	65535	64638.85
896.8736	1585.7575	65535	64641.8
897.0161	1587.5282	65535	64642.05
897.1585	1589.2981	65535	64641.25
897.3009	1591.0673	65535	64640.4
897.4433	1592.8358	65535	64641.25
897.5857	1594.6035	65535	64637
897.7281	1596.3704	65535	64638.15
897.8705	1598.1366	65535	64638.3
898.0128	1599.9021	65535	64641.7
898.1551	1601.6668	65535	64639.8
898.2975	1603.4308	65535	64639.8
898.4398	1605.194	65535	64635.25
898.5821	1606.9564	65535	64640.8
898.7243	1608.7182	65535	64639.75
898.8666	1610.4791	65535	64642.95
899.0088	1612.2394	65535	64641.7
899.1511	1613.9988	65535	64641.5
899.2933	1615.7576	65535	64640.45
899.4355	1617.5156	65535	64636.4
899.5776	1619.2728	65535	64638.9
899.7198	1621.0293	65535	64641.25
899.862	1622.785	65535	64636.5
900.0041	1624.54	65535	64637.85
900.1462	1626.2942	65535	64640.8
900.2883	1628.0477	65535	64640.1
900.4304	1629.8005	65535	64638.8
900.5725	1631.5525	65535	64641.55
900.7145	1633.3037	65535	64640.3
900.8566	1635.0542	65535	64640.85
900.9986	1636.804	65535	64643.25
901.1406	1638.553	65535	64552.45
901.2826	1640.3013	65535	64641.6
901.4245	1642.0488	65535	64640.3
901.5665	1643.7955	65535	64643.4
901.7085	1645.5416	65535	64643.05
901.8504	1647.2868	65535	64642.45
901.9923	1649.0313	65535	64640.1
902.1342	1650.7751	65535	64638.95
902.2761	1652.5181	65535	64642.8
902.4179	1654.2604	65535	64642.1
902.5598	1656.0019	65535	64640.95
902.7016	1657.7427	65535	64640.75
902.8434	1659.4828	65535	64642.9
902.9852	1661.222	65535	64639.85
903.127	1662.9606	65535	64642.7
903.2687	1664.6984	65533.1	64638.4
903.4105	1666.4354	65535	64643.15
903.5522	1668.1717	65530.05	64636.85
903.6939	1669.9072	65492.65	64600.85
903.8356	1671.642	65506.9	64611.45
903.9773	1673.3761	65491.45	64600.6
904.119	1675.1094	65469.45	64578.15
904.2606	1676.8419	65335.75	64442.2
904.4022	1678.5737	65404.85	64511.55
904.5439	1680.3048	65376.6	64483.9
904.6855	1682.0351	65315.55	64422.7
904.827	1683.7646	65270.1	64375.65
904.9686	1685.4934	65341.15	64449.95
905.1101	1687.2215	65090.95	64194.65
905.2517	1688.9488	65315.35	64423.2
905.3932	1690.6754	64917.75	64026.45
905.5347	1692.4012	65110.35	64220.15
905.6761	1694.1263	65172.2	64281.2
905.8176	1695.8506	64958.65	64064.8
905.9591	1697.5742	64992.35	64099.4
906.1005	1699.297	64948.2	64055
906.2419	1701.0191	64995.8	64104.1
906.3833	1702.7404	64813.15	63922.15
906.5246	1704.461	64761	63868
906.666	1706.1808	64892.15	63998.6
906.8073	1707.8999	64820.6	63928.9
906.9487	1709.6182	64753	63859
907.09	1711.3358	64749.8	63858.15
907.2313	1713.0527	64728.1	63836.5
907.3725	1714.7688	64746.7	63849.8
907.5138	1716.4841	64536.7	63641.95
907.655	1718.1987	64640.9	63744.7
907.7962	1719.9126	64555.7	63664
907.9374	1721.6257	64604.3	63709.8
908.0786	1723.338	64596.55	63704.7
908.2198	1725.0496	64343.2	63450.1
908.3609	1726.7605	64401.65	63508.9
908.502	1728.4706	64282.6	63389.2
908.6431	1730.18	64429.8	63537.85
908.7842	1731.8886	64246.45	63355.35
908.9253	1733.5964	64150	63254.7
909.0664	1735.3036	64340.9	63446.6
909.2074	1737.0099	64168.8	63279.55
909.3484	1738.7156	64004.05	63116
909.4894	1740.4204	63914	63021.15
909.6304	1742.1246	63996.2	63103.1
909.7714	1743.8279	64081.3	63190.65
909.9123	1745.5306	64030.6	63139.5
910.0532	1747.2325	63463.3	62573.25
910.1941	1748.9336	63508.15	62618.5
910.335	1750.634	63673.85	62780.6
910.4759	1752.3336	63844.45	62952.8
910.6168	1754.0325	63406.9	62516.35
910.7576	1755.7307	63817.05	62926.85
910.8984	1757.4281	63251.8	62361.05
911.0392	1759.1247	63637.1	62736.25
911.18	1760.8206	63039.55	62143
911.3208	1762.5158	63141.6	62245.45
911.4615	1764.2102	63270.35	62381.9
911.6022	1765.9039	63151.95	62258.7
911.7429	1767.5968	63004.2	62113.85
911.8836	1769.289	62954.4	62063.7
912.0243	1770.9804	63054.45	62162.5
912.1649	1772.6711	62934.1	62043.1
912.3056	1774.361	62819.05	61926.7
912.4462	1776.0502	62816.1	61922.95
912.5868	1777.7386	62288.45	61395.2
912.7274	1779.4263	62636.6	61745.35
912.8679	1781.1132	62587.35	61696.8
913.0084	1782.7994	62454.6	61563.05
913.149	1784.4849	62496.85	61606.8
913.2895	1786.1696	61808.7	60913.95
913.4299	1787.8535	62244.65	61354.15
913.5704	1789.5367	62304.55	61413.05
913.7108	1791.2192	61887.55	60998.7
913.8513	1792.9009	61541.55	60619.55
913.9917	1794.5818	61924.5	61032.3
914.132	1796.2621	61546.75	60658.25
914.2724	1797.9415	61561.15	60671
914.4128	1799.6202	61527.3	60636.65
914.5531	1801.2982	61523.2	60632.65
914.6934	1802.9755	61053.7	60161.45
914.8337	1804.6519	60873.2	59981.15
914.9739	1806.3277	61566.6	60675.9
915.1142	1808.0027	60454.75	59565.45
915.2544	1809.6769	60893.75	60004.55
915.3946	1811.3504	60945.25	60054.55
915.5348	1813.0231	60150.75	59257.55
915.675	1814.6951	60707.2	59817.15
915.8151	1816.3664	60338.85	59447.7
915.9553	1818.0369	60339.7	59449.35
916.0954	1819.7067	60107.75	59218.85
916.2355	1821.3757	60579.65	59686.4
916.3755	1823.044	59916.35	59025.3
916.5156	1824.7115	59522.15	58628.95
916.6556	1826.3783	59759.3	58868.2
916.7956	1828.0443	59742.3	58854.05
916.9356	1829.7096	59428.9	58536
917.0756	1831.3741	58853.35	57960.85
917.2155	1833.0379	59226.85	58336.2
917.3555	1834.701	59138.3	58245.7
917.4954	1836.3633	58644.2	57754.45
917.6353	1838.0248	59040.95	58149.6
917.7751	1839.6856	58863.85	57972.55
917.915	1841.3457	58306.1	57418
918.0548	1843.005	58883.25	57991.7
918.1946	1844.6636	58532.1	57641.2
918.3344	1846.3214	57722	56831.7
918.4742	1847.9785	57990.45	57099.2
918.6139	1849.6349	57871.65	56980.25
918.7537	1851.2904	58424.35	57525.7
918.8934	1852.9453	57508.25	56617.75
919.0331	1854.5994	57925.75	57033.95
919.1727	1856.2528	57911.25	57015.55
919.3124	1857.9054	57306.4	56416.1
919.452	1859.5572	57057.45	56168.1
919.5916	1861.2083	57238.05	56347.15
919.7312	1862.8587	57822.85	56932.45
919.8708	1864.5084	56370.25	55481.1
920.0103	1866.1572	57010.2	56117.35
920.1498	1867.8054	56275.65	55385.65
920.2893	1869.4528	56683.75	55792.4
920.4288	1871.0994	56135.25	55244.4
920.5683	1872.7453	56028.1	55137
920.7077	1874.3905	56297.5	55401.25
920.8471	1876.0349	55733.35	54841.85
920.9865	1877.6786	56140.85	55251.55
921.1259	1879.3215	55608.3	54717.8
921.2653	1880.9637	56136.35	55244.95
921.4046	1882.6051	55572	54682.5
921.5439	1884.2458	55259.45	54367
921.6832	1885.8858	54952.5	54061.95
921.8225	1887.525	55167.65	54277.1
921.9617	1889.1634	54992.1	54101.65
922.101	1890.8011	54793.25	53902.45
922.2402	1892.4381	54181.85	53291
922.3794	1894.0743	54793.45	53903.7
922.5185	1895.7098	54362.55	53473.1
922.6577	1897.3446	54002.75	53111.8
922.7968	1898.9786	54124.8	53229.55
922.9359	1900.6118	53825.7	52937.6
923.075	1902.2443	53469.35	52578.7
923.214	1903.8761	53794.5	52905.6
923.3531	1905.5071	53352.1	52460.35
923.4921	1907.1374	52717.25	51827.3
923.6311	1908.7669	52992.2	52101.35
923.77	1910.3957	53242.3	52353.3
923.909	1912.0237	52578.6	51687.05
924.0479	1913.651	52379	51487.45
924.1868	1915.2776	52261.2	51373.15
924.3257	1916.9034	52157.1	51269.8
924.4646	1918.5285	51883.35	50994.3
924.6034	1920.1528	51853	50962.8
924.7422	1921.7764	51656.2	50766.95
924.881	1923.3992	51557.75	50669.2
925.0198	1925.0213	51215.6	50328
925.1586	1926.6427	50791.55	49901.7
925.2973	1928.2633	50985.25	50016.15
925.436	1929.8832	50709.35	49817.45
925.5747	1931.5023	50531.3	49642.5
925.7134	1933.1207	50181.7	49291.45
925.852	1934.7383	50332.5	49441.8
925.9906	1936.3552	49990.5	49100.95
926.1292	1937.9714	49919.85	49029.7
926.2678	1939.5868	49823.65	48931.65
926.4064	1941.2015	49421.1	48531.6
926.5449	1942.8154	49237.55	48347.05
926.6834	1944.4286	49127.7	48236.9
926.8219	1946.041	49048.75	48139.25
926.9604	1947.6528	48695.9	47799.7
927.0988	1949.2637	48559.9	47670.7
927.2372	1950.8739	48312.25	47422.4
927.3756	1952.4834	48382.75	47491.9
927.514	1954.0921	48248.4	47357.1
927.6523	1955.7001	47918.35	47023.55
927.7907	1957.3074	47914.2	47026.85
927.929	1958.9139	47608.4	46721.85
928.0673	1960.5197	47553.1	46661.65
928.2055	1962.1247	47348.85	46459.25
928.3438	1963.729	47156.35	46266.95
928.482	1965.3325	46965.45	46054.45
928.6202	1966.9353	46913.75	46024.55
928.7584	1968.5374	46611.95	45721.7
928.8965	1970.1387	46507.6	45620.3
929.0346	1971.7393	46345.65	45456.25
929.1727	1973.3392	46228.1	45338.5
929.3108	1974.9383	46009.75	45121.45
929.4489	1976.5366	45788.85	44900
929.5869	1978.1342	45794.25	44904
929.7249	1979.7311	45649.65	44758
929.8629	1981.3273	45529.35	44637.75
930.0009	1982.9227	45318.85	44428.1
930.1388	1984.5173	45203.15	44315.1
930.2767	1986.1112	44948.4	44061.8
930.4146	1987.7044	44983.25	44094.25
930.5525	1989.2968	44655.45	43767.4
930.6904	1990.8885	44604.5	43711.7
930.8282	1992.4795	44471.8	43580.25
930.966	1994.0697	44351.4	43461.85
931.1038	1995.6592	44200.55	43311.75
931.2415	1997.2479	44065.65	43177.1
931.3793	1998.8359	43977.25	43087.85
931.517	2000.4232	43730.65	42842.75
931.6547	2002.0097	43629.1	42741.45
931.7923	2003.5955	43420.65	42530.9
931.93	2005.1805	43393.5	42504.15
932.0676	2006.7648	43208.45	42320.1
932.2052	2008.3484	43050.9	42161
932.3427	2009.9312	43091.15	42198.35
932.4803	2011.5133	42842.65	41954.8
932.6178	2013.0946	42785.65	41896.2
932.7553	2014.6752	42678.85	41791.1
932.8928	2016.2551	42524.45	41635.8
933.0302	2017.8342	42360.35	41470.95
933.1676	2019.4126	42172.1	41285.45
933.305	2020.9902	42023.2	41136.85
933.4424	2022.5672	41945.9	41058.25
933.5798	2024.1433	41882.95	40988.85
933.7171	2025.7188	41631.15	40744.5
933.8544	2027.2935	41589.45	40701.25
933.9917	2028.8674	41387.65	40500.4
934.129	2030.4406	41281.75	40394.4
934.2662	2032.0131	41094.65	40206.2
934.4034	2033.5849	41000.6	40107.65
934.5406	2035.1559	40886.15	39997.3
934.6778	2036.7261	40800.65	39910.8
934.8149	2038.2957	40670.65	39781.55
934.952	2039.8645	40590.65	39703.75
935.0891	2041.4325	40604.75	39711
935.2262	2042.9998	40436.95	39550.05
935.3632	2044.5664	40320.45	39430.2
935.5002	2046.1323	40156.15	39267.85
935.6372	2047.6974	39996.5	39108
935.7742	2049.2617	39933.75	39044.7
935.9111	2050.8254	39910.95	39017.25
936.048	2052.3883	39762.75	38872.95
936.1849	2053.9504	39631.1	38742.25
936.3218	2055.5118	39473.65	38586.35
936.4586	2057.0725	39330.55	38439.9
936.5955	2058.6325	39256.45	38366.9
936.7323	2060.1917	39149.75	38260.4
936.869	2061.7502	39091.95	38200.6
937.0058	2063.3079	38918.05	38032
937.1425	2064.8649	38751.8	37859.35
937.2792	2066.4212	38640.7	37751.55
937.4159	2067.9767	38542.9	37655.35
937.5525	2069.5315	38377.45	37488.75
937.6891	2071.0856	38194.4	37306.05
937.8257	2072.6389	38080	37189.9
937.9623	2074.1915	37890.15	37003.7
938.0989	2075.7433	37716.5	36826.4
938.2354	2077.2945	37618.9	36731.85
938.3719	2078.8448	37528.8	36642.05
938.5084	2080.3945	37385.1	36496.8
938.6448	2081.9434	37351.6	36461.8
938.7812	2083.4916	37243.45	36353.5
938.9176	2085.039	37005.95	36116.15
939.054	2086.5857	36979.05	36089.9
939.1903	2088.1317	36904.95	36016.4
939.3267	2089.677	36792.55	35903.65
939.463	2091.2215	36682.35	35791.45
939.5992	2092.7652	36591.85	35702.7
939.7355	2094.3083	36534.7	35644.45
939.8717	2095.8506	36471.15	35583.6
940.0079	2097.3921	36426.95	35537.4
940.1441	2098.933	36244.55	35354.35
940.2802	2100.4731	36136.7	35247.45
940.4163	2102.0124	36107.15	35199.05
940.5524	2103.5511	36012.5	35124.4
940.6885	2105.089	35904.6	35016.45
940.8245	2106.6261	35803.75	34916.55
940.9606	2108.1626	35710.3	34820.7
941.0965	2109.6983	35712.65	34796.1
941.2325	2111.2332	35533.65	34644.35
941.3684	2112.7675	35394.85	34503.6
941.5044	2114.301	35298.8	34409.15
941.6403	2115.8337	35267.95	34377.8
941.7761	2117.3657	35158.1	34270.05
941.912	2118.897	35056.95	34168.8
942.0478	2120.4276	34889.6	33996.65
942.1835	2121.9575	34767.35	33878.95
942.3193	2123.4866	34769.45	33865
942.455	2125.0149	34675.25	33782.2
942.5907	2126.5426	34409.2	33520.6
942.7264	2128.0695	34366	33471.15
942.8621	2129.5956	34298.25	33409.8
942.9977	2131.1211	34212.45	33319.4
943.1333	2132.6458	34126.65	33237.15
943.2689	2134.1698	34028	33139.5
943.4044	2135.693	33956.6	33064.95
943.54	2137.2155	33873.6	32982.3
943.6755	2138.7373	33784.6	32895.15
943.8109	2140.2584	33654.05	32765.6
943.9464	2141.7787	33583.25	32688.3
944.0818	2143.2983	33392.8	32504.6
944.2172	2144.8171	33204.35	32318.8
944.3526	2146.3353	33168.7	32279
944.4879	2147.8527	32983.4	32095.4
944.6232	2149.3693	32984.65	32096.75
944.7585	2150.8853	32871.8	31980.7
944.8938	2152.4005	32728	31839.95
945.029	2153.9149	32696.75	31808.45
945.1642	2155.4287	32577.5	31689.9
945.2994	2156.9417	32516.95	31628.4
945.4346	2158.454	32381.05	31489.2
945.5697	2159.9655	32299.35	31410.35
945.7048	2161.4764	32257.75	31370.6
945.8399	2162.9865	32098.65	31210.8
945.9749	2164.4958	32031.2	31139.7
946.1099	2166.0045	31862.15	30968.2
946.2449	2167.5124	31860.1	30970.8
946.3799	2169.0195	31716	30828.5
946.5148	2170.526	31712.65	30824.45
946.6498	2172.0317	31633.3	30745.7
946.7846	2173.5367	31512.85	30624.35
946.9195	2175.0409	31421.25	30532.25
947.0543	2176.5445	31400	30512.55
947.1891	2178.0473	31244.9	30354.75
947.3239	2179.5494	31105.35	30215.1
947.4587	2181.0507	30993.85	30105.25
947.5934	2182.5513	30899.7	30009.7
947.7281	2184.0512	30895.1	30008.1
947.8628	2185.5504	30765.15	29878.5
947.9974	2187.0488	30559	29671.8
948.132	2188.5465	30500.9	29612.45
948.2666	2190.0435	30348.35	29459.8
948.4012	2191.5397	30292.65	29405.35
948.5357	2193.0353	30166.1	29279.15
948.6702	2194.5301	30015.5	29125.3
948.8047	2196.0241	29940	29051.5
948.9392	2197.5175	29830	28942.65
949.0736	2199.0101	29701.05	28809.95
949.208	2200.502	29560.9	28672.6
949.3424	2201.9931	29435.15	28545.4
949.4767	2203.4835	29346.75	28454.9
949.611	2204.9733	29311.95	28416
949.7453	2206.4622	29247.1	28357.65
949.8796	2207.9505	29095.45	28203.8
950.0138	2209.438	28993.55	28108.15
950.148	2210.9248	28904.85	28015.5
950.2822	2212.4109	28791.45	27903.9
950.4164	2213.8962	28693.5	27802.8
950.5505	2215.3809	28653	27761.7
950.6846	2216.8648	28566.75	27678
950.8186	2218.3479	28437.1	27542.75
950.9527	2219.8304	28341.85	27449.15
951.0867	2221.3121	28258.6	27367.65
951.2207	2222.7931	28123.9	27234.85
951.3546	2224.2733	28041.4	27153.7
951.4886	2225.7529	27909.9	27020.25
951.6225	2227.2317	27839.9	26948.6
951.7563	2228.7098	27822.8	26934.4
951.8902	2230.1872	27650.4	26764
952.024	2231.6638	27615.05	26727.1
952.1578	2233.1397	27489.7	26596.6
952.2916	2234.6149	27395.1	26505.5
952.4253	2236.0894	27288.35	26397.65
952.559	2237.5632	27268.6	26378.65
952.6927	2239.0362	27093.2	26205.25
952.8263	2240.5085	27015.1	26125.55
952.9599	2241.9801	26941.25	26052.7
953.0935	2243.4509	26841.8	25954.7
953.2271	2244.921	26761.8	25874.15
953.3606	2246.3904	26620.6	25728.95
953.4941	2247.8591	26595.35	25707.7
953.6276	2249.3271	26495.25	25607.75
953.7611	2250.7943	26421.95	25532.15
953.8945	2252.2608	26281.05	25393.5
954.0279	2253.7266	26209.3	25319.3
954.1612	2255.1917	26174.9	25286.5
954.2946	2256.656	26073.1	25184.1
954.4279	2258.1197	25998.5	25110.8
954.5612	2259.5826	25917.9	25027.5
954.6944	2261.0447	25846.45	24955.3
954.8276	2262.5062	25789.15	24898.35
954.9608	2263.9669	25719.5	24826.05
955.094	2265.4269	25648.9	24761.4
955.2271	2266.8862	25577.45	24688.65
955.3602	2268.3448	25506.35	24616.3
955.4933	2269.8026	25428.85	24537.95
955.6264	2271.2598	25322.1	24432.8
955.7594	2272.7162	25255.6	24367.4
955.8924	2274.1719	25194.3	24304.1
956.0253	2275.6268	25050.05	24160.65
956.1583	2277.0811	25025.9	24134.65
956.2912	2278.5346	24996.2	24107.5
956.4241	2279.9874	24886.05	23996.5
956.5569	2281.4395	24870	23983.3
956.6897	2282.8908	24760.25	23869.1
956.8225	2284.3414	24672.55	23782.65
956.9553	2285.7914	24592.55	23705.05
957.088	2287.2406	24520.9	23631.6
957.2207	2288.689	24428.35	23538.8
957.3534	2290.1368	24361.1	23470.2
957.486	2291.5838	24306.2	23414.1
957.6186	2293.0302	24241.65	23351.75
957.7512	2294.4758	24118.1	23227.75
957.8838	2295.9206	24027.3	23138.7
958.0163	2297.3648	23962.95	23074.25
958.1488	2298.8082	23952.1	23063.1
958.2813	2300.251	23834.15	22944.75
958.4137	2301.693	23754.45	22863.65
958.5461	2303.1343	23739.15	22848.75
958.6785	2304.5748	23632.15	22742.2
958.8108	2306.0147	23550.3	22661.25
958.9432	2307.4538	23456.2	22565.75
959.0754	2308.8922	23436.9	22550.25
959.2077	2310.3299	23331.6	22443.5
959.3399	2311.7669	23210.45	22324.1
959.4721	2313.2031	23172.9	22284.65
959.6043	2314.6387	23089.85	22200.6
959.7365	2316.0735	22978.2	22086.7
959.8686	2317.5076	22956.3	22066.35
960.0006	2318.941	22894.85	22005.85
960.1327	2320.3737	22838.2	21949.3
960.2647	2321.8056	22755.15	21865.75
960.3967	2323.2369	22660.3	21769.85
960.5287	2324.6674	22602.4	21709.9
960.6606	2326.0972	22546.45	21657.75
960.7925	2327.5263	22415.8	21528.2
960.9244	2328.9547	22365.3	21475.45
961.0562	2330.3823	22282	21394
961.1881	2331.8092	22274.6	21383.45
961.3198	2333.2355	22152.95	21263.4
961.4516	2334.661	22110.65	21223.3
961.5833	2336.0858	22062.5	21171.45
961.715	2337.5098	22021.55	21131.25
961.8467	2338.9332	21972.1	21083.15
961.9783	2340.3558	21892.9	21003.45
962.1099	2341.7778	21826.05	20935.95
962.2415	2343.199	21723.9	20834.85
962.373	2344.6195	21674.95	20785.6
962.5045	2346.0393	21571.75	20684.8
962.636	2347.4583	21561.8	20675.3
962.7675	2348.8767	21454.6	20565.6
962.8989	2350.2943	21414.35	20524.75
963.0303	2351.7113	21337.15	20447.85
963.1617	2353.1275	21266.05	20376.95
963.293	2354.543	21230.9	20334.05
963.4243	2355.9578	21121.75	20231.8
963.5556	2357.3718	21002.65	20114.05
963.6868	2358.7852	20924.8	20034.35
963.818	2360.1978	20859	19971.3
963.9492	2361.6098	20816.6	19928.45
964.0803	2363.021	20725.1	19832.6
964.2114	2364.4315	20649.95	19761.35
964.3425	2365.8413	20618.05	19728.4
964.4736	2367.2504	20537.1	19648.55
964.6046	2368.6587	20452.85	19566.15
964.7356	2370.0664	20328.95	19440.9
964.8666	2371.4733	20272.3	19382.05
964.9975	2372.8795	20229.5	19341.65
965.1284	2374.285	20161	19272.05
965.2593	2375.6899	20059.6	19172.35
965.3901	2377.0939	19952.9	19064.45
965.5209	2378.4973	19913.6	19023.8
965.6517	2379.9	19837.45	18949.35
965.7825	2381.3019	19769.95	18883.8
965.9132	2382.7032	19708.5	18821.45
966.0439	2384.1037	19667.25	18781.05
966.1745	2385.5035	19575.15	18689.25
966.3051	2386.9027	19476.9	18589.15
966.4357	2388.3011	19454.2	18561.9
966.5663	2389.6987	19417.65	18527.85
966.6968	2391.0957	19315.75	18426.8
966.8273	2392.492	19240.8	18354.05
966.9578	2393.8876	19107.15	18218.65
967.0882	2395.2824	19054.45	18168.5
967.2186	2396.6765	18994.1	18107.6
967.349	2398.07	18862.85	17974.85
967.4793	2399.4627	18839	17949.65
967.6097	2400.8547	18787.85	17899.1
967.7399	2402.246	18726.75	17832.9
967.8702	2403.6366	18588.75	17701.9
968.0004	2405.0265	18521.65	17634
968.1306	2406.4156	18440.65	17548
968.2607	2407.8041	18388.85	17497.85
968.3909	2409.1918	18340.5	17451.6
968.521	2410.5789	18252.1	17363.85
968.651	2411.9652	18188.9	17297.85
968.781	2413.3508	18122.85	17235.75
968.911	2414.7358	18059.75	17171.9
969.041	2416.12	17946.95	17059.55
969.1709	2417.5035	17946.35	17060
969.3008	2418.8863	17869.4	16980.6
969.4307	2420.2684	17835.3	16946.25
969.5606	2421.6497	17751.85	16861.85
969.6904	2423.0304	17637.15	16749.45
969.8201	2424.4104	17577.05	16691.2
969.9499	2425.7896	17491.65	16602.35
970.0796	2427.1682	17480.1	16592.75
970.2093	2428.546	17421.1	16532.3
970.3389	2429.9232	17386.55	16495.55
970.4685	2431.2996	17351.4	16464.75
970.5981	2432.6753	17312.65	16425.45
970.7277	2434.0503	17245.1	16357.95
970.8572	2435.4246	17159.15	16272.65
970.9867	2436.7982	17141.65	16251.25
971.1161	2438.1711	17090.45	16202.05
971.2456	2439.5433	17010.15	16121.75
971.375	2440.9148	16923.85	16031.45
971.5043	2442.2856	16871.95	15985.4
971.6336	2443.6557	16821.4	15933.3
971.7629	2445.025	16709.9	15822.2
971.8922	2446.3937	16703.9	15817.25
972.0214	2447.7617	16623.95	15736.3
972.1506	2449.1289	16603.15	15714.55
972.2798	2450.4955	16598.85	15704.6
972.4089	2451.8613	16478.6	15591.55
972.538	2453.2265	16446.05	15558.05
972.6671	2454.5909	16432.7	15541.95
972.7961	2455.9546	16360.75	15472.95
972.9251	2457.3177	16290.9	15403.7
973.0541	2458.68	16247.8	15357
973.1831	2460.0416	16230.5	15341.65
973.312	2461.4025	16181.2	15292.6
973.4408	2462.7627	16119.9	15220.2
973.5697	2464.1222	16080	15191.6
973.6985	2465.4811	15999.25	15109.85
973.8273	2466.8392	15963.55	15075
973.956	2468.1966	15923.8	15032.65
974.0847	2469.5533	15891.8	15002.7
974.2134	2470.9093	15862.6	14976.1
974.3421	2472.2645	15780.1	14890.7
974.4707	2473.6191	15729.05	14841.1
974.5993	2474.973	15633	14743.95
974.7278	2476.3262	15626.55	14736.75
974.8563	2477.6787	15580.5	14690.9
974.9848	2479.0305	15469.9	14580.55
975.1132	2480.3816	15418.7	14529.25
975.2417	2481.7319	15354.5	14466.7
975.37	2483.0816	15324.6	14434.85
975.4984	2484.4306	15242.65	14353.45
975.6267	2485.7789	15221.85	14336.2
975.755	2487.1264	15147.7	14256.7
975.8833	2488.4733	15058.15	14171.85
976.0115	2489.8195	15034.05	14139.55
976.1397	2491.165	14950	14058.4
976.2678	2492.5097	14918.7	14029.15
976.3959	2493.8538	14841.2	13954.05
976.524	2495.1972	14772.5	13884.05
976.6521	2496.5398	14706.75	13818.6
976.7801	2497.8818	14665.95	13777.1
976.9081	2499.2231	14623.35	13735.75
977.036	2500.5637	14554.9	13665.6
977.164	2501.9035	14492.1	13603.15
977.2918	2503.2427	14459.15	13568.7
977.4197	2504.5812	14416.6	13529.5
977.5475	2505.919	14371.7	13481.05
977.6753	2507.256	14367.9	13478.7
977.8031	2508.5924	14301.35	13414.4
977.9308	2509.9281	14220.8	13328.6
978.0585	2511.2631	14165.75	13277.85
978.1861	2512.5974	14131.05	13242.2
978.3137	2513.9309	14109.7	13221.15
978.4413	2515.2638	14071.55	13160.4
978.5689	2516.596	14030.25	13143.1
978.6964	2517.9275	13949.8	13060.3
978.8239	2519.2583	13895.4	13007
978.9513	2520.5884	13849.05	12958.55
979.0788	2521.9178	13791.7	12903.2
979.2062	2523.2465	13724.95	12836.7
979.3335	2524.5745	13674.8	12786.7
979.4608	2525.9018	13618.6	12728.9
979.5881	2527.2284	13605.8	12718.55
979.7154	2528.5543	13561.75	12675.1
979.8426	2529.8796	13509.9	12621.75
979.9698	2531.2041	13473.4	12585.5
980.0969	2532.5279	13454.1	12568.55
980.224	2533.851	13410.25	12521
980.3511	2535.1735	13372.95	12485.8
980.4781	2536.4952	13320.3	12431.75
980.6052	2537.8163	13295.85	12409
980.7321	2539.1366	13243.8	12355
980.8591	2540.4562	13220.35	12331.8
980.986	2541.7752	13205.35	12316.45
981.1129	2543.0935	13163.9	12275.65
981.2397	2544.411	13128.05	12239.45
981.3665	2545.7279	13110.1	12222.3
981.4933	2547.0441	13089.7	12203.5
981.62	2548.3596	13077.65	12188.7
981.7467	2549.6744	12993.45	12105.05
981.8734	2550.9885	12954.7	12058.95
982.0001	2552.3019	12913.85	12026.55
982.1267	2553.6146	12892.3	12004.75
982.2532	2554.9266	12865.6	11977.4
982.3798	2556.2379	12802.3	11912.05
982.5063	2557.5485	12781.35	11894.3
982.6327	2558.8585	12742.6	11846.3
982.7592	2560.1677	12716.6	11825.05
982.8856	2561.4762	12671.7	11782.7
983.0119	2562.7841	12693.3	11802.5
983.1383	2564.0913	12625.3	11738.6
983.2646	2565.3977	12596.9	11710.45
983.3908	2566.7035	12560.3	11671.75
983.517	2568.0086	12544.5	11654.45
983.6432	2569.313	12508.95	11620.8
983.7694	2570.6167	12470.25	11578.55
983.8955	2571.9197	12457.35	11570.7
984.0216	2573.222	12411.55	11520.95
984.1476	2574.5236	12375.55	11487.45
984.2737	2575.8246	12369.35	11481
984.3996	2577.1248	12336.3	11446.8
984.5256	2578.4244	12313.45	11424.4
984.6515	2579.7232	12259.5	11370.85
984.7774	2581.0214	12259	11344.6
984.9032	2582.3189	12223.05	11335.3
985.029	2583.6157	12202.65	11310.65
985.1548	2584.9118	12169.75	11280.25
985.2806	2586.2072	12121.4	11234.25
985.4063	2587.5019	12090.7	11204.15
985.5319	2588.7959	12060.8	11172.3
985.6576	2590.0893	12047.15	11156.65
985.7832	2591.3819	12031	11142.45
985.9087	2592.6739	11952.15	11064.6
986.0343	2593.9652	11909.55	11021.05
986.1597	2595.2557	11896.2	11011.75
986.2852	2596.5456	11818.75	10927.7
986.4106	2597.8348	11778	10889.65
986.536	2599.1234	11717.8	10827.75
986.6614	2600.4112	11683.4	10794.65
986.7867	2601.6983	11633.5	10742.35
986.912	2602.9848	11594.95	10707.9
987.0372	2604.2705	11542.8	10647.3
987.1624	2605.5556	11570.7	10682.1
987.2876	2606.84	11490.35	10603.65
987.4128	2608.1237	11438.8	10549.1
987.5379	2609.4067	11388.75	10500.2
987.6629	2610.689	11360.3	10463.55
987.788	2611.9707	11330.45	10436.25
987.913	2613.2516	11288.8	10394.15
988.0379	2614.5319	11214.25	10328.9
988.1629	2615.8115	11175.35	10288.4
988.2878	2617.0903	11145.5	10257.05
988.4126	2618.3685	11099.05	10210.4
988.5375	2619.6461	11054.15	10164.95
988.6622	2620.9229	11028.25	10139.95
988.787	2622.199	10975	10085.5
988.9117	2623.4745	10971	10081.7
989.0364	2624.7493	10917.15	10029.25
989.161	2626.0234	10865.5	9980.35
989.2857	2627.2968	10826.2	9938.55
989.4102	2628.5695	10795.7	9905.95
989.5348	2629.8415	10745.15	9858.25
989.6593	2631.1128	10682.85	9792.65
989.7837	2632.3835	10664.2	9776.7
989.9082	2633.6535	10597	9709.85
990.0326	2634.9228	10572.35	9684.25
990.1569	2636.1914	10533.25	9645.3
990.2812	2637.4593	10509.75	9616.75
990.4055	2638.7265	10461.5	9572.1
990.5298	2639.9931	10433.1	9544.95
990.654	2641.259	10389.7	9502.15
990.7782	2642.5242	10373.95	9485.35
990.9023	2643.7887	10320.9	9433.3
991.0264	2645.0525	10287.7	9399.3
991.1505	2646.3156	10266.5	9377.3
991.2745	2647.5781	10241.85	9353.65
991.3985	2648.8398	10231.8	9343.7
991.5225	2650.1009	10215.1	9289.1
991.6464	2651.3613	10130.1	9241.75
991.7703	2652.6211	10120.7	9232.25
991.8942	2653.8801	10081.2	9194.05
992.018	2655.1385	10056.65	9166.2
992.1418	2656.3961	10020.7	9132.8
992.2655	2657.6531	10007.85	9119.6
992.3892	2658.9094	9974.2	9086.1
992.5129	2660.1651	9961.3	9074.75
992.6366	2661.42	9944.65	9056.3
992.7602	2662.6743	9914	9024.15
992.8837	2663.9279	9874.05	8986.9
993.0073	2665.1808	9826.45	8937.55
993.1307	2666.433	9800.45	8910.5
993.2542	2667.6846	9758.3	8871.15
993.3776	2668.9354	9712.45	8822
993.501	2670.1856	9722.45	8832.7
993.6244	2671.4351	9694.75	8807.15
993.7477	2672.6839	9667.5	8777.5
993.8709	2673.9321	9624.55	8736.95
993.9942	2675.1795	9604.9	8716.65
994.1174	2676.4263	9572.05	8683.5
994.2405	2677.6724	9526.7	8640.3
994.3637	2678.9179	9520.3	8632.15
994.4868	2680.1626	9481.75	8594.15
994.6098	2681.4067	9469.35	8582.3
994.7328	2682.6501	9453.15	8564.8
994.8558	2683.8928	9415.05	8526.2
994.9788	2685.1348	9361.1	8473.05
995.1017	2686.3761	9329.5	8440.95
995.2245	2687.6168	9286.1	8398.65
995.3474	2688.8568	9257.1	8369.45
995.4702	2690.0961	9231.1	8344.85
995.5929	2691.3348	9193.1	8305.7
995.7156	2692.5727	9192.05	8304.45
995.8383	2693.81	9142.45	8254.65
995.961	2695.0466	9116.05	8229.45
996.0836	2696.2826	9082.6	8194.3
996.2062	2697.5178	9086	8195.3
996.3287	2698.7524	9031.95	8143.4
996.4512	2699.9863	9016.85	8126.3
996.5737	2701.2195	8972.5	8085.3
996.6961	2702.452	8954.85	8065.65
996.8185	2703.6839	8936.9	8048.75
996.9408	2704.9151	8903.9	8017.8
997.0631	2706.1456	8869.85	7982.25
997.1854	2707.3755	8848.65	7960.2
997.3077	2708.6046	8826.75	7938.7
997.4299	2709.8331	8819.45	7931.4
997.552	2711.0609	8781.1	7893.2
997.6742	2712.2881	8751.35	7862.9
997.7963	2713.5145	8711.85	7822
997.9183	2714.7403	8692.2	7806.65
998.0403	2715.9654	8655.45	7766.3
998.1623	2717.1899	8654.95	7753.25
998.2842	2718.4136	8613.15	7725.75
998.4062	2719.6367	8585.65	7696.8
998.528	2720.8591	8573.75	7679.4
998.6498	2722.0809	8520.95	7633.7
998.7716	2723.3019	8512.75	7621.6
998.8934	2724.5223	8508.9	7619.4
999.0151	2725.7421	8459.4	7570.95
999.1368	2726.9611	8438.75	7550.35
999.2584	2728.1795	8397.05	7504.3
999.38	2729.3972	8367.85	7479.85
999.5016	2730.6142	8355.45	7458.4
999.6231	2731.8306	8295.4	7407.1
999.7446	2733.0462	8239.45	7350.55
999.8661	2734.2612	8230.65	7338.1
999.9875	2735.4756	8164.05	7275.35
1000.1089	2736.6892	8118.85	7229.7
1000.2302	2737.9022	8067.9	7179.2
1000.3515	2739.1145	8028.65	7140.2
1000.4728	2740.3262	8017.05	7120.7
1000.594	2741.5372	7973.7	7085.8
1000.7152	2742.7475	7912.9	7023.85
1000.8363	2743.9571	7901.6	7011.25
1000.9575	2745.1661	7868	6974.65
1001.0785	2746.3744	7860.65	6971.7
1001.1996	2747.582	7816.75	6930.8
1001.3206	2748.7889	7787.8	6898.05
1001.4415	2749.9952	7750.95	6865.35
1001.5625	2751.2008	7725.45	6835.75
1001.6833	2752.4057	7717.4	6827.25
1001.8042	2753.61	7667.3	6779.3
1001.925	2754.8136	7642.3	6750.9
1002.0458	2756.0165	7615.1	6725.8
1002.1665	2757.2188	7576.95	6688.45
1002.2872	2758.4204	7550.3	6662.1
1002.4078	2759.6213	7515.6	6626
1002.5285	2760.8215	7509.4	6618.45
1002.649	2762.0211	7468.55	6578.75
1002.7696	2763.22	7448.7	6556
1002.8901	2764.4182	7437.8	6548.9
1003.0106	2765.6158	7409	6521.35
1003.131	2766.8127	7393.5	6506.05
1003.2514	2768.009	7346.25	6460.1
1003.3717	2769.2045	7334.6	6446.95
1003.492	2770.3994	7322.5	6432.85
1003.6123	2771.5936	7289.6	6400.1
1003.7325	2772.7872	7259.55	6372.8
1003.8527	2773.9801	7199.75	6310.45
1003.9729	2775.1723	7204	6296.1
1004.093	2776.3639	7182.35	6292.7
1004.2131	2777.5548	7125.45	6236.6
1004.3331	2778.745	7118.4	6229
1004.4531	2779.9346	7103.45	6216.15
1004.5731	2781.1235	7082.6	6191.9
1004.693	2782.3117	7063.05	6177.15
1004.8129	2783.4992	7036.35	6150.25
1004.9328	2784.6861	7033.7	6147.15
1005.0526	2785.8723	7008.05	6118.15
1005.1723	2787.0579	6997.6	6108.85
1005.2921	2788.2428	6966.7	6079.45
1005.4118	2789.427	6961.3	6075.45
1005.5314	2790.6106	6921.8	6034
1005.651	2791.7935	6881.7	5992.5
1005.7706	2792.9757	6881.05	5995.6
1005.8902	2794.1573	6862.3	5974.3
1006.0097	2795.3382	6844.55	5955.8
1006.1291	2796.5184	6820.05	5933.35
1006.2485	2797.698	6841.2	5950.75
1006.3679	2798.8769	6810.35	5921.55
1006.4873	2800.0551	6792.7	5905.75
1006.6066	2801.2327	6773.1	5882.3
1006.7258	2802.4096	6768.25	5880.9
1006.8451	2803.5859	6749.55	5861.55
1006.9642	2804.7615	6738.5	5850.6
1007.0834	2805.9364	6745.65	5858.45
1007.2025	2807.1106	6730.85	5846.2
1007.3216	2808.2842	6753.6	5866
1007.4406	2809.4572	6761.1	5874.3
1007.5596	2810.6294	6754.65	5865.35
1007.6785	2811.801	6801.5	5914.7
1007.7975	2812.972	6796.7	5911.4
1007.9163	2814.1423	6803.7	5917.15
1008.0352	2815.3119	6840.65	5953.2
1008.154	2816.4808	6841	5953.75
1008.2727	2817.6491	6879.2	5988.7
1008.3914	2818.8167	6906.75	6019.7
1008.5101	2819.9837	6935.5	6043.05
1008.6288	2821.15	6963.7	6076.5
1008.7474	2822.3157	6987.35	6101.6
1008.8659	2823.4807	7035.3	6146.85
1008.9844	2824.645	7057.65	6170.7
1009.1029	2825.8086	7076.9	6189
1009.2214	2826.9716	7084.5	6198.3
1009.3398	2828.134	7135.75	6248.25
1009.4581	2829.2957	7172.8	6285
1009.5764	2830.4567	7190.4	6304.65
1009.6947	2831.617	7159.3	6271.95
1009.813	2832.7767	7152.3	6266.35
1009.9312	2833.9358	7141.85	6256.7
1010.0493	2835.0941	7150.75	6262.35
1010.1675	2836.2519	7122.95	6235.45
1010.2855	2837.4089	7076.3	6188.6
1010.4036	2838.5653	7050.7	6163.85
1010.5216	2839.7211	7024.85	6138.45
1010.6396	2840.8761	7028.85	6141.15
1010.7575	2842.0306	7026.6	6141.05
1010.8754	2843.1843	7052.75	6164.3
1010.9932	2844.3374	7066.6	6180.3
1011.111	2845.4899	7107.25	6220.7
1011.2288	2846.6417	7138.65	6252.2
1011.3465	2847.7928	7166.55	6280.2
1011.4642	2848.9433	7243.85	6356.85
1011.5818	2850.0931	7287.3	6400.3
1011.6995	2851.2422	7360.6	6473.1
1011.817	2852.3907	7387.2	6497.75
1011.9345	2853.5385	7404.55	6515.25
1012.052	2854.6857	7467.95	6570.55
1012.1695	2855.8323	7474.35	6587.1
1012.2869	2856.9781	7498.7	6611.55
1012.4042	2858.1233	7514.6	6627.15
1012.5216	2859.2679	7556.15	6668.25
1012.6389	2860.4118	7564.4	6680.2
1012.7561	2861.555	7593.8	6701.2
1012.8733	2862.6976	7625.7	6734.65
1012.9905	2863.8395	7610.05	6723.15
1013.1076	2864.9808	7617.3	6732.5
1013.2247	2866.1214	7620.5	6735.55
1013.3417	2867.2614	7613.05	6726.35
1013.4587	2868.4007	7605.45	6715.6
1013.5757	2869.5393	7606.3	6717.9
1013.6926	2870.6773	7605.25	6715.15
1013.8095	2871.8146	7587.35	6695.95
1013.9263	2872.9513	7581.5	6691.3
1014.0431	2874.0874	7543.15	6655.05
1014.1599	2875.2227	7512.8	6625.6
1014.2766	2876.3574	7488.25	6601.25
1014.3933	2877.4915	7424.8	6538.65
1014.51	2878.6249	7399.2	6513
1014.6266	2879.7577	7369.35	6479.95
1014.7431	2880.8898	7326.25	6428.85
1014.8596	2882.0212	7288.2	6400.85
1014.9761	2883.152	7266.15	6377.35
1015.0925	2884.2821	7208.65	6320.45
1015.2089	2885.4116	7187.2	6299.75
1015.3253	2886.5405	7182.55	6295.85
1015.4416	2887.6686	7163.9	6275.1
1015.5579	2888.7962	7158.2	6274.45
1015.6741	2889.923	7135.4	6247.55
1015.7903	2891.0493	7129.95	6243.55
1015.9065	2892.1748	7119.3	6231.65
1016.0226	2893.2997	7120.7	6232.35
1016.1387	2894.424	7092.7	6204.5
1016.2547	2895.5476	7099.6	6212.35
1016.3707	2896.6706	7099.85	6212.9
1016.4866	2897.7929	7100.55	6213.95
1016.6025	2898.9145	7103	6215.1
1016.7184	2900.0355	7103.6	6215.2
1016.8342	2901.1559	7130.1	6242.7
1016.95	2902.2756	7132.2	6246.55
1017.0658	2903.3946	7166.35	6278.25
1017.1815	2904.513	7141.95	6251.05
1017.2971	2905.6308	7152.3	6265.2
1017.4127	2906.7479	7146.6	6257.55
1017.5283	2907.8643	7156.5	6269.9
1017.6439	2908.9801	7149.9	6260.75
1017.7594	2910.0953	7152.8	6264.6
1017.8748	2911.2098	7134.2	6243.8
1017.9902	2912.3236	7113.05	6217.15
1018.1056	2913.4368	7084.35	6195.55
1018.2209	2914.5494	7039.25	6152.9
1018.3362	2915.6613	7009.1	6117.05
1018.4515	2916.7725	6983.6	6093.5
1018.5667	2917.8831	6937.2	6048
1018.6819	2918.9931	6885.5	5997.35
1018.797	2920.1024	6838.8	5949.85
1018.9121	2921.211	6819.45	5930.25
1019.0271	2922.319	6787.85	5900.55
1019.1421	2923.4264	6755.5	5868.55
1019.2571	2924.5331	6751.9	5865.35
1019.372	2925.6391	6720.6	5833.4
1019.4869	2926.7445	6702.85	5818
1019.6017	2927.8493	6673.65	5786.3
1019.7165	2928.9534	6671.25	5784.75
1019.8313	2930.0569	6657.1	5767.4
1019.946	2931.1597	6641.7	5752.8
1020.0606	2932.2619	6621.25	5734.8
1020.1753	2933.3634	6591.25	5704.05
1020.2899	2934.4643	6583.9	5690.9
1020.4044	2935.5645	6550.15	5657.95
1020.5189	2936.6641	6518.45	5626.6
1020.6334	2937.763	6447.15	5560.45
1020.7478	2938.8613	6420.7	5533.25
1020.8622	2939.959	6360.85	5468.5
1020.9765	2941.056	6291.9	5404.7
1021.0908	2942.1523	6200.1	5311.5
1021.2051	2943.248	6119.1	5230.6
1021.3193	2944.3431	6026.3	5139.7
1021.4334	2945.4375	5884.15	4995.7
1021.5476	2946.5313	5805.85	4919.35
1021.6617	2947.6244	5694.1	4806.25
1021.7757	2948.7169	5591.6	4703.55
1021.8897	2949.8087	5480.2	4593.75
1022.0037	2950.8999	5389.4	4502
1022.1176	2951.9904	5296.25	4409.85
1022.2315	2953.0803	5222.95	4336.4
1022.3453	2954.1696	5162.95	4277.15
1022.4591	2955.2582	5097.8	4211.2
1022.5728	2956.3462	5032.35	4142.85
1022.6865	2957.4335	4988.9	4099.1
1022.8002	2958.5202	4932.05	4042.9
1022.9138	2959.6062	4891.9	4003.2
1023.0274	2960.6916	4858.35	3975
1023.141	2961.7764	4822.85	3935.8
1023.2545	2962.8605	4801.55	3915.9
1023.3679	2963.9439	4770.25	3884.1
1023.4813	2965.0267	4771.15	3882.55
1023.5947	2966.1089	4756.35	3845.7
1023.708	2967.1905	4693	3805.9
1023.8213	2968.2714	4693.15	3806.85
1023.9346	2969.3516	4665.4	3778.45
1024.0478	2970.4312	4681.15	3786.85
1024.1609	2971.5102	4652.45	3766.55
1024.274	2972.5885	4644.7	3757.4
1024.3871	2973.6662	4639	3747.85
1024.5002	2974.7432	4619	3733.35
1024.6132	2975.8196	4606.4	3718.3
1024.7261	2976.8954	4571.35	3683.3
1024.839	2977.9705	4543.2	3655.2
1024.9519	2979.045	4543.65	3657.1
1025.0647	2980.1188	4496	3609.8
1025.1775	2981.192	4469.3	3584.2
1025.2902	2982.2645	4448.85	3562.4
1025.4029	2983.3364	4418.45	3532.85
1025.5156	2984.4077	4379.7	3493.2
1025.6282	2985.4783	4358.1	3467.6
1025.7407	2986.5483	4314.95	3428
1025.8532	2987.6177	4256.75	3371.65
1025.9657	2988.6864	4227.7	3339.95
1026.0782	2989.7545	4182.6	3292.2
1026.1906	2990.8219	4155.55	3267.3
1026.3029	2991.8887	4108.2	3220.6
1026.4152	2992.9548	4071.9	3183.5
1026.5275	2994.0204	4026.35	3140
1026.6397	2995.0852	3993.75	3107.85
1026.7519	2996.1495	3968.25	3080.2
1026.864	2997.2131	3916.4	3029.15
1026.9761	2998.276	3889.9	3003.75
1027.0882	2999.3383	3872.9	2986.5
1027.2002	3000.4	3856.6	2969.25
1027.3122	3001.4611	3821.9	2936.15
1027.4241	3002.5215	3801	2913.05
1027.536	3003.5812	3764.6	2878.35
1027.6478	3004.6404	3759.2	2871.9
1027.7596	3005.6989	3725.25	2837.4
1027.8714	3006.7567	3698.65	2811.8
1027.9831	3007.8139	3693	2786.45
1028.0947	3008.8705	3665.25	2777.45
1028.2064	3009.9264	3652.4	2762.55
1028.3179	3010.9818	3645.55	2757.25
1028.4295	3012.0364	3638.45	2751.45
1028.541	3013.0905	3598.5	2710.1
1028.6524	3014.1439	3603.95	2717.6
1028.7638	3015.1966	3577.8	2693
1028.8752	3016.2487	3566.75	2680.85
1028.9865	3017.3002	3571.5	2680.35
1029.0978	3018.3511	3554.15	2668.3
1029.209	3019.4013	3547.45	2660.9
1029.3202	3020.4509	3538.75	2653.2
1029.4314	3021.4998	3520.4	2635.3
1029.5425	3022.5481	3510.7	2623.45
1029.6535	3023.5958	3502.05	2615.15
1029.7645	3024.6428	3494.4	2604.3
1029.8755	3025.6892	3483.85	2599.3
1029.9864	3026.735	3459.85	2573.65
1030.0973	3027.7802	3470.5	2583.5
1030.2082	3028.8247	3452	2566.75
1030.319	3029.8685	3436.75	2550.15
1030.4297	3030.9118	3435.5	2548.1
1030.5404	3031.9544	3431.75	2545.7
1030.6511	3032.9963	3418.35	2530.55
1030.7617	3034.0376	3420.65	2534.1
1030.8723	3035.0783	3418.9	2530.1
1030.9829	3036.1184	3400.25	2512.2
1031.0934	3037.1578	3391	2506.3
1031.2038	3038.1966	3399.45	2512.65
1031.3142	3039.2348	3393.55	2507.35
1031.4246	3040.2723	3379.6	2482.7
1031.5349	3041.3092	3361.85	2474.35
1031.6452	3042.3455	3338.45	2451.85
1031.7554	3043.3811	3342.2	2455.3
1031.8656	3044.4161	3324.45	2438.1
1031.9758	3045.4505	3316.4	2431
1032.0859	3046.4842	3311.3	2422.85
1032.1959	3047.5173	3279.35	2392.35
1032.3059	3048.5498	3280.6	2396.85
1032.4159	3049.5816	3274.45	2387.4
1032.5258	3050.6128	3266.8	2379.75
1032.6357	3051.6434	3244.25	2357.45
1032.7455	3052.6734	3226.45	2337.5
1032.8553	3053.7027	3226.65	2340.8
1032.9651	3054.7314	3211.8	2326.95
1033.0748	3055.7594	3188.25	2301.45
1033.1845	3056.7868	3174.55	2285.2
1033.2941	3057.8136	3178.65	2292.7
1033.4037	3058.8398	3156.9	2270.15
1033.5132	3059.8653	3151.35	2265.15
1033.6227	3060.8902	3127.05	2240.9
1033.7321	3061.9145	3125.2	2236.8
1033.8415	3062.9381	3107.8	2222.85
1033.9509	3063.9612	3108.65	2205.4
1034.0602	3064.9835	3082.85	2195
1034.1694	3066.0053	3066.35	2181.5
1034.2787	3067.0264	3049.05	2164.85
1034.3878	3068.0469	3043.3	2155.7
1034.497	3069.0668	3028.95	2140.3
1034.6061	3070.086	3015.15	2127.55
1034.7151	3071.1046	3012.9	2125.85
1034.8241	3072.1226	2987.35	2098.35
1034.9331	3073.1399	2983.05	2097.4
1035.042	3074.1567	2958.35	2070.85
1035.1508	3075.1727	2945.95	2056.7
1035.2597	3076.1882	2944.35	2057.85
1035.3684	3077.203	2911.75	2025.35
1035.4772	3078.2173	2893.6	2006.35
1035.5859	3079.2308	2891.05	2000
1035.6945	3080.2438	2865.6	1974.4
1035.8031	3081.2561	2865.25	1979.05
1035.9117	3082.2678	2850.9	1966.3
1036.0202	3083.2789	2846.85	1959.55
1036.1286	3084.2893	2828.45	1943.1
1036.2371	3085.2991	2818.15	1930.55
1036.3454	3086.3083	2805.9	1915.4
1036.4538	3087.3169	2786.6	1898.1
1036.562	3088.3248	2786.45	1897.7
1036.6703	3089.3321	2767.95	1879.05
1036.7785	3090.3388	2752.7	1867.5
1036.8866	3091.3449	2737.2	1851.5
1036.9948	3092.3503	2740.1	1849.8
1037.1028	3093.3551	2733.3	1848.7
1037.2108	3094.3593	2721.5	1835.85
1037.3188	3095.3629	2703.7	1818.4
1037.4267	3096.3658	2694.6	1809.55
1037.5346	3097.3681	2677.7	1790.95
1037.6425	3098.3698	2676.05	1786.1
1037.7503	3099.3708	2662.4	1767.6
1037.858	3100.3713	2650.15	1763.05
1037.9657	3101.3711	2630.65	1744.1
1038.0734	3102.3702	2737.95	1712.3
1038.181	3103.3688	2639.3	1751.05
1038.2886	3104.3667	2607.15	1722.8
1038.3961	3105.364	2586.6	1701.65
1038.5036	3106.3607	2581.7	1693
1038.611	3107.3568	2573.05	1684.55
1038.7184	3108.3522	2563.3	1678.1
1038.8257	3109.347	2555.95	1666.3
1038.933	3110.3412	2555	1665.1
1039.0403	3111.3348	2525	1637.4
1039.1475	3112.3277	2518.75	1633.9
1039.2547	3113.32	2510.95	1625.45
1039.3618	3114.3117	2520.3	1634.75
1039.4689	3115.3028	2497.15	1610.9
1039.5759	3116.2932	2497.25	1609.75
1039.6829	3117.2831	2479.15	1585.8
1039.7898	3118.2723	2471.05	1584.3
1039.8967	3119.2608	2457	1569.55
1040.0035	3120.2488	2455.15	1568.15
1040.1103	3121.2361	2451.65	1564.3
1040.2171	3122.2229	2424.35	1539.5
1040.3238	3123.209	2421.4	1534.4
1040.4305	3124.1944	2408.25	1523
1040.5371	3125.1793	2408.9	1519.7
1040.6437	3126.1635	2410.8	1525.05
1040.7502	3127.1471	2397.2	1512.6
1040.8567	3128.1301	2385.95	1500
1040.9631	3129.1125	2378	1491.8
1041.0695	3130.0942	2372.15	1483.8
1041.1759	3131.0753	2374.9	1479.75
1041.2822	3132.0558	2355.95	1466.85
1041.3884	3133.0357	2344.5	1456.75
1041.4946	3134.015	2343.3	1455.75
1041.6008	3134.9936	2333.6	1446.95
1041.7069	3135.9716	2358.9	1452.65
1041.813	3136.949	2326.55	1440.65
1041.919	3137.9258	2325.15	1432.35
1042.025	3138.902	2316.6	1424.1
1042.1309	3139.8775	2306.05	1420.05
1042.2368	3140.8524	2294.8	1408.7
1042.3427	3141.8267	2290.45	1401.45
1042.4485	3142.8004	2291.3	1404.95
1042.5542	3143.7735	2291.6	1398.9
1042.6599	3144.7459	2273.9	1385.8
1042.7656	3145.7178	2263.85	1375.5
1042.8712	3146.689	2273.4	1387.75
1042.9768	3147.6596	2254.7	1365.2
1043.0823	3148.6295	2241.35	1354.4
1043.1878	3149.5989	2222.65	1335.7
1043.2932	3150.5676	2226.2	1340.05
1043.3986	3151.5357	2229.25	1343.25
1043.5039	3152.5032	2218.95	1333.75
1043.6092	3153.4701	2198.45	1311.55
1043.7145	3154.4364	2202.2	1315.5
1043.8197	3155.402	2186.25	1301.15
1043.9248	3156.367	2178.35	1289.1
1044.03	3157.3315	2221.55	1292.9
1044.135	3158.2952	2176.25	1289.9
1044.24	3159.2584	2160.5	1274.9
1044.345	3160.221	2163.25	1275.6
1044.4499	3161.1829	2146.65	1260.15
1044.5548	3162.1442	2141.75	1256.3
1044.6596	3163.105	2134.15	1247.45
1044.7644	3164.065	2122.6	1234.45
1044.8692	3165.0245	2111.15	1220.8
1044.9739	3165.9834	2112.65	1226.85
1045.0785	3166.9416	2099.25	1214.45
1045.1831	3167.8993	2091.7	1204.55
1045.2877	3168.8563	2095.75	1207.45
1045.3922	3169.8127	2089.35	1203.55
1045.4966	3170.7684	2076.1	1191.5
1045.6011	3171.7236	2072.9	1185.3
1045.7054	3172.6782	2059.2	1174.45
1045.8098	3173.6321	2051.2	1164.4
1045.914	3174.5854	2056.95	1167.05
1046.0183	3175.5381	2051.65	1163.85
1046.1224	3176.4902	2045.2	1159.35
1046.2266	3177.4417	2032.7	1147.15
1046.3307	3178.3926	2032.7	1146.35
1046.4347	3179.3428	2027.3	1141.1
1046.5387	3180.2924	2025.95	1140.95
1046.6427	3181.2415	2017.3	1130.35
1046.7466	3182.1899	1995.35	1107.95
1046.8504	3183.1377	1999.3	1113.7
1046.9542	3184.0848	1983.3	1095.45
1047.058	3185.0314	1985.1	1097.75
1047.1617	3185.9773	1982.6	1094.8
1047.2654	3186.9227	1976.5	1090.9
1047.369	3187.8674	1966.35	1081.5
1047.4726	3188.8115	1967.9	1078.4
1047.5761	3189.755	1954.75	1068.1
1047.6796	3190.6979	1947.4	1060.15
1047.783	3191.6402	1940.6	1054.35
1047.8864	3192.5818	1933.85	1048.2
1047.9898	3193.5229	1958.4	1046.9
1048.0931	3194.4633	1942.7	1056.05
1048.1963	3195.4031	1924.45	1037.35
1048.2995	3196.3423	1916.5	1030.2
1048.4027	3197.2809	1914.65	1029.05
1048.5058	3198.2189	1917.3	1031.8
1048.6089	3199.1563	1906	1013
1048.7119	3200.0931	1887.3	1002
1048.8148	3201.0292	1889.65	1003
1048.9178	3201.9648	1894.35	1009.5
1049.0206	3202.8997	1879.3	989.55
1049.1235	3203.834	1878.5	992.6
1049.2262	3204.7677	1869.05	981.2
1049.329	3205.7008	1865.6	977.6
1049.4317	3206.6333	1855	970.8
1049.5343	3207.5652	1858.85	971.2
1049.6369	3208.4964	1851.05	964.2
1049.7394	3209.4271	1851.05	965.95
1049.8419	3210.3571	1842.9	958.55
1049.9444	3211.2865	1845.8	957.9
1050.0468	3212.2154	1827.35	940.1
1050.1491	3213.1436	1826.35	936.85
1050.2514	3214.0712	1834.9	942.8
1050.3537	3214.9982	1818.75	932.9
1050.4559	3215.9246	1812.5	924.85
1050.5581	3216.8503	1803.05	917.55
1050.6602	3217.7755	1808.95	922
1050.7623	3218.7001	1810.8	923.9
1050.8643	3219.624	1794.25	908.1
1050.9663	3220.5473	1797.45	910.85
1051.0682	3221.4701	1795.15	908.6
1051.1701	3222.3922	1780	891.95
1051.2719	3223.3137	1775.55	889.95
1051.3737	3224.2346	1775.35	893.25
1051.4754	3225.1549	1771.3	885.9
1051.5771	3226.0746	1755.55	871.75
1051.6788	3226.9937	1754.55	869.7
1051.7804	3227.9121	1757.8	871.6
1051.8819	3228.83	1746.35	860.65
1051.9834	3229.7473	1746.4	859.25
1052.0849	3230.6639	1739.85	852
1052.1863	3231.5799	1731.25	844.8
1052.2876	3232.4954	1723.5	836.2
1052.3889	3233.4102	1727.95	841.75
1052.4902	3234.3244	1724	838.7
1052.5914	3235.238	1710.35	825.45
1052.6926	3236.151	1737.7	826.95
1052.7937	3237.0634	1703.15	818.05
1052.8948	3237.9752	1698.15	814.4
1052.9958	3238.8864	1693.75	807.75
1053.0968	3239.797	1691.7	806.1
1053.1977	3240.7069	1686.15	799.1
1053.2986	3241.6163	1680.9	792.8
1053.3994	3242.5251	1676.15	790.05
1053.5002	3243.4332	1670.75	788.3
1053.6009	3244.3408	1665.55	778.6
1053.7016	3245.2477	1655.9	768.45
1053.8022	3246.154	1655.15	767.65
1053.9028	3247.0598	1657.75	770.8
1054.0034	3247.9649	1648.8	762.1
1054.1039	3248.8694	1645.85	760.3
1054.2043	3249.7733	1633.35	748.25
1054.3047	3250.6766	1635.1	748.55
1054.4051	3251.5793	1636	749.2
1054.5054	3252.4814	1622.05	737
1054.6056	3253.3829	1620.45	733.35
1054.7058	3254.2838	1611.7	726.1
1054.806	3255.1841	1603.05	717
1054.9061	3256.0838	1609.9	723.3
1055.0061	3256.9829	1597	712.15
1055.1062	3257.8814	1601.7	712.75
1055.2061	3258.7792	1595.8	707.75
1055.306	3259.6765	1570.05	681.9
1055.4059	3260.5731	1570.9	684.75
1055.5057	3261.4692	1558.2	672.75
1055.6055	3262.3647	1550.1	662.8
1055.7052	3263.2595	1544.25	657.5
1055.8049	3264.1538	1533.5	647.25
1055.9045	3265.0474	1532.2	645
1056.0041	3265.9404	1513.15	627.85
1056.1036	3266.8329	1510.55	625.35
1056.2031	3267.7247	1505.3	609.45
1056.3025	3268.616	1482.6	595.75
1056.4019	3269.5066	1466.8	580.9
1056.5013	3270.3966	1455.05	569.1
1056.6005	3271.286	1433.05	548.4
