Software Version:	3.9.2.0
Unit SN:	10000200
Spectrometer SN:	6960
Date:	3/6/2024 10:09:19 AM
Data Line Index:	25
Spectral Points:	2048
Integration time (ms):	125
Averages:	20
Delay (ms):	30
Sequence Number:	1
Processing:	dark subtract
Laser Power (mW):	305
Laser Current (mA):	824
Laser Diode Temp (C):	25
Laser Case Temp (C):	24.9
System Temp (C):	24.7
Spectrometer Temp (C):	22.3
CCD Temp (C):	0.002
Secondary Temp (C):	20.007
Heatsink Temp (C):	18.635
CCDPCB Temp (C):	31.794
SecondaryPCB Temp (C):	26.003

Wavelength	RamanShift	Raw Counts	Dark Subtracted
787.061	30.1047	852.25	440.95
787.2016	32.3739	868.3	461.55
787.3422	34.6426	895.45	487.95
787.4828	36.9109	921.05	511.05
787.6235	39.1787	959.5	546.25
787.7642	41.4461	996.75	578.45
787.9049	43.7131	1028.55	607.9
788.0456	45.9796	1071.3	644.1
788.1863	48.2456	1117.2	688.8
788.3271	50.5112	1156.8	724
788.4679	52.7764	1205.65	771
788.6087	55.0411	1251.25	812.7
788.7496	57.3054	1297.8	853.75
788.8904	59.5692	1361.05	914.95
789.0313	61.8326	1421.75	973.45
789.1722	64.0955	1486.05	1033.4
789.3132	66.3579	1560.05	1101.8
789.4541	68.6199	1657.25	1196.95
789.5951	70.8815	1838.95	1376.2
789.7361	73.1426	2202.65	1734.95
789.8771	75.4032	3124.35	2652.35
790.0181	77.6634	5507.05	5029.1
790.1592	79.9231	11553.7	11069.35
790.3003	82.1824	31263.05	30768.1
790.4414	84.4412	55699.15	55181.5
790.5825	86.6995	63718.85	63174.05
790.7237	88.9574	64945	64380.75
790.8648	91.2148	65343.85	64764.2
791.006	93.4717	65436.55	64845.35
791.1472	95.7282	65492.05	64897.35
791.2885	97.9842	65523.55	64928.3
791.4297	100.2398	65521.75	64918.05
791.571	102.4949	65525.15	64921.3
791.7123	104.7495	65521.55	64911.85
791.8536	107.0036	65521.85	64910.6
791.9949	109.2573	65529.9	64922.85
792.1363	111.5105	65528.15	64916.85
792.2777	113.7632	65527.3	64914.95
792.4191	116.0154	65532.4	64911
792.5605	118.2672	65535	64914.65
792.7019	120.5185	65535	64915.2
792.8434	122.7693	65535	64911.4
792.9849	125.0197	65534.05	64907.9
793.1264	127.2696	65535	64904
793.2679	129.519	65535	64899
793.4094	131.7679	65535	64898.95
793.551	134.0163	65535	64891.7
793.6926	136.2642	65535	64891.05
793.8342	138.5117	65535	64888.3
793.9758	140.7587	65535	64885.05
794.1175	143.0052	65535	64888.6
794.2591	145.2512	65535	64880.55
794.4008	147.4967	65535	64884.85
794.5425	149.7417	65535	64880.2
794.6842	151.9863	65535	64875.3
794.826	154.2304	65535	64872.9
794.9677	156.4739	65535	64867.55
795.1095	158.717	65535	64866.3
795.2513	160.9596	65535	64861.5
795.3931	163.2017	65535	64858.55
795.535	165.4433	65535	64855.7
795.6768	167.6844	65535	64856.95
795.8187	169.925	65535	64852.6
795.9606	172.1651	65535	64851.4
796.1025	174.4047	65535	64850.2
796.2445	176.6439	65535	64845.95
796.3864	178.8825	65535	64839.8
796.5284	181.1206	65535	64835.6
796.6704	183.3582	65535	64834.95
796.8124	185.5954	65535	64832.1
796.9544	187.832	65535	64824.3
797.0965	190.0681	65535	64829.95
797.2386	192.3037	65535	64822.25
797.3806	194.5388	65535	64815.05
797.5228	196.7734	65535	64816.35
797.6649	199.0075	65535	64814.55
797.807	201.2411	65535	64816.1
797.9492	203.4742	65535	64813.95
798.0914	205.7068	65535	64807.3
798.2336	207.9389	65535	64808.3
798.3758	210.1704	65535	64812.5
798.518	212.4015	65535	64824.1
798.6603	214.632	65535	64830.25
798.8025	216.862	65535	64830.6
798.9448	219.0915	65535	64830.55
799.0871	221.3205	65535	64824.2
799.2294	223.549	65535	64833.7
799.3718	225.777	65535	64831
799.5141	228.0044	65535	64822.85
799.6565	230.2314	65535	64821.35
799.7989	232.4578	65535	64818.95
799.9413	234.6837	65535	64810.5
800.0837	236.909	65535	64809.5
800.2262	239.1339	65535	64780.8
800.3687	241.3582	65535	64799.25
800.5111	243.582	65535	64765.35
800.6536	245.8053	65535	64780.3
800.7961	248.0281	65535	64781.25
800.9387	250.2503	65535	64778.6
801.0812	252.472	65535	64781.9
801.2238	254.6932	65535	64779.85
801.3664	256.9139	65535	64776.9
801.509	259.134	65535	64772.5
801.6516	261.3536	65535	64773.9
801.7942	263.5727	65535	64775
801.9369	265.7912	65535	64775.8
802.0795	268.0092	65535	64772.65
802.2222	270.2267	65535	64770.4
802.3649	272.4436	65535	64770.95
802.5076	274.6601	65535	64761.9
802.6504	276.8759	65535	64766.4
802.7931	279.0913	65535	64765.55
802.9359	281.3061	65535	64767.2
803.0787	283.5204	65535	64758.25
803.2215	285.7341	65535	64759.55
803.3643	287.9473	65535	64745.7
803.5071	290.16	65535	64755.9
803.6499	292.3721	65535	64757.8
803.7928	294.5837	65535	64755.3
803.9357	296.7947	65535	64756.2
804.0786	299.0052	65535	64757.05
804.2215	301.2152	65535	64757.2
804.3644	303.4246	65535	64761.5
804.5074	305.6334	65535	64759.25
804.6503	307.8418	65535	64753.5
804.7933	310.0495	65535	64754.8
804.9363	312.2568	65535	64751.9
805.0793	314.4635	65535	64751.6
805.2223	316.6696	65535	64741.45
805.3653	318.8752	65535	64737.5
805.5084	321.0802	65535	64742.9
805.6514	323.2847	65535	64744.5
805.7945	325.4887	65535	64742.1
805.9376	327.692	65535	64740.35
806.0807	329.8949	65535	64741
806.2238	332.0972	65535	64739.85
806.367	334.2989	65535	64733.5
806.5101	336.5001	65535	64732.8
806.6533	338.7007	65535	64736
806.7965	340.9008	65535	64732.65
806.9397	343.1003	65535	64730.5
807.0829	345.2992	65535	64731.05
807.2261	347.4976	65535	64730.5
807.3693	349.6955	65535	64725.85
807.5126	351.8927	65535	64725.7
807.6559	354.0895	65535	64710.75
807.7991	356.2856	65535	64722.75
807.9424	358.4812	65535	64721.35
808.0857	360.6763	65535	64714.95
808.2291	362.8707	65535	64717.7
808.3724	365.0646	65535	64715
808.5158	367.258	65535	64713.95
808.6591	369.4508	65535	64711.7
808.8025	371.643	65535	64707.65
808.9459	373.8346	65535	64709.8
809.0893	376.0257	65535	64707.25
809.2327	378.2162	65535	64711.15
809.3762	380.4062	65535	64707.85
809.5196	382.5956	65535	64710.8
809.6631	384.7844	65535	64714.05
809.8066	386.9726	65535	64717.35
809.9501	389.1603	65535	64717.65
810.0936	391.3474	65535	64674.4
810.2371	393.5339	65535	64710.9
810.3806	395.7199	65535	64714.35
810.5241	397.9052	65535	64718.2
810.6677	400.09	65535	64715.95
810.8113	402.2743	65535	64713.15
810.9548	404.4579	65535	64713.6
811.0984	406.641	65535	64707.5
811.2421	408.8235	65535	64708.55
811.3857	411.0054	65535	64706.95
811.5293	413.1868	65535	64704.2
811.673	415.3675	65535	64696
811.8166	417.5477	65535	64695.3
811.9603	419.7273	65535	64700.3
812.104	421.9064	65535	64691.3
812.2477	424.0848	65535	64696.55
812.3914	426.2627	65535	64696.6
812.5351	428.4399	65535	64693.5
812.6788	430.6166	65535	64689.6
812.8226	432.7928	65535	64687.9
812.9663	434.9683	65535	64691
813.1101	437.1432	65535	64690.9
813.2539	439.3176	65535	64691.05
813.3977	441.4914	65535	64697.7
813.5415	443.6645	65535	64691.95
813.6853	445.8371	65535	64689.7
813.8291	448.0091	65535	64693.65
813.973	450.1806	65535	64694.35
814.1168	452.3514	65535	64694.5
814.2607	454.5216	65535	64682.8
814.4046	456.6913	65535	64688.9
814.5485	458.8603	65535	64687.7
814.6924	461.0288	65535	64691.45
814.8363	463.1967	65535	64691.4
814.9802	465.3639	65535	64689.45
815.1241	467.5306	65535	64690.1
815.2681	469.6967	65535	64690.8
815.412	471.8622	65535	64691.1
815.556	474.0271	65535	64691.4
815.7	476.1914	65535	64686
815.844	478.3551	65535	64687.3
815.988	480.5182	65535	64687.65
816.132	482.6807	65535	64686.8
816.276	484.8426	65535	64695.4
816.4201	487.0039	65535	64692.25
816.5641	489.1647	65535	64684.9
816.7082	491.3248	65535	64682.85
816.8522	493.4843	65535	64688.25
816.9963	495.6432	65535	64687.4
817.1404	497.8015	65535	64679.05
817.2845	499.9592	65535	64677.35
817.4286	502.1163	65535	64677.6
817.5727	504.2728	65535	64678.25
817.7168	506.4287	65535	64685.5
817.861	508.5839	65535	64685.65
818.0051	510.7386	65535	64685.6
818.1493	512.8927	65535	64674.65
818.2935	515.0461	65535	64674.5
818.4377	517.199	65535	64674.95
818.5818	519.3512	65535	64675.25
818.726	521.5029	65535	64672.25
818.8703	523.6539	65535	64674.45
819.0145	525.8043	65535	64672.2
819.1587	527.9541	65535	64670.65
819.303	530.1033	65535	64673.3
819.4472	532.2519	65535	64675
819.5915	534.3999	65535	64669.55
819.7357	536.5472	65535	64671.1
819.88	538.694	65535	64676.25
820.0243	540.8401	65535	64670.8
820.1686	542.9856	65535	64665.85
820.3129	545.1305	65535	64662.15
820.4572	547.2748	65535	64659.8
820.6016	549.4185	65535	64659.35
820.7459	551.5615	65535	64660.05
820.8902	553.704	65535	64662.85
821.0346	555.8458	65535	64664.25
821.1789	557.987	65535	64665.15
821.3233	560.1276	65535	64662.9
821.4677	562.2675	65535	64665.8
821.6121	564.4069	65535	64667.2
821.7565	566.5456	65535	64663.9
821.9009	568.6837	65535	64664.85
822.0453	570.8212	65535	64664.3
822.1897	572.958	65535	64659.85
822.3342	575.0942	65535	64664.95
822.4786	577.2299	65535	64668.4
822.6231	579.3648	65535	64670.3
822.7675	581.4992	65535	64676.3
822.912	583.6329	65535	64676.7
823.0565	585.766	65535	64671.95
823.201	587.8985	65535	64670.05
823.3454	590.0304	65535	64641.95
823.4899	592.1616	65535	64659.2
823.6345	594.2922	65535	64660.7
823.779	596.4222	65535	64658.05
823.9235	598.5515	65535	64658.85
824.068	600.6802	65535	64655.85
824.2126	602.8083	65535	64662.2
824.3571	604.9358	65535	64658.25
824.5017	607.0626	65535	64658.7
824.6462	609.1888	65535	64653.8
824.7908	611.3144	65535	64652.55
824.9354	613.4393	65535	64654.5
825.08	615.5636	65534.7	64654.3
825.2246	617.6873	65535	64652.85
825.3692	619.8103	65531.45	64648
825.5138	621.9327	65535	64653.25
825.6584	624.0544	65535	64657.4
825.803	626.1756	65535	64659.8
825.9477	628.2961	65535	64649.25
826.0923	630.4159	65535	64652.95
826.237	632.5351	65535	64652.1
826.3816	634.6537	65535	64652.15
826.5263	636.7716	65533.85	64644.95
826.6709	638.8889	65535	64647.3
826.8156	641.0056	65535	64646.65
826.9603	643.1216	65535	64645.35
827.105	645.237	65535	64647
827.2497	647.3518	65529.3	64646.55
827.3944	649.4659	65535	64653.2
827.5391	651.5793	65535	64652.95
827.6838	653.6922	65535	64651.65
827.8285	655.8043	65522.25	64637.55
827.9733	657.9159	65535	64650.85
828.118	660.0268	65490.45	64603.35
828.2627	662.137	65534.45	64647.2
828.4075	664.2466	65535	64643.3
828.5522	666.3556	65526.8	64636.2
828.697	668.4639	65535	64646.8
828.8418	670.5716	65519.75	64635
828.9865	672.6786	65533.45	64645.95
829.1313	674.785	65522.05	64629.1
829.2761	676.8907	65520.65	64630.5
829.4209	678.9958	65529.45	64644.6
829.5657	681.1002	65528.95	64638.5
829.7105	683.204	65517.7	64623.1
829.8553	685.3072	65500.8	64608.6
830.0001	687.4097	65519.25	64628.75
830.1449	689.5115	65491.2	64597.5
830.2898	691.6127	65527.3	64638.35
830.4346	693.7132	65515.65	64627.6
830.5794	695.8131	65514.05	64602
830.7243	697.9123	65518.95	64624.15
830.8691	700.0109	65519.85	64621.75
831.014	702.1089	65482.7	64591.3
831.1588	704.2061	65495.5	64601.25
831.3037	706.3028	65504.65	64606.9
831.4486	708.3987	65516.75	64622
831.5935	710.4941	65478.65	64586.3
831.7383	712.5887	65514.75	64620.15
831.8832	714.6827	65475	64576.35
832.0281	716.7761	65501.9	64606.35
832.173	718.8688	65513.55	64613.35
832.3179	720.9608	65469.05	64568.9
832.4628	723.0522	65472.4	64566.55
832.6077	725.1429	65445.4	64544.75
832.7527	727.233	65526.55	64630.65
832.8976	729.3224	65395.75	64497.05
833.0425	731.4112	65446.55	64545.4
833.1874	733.4993	65450.3	64547.85
833.3324	735.5867	65454.35	64558.65
833.4773	737.6735	65422.9	64525.9
833.6222	739.7596	65402.35	64504.15
833.7672	741.845	65400.4	64501.25
833.9122	743.9298	65461.65	64561.1
834.0571	746.014	65404.45	64505.85
834.2021	748.0974	65367.95	64465.55
834.347	750.1802	65438.45	64534
834.492	752.2624	65359.85	64458.6
834.637	754.3439	65374.1	64467.25
834.782	756.4247	65385.1	64474.5
834.9269	758.5048	65351.6	64452.6
835.0719	760.5843	65355.5	64452.8
835.2169	762.6631	65362.7	64460.85
835.3619	764.7413	65346.95	64444.65
835.5069	766.8188	65344.7	64439.8
835.6519	768.8956	65360.25	64457.8
835.7969	770.9718	65362	64459.1
835.9419	773.0473	65341.3	64439.9
836.0869	775.1221	65301.55	64399.6
836.232	777.1962	65312.55	64412.2
836.377	779.2697	65274.45	64367
836.522	781.3426	65285.85	64360.35
836.667	783.4147	65284.35	64381.8
836.8121	785.4862	65272.75	64368.4
836.9571	787.557	65258.8	64352.75
837.1021	789.6271	65304.35	64396.15
837.2472	791.6966	65272.35	64365.35
837.3922	793.7654	65245.15	64341.6
837.5373	795.8335	65257.2	64353.9
837.6823	797.901	65256.1	64350.6
837.8274	799.9678	65237.9	64331.9
837.9724	802.0339	65230.35	64324.25
838.1175	804.0993	65238.05	64322.5
838.2626	806.1641	65228.9	64319.8
838.4076	808.2282	65216.95	64311
838.5527	810.2916	65211.45	64302.25
838.6978	812.3544	65222.55	64317.4
838.8428	814.4164	65170.05	64266
838.9879	816.4778	65184.8	64276.95
839.133	818.5385	65194.9	64282
839.2781	820.5986	65182.3	64275.65
839.4232	822.658	65176.65	64266.75
839.5682	824.7166	65185.75	64278.55
839.7133	826.7747	65152.45	64241.3
839.8584	828.832	65161.85	64251.3
840.0035	830.8886	65181.15	64270.6
840.1486	832.9446	65173.6	64264.7
840.2937	834.9999	65118.05	64211.05
840.4388	837.0545	65144.3	64232.2
840.5839	839.1085	65157.1	64244.6
840.729	841.1618	65149.5	64235.75
840.8741	843.2143	65112.3	64204.1
841.0192	845.2662	65098.4	64190.55
841.1643	847.3175	65124.65	64213.9
841.3095	849.368	65081.2	64171.25
841.4546	851.4179	65117.6	64206.3
841.5997	853.467	65090.8	64183.4
841.7448	855.5155	65095.6	64186
841.8899	857.5633	65076.5	64169.2
842.0351	859.6105	65049.25	64138.65
842.1802	861.6569	65067.5	64158.35
842.3253	863.7027	65044.2	64135.55
842.4704	865.7478	65044.8	64131.6
842.6156	867.7922	65029.8	64119.25
842.7607	869.8359	65049.9	64137.55
842.9058	871.8789	65019.95	64109.5
843.0509	873.9212	65039.6	64092.85
843.1961	875.9629	65030.9	64117.25
843.3412	878.0039	65026.9	64114.85
843.4863	880.0441	65011.4	64098.65
843.6315	882.0837	65007.45	64095.65
843.7766	884.1226	65010	64098.45
843.9218	886.1609	65005.1	64091.9
844.0669	888.1984	64992.2	64084.25
844.212	890.2352	65012.3	64101.05
844.3572	892.2714	64989.2	64073.05
844.5023	894.3069	64990.35	64081.25
844.6475	896.3416	64991.05	64076.15
844.7926	898.3757	64998.95	64086.35
844.9377	900.4091	64961.25	64045.2
845.0829	902.4418	64983.7	64061.3
845.228	904.4739	64957.9	64041.35
845.3732	906.5052	64968.45	64052.95
845.5183	908.5358	64950.65	64037.25
845.6635	910.5658	64933.1	64016.75
845.8086	912.595	64940.1	64026.1
845.9538	914.6236	64918.2	64004.05
846.0989	916.6515	64952.95	64040.65
846.2441	918.6786	64911.35	63996.95
846.3892	920.7051	64906.7	63990.4
846.5344	922.7309	64920.1	64005.2
846.6795	924.756	64905.5	63989.1
846.8246	926.7804	64888.45	63968.75
846.9698	928.8041	64864.9	63949.15
847.1149	930.8272	64878.9	63964.95
847.2601	932.8495	64862.95	63946.3
847.4052	934.8711	64854.6	63936.05
847.5504	936.892	64845.8	63927.3
847.6955	938.9123	64839.55	63922.55
847.8407	940.9318	64831.25	63918.2
847.9858	942.9506	64823.6	63905.85
848.131	944.9688	64816.7	63899.8
848.2761	946.9862	64793.7	63881.05
848.4213	949.003	64786.05	63869.55
848.5664	951.019	64781.7	63867.1
848.7115	953.0344	64790.85	63874.6
848.8567	955.0491	64772.25	63856.6
849.0018	957.063	64772.95	63857.35
849.147	959.0763	64772.6	63856.25
849.2921	961.0888	64757.75	63841.8
849.4373	963.1007	64770.95	63857.15
849.5824	965.1119	64746.25	63833.85
849.7275	967.1223	64754.85	63844.1
849.8727	969.1321	64756.75	63851.3
850.0178	971.1412	64736	63825.75
850.1629	973.1495	64725.15	63811
850.3081	975.1572	64729.7	63774.2
850.4532	977.1641	64711.95	63794.15
850.5983	979.1704	64720.45	63803.6
850.7435	981.1759	64704.6	63783.5
850.8886	983.1808	64687.2	63767.95
851.0337	985.1849	64679.55	63758.35
851.1788	987.1884	64688.75	63771.9
851.324	989.1911	64668.85	63749.6
851.4691	991.1932	64619.4	63703.85
851.6142	993.1945	64631.25	63717.35
851.7593	995.1951	64627.05	63709.75
851.9045	997.1951	64603.1	63681.25
852.0496	999.1943	64595.65	63679.05
852.1947	1001.1928	64566.6	63652
852.3398	1003.1906	64575.65	63659.7
852.4849	1005.1877	64511.7	63593.35
852.63	1007.1841	64495.5	63581.05
852.7751	1009.1798	64491.95	63574.2
852.9202	1011.1748	64479.6	63562.7
853.0653	1013.1691	64464.3	63546.75
853.2104	1015.1627	64355.75	63439.4
853.3555	1017.1556	64394.15	63479.35
853.5006	1019.1477	64407.05	63489.2
853.6457	1021.1392	64348.6	63438.4
853.7908	1023.1299	64274.55	63363.85
853.9359	1025.12	64319.8	63413.65
854.081	1027.1093	64266.85	63367.4
854.2261	1029.0979	64250	63348.9
854.3712	1031.0859	64248.45	63343.25
854.5163	1033.0731	64179.95	63271
854.6613	1035.0596	64206.15	63297.1
854.8064	1037.0454	64197.85	63286.25
854.9515	1039.0304	64167.15	63252.45
855.0965	1041.0148	64098.05	63183.05
855.2416	1042.9985	64101.7	63186.7
855.3867	1044.9814	64151.9	63240.1
855.5317	1046.9636	64072.35	63155.05
855.6768	1048.9452	64092.2	63176.45
855.8219	1050.926	64063.4	63149.55
855.9669	1052.9061	64054.85	63142.1
856.112	1054.8855	64062.25	63147.1
856.257	1056.8642	64015.35	63100.1
856.4021	1058.8421	63996.4	63075.3
856.5471	1060.8194	63983.05	63066.4
856.6921	1062.7959	63949.55	63035.3
856.8372	1064.7717	63986.05	63069.35
856.9822	1066.7469	63957.35	63042.05
857.1272	1068.7213	63953.75	63034.5
857.2723	1070.695	63954.4	63039.65
857.4173	1072.6679	63901.1	62983.55
857.5623	1074.6402	63905.25	62990.45
857.7073	1076.6117	63888.5	62965.5
857.8523	1078.5826	63892.7	62974.6
857.9973	1080.5527	63897.25	62977
858.1423	1082.5221	63845.75	62931.15
858.2873	1084.4908	63847.1	62930.9
858.4323	1086.4587	63827.75	62911.45
858.5773	1088.426	63844.95	62928.8
858.7223	1090.3925	63811.6	62888
858.8673	1092.3584	63810.2	62894
859.0123	1094.3235	63770	62855.1
859.1573	1096.2879	63755.8	62840
859.3022	1098.2515	63769.35	62853
859.4472	1100.2145	63759.65	62844.5
859.5922	1102.1767	63727.9	62811.3
859.7371	1104.1382	63737.9	62822.25
859.8821	1106.099	63729.2	62813.7
860.027	1108.0591	63706.65	62794.35
860.172	1110.0185	63676.1	62758.85
860.3169	1111.9771	63685.9	62772.75
860.4619	1113.9351	63670.65	62756.1
860.6068	1115.8923	63651.1	62735.65
860.7517	1117.8488	63611.3	62696.5
860.8967	1119.8045	63607.95	62691.05
861.0416	1121.7596	63580.05	62663
861.1865	1123.7139	63557.3	62644.3
861.3314	1125.6675	63544.3	62633
861.4763	1127.6204	63552.9	62641.15
861.6212	1129.5726	63508.25	62591.35
861.7661	1131.524	63533.7	62621.6
861.911	1133.4748	63530.3	62614.7
862.0559	1135.4248	63485.4	62567.6
862.2008	1137.3741	63477.85	62562.2
862.3457	1139.3226	63477.75	62560.8
862.4905	1141.2705	63450.3	62532.85
862.6354	1143.2176	63456.3	62534.75
862.7803	1145.164	63302.35	62383.35
862.9251	1147.1097	63403.95	62489.05
863.07	1149.0546	63406.9	62489
863.2148	1150.9989	63410.25	62495.1
863.3597	1152.9424	63234.35	62320.55
863.5045	1154.8852	63390.65	62474.35
863.6493	1156.8272	63237.45	62323.6
863.7942	1158.7686	63394.05	62470.9
863.939	1160.7092	63186.15	62268.2
864.0838	1162.6491	63232.2	62312.55
864.2286	1164.5883	63240.85	62326.3
864.3734	1166.5267	63151.65	62233.15
864.5182	1168.4644	63230.4	62312.45
864.663	1170.4014	63172.45	62252.55
864.8078	1172.3377	63183.25	62271.85
864.9526	1174.2732	63224.55	62308.05
865.0974	1176.2081	63162.55	62244.65
865.2421	1178.1421	63094.7	62176.2
865.3869	1180.0755	63195.15	62280.15
865.5317	1182.0082	63144.5	62229.25
865.6764	1183.9401	63158.15	62244.3
865.8212	1185.8713	63009.2	62095.85
865.9659	1187.8017	62996.9	62086.7
866.1106	1189.7315	62972.4	62067.7
866.2554	1191.6605	62962.75	62029.7
866.4001	1193.5888	62900.4	61993.7
866.5448	1195.5163	62739.8	61829.25
866.6895	1197.4432	62743	61827.85
866.8342	1199.3693	62750.2	61837.55
866.9789	1201.2947	62657.35	61742.05
867.1236	1203.2193	62715.5	61800.2
867.2683	1205.1432	62539.1	61623.1
867.413	1207.0664	62531.8	61620.35
867.5576	1208.9889	62480	61565
867.7023	1210.9106	62496.7	61583.85
867.847	1212.8316	62405.55	61492.25
867.9916	1214.7519	62381.95	61458.05
868.1363	1216.6715	62321.8	61405.25
868.2809	1218.5903	62329.6	61415.3
868.4255	1220.5084	62293.7	61379.15
868.5701	1222.4257	62294	61382.85
868.7148	1224.3424	62242.8	61329.15
868.8594	1226.2583	62120.25	61204.25
869.004	1228.1735	62208.8	61295.5
869.1486	1230.0879	62045	61131.25
869.2932	1232.0016	62162.8	61250.6
869.4377	1233.9146	62008.9	61094.05
869.5823	1235.8269	62046.4	61131.85
869.7269	1237.7384	62005.05	61091.1
869.8715	1239.6492	61996	61083.55
870.016	1241.5592	61848.6	60933.6
870.1606	1243.4686	61936.5	61022.85
870.3051	1245.3772	61769.3	60855
870.4496	1247.285	61847.75	60933.4
870.5941	1249.1922	61722.45	60809.55
870.7387	1251.0986	61807.8	60893.7
870.8832	1253.0042	61698.7	60788.55
871.0277	1254.9092	61770.4	60857.05
871.1722	1256.8134	61570.2	60659.95
871.3167	1258.7169	61753.85	60841.2
871.4611	1260.6196	61600.7	60689.3
871.6056	1262.5216	61581	60670.05
871.7501	1264.4229	61619.35	60706.95
871.8945	1266.3234	61674.55	60763.65
872.039	1268.2232	61616.4	60704.5
872.1834	1270.1223	61497.15	60582.9
872.3278	1272.0207	61481.95	60568
872.4723	1273.9183	61463.8	60542.4
872.6167	1275.8151	61447.15	60536
872.7611	1277.7113	61440.55	60530.3
872.9055	1279.6067	61351.25	60439.65
873.0499	1281.5014	61332.8	60417.3
873.1943	1283.3953	61441.65	60526.1
873.3386	1285.2885	61351.95	60440.25
873.483	1287.181	61363.1	60451.15
873.6274	1289.0727	61364.2	60452.4
873.7717	1290.9637	61186.15	60275.85
873.9161	1292.854	61428.1	60515.55
874.0604	1294.7435	61331.6	60418.85
874.2047	1296.6323	61337.65	60425.95
874.349	1298.5204	61247.7	60330.1
874.4933	1300.4077	61322.5	60406.25
874.6376	1302.2943	61162.45	60248
874.7819	1304.1802	61112.9	60201.65
874.9262	1306.0653	61055.5	60139.9
875.0705	1307.9497	60999.05	60089.25
875.2147	1309.8333	61008.25	60096.8
875.359	1311.7162	60948.2	60033.65
875.5032	1313.5984	60930.15	60012.55
875.6475	1315.4798	60862.05	59937.65
875.7917	1317.3605	60814.6	59887.8
875.9359	1319.2405	60841.55	59925.85
876.0801	1321.1197	60641.6	59727.25
876.2243	1322.9982	60719.3	59803.1
876.3685	1324.876	60633.15	59722.5
876.5127	1326.753	60535.35	59624.25
876.6569	1328.6293	60661.9	59745.65
876.801	1330.5048	60535.25	59620.5
876.9452	1332.3796	60439.7	59527.75
877.0893	1334.2537	60400.15	59462.35
877.2335	1336.127	60454.75	59540.05
877.3776	1337.9996	60314.2	59401.65
877.5217	1339.8714	60453.05	59542.4
877.6658	1341.7426	60154.6	59201.2
877.8099	1343.6129	60283.3	59369.65
877.954	1345.4826	60279.9	59368.45
878.0981	1347.3515	60082.3	59166.4
878.2422	1349.2196	60222.9	59309.35
878.3862	1351.087	60127.8	59212.55
878.5303	1352.9537	60165.25	59255.55
878.6743	1354.8197	60174.45	59263.35
878.8184	1356.6849	60139.6	59226.9
878.9624	1358.5493	60069.15	59156.95
879.1064	1360.4131	59965.3	59052.35
879.2504	1362.276	60160.2	59251.6
879.3944	1364.1383	59928.45	59017.4
879.5384	1365.9998	59785.35	58865.5
879.6823	1367.8606	59836.5	58923.45
879.8263	1369.7206	59703	58791.55
879.9702	1371.5799	59618.5	58703.6
880.1142	1373.4384	59504.35	58591.8
880.2581	1375.2962	59524.65	58610.9
880.402	1377.1533	59260.9	58349.05
880.5459	1379.0096	59168.05	58258.35
880.6898	1380.8652	59138.7	58229
880.8337	1382.7201	59008.5	58100.25
880.9776	1384.5742	58969.1	58056.8
881.1215	1386.4275	58731.35	57816.3
881.2653	1388.2802	58776.1	57865.65
881.4092	1390.132	58788	57875
881.553	1391.9832	58549.15	57637.45
881.6968	1393.8336	58439.2	57526.25
881.8406	1395.6832	58450.6	57536.7
881.9844	1397.5322	58444.25	57531.6
882.1282	1399.3803	58284.05	57367.25
882.272	1401.2278	58256.2	57343.55
882.4158	1403.0745	58184.4	57273.35
882.5595	1404.9204	58127.45	57218.15
882.7033	1406.7656	58128.6	57216.7
882.847	1408.6101	57953.7	57041.95
882.9908	1410.4538	57934.05	57023.9
883.1345	1412.2968	57916.2	57003.25
883.2782	1414.139	57765.75	56858.05
883.4219	1415.9805	57812.1	56901.6
883.5656	1417.8213	57704.25	56788.1
883.7092	1419.6613	57738.7	56825.55
883.8529	1421.5006	57658.1	56746.3
883.9965	1423.3391	57620.15	56711.3
884.1402	1425.1769	57586.4	56672.3
884.2838	1427.0139	57661.45	56749.6
884.4274	1428.8502	57651.85	56739.25
884.571	1430.6858	57674.2	56762.75
884.7146	1432.5206	57769.2	56858.9
884.8582	1434.3547	57632.15	56722.6
885.0018	1436.188	57599.35	56689.7
885.1453	1438.0206	57611.75	56702.25
885.2889	1439.8524	57542.35	56630.55
885.4324	1441.6835	57462.7	56552.5
885.5759	1443.5139	57419	56506.75
885.7194	1445.3435	57340.6	56429.25
885.8629	1447.1724	57375.75	56467.5
886.0064	1449.0005	57265.7	56357.25
886.1499	1450.8279	57267.75	56358.45
886.2933	1452.6545	57251.1	56342.5
886.4368	1454.4804	57208.95	56300.1
886.5802	1456.3056	57144.7	56227.05
886.7237	1458.13	57149	56242.2
886.8671	1459.9536	57185.05	56274.9
887.0105	1461.7766	57062.8	56152.45
887.1539	1463.5987	56941.25	56029.3
887.2972	1465.4202	56857.85	55947.45
887.4406	1467.2409	56787.75	55875.5
887.584	1469.0608	56632.35	55722.45
887.7273	1470.88	56607.2	55696.5
887.8706	1472.6984	56585.15	55677
888.0139	1474.5161	56379.45	55469.8
888.1572	1476.3331	56432.1	55525.35
888.3005	1478.1493	56290.7	55381.7
888.4438	1479.9648	56269.45	55357.05
888.5871	1481.7795	56264.35	55352.75
888.7303	1483.5935	56250.8	55342.1
888.8736	1485.4067	56070.45	55159.4
889.0168	1487.2192	56134.15	55223.85
889.16	1489.031	55980.6	55066.55
889.3032	1490.842	55993	55084.35
889.4464	1492.6522	56033.55	55124.05
889.5896	1494.4618	55894.8	54983.6
889.7327	1496.2705	55922.8	55014.95
889.8759	1498.0785	55670.35	54762.1
890.019	1499.8858	55737.75	54827.65
890.1622	1501.6924	55812.1	54904.6
890.3053	1503.4981	55604.15	54693.75
890.4484	1505.3032	55641.15	54732.1
890.5914	1507.1075	55498.4	54590
890.7345	1508.911	55499.25	54590.6
890.8776	1510.7138	55452.6	54543.95
891.0206	1512.5159	55447.85	54537.85
891.1637	1514.3172	55189.3	54282.55
891.3067	1516.1178	55178.3	54270.6
891.4497	1517.9176	55239.9	54331.7
891.5927	1519.7166	55106.2	54200.2
891.7357	1521.515	55001.35	54088.25
891.8786	1523.3126	54907.6	53999.85
892.0216	1525.1094	54975	54066.05
892.1645	1526.9055	54836.15	53931.55
892.3074	1528.7008	54823.3	53915.65
892.4503	1530.4954	54640.55	53732.1
892.5932	1532.2893	54710.65	53805.95
892.7361	1534.0824	54470.5	53561.1
892.879	1535.8747	54418.15	53516.35
893.0218	1537.6663	54576.75	53670.45
893.1647	1539.4572	54152.7	53247
893.3075	1541.2473	54317.35	53412.2
893.4503	1543.0367	54196.5	53292.95
893.5931	1544.8253	54102.45	53192.7
893.7359	1546.6132	54136.55	53226.65
893.8787	1548.4003	53952.2	53036.95
894.0214	1550.1867	53906.75	52993.15
894.1642	1551.9723	53859.5	52949.85
894.3069	1553.7572	53895	52990.1
894.4496	1555.5414	53870.9	52967.95
894.5923	1557.3247	53661.05	52757.45
894.735	1559.1074	53841.3	52938.6
894.8777	1560.8893	53701.35	52798.2
895.0204	1562.6705	53702.45	52800.85
895.163	1564.4509	53543.5	52641
895.3056	1566.2305	53546.45	52647.55
895.4482	1568.0094	53653.9	52755.05
895.5908	1569.7876	53536.75	52632.5
895.7334	1571.565	53416.25	52513.65
895.876	1573.3417	53482.45	52582.55
896.0186	1575.1176	53372.5	52471.2
896.1611	1576.8928	53312.3	52413.15
896.3036	1578.6672	53185	52289.05
896.4461	1580.4409	53230.4	52335.9
896.5886	1582.2138	53061.1	52160.9
896.7311	1583.986	53052.2	52153.15
896.8736	1585.7575	52957.35	52057.9
897.0161	1587.5282	52962.8	52066.55
897.1585	1589.2981	52981.65	52087.5
897.3009	1591.0673	52836.5	51940.15
897.4433	1592.8358	52800.4	51904.55
897.5857	1594.6035	52882.55	51985.1
897.7281	1596.3704	52795.15	51897.35
897.8705	1598.1366	52662.5	51763.15
898.0128	1599.9021	52564.6	51667.3
898.1551	1601.6668	52581.35	51684.35
898.2975	1603.4308	52508.1	51609
898.4398	1605.194	52559.25	51655.5
898.5821	1606.9564	52396.9	51501.85
898.7243	1608.7182	52484.9	51589.5
898.8666	1610.4791	52409	51519.6
899.0088	1612.2394	52473	51582.2
899.1511	1613.9988	52399.75	51507.85
899.2933	1615.7576	52466.5	51573.45
899.4355	1617.5156	52478.8	51578.05
899.5776	1619.2728	52570.35	51668.4
899.7198	1621.0293	52370.65	51473.55
899.862	1622.785	52317.55	51417.35
900.0041	1624.54	52226.7	51331.15
900.1462	1626.2942	52095.35	51200.95
900.2883	1628.0477	51862.55	50965.45
900.4304	1629.8005	51735.4	50837.45
900.5725	1631.5525	51747.8	50856.9
900.7145	1633.3037	51526.4	50632.15
900.8566	1635.0542	51450.65	50558.05
900.9986	1636.804	51423.2	50528.25
901.1406	1638.553	51259.4	50323.15
901.2826	1640.3013	51251.15	50356.4
901.4245	1642.0488	51083.4	50189
901.5665	1643.7955	51123.5	50232
901.7085	1645.5416	51028.65	50136.7
901.8504	1647.2868	50947.65	50053.35
901.9923	1649.0313	51068.5	50173.6
902.1342	1650.7751	50946.7	50050.15
902.2761	1652.5181	50885.35	49993
902.4179	1654.2604	50886.95	49993.1
902.5598	1656.0019	50908.7	50016.05
902.7016	1657.7427	50841.15	49947.1
902.8434	1659.4828	50937.6	50043.2
902.9852	1661.222	50779.8	49885.2
903.127	1662.9606	50867.3	49973.05
903.2687	1664.6984	50642.95	49749.15
903.4105	1666.4354	50624.85	49728.85
903.5522	1668.1717	50240.15	49341.8
903.6939	1669.9072	49803.1	48909.15
903.8356	1671.642	49747.85	48850.4
903.9773	1673.3761	49610.2	48715.35
904.119	1675.1094	49388.5	48494.6
904.2606	1676.8419	49075.45	48182.45
904.4022	1678.5737	49078.15	48183.3
904.5439	1680.3048	48903.4	48007.8
904.6855	1682.0351	48679	47785.1
904.827	1683.7646	48531.25	47635.15
904.9686	1685.4934	48564.9	47670
905.1101	1687.2215	48129.6	47236.1
905.2517	1688.9488	48286.3	47392.85
905.3932	1690.6754	47714.6	46822.45
905.5347	1692.4012	47942.25	47047.6
905.6761	1694.1263	47933.15	47037.8
905.8176	1695.8506	47673.45	46778.2
905.9591	1697.5742	47604.5	46710.6
906.1005	1699.297	47485.6	46593.65
906.2419	1701.0191	47413.75	46523.75
906.3833	1702.7404	47117.25	46226.6
906.5246	1704.461	46926.85	46032.7
906.666	1706.1808	46976.9	46084.15
906.8073	1707.8999	46884.5	45989.65
906.9487	1709.6182	46765.55	45876.25
907.09	1711.3358	46669.55	45780.3
907.2313	1713.0527	46560.4	45672.95
907.3725	1714.7688	46498.05	45601.7
907.5138	1716.4841	46176.45	45284.7
907.655	1718.1987	46284.45	45386.95
907.7962	1719.9126	46128.15	45239.6
907.9374	1721.6257	46094	45203.3
908.0786	1723.338	46100.35	45209.45
908.2198	1725.0496	45716.85	44826.45
908.3609	1726.7605	45713.55	44823.3
908.502	1728.4706	45549.05	44659.8
908.6431	1730.18	45527.2	44635.65
908.7842	1731.8886	45410	44521.5
908.9253	1733.5964	45264.4	44369.9
909.0664	1735.3036	45336.05	44443.7
909.2074	1737.0099	45187.4	44298.1
909.3484	1738.7156	45029.65	44143.05
909.4894	1740.4204	44958.1	44065.35
909.6304	1742.1246	44957.85	44066.9
909.7714	1743.8279	44896.85	44007.1
909.9123	1745.5306	44867.45	43979.6
910.0532	1747.2325	44488.3	43600.05
910.1941	1748.9336	44440	43550.45
910.335	1750.634	44459.8	43566.1
910.4759	1752.3336	44447.3	43557.8
910.6168	1754.0325	44236.25	43350.15
910.7576	1755.7307	44381.6	43494.9
910.8984	1757.4281	44113.55	43224.05
911.0392	1759.1247	44226.55	43325.05
911.18	1760.8206	43859.9	42961.45
911.3208	1762.5158	43882.15	42986.1
911.4615	1764.2102	43892.05	43000.8
911.6022	1765.9039	43728.6	42841.5
911.7429	1767.5968	43620.4	42733.5
911.8836	1769.289	43524.65	42634.8
912.0243	1770.9804	43521.4	42631.05
912.1649	1772.6711	43445.1	42554.1
912.3056	1774.361	43299.75	42408.5
912.4462	1776.0502	43316.9	42426.05
912.5868	1777.7386	43006.15	42111.1
912.7274	1779.4263	43056.05	42166.55
912.8679	1781.1132	43032.4	42148.85
913.0084	1782.7994	42893.55	42003.4
913.149	1784.4849	42846.9	41958.85
913.2895	1786.1696	42518.35	41626.05
913.4299	1787.8535	42630.15	41742.4
913.5704	1789.5367	42607.35	41721.65
913.7108	1791.2192	42401.4	41514.85
913.8513	1792.9009	42275.1	41355.55
913.9917	1794.5818	42286.8	41394.55
914.132	1796.2621	42126.4	41239.1
914.2724	1797.9415	42094.15	41204.1
914.4128	1799.6202	42017	41127.95
914.5531	1801.2982	41985.25	41095.7
914.6934	1802.9755	41785.15	40893.5
914.8337	1804.6519	41718.95	40828.55
914.9739	1806.3277	41794.75	40907.8
915.1142	1808.0027	41340.3	40453.55
915.2544	1809.6769	41444.1	40559.1
915.3946	1811.3504	41440.85	40553.15
915.5348	1813.0231	41127.9	40242.55
915.675	1814.6951	41256.45	40370.25
915.8151	1816.3664	41205.45	40314.65
915.9553	1818.0369	41095.75	40206.15
916.0954	1819.7067	40964.15	40075.6
916.2355	1821.3757	41039.65	40147.9
916.3755	1823.044	40782.35	39892.4
916.5156	1824.7115	40586.25	39698
916.6556	1826.3783	40581.05	39693.25
916.7956	1828.0443	40510.6	39622.55
916.9356	1829.7096	40453.45	39562.8
917.0756	1831.3741	40270.5	39378.9
917.2155	1833.0379	40274.75	39389.45
917.3555	1834.701	40175.85	39287.7
917.4954	1836.3633	40024.6	39137.65
917.6353	1838.0248	40070.8	39182.6
917.7751	1839.6856	40011.8	39122.8
917.915	1841.3457	39771.95	38885.5
918.0548	1843.005	39874.25	38984.9
918.1946	1844.6636	39756.95	38868.85
918.3344	1846.3214	39454.05	38564.75
918.4742	1847.9785	39488.25	38598.45
918.6139	1849.6349	39381.45	38489.75
918.7537	1851.2904	39481.25	38582.7
918.8934	1852.9453	39216	38326.55
919.0331	1854.5994	39267.7	38377.15
919.1727	1856.2528	39250.9	38355.1
919.3124	1857.9054	39015.65	38126.6
919.452	1859.5572	38891.3	38002.8
919.5916	1861.2083	38925.65	38036.55
919.7312	1862.8587	39071.05	38181.95
919.8708	1864.5084	38587.55	37698
920.0103	1866.1572	38699.45	37810.35
920.1498	1867.8054	38390.5	37500.85
920.2893	1869.4528	38452.45	37564.15
920.4288	1871.0994	38231.5	37342.65
920.5683	1872.7453	38215.75	37324.05
920.7077	1874.3905	38232	37333.4
920.8471	1876.0349	37998.65	37110.6
920.9865	1877.6786	38103.45	37213.45
921.1259	1879.3215	37942.4	37056.5
921.2653	1880.9637	38025.55	37135.55
921.4046	1882.6051	37875.85	36987.4
921.5439	1884.2458	37695.6	36805.85
921.6832	1885.8858	37502.25	36612.2
921.8225	1887.525	37554.65	36664.85
921.9617	1889.1634	37375.15	36486.1
922.101	1890.8011	37291.4	36402.2
922.2402	1892.4381	37042.6	36155.3
922.3794	1894.0743	37198.75	36311
922.5185	1895.7098	37031.15	36143.2
922.6577	1897.3446	36904.15	36013.7
922.7968	1898.9786	36891.1	35997.05
922.9359	1900.6118	36754.2	35865
923.075	1902.2443	36557.45	35667.2
923.214	1903.8761	36575.2	35685.2
923.3531	1905.5071	36364.2	35474
923.4921	1907.1374	36069.35	35179.05
923.6311	1908.7669	36167.05	35279.25
923.77	1910.3957	36154.35	35264.45
923.909	1912.0237	35920.5	35032.75
924.0479	1913.651	35783.25	34893.35
924.1868	1915.2776	35633.5	34745.5
924.3257	1916.9034	35643.75	34755.75
924.4646	1918.5285	35445.45	34560.4
924.6034	1920.1528	35318.85	34429.5
924.7422	1921.7764	35272.75	34386.35
924.881	1923.3992	35161.5	34274.25
925.0198	1925.0213	34920.6	34033.45
925.1586	1926.6427	34779.25	33893.5
925.2973	1928.2633	34903.1	33800.95
925.436	1929.8832	34652.6	33760.3
925.5747	1931.5023	34469.55	33581.15
925.7134	1933.1207	34340.5	33453.65
925.852	1934.7383	34375.45	33486
925.9906	1936.3552	34161.35	33273.9
926.1292	1937.9714	34134.3	33245
926.2678	1939.5868	33997.6	33107.8
926.4064	1941.2015	33775.6	32885.8
926.5449	1942.8154	33629.45	32740.25
926.6834	1944.4286	33541.75	32653.1
926.8219	1946.041	33505.4	32592.6
926.9604	1947.6528	33315.25	32422.5
927.0988	1949.2637	33228.65	32341.85
927.2372	1950.8739	33101.55	32213.6
927.3756	1952.4834	33031.9	32144.45
927.514	1954.0921	33007.3	32119.1
927.6523	1955.7001	32824.55	31932.65
927.7907	1957.3074	32745.65	31859.65
927.929	1958.9139	32556.35	31671.15
928.0673	1960.5197	32536.6	31647.75
928.2055	1962.1247	32390	31502.8
928.3438	1963.729	32199.7	31315.55
928.482	1965.3325	32051.75	31145.3
928.6202	1966.9353	32036.95	31152.55
928.7584	1968.5374	31908.9	31023.7
928.8965	1970.1387	31797.2	30912.55
929.0346	1971.7393	31669.8	30782.65
929.1727	1973.3392	31632.8	30745.85
929.3108	1974.9383	31507.45	30624.1
929.4489	1976.5366	31331.4	30446.2
929.5869	1978.1342	31339.65	30455.8
929.7249	1979.7311	31196.1	30308.2
929.8629	1981.3273	31170.15	30284.9
930.0009	1982.9227	31047.1	30160.8
930.1388	1984.5173	30944.15	30060.5
930.2767	1986.1112	30784.55	29898.15
930.4146	1987.7044	30760.2	29876.2
930.5525	1989.2968	30622.85	29737.4
930.6904	1990.8885	30612.9	29727.15
930.8282	1992.4795	30545.55	29659.6
930.966	1994.0697	30385.35	29504.15
931.1038	1995.6592	30279.85	29395.5
931.2415	1997.2479	30202.3	29317.85
931.3793	1998.8359	30128.4	29245.4
931.517	2000.4232	29956.7	29075.75
931.6547	2002.0097	29910.75	29029.45
931.7923	2003.5955	29708.5	28828.95
931.93	2005.1805	29723.75	28840.7
932.0676	2006.7648	29644.8	28764.05
932.2052	2008.3484	29540.7	28657.05
932.3427	2009.9312	29572.4	28687.8
932.4803	2011.5133	29432.2	28552.95
932.6178	2013.0946	29358.4	28474.95
932.7553	2014.6752	29266.1	28384.05
932.8928	2016.2551	29167.15	28281.85
933.0302	2017.8342	29044.05	28160.9
933.1676	2019.4126	28996.25	28114.85
933.305	2020.9902	28885.6	28004.8
933.4424	2022.5672	28825.6	27942.65
933.5798	2024.1433	28767.2	27880.05
933.7171	2025.7188	28643.25	27763.75
933.8544	2027.2935	28540.65	27658.9
933.9917	2028.8674	28440.45	27560.8
934.129	2030.4406	28322.8	27442.65
934.2662	2032.0131	28176.6	27295.6
934.4034	2033.5849	28122.7	27230.45
934.5406	2035.1559	28072.95	27192.75
934.6778	2036.7261	28020.7	27136.1
934.8149	2038.2957	27930.3	27048.2
934.952	2039.8645	27890.45	27006.6
935.0891	2041.4325	27888.8	27003.8
935.2262	2042.9998	27726.2	26845.6
935.3632	2044.5664	27662.55	26777.8
935.5002	2046.1323	27609.05	26728.7
935.6372	2047.6974	27512.75	26630.75
935.7742	2049.2617	27443.95	26563.8
935.9111	2050.8254	27421.75	26537.55
936.048	2052.3883	27346.65	26462.2
936.1849	2053.9504	27221.15	26337.75
936.3218	2055.5118	27151.2	26267.75
936.4586	2057.0725	27007.1	26123.45
936.5955	2058.6325	26973.95	26094.55
936.7323	2060.1917	26886.55	26003.5
936.869	2061.7502	26885.25	26000.4
937.0058	2063.3079	26727.9	25848.35
937.1425	2064.8649	26646.1	25762.5
937.2792	2066.4212	26583.35	25701.5
937.4159	2067.9767	26510.3	25627.15
937.5525	2069.5315	26403.35	25523.1
937.6891	2071.0856	26287.6	25403.6
937.8257	2072.6389	26185.1	25303.3
937.9623	2074.1915	26054.95	25175.3
938.0989	2075.7433	25946.55	25063.6
938.2354	2077.2945	25935.05	25056.05
938.3719	2078.8448	25863.35	24980.85
938.5084	2080.3945	25762	24876.9
938.6448	2081.9434	25703.65	24820.65
938.7812	2083.4916	25593.8	24708.85
938.9176	2085.039	25477.9	24590.65
939.054	2086.5857	25460.5	24572.05
939.1903	2088.1317	25411.8	24523.6
939.3267	2089.677	25311.35	24426.4
939.463	2091.2215	25212.2	24325
939.5992	2092.7652	25166.2	24279.95
939.7355	2094.3083	25097.4	24211
939.8717	2095.8506	25090.6	24206.35
940.0079	2097.3921	25076.9	24192.9
940.1441	2098.933	24977.9	24094.35
940.2802	2100.4731	24911.1	24026.8
940.4163	2102.0124	24870.6	23968.25
940.5524	2103.5511	24777.9	23893.15
940.6885	2105.089	24738.25	23856.1
940.8245	2106.6261	24665.15	23780.15
940.9606	2108.1626	24629.9	23749.25
941.0965	2109.6983	24561.7	23647.85
941.2325	2111.2332	24467.95	23581.3
941.3684	2112.7675	24413.45	23527.5
941.5044	2114.301	24332.75	23447.4
941.6403	2115.8337	24346.95	23460.9
941.7761	2117.3657	24259.65	23373.9
941.912	2118.897	24190.15	23304.95
942.0478	2120.4276	24087.05	23198.1
942.1835	2121.9575	23987.9	23102.2
942.3193	2123.4866	24016.35	23115.75
942.455	2125.0149	23885	22998.45
942.5907	2126.5426	23788.7	22906.65
942.7264	2128.0695	23734.4	22847.25
942.8621	2129.5956	23695.75	22815.65
942.9977	2131.1211	23618	22731.5
943.1333	2132.6458	23567.65	22685.8
943.2689	2134.1698	23537.45	22649.45
943.4044	2135.693	23405.45	22516.8
943.54	2137.2155	23404.9	22516
943.6755	2138.7373	23330.1	22446.15
943.8109	2140.2584	23261.5	22379.6
943.9464	2141.7787	23172.3	22283.65
944.0818	2143.2983	23055.35	22173.4
944.2172	2144.8171	22958.55	22078.95
944.3526	2146.3353	22930	22048.1
944.4879	2147.8527	22831.45	21951.35
944.6232	2149.3693	22834.4	21950.25
944.7585	2150.8853	22730.5	21846.75
944.8938	2152.4005	22638.75	21753.1
945.029	2153.9149	22577.95	21692
945.1642	2155.4287	22521.4	21637
945.2994	2156.9417	22485.1	21596.5
945.4346	2158.454	22412.5	21528.95
945.5697	2159.9655	22342.4	21461.1
945.7048	2161.4764	22332.35	21448.65
945.8399	2162.9865	22218.3	21335.3
945.9749	2164.4958	22176.65	21293.6
946.1099	2166.0045	22091.1	21205.5
946.2449	2167.5124	22086.7	21202.75
946.3799	2169.0195	21995.65	21112.2
946.5148	2170.526	21923.4	21039.4
946.6498	2172.0317	21861.6	20975.75
946.7846	2173.5367	21801.3	20916.6
946.9195	2175.0409	21732.4	20849.15
947.0543	2176.5445	21729.05	20845.5
947.1891	2178.0473	21635.6	20749.3
947.3239	2179.5494	21608.4	20719.35
947.4587	2181.0507	21500.65	20615.7
947.5934	2182.5513	21408.6	20524.15
947.7281	2184.0512	21374.6	20488.95
947.8628	2185.5504	21284.25	20401.6
947.9974	2187.0488	21187.5	20302.85
948.132	2188.5465	21141.2	20259.9
948.2666	2190.0435	21046	20163.05
948.4012	2191.5397	20951	20066.85
948.5357	2193.0353	20918.45	20035
948.6702	2194.5301	20811.3	19924.5
948.8047	2196.0241	20750.65	19865.1
948.9392	2197.5175	20660.5	19775.1
949.0736	2199.0101	20619.85	19729.95
949.208	2200.502	20520.45	19635.55
949.3424	2201.9931	20487.2	19604.5
949.4767	2203.4835	20396.45	19511.9
949.611	2204.9733	20343.55	19454.5
949.7453	2206.4622	20243.45	19362
949.8796	2207.9505	20208.25	19323.05
950.0138	2209.438	20110.6	19230.45
950.148	2210.9248	20061.95	19176.3
950.2822	2212.4109	19963.35	19080.9
950.4164	2213.8962	19903.35	19015.65
950.5505	2215.3809	19881.4	18994
950.6846	2216.8648	19833.1	18945
950.8186	2218.3479	19753.25	18860.15
950.9527	2219.8304	19717.7	18827.5
951.0867	2221.3121	19619.85	18730.05
951.2207	2222.7931	19559.85	18675.8
951.3546	2224.2733	19484.95	18598.15
951.4886	2225.7529	19389.55	18504.4
951.6225	2227.2317	19348.7	18463
951.7563	2228.7098	19324.75	18444.25
951.8902	2230.1872	19244.05	18363.15
952.024	2231.6638	19177.1	18294.7
952.1578	2233.1397	19090.55	18201.7
952.2916	2234.6149	19048	18166.75
952.4253	2236.0894	18999.45	18113.3
952.559	2237.5632	18942.3	18056.4
952.6927	2239.0362	18839.3	17955.7
952.8263	2240.5085	18835.8	17950.1
952.9599	2241.9801	18747.8	17863.35
953.0935	2243.4509	18689.25	17805.55
953.2271	2244.921	18628.5	17740.15
953.3606	2246.3904	18547.85	17657.75
953.4941	2247.8591	18499.1	17612.55
953.6276	2249.3271	18428.5	17542.4
953.7611	2250.7943	18349.25	17460.25
953.8945	2252.2608	18291.8	17405.1
954.0279	2253.7266	18287.95	17404.15
954.1612	2255.1917	18210.9	17326.15
954.2946	2256.656	18156.2	17270.6
954.4279	2258.1197	18074.85	17192.05
954.5612	2259.5826	18068.8	17181.5
954.6944	2261.0447	18011.7	17126.5
954.8276	2262.5062	17904.45	17017.7
954.9608	2263.9669	17860.55	16973.95
955.094	2265.4269	17894.95	17008.55
955.2271	2266.8862	17804.35	16918.7
955.3602	2268.3448	17777.85	16895.5
955.4933	2269.8026	17713.25	16828.5
955.6264	2271.2598	17646.95	16765.35
955.7594	2272.7162	17615.85	16732.8
955.8924	2274.1719	17557	16672.7
956.0253	2275.6268	17478.15	16593.1
956.1583	2277.0811	17489.3	16601.65
956.2912	2278.5346	17415.45	16531.65
956.4241	2279.9874	17356.4	16471
956.5569	2281.4395	17329	16445.2
956.6897	2282.8908	17247.1	16359.75
956.8225	2284.3414	17234.3	16345.5
956.9553	2285.7914	17161.55	16277.7
957.088	2287.2406	17086.8	16200.05
957.2207	2288.689	17083.9	16196.4
957.3534	2290.1368	16975.05	16086.5
957.486	2291.5838	16941.4	16051.85
957.6186	2293.0302	16919.95	16031.05
957.7512	2294.4758	16799.9	15911.95
957.8838	2295.9206	16758.6	15870.9
958.0163	2297.3648	16726	15843.15
958.1488	2298.8082	16680.05	15793.9
958.2813	2300.251	16647.75	15760.15
958.4137	2301.693	16594	15707.4
958.5461	2303.1343	16559.55	15673.45
958.6785	2304.5748	16471.85	15587.5
958.8108	2306.0147	16432.3	15550.15
958.9432	2307.4538	16386.45	15498.2
959.0754	2308.8922	16306.1	15426.15
959.2077	2310.3299	16285.05	15400.65
959.3399	2311.7669	16220.3	15337.65
959.4721	2313.2031	16191.95	15309.1
959.6043	2314.6387	16149.6	15262.85
959.7365	2316.0735	16076.45	15192.7
959.8686	2317.5076	16055.55	15169.1
960.0006	2318.941	16021.65	15136.55
960.1327	2320.3737	15976.1	15088.75
960.2647	2321.8056	15895.65	15007.05
960.3967	2323.2369	15882.15	14995.35
960.5287	2324.6674	15798.4	14912.1
960.6606	2326.0972	15764.85	14877.6
960.7925	2327.5263	15722.85	14837.25
960.9244	2328.9547	15651.5	14765.3
961.0562	2330.3823	15612.35	14726.4
961.1881	2331.8092	15597.65	14706.25
961.3198	2333.2355	15513.05	14625
961.4516	2334.661	15478.5	14593.15
961.5833	2336.0858	15456.6	14568
961.715	2337.5098	15418.25	14533.65
961.8467	2338.9332	15387.35	14501.1
961.9783	2340.3558	15331.45	14443
962.1099	2341.7778	15258.7	14374.6
962.2415	2343.199	15219.25	14331.7
962.373	2344.6195	15189.7	14306.25
962.5045	2346.0393	15135.85	14250.2
962.636	2347.4583	15118.85	14233.65
962.7675	2348.8767	15045.1	14157.95
962.8989	2350.2943	15008.1	14120.25
963.0303	2351.7113	14984.1	14093.9
963.1617	2353.1275	14912.85	14026.3
963.293	2354.543	14898.95	14003.15
963.4243	2355.9578	14838	13949.9
963.5556	2357.3718	14759.3	13874.85
963.6868	2358.7852	14664.8	13777.4
963.818	2360.1978	14621.85	13736.7
963.9492	2361.6098	14607.5	13721.4
964.0803	2363.021	14564.95	13676.5
964.2114	2364.4315	14555.15	13668.75
964.3425	2365.8413	14487.9	13597.35
964.4736	2367.2504	14432.05	13548.55
964.6046	2368.6587	14339.7	13454.45
964.7356	2370.0664	14305.8	13421.9
964.8666	2371.4733	14279.75	13393.6
964.9975	2372.8795	14202.05	13316.85
965.1284	2374.285	14152.05	13266.55
965.2593	2375.6899	14099.15	13212.75
965.3901	2377.0939	14052.1	13166.45
965.5209	2378.4973	13992.3	13107.1
965.6517	2379.9	13946.25	13060.4
965.7825	2381.3019	13920.3	13037.65
965.9132	2382.7032	13890.25	13003.55
966.0439	2384.1037	13826.75	12946.15
966.1745	2385.5035	13777	12894.05
966.3051	2386.9027	13740.05	12855.9
966.4357	2388.3011	13710.3	12824
966.5663	2389.6987	13685.1	12802.3
966.6968	2391.0957	13621.05	12739.35
966.8273	2392.492	13554.5	12670.25
966.9578	2393.8876	13491.2	12605.95
967.0882	2395.2824	13428.15	12543.65
967.2186	2396.6765	13347.55	12462.15
967.349	2398.07	13322.4	12439.45
967.4793	2399.4627	13309.55	12424.45
967.6097	2400.8547	13255.1	12369
967.7399	2402.246	13211	12320.95
967.8702	2403.6366	13126.95	12240.15
968.0004	2405.0265	13071.7	12188.05
968.1306	2406.4156	13035.75	12147.05
968.2607	2407.8041	12980.55	12092.15
968.3909	2409.1918	12936.85	12049.75
968.521	2410.5789	12910.8	12025.1
968.651	2411.9652	12811.1	11923.4
968.781	2413.3508	12805.3	11918.85
968.911	2414.7358	12759.95	11875.05
969.041	2416.12	12719.75	11837
969.1709	2417.5035	12666.9	11780.85
969.3008	2418.8863	12622.2	11736.65
969.4307	2420.2684	12590.2	11705.65
969.5606	2421.6497	12524.3	11636.8
969.6904	2423.0304	12450.65	11565.25
969.8201	2424.4104	12425.6	11539.85
969.9499	2425.7896	12400.6	11514.45
970.0796	2427.1682	12374.45	11490.4
970.2093	2428.546	12333.75	11445.15
970.3389	2429.9232	12298.05	11412.35
970.4685	2431.2996	12282.6	11396.7
970.5981	2432.6753	12264.8	11380.15
970.7277	2434.0503	12204.6	11319.65
970.8572	2435.4246	12155.2	11270.15
970.9867	2436.7982	12090.2	11201.9
971.1161	2438.1711	12031.4	11145.5
971.2456	2439.5433	11998.6	11110.2
971.375	2440.9148	11959.2	11072.65
971.5043	2442.2856	11910.45	11026.15
971.6336	2443.6557	11882.4	10995.5
971.7629	2445.025	11857.15	10971.25
971.8922	2446.3937	11807.05	10920.1
972.0214	2447.7617	11771.4	10885.1
972.1506	2449.1289	11745.75	10862.05
972.2798	2450.4955	11710.65	10823.75
972.4089	2451.8613	11669.65	10786.95
972.538	2453.2265	11645.15	10759.7
972.6671	2454.5909	11626.95	10740.8
972.7961	2455.9546	11585.8	10699.9
972.9251	2457.3177	11548.55	10662.25
973.0541	2458.68	11505.65	10618.2
973.1831	2460.0416	11476.15	10590
973.312	2461.4025	11489.45	10603.35
973.4408	2462.7627	11451.05	10556.3
973.5697	2464.1222	11376.15	10495.15
973.6985	2465.4811	11345.75	10459.85
973.8273	2466.8392	11324.45	10441.1
973.956	2468.1966	11293.35	10407.6
974.0847	2469.5533	11289.7	10400.8
974.2134	2470.9093	11223	10337.15
974.3421	2472.2645	11187.85	10301.35
974.4707	2473.6191	11156.05	10271.3
974.5993	2474.973	11111.25	10222.65
974.7278	2476.3262	11072.6	10184.55
974.8563	2477.6787	11038.3	10155.05
974.9848	2479.0305	10985.4	10101.65
975.1132	2480.3816	10937.6	10052.05
975.2417	2481.7319	10913.7	10029.8
975.37	2483.0816	10860.5	9972.9
975.4984	2484.4306	10801.35	9914.95
975.6267	2485.7789	10805.45	9922.75
975.755	2487.1264	10745.4	9859.35
975.8833	2488.4733	10706.75	9823.95
976.0115	2489.8195	10672.05	9779.05
976.1397	2491.165	10630.15	9741.95
976.2678	2492.5097	10600.55	9715.95
976.3959	2493.8538	10561.5	9675.95
976.524	2495.1972	10519.7	9635.7
976.6521	2496.5398	10465.55	9578.15
976.7801	2497.8818	10416.3	9528.85
976.9081	2499.2231	10413.6	9527.45
977.036	2500.5637	10373.6	9485.2
977.164	2501.9035	10334.85	9448.3
977.2918	2503.2427	10293.4	9402.7
977.4197	2504.5812	10273.75	9388.05
977.5475	2505.919	10248.55	9363.05
977.6753	2507.256	10254.2	9367.4
977.8031	2508.5924	10180.1	9294.3
977.9308	2509.9281	10148.4	9258
978.0585	2511.2631	10121.25	9235.5
978.1861	2512.5974	10082.45	9198.95
978.3137	2513.9309	10061.75	9177.6
978.4413	2515.2638	10032.65	9119.1
978.5689	2516.596	9982.7	9096.75
978.6964	2517.9275	9926.35	9036.75
978.8239	2519.2583	9901.25	9016.05
978.9513	2520.5884	9860.9	8972.95
979.0788	2521.9178	9820.9	8935.65
979.2062	2523.2465	9792.05	8908.65
979.3335	2524.5745	9767.85	8883.65
979.4608	2525.9018	9731	8845.3
979.5881	2527.2284	9711.3	8827.1
979.7154	2528.5543	9704.7	8819.65
979.8426	2529.8796	9653.7	8769.2
979.9698	2531.2041	9638.5	8754.15
980.0969	2532.5279	9606.2	8723.9
980.224	2533.851	9581.3	8697.15
980.3511	2535.1735	9540.55	8655.45
980.4781	2536.4952	9513	8627.45
980.6052	2537.8163	9476.55	8591.4
980.7321	2539.1366	9477	8591.1
980.8591	2540.4562	9440.65	8556.55
980.986	2541.7752	9448.55	8561.35
981.1129	2543.0935	9419.95	8536
981.2397	2544.411	9405.05	8518.2
981.3665	2545.7279	9351.1	8467
981.4933	2547.0441	9351.95	8467.6
981.62	2548.3596	9340.05	8452.85
981.7467	2549.6744	9314.05	8428.15
981.8734	2550.9885	9283.25	8387.5
982.0001	2552.3019	9238.65	8353.1
982.1267	2553.6146	9221.3	8334.65
982.2532	2554.9266	9172.6	8287.25
982.3798	2556.2379	9134.95	8248.95
982.5063	2557.5485	9158.6	8272.9
982.6327	2558.8585	9116.85	8224.75
982.7592	2560.1677	9099.8	8212
982.8856	2561.4762	9077.9	8190.75
983.0119	2562.7841	9072.05	8182.65
983.1383	2564.0913	9070.5	8186.35
983.2646	2565.3977	9031.2	8146.55
983.3908	2566.7035	8993.9	8108.1
983.517	2568.0086	8994.15	8108.05
983.6432	2569.313	8947.65	8061.05
983.7694	2570.6167	8965.7	8078.2
983.8955	2571.9197	8920.65	8034.7
984.0216	2573.222	8911.6	8022.55
984.1476	2574.5236	8890.4	8003.6
984.2737	2575.8246	8867.05	7979.4
984.3996	2577.1248	8841.8	7952.2
984.5256	2578.4244	8828.35	7943.55
984.6515	2579.7232	8832.6	7946.25
984.7774	2581.0214	8815.55	7906.9
984.9032	2582.3189	8745.2	7859.65
985.029	2583.6157	8769.55	7879.25
985.1548	2584.9118	8735.95	7848.55
985.2806	2586.2072	8705.5	7819.35
985.4063	2587.5019	8677.85	7790.6
985.5319	2588.7959	8668.35	7783.2
985.6576	2590.0893	8632.95	7744.4
985.7832	2591.3819	8625.65	7741
985.9087	2592.6739	8581.6	7696.8
986.0343	2593.9652	8554.4	7666.55
986.1597	2595.2557	8541	7655.35
986.2852	2596.5456	8494.6	7607.35
986.4106	2597.8348	8462.15	7577.25
986.536	2599.1234	8405.2	7521.6
986.6614	2600.4112	8396.3	7509.05
986.7867	2601.6983	8362.5	7473.65
986.912	2602.9848	8321.1	7436
987.0372	2604.2705	8311.45	7418.9
987.1624	2605.5556	8294.75	7408.75
987.2876	2606.84	8259.65	7376
987.4128	2608.1237	8236.35	7350.7
987.5379	2609.4067	8192.25	7306.2
987.6629	2610.689	8189.15	7292.9
987.788	2611.9707	8147.55	7255.55
987.913	2613.2516	8120.6	7229.55
988.0379	2614.5319	8081.5	7197.85
988.1629	2615.8115	8051.4	7167.3
988.2878	2617.0903	8009.6	7123.6
988.4126	2618.3685	7996.1	7111
988.5375	2619.6461	7967.1	7080.5
988.6622	2620.9229	7919.8	7036.2
988.787	2622.199	7913.85	7027.65
988.9117	2623.4745	7908.95	7023.7
989.0364	2624.7493	7873.95	6988.15
989.161	2626.0234	7837	6951.65
989.2857	2627.2968	7824.05	6939.05
989.4102	2628.5695	7771.35	6886.95
989.5348	2629.8415	7748.65	6862.9
989.6593	2631.1128	7712.55	6827.1
989.7837	2632.3835	7694.75	6809.5
989.9082	2633.6535	7646.3	6762.3
990.0326	2634.9228	7623.15	6738.75
990.1569	2636.1914	7611.2	6726.7
990.2812	2637.4593	7606.3	6716
990.4055	2638.7265	7575.85	6691.95
990.5298	2639.9931	7541.65	6657.05
990.654	2641.259	7515.95	6631
990.7782	2642.5242	7517.8	6632.05
990.9023	2643.7887	7457.05	6573.15
991.0264	2645.0525	7426.8	6542.5
991.1505	2646.3156	7435.35	6551.45
991.2745	2647.5781	7386.65	6505.05
991.3985	2648.8398	7366.3	6479.85
991.5225	2650.1009	7360.7	6466.95
991.6464	2651.3613	7317.2	6432.9
991.7703	2652.6211	7289.95	6404.5
991.8942	2653.8801	7284.8	6402.25
992.018	2655.1385	7264.1	6375.25
992.1418	2656.3961	7237.95	6353.6
992.2655	2657.6531	7238.5	6355.15
992.3892	2658.9094	7208	6322.7
992.5129	2660.1651	7197.15	6313.45
992.6366	2661.42	7176.85	6291
992.7602	2662.6743	7150.95	6266.55
992.8837	2663.9279	7136.8	6253.65
993.0073	2665.1808	7106	6222.2
993.1307	2666.433	7092.55	6206.95
993.2542	2667.6846	7079.55	6197.4
993.3776	2668.9354	7069.8	6184.35
993.501	2670.1856	7048.45	6164.4
993.6244	2671.4351	7021.15	6136.9
993.7477	2672.6839	6987.6	6102.25
993.8709	2673.9321	6995.2	6112.15
993.9942	2675.1795	6959.35	6074.65
994.1174	2676.4263	6951.3	6067.95
994.2405	2677.6724	6910.8	6027.9
994.3637	2678.9179	6881.05	5995.15
994.4868	2680.1626	6869.4	5987.8
994.6098	2681.4067	6855.6	5969.6
994.7328	2682.6501	6822.9	5939.5
994.8558	2683.8928	6807.85	5926
994.9788	2685.1348	6804.2	5920.75
995.1017	2686.3761	6768.55	5883.95
995.2245	2687.6168	6747.1	5861.1
995.3474	2688.8568	6722.65	5839.35
995.4702	2690.0961	6683.15	5798.95
995.5929	2691.3348	6674.6	5789.15
995.7156	2692.5727	6660.85	5775.6
995.8383	2693.81	6632.45	5747.85
995.961	2695.0466	6641.75	5760.35
996.0836	2696.2826	6599.15	5713.95
996.2062	2697.5178	6580.5	5694.7
996.3287	2698.7524	6565.15	5682.5
996.4512	2699.9863	6563.95	5677.65
996.5737	2701.2195	6525.6	5643.45
996.6961	2702.452	6512.1	5626.8
996.8185	2703.6839	6508.15	5623.95
996.9408	2704.9151	6474.65	5591.7
997.0631	2706.1456	6436.15	5550.25
997.1854	2707.3755	6411.05	5525.5
997.3077	2708.6046	6415.5	5528.95
997.4299	2709.8331	6401.7	5516.05
997.552	2711.0609	6384.7	5500.15
997.6742	2712.2881	6345.8	5460.7
997.7963	2713.5145	6331.4	5444.8
997.9183	2714.7403	6327.1	5441.55
998.0403	2715.9654	6295.35	5412
998.1623	2717.1899	6270.05	5385.35
998.2842	2718.4136	6270	5387.05
998.4062	2719.6367	6255.5	5371.65
998.528	2720.8591	6226.6	5336.75
998.6498	2722.0809	6214.1	5331
998.7716	2723.3019	6205.5	5319.25
998.8934	2724.5223	6182.6	5297.4
999.0151	2725.7421	6169.1	5283.25
999.1368	2726.9611	6141.6	5253.25
999.2584	2728.1795	6112	5224.35
999.38	2729.3972	6097.2	5214.85
999.5016	2730.6142	6072.85	5179.7
999.6231	2731.8306	6043.95	5158.05
999.7446	2733.0462	6005.95	5119.7
999.8661	2734.2612	5993.05	5104.7
999.9875	2735.4756	5965.3	5081.8
1000.1089	2736.6892	5929.15	5043.3
1000.2302	2737.9022	5893.1	5009
1000.3515	2739.1145	5871.95	4986.15
1000.4728	2740.3262	5859.35	4967
1000.594	2741.5372	5829.55	4946.1
1000.7152	2742.7475	5787.6	4902.7
1000.8363	2743.9571	5795.55	4909.75
1000.9575	2745.1661	5757.25	4871.85
1001.0785	2746.3744	5745.4	4860.25
1001.1996	2747.582	5708.85	4824.5
1001.3206	2748.7889	5696.7	4811.7
1001.4415	2749.9952	5679.35	4796.45
1001.5625	2751.2008	5655.15	4769.8
1001.6833	2752.4057	5633	4747.1
1001.8042	2753.61	5609.3	4724.45
1001.925	2754.8136	5595.8	4708.9
1002.0458	2756.0165	5579.85	4697
1002.1665	2757.2188	5558.95	4676.1
1002.2872	2758.4204	5541.6	4659.7
1002.4078	2759.6213	5516.9	4631.75
1002.5285	2760.8215	5524.85	4637.2
1002.649	2762.0211	5484.75	4598.55
1002.7696	2763.22	5461.65	4576.65
1002.8901	2764.4182	5456.75	4571.6
1003.0106	2765.6158	5444.7	4560.85
1003.131	2766.8127	5413.7	4530.9
1003.2514	2768.009	5394.35	4509.85
1003.3717	2769.2045	5379.55	4497.6
1003.492	2770.3994	5377.1	4490.1
1003.6123	2771.5936	5353.75	4470.15
1003.7325	2772.7872	5326.55	4442.1
1003.8527	2773.9801	5301.55	4415.6
1003.9729	2775.1723	5312.75	4414.1
1004.093	2776.3639	5272.25	4390.65
1004.2131	2777.5548	5253.6	4367.5
1004.3331	2778.745	5225.05	4340.6
1004.4531	2779.9346	5221.35	4339.35
1004.5731	2781.1235	5202.4	4316.5
1004.693	2782.3117	5187.25	4306.9
1004.8129	2783.4992	5200.8	4317.35
1004.9328	2784.6861	5172.25	4290.3
1005.0526	2785.8723	5164.2	4280.65
1005.1723	2787.0579	5132.1	4249.5
1005.2921	2788.2428	5104	4219.45
1005.4118	2789.427	5107.8	4225.7
1005.5314	2790.6106	5079.55	4197.35
1005.651	2791.7935	5073.65	4188.7
1005.7706	2792.9757	5050.75	4168.95
1005.8902	2794.1573	5039.75	4155.7
1006.0097	2795.3382	5024.8	4142.55
1006.1291	2796.5184	5020.95	4140.6
1006.2485	2797.698	5021.45	4134.85
1006.3679	2798.8769	5004.6	4123.05
1006.4873	2800.0551	5007	4122.4
1006.6066	2801.2327	4989.1	4101.85
1006.7258	2802.4096	4968.65	4084.7
1006.8451	2803.5859	4953.4	4068.95
1006.9642	2804.7615	4971.15	4087.8
1007.0834	2805.9364	4963.85	4080.05
1007.2025	2807.1106	4949.65	4066.15
1007.3216	2808.2842	4962.5	4079.5
1007.4406	2809.4572	4947.5	4064.2
1007.5596	2810.6294	4947.15	4063.95
1007.6785	2811.801	4971.35	4090.05
1007.7975	2812.972	4984.65	4103
1007.9163	2814.1423	4995.9	4113.3
1008.0352	2815.3119	4990.4	4107.4
1008.154	2816.4808	5012.45	4131.25
1008.2727	2817.6491	5050.55	4165.65
1008.3914	2818.8167	5055.95	4174.8
1008.5101	2819.9837	5072.5	4185.2
1008.6288	2821.15	5074.75	4193.1
1008.7474	2822.3157	5111.6	4229.85
1008.8659	2823.4807	5131.25	4249.75
1008.9844	2824.645	5172.4	4288.65
1009.1029	2825.8086	5192.45	4310
1009.2214	2826.9716	5198.2	4315.85
1009.3398	2828.134	5230.6	4347.8
1009.4581	2829.2957	5241.15	4359.3
1009.5764	2830.4567	5260.2	4378.05
1009.6947	2831.617	5251.45	4369.15
1009.813	2832.7767	5243.95	4362.8
1009.9312	2833.9358	5245.45	4361.7
1010.0493	2835.0941	5235	4348.15
1010.1675	2836.2519	5222	4341.3
1010.2855	2837.4089	5194.1	4309.95
1010.4036	2838.5653	5171.3	4286.9
1010.5216	2839.7211	5146.7	4265.5
1010.6396	2840.8761	5135.2	4252.9
1010.7575	2842.0306	5118.9	4238.2
1010.8754	2843.1843	5135.25	4252.35
1010.9932	2844.3374	5150.75	4268.95
1011.111	2845.4899	5167.4	4287.55
1011.2288	2846.6417	5184.2	4303.3
1011.3465	2847.7928	5220.55	4338.45
1011.4642	2848.9433	5260.95	4379.75
1011.5818	2850.0931	5263.1	4381.95
1011.6995	2851.2422	5293.85	4408.7
1011.817	2852.3907	5319.75	4436.65
1011.9345	2853.5385	5351.95	4467.95
1012.052	2854.6857	5382.8	4489.1
1012.1695	2855.8323	5390.55	4509.15
1012.2869	2856.9781	5404.15	4521.7
1012.4042	2858.1233	5407.45	4525.7
1012.5216	2859.2679	5449.2	4567.4
1012.6389	2860.4118	5464.8	4583
1012.7561	2861.555	5481.35	4594.35
1012.8733	2862.6976	5489.45	4603.15
1012.9905	2863.8395	5511.55	4629.7
1013.1076	2864.9808	5510.35	4628.85
1013.2247	2866.1214	5498.45	4617.9
1013.3417	2867.2614	5486.65	4606
1013.4587	2868.4007	5491.7	4609.35
1013.5757	2869.5393	5497.35	4614.35
1013.6926	2870.6773	5488.8	4604.2
1013.8095	2871.8146	5490.65	4607.35
1013.9263	2872.9513	5467.8	4581.35
1014.0431	2874.0874	5457.4	4575.6
1014.1599	2875.2227	5403.6	4520.75
1014.2766	2876.3574	5391.35	4508.75
1014.3933	2877.4915	5365.4	4488.15
1014.51	2878.6249	5325.1	4442.85
1014.6266	2879.7577	5321.7	4439.5
1014.7431	2880.8898	5289.45	4397.65
1014.8596	2882.0212	5266.55	4384.6
1014.9761	2883.152	5245.2	4363
1015.0925	2884.2821	5216.8	4334.8
1015.2089	2885.4116	5204.3	4322.25
1015.3253	2886.5405	5182.5	4303.7
1015.4416	2887.6686	5185.35	4297.95
1015.5579	2888.7962	5188.4	4308.8
1015.6741	2889.923	5172.15	4290.8
1015.7903	2891.0493	5166.35	4286.65
1015.9065	2892.1748	5136.35	4254.6
1016.0226	2893.2997	5142.35	4258.6
1016.1387	2894.424	5134.4	4255.55
1016.2547	2895.5476	5140.95	4259.55
1016.3707	2896.6706	5126.4	4244.2
1016.4866	2897.7929	5118.75	4237.55
1016.6025	2898.9145	5139.9	4258.55
1016.7184	2900.0355	5139.35	4257.3
1016.8342	2901.1559	5143.95	4262.05
1016.95	2902.2756	5144.6	4261.75
1017.0658	2903.3946	5161.85	4280.9
1017.1815	2904.513	5148.4	4263.1
1017.2971	2905.6308	5166.55	4285.8
1017.4127	2906.7479	5153.9	4271.8
1017.5283	2907.8643	5180.75	4297.7
1017.6439	2908.9801	5152.7	4270.6
1017.7594	2910.0953	5171.9	4291.5
1017.8748	2911.2098	5132.3	4249.45
1017.9902	2912.3236	5099.1	4209.5
1018.1056	2913.4368	5106.05	4221.05
1018.2209	2914.5494	5062.35	4181.6
1018.3362	2915.6613	5046.95	4159.55
1018.4515	2916.7725	5009.4	4123.25
1018.5667	2917.8831	5003.6	4121.95
1018.6819	2918.9931	4971.8	4084.8
1018.797	2920.1024	4946.05	4064.85
1018.9121	2921.211	4927.25	4045.1
1019.0271	2922.319	4903.85	4023.45
1019.1421	2923.4264	4899.35	4020.1
1019.2571	2924.5331	4851.9	3972.1
1019.372	2925.6391	4850.05	3968
1019.4869	2926.7445	4843.55	3961.75
1019.6017	2927.8493	4829.15	3947.45
1019.7165	2928.9534	4832.65	3950.05
1019.8313	2930.0569	4817.45	3934.1
1019.946	2931.1597	4800.8	3917.25
1020.0606	2932.2619	4794.75	3913
1020.1753	2933.3634	4791.45	3910.45
1020.2899	2934.4643	4796.7	3909.95
1020.4044	2935.5645	4777.7	3889.2
1020.5189	2936.6641	4744.5	3859.2
1020.6334	2937.763	4728.6	3847.9
1020.7478	2938.8613	4668.25	3787.4
1020.8622	2939.959	4640.4	3753.9
1020.9765	2941.056	4597.3	3716.65
1021.0908	2942.1523	4554.15	3670.65
1021.2051	2943.248	4486.1	3604.7
1021.3193	2944.3431	4416.15	3535.25
1021.4334	2945.4375	4341	3461.8
1021.5476	2946.5313	4280.5	3401.25
1021.6617	2947.6244	4219.1	3336.1
1021.7757	2948.7169	4142.7	3262.05
1021.8897	2949.8087	4080.75	3201.65
1022.0037	2950.8999	3995.25	3112.5
1022.1176	2951.9904	3944.75	3063.8
1022.2315	2953.0803	3894.65	3014
1022.3453	2954.1696	3854.05	2972.5
1022.4591	2955.2582	3808.1	2927.5
1022.5728	2956.3462	3763.15	2880.5
1022.6865	2957.4335	3743.1	2861.1
1022.8002	2958.5202	3684.3	2799.5
1022.9138	2959.6062	3660.6	2779.7
1023.0274	2960.6916	3654.85	2775
1023.141	2961.7764	3620.2	2739.05
1023.2545	2962.8605	3590.6	2709.1
1023.3679	2963.9439	3586.65	2704.75
1023.4813	2965.0267	3580.55	2698.5
1023.5947	2966.1089	3583.7	2677.4
1023.708	2967.1905	3540.6	2662.95
1023.8213	2968.2714	3525.2	2644.9
1023.9346	2969.3516	3513.6	2632.5
1024.0478	2970.4312	3526.35	2636.7
1024.1609	2971.5102	3511.3	2631.6
1024.274	2972.5885	3495	2612.3
1024.3871	2973.6662	3487.4	2603.8
1024.5002	2974.7432	3484.05	2603.8
1024.6132	2975.8196	3479.55	2598.6
1024.7261	2976.8954	3448.75	2567.55
1024.839	2977.9705	3425.75	2546.45
1024.9519	2979.045	3427.15	2545.75
1025.0647	2980.1188	3400	2520.05
1025.1775	2981.192	3381.1	2501.05
1025.2902	2982.2645	3366.25	2483.75
1025.4029	2983.3364	3360.45	2480
1025.5156	2984.4077	3332.65	2453.15
1025.6282	2985.4783	3305.35	2419.45
1025.7407	2986.5483	3271.55	2391.85
1025.8532	2987.6177	3240.4	2361.35
1025.9657	2988.6864	3226.9	2345.3
1026.0782	2989.7545	3198.45	2315.05
1026.1906	2990.8219	3169.1	2287
1026.3029	2991.8887	3135.5	2254.25
1026.4152	2992.9548	3107.8	2225.1
1026.5275	2994.0204	3089.75	2211.1
1026.6397	2995.0852	3057.8	2177.9
1026.7519	2996.1495	3034.15	2152.5
1026.864	2997.2131	3004.05	2123.15
1026.9761	2998.276	2983.75	2102.5
1027.0882	2999.3383	2972.65	2091.65
1027.2002	3000.4	2950.95	2069
1027.3122	3001.4611	2926.45	2045.8
1027.4241	3002.5215	2905.6	2024.95
1027.536	3003.5812	2891.5	2011.75
1027.6478	3004.6404	2875.25	1994.5
1027.7596	3005.6989	2871.3	1989.15
1027.8714	3006.7567	2853.9	1973.6
1027.9831	3007.8139	2868.5	1955.4
1028.0947	3008.8705	2835.85	1956.5
1028.2064	3009.9264	2816.55	1931.05
1028.3179	3010.9818	2811.4	1930.85
1028.4295	3012.0364	2807.15	1927.9
1028.541	3013.0905	2791.7	1911.75
1028.6524	3014.1439	2774.95	1896.35
1028.7638	3015.1966	2775.5	1896.3
1028.8752	3016.2487	2756.05	1875.25
1028.9865	3017.3002	2751.3	1866.7
1029.0978	3018.3511	2724.85	1844.2
1029.209	3019.4013	2735.15	1852.8
1029.3202	3020.4509	2727.55	1847.15
1029.4314	3021.4998	2723.45	1841.1
1029.5425	3022.5481	2716.25	1835.9
1029.6535	3023.5958	2698.35	1816.45
1029.7645	3024.6428	2700.35	1818.3
1029.8755	3025.6892	2700.25	1819.5
1029.9864	3026.735	2685.15	1805.8
1030.0973	3027.7802	2667.6	1787.4
1030.2082	3028.8247	2657.7	1778.7
1030.319	3029.8685	2647.3	1764.9
1030.4297	3030.9118	2656.65	1773.95
1030.5404	3031.9544	2646.7	1767.3
1030.6511	3032.9963	2636.4	1751.35
1030.7617	3034.0376	2641	1760.1
1030.8723	3035.0783	2636	1751.7
1030.9829	3036.1184	2625.15	1742.65
1031.0934	3037.1578	2609.55	1731.3
1031.2038	3038.1966	2620.9	1737.9
1031.3142	3039.2348	2615	1737.35
1031.4246	3040.2723	2612.35	1722.85
1031.5349	3041.3092	2597	1718.3
1031.6452	3042.3455	2591.35	1710.75
1031.7554	3043.3811	2579.4	1698.7
1031.8656	3044.4161	2572	1690.8
1031.9758	3045.4505	2563.2	1685.2
1032.0859	3046.4842	2558.95	1678.75
1032.1959	3047.5173	2548.3	1669.45
1032.3059	3048.5498	2554.6	1674.85
1032.4159	3049.5816	2528.65	1649.6
1032.5258	3050.6128	2540.55	1658.25
1032.6357	3051.6434	2521.1	1639.65
1032.7455	3052.6734	2524.25	1642.05
1032.8553	3053.7027	2517.6	1637.6
1032.9651	3054.7314	2509.15	1627.4
1033.0748	3055.7594	2500.15	1620.95
1033.1845	3056.7868	2481.55	1600.2
1033.2941	3057.8136	2468.5	1588.85
1033.4037	3058.8398	2472.15	1593.05
1033.5132	3059.8653	2455.1	1577
1033.6227	3060.8902	2443.2	1561.5
1033.7321	3061.9145	2442.7	1563
1033.8415	3062.9381	2435.85	1555.95
1033.9509	3063.9612	2440.5	1543.7
1034.0602	3064.9835	2416	1536.3
1034.1694	3066.0053	2404.85	1522.55
1034.2787	3067.0264	2404.65	1525.75
1034.3878	3068.0469	2388.3	1506.8
1034.497	3069.0668	2392.4	1511
1034.6061	3070.086	2378.6	1499.2
1034.7151	3071.1046	2366.5	1484.7
1034.8241	3072.1226	2358.1	1476.5
1034.9331	3073.1399	2343.15	1465.45
1035.042	3074.1567	2331.4	1451.15
1035.1508	3075.1727	2326.75	1443.9
1035.2597	3076.1882	2316.1	1436.6
1035.3684	3077.203	2324.55	1444.95
1035.4772	3078.2173	2310	1428.15
1035.5859	3079.2308	2306.8	1421.4
1035.6945	3080.2438	2289.6	1408.2
1035.8031	3081.2561	2284.45	1405
1035.9117	3082.2678	2262.55	1381.6
1036.0202	3083.2789	2255.95	1374.3
1036.1286	3084.2893	2253.95	1374.55
1036.2371	3085.2991	2242.75	1362.95
1036.3454	3086.3083	2234.3	1349.05
1036.4538	3087.3169	2233.05	1349.65
1036.562	3088.3248	2219.65	1338.85
1036.6703	3089.3321	2215.5	1334.95
1036.7785	3090.3388	2206.9	1327.75
1036.8866	3091.3449	2204	1324.4
1036.9948	3092.3503	2181.5	1299.6
1037.1028	3093.3551	2186.2	1309.45
1037.2108	3094.3593	2174.45	1294.6
1037.3188	3095.3629	2164.6	1285.95
1037.4267	3096.3658	2158.85	1279.05
1037.5346	3097.3681	2144.65	1265.7
1037.6425	3098.3698	2151.15	1269.05
1037.7503	3099.3708	2146.25	1262.4
1037.858	3100.3713	2129.85	1250
1037.9657	3101.3711	2116.9	1236.4
1038.0734	3102.3702	2237.4	1222.05
1038.181	3103.3688	2119.85	1238.75
1038.2886	3104.3667	2102	1223.2
1038.3961	3105.364	2093.1	1214
1038.5036	3106.3607	2089.9	1208.95
1038.611	3107.3568	2064.8	1183.55
1038.7184	3108.3522	2061.55	1182.25
1038.8257	3109.347	2066.5	1186.45
1038.933	3110.3412	2061.3	1178.55
1039.0403	3111.3348	2046.1	1168.3
1039.1475	3112.3277	2036.25	1156.6
1039.2547	3113.32	2029.55	1150.05
1039.3618	3114.3117	2028.1	1147.45
1039.4689	3115.3028	2016.5	1135.75
1039.5759	3116.2932	2015.15	1134.5
1039.6829	3117.2831	2010.45	1123.95
1039.7898	3118.2723	2000.6	1123.2
1039.8967	3119.2608	1986.8	1107.25
1040.0035	3120.2488	1987.4	1105.65
1040.1103	3121.2361	1981.85	1102.1
1040.2171	3122.2229	1970.25	1089.85
1040.3238	3123.209	1973.9	1092.85
1040.4305	3124.1944	1957.55	1080
1040.5371	3125.1793	1962.95	1082.05
1040.6437	3126.1635	1956.1	1077.9
1040.7502	3127.1471	1947.25	1066.35
1040.8567	3128.1301	1936.6	1055.6
1040.9631	3129.1125	1934.3	1054.8
1041.0695	3130.0942	1930.15	1050.35
1041.1759	3131.0753	1932.35	1045.7
1041.2822	3132.0558	1923.2	1040.6
1041.3884	3133.0357	1917.25	1038.05
1041.4946	3134.015	1911.3	1030.1
1041.6008	3134.9936	1908.6	1027.9
1041.7069	3135.9716	1915.95	1015.5
1041.813	3136.949	1895.1	1015.75
1041.919	3137.9258	1892.1	1006.9
1042.025	3138.902	1892.05	1007.65
1042.1309	3139.8775	1880.5	1001.5
1042.2368	3140.8524	1875.6	998.55
1042.3427	3141.8267	1875.6	996.25
1042.4485	3142.8004	1874.1	995.25
1042.5542	3143.7735	1865.75	979.7
1042.6599	3144.7459	1863	982.4
1042.7656	3145.7178	1862.2	982.3
1042.8712	3146.689	1843.8	964.7
1042.9768	3147.6596	1847.5	965.25
1043.0823	3148.6295	1841.45	962.95
1043.1878	3149.5989	1832.65	953.05
1043.2932	3150.5676	1826.35	947.7
1043.3986	3151.5357	1814.85	934.85
1043.5039	3152.5032	1824.85	945.75
1043.6092	3153.4701	1812.8	933.5
1043.7145	3154.4364	1810.9	929.25
1043.8197	3155.402	1802.65	924.25
1043.9248	3156.367	1797.05	915.2
1044.03	3157.3315	1828.9	908.95
1044.135	3158.2952	1788.85	910.3
1044.24	3159.2584	1784.7	906.65
1044.345	3160.221	1780.45	900.4
1044.4499	3161.1829	1780.3	901.95
1044.5548	3162.1442	1771.6	892.4
1044.6596	3163.105	1766.85	887.35
1044.7644	3164.065	1754.05	872
1044.8692	3165.0245	1754	870.9
1044.9739	3165.9834	1746.35	869.7
1045.0785	3166.9416	1742.95	862.3
1045.1831	3167.8993	1728.3	848.65
1045.2877	3168.8563	1730.25	850.15
1045.3922	3169.8127	1730.5	850.15
1045.4966	3170.7684	1733.4	855.2
1045.6011	3171.7236	1720.35	838.55
1045.7054	3172.6782	1721.8	842.35
1045.8098	3173.6321	1713.1	833.65
1045.914	3174.5854	1715.9	835.6
1046.0183	3175.5381	1706.05	826.7
1046.1224	3176.4902	1701.55	822.55
1046.2266	3177.4417	1686.1	807.15
1046.3307	3178.3926	1691.65	814.6
1046.4347	3179.3428	1680.35	801.4
1046.5387	3180.2924	1670.4	792.7
1046.6427	3181.2415	1670.35	791.35
1046.7466	3182.1899	1674.55	793.8
1046.8504	3183.1377	1673.65	794.3
1046.9542	3184.0848	1660.35	777.8
1047.058	3185.0314	1653.8	777.45
1047.1617	3185.9773	1648.1	768.8
1047.2654	3186.9227	1638.35	756.85
1047.369	3187.8674	1636.85	756.55
1047.4726	3188.8115	1644.3	760.1
1047.5761	3189.755	1640.25	760.9
1047.6796	3190.6979	1630.05	752.95
1047.783	3191.6402	1627.05	749.75
1047.8864	3192.5818	1628.2	749.65
1047.9898	3193.5229	1632.25	735.7
1048.0931	3194.4633	1614.05	734.75
1048.1963	3195.4031	1619.5	739
1048.2995	3196.3423	1608.35	728.85
1048.4027	3197.2809	1610.35	732.05
1048.5058	3198.2189	1600	719.7
1048.6089	3199.1563	1619.55	723.7
1048.7119	3200.0931	1591.8	715.6
1048.8148	3201.0292	1585.2	706.7
1048.9178	3201.9648	1579.6	700.45
1049.0206	3202.8997	1587.45	706.4
1049.1235	3203.834	1580.75	703.4
1049.2262	3204.7677	1578.95	699.1
1049.329	3205.7008	1580.9	698.9
1049.4317	3206.6333	1562.75	687.15
1049.5343	3207.5652	1567.6	685.75
1049.6369	3208.4964	1560.7	680.6
1049.7394	3209.4271	1553.1	675.5
1049.8419	3210.3571	1558	679.6
1049.9444	3211.2865	1551.9	670.35
1050.0468	3212.2154	1544.8	665.3
1050.1491	3213.1436	1548.3	665.65
1050.2514	3214.0712	1549.9	663.75
1050.3537	3214.9982	1537.05	658.6
1050.4559	3215.9246	1532.9	653.8
1050.5581	3216.8503	1533.8	655.65
1050.6602	3217.7755	1529.05	648.4
1050.7623	3218.7001	1525.45	647.55
1050.8643	3219.624	1528.45	648.95
1050.9663	3220.5473	1512.5	632.8
1051.0682	3221.4701	1514.65	634.3
1051.1701	3222.3922	1511.3	630.1
1051.2719	3223.3137	1519.6	639.4
1051.3737	3224.2346	1501.15	622.2
1051.4754	3225.1549	1498.35	620.4
1051.5771	3226.0746	1496.25	616.9
1051.6788	3226.9937	1494.05	614.3
1051.7804	3227.9121	1490.8	611.7
1051.8819	3228.83	1491.15	611.1
1051.9834	3229.7473	1485.95	607.7
1052.0849	3230.6639	1479.25	600.65
1052.1863	3231.5799	1477.05	598.3
1052.2876	3232.4954	1480.9	601.9
1052.3889	3233.4102	1474.65	594.25
1052.4902	3234.3244	1470.7	590.6
1052.5914	3235.238	1457.45	580.6
1052.6926	3236.151	1481.05	580.3
1052.7937	3237.0634	1455.8	576.7
1052.8948	3237.9752	1457.4	578.05
1052.9958	3238.8864	1442.95	561.35
1053.0968	3239.797	1449.1	568
1053.1977	3240.7069	1440.65	562
1053.2986	3241.6163	1434.95	553.75
1053.3994	3242.5251	1439.2	560.8
1053.5002	3243.4332	1432	554.5
1053.6009	3244.3408	1425.9	546.85
1053.7016	3245.2477	1423.9	545.65
1053.8022	3246.154	1427.8	547.45
1053.9028	3247.0598	1422.45	541.65
1054.0034	3247.9649	1415.95	536.5
1054.1039	3248.8694	1413.3	535.1
1054.2043	3249.7733	1410.25	529.9
1054.3047	3250.6766	1409.2	528.15
1054.4051	3251.5793	1399.8	519.5
1054.5054	3252.4814	1400.1	522.25
1054.6056	3253.3829	1395.65	517.2
1054.7058	3254.2838	1395.9	519.55
1054.806	3255.1841	1392	512.8
1054.9061	3256.0838	1389.9	510.85
1055.0061	3256.9829	1379.9	503.4
1055.1062	3257.8814	1378.3	497
1055.2061	3258.7792	1378.45	499
1055.306	3259.6765	1371.75	492.15
1055.4059	3260.5731	1361	482.65
1055.5057	3261.4692	1354.05	472.85
1055.6055	3262.3647	1348.25	468.1
1055.7052	3263.2595	1349.4	471.15
1055.8049	3264.1538	1339.95	461.7
1055.9045	3265.0474	1328.45	449.2
1056.0041	3265.9404	1325.55	447.15
1056.1036	3266.8329	1318.3	439.85
1056.2031	3267.7247	1315.45	428.75
1056.3025	3268.616	1289.35	411.55
1056.4019	3269.5066	1288.35	408.9
1056.5013	3270.3966	1281.55	399
1056.6005	3271.286	1265.75	387.1
