Software Version:	3.9.2.0
Unit SN:	10000200
Spectrometer SN:	6960
Date:	3/6/2024 10:25:30 AM
Data Line Index:	25
Spectral Points:	2048
Integration time (ms):	125
Averages:	20
Delay (ms):	30
Sequence Number:	1
Processing:	dark subtract
Laser Power (mW):	300
Laser Current (mA):	825
Laser Diode Temp (C):	25.1
Laser Case Temp (C):	25.8
System Temp (C):	25.6
Spectrometer Temp (C):	23.1
CCD Temp (C):	-0.006
Secondary Temp (C):	20.007
Heatsink Temp (C):	21.22
CCDPCB Temp (C):	35.329
SecondaryPCB Temp (C):	28.548

Wavelength	RamanShift	Raw Counts	Dark Subtracted
787.061	30.1047	1063.55	652.2
787.2016	32.3739	1092.2	681.95
787.3422	34.6426	1129.25	718.9
787.4828	36.9109	1181.15	769.15
787.6235	39.1787	1237.95	823.1
787.7642	41.4461	1276.95	858.1
787.9049	43.7131	1337.35	911.9
788.0456	45.9796	1403.45	976.15
788.1863	48.2456	1464.25	1032.15
788.3271	50.5112	1514	1080.25
788.4679	52.7764	1583.4	1146.25
788.6087	55.0411	1651.95	1210.8
788.7496	57.3054	1728.1	1282.1
788.8904	59.5692	1809.05	1357.85
789.0313	61.8326	1894.75	1441.2
789.1722	64.0955	1995.9	1541.45
789.3132	66.3579	2098.95	1638.05
789.4541	68.6199	2254.45	1790.05
789.5951	70.8815	2489.5	2020.7
789.7361	73.1426	2975.65	2502.1
789.8771	75.4032	4234.45	3758.45
790.0181	77.6634	7497.8	7016.6
790.1592	79.9231	15910.8	15423.1
790.3003	82.1824	50159.35	49662
790.4414	84.4412	65471.65	64953.4
790.5825	86.6995	65535	64988.6
790.7237	88.9574	65535	64966.65
790.8648	91.2148	65535	64949.45
791.006	93.4717	65535	64934.9
791.1472	95.7282	65535	64930.85
791.2885	97.9842	65535	64928.15
791.4297	100.2398	65535	64924.55
791.571	102.4949	65535	64925.65
791.7123	104.7495	65535	64920.75
791.8536	107.0036	65535	64916.5
791.9949	109.2573	65535	64922.9
792.1363	111.5105	65535	64919.05
792.2777	113.7632	65535	64916.5
792.4191	116.0154	65535	64905.7
792.5605	118.2672	65535	64911.25
792.7019	120.5185	65535	64909.65
792.8434	122.7693	65535	64906.2
792.9849	125.0197	65535	64903.95
793.1264	127.2696	65535	64898.65
793.2679	129.519	65535	64898.3
793.4094	131.7679	65535	64889.65
793.551	134.0163	65535	64893.9
793.6926	136.2642	65535	64886.55
793.8342	138.5117	65535	64878.95
793.9758	140.7587	65535	64885.5
794.1175	143.0052	65535	64882.8
794.2591	145.2512	65535	64879.9
794.4008	147.4967	65535	64876.6
794.5425	149.7417	65535	64877.6
794.6842	151.9863	65535	64874.5
794.826	154.2304	65535	64872.2
794.9677	156.4739	65535	64862.7
795.1095	158.717	65535	64860.05
795.2513	160.9596	65535	64857.95
795.3931	163.2017	65535	64857.2
795.535	165.4433	65535	64855.8
795.6768	167.6844	65535	64855.6
795.8187	169.925	65535	64849.95
795.9606	172.1651	65535	64847.4
796.1025	174.4047	65535	64842.2
796.2445	176.6439	65535	64845.4
796.3864	178.8825	65535	64843.6
796.5284	181.1206	65535	64836.65
796.6704	183.3582	65535	64833.55
796.8124	185.5954	65535	64828.75
796.9544	187.832	65535	64825.75
797.0965	190.0681	65535	64823.4
797.2386	192.3037	65535	64820.2
797.3806	194.5388	65535	64820.55
797.5228	196.7734	65535	64820.1
797.6649	199.0075	65535	64812.7
797.807	201.2411	65535	64815.95
797.9492	203.4742	65535	64814.8
798.0914	205.7068	65535	64808.6
798.2336	207.9389	65535	64804.4
798.3758	210.1704	65535	64809.25
798.518	212.4015	65535	64815.85
798.6603	214.632	65535	64821.6
798.8025	216.862	65535	64832.4
798.9448	219.0915	65535	64830.05
799.0871	221.3205	65535	64825.05
799.2294	223.549	65535	64831.1
799.3718	225.777	65535	64828.6
799.5141	228.0044	65535	64823.4
799.6565	230.2314	65535	64822.75
799.7989	232.4578	65535	64819.1
799.9413	234.6837	65535	64809.25
800.0837	236.909	65535	64806.75
800.2262	239.1339	65535	64782.75
800.3687	241.3582	65535	64796.75
800.5111	243.582	65535	64767.8
800.6536	245.8053	65535	64782.85
800.7961	248.0281	65535	64788.45
800.9387	250.2503	65535	64784.8
801.0812	252.472	65535	64781.4
801.2238	254.6932	65535	64779.8
801.3664	256.9139	65535	64777.35
801.509	259.134	65535	64777.15
801.6516	261.3536	65535	64777
801.7942	263.5727	65535	64776.45
801.9369	265.7912	65535	64778.1
802.0795	268.0092	65535	64774.75
802.2222	270.2267	65535	64772.6
802.3649	272.4436	65535	64772.95
802.5076	274.6601	65535	64760.65
802.6504	276.8759	65535	64761.75
802.7931	279.0913	65535	64767.95
802.9359	281.3061	65535	64764.9
803.0787	283.5204	65535	64763.8
803.2215	285.7341	65535	64759.65
803.3643	287.9473	65535	64750.05
803.5071	290.16	65535	64754.7
803.6499	292.3721	65535	64759.8
803.7928	294.5837	65535	64760.6
803.9357	296.7947	65535	64759.35
804.0786	299.0052	65535	64760.3
804.2215	301.2152	65535	64757.3
804.3644	303.4246	65535	64760.65
804.5074	305.6334	65535	64758.15
804.6503	307.8418	65535	64758.05
804.7933	310.0495	65535	64755.55
804.9363	312.2568	65535	64755
805.0793	314.4635	65535	64752.95
805.2223	316.6696	65535	64750.7
805.3653	318.8752	65535	64742.9
805.5084	321.0802	65535	64752.05
805.6514	323.2847	65535	64748.05
805.7945	325.4887	65535	64746.9
805.9376	327.692	65535	64746.8
806.0807	329.8949	65535	64748.25
806.2238	332.0972	65535	64741.05
806.367	334.2989	65535	64743.15
806.5101	336.5001	65535	64740.05
806.6533	338.7007	65535	64738.45
806.7965	340.9008	65535	64737.25
806.9397	343.1003	65535	64734.85
807.0829	345.2992	65535	64734.05
807.2261	347.4976	65535	64735.1
807.3693	349.6955	65535	64730.3
807.5126	351.8927	65535	64732.8
807.6559	354.0895	65535	64716.75
807.7991	356.2856	65535	64728.85
807.9424	358.4812	65535	64727.4
808.0857	360.6763	65535	64722.2
808.2291	362.8707	65535	64726
808.3724	365.0646	65535	64722.7
808.5158	367.258	65535	64719.4
808.6591	369.4508	65535	64715.8
808.8025	371.643	65535	64715.55
808.9459	373.8346	65535	64712.8
809.0893	376.0257	65535	64712.2
809.2327	378.2162	65535	64713.4
809.3762	380.4062	65535	64709.4
809.5196	382.5956	65535	64707.25
809.6631	384.7844	65535	64715.4
809.8066	386.9726	65535	64714.7
809.9501	389.1603	65535	64721.15
810.0936	391.3474	65535	64676.95
810.2371	393.5339	65535	64715.15
810.3806	395.7199	65535	64721.55
810.5241	397.9052	65535	64720.3
810.6677	400.09	65535	64717
810.8113	402.2743	65535	64721.45
810.9548	404.4579	65535	64719.75
811.0984	406.641	65535	64719
811.2421	408.8235	65535	64715.85
811.3857	411.0054	65535	64716.45
811.5293	413.1868	65535	64710.8
811.673	415.3675	65535	64708.95
811.8166	417.5477	65535	64708.15
811.9603	419.7273	65535	64704.5
812.104	421.9064	65535	64694.3
812.2477	424.0848	65535	64700.75
812.3914	426.2627	65535	64700.85
812.5351	428.4399	65535	64704.05
812.6788	430.6166	65535	64698.55
812.8226	432.7928	65535	64694.9
812.9663	434.9683	65535	64693
813.1101	437.1432	65535	64692
813.2539	439.3176	65535	64695.85
813.3977	441.4914	65535	64693.1
813.5415	443.6645	65535	64693.95
813.6853	445.8371	65535	64694.25
813.8291	448.0091	65535	64692.75
813.973	450.1806	65535	64692.7
814.1168	452.3514	65535	64692.05
814.2607	454.5216	65535	64685.15
814.4046	456.6913	65535	64692.3
814.5485	458.8603	65535	64691.15
814.6924	461.0288	65535	64693.65
814.8363	463.1967	65535	64692.65
814.9802	465.3639	65535	64690.85
815.1241	467.5306	65535	64691.5
815.2681	469.6967	65535	64690.15
815.412	471.8622	65535	64691.05
815.556	474.0271	65535	64686.8
815.7	476.1914	65535	64686.1
815.844	478.3551	65535	64690.6
815.988	480.5182	65535	64687.05
816.132	482.6807	65535	64687.6
816.276	484.8426	65535	64688.45
816.4201	487.0039	65535	64688.65
816.5641	489.1647	65535	64683.7
816.7082	491.3248	65535	64686.35
816.8522	493.4843	65535	64683.2
816.9963	495.6432	65535	64682.95
817.1404	497.8015	65535	64684.05
817.2845	499.9592	65535	64684.3
817.4286	502.1163	65535	64681.45
817.5727	504.2728	65535	64681.3
817.7168	506.4287	65535	64681.25
817.861	508.5839	65535	64680.8
818.0051	510.7386	65535	64681.75
818.1493	512.8927	65535	64673.65
818.2935	515.0461	65535	64680.25
818.4377	517.199	65535	64682.2
818.5818	519.3512	65535	64678.6
818.726	521.5029	65535	64673.25
818.8703	523.6539	65535	64674.6
819.0145	525.8043	65535	64673.2
819.1587	527.9541	65535	64675.65
819.303	530.1033	65535	64677.1
819.4472	532.2519	65535	64676.5
819.5915	534.3999	65535	64670.3
819.7357	536.5472	65535	64674.7
819.88	538.694	65535	64675
820.0243	540.8401	65535	64672.8
820.1686	542.9856	65535	64671.45
820.3129	545.1305	65535	64670.1
820.4572	547.2748	65535	64668.6
820.6016	549.4185	65535	64668.2
820.7459	551.5615	65535	64667.3
820.8902	553.704	65535	64668.35
821.0346	555.8458	65535	64672.75
821.1789	557.987	65535	64672.6
821.3233	560.1276	65535	64671.65
821.4677	562.2675	65535	64668.75
821.6121	564.4069	65535	64670.4
821.7565	566.5456	65535	64668.85
821.9009	568.6837	65535	64670.4
822.0453	570.8212	65535	64671.15
822.1897	572.958	65535	64669.55
822.3342	575.0942	65535	64671.75
822.4786	577.2299	65535	64668.95
822.6231	579.3648	65535	64669.15
822.7675	581.4992	65535	64671
822.912	583.6329	65535	64670.4
823.0565	585.766	65535	64671.4
823.201	587.8985	65535	64669.6
823.3454	590.0304	65535	64644.95
823.4899	592.1616	65535	64665.35
823.6345	594.2922	65535	64662.15
823.779	596.4222	65535	64665.1
823.9235	598.5515	65535	64661.15
824.068	600.6802	65535	64663.95
824.2126	602.8083	65535	64664.35
824.3571	604.9358	65535	64662.5
824.5017	607.0626	65535	64662.55
824.6462	609.1888	65535	64663.25
824.7908	611.3144	65535	64660.6
824.9354	613.4393	65535	64660.55
825.08	615.5636	65535	64661.1
825.2246	617.6873	65535	64660.3
825.3692	619.8103	65535	64656.25
825.5138	621.9327	65535	64659.15
825.6584	624.0544	65535	64664.75
825.803	626.1756	65535	64660.3
825.9477	628.2961	65535	64661.9
826.0923	630.4159	65535	64657.6
826.237	632.5351	65535	64661.15
826.3816	634.6537	65535	64659.45
826.5263	636.7716	65535	64658.05
826.6709	638.8889	65535	64657.25
826.8156	641.0056	65535	64659.1
826.9603	643.1216	65535	64656.25
827.105	645.237	65535	64655.65
827.2497	647.3518	65535	64656.6
827.3944	649.4659	65535	64659.55
827.5391	651.5793	65535	64657.45
827.6838	653.6922	65535	64657.6
827.8285	655.8043	65535	64656.45
827.9733	657.9159	65535	64657.4
828.118	660.0268	65535	64657.2
828.2627	662.137	65535	64654.4
828.4075	664.2466	65535	64651.9
828.5522	666.3556	65535	64653.3
828.697	668.4639	65535	64651.9
828.8418	670.5716	65535	64657.95
828.9865	672.6786	65535	64653.9
829.1313	674.785	65535	64651.9
829.2761	676.8907	65535	64654.5
829.4209	678.9958	65535	64651.45
829.5657	681.1002	65535	64654.45
829.7105	683.204	65535	64646.65
829.8553	685.3072	65535	64654.3
830.0001	687.4097	65535	64654.1
830.1449	689.5115	65535	64648
830.2898	691.6127	65535	64649.85
830.4346	693.7132	65535	64651.75
830.5794	695.8131	65535	64633.5
830.7243	697.9123	65535	64651.05
830.8691	700.0109	65535	64651.95
831.014	702.1089	65535	64651.95
831.1588	704.2061	65535	64650.95
831.3037	706.3028	65535	64649.7
831.4486	708.3987	65535	64650.35
831.5935	710.4941	65535	64647.25
831.7383	712.5887	65535	64646.5
831.8832	714.6827	65535	64647.3
832.0281	716.7761	65535	64649.85
832.173	718.8688	65535	64651.3
832.3179	720.9608	65535	64646.8
832.4628	723.0522	65535	64642.85
832.6077	725.1429	65535	64646.5
832.7527	727.233	65535	64644.8
832.8976	729.3224	65535	64650.25
833.0425	731.4112	65535	64644.95
833.1874	733.4993	65535	64645.3
833.3324	735.5867	65535	64644.6
833.4773	737.6735	65535	64644.7
833.6222	739.7596	65535	64644.1
833.7672	741.845	65535	64644.45
833.9122	743.9298	65535	64643.75
834.0571	746.014	65535	64646.7
834.2021	748.0974	65535	64644.55
834.347	750.1802	65535	64645.1
834.492	752.2624	65535	64647.15
834.637	754.3439	65535	64643.5
834.782	756.4247	65535	64634.7
834.9269	758.5048	65535	64645.55
835.0719	760.5843	65535	64646.6
835.2169	762.6631	65535	64645.25
835.3619	764.7413	65535	64645.65
835.5069	766.8188	65535	64645.2
835.6519	768.8956	65535	64642.5
835.7969	770.9718	65535	64645.95
835.9419	773.0473	65535	64645.45
836.0869	775.1221	65535	64645.65
836.232	777.1962	65535	64646.5
836.377	779.2697	65535	64643.95
836.522	781.3426	65535	64625.1
836.667	783.4147	65535	64639.55
836.8121	785.4862	65535	64645.2
836.9571	787.557	65535	64641.8
837.1021	789.6271	65535	64642.25
837.2472	791.6966	65535	64642.25
837.3922	793.7654	65535	64645.1
837.5373	795.8335	65535	64639.9
837.6823	797.901	65535	64640.7
837.8274	799.9678	65535	64640.6
837.9724	802.0339	65535	64642.95
838.1175	804.0993	65535	64634.35
838.2626	806.1641	65535	64639.8
838.4076	808.2282	65535	64643.2
838.5527	810.2916	65535	64641.15
838.6978	812.3544	65535	64641.8
838.8428	814.4164	65535	64646.15
838.9879	816.4778	65535	64640.55
839.133	818.5385	65535	64640.9
839.2781	820.5986	65535	64641.85
839.4232	822.658	65535	64638.45
839.5682	824.7166	65535	64640.8
839.7133	826.7747	65535	64642.2
839.8584	828.832	65535	64642.65
840.0035	830.8886	65535	64638.8
840.1486	832.9446	65535	64640.8
840.2937	834.9999	65535	64645.55
840.4388	837.0545	65535	64639.05
840.5839	839.1085	65535	64641.15
840.729	841.1618	65535	64637.4
840.8741	843.2143	65535	64639.65
841.0192	845.2662	65535	64640.15
841.1643	847.3175	65535	64641.6
841.3095	849.368	65535	64642.3
841.4546	851.4179	65535	64641.2
841.5997	853.467	65535	64642.35
841.7448	855.5155	65535	64640.65
841.8899	857.5633	65535	64640.25
842.0351	859.6105	65535	64640.8
842.1802	861.6569	65535	64640.2
842.3253	863.7027	65535	64638.7
842.4704	865.7478	65535	64642.8
842.6156	867.7922	65535	64639.45
842.7607	869.8359	65535	64643.45
842.9058	871.8789	65535	64640
843.0509	873.9212	65535	64608.25
843.1961	875.9629	65535	64635.35
843.3412	878.0039	65535	64640.2
843.4863	880.0441	65535	64640.6
843.6315	882.0837	65535	64641.3
843.7766	884.1226	65535	64637.7
843.9218	886.1609	65535	64640.25
844.0669	888.1984	65535	64638.75
844.212	890.2352	65535	64640.6
844.3572	892.2714	65535	64636.1
844.5023	894.3069	65535	64637.65
844.6475	896.3416	65535	64635.5
844.7926	898.3757	65535	64638.1
844.9377	900.4091	65535	64637.95
845.0829	902.4418	65535	64631.3
845.228	904.4739	65535	64634.8
845.3732	906.5052	65535	64636.45
845.5183	908.5358	65535	64636.8
845.6635	910.5658	65535	64636.15
845.8086	912.595	65535	64636.6
845.9538	914.6236	65535	64637.45
846.0989	916.6515	65535	64639
846.2441	918.6786	65535	64635.4
846.3892	920.7051	65535	64633.55
846.5344	922.7309	65535	64637.25
846.6795	924.756	65535	64638.1
846.8246	926.7804	65535	64632.85
846.9698	928.8041	65535	64633.7
847.1149	930.8272	65535	64637.35
847.2601	932.8495	65535	64636.7
847.4052	934.8711	65535	64637.4
847.5504	936.892	65535	64637.45
847.6955	938.9123	65535	64636.45
847.8407	940.9318	65535	64637.2
847.9858	942.9506	65535	64636.2
848.131	944.9688	65535	64636.55
848.2761	946.9862	65535	64637.35
848.4213	949.003	65535	64637.8
848.5664	951.019	65535	64638.05
848.7115	953.0344	65535	64634.7
848.8567	955.0491	65535	64637
849.0018	957.063	65535	64637.15
849.147	959.0763	65535	64639.1
849.2921	961.0888	65535	64635.95
849.4373	963.1007	65535	64637.85
849.5824	965.1119	65535	64635.25
849.7275	967.1223	65535	64640.75
849.8727	969.1321	65535	64639.3
850.0178	971.1412	65535	64635.5
850.1629	973.1495	65535	64634.75
850.3081	975.1572	65535	64602.05
850.4532	977.1641	65535	64636.9
850.5983	979.1704	65535	64636.25
850.7435	981.1759	65535	64635.5
850.8886	983.1808	65535	64635.9
851.0337	985.1849	65535	64626.9
851.1788	987.1884	65535	64631.15
851.324	989.1911	65535	64631.65
851.4691	991.1932	65535	64634.45
851.6142	993.1945	65535	64636.25
851.7593	995.1951	65535	64633.7
851.9045	997.1951	65535	64633.45
852.0496	999.1943	65535	64635.35
852.1947	1001.1928	65535	64635.8
852.3398	1003.1906	65535	64636.75
852.4849	1005.1877	65535	64635.2
852.63	1007.1841	65535	64635.85
852.7751	1009.1798	65535	64635.3
852.9202	1011.1748	65535	64635.25
853.0653	1013.1691	65535	64634.15
853.2104	1015.1627	65535	64635.5
853.3555	1017.1556	65535	64636.9
853.5006	1019.1477	65535	64639.6
853.6457	1021.1392	65535	64638.5
853.7908	1023.1299	65535	64638.15
853.9359	1025.12	65535	64635.2
854.081	1027.1093	65535	64636.2
854.2261	1029.0979	65535	64641.7
854.3712	1031.0859	65535	64637.85
854.5163	1033.0731	65535	64639.55
854.6613	1035.0596	65535	64637.9
854.8064	1037.0454	65535	64637.2
854.9515	1039.0304	65535	64638.8
855.0965	1041.0148	65535	64634.55
855.2416	1042.9985	65535	64635.75
855.3867	1044.9814	65535	64637.2
855.5317	1046.9636	65535	64633.75
855.6768	1048.9452	65535	64636.55
855.8219	1050.926	65535	64637
855.9669	1052.9061	65535	64638.05
856.112	1054.8855	65535	64635.6
856.257	1056.8642	65535	64636
856.4021	1058.8421	65535	64632.4
856.5471	1060.8194	65535	64635.9
856.6921	1062.7959	65535	64636.35
856.8372	1064.7717	65535	64635.35
856.9822	1066.7469	65535	64637.55
857.1272	1068.7213	65535	64633.75
857.2723	1070.695	65535	64638.15
857.4173	1072.6679	65535	64636.8
857.5623	1074.6402	65535	64636.1
857.7073	1076.6117	65535	64633.15
857.8523	1078.5826	65535	64636.2
857.9973	1080.5527	65535	64634.35
858.1423	1082.5221	65535	64634.5
858.2873	1084.4908	65535	64635.35
858.4323	1086.4587	65535	64635.45
858.5773	1088.426	65535	64637.9
858.7223	1090.3925	65535	64630.25
858.8673	1092.3584	65535	64635.5
859.0123	1094.3235	65535	64637.35
859.1573	1096.2879	65535	64636.5
859.3022	1098.2515	65535	64636.8
859.4472	1100.2145	65535	64638.85
859.5922	1102.1767	65535	64633.4
859.7371	1104.1382	65535	64637.25
859.8821	1106.099	65535	64635.05
860.027	1108.0591	65535	64636.1
860.172	1110.0185	65535	64635.15
860.3169	1111.9771	65535	64636.25
860.4619	1113.9351	65535	64637.05
860.6068	1115.8923	65535	64633.7
860.7517	1117.8488	65535	64633.8
860.8967	1119.8045	65535	64636.7
861.0416	1121.7596	65535	64637.5
861.1865	1123.7139	65535	64638.65
861.3314	1125.6675	65535	64636.85
861.4763	1127.6204	65535	64637.65
861.6212	1129.5726	65535	64636.85
861.7661	1131.524	65535	64638.2
861.911	1133.4748	65535	64637.3
862.0559	1135.4248	65535	64635.1
862.2008	1137.3741	65535	64636.5
862.3457	1139.3226	65535	64635.2
862.4905	1141.2705	65535	64636.75
862.6354	1143.2176	65535	64631.3
862.7803	1145.164	65535	64635.6
862.9251	1147.1097	65535	64635.6
863.07	1149.0546	65535	64635.65
863.2148	1150.9989	65535	64633.3
863.3597	1152.9424	65535	64637.4
863.5045	1154.8852	65535	64637.1
863.6493	1156.8272	65535	64638.3
863.7942	1158.7686	65535	64630.55
863.939	1160.7092	65535	64635.45
864.0838	1162.6491	65535	64635.2
864.2286	1164.5883	65535	64634.45
864.3734	1166.5267	65535	64634.4
864.5182	1168.4644	65535	64635.45
864.663	1170.4014	65535	64631.25
864.8078	1172.3377	65535	64636.7
864.9526	1174.2732	65535	64638.3
865.0974	1176.2081	65535	64638.2
865.2421	1178.1421	65535	64632.45
865.3869	1180.0755	65535	64636.3
865.5317	1182.0082	65535	64636.65
865.6764	1183.9401	65535	64635.6
865.8212	1185.8713	65535	64638.35
865.9659	1187.8017	65535	64639.3
866.1106	1189.7315	65535	64639.9
866.2554	1191.6605	65535	64611.8
866.4001	1193.5888	65535	64636.95
866.5448	1195.5163	65535	64635.6
866.6895	1197.4432	65535	64638.95
866.8342	1199.3693	65535	64638
866.9789	1201.2947	65535	64633.35
867.1236	1203.2193	65535	64634.15
867.2683	1205.1432	65535	64634.05
867.413	1207.0664	65535	64636.3
867.5576	1208.9889	65535	64634.75
867.7023	1210.9106	65535	64638.25
867.847	1212.8316	65535	64637.9
867.9916	1214.7519	65535	64627.05
868.1363	1216.6715	65535	64637.75
868.2809	1218.5903	65535	64635.65
868.4255	1220.5084	65535	64637.6
868.5701	1222.4257	65535	64638.6
868.7148	1224.3424	65535	64637.75
868.8594	1226.2583	65535	64634
869.004	1228.1735	65535	64634.95
869.1486	1230.0879	65535	64637.65
869.2932	1232.0016	65535	64637.25
869.4377	1233.9146	65535	64636.95
869.5823	1235.8269	65535	64636.9
869.7269	1237.7384	65535	64638.45
869.8715	1239.6492	65535	64638.55
870.016	1241.5592	65535	64637.25
870.1606	1243.4686	65535	64637.1
870.3051	1245.3772	65535	64637.6
870.4496	1247.285	65535	64635.9
870.5941	1249.1922	65535	64638.3
870.7387	1251.0986	65535	64638.75
870.8832	1253.0042	65535	64636.5
871.0277	1254.9092	65535	64636.8
871.1722	1256.8134	65535	64636.4
871.3167	1258.7169	65535	64636.05
871.4611	1260.6196	65535	64637.75
871.6056	1262.5216	65535	64635.55
871.7501	1264.4229	65535	64639.35
871.8945	1266.3234	65535	64639.4
872.039	1268.2232	65535	64636.45
872.1834	1270.1223	65535	64635.95
872.3278	1272.0207	65535	64636.5
872.4723	1273.9183	65535	64632.6
872.6167	1275.8151	65535	64638.35
872.7611	1277.7113	65535	64637.95
872.9055	1279.6067	65535	64638.6
873.0499	1281.5014	65535	64635.45
873.1943	1283.3953	65535	64634.85
873.3386	1285.2885	65535	64639.1
873.483	1287.181	65535	64637
873.6274	1289.0727	65535	64638.4
873.7717	1290.9637	65535	64635.6
873.9161	1292.854	65535	64639.3
874.0604	1294.7435	65535	64638.9
874.2047	1296.6323	65535	64637.3
874.349	1298.5204	65535	64634.55
874.4933	1300.4077	65535	64636.2
874.6376	1302.2943	65535	64639.05
874.7819	1304.1802	65535	64637.25
874.9262	1306.0653	65535	64635.35
875.0705	1307.9497	65535	64640.1
875.2147	1309.8333	65535	64636.85
875.359	1311.7162	65535	64636.15
875.5032	1313.5984	65535	64635.4
875.6475	1315.4798	65535	64635.45
875.7917	1317.3605	65535	64621.6
875.9359	1319.2405	65535	64633.55
876.0801	1321.1197	65535	64636.5
876.2243	1322.9982	65535	64632.7
876.3685	1324.876	65535	64638.4
876.5127	1326.753	65535	64637.4
876.6569	1328.6293	65535	64636.85
876.801	1330.5048	65535	64635.15
876.9452	1332.3796	65535	64639.7
877.0893	1334.2537	65535	64610.45
877.2335	1336.127	65535	64637.35
877.3776	1337.9996	65535	64634.45
877.5217	1339.8714	65535	64635.8
877.6658	1341.7426	65535	64594.75
877.8099	1343.6129	65535	64636.65
877.954	1345.4826	65535	64636.8
878.0981	1347.3515	65535	64633.05
878.2422	1349.2196	65535	64636.4
878.3862	1351.087	65535	64636.25
878.5303	1352.9537	65535	64638.25
878.6743	1354.8197	65535	64637.65
878.8184	1356.6849	65535	64636.85
878.9624	1358.5493	65535	64637.25
879.1064	1360.4131	65535	64637.25
879.2504	1362.276	65535	64638.05
879.3944	1364.1383	65535	64638
879.5384	1365.9998	65535	64633.1
879.6823	1367.8606	65535	64637.75
879.8263	1369.7206	65535	64638.85
879.9702	1371.5799	65535	64638
880.1142	1373.4384	65535	64638.05
880.2581	1375.2962	65535	64637.55
880.402	1377.1533	65535	64639.05
880.5459	1379.0096	65535	64635.95
880.6898	1380.8652	65535	64636.2
880.8337	1382.7201	65535	64638.15
880.9776	1384.5742	65535	64637.3
881.1215	1386.4275	65535	64634.85
881.2653	1388.2802	65535	64638.95
881.4092	1390.132	65535	64636.1
881.553	1391.9832	65535	64637.5
881.6968	1393.8336	65535	64637.35
881.8406	1395.6832	65535	64635.55
881.9844	1397.5322	65535	64636.45
882.1282	1399.3803	65535	64632.75
882.272	1401.2278	65535	64638.6
882.4158	1403.0745	65535	64638.55
882.5595	1404.9204	65535	64637.2
882.7033	1406.7656	65535	64636.95
882.847	1408.6101	65535	64637
882.9908	1410.4538	65535	64639.3
883.1345	1412.2968	65535	64637.5
883.2782	1414.139	65535	64639.45
883.4219	1415.9805	65535	64636.85
883.5656	1417.8213	65535	64631.5
883.7092	1419.6613	65535	64639.6
883.8529	1421.5006	65535	64635.7
883.9965	1423.3391	65535	64636.3
884.1402	1425.1769	65535	64637.35
884.2838	1427.0139	65535	64638.8
884.4274	1428.8502	65535	64635.55
884.571	1430.6858	65535	64638.85
884.7146	1432.5206	65535	64638.2
884.8582	1434.3547	65535	64637.5
885.0018	1436.188	65535	64637.85
885.1453	1438.0206	65535	64638
885.2889	1439.8524	65535	64638.25
885.4324	1441.6835	65535	64636.65
885.5759	1443.5139	65535	64632.05
885.7194	1445.3435	65535	64638.4
885.8629	1447.1724	65535	64640.2
886.0064	1449.0005	65535	64638.95
886.1499	1450.8279	65535	64638.65
886.2933	1452.6545	65535	64638.1
886.4368	1454.4804	65535	64637.6
886.5802	1456.3056	65535	64630.45
886.7237	1458.13	65535	64637.55
886.8671	1459.9536	65535	64637.5
887.0105	1461.7766	65535	64640.2
887.1539	1463.5987	65535	64636.3
887.2972	1465.4202	65535	64637.65
887.4406	1467.2409	65535	64638.05
887.584	1469.0608	65535	64638.6
887.7273	1470.88	65535	64637.25
887.8706	1472.6984	65535	64637.5
888.0139	1474.5161	65533.05	64635.2
888.1572	1476.3331	65535	64639.9
888.3005	1478.1493	65532.3	64634.9
888.4438	1479.9648	65527.9	64631.3
888.5871	1481.7795	65534.05	64637.2
888.7303	1483.5935	65535	64637.1
888.8736	1485.4067	65521.45	64626.75
889.0168	1487.2192	65531.55	64635.8
889.16	1489.031	65519.75	64619.35
889.3032	1490.842	65526.3	64629.9
889.4464	1492.6522	65526.5	64628.8
889.5896	1494.4618	65517.4	64620.8
889.7327	1496.2705	65524.05	64629.05
889.8759	1498.0785	65452.55	64555.05
890.019	1499.8858	65519.9	64622.4
890.1622	1501.6924	65530.2	64632.75
890.3053	1503.4981	65493.7	64599.35
890.4484	1505.3032	65513.9	64617.8
890.5914	1507.1075	65482.7	64584.3
890.7345	1508.911	65482.6	64587.75
890.8776	1510.7138	65472.2	64575.35
891.0206	1512.5159	65488.75	64593.55
891.1637	1514.3172	65403.65	64507.55
891.3067	1516.1178	65427.3	64530.8
891.4497	1517.9176	65465.05	64566.9
891.5927	1519.7166	65425	64527.9
891.7357	1521.515	65418.55	64517.25
891.8786	1523.3126	65357.2	64459.85
892.0216	1525.1094	65420.05	64522.5
892.1645	1526.9055	65398.1	64505.8
892.3074	1528.7008	65395.25	64499.85
892.4503	1530.4954	65344.7	64447.6
892.5932	1532.2893	65412.8	64519.35
892.7361	1534.0824	65349	64447.6
892.879	1535.8747	65319.85	64423.55
893.0218	1537.6663	65405.4	64510.55
893.1647	1539.4572	65268.7	64371.85
893.3075	1541.2473	65319.95	64424.9
893.4503	1543.0367	65303.05	64407.75
893.5931	1544.8253	65284.55	64384.05
893.7359	1546.6132	65296.95	64398.7
893.8787	1548.4003	65271.55	64366.95
894.0214	1550.1867	65264.25	64358.9
894.1642	1551.9723	65257.4	64357.85
894.3069	1553.7572	65261.75	64366.35
894.4496	1555.5414	65290.95	64395.6
894.5923	1557.3247	65210.6	64316
894.735	1559.1074	65257.2	64361.8
894.8777	1560.8893	65223.75	64329.1
895.0204	1562.6705	65249.4	64354.05
895.163	1564.4509	65206.35	64311.6
895.3056	1566.2305	65217.35	64323.2
895.4482	1568.0094	65252.65	64360.55
895.5908	1569.7876	65226.1	64331.65
895.7334	1571.565	65189.7	64294.6
895.876	1573.3417	65221.3	64326.95
896.0186	1575.1176	65198.9	64303.7
896.1611	1576.8928	65180.15	64287.65
896.3036	1578.6672	65155.05	64261.35
896.4461	1580.4409	65159.55	64265.85
896.5886	1582.2138	65137.15	64239.65
896.7311	1583.986	65143.55	64249.35
896.8736	1585.7575	65118.1	64224.85
897.0161	1587.5282	65118.35	64224.3
897.1585	1589.2981	65133.75	64241.35
897.3009	1591.0673	65113.4	64219.5
897.4433	1592.8358	65104.65	64211.25
897.5857	1594.6035	65106.85	64210.7
897.7281	1596.3704	65128.8	64234.3
897.8705	1598.1366	65087.55	64195.2
898.0128	1599.9021	65062.75	64168.45
898.1551	1601.6668	65072.7	64176.55
898.2975	1603.4308	65071.95	64178.35
898.4398	1605.194	65081.4	64182.6
898.5821	1606.9564	65023.3	64130.2
898.7243	1608.7182	65063.65	64167.2
898.8666	1610.4791	65048.25	64155.65
899.0088	1612.2394	65061.95	64170.1
899.1511	1613.9988	65047.1	64154.65
899.2933	1615.7576	65059.3	64165.4
899.4355	1617.5156	65070.35	64171.85
899.5776	1619.2728	65084.85	64191.05
899.7198	1621.0293	65035.4	64142.1
899.862	1622.785	65025.05	64128.05
900.0041	1624.54	65045.35	64144.95
900.1462	1626.2942	65025.15	64132.55
900.2883	1628.0477	64978.95	64082.1
900.4304	1629.8005	64971.2	64075.8
900.5725	1631.5525	64985.35	64091.8
900.7145	1633.3037	64945.25	64050.2
900.8566	1635.0542	64951.45	64060.4
900.9986	1636.804	64941.05	64049.7
901.1406	1638.553	64932.6	63948.25
901.2826	1640.3013	64929	64038.55
901.4245	1642.0488	64917.05	64023.2
901.5665	1643.7955	64927.2	64036
901.7085	1645.5416	64905.45	64010.45
901.8504	1647.2868	64902.75	64012.95
901.9923	1649.0313	64918.3	64026.9
902.1342	1650.7751	64900.9	64004.95
902.2761	1652.5181	64891.95	64001.1
902.4179	1654.2604	64897.65	64005.35
902.5598	1656.0019	64907.25	64016.05
902.7016	1657.7427	64899.75	64008.25
902.8434	1659.4828	64908.85	64016.6
902.9852	1661.222	64893.95	64001.6
903.127	1662.9606	64896.5	64004.45
903.2687	1664.6984	64888.5	63996.35
903.4105	1666.4354	64877.7	63984.75
903.5522	1668.1717	64847	63955.35
903.6939	1669.9072	64804.1	63912.4
903.8356	1671.642	64783.35	63889.9
903.9773	1673.3761	64773.75	63881.5
904.119	1675.1094	64753.55	63861.6
904.2606	1676.8419	64683.35	63792.4
904.4022	1678.5737	64711.6	63821.65
904.5439	1680.3048	64674.05	63783.95
904.6855	1682.0351	64635.05	63745.3
904.827	1683.7646	64599.65	63703.95
904.9686	1685.4934	64617.45	63726.35
905.1101	1687.2215	64501.9	63609.8
905.2517	1688.9488	64574.05	63682.7
905.3932	1690.6754	64428.1	63536.35
905.5347	1692.4012	64496.35	63604.7
905.6761	1694.1263	64505.5	63613.7
905.8176	1695.8506	64429.8	63538.25
905.9591	1697.5742	64435.5	63544.95
906.1005	1699.297	64405.4	63513.25
906.2419	1701.0191	64415.1	63523.05
906.3833	1702.7404	64306.75	63415.5
906.5246	1704.461	64258.1	63367.1
906.666	1706.1808	64351.65	63458.6
906.8073	1707.8999	64280.7	63389.15
906.9487	1709.6182	64264.8	63374.9
907.09	1711.3358	64247.6	63354.95
907.2313	1713.0527	64215.3	63325.15
907.3725	1714.7688	64214.85	63319.3
907.5138	1716.4841	63912.25	63019.55
907.655	1718.1987	64051.6	63154.35
907.7962	1719.9126	63960.45	63067.3
907.9374	1721.6257	64076.4	63184.1
908.0786	1723.338	64062	63169.85
908.2198	1725.0496	63563.5	62672.95
908.3609	1726.7605	63668.25	62776.95
908.502	1728.4706	63526.55	62634.05
908.6431	1730.18	63759.25	62867.3
908.7842	1731.8886	63473.2	62583.35
908.9253	1733.5964	63341.1	62443.6
909.0664	1735.3036	63624.9	62729.85
909.2074	1737.0099	63417.1	62525.85
909.3484	1738.7156	63189.6	62300.35
909.4894	1740.4204	63106.4	62213.6
909.6304	1742.1246	63216.75	62324.9
909.7714	1743.8279	63283.55	62392.05
909.9123	1745.5306	63209.55	62318.05
910.0532	1747.2325	62460.35	61569.3
910.1941	1748.9336	62504.35	61615.7
910.335	1750.634	62732.05	61838.25
910.4759	1752.3336	62942	62053
910.6168	1754.0325	62358.95	61471.3
910.7576	1755.7307	62944.4	62053.7
910.8984	1757.4281	62170.05	61281.5
911.0392	1759.1247	62711.75	61810.8
911.18	1760.8206	61866.8	60971.6
911.3208	1762.5158	61986.3	61092.6
911.4615	1764.2102	62190.3	61299.55
911.6022	1765.9039	62055.65	61164.9
911.7429	1767.5968	61834.8	60946.7
911.8836	1769.289	61727.55	60838.1
912.0243	1770.9804	61886.3	60994.6
912.1649	1772.6711	61722.55	60830.95
912.3056	1774.361	61581.65	60689.85
912.4462	1776.0502	61599.1	60706.7
912.5868	1777.7386	60921.8	60026.8
912.7274	1779.4263	61311.2	60420.35
912.8679	1781.1132	61312.15	60422.65
913.0084	1782.7994	61097.55	60205.85
913.149	1784.4849	61170.65	60281.45
913.2895	1786.1696	60391.9	59495.6
913.4299	1787.8535	60858.65	59969.3
913.5704	1789.5367	60956.2	60065.85
913.7108	1791.2192	60428.8	59539
913.8513	1792.9009	60135.95	59216.5
913.9917	1794.5818	60496.75	59604.45
914.132	1796.2621	60132.7	59242.85
914.2724	1797.9415	60178.05	59288.8
914.4128	1799.6202	60039.95	59150
914.5531	1801.2982	60130.05	59241.05
914.6934	1802.9755	59665.55	58775.85
914.8337	1804.6519	59580.55	58690.5
914.9739	1806.3277	60193.05	59302.35
915.1142	1808.0027	59216	58325.55
915.2544	1809.6769	59506.7	58617.35
915.3946	1811.3504	59577.7	58687.4
915.5348	1813.0231	58843.5	57952.75
915.675	1814.6951	59299	58409.25
915.8151	1816.3664	59001.95	58109.75
915.9553	1818.0369	58976.3	58086.5
916.0954	1819.7067	58802.15	57912.9
916.2355	1821.3757	59223.5	58332.75
916.3755	1823.044	58596.75	57705.05
916.5156	1824.7115	58339.85	57449.8
916.6556	1826.3783	58486.55	57596.65
916.7956	1828.0443	58451.9	57562.5
916.9356	1829.7096	58256.7	57365.9
917.0756	1831.3741	57763.35	56871
917.2155	1833.0379	58098.3	57209
917.3555	1834.701	58015.4	57121.1
917.4954	1836.3633	57624.45	56733.15
917.6353	1838.0248	57845	56953.2
917.7751	1839.6856	57688.55	56797.85
917.915	1841.3457	57230.75	56342.75
918.0548	1843.005	57728.2	56839.05
918.1946	1844.6636	57349.5	56460.3
918.3344	1846.3214	56708.55	55817.65
918.4742	1847.9785	56914.6	56024.95
918.6139	1849.6349	56879.85	55988.45
918.7537	1851.2904	57307.3	56407.55
918.8934	1852.9453	56436.3	55545.4
919.0331	1854.5994	56786.2	55892.45
919.1727	1856.2528	56783.55	55888.25
919.3124	1857.9054	56264	55374.7
919.452	1859.5572	56056.3	55168.55
919.5916	1861.2083	56240.35	55349.35
919.7312	1862.8587	56735.8	55845.7
919.8708	1864.5084	55412.35	54522.3
920.0103	1866.1572	55979.85	55089.9
920.1498	1867.8054	55245.15	54356
920.2893	1869.4528	55659.6	54769.35
920.4288	1871.0994	55125.8	54235.55
920.5683	1872.7453	55045.6	54153.7
920.7077	1874.3905	55253.2	54357.95
920.8471	1876.0349	54773.6	53882.65
920.9865	1877.6786	55071.45	54181.95
921.1259	1879.3215	54618.5	53732.2
921.2653	1880.9637	55060.45	54169.55
921.4046	1882.6051	54541.05	53650.15
921.5439	1884.2458	54297.3	53404.95
921.6832	1885.8858	54001.5	53110.15
921.8225	1887.525	54212.5	53322.6
921.9617	1889.1634	53984.35	53095.4
922.101	1890.8011	53703.45	52812.3
922.2402	1892.4381	53190.9	52302.9
922.3794	1894.0743	53751.35	52862
922.5185	1895.7098	53406.7	52518
922.6577	1897.3446	53013.15	52122.75
922.7968	1898.9786	53185.5	52292.8
922.9359	1900.6118	52897.45	52009.2
923.075	1902.2443	52525.4	51633.3
923.214	1903.8761	52865.05	51975.55
923.3531	1905.5071	52403.85	51511.4
923.4921	1907.1374	51842.4	50952.4
923.6311	1908.7669	52057.45	51168.85
923.77	1910.3957	52222.4	51333.7
923.909	1912.0237	51693.05	50802.45
924.0479	1913.651	51440.05	50549.15
924.1868	1915.2776	51272.6	50384.1
924.3257	1916.9034	51189.75	50302.35
924.4646	1918.5285	50980.85	50093.3
924.6034	1920.1528	50918.55	50029.05
924.7422	1921.7764	50745.3	49855
924.881	1923.3992	50638.9	49749.75
925.0198	1925.0213	50288.05	49396.4
925.1586	1926.6427	49886.8	49000.1
925.2973	1928.2633	50074.65	49106.7
925.436	1929.8832	49841.6	48949.9
925.5747	1931.5023	49670.5	48778.5
925.7134	1933.1207	49320.95	48430.45
925.852	1934.7383	49421.65	48533.1
925.9906	1936.3552	49126.45	48236.4
926.1292	1937.9714	49031.15	48141.2
926.2678	1939.5868	48905.3	48012.15
926.4064	1941.2015	48534.3	47644.4
926.5449	1942.8154	48316.95	47426.55
926.6834	1944.4286	48267.4	47377.9
926.8219	1946.041	48199.45	47291
926.9604	1947.6528	47885.15	46990
927.0988	1949.2637	47721.75	46832.95
927.2372	1950.8739	47517.65	46629.35
927.3756	1952.4834	47508.75	46618.95
927.514	1954.0921	47423.45	46534.6
927.6523	1955.7001	47102.2	46208
927.7907	1957.3074	47104.15	46216.7
927.929	1958.9139	46784.35	45895.85
928.0673	1960.5197	46771.6	45880.4
928.2055	1962.1247	46568.75	45678.85
928.3438	1963.729	46403.7	45515.05
928.482	1965.3325	46126.8	45216.6
928.6202	1966.9353	46067.9	45179.55
928.7584	1968.5374	45828.65	44938.45
928.8965	1970.1387	45652.05	44763.7
929.0346	1971.7393	45543.55	44654.05
929.1727	1973.3392	45433.65	44543.9
929.3108	1974.9383	45191.75	44303.55
929.4489	1976.5366	44947.35	44057.3
929.5869	1978.1342	44928.3	44039.25
929.7249	1979.7311	44846.4	43956.15
929.8629	1981.3273	44724.5	43837.05
930.0009	1982.9227	44498.2	43606.65
930.1388	1984.5173	44410.55	43521.3
930.2767	1986.1112	44220.35	43330.8
930.4146	1987.7044	44207.35	43319.4
930.5525	1989.2968	43880.25	42989.9
930.6904	1990.8885	43842.3	42950.65
930.8282	1992.4795	43728.05	42836.85
930.966	1994.0697	43574.05	42684.7
931.1038	1995.6592	43488.45	42600.6
931.2415	1997.2479	43313.35	42423.65
931.3793	1998.8359	43179.5	42290.75
931.517	2000.4232	42966.35	42077.6
931.6547	2002.0097	42890.2	42003.4
931.7923	2003.5955	42626.75	41736.85
931.93	2005.1805	42647.1	41757.8
932.0676	2006.7648	42420.35	41532.7
932.2052	2008.3484	42325	41433.6
932.3427	2009.9312	42366.5	41476.3
932.4803	2011.5133	42116.65	41228.15
932.6178	2013.0946	42045.6	41155.3
932.7553	2014.6752	41894.05	41007.65
932.8928	2016.2551	41807.1	40918.55
933.0302	2017.8342	41628.85	40739.75
933.1676	2019.4126	41483.6	40595.1
933.305	2020.9902	41303.1	40414.9
933.4424	2022.5672	41268	40377.25
933.5798	2024.1433	41159.5	40265.85
933.7171	2025.7188	40983.7	40095.3
933.8544	2027.2935	40895.65	40005
933.9917	2028.8674	40739.6	39849.35
934.129	2030.4406	40636.8	39752
934.2662	2032.0131	40389.3	39502.5
934.4034	2033.5849	40283.05	39389
934.5406	2035.1559	40255.6	39365.85
934.6778	2036.7261	40121.5	39233.4
934.8149	2038.2957	39993.1	39104.65
934.952	2039.8645	39902.65	39013.45
935.0891	2041.4325	39998.7	39108.25
935.2262	2042.9998	39750.95	38861.6
935.3632	2044.5664	39640	38748.45
935.5002	2046.1323	39507	38617.8
935.6372	2047.6974	39319.5	38432.05
935.7742	2049.2617	39260.4	38374
935.9111	2050.8254	39235.15	38342.7
936.048	2052.3883	39123.5	38234.05
936.1849	2053.9504	39006.85	38117.15
936.3218	2055.5118	38864.55	37975.8
936.4586	2057.0725	38661.5	37770.5
936.5955	2058.6325	38608.55	37721.65
936.7323	2060.1917	38511.15	37623.3
936.869	2061.7502	38420	37529.15
937.0058	2063.3079	38253.85	37364.6
937.1425	2064.8649	38128.35	37237.3
937.2792	2066.4212	38021.8	37133.95
937.4159	2067.9767	37918.25	37031.3
937.5525	2069.5315	37750.55	36862.35
937.6891	2071.0856	37524.55	36637.4
937.8257	2072.6389	37431.15	36543.1
937.9623	2074.1915	37225.05	36338.25
938.0989	2075.7433	37077.5	36186.55
938.2354	2077.2945	36983.1	36097.15
938.3719	2078.8448	36908.35	36022
938.5084	2080.3945	36740.8	35853.2
938.6448	2081.9434	36697.05	35809.7
938.7812	2083.4916	36621.35	35734.05
938.9176	2085.039	36461.8	35571.85
939.054	2086.5857	36344.1	35454.65
939.1903	2088.1317	36267.1	35379.75
939.3267	2089.677	36175.55	35285.85
939.463	2091.2215	36083.35	35196.8
939.5992	2092.7652	35993.85	35105.3
939.7355	2094.3083	35881.15	34991.9
939.8717	2095.8506	35855.5	34966.85
940.0079	2097.3921	35788.15	34901.85
940.1441	2098.933	35620.45	34732.95
940.2802	2100.4731	35558.1	34669.9
940.4163	2102.0124	35513.65	34609.35
940.5524	2103.5511	35397.4	34508.3
940.6885	2105.089	35332.65	34443.55
940.8245	2106.6261	35247.25	34359.3
940.9606	2108.1626	35136.6	34246.1
941.0965	2109.6983	35053.15	34133.35
941.2325	2111.2332	34938.55	34047.85
941.3684	2112.7675	34779.45	33889.7
941.5044	2114.301	34725.15	33834.6
941.6403	2115.8337	34710.75	33821.15
941.7761	2117.3657	34575	33686.55
941.912	2118.897	34482.45	33592.6
942.0478	2120.4276	34382.05	33486.85
942.1835	2121.9575	34206.6	33319.7
942.3193	2123.4866	34160.7	33257.35
942.455	2125.0149	34096.85	33205.5
942.5907	2126.5426	33867.1	32979.25
942.7264	2128.0695	33809.85	32916.85
942.8621	2129.5956	33789.4	32901.15
942.9977	2131.1211	33687.45	32793.65
943.1333	2132.6458	33577.15	32688.5
943.2689	2134.1698	33505.65	32615.65
943.4044	2135.693	33410.85	32522.35
943.54	2137.2155	33324.55	32431.9
943.6755	2138.7373	33248.85	32358.9
943.8109	2140.2584	33075.45	32187.55
943.9464	2141.7787	32982.65	32087.65
944.0818	2143.2983	32826.2	31938.95
944.2172	2144.8171	32698.65	31812.65
944.3526	2146.3353	32602.05	31711.85
944.4879	2147.8527	32451.35	31563.95
944.6232	2149.3693	32514.25	31625.6
944.7585	2150.8853	32370.5	31480.75
944.8938	2152.4005	32178.9	31290.95
945.029	2153.9149	32158.2	31271.45
945.1642	2155.4287	32049.9	31160.6
945.2994	2156.9417	31999.8	31110.85
945.4346	2158.454	31899.3	31007.25
945.5697	2159.9655	31829.2	30940.5
945.7048	2161.4764	31778.55	30889.8
945.8399	2162.9865	31622.9	30735.3
945.9749	2164.4958	31526.3	30634.6
946.1099	2166.0045	31382.65	30491.65
946.2449	2167.5124	31377.65	30490.1
946.3799	2169.0195	31303.95	30418.15
946.5148	2170.526	31255	30364.85
946.6498	2172.0317	31110.4	30222.95
946.7846	2173.5367	30990.35	30101.15
946.9195	2175.0409	30916.35	30030.5
947.0543	2176.5445	30937.2	30049.4
947.1891	2178.0473	30761.25	29873.25
947.3239	2179.5494	30673.45	29780.25
947.4587	2181.0507	30562.4	29674.55
947.5934	2182.5513	30462	29574.35
947.7281	2184.0512	30398.3	29509.65
947.8628	2185.5504	30272.65	29386.3
947.9974	2187.0488	30110.1	29222.8
948.132	2188.5465	30014.1	29125.7
948.2666	2190.0435	29927.35	29039.5
948.4012	2191.5397	29786.45	28899.6
948.5357	2193.0353	29738.5	28850.75
948.6702	2194.5301	29570.25	28680.4
948.8047	2196.0241	29462.9	28573
948.9392	2197.5175	29352.5	28464.75
949.0736	2199.0101	29259.75	28368.5
949.208	2200.502	29132.3	28246.2
949.3424	2201.9931	29018	28130.25
949.4767	2203.4835	28889.1	27997.75
949.611	2204.9733	28859.8	27964.2
949.7453	2206.4622	28822	27932.3
949.8796	2207.9505	28675.9	27785.8
950.0138	2209.438	28516.6	27630.2
950.148	2210.9248	28450.85	27561.75
950.2822	2212.4109	28394.25	27508
950.4164	2213.8962	28255.2	27363.25
950.5505	2215.3809	28220.95	27331.9
950.6846	2216.8648	28102.45	27213.55
950.8186	2218.3479	27977.25	27083.45
950.9527	2219.8304	27908.15	27017.25
951.0867	2221.3121	27807.2	26917
951.2207	2222.7931	27750.5	26862
951.3546	2224.2733	27621.15	26732
951.4886	2225.7529	27506	26617.15
951.6225	2227.2317	27442.65	26551.3
951.7563	2228.7098	27397.3	26508.3
951.8902	2230.1872	27223.55	26335.6
952.024	2231.6638	27173.95	26285.85
952.1578	2233.1397	27074.85	26179.3
952.2916	2234.6149	26993.3	26107.05
952.4253	2236.0894	26882.4	25992.5
952.559	2237.5632	26860.5	25971.25
952.6927	2239.0362	26720.8	25834.2
952.8263	2240.5085	26654.25	25765.6
952.9599	2241.9801	26510.55	25621.95
953.0935	2243.4509	26469.25	25581.15
953.2271	2244.921	26359.8	25471.3
953.3606	2246.3904	26275.35	25384.55
953.4941	2247.8591	26172.15	25284.45
953.6276	2249.3271	26094.25	25205.65
953.7611	2250.7943	25988.5	25100.4
953.8945	2252.2608	25894.95	25007
954.0279	2253.7266	25828.5	24941.1
954.1612	2255.1917	25754.95	24865.8
954.2946	2256.656	25696.2	24807.3
954.4279	2258.1197	25599.4	24712.45
954.5612	2259.5826	25536.1	24646.65
954.6944	2261.0447	25484.45	24595.95
954.8276	2262.5062	25333.1	24441.5
954.9608	2263.9669	25322.25	24433.15
955.094	2265.4269	25283	24395.65
955.2271	2266.8862	25173.95	24285.4
955.3602	2268.3448	25122.7	24233.2
955.4933	2269.8026	25023.15	24133.85
955.6264	2271.2598	24987.55	24098.6
955.7594	2272.7162	24862.65	23974.7
955.8924	2274.1719	24825.3	23934.95
956.0253	2275.6268	24711.6	23822.65
956.1583	2277.0811	24690.65	23804.1
956.2912	2278.5346	24597.8	23709.5
956.4241	2279.9874	24555.2	23667.75
956.5569	2281.4395	24517.35	23632.2
956.6897	2282.8908	24379.85	23487.95
956.8225	2284.3414	24357.95	23469.5
956.9553	2285.7914	24274.75	23386.75
957.088	2287.2406	24184.4	23294.6
957.2207	2288.689	24108.8	23221.35
957.3534	2290.1368	24023.15	23136.3
957.486	2291.5838	23953.9	23064.4
957.6186	2293.0302	23865.8	22975.85
957.7512	2294.4758	23755.1	22865.95
957.8838	2295.9206	23678.4	22787.15
958.0163	2297.3648	23560.65	22672.85
958.1488	2298.8082	23585.3	22697.6
958.2813	2300.251	23472	22583.2
958.4137	2301.693	23416.25	22526.5
958.5461	2303.1343	23403.75	22514.95
958.6785	2304.5748	23268.75	22381.15
958.8108	2306.0147	23223.6	22335.4
958.9432	2307.4538	23169.6	22278.35
959.0754	2308.8922	23069	22181
959.2077	2310.3299	22972.85	22087.4
959.3399	2311.7669	22894.5	22007.75
959.4721	2313.2031	22834.55	21945.95
959.6043	2314.6387	22764.5	21873.35
959.7365	2316.0735	22641.35	21751.95
959.8686	2317.5076	22653.45	21765.1
960.0006	2318.941	22563.25	21675.05
960.1327	2320.3737	22455.8	21568.45
960.2647	2321.8056	22462.6	21570.6
960.3967	2323.2369	22322.4	21433.6
960.5287	2324.6674	22282.7	21392.75
960.6606	2326.0972	22210.15	21318.85
960.7925	2327.5263	22100.85	21212.1
960.9244	2328.9547	22023.1	21134.45
961.0562	2330.3823	21997.05	21107.5
961.1881	2331.8092	21969.45	21078
961.3198	2333.2355	21880.7	20992.7
961.4516	2334.661	21807.2	20917
961.5833	2336.0858	21768.25	20877.5
961.715	2337.5098	21683.1	20794.5
961.8467	2338.9332	21656.05	20767.55
961.9783	2340.3558	21534.2	20642.5
962.1099	2341.7778	21478.8	20592.6
962.2415	2343.199	21392.3	20502.8
962.373	2344.6195	21317.95	20430.65
962.5045	2346.0393	21286.2	20398.05
962.636	2347.4583	21280	20390.2
962.7675	2348.8767	21166.85	20278.35
962.8989	2350.2943	21080.4	20191.25
963.0303	2351.7113	21027.1	20138.7
963.1617	2353.1275	20949.85	20061.55
963.293	2354.543	20901.3	20003.8
963.4243	2355.9578	20823.95	19936.35
963.5556	2357.3718	20738.4	19849.6
963.6868	2358.7852	20631.2	19740.7
963.818	2360.1978	20563.95	19674.85
963.9492	2361.6098	20510.75	19623.75
964.0803	2363.021	20488.05	19596.85
964.2114	2364.4315	20368.8	19481.9
964.3425	2365.8413	20343.9	19454.75
964.4736	2367.2504	20294.45	19407.5
964.6046	2368.6587	20170.1	19281.45
964.7356	2370.0664	20079.1	19192.5
964.8666	2371.4733	20010.1	19123.25
964.9975	2372.8795	19934.3	19048.1
965.1284	2374.285	19886.05	18997.25
965.2593	2375.6899	19768.1	18882.1
965.3901	2377.0939	19693.2	18806.25
965.5209	2378.4973	19648.6	18761.05
965.6517	2379.9	19555.1	18668.95
965.7825	2381.3019	19502.1	18616.4
965.9132	2382.7032	19468.25	18580.45
966.0439	2384.1037	19410.65	18524.15
966.1745	2385.5035	19333.05	18443.65
966.3051	2386.9027	19285.25	18399.35
966.4357	2388.3011	19168.55	18277.75
966.5663	2389.6987	19124.2	18235.8
966.6968	2391.0957	19051.05	18163.6
966.8273	2392.492	18992.65	18107.15
966.9578	2393.8876	18863.95	17975.05
967.0882	2395.2824	18807.65	17920.4
967.2186	2396.6765	18721.4	17832.9
967.349	2398.07	18632.4	17746.25
967.4793	2399.4627	18598.7	17709.35
967.6097	2400.8547	18553.6	17665.75
967.7399	2402.246	18471.2	17578.95
967.8702	2403.6366	18372.6	17483.3
968.0004	2405.0265	18310.95	17424.5
968.1306	2406.4156	18262.15	17372.6
968.2607	2407.8041	18171.65	17279.6
968.3909	2409.1918	18080.9	17190.8
968.521	2410.5789	18031.15	17143.4
968.651	2411.9652	17947.7	17055.85
968.781	2413.3508	17876.95	16989.85
968.911	2414.7358	17822.25	16931.4
969.041	2416.12	17761.8	16874.25
969.1709	2417.5035	17723.25	16834.05
969.3008	2418.8863	17651.2	16761.95
969.4307	2420.2684	17580.75	16695.1
969.5606	2421.6497	17469.65	16581.45
969.6904	2423.0304	17369.8	16481.8
969.8201	2424.4104	17340.7	16452.3
969.9499	2425.7896	17281.35	16390.75
970.0796	2427.1682	17239.8	16352.95
970.2093	2428.546	17226.75	16338.45
970.3389	2429.9232	17174.6	16284.65
970.4685	2431.2996	17118.8	16232.2
970.5981	2432.6753	17081.3	16193
970.7277	2434.0503	16993.95	16106.85
970.8572	2435.4246	16934.7	16048.6
970.9867	2436.7982	16879.15	15987.95
971.1161	2438.1711	16842.95	15955.95
971.2456	2439.5433	16786.9	15898.4
971.375	2440.9148	16722.3	15830.25
971.5043	2442.2856	16646.2	15757.55
971.6336	2443.6557	16557.2	15668.05
971.7629	2445.025	16528.2	15641
971.8922	2446.3937	16482.5	15596.8
972.0214	2447.7617	16417.85	15527.75
972.1506	2449.1289	16412.35	15525.7
972.2798	2450.4955	16349.45	15456.3
972.4089	2451.8613	16270.15	15383.2
972.538	2453.2265	16227.3	15338.85
972.6671	2454.5909	16194.45	15305.75
972.7961	2455.9546	16148	15261.35
972.9251	2457.3177	16095.75	15208.7
973.0541	2458.68	16046.65	15157.6
973.1831	2460.0416	15997.25	15109.45
973.312	2461.4025	15980.15	15092.2
973.4408	2462.7627	15957.3	15058.05
973.5697	2464.1222	15845.65	14958.75
973.6985	2465.4811	15778.65	14891.35
973.8273	2466.8392	15734.55	14847.5
973.956	2468.1966	15702.3	14810.8
974.0847	2469.5533	15692.1	14802.6
974.2134	2470.9093	15672.3	14783.65
974.3421	2472.2645	15569.75	14680.7
974.4707	2473.6191	15529.25	14641.7
974.5993	2474.973	15428.3	14540.25
974.7278	2476.3262	15418.5	14530.75
974.8563	2477.6787	15376.6	14489.95
974.9848	2479.0305	15281.65	14393.4
975.1132	2480.3816	15220.65	14332
975.2417	2481.7319	15180	14290.9
975.37	2483.0816	15096.9	14207.35
975.4984	2484.4306	15052.45	14163.75
975.6267	2485.7789	15031.25	14143.95
975.755	2487.1264	14941.95	14052.45
975.8833	2488.4733	14866.1	13978.25
976.0115	2489.8195	14830.65	13936.3
976.1397	2491.165	14786.5	13896
976.2678	2492.5097	14724.15	13834.65
976.3959	2493.8538	14641.95	13755.1
976.524	2495.1972	14579.7	13691.35
976.6521	2496.5398	14512.4	13624.4
976.7801	2497.8818	14486.15	13595.2
976.9081	2499.2231	14445.1	13557.15
977.036	2500.5637	14366.95	13477.95
977.164	2501.9035	14337.75	13448.15
977.2918	2503.2427	14298.4	13406.6
977.4197	2504.5812	14210.95	13322.85
977.5475	2505.919	14212.9	13322.45
977.6753	2507.256	14200.7	13314.6
977.8031	2508.5924	14107.8	13220.25
977.9308	2509.9281	14066.65	13172.45
978.0585	2511.2631	13981.3	13093.4
978.1861	2512.5974	13974.85	13087.05
978.3137	2513.9309	13916.75	13028.85
978.4413	2515.2638	13875.3	12961
978.5689	2516.596	13841.45	12953.7
978.6964	2517.9275	13774.3	12885.8
978.8239	2519.2583	13737.3	12849.4
978.9513	2520.5884	13646.6	12757.5
979.0788	2521.9178	13604.15	12716.25
979.2062	2523.2465	13570.05	12682.8
979.3335	2524.5745	13491.95	12603.9
979.4608	2525.9018	13449.7	12562.9
979.5881	2527.2284	13403.3	12516
979.7154	2528.5543	13411.85	12524.65
979.8426	2529.8796	13344.45	12456.95
979.9698	2531.2041	13336.85	12446.9
980.0969	2532.5279	13276.7	12389.8
980.224	2533.851	13268.15	12380.85
980.3511	2535.1735	13196.95	12309.15
980.4781	2536.4952	13178.85	12291.75
980.6052	2537.8163	13158.8	12271.1
980.7321	2539.1366	13097.7	12209.95
980.8591	2540.4562	13042.9	12154.35
980.986	2541.7752	13018.15	12131.45
981.1129	2543.0935	13013.8	12124.95
981.2397	2544.411	12956.25	12067.9
981.3665	2545.7279	12946.1	12057.75
981.4933	2547.0441	12912.5	12024.9
981.62	2548.3596	12898.05	12007.75
981.7467	2549.6744	12851.8	11963.05
981.8734	2550.9885	12811.3	11917.25
982.0001	2552.3019	12752.15	11863.4
982.1267	2553.6146	12734.5	11845.95
982.2532	2554.9266	12689.15	11800.85
982.3798	2556.2379	12650.1	11760.7
982.5063	2557.5485	12616.6	11730.1
982.6327	2558.8585	12567.3	11673.1
982.7592	2560.1677	12553	11660.15
982.8856	2561.4762	12532.6	11645.45
983.0119	2562.7841	12505.55	11614.95
983.1383	2564.0913	12519	11631.8
983.2646	2565.3977	12470.4	11583.2
983.3908	2566.7035	12409.1	11522.4
983.517	2568.0086	12409.85	11521.7
983.6432	2569.313	12366.2	11476.7
983.7694	2570.6167	12352.7	11463.35
983.8955	2571.9197	12300	11411.25
984.0216	2573.222	12279.8	11389.15
984.1476	2574.5236	12251.1	11362.1
984.2737	2575.8246	12219	11329
984.3996	2577.1248	12176.35	11285.05
984.5256	2578.4244	12174.95	11288.05
984.6515	2579.7232	12146.3	11257.2
984.7774	2581.0214	12138.3	11223.75
984.9032	2582.3189	12078.5	11193
985.029	2583.6157	12062.2	11170.85
985.1548	2584.9118	12039.4	11150.45
985.2806	2586.2072	11989.25	11101.85
985.4063	2587.5019	11934.15	11046.65
985.5319	2588.7959	11905.65	11016.85
985.6576	2590.0893	11888.55	10997.4
985.7832	2591.3819	11876.9	10990.35
985.9087	2592.6739	11820.05	10932.7
986.0343	2593.9652	11783.4	10894.6
986.1597	2595.2557	11770.85	10886
986.2852	2596.5456	11686.4	10794.85
986.4106	2597.8348	11655.2	10769.25
986.536	2599.1234	11596.35	10710.85
986.6614	2600.4112	11549.1	10660.55
986.7867	2601.6983	11513.95	10623.85
986.912	2602.9848	11470.5	10582.15
987.0372	2604.2705	11441.55	10546.15
987.1624	2605.5556	11427.65	10540.5
987.2876	2606.84	11349.15	10461.55
987.4128	2608.1237	11283.55	10395.4
987.5379	2609.4067	11263.25	10376.15
987.6629	2610.689	11231.3	10335.5
987.788	2611.9707	11189.9	10299.7
987.913	2613.2516	11157.25	10263.8
988.0379	2614.5319	11084.75	10198.1
988.1629	2615.8115	11027.3	10140.5
988.2878	2617.0903	11011.7	10122.95
988.4126	2618.3685	10960.9	10073.05
988.5375	2619.6461	10917.45	10027.85
988.6622	2620.9229	10890.95	10004.15
988.787	2622.199	10839.05	9951
988.9117	2623.4745	10835.25	9945.15
989.0364	2624.7493	10783.35	9895.45
989.161	2626.0234	10751.6	9862.9
989.2857	2627.2968	10703.2	9815.55
989.4102	2628.5695	10667.45	9780.5
989.5348	2629.8415	10633.55	9748
989.6593	2631.1128	10579.35	9691.7
989.7837	2632.3835	10541.4	9653
989.9082	2633.6535	10472.5	9584.8
990.0326	2634.9228	10451.65	9564.1
990.1569	2636.1914	10423.85	9536
990.2812	2637.4593	10389.15	9496.55
990.4055	2638.7265	10332.65	9442.8
990.5298	2639.9931	10313.15	9426.05
990.654	2641.259	10290.9	9403.9
990.7782	2642.5242	10262.8	9374.25
990.9023	2643.7887	10216.8	9328.3
991.0264	2645.0525	10191.05	9304
991.1505	2646.3156	10146.6	9258.7
991.2745	2647.5781	10096.9	9209.45
991.3985	2648.8398	10069.45	9184.7
991.5225	2650.1009	10079.4	9153.9
991.6464	2651.3613	10035.25	9147.65
991.7703	2652.6211	9995.7	9108.85
991.8942	2653.8801	9965.95	9079.45
992.018	2655.1385	9933.6	9044
992.1418	2656.3961	9931.55	9044.05
992.2655	2657.6531	9901.8	9013.55
992.3892	2658.9094	9855.6	8967.8
992.5129	2660.1651	9843.05	8957.55
992.6366	2661.42	9798.15	8908.75
992.7602	2662.6743	9803.75	8914.8
992.8837	2663.9279	9760.55	8874.35
993.0073	2665.1808	9716.4	8826.7
993.1307	2666.433	9701.75	8812.85
993.2542	2667.6846	9662.95	8775.1
993.3776	2668.9354	9642.85	8752.85
993.501	2670.1856	9603.3	8714.8
993.6244	2671.4351	9589.55	8703.35
993.7477	2672.6839	9564.15	8677.1
993.8709	2673.9321	9534.05	8647.75
993.9942	2675.1795	9507.45	8620.25
994.1174	2676.4263	9463.45	8576.75
994.2405	2677.6724	9428.05	8539.05
994.3637	2678.9179	9404.95	8516.7
994.4868	2680.1626	9389.8	8501.95
994.6098	2681.4067	9362.9	8477
994.7328	2682.6501	9331.5	8444.8
994.8558	2683.8928	9284.55	8398.5
994.9788	2685.1348	9257.5	8371.1
995.1017	2686.3761	9183.15	8296.35
995.2245	2687.6168	9198.05	8312.6
995.3474	2688.8568	9149.8	8261.8
995.4702	2690.0961	9110.95	8222.4
995.5929	2691.3348	9092.8	8205.3
995.7156	2692.5727	9082.85	8195.6
995.8383	2693.81	9029.75	8141
995.961	2695.0466	9019.05	8131.95
996.0836	2696.2826	8985	8095.75
996.2062	2697.5178	8977.05	8087.2
996.3287	2698.7524	8942.65	8056.1
996.4512	2699.9863	8917.5	8027.55
996.5737	2701.2195	8874.55	7989.3
996.6961	2702.452	8860.85	7971.95
996.8185	2703.6839	8820.55	7932.05
996.9408	2704.9151	8806.15	7920.2
997.0631	2706.1456	8777.45	7889.4
997.1854	2707.3755	8727.95	7839.6
997.3077	2708.6046	8720.35	7831.35
997.4299	2709.8331	8705.5	7815.5
997.552	2711.0609	8674.8	7787.55
997.6742	2712.2881	8638.25	7751.1
997.7963	2713.5145	8618.7	7729.05
997.9183	2714.7403	8584.8	7698.2
998.0403	2715.9654	8558.15	7668.65
998.1623	2717.1899	8536	7633.85
998.2842	2718.4136	8536.55	7647.7
998.4062	2719.6367	8516.55	7629.45
998.528	2720.8591	8475.3	7580.35
998.6498	2722.0809	8437.3	7550.05
998.7716	2723.3019	8413.75	7524.05
998.8934	2724.5223	8394.65	7506.45
999.0151	2725.7421	8376.95	7488.2
999.1368	2726.9611	8376.7	7486.05
999.2584	2728.1795	8322.55	7430.2
999.38	2729.3972	8291.1	7403.55
999.5016	2730.6142	8272.5	7378.45
999.6231	2731.8306	8198.65	7310.55
999.7446	2733.0462	8168.3	7278.9
999.8661	2734.2612	8103.45	7211.6
999.9875	2735.4756	8078.1	7190.6
1000.1089	2736.6892	8037.85	7149.2
1000.2302	2737.9022	7996.6	7109.1
1000.3515	2739.1145	7950.95	7063
1000.4728	2740.3262	7934	7038.95
1000.594	2741.5372	7879.15	6989.7
1000.7152	2742.7475	7827.65	6937.1
1000.8363	2743.9571	7813.3	6925.3
1000.9575	2745.1661	7774.65	6880.55
1001.0785	2746.3744	7750.1	6860.8
1001.1996	2747.582	7722.6	6836.15
1001.3206	2748.7889	7686.2	6798.45
1001.4415	2749.9952	7672.35	6786.8
1001.5625	2751.2008	7633.65	6744.95
1001.6833	2752.4057	7618.6	6728.55
1001.8042	2753.61	7578.35	6689.3
1001.925	2754.8136	7559.2	6668.6
1002.0458	2756.0165	7521.4	6631.9
1002.1665	2757.2188	7477.8	6590.95
1002.2872	2758.4204	7467.95	6580.8
1002.4078	2759.6213	7450.6	6559.75
1002.5285	2760.8215	7417.1	6526.9
1002.649	2762.0211	7401.8	6512.5
1002.7696	2763.22	7382.75	6493.05
1002.8901	2764.4182	7353.6	6464.85
1003.0106	2765.6158	7348.7	6459.35
1003.131	2766.8127	7309.5	6421.95
1003.2514	2768.009	7304.15	6416.4
1003.3717	2769.2045	7263.3	6373.85
1003.492	2770.3994	7231.5	6341.15
1003.6123	2771.5936	7213.45	6324.25
1003.7325	2772.7872	7185.45	6300.35
1003.8527	2773.9801	7148.25	6257.6
1003.9729	2775.1723	7122.65	6218.9
1004.093	2776.3639	7071.35	6184.95
1004.2131	2777.5548	7078.65	6188.9
1004.3331	2778.745	7039.45	6149.9
1004.4531	2779.9346	7050.65	6164.3
1004.5731	2781.1235	7010.2	6123
1004.693	2782.3117	6993.35	6106
1004.8129	2783.4992	6965.35	6078.1
1004.9328	2784.6861	6950.15	6060.8
1005.0526	2785.8723	6930.5	6041.7
1005.1723	2787.0579	6906.65	6018.8
1005.2921	2788.2428	6890.05	6002.9
1005.4118	2789.427	6871.9	5986.25
1005.5314	2790.6106	6828.3	5941.25
1005.651	2791.7935	6828.35	5942.6
1005.7706	2792.9757	6821.95	5936.15
1005.8902	2794.1573	6780.2	5891.1
1006.0097	2795.3382	6767.3	5879.95
1006.1291	2796.5184	6767	5881.8
1006.2485	2797.698	6730.8	5843.2
1006.3679	2798.8769	6723.75	5835.35
1006.4873	2800.0551	6729.35	5842.15
1006.6066	2801.2327	6716.7	5826
1006.7258	2802.4096	6701.85	5814.65
1006.8451	2803.5859	6677	5789.3
1006.9642	2804.7615	6694.6	5807.45
1007.0834	2805.9364	6678	5792.3
1007.2025	2807.1106	6678.6	5791.95
1007.3216	2808.2842	6697.4	5808.45
1007.4406	2809.4572	6688.65	5801.1
1007.5596	2810.6294	6703.6	5816
1007.6785	2811.801	6724.9	5837.95
1007.7975	2812.972	6719.85	5834.15
1007.9163	2814.1423	6729.85	5841.95
1008.0352	2815.3119	6761.7	5872.65
1008.154	2816.4808	6788.55	5903.4
1008.2727	2817.6491	6830.1	5941.35
1008.3914	2818.8167	6852.8	5967.35
1008.5101	2819.9837	6861.7	5970.25
1008.6288	2821.15	6887	5999.8
1008.7474	2822.3157	6915.75	6029.55
1008.8659	2823.4807	6928.95	6041.75
1008.9844	2824.645	6973.35	6086.2
1009.1029	2825.8086	6994.9	6109.55
1009.2214	2826.9716	7038.25	6153.15
1009.3398	2828.134	7057.25	6171.3
1009.4581	2829.2957	7110.15	6223.15
1009.5764	2830.4567	7086.95	6201.7
1009.6947	2831.617	7080.35	6193.5
1009.813	2832.7767	7089.65	6203.9
1009.9312	2833.9358	7081.35	6193.6
1010.0493	2835.0941	7051.05	6160.8
1010.1675	2836.2519	7032.95	6147.4
1010.2855	2837.4089	6997.8	6110.5
1010.4036	2838.5653	6975	6089.65
1010.5216	2839.7211	6947.8	6061.5
1010.6396	2840.8761	6953.6	6064.7
1010.7575	2842.0306	6938	6053.65
1010.8754	2843.1843	6965.5	6080.2
1010.9932	2844.3374	6989.9	6102.95
1011.111	2845.4899	7015.6	6128.85
1011.2288	2846.6417	7053.75	6166.5
1011.3465	2847.7928	7100.4	6213.95
1011.4642	2848.9433	7132.4	6244.3
1011.5818	2850.0931	7189.85	6303.7
1011.6995	2851.2422	7245.8	6357.35
1011.817	2852.3907	7283.8	6395.3
1011.9345	2853.5385	7325.95	6436.9
1012.052	2854.6857	7345.55	6447.2
1012.1695	2855.8323	7374.8	6489.15
1012.2869	2856.9781	7382.85	6495.2
1012.4042	2858.1233	7422	6534.05
1012.5216	2859.2679	7452.1	6565.95
1012.6389	2860.4118	7475.9	6589
1012.7561	2861.555	7479.65	6587.85
1012.8733	2862.6976	7509.15	6620.7
1012.9905	2863.8395	7519.3	6631.05
1013.1076	2864.9808	7535.25	6647.1
1013.2247	2866.1214	7534.45	6650.3
1013.3417	2867.2614	7518.95	6633.65
1013.4587	2868.4007	7500.8	6612.55
1013.5757	2869.5393	7494.1	6605.7
1013.6926	2870.6773	7493.95	6603.25
1013.8095	2871.8146	7487.8	6595.75
1013.9263	2872.9513	7479.75	6588.8
1014.0431	2874.0874	7397.55	6510.3
1014.1599	2875.2227	7416.75	6529.5
1014.2766	2876.3574	7378.4	6490.4
1014.3933	2877.4915	7347.45	6461.95
1014.51	2878.6249	7304.75	6418.05
1014.6266	2879.7577	7249.85	6361.1
1014.7431	2880.8898	7221.45	6325.6
1014.8596	2882.0212	7182.8	6296.6
1014.9761	2883.152	7162.25	6274.2
1015.0925	2884.2821	7107.9	6222.55
1015.2089	2885.4116	7079.1	6194.5
1015.3253	2886.5405	7076.75	6190
1015.4416	2887.6686	7085.35	6194.7
1015.5579	2888.7962	7052.85	6168.35
1015.6741	2889.923	7044.35	6158.6
1015.7903	2891.0493	7054	6169.2
1015.9065	2892.1748	7022.15	6134.9
1016.0226	2893.2997	7016.85	6129.35
1016.1387	2894.424	7000.25	6114.95
1016.2547	2895.5476	7007.15	6118.6
1016.3707	2896.6706	6990.95	6104.6
1016.4866	2897.7929	6997.8	6108.85
1016.6025	2898.9145	7004.45	6118.4
1016.7184	2900.0355	7013.9	6126.15
1016.8342	2901.1559	7031.7	6143.1
1016.95	2902.2756	7034.55	6147.6
1017.0658	2903.3946	7049.1	6163.15
1017.1815	2904.513	7061.5	6171.6
1017.2971	2905.6308	7054.55	6167.25
1017.4127	2906.7479	7052.25	6163.8
1017.5283	2907.8643	7071.25	6184.4
1017.6439	2908.9801	7075.85	6188.2
1017.7594	2910.0953	7045.2	6157.95
1017.8748	2911.2098	7019.75	6130.9
1017.9902	2912.3236	7025.3	6128.35
1018.1056	2913.4368	6992.65	6099.15
1018.2209	2914.5494	6962.15	6074.55
1018.3362	2915.6613	6906.6	6012.9
1018.4515	2916.7725	6880.35	5991.45
1018.5667	2917.8831	6850.2	5961.7
1018.6819	2918.9931	6789.45	5900.05
1018.797	2920.1024	6766.1	5877.3
1018.9121	2921.211	6719.95	5831.9
1019.0271	2922.319	6700.1	5813.9
1019.1421	2923.4264	6679.35	5790.85
1019.2571	2924.5331	6625.85	5741.4
1019.372	2925.6391	6632.25	5745.1
1019.4869	2926.7445	6615.4	5730
1019.6017	2927.8493	6579.55	5692.95
1019.7165	2928.9534	6562.5	5675.5
1019.8313	2930.0569	6563.7	5672.85
1019.946	2931.1597	6561.15	5674.1
1020.0606	2932.2619	6533.65	5647.45
1020.1753	2933.3634	6518.15	5631.05
1020.2899	2934.4643	6522.45	5629.65
1020.4044	2935.5645	6494.85	5600.9
1020.5189	2936.6641	6432.75	5542.2
1020.6334	2937.763	6388.35	5503
1020.7478	2938.8613	6332.95	5446.55
1020.8622	2939.959	6273.5	5383.4
1020.9765	2941.056	6189.45	5304.1
1021.0908	2942.1523	6103.35	5214.15
1021.2051	2943.248	6050.65	5161.05
1021.3193	2944.3431	5960.1	5074.25
1021.4334	2945.4375	5851.3	4962.85
1021.5476	2946.5313	5731.9	4845.75
1021.6617	2947.6244	5630.35	4742.7
1021.7757	2948.7169	5529.8	4642.05
1021.8897	2949.8087	5430.35	4543.45
1022.0037	2950.8999	5338.1	4451.8
1022.1176	2951.9904	5240.6	4354.35
1022.2315	2953.0803	5159.6	4272.2
1022.3453	2954.1696	5088.25	4200.7
1022.4591	2955.2582	5034.15	4148
1022.5728	2956.3462	4978.3	4093.15
1022.6865	2957.4335	4946.75	4061.1
1022.8002	2958.5202	4873.5	3983.8
1022.9138	2959.6062	4850.8	3963.1
1023.0274	2960.6916	4812.45	3927.15
1023.141	2961.7764	4773.35	3883.95
1023.2545	2962.8605	4754.15	3867.15
1023.3679	2963.9439	4731.7	3845
1023.4813	2965.0267	4712.3	3825.4
1023.5947	2966.1089	4691.25	3781.85
1023.708	2967.1905	4653.2	3766.35
1023.8213	2968.2714	4638.55	3751.8
1023.9346	2969.3516	4629.8	3743.25
1024.0478	2970.4312	4633.25	3739.4
1024.1609	2971.5102	4608.45	3721.95
1024.274	2972.5885	4583.1	3695.45
1024.3871	2973.6662	4592.9	3701.15
1024.5002	2974.7432	4565.3	3676.45
1024.6132	2975.8196	4551.2	3663.55
1024.7261	2976.8954	4509.85	3624.85
1024.839	2977.9705	4497.25	3610.9
1024.9519	2979.045	4491.5	3605.8
1025.0647	2980.1188	4460.75	3572.75
1025.1775	2981.192	4423.15	3538.05
1025.2902	2982.2645	4401.5	3513.05
1025.4029	2983.3364	4367.9	3481.65
1025.5156	2984.4077	4327.8	3441.4
1025.6282	2985.4783	4297.95	3405.85
1025.7407	2986.5483	4267.55	3382
1025.8532	2987.6177	4218.6	3333.85
1025.9657	2988.6864	4188.5	3303.4
1026.0782	2989.7545	4154.55	3268.35
1026.1906	2990.8219	4095.3	3210.05
1026.3029	2991.8887	4065.85	3177.9
1026.4152	2992.9548	4039.45	3151.75
1026.5275	2994.0204	3988.8	3102.25
1026.6397	2995.0852	3957.95	3071.75
1026.7519	2996.1495	3929.05	3041.35
1026.864	2997.2131	3887.1	3000.1
1026.9761	2998.276	3862.2	2975.1
1027.0882	2999.3383	3833.75	2945.15
1027.2002	3000.4	3813.55	2925.6
1027.3122	3001.4611	3788.25	2900.5
1027.4241	3002.5215	3758.4	2871.4
1027.536	3003.5812	3729.35	2842.35
1027.6478	3004.6404	3722	2835.85
1027.7596	3005.6989	3698.4	2808.9
1027.8714	3006.7567	3677.2	2792.95
1027.9831	3007.8139	3675	2767.15
1028.0947	3008.8705	3637.75	2753.8
1028.2064	3009.9264	3634.75	2744.75
1028.3179	3010.9818	3602.25	2714.75
1028.4295	3012.0364	3592.3	2703.75
1028.541	3013.0905	3586.55	2699.2
1028.6524	3014.1439	3566.15	2678.85
1028.7638	3015.1966	3567.95	2681.4
1028.8752	3016.2487	3552.65	2666.2
1028.9865	3017.3002	3536.65	2646.25
1029.0978	3018.3511	3515.7	2628.7
1029.209	3019.4013	3526.75	2640.25
1029.3202	3020.4509	3505.5	2619.75
1029.4314	3021.4998	3513	2626.1
1029.5425	3022.5481	3500.7	2613.5
1029.6535	3023.5958	3488.9	2602.15
1029.7645	3024.6428	3460.1	2570.4
1029.8755	3025.6892	3455.9	2570.6
1029.9864	3026.735	3434.2	2545.35
1030.0973	3027.7802	3439.5	2551.85
1030.2082	3028.8247	3433.1	2544.45
1030.319	3029.8685	3422.55	2534.1
1030.4297	3030.9118	3407.35	2520.25
1030.5404	3031.9544	3385.35	2500.2
1030.6511	3032.9963	3399.9	2513.4
1030.7617	3034.0376	3377.15	2491.4
1030.8723	3035.0783	3375.75	2485.95
1030.9829	3036.1184	3371.75	2484.75
1031.0934	3037.1578	3353.65	2467.95
1031.2038	3038.1966	3366	2477.8
1031.3142	3039.2348	3337.2	2451.4
1031.4246	3040.2723	3336.55	2442.4
1031.5349	3041.3092	3326.2	2439.3
1031.6452	3042.3455	3318.95	2434.1
1031.7554	3043.3811	3305.15	2418.9
1031.8656	3044.4161	3282.6	2396.55
1031.9758	3045.4505	3281.4	2396.9
1032.0859	3046.4842	3279.15	2391.3
1032.1959	3047.5173	3246.65	2360.55
1032.3059	3048.5498	3251.95	2364.85
1032.4159	3049.5816	3231.85	2347.7
1032.5258	3050.6128	3230.75	2342.45
1032.6357	3051.6434	3214.75	2325.9
1032.7455	3052.6734	3216.3	2328
1032.8553	3053.7027	3202.15	2315.8
1032.9651	3054.7314	3187.15	2301.9
1033.0748	3055.7594	3161.85	2273.85
1033.1845	3056.7868	3150.3	2264.65
1033.2941	3057.8136	3132.7	2246.15
1033.4037	3058.8398	3131.55	2246
1033.5132	3059.8653	3111.55	2224.35
1033.6227	3060.8902	3111.8	2227.35
1033.7321	3061.9145	3092.95	2207.85
1033.8415	3062.9381	3081.85	2194.45
1033.9509	3063.9612	3081.55	2180.15
1034.0602	3064.9835	3054.5	2166.65
1034.1694	3066.0053	3042.6	2154.85
1034.2787	3067.0264	3030.6	2144.35
1034.3878	3068.0469	3018.6	2130.3
1034.497	3069.0668	3015	2125.2
1034.6061	3070.086	3000.35	2114.95
1034.7151	3071.1046	2988.1	2099.9
1034.8241	3072.1226	2964.25	2078.2
1034.9331	3073.1399	2957.2	2070.9
1035.042	3074.1567	2928.8	2045.6
1035.1508	3075.1727	2921.65	2031.25
1035.2597	3076.1882	2915	2028.7
1035.3684	3077.203	2892.3	2005
1035.4772	3078.2173	2876.8	1987.6
1035.5859	3079.2308	2870.5	1980.05
1035.6945	3080.2438	2857.55	1969.75
1035.8031	3081.2561	2845.4	1958.6
1035.9117	3082.2678	2831.3	1947.5
1036.0202	3083.2789	2828.35	1941.75
1036.1286	3084.2893	2806.75	1921.95
1036.2371	3085.2991	2798.95	1911.3
1036.3454	3086.3083	2781.2	1890.55
1036.4538	3087.3169	2771.8	1883
1036.562	3088.3248	2756.7	1869.45
1036.6703	3089.3321	2749.3	1861.75
1036.7785	3090.3388	2738.55	1852.9
1036.8866	3091.3449	2717.95	1831.85
1036.9948	3092.3503	2717.1	1827.6
1037.1028	3093.3551	2707.25	1821.65
1037.2108	3094.3593	2701.15	1817.05
1037.3188	3095.3629	2676.05	1789.25
1037.4267	3096.3658	2674.05	1785.5
1037.5346	3097.3681	2659.5	1772.55
1037.6425	3098.3698	2661.2	1773.65
1037.7503	3099.3708	2659.2	1766.05
1037.858	3100.3713	2626.55	1739.9
1037.9657	3101.3711	2622.9	1734.9
1038.0734	3102.3702	2732.25	1703.1
1038.181	3103.3688	2617.4	1729.3
1038.2886	3104.3667	2587.5	1701.2
1038.3961	3105.364	2581.45	1695
1038.5036	3106.3607	2573.3	1686.4
1038.611	3107.3568	2555.05	1666.9
1038.7184	3108.3522	2551.55	1666.5
1038.8257	3109.347	2542.55	1653.9
1038.933	3110.3412	2537.7	1645.35
1039.0403	3111.3348	2522.35	1636.65
1039.1475	3112.3277	2511.55	1624.95
1039.2547	3113.32	2497.65	1610.5
1039.3618	3114.3117	2496.15	1608.25
1039.4689	3115.3028	2494.75	1609.6
1039.5759	3116.2932	2466.8	1578.4
1039.6829	3117.2831	2473.5	1581.9
1039.7898	3118.2723	2455.15	1570.45
1039.8967	3119.2608	2446.75	1561.2
1040.0035	3120.2488	2436.55	1549.65
1040.1103	3121.2361	2426.35	1539.75
1040.2171	3122.2229	2414.6	1528.9
1040.3238	3123.209	2400.45	1513.6
1040.4305	3124.1944	2382.35	1498.5
1040.5371	3125.1793	2398.95	1511.75
1040.6437	3126.1635	2376.5	1491.25
1040.7502	3127.1471	2385.3	1499.95
1040.8567	3128.1301	2368.1	1481.5
1040.9631	3129.1125	2367.9	1480.35
1041.0695	3130.0942	2365.05	1477.8
1041.1759	3131.0753	2354.05	1458.5
1041.2822	3132.0558	2355.4	1466.15
1041.3884	3133.0357	2331.05	1444.35
1041.4946	3134.015	2325.3	1438.4
1041.6008	3134.9936	2325.1	1437.95
1041.7069	3135.9716	2330.5	1423.05
1041.813	3136.949	2310	1422.35
1041.919	3137.9258	2316.65	1423.8
1042.025	3138.902	2303.7	1409.8
1042.1309	3139.8775	2299.4	1413.25
1042.2368	3140.8524	2294.6	1407.9
1042.3427	3141.8267	2285.4	1398.05
1042.4485	3142.8004	2264.1	1377.5
1042.5542	3143.7735	2273.75	1381.05
1042.6599	3144.7459	2259.9	1369.05
1042.7656	3145.7178	2262.75	1376.5
1042.8712	3146.689	2256.2	1370.65
1042.9768	3147.6596	2232.7	1344.1
1043.0823	3148.6295	2226.45	1338.4
1043.1878	3149.5989	2226.65	1341.2
1043.2932	3150.5676	2228	1342.55
1043.3986	3151.5357	2212.6	1327.15
1043.5039	3152.5032	2205.55	1319.25
1043.6092	3153.4701	2196.1	1309.35
1043.7145	3154.4364	2188.35	1300.3
1043.8197	3155.402	2177.05	1293.4
1043.9248	3156.367	2168.45	1281.45
1044.03	3157.3315	2203.9	1273.5
1044.135	3158.2952	2168.15	1280.8
1044.24	3159.2584	2150.6	1264.2
1044.345	3160.221	2137.85	1252.25
1044.4499	3161.1829	2129.85	1240.6
1044.5548	3162.1442	2135.25	1250
1044.6596	3163.105	2113.1	1226.15
1044.7644	3164.065	2106.5	1219.15
1044.8692	3165.0245	2106.3	1219.05
1044.9739	3165.9834	2095.95	1211.45
1045.0785	3166.9416	2096.8	1210.15
1045.1831	3167.8993	2089.3	1201.4
1045.2877	3168.8563	2082.9	1193.5
1045.3922	3169.8127	2073.95	1189.85
1045.4966	3170.7684	2065.5	1178.8
1045.6011	3171.7236	2073.6	1185.1
1045.7054	3172.6782	2054.55	1169.6
1045.8098	3173.6321	2044.35	1157.05
1045.914	3174.5854	2043.55	1151.7
1046.0183	3175.5381	2043.8	1158.05
1046.1224	3176.4902	2040.3	1153.1
1046.2266	3177.4417	2017.2	1132.4
1046.3307	3178.3926	2017.9	1131.45
1046.4347	3179.3428	2016.7	1131.25
1046.5387	3180.2924	2007.9	1122.65
1046.6427	3181.2415	2001.8	1113.25
1046.7466	3182.1899	1988.2	1100.05
1046.8504	3183.1377	1991.8	1104.6
1046.9542	3184.0848	1983.15	1093.15
1047.058	3185.0314	1984.05	1098.65
1047.1617	3185.9773	1972.45	1086.7
1047.2654	3186.9227	1971.3	1084.1
1047.369	3187.8674	1949.85	1063.4
1047.4726	3188.8115	1949.9	1059.05
1047.5761	3189.755	1950	1063.4
1047.6796	3190.6979	1943.1	1056.5
1047.783	3191.6402	1939.6	1054.15
1047.8864	3192.5818	1936.9	1050.85
1047.9898	3193.5229	1939.6	1031.35
1048.0931	3194.4633	1916.55	1029.85
1048.1963	3195.4031	1916.65	1030.6
1048.2995	3196.3423	1912.9	1027.3
1048.4027	3197.2809	1895.45	1009.35
1048.5058	3198.2189	1902.45	1016
1048.6089	3199.1563	1889.4	996
1048.7119	3200.0931	1884.3	996.55
1048.8148	3201.0292	1877.4	991.1
1048.9178	3201.9648	1880.3	994.4
1049.0206	3202.8997	1877.8	989.8
1049.1235	3203.834	1875.2	988.55
1049.2262	3204.7677	1851.15	964.1
1049.329	3205.7008	1859.6	972.3
1049.4317	3206.6333	1851.1	964.35
1049.5343	3207.5652	1846.05	959.05
1049.6369	3208.4964	1846.75	958.9
1049.7394	3209.4271	1839.55	952.8
1049.8419	3210.3571	1824.4	940.15
1049.9444	3211.2865	1826.95	939.25
1050.0468	3212.2154	1825.7	938.6
1050.1491	3213.1436	1829.6	940.95
1050.2514	3214.0712	1822.2	928.75
1050.3537	3214.9982	1810.95	924.15
1050.4559	3215.9246	1800.4	913.3
1050.5581	3216.8503	1795.4	909.35
1050.6602	3217.7755	1801.65	915.7
1050.7623	3218.7001	1790.95	905.55
1050.8643	3219.624	1791	904.25
1050.9663	3220.5473	1790.35	903.4
1051.0682	3221.4701	1777.35	888.4
1051.1701	3222.3922	1779.6	890.6
1051.2719	3223.3137	1765.85	878.8
1051.3737	3224.2346	1767.9	883.4
1051.4754	3225.1549	1754.3	871.4
1051.5771	3226.0746	1754.4	869.5
1051.6788	3226.9937	1751	865.15
1051.7804	3227.9121	1734.45	849.65
1051.8819	3228.83	1742.5	855
1051.9834	3229.7473	1739.95	854.55
1052.0849	3230.6639	1731.7	844.15
1052.1863	3231.5799	1729.8	845.1
1052.2876	3232.4954	1718	831.3
1052.3889	3233.4102	1720.6	833.95
1052.4902	3234.3244	1712.4	827.75
1052.5914	3235.238	1718.7	831.65
1052.6926	3236.151	1720.75	811.35
1052.7937	3237.0634	1689.35	804.95
1052.8948	3237.9752	1690.15	802.7
1052.9958	3238.8864	1684.85	797.75
1053.0968	3239.797	1680.1	794.15
1053.1977	3240.7069	1671.95	785.55
1053.2986	3241.6163	1668.35	779.5
1053.3994	3242.5251	1677.35	792.55
1053.5002	3243.4332	1668.05	783.75
1053.6009	3244.3408	1665.95	779.5
1053.7016	3245.2477	1648.3	761.05
1053.8022	3246.154	1651	763.05
1053.9028	3247.0598	1636.35	746.95
1054.0034	3247.9649	1635.7	748.65
1054.1039	3248.8694	1630.25	745.85
1054.2043	3249.7733	1631.1	745.75
1054.3047	3250.6766	1626.05	738.6
1054.4051	3251.5793	1624.05	737.3
1054.5054	3252.4814	1623.2	737.65
1054.6056	3253.3829	1612.5	726.4
1054.7058	3254.2838	1609.5	722.25
1054.806	3255.1841	1603.1	718.3
1054.9061	3256.0838	1604.55	719.15
1055.0061	3256.9829	1588.1	701.7
1055.1062	3257.8814	1584.2	694.1
1055.2061	3258.7792	1578.15	691.15
1055.306	3259.6765	1577.85	691
1055.4059	3260.5731	1563.65	678.5
1055.5057	3261.4692	1552.8	665.95
1055.6055	3262.3647	1550.4	663.35
1055.7052	3263.2595	1540.35	653.55
1055.8049	3264.1538	1528.25	643.3
1055.9045	3265.0474	1519.65	631.6
1056.0041	3265.9404	1509.8	623.7
1056.1036	3266.8329	1497.35	611.7
1056.2031	3267.7247	1497.45	601.05
1056.3025	3268.616	1478.1	593.7
1056.4019	3269.5066	1453.8	568.2
1056.5013	3270.3966	1441.35	554.9
1056.6005	3271.286	1424	539.45
