Software Version:	3.9.2.0
Unit SN:	10000200
Spectrometer SN:	6960
Date:	3/6/2024 9:40:26 AM
Data Line Index:	25
Spectral Points:	2048
Integration time (ms):	125
Averages:	20
Delay (ms):	30
Sequence Number:	1
Processing:	dark subtract
Laser Power (mW):	305
Laser Current (mA):	825
Laser Diode Temp (C):	25
Laser Case Temp (C):	24
System Temp (C):	23.8
Spectrometer Temp (C):	21.4
CCD Temp (C):	-0.038
Secondary Temp (C):	20.013
Heatsink Temp (C):	17.237
CCDPCB Temp (C):	30.193
SecondaryPCB Temp (C):	25.402

Wavelength	RamanShift	Raw Counts	Dark Subtracted
787.061	30.1047	464.9	56.45
787.2016	32.3739	463.35	58.55
787.3422	34.6426	465.8	58.35
787.4828	36.9109	472.3	63.6
787.6235	39.1787	482.65	68.7
787.7642	41.4461	489.9	72.95
787.9049	43.7131	499.65	79.05
788.0456	45.9796	503.8	80.55
788.1863	48.2456	511.55	85.3
788.3271	50.5112	522.25	90.85
788.4679	52.7764	530	98
788.6087	55.0411	539.85	104.1
788.7496	57.3054	551.6	109.35
788.8904	59.5692	558.85	116.65
789.0313	61.8326	571.25	123.6
789.1722	64.0955	581.05	131.35
789.3132	66.3579	597.7	143.95
789.4541	68.6199	610.6	154.25
789.5951	70.8815	644.85	184.85
789.7361	73.1426	706.3	240.3
789.8771	75.4032	854.5	386.05
790.0181	77.6634	1235.6	765.9
790.1592	79.9231	2135.6	1659.7
790.3003	82.1824	4035.8	3554.25
790.4414	84.4412	7411.3	6923.3
790.5825	86.6995	11930.75	11434.95
790.7237	88.9574	16384.3	15879.7
790.8648	91.2148	19716.1	19204.5
791.006	93.4717	21515.35	21001.1
791.1472	95.7282	22278.4	21761.9
791.2885	97.9842	22710.55	22192.6
791.4297	100.2398	22854.8	22335
791.571	102.4949	22942.4	22418.6
791.7123	104.7495	22953	22425.85
791.8536	107.0036	22956.55	22427.55
791.9949	109.2573	22970	22441.75
792.1363	111.5105	22980.7	22450.9
792.2777	113.7632	22937.6	22404.5
792.4191	116.0154	23009.85	22466.65
792.5605	118.2672	23077.15	22540
792.7019	120.5185	23121.25	22582
792.8434	122.7693	23150.25	22607.4
792.9849	125.0197	23168.1	22619.9
793.1264	127.2696	23203.05	22651.2
793.2679	129.519	23296.5	22742.35
793.4094	131.7679	23332	22776.35
793.551	134.0163	23421.3	22865.5
793.6926	136.2642	23430.9	22869.15
793.8342	138.5117	23465.65	22900.25
793.9758	140.7587	23461	22896.85
794.1175	143.0052	23495.35	22927.4
794.2591	145.2512	23483.25	22914.25
794.4008	147.4967	23457.6	22885.95
794.5425	149.7417	23498.65	22924.95
794.6842	151.9863	23458.2	22879.9
794.826	154.2304	23468.05	22886.25
794.9677	156.4739	23415.15	22827.15
795.1095	158.717	23504.75	22917.2
795.2513	160.9596	23531.75	22940.05
795.3931	163.2017	23524.95	22931.9
795.535	165.4433	23558.75	22962.8
795.6768	167.6844	23570.65	22971.45
795.8187	169.925	23594.1	22992.5
795.9606	172.1651	23489.25	22885.65
796.1025	174.4047	23558.8	22950.85
796.2445	176.6439	23520.8	22909.05
796.3864	178.8825	23540.75	22927.15
796.5284	181.1206	23605.45	22988.8
796.6704	183.3582	23619.25	22995.25
796.8124	185.5954	23658.5	23036.45
796.9544	187.832	23682	23054.4
797.0965	190.0681	23733.9	23103.15
797.2386	192.3037	23767.45	23132.85
797.3806	194.5388	23818.25	23182
797.5228	196.7734	23871.25	23236
797.6649	199.0075	23940.45	23304
797.807	201.2411	24065.75	23427.1
797.9492	203.4742	24097.2	23455.05
798.0914	205.7068	24172.65	23524.15
798.2336	207.9389	24217.15	23570.75
798.3758	210.1704	24320.25	23680.35
798.518	212.4015	24232.75	23602.1
798.6603	214.632	24318.65	23692.75
798.8025	216.862	24313.5	23689.2
798.9448	219.0915	24365.05	23740.1
799.0871	221.3205	24422.55	23794.45
799.2294	223.549	24470.65	23847
799.3718	225.777	24517.3	23891.25
799.5141	228.0044	24569.85	23936.8
799.6565	230.2314	24616.05	23980.5
799.7989	232.4578	24567.3	23928.75
799.9413	234.6837	24612.4	23964
800.0837	236.909	24651.6	24003.95
800.2262	239.1339	24674.6	23998.35
800.3687	241.3582	24709.35	24053.3
800.5111	243.582	24699.9	24008.85
800.6536	245.8053	24760	24084.1
800.7961	248.0281	24761.85	24089.2
800.9387	250.2503	24755.85	24080.4
801.0812	252.472	24797.45	24120.55
801.2238	254.6932	24877.85	24201.2
801.3664	256.9139	24810.55	24133.45
801.509	259.134	24866.35	24185.05
801.6516	261.3536	24869.8	24191.3
801.7942	263.5727	24962	24281.1
801.9369	265.7912	24952.75	24272.6
802.0795	268.0092	24986.45	24303.05
802.2222	270.2267	25048.1	24365.45
802.3649	272.4436	25089.2	24403.3
802.5076	274.6601	25120.55	24427.55
802.6504	276.8759	25096.05	24404.85
802.7931	279.0913	25120.2	24431.15
802.9359	281.3061	25098.9	24408.5
803.0787	283.5204	25147.55	24452.7
803.2215	285.7341	25190.3	24492.05
803.3643	287.9473	25240.2	24529.7
803.5071	290.16	25239.25	24536.75
803.6499	292.3721	25244.2	24549.45
803.7928	294.5837	25210.05	24511.15
803.9357	296.7947	25207.6	24509.5
804.0786	299.0052	25160.55	24461.55
804.2215	301.2152	25141.3	24439.3
804.3644	303.4246	25194.65	24495.4
804.5074	305.6334	25142.3	24442.1
804.6503	307.8418	25142	24438.45
804.7933	310.0495	25136.6	24432
804.9363	312.2568	25096.6	24388.25
805.0793	314.4635	25027.5	24320.2
805.2223	316.6696	24953.7	24243.45
805.3653	318.8752	24872.2	24152.5
805.5084	321.0802	24864.5	24153.1
805.6514	323.2847	24870.75	24156.05
805.7945	325.4887	24810.85	24097.35
805.9376	327.692	24810.25	24093.25
806.0807	329.8949	24906.75	24191.35
806.2238	332.0972	24924	24203.7
806.367	334.2989	24952.3	24230.35
806.5101	336.5001	24944.3	24224
806.6533	338.7007	24917.45	24195.35
806.7965	340.9008	24957.1	24231.15
806.9397	343.1003	24906.75	24179.8
807.0829	345.2992	24872.5	24141.8
807.2261	347.4976	24852.5	24125.2
807.3693	349.6955	24829.15	24095.9
807.5126	351.8927	24870.55	24135.6
807.6559	354.0895	24823.3	24078.9
807.7991	356.2856	24869.55	24131.85
807.9424	358.4812	24796.45	24058.9
808.0857	360.6763	24832.3	24093.55
808.2291	362.8707	24783.55	24041.8
808.3724	365.0646	24826.45	24084.75
808.5158	367.258	24812.6	24066.25
808.6591	369.4508	24721.25	23972.35
808.8025	371.643	24774.15	24026.35
808.9459	373.8346	24670.15	23919.25
809.0893	376.0257	24708.75	23954.65
809.2327	378.2162	24675.7	23925.6
809.3762	380.4062	24675	23925.35
809.5196	382.5956	24587.9	23838.9
809.6631	384.7844	24616.95	23872.3
809.8066	386.9726	24530.7	23786.55
809.9501	389.1603	24520.95	23776.1
810.0936	391.3474	24474.4	23681.15
810.2371	393.5339	24490.9	23742.65
810.3806	395.7199	24394.1	23648.5
810.5241	397.9052	24422.6	23678.15
810.6677	400.09	24385.95	23639.05
810.8113	402.2743	24423.55	23675.35
810.9548	404.4579	24386.8	23634.5
811.0984	406.641	24465.1	23713.05
811.2421	408.8235	24454.05	23700.7
811.3857	411.0054	24509.45	23752.6
811.5293	413.1868	24596.85	23837.6
811.673	415.3675	24651.9	23893.25
811.8166	417.5477	24623.2	23858.7
811.9603	419.7273	24582.05	23815.95
812.104	421.9064	24435.25	23661.7
812.2477	424.0848	24330	23563.5
812.3914	426.2627	24243.1	23474.9
812.5351	428.4399	24200.55	23430.15
812.6788	430.6166	24135.65	23363
812.8226	432.7928	24030.65	23258.05
812.9663	434.9683	23948	23175.8
813.1101	437.1432	23914.9	23139.7
813.2539	439.3176	23841.25	23066.75
813.3977	441.4914	23751.1	22977.95
813.5415	443.6645	23728.25	22952.4
813.6853	445.8371	23673.95	22899.6
813.8291	448.0091	23582.05	22804.95
813.973	450.1806	23526.95	22751.7
814.1168	452.3514	23454.65	22674.15
814.2607	454.5216	23441.6	22655.25
814.4046	456.6913	23319.65	22537
814.5485	458.8603	23332.25	22551.8
814.6924	461.0288	23379.3	22598.3
814.8363	463.1967	23320.8	22541.5
814.9802	465.3639	23349.7	22569.7
815.1241	467.5306	23278.05	22495.25
815.2681	469.6967	23223.05	22441.65
815.412	471.8622	23162.75	22382.75
815.556	474.0271	23140.9	22356.7
815.7	476.1914	23119.1	22334.1
815.844	478.3551	23120.4	22333.95
815.988	480.5182	23134.5	22349.6
816.132	482.6807	23174.95	22386.6
816.276	484.8426	23199.4	22414.1
816.4201	487.0039	23230.45	22444.45
816.5641	489.1647	23256.2	22468
816.7082	491.3248	23305.3	22518.3
816.8522	493.4843	23284.8	22497.85
816.9963	495.6432	23283.3	22495.65
817.1404	497.8015	23211	22417.85
817.2845	499.9592	23155.4	22363.6
817.4286	502.1163	23121.35	22329.2
817.5727	504.2728	23080.3	22287.75
817.7168	506.4287	23094.25	22303.25
817.861	508.5839	23007.75	22217.35
818.0051	510.7386	22979.15	22187.05
818.1493	512.8927	22935.5	22139.65
818.2935	515.0461	22951.2	22155.45
818.4377	517.199	22987.55	22192.8
818.5818	519.3512	22991.6	22194.85
818.726	521.5029	22976.3	22173.35
818.8703	523.6539	22996.05	22199.5
819.0145	525.8043	22987.6	22186.9
819.1587	527.9541	22954.45	22153.15
819.303	530.1033	22851.5	22052.5
819.4472	532.2519	22824.2	22023.85
819.5915	534.3999	22790.35	21987.5
819.7357	536.5472	22767.95	21968.1
819.88	538.694	22723.25	21921.3
820.0243	540.8401	22758.5	21956.05
820.1686	542.9856	22771.4	21967.55
820.3129	545.1305	22736.35	21931.55
820.4572	547.2748	22787.25	21982.05
820.6016	549.4185	22730	21923.05
820.7459	551.5615	22734.05	21929.75
820.8902	553.704	22720.85	21913.75
821.0346	555.8458	22711.5	21907
821.1789	557.987	22679	21872.6
821.3233	560.1276	22684.6	21875.1
821.4677	562.2675	22678.25	21873.15
821.6121	564.4069	22692.15	21883.75
821.7565	566.5456	22691.15	21883.4
821.9009	568.6837	22678.3	21870.45
822.0453	570.8212	22552.65	21745.1
822.1897	572.958	22505.6	21694.45
822.3342	575.0942	22415.35	21607
822.4786	577.2299	22321	21511.05
822.6231	579.3648	22261.75	21452.95
822.7675	581.4992	22171.4	21361.95
822.912	583.6329	22103.7	21295.1
823.0565	585.766	22073	21262.75
823.201	587.8985	22055.85	21244.4
823.3454	590.0304	22025.35	21203.05
823.4899	592.1616	21999.3	21181.85
823.6345	594.2922	21994.15	21180.1
823.779	596.4222	21889	21071.95
823.9235	598.5515	21847.5	21030.75
824.068	600.6802	21762.95	20947.6
824.2126	602.8083	21618.65	20803.2
824.3571	604.9358	21605.7	20788.35
824.5017	607.0626	21582.4	20766.8
824.6462	609.1888	21548.95	20728.65
824.7908	611.3144	21578.3	20759
824.9354	613.4393	21491.8	20674
825.08	615.5636	21508.75	20689.9
825.2246	617.6873	21559.15	20740.65
825.3692	619.8103	21562.2	20742.55
825.5138	621.9327	21513.85	20691
825.6584	624.0544	21478.85	20659.95
825.803	626.1756	21449.8	20629.75
825.9477	628.2961	21403.9	20582.75
826.0923	630.4159	21337.1	20516.2
826.237	632.5351	21356.55	20532.9
826.3816	634.6537	21268.55	20446.5
826.5263	636.7716	21226.4	20401
826.6709	638.8889	21239.65	20414.9
826.8156	641.0056	21276.2	20451.55
826.9603	643.1216	21239.6	20414.1
827.105	645.237	21252.8	20424.7
827.2497	647.3518	21209.95	20384.1
827.3944	649.4659	21158.35	20333.35
827.5391	651.5793	21137.7	20309.35
827.6838	653.6922	21073.5	20249
827.8285	655.8043	21019.4	20191.2
827.9733	657.9159	21033.9	20207.85
828.118	660.0268	20984.05	20154.6
828.2627	662.137	20971.75	20144.5
828.4075	664.2466	20946.35	20115.7
828.5522	666.3556	20931.15	20098.35
828.697	668.4639	20828.5	19995.75
828.8418	670.5716	20880.65	20051.55
828.9865	672.6786	20850.55	20017.9
829.1313	674.785	20766.1	19934.65
829.2761	676.8907	20716.4	19884.45
829.4209	678.9958	20689.45	19859.8
829.5657	681.1002	20632.7	19799.3
829.7105	683.204	20635.8	19797.45
829.8553	685.3072	20604.8	19771.5
830.0001	687.4097	20542.4	19709.5
830.1449	689.5115	20520.05	19683.5
830.2898	691.6127	20533.7	19701.35
830.4346	693.7132	20443.35	19609.45
830.5794	695.8131	20462.95	19620.65
830.7243	697.9123	20476.75	19639.75
830.8691	700.0109	20451.05	19615.95
831.014	702.1089	20466.6	19632.6
831.1588	704.2061	20439	19602.75
831.3037	706.3028	20455.05	19617.4
831.4486	708.3987	20404.85	19567.95
831.5935	710.4941	20387.4	19552.3
831.7383	712.5887	20364.55	19526.45
831.8832	714.6827	20395.8	19553.85
832.0281	716.7761	20350.75	19513.1
832.173	718.8688	20293.6	19454.85
832.3179	720.9608	20250.55	19406.4
832.4628	723.0522	20281.9	19439.55
832.6077	725.1429	20241.4	19401.65
832.7527	727.233	20232	19390.95
832.8976	729.3224	20296.55	19452.1
833.0425	731.4112	20234.7	19393.05
833.1874	733.4993	20207.65	19366.65
833.3324	735.5867	20177.65	19335.8
833.4773	737.6735	20098.95	19255.95
833.6222	739.7596	20026.4	19184.05
833.7672	741.845	19957.75	19115.55
833.9122	743.9298	19939.7	19096.95
834.0571	746.014	19942.15	19098.6
834.2021	748.0974	19888.65	19045.7
834.347	750.1802	19823.7	18979.05
834.492	752.2624	19723.55	18877.85
834.637	754.3439	19690.75	18845.75
834.782	756.4247	19630.85	18777.85
834.9269	758.5048	19573.85	18730.8
835.0719	760.5843	19536.85	18691.2
835.2169	762.6631	19514.25	18668.7
835.3619	764.7413	19494	18651.5
835.5069	766.8188	19532.5	18686.5
835.6519	768.8956	19471.45	18623.85
835.7969	770.9718	19540.4	18695.6
835.9419	773.0473	19439.85	18593.1
836.0869	775.1221	19420.7	18575.65
836.232	777.1962	19357.8	18510.45
836.377	779.2697	19330.45	18481.85
836.522	781.3426	19351.05	18484.75
836.667	783.4147	19389.2	18539.4
836.8121	785.4862	19355.05	18509.95
836.9571	787.557	19283.55	18436.8
837.1021	789.6271	19147.2	18298
837.2472	791.6966	19051.95	18203.35
837.3922	793.7654	18946.55	18096.65
837.5373	795.8335	18904.35	18057.9
837.6823	797.901	18817.7	17970
837.8274	799.9678	18801.85	17952.85
837.9724	802.0339	18770.05	17927.35
838.1175	804.0993	18778.75	17920.5
838.2626	806.1641	18713.5	17861.35
838.4076	808.2282	18674	17824.05
838.5527	810.2916	18666.1	17814.75
838.6978	812.3544	18607.85	17758.4
838.8428	814.4164	18560.9	17710.3
838.9879	816.4778	18595.15	17744.05
839.133	818.5385	18563.8	17712.55
839.2781	820.5986	18558.15	17706.7
839.4232	822.658	18588.05	17736.65
839.5682	824.7166	18536.2	17685.85
839.7133	826.7747	18626.3	17776.3
839.8584	828.832	18589.35	17737.05
840.0035	830.8886	18538.8	17684.2
840.1486	832.9446	18565.35	17711.6
840.2937	834.9999	18523.55	17671.15
840.4388	837.0545	18474.55	17616.15
840.5839	839.1085	18385.45	17530.65
840.729	841.1618	18330.35	17475.4
840.8741	843.2143	18275.7	17421.7
841.0192	845.2662	18208.25	17354.15
841.1643	847.3175	18202.75	17349.9
841.3095	849.368	18099.2	17244.95
841.4546	851.4179	18101.35	17247.05
841.5997	853.467	18051.45	17197.45
841.7448	855.5155	18016.65	17159.55
841.8899	857.5633	18013.4	17158
842.0351	859.6105	17925.75	17070
842.1802	861.6569	17920.55	17063.45
842.3253	863.7027	17870.85	17015.7
842.4704	865.7478	17885.6	17030.65
842.6156	867.7922	17858.15	17003.8
842.7607	869.8359	17793.35	16935.7
842.9058	871.8789	17783.2	16926
843.0509	873.9212	17773.25	16888.15
843.1961	875.9629	17735.3	16879.8
843.3412	878.0039	17713.2	16857.35
843.4863	880.0441	17704.9	16848.35
843.6315	882.0837	17720.65	16863.4
843.7766	884.1226	17707.6	16849.9
843.9218	886.1609	17714.75	16856.35
844.0669	888.1984	17722	16866.3
844.212	890.2352	17778.85	16923.95
844.3572	892.2714	17736.7	16875.95
844.5023	894.3069	17707.05	16848.6
844.6475	896.3416	17615.2	16754.6
844.7926	898.3757	17600.95	16740.25
844.9377	900.4091	17551.5	16694
845.0829	902.4418	17537.6	16671.65
845.228	904.4739	17498.85	16636.45
845.3732	906.5052	17468.8	16607.5
845.5183	908.5358	17427.4	16569.85
845.6635	910.5658	17405.4	16546.45
845.8086	912.595	17343.75	16484.2
845.9538	914.6236	17288	16428
846.0989	916.6515	17260.8	16403.9
846.2441	918.6786	17223.45	16362.7
846.3892	920.7051	17186.85	16323.6
846.5344	922.7309	17223.35	16361.5
846.6795	924.756	17114.6	16255.25
846.8246	926.7804	17131.65	16267.8
846.9698	928.8041	17010.15	16147.2
847.1149	930.8272	17032.6	16174.2
847.2601	932.8495	16976.15	16112.3
847.4052	934.8711	16984.25	16123.15
847.5504	936.892	16900.9	16041.95
847.6955	938.9123	16847.55	15984.85
847.8407	940.9318	16832.25	15971.55
847.9858	942.9506	16776.85	15915.9
848.131	944.9688	16715.8	15854.55
848.2761	946.9862	16687.55	15825
848.4213	949.003	16590	15725.75
848.5664	951.019	16549.2	15686.65
848.7115	953.0344	16496.95	15634.9
848.8567	955.0491	16448.35	15584.45
849.0018	957.063	16455.6	15593.65
849.147	959.0763	16464.55	15601.7
849.2921	961.0888	16417.05	15553.8
849.4373	963.1007	16419.5	15555.55
849.5824	965.1119	16384.05	15521.4
849.7275	967.1223	16350.85	15487.25
849.8727	969.1321	16313.8	15449.95
850.0178	971.1412	16322.95	15460.95
850.1629	973.1495	16264.6	15401.65
850.3081	975.1572	16277.25	15367.7
850.4532	977.1641	16242.25	15377.3
850.5983	979.1704	16152.5	15286.45
850.7435	981.1759	16132.35	15264
850.8886	983.1808	16129.85	15262
851.0337	985.1849	16095.9	15222.35
851.1788	987.1884	16047.2	15179
851.324	989.1911	16015.85	15146.9
851.4691	991.1932	16003.15	15136.65
851.6142	993.1945	15926.3	15062.6
851.7593	995.1951	15848.25	14981.95
851.9045	997.1951	15852.95	14982.75
852.0496	999.1943	15747.55	14881.05
852.1947	1001.1928	15725.65	14860.2
852.3398	1003.1906	15646.55	14782.8
852.4849	1005.1877	15634.05	14766.05
852.63	1007.1841	15580.3	14717
852.7751	1009.1798	15560.1	14695.05
852.9202	1011.1748	15517.65	14654.8
853.0653	1013.1691	15467.4	14598.35
853.2104	1015.1627	15398.8	14533.8
853.3555	1017.1556	15300.55	14432.5
853.5006	1019.1477	15291.6	14424.7
853.6457	1021.1392	15182.1	14315.6
853.7908	1023.1299	15126.25	14260.9
853.9359	1025.12	15077	14208.55
854.081	1027.1093	15008.2	14146.35
854.2261	1029.0979	14942.4	14078.85
854.3712	1031.0859	14912.4	14047.5
854.5163	1033.0731	14946.3	14080.6
854.6613	1035.0596	14844.2	13978.55
854.8064	1037.0454	14787.2	13919.5
854.9515	1039.0304	14750.2	13881.95
855.0965	1041.0148	14653.15	13789.85
855.2416	1042.9985	14614.65	13745.45
855.3867	1044.9814	14601.8	13735.7
855.5317	1046.9636	14538.35	13667.95
855.6768	1048.9452	14519.2	13650.2
855.8219	1050.926	14478.15	13611.65
855.9669	1052.9061	14452.7	13586.4
856.112	1054.8855	14431.6	13562.75
856.257	1056.8642	14406.25	13539.15
856.4021	1058.8421	14387.5	13517.05
856.5471	1060.8194	14359.05	13488.55
856.6921	1062.7959	14307.3	13438.85
856.8372	1064.7717	14320.4	13450.7
856.9822	1066.7469	14270.2	13401.6
857.1272	1068.7213	14234.5	13362.7
857.2723	1070.695	14232.7	13363.75
857.4173	1072.6679	14215.05	13345.1
857.5623	1074.6402	14203.65	13334.85
857.7073	1076.6117	14192.05	13318.45
857.8523	1078.5826	14168.55	13299.8
857.9973	1080.5527	14114.35	13240.3
858.1423	1082.5221	14023.35	13152.5
858.2873	1084.4908	13978.8	13110.05
858.4323	1086.4587	13937.8	13070.1
858.5773	1088.426	13936.2	13067.55
858.7223	1090.3925	13855.15	12980.5
858.8673	1092.3584	13859.7	12989.85
859.0123	1094.3235	13793.45	12925
859.1573	1096.2879	13800.5	12930.15
859.3022	1098.2515	13789.85	12920.8
859.4472	1100.2145	13808.1	12940.1
859.5922	1102.1767	13779.5	12906.65
859.7371	1104.1382	13776.5	12905
859.8821	1106.099	13756.5	12883.25
860.027	1108.0591	13730.9	12863.4
860.172	1110.0185	13725.55	12853.85
860.3169	1111.9771	13748.2	12880.05
860.4619	1113.9351	13722.2	12851.15
860.6068	1115.8923	13723	12854.9
860.7517	1117.8488	13718.5	12846.65
860.8967	1119.8045	13607.25	12736.6
861.0416	1121.7596	13567.1	12698.2
861.1865	1123.7139	13465	12595.4
861.3314	1125.6675	13408.3	12535.4
861.4763	1127.6204	13403.35	12534.2
861.6212	1129.5726	13386.85	12512.9
861.7661	1131.524	13364.1	12494.05
861.911	1133.4748	13342.25	12471.65
862.0559	1135.4248	13242.05	12370.4
862.2008	1137.3741	13177.65	12306.3
862.3457	1139.3226	13150.05	12277.25
862.4905	1141.2705	13188.35	12317.55
862.6354	1143.2176	13092.45	12216.65
862.7803	1145.164	13090.7	12218.2
862.9251	1147.1097	13042.4	12170
863.07	1149.0546	13026.8	12153
863.2148	1150.9989	12973.1	12100.05
863.3597	1152.9424	12980.35	12109.8
863.5045	1154.8852	12954	12081.5
863.6493	1156.8272	12935.5	12063.35
863.7942	1158.7686	12948.4	12069.6
863.939	1160.7092	12896.55	12024.85
864.0838	1162.6491	12822.1	11945.45
864.2286	1164.5883	12841.55	11969.65
864.3734	1166.5267	12821.25	11948.75
864.5182	1168.4644	12825.15	11952.9
864.663	1170.4014	12834.8	11959.25
864.8078	1172.3377	12876.4	12004.9
864.9526	1174.2732	12871.05	11995.95
865.0974	1176.2081	12897.15	12026.1
865.2421	1178.1421	12955.3	12079.75
865.3869	1180.0755	13020.3	12149.4
865.5317	1182.0082	13001.55	12130.15
865.6764	1183.9401	12955.1	12079.3
865.8212	1185.8713	12869.25	11999.7
865.9659	1187.8017	12782.2	11908.75
866.1106	1189.7315	12714.8	11844.6
866.2554	1191.6605	12573.95	11700.35
866.4001	1193.5888	12525.5	11652.05
866.5448	1195.5163	12476.25	11605.3
866.6895	1197.4432	12399.25	11525.45
866.8342	1199.3693	12383.65	11511.15
866.9789	1201.2947	12308.5	11433.2
867.1236	1203.2193	12264.65	11390.2
867.2683	1205.1432	12236	11363.3
867.413	1207.0664	12197	11324
867.5576	1208.9889	12187.8	11312.1
867.7023	1210.9106	12159.6	11287.05
867.847	1212.8316	12093.45	11221.3
867.9916	1214.7519	12091.5	11207.8
868.1363	1216.6715	12059.3	11185.1
868.2809	1218.5903	12060.3	11187.25
868.4255	1220.5084	12050.75	11177.55
868.5701	1222.4257	12036.3	11161.75
868.7148	1224.3424	11993.35	11121.3
868.8594	1226.2583	11991.3	11112.95
869.004	1228.1735	11966.25	11092.65
869.1486	1230.0879	11936.15	11061.35
869.2932	1232.0016	11905.45	11030.8
869.4377	1233.9146	11922.9	11047.65
869.5823	1235.8269	11905.5	11030.45
869.7269	1237.7384	11912.35	11038.95
869.8715	1239.6492	11849.55	10976.2
870.016	1241.5592	11865.9	10991.5
870.1606	1243.4686	11845.95	10973.45
870.3051	1245.3772	11879.5	11006.6
870.4496	1247.285	11913.05	11037.85
870.5941	1249.1922	11925.15	11052.8
870.7387	1251.0986	11961.45	11087.2
870.8832	1253.0042	11947.55	11075.15
871.0277	1254.9092	12008.35	11133.1
871.1722	1256.8134	12030.55	11155.65
871.3167	1258.7169	12101.6	11225.55
871.4611	1260.6196	12082.65	11209.35
871.6056	1262.5216	12106.9	11231.85
871.7501	1264.4229	12037.05	11162.55
871.8945	1266.3234	12029.1	11153.7
872.039	1268.2232	11978.95	11104.45
872.1834	1270.1223	11930.75	11052.75
872.3278	1272.0207	11859.15	10984.1
872.4723	1273.9183	11860.05	10978.1
872.6167	1275.8151	11832.8	10957.9
872.7611	1277.7113	11815.2	10941.6
872.9055	1279.6067	11850.8	10976.75
873.0499	1281.5014	11921.6	11045.45
873.1943	1283.3953	12039.8	11163.35
873.3386	1285.2885	12154.75	11281.35
873.483	1287.181	12218.1	11343.25
873.6274	1289.0727	12256.3	11381.4
873.7717	1290.9637	12198.85	11324.25
873.9161	1292.854	12170.35	11294.55
874.0604	1294.7435	12080.05	11205.25
874.2047	1296.6323	11999.55	11122.2
874.349	1298.5204	11913.2	11033.85
874.4933	1300.4077	11838	10961.45
874.6376	1302.2943	11787	10911.95
874.7819	1304.1802	11757.05	10881
874.9262	1306.0653	11709	10833.9
875.0705	1307.9497	11703.85	10827.15
875.2147	1309.8333	11657.4	10781.95
875.359	1311.7162	11648.35	10771.7
875.5032	1313.5984	11596	10715.5
875.6475	1315.4798	11562.4	10675.7
875.7917	1317.3605	11545.3	10652.1
875.9359	1319.2405	11537.15	10658.05
876.0801	1321.1197	11480.8	10602.2
876.2243	1322.9982	11445.75	10562.05
876.3685	1324.876	11416.2	10540.6
876.5127	1326.753	11326.45	10449.95
876.6569	1328.6293	11267.1	10389.15
876.801	1330.5048	11196.15	10317.55
876.9452	1332.3796	11124	10248.5
877.0893	1334.2537	11115.3	10214.2
877.2335	1336.127	11040.45	10165.35
877.3776	1337.9996	10993.8	10117.3
877.5217	1339.8714	10978.95	10104.65
877.6658	1341.7426	10968.65	10050.15
877.8099	1343.6129	10922.35	10048.25
877.954	1345.4826	10865.45	9987.75
878.0981	1347.3515	10875.6	9997.75
878.2422	1349.2196	10823.55	9947.1
878.3862	1351.087	10815.5	9938.75
878.5303	1352.9537	10816.05	9940.15
878.6743	1354.8197	10810.6	9935.2
878.8184	1356.6849	10809.25	9931.15
878.9624	1358.5493	10779.45	9904.35
879.1064	1360.4131	10798	9921.1
879.2504	1362.276	10770.8	9893.55
879.3944	1364.1383	10761.45	9884.3
879.5384	1365.9998	10759.35	9876.45
879.6823	1367.8606	10720.15	9843.7
879.8263	1369.7206	10697.5	9819.6
879.9702	1371.5799	10690.45	9811.35
880.1142	1373.4384	10676.95	9799.25
880.2581	1375.2962	10654.55	9776.8
880.402	1377.1533	10557.9	9681.65
880.5459	1379.0096	10490.9	9613.1
880.6898	1380.8652	10453.65	9577.5
880.8337	1382.7201	10393.75	9517.2
880.9776	1384.5742	10320.65	9445.15
881.1215	1386.4275	10301.15	9422.4
881.2653	1388.2802	10236.15	9359.7
881.4092	1390.132	10198.95	9322.4
881.553	1391.9832	10213.4	9336.15
881.6968	1393.8336	10151.9	9273.65
881.8406	1395.6832	10115.75	9237.65
881.9844	1397.5322	10047.3	9169.5
882.1282	1399.3803	10017.2	9135.45
882.272	1401.2278	9992.7	9114.7
882.4158	1403.0745	9971.9	9094.15
882.5595	1404.9204	9935.9	9060.35
882.7033	1406.7656	9902.15	9024.2
882.847	1408.6101	9854.25	8977.55
882.9908	1410.4538	9831.65	8954.7
883.1345	1412.2968	9791.55	8914.8
883.2782	1414.139	9781.15	8904.35
883.4219	1415.9805	9775.45	8898.75
883.5656	1417.8213	9758.95	8858.9
883.7092	1419.6613	9715.35	8839.9
883.8529	1421.5006	9715.85	8837.45
883.9965	1423.3391	9716.05	8837.3
884.1402	1425.1769	9694.3	8815.55
884.2838	1427.0139	9736.25	8857.15
884.4274	1428.8502	9786.55	8907.75
884.571	1430.6858	9797.25	8919.55
884.7146	1432.5206	9759.65	8881
884.8582	1434.3547	9775.15	8898.6
885.0018	1436.188	9741.05	8863.5
885.1453	1438.0206	9735.35	8858.05
885.2889	1439.8524	9676.25	8796.65
885.4324	1441.6835	9693.1	8817
885.5759	1443.5139	9659.85	8779.1
885.7194	1445.3435	9665.3	8787.55
885.8629	1447.1724	9642.8	8764.1
886.0064	1449.0005	9630.7	8752.45
886.1499	1450.8279	9590.9	8713.75
886.2933	1452.6545	9586	8710.9
886.4368	1454.4804	9590.75	8713.75
886.5802	1456.3056	9566.2	8679.5
886.7237	1458.13	9547.05	8671.45
886.8671	1459.9536	9510.9	8631.45
887.0105	1461.7766	9463.1	8586.4
887.1539	1463.5987	9426	8547.25
887.2972	1465.4202	9371.4	8494.25
887.4406	1467.2409	9296.3	8416.45
887.584	1469.0608	9306.8	8430.55
887.7273	1470.88	9284.1	8405.5
887.8706	1472.6984	9249.6	8371.9
888.0139	1474.5161	9184.45	8306.1
888.1572	1476.3331	9162.25	8285.15
888.3005	1478.1493	9134.5	8256.7
888.4438	1479.9648	9134	8254.35
888.5871	1481.7795	9106.45	8228
888.7303	1483.5935	9091.75	8215.5
888.8736	1485.4067	9069.6	8191.6
889.0168	1487.2192	9069.15	8190.65
889.16	1489.031	9047.85	8171.35
889.3032	1490.842	9048.45	8170.95
889.4464	1492.6522	9038.8	8161.3
889.5896	1494.4618	8991.55	8113.1
889.7327	1496.2705	8963.9	8085.05
889.8759	1498.0785	8970	8091.15
890.019	1499.8858	8910.45	8032.6
890.1622	1501.6924	8894	8017
890.3053	1503.4981	8900.45	8021.65
890.4484	1505.3032	8883.3	8005.8
890.5914	1507.1075	8855.8	7977.25
890.7345	1508.911	8834.7	7957
890.8776	1510.7138	8831.8	7954.05
891.0206	1512.5159	8779	7899.9
891.1637	1514.3172	8749.5	7871.45
891.3067	1516.1178	8691.8	7814.3
891.4497	1517.9176	8683.95	7804.8
891.5927	1519.7166	8650.95	7772.8
891.7357	1521.515	8646.45	7764.9
891.8786	1523.3126	8600.9	7722.55
892.0216	1525.1094	8597.3	7717.6
892.1645	1526.9055	8566.3	7690.25
892.3074	1528.7008	8514	7636.8
892.4503	1530.4954	8475.35	7596.2
892.5932	1532.2893	8457.4	7581.45
892.7361	1534.0824	8424.75	7544
892.879	1535.8747	8406.9	7526
893.0218	1537.6663	8374.45	7495.7
893.1647	1539.4572	8342.1	7461.1
893.3075	1541.2473	8332.25	7451.95
893.4503	1543.0367	8291.55	7414.65
893.5931	1544.8253	8281.5	7400.6
893.7359	1546.6132	8268.8	7390.35
893.8787	1548.4003	8219.7	7330.8
894.0214	1550.1867	8210.3	7324.3
894.1642	1551.9723	8207.75	7323.05
894.3069	1553.7572	8197.5	7319.25
894.4496	1555.5414	8190.3	7312.15
894.5923	1557.3247	8167.55	7291.75
894.735	1559.1074	8148.75	7271
894.8777	1560.8893	8137.05	7260.4
895.0204	1562.6705	8151.55	7276.2
895.163	1564.4509	8143.55	7266
895.3056	1566.2305	8109.95	7234.1
895.4482	1568.0094	8149.6	7273.4
895.5908	1569.7876	8132.3	7255.1
895.7334	1571.565	8065.8	7189.85
895.876	1573.3417	8066.45	7189.55
896.0186	1575.1176	8073	7197.7
896.1611	1576.8928	8035.5	7158.25
896.3036	1578.6672	8008.15	7132.45
896.4461	1580.4409	8016.8	7140
896.5886	1582.2138	8014.85	7135.3
896.7311	1583.986	8010.6	7132.3
896.8736	1585.7575	8014	7137.75
897.0161	1587.5282	8024.2	7148.05
897.1585	1589.2981	8016.8	7140.8
897.3009	1591.0673	7995.25	7115.95
897.4433	1592.8358	7999.1	7121.35
897.5857	1594.6035	7980.15	7102.35
897.7281	1596.3704	7956.5	7079.05
897.8705	1598.1366	7902.7	7027.1
898.0128	1599.9021	7877.75	7000.55
898.1551	1601.6668	7823.35	6945.5
898.2975	1603.4308	7766.45	6889.05
898.4398	1605.194	7770.1	6887.65
898.5821	1606.9564	7747.75	6871.4
898.7243	1608.7182	7770.75	6888.05
898.8666	1610.4791	7814.7	6940.6
899.0088	1612.2394	7828.95	6952.1
899.1511	1613.9988	7882.3	7006.85
899.2933	1615.7576	7933.05	7058.5
899.4355	1617.5156	7932.25	7049.95
899.5776	1619.2728	7922.2	7048.1
899.7198	1621.0293	7859.35	6984.85
899.862	1622.785	7729.05	6849.4
900.0041	1624.54	7612.9	6733.5
900.1462	1626.2942	7530.6	6653.1
900.2883	1628.0477	7408.7	6528.5
900.4304	1629.8005	7353.7	6475.25
900.5725	1631.5525	7270.25	6393.9
900.7145	1633.3037	7214.05	6338
900.8566	1635.0542	7177.55	6300.05
900.9986	1636.804	7122.7	6247.85
901.1406	1638.553	7147.1	6189.1
901.2826	1640.3013	7055.4	6179.7
901.4245	1642.0488	7024	6146.15
901.5665	1643.7955	6959.8	6084.2
901.7085	1645.5416	6932.5	6054.45
901.8504	1647.2868	6939.55	6063.2
901.9923	1649.0313	6888.5	6012.3
902.1342	1650.7751	6867.65	5988.85
902.2761	1652.5181	6861	5985.15
902.4179	1654.2604	6834.65	5958.55
902.5598	1656.0019	6811.75	5936.3
902.7016	1657.7427	6804.1	5926.15
902.8434	1659.4828	6816.8	5939.5
902.9852	1661.222	6801.6	5922.65
903.127	1662.9606	6794.3	5918.4
903.2687	1664.6984	6823.15	5946.45
903.4105	1666.4354	6799.15	5921.4
903.5522	1668.1717	6769.35	5892.15
903.6939	1669.9072	6708.1	5830
903.8356	1671.642	6651.7	5771.8
903.9773	1673.3761	6626	5750.3
904.119	1675.1094	6562.85	5685.15
904.2606	1676.8419	6543.35	5665.15
904.4022	1678.5737	6498.2	5620.6
904.5439	1680.3048	6480.3	5601.9
904.6855	1682.0351	6430.65	5553.4
904.827	1683.7646	6403.45	5521.7
904.9686	1685.4934	6382.1	5506.4
905.1101	1687.2215	6346.25	5470.15
905.2517	1688.9488	6318.2	5440.1
905.3932	1690.6754	6266.25	5390.05
905.5347	1692.4012	6272.45	5395.3
905.6761	1694.1263	6257.7	5381.7
905.8176	1695.8506	6225.7	5348.95
905.9591	1697.5742	6220.95	5345.7
906.1005	1699.297	6185	5306.9
906.2419	1701.0191	6158.8	5280.85
906.3833	1702.7404	6123	5247.6
906.5246	1704.461	6107.3	5229.6
906.666	1706.1808	6092.7	5213.65
906.8073	1707.8999	6057.95	5180.75
906.9487	1709.6182	6062.5	5185.6
907.09	1711.3358	6037	5159.85
907.2313	1713.0527	6015.3	5139.65
907.3725	1714.7688	5986.15	5104.7
907.5138	1716.4841	5972.9	5095.2
907.655	1718.1987	5960.45	5078.2
907.7962	1719.9126	5945.7	5069.8
907.9374	1721.6257	5923.4	5043.6
908.0786	1723.338	5922.75	5044.4
908.2198	1725.0496	5878.55	5001.9
908.3609	1726.7605	5890.1	5012.7
908.502	1728.4706	5881.8	5002.85
908.6431	1730.18	5852.9	4973.7
908.7842	1731.8886	5835.95	4959.95
908.9253	1733.5964	5834.35	4938.3
909.0664	1735.3036	5818.8	4939
909.2074	1737.0099	5808.6	4932.9
909.3484	1738.7156	5802.15	4925.2
909.4894	1740.4204	5795.4	4914.35
909.6304	1742.1246	5791.25	4913.9
909.7714	1743.8279	5781.1	4903.85
909.9123	1745.5306	5776.95	4899.85
910.0532	1747.2325	5746.15	4870.05
910.1941	1748.9336	5729.4	4852.75
910.335	1750.634	5705.1	4826.5
910.4759	1752.3336	5709.25	4829.4
910.6168	1754.0325	5708.75	4833.45
910.7576	1755.7307	5712.35	4835.6
910.8984	1757.4281	5693.6	4817.55
911.0392	1759.1247	5698.1	4813.4
911.18	1760.8206	5676.15	4794.75
911.3208	1762.5158	5686.45	4805.35
911.4615	1764.2102	5646.5	4771.75
911.6022	1765.9039	5634.05	4756.75
911.7429	1767.5968	5635.75	4758.15
911.8836	1769.289	5634.9	4757.2
912.0243	1770.9804	5578.05	4698.55
912.1649	1772.6711	5598.4	4720.55
912.3056	1774.361	5596.2	4719.4
912.4462	1776.0502	5587.8	4711.6
912.5868	1777.7386	5577.85	4696.15
912.7274	1779.4263	5556.55	4682.05
912.8679	1781.1132	5541.4	4663.65
913.0084	1782.7994	5543.95	4666.05
913.149	1784.4849	5517.15	4641.6
913.2895	1786.1696	5540.35	4642.2
913.4299	1787.8535	5508.9	4632.95
913.5704	1789.5367	5503.45	4628.15
913.7108	1791.2192	5479.65	4602.85
913.8513	1792.9009	5451	4557.55
913.9917	1794.5818	5451.8	4573.6
914.132	1796.2621	5444.3	4566.9
914.2724	1797.9415	5444.65	4565.85
914.4128	1799.6202	5412.8	4535.1
914.5531	1801.2982	5401.55	4524.8
914.6934	1802.9755	5395.05	4517
914.8337	1804.6519	5396.05	4518.7
914.9739	1806.3277	5355.7	4479.25
915.1142	1808.0027	5352.2	4475.15
915.2544	1809.6769	5330.6	4456.1
915.3946	1811.3504	5322.35	4445.65
915.5348	1813.0231	5319.65	4441.4
915.675	1814.6951	5321.8	4444.7
915.8151	1816.3664	5306.45	4428.25
915.9553	1818.0369	5293.05	4415.75
916.0954	1819.7067	5280	4403.7
916.2355	1821.3757	5283.7	4404.55
916.3755	1823.044	5257	4379.5
916.5156	1824.7115	5246.1	4367.8
916.6556	1826.3783	5223.75	4345.7
916.7956	1828.0443	5198	4323.45
916.9356	1829.7096	5210.1	4332.2
917.0756	1831.3741	5210.5	4331.05
917.2155	1833.0379	5196.7	4319.35
917.3555	1834.701	5176.45	4295.3
917.4954	1836.3633	5176.95	4300.55
917.6353	1838.0248	5150.1	4270.15
917.7751	1839.6856	5157.25	4281.35
917.915	1841.3457	5143.7	4267.7
918.0548	1843.005	5137.6	4261.45
918.1946	1844.6636	5128.95	4251.9
918.3344	1846.3214	5132.15	4254.15
918.4742	1847.9785	5104.85	4229
918.6139	1849.6349	5099.25	4220.6
918.7537	1851.2904	5087.05	4198.65
918.8934	1852.9453	5088.5	4212.4
919.0331	1854.5994	5058.55	4178.25
919.1727	1856.2528	5068.95	4185.55
919.3124	1857.9054	5055.8	4178.4
919.452	1859.5572	5035.9	4158.4
919.5916	1861.2083	5027.8	4151.05
919.7312	1862.8587	5023.2	4146.85
919.8708	1864.5084	5018.55	4140.05
920.0103	1866.1572	5003.2	4127.7
920.1498	1867.8054	4988.05	4112.25
920.2893	1869.4528	4976.65	4100.3
920.4288	1871.0994	4966.3	4088.95
920.5683	1872.7453	4973.9	4095.75
920.7077	1874.3905	4970	4085.9
920.8471	1876.0349	4936.7	4058.1
920.9865	1877.6786	4938.45	4057.65
921.1259	1879.3215	4940.75	4065.1
921.2653	1880.9637	4921.6	4042.5
921.4046	1882.6051	4924.2	4046.95
921.5439	1884.2458	4905.45	4026
921.6832	1885.8858	4890.3	4012.6
921.8225	1887.525	4874.2	3995.4
921.9617	1889.1634	4869.3	3992.4
922.101	1890.8011	4848.45	3970.05
922.2402	1892.4381	4835.5	3959.95
922.3794	1894.0743	4848	3971.3
922.5185	1895.7098	4847.35	3970
922.6577	1897.3446	4826.1	3949.05
922.7968	1898.9786	4812.8	3932.6
922.9359	1900.6118	4799	3923.35
923.075	1902.2443	4798.9	3919.45
923.214	1903.8761	4775.25	3898.6
923.3531	1905.5071	4759.2	3881.65
923.4921	1907.1374	4749.6	3872.75
923.6311	1908.7669	4748.5	3871.1
923.77	1910.3957	4750.35	3873.85
923.909	1912.0237	4707.75	3829.7
924.0479	1913.651	4700.65	3821.1
924.1868	1915.2776	4707.25	3831.85
924.3257	1916.9034	4685.85	3809.3
924.4646	1918.5285	4694.35	3818.3
924.6034	1920.1528	4638.75	3762.45
924.7422	1921.7764	4638.95	3763.9
924.881	1923.3992	4633.85	3757.15
925.0198	1925.0213	4605.65	3730.25
925.1586	1926.6427	4606.85	3729.95
925.2973	1928.2633	4775.1	3681.25
925.436	1929.8832	4624.15	3744.25
925.5747	1931.5023	4548.8	3672.3
925.7134	1933.1207	4553.65	3676.4
925.852	1934.7383	4560.55	3682.3
925.9906	1936.3552	4536.05	3659.4
926.1292	1937.9714	4519.25	3641.1
926.2678	1939.5868	4520.15	3642.5
926.4064	1941.2015	4498.3	3621.55
926.5449	1942.8154	4496.25	3619.85
926.6834	1944.4286	4468.25	3591.4
926.8219	1946.041	4468.85	3570.85
926.9604	1947.6528	4449.85	3567.95
927.0988	1949.2637	4440.4	3564
927.2372	1950.8739	4431.85	3555.6
927.3756	1952.4834	4404.3	3527.5
927.514	1954.0921	4406.1	3526.45
927.6523	1955.7001	4391.1	3512.3
927.7907	1957.3074	4379.9	3504.3
927.929	1958.9139	4382.15	3506.15
928.0673	1960.5197	4376	3498.75
928.2055	1962.1247	4365.75	3487
928.3438	1963.729	4338.9	3463.95
928.482	1965.3325	4343.85	3442.75
928.6202	1966.9353	4325.05	3447.5
928.7584	1968.5374	4306.55	3427.35
928.8965	1970.1387	4297.55	3420.9
929.0346	1971.7393	4295.6	3417.1
929.1727	1973.3392	4292.7	3416.65
929.3108	1974.9383	4288.7	3413.25
929.4489	1976.5366	4260	3383.75
929.5869	1978.1342	4245.4	3370.15
929.7249	1979.7311	4249.95	3374.4
929.8629	1981.3273	4238.9	3362.1
930.0009	1982.9227	4243.25	3364.05
930.1388	1984.5173	4211.15	3334.45
930.2767	1986.1112	4194.6	3319.8
930.4146	1987.7044	4211.4	3338.35
930.5525	1989.2968	4194.95	3318.9
930.6904	1990.8885	4196.05	3316.3
930.8282	1992.4795	4186.4	3307.2
930.966	1994.0697	4167	3289.3
931.1038	1995.6592	4161.1	3286.3
931.2415	1997.2479	4145.1	3269.5
931.3793	1998.8359	4139.8	3263.55
931.517	2000.4232	4130.95	3254.2
931.6547	2002.0097	4131.65	3258.15
931.7923	2003.5955	4107.5	3230.95
931.93	2005.1805	4108.75	3230.65
932.0676	2006.7648	4099.5	3224.6
932.2052	2008.3484	4100.4	3224.05
932.3427	2009.9312	4093.65	3216.85
932.4803	2011.5133	4086.8	3210.75
932.6178	2013.0946	4079	3202.6
932.7553	2014.6752	4058.05	3184.3
932.8928	2016.2551	4053.3	3179.1
933.0302	2017.8342	4038.85	3164.6
933.1676	2019.4126	4036.05	3161.5
933.305	2020.9902	4020.25	3144.9
933.4424	2022.5672	4017.75	3140.5
933.5798	2024.1433	4009.1	3125.55
933.7171	2025.7188	3999.15	3123.65
933.8544	2027.2935	3997.65	3121.45
933.9917	2028.8674	3974.95	3100.65
934.129	2030.4406	3975.2	3099.7
934.2662	2032.0131	3960.3	3086.5
934.4034	2033.5849	3956.8	3074
934.5406	2035.1559	3943.05	3068.65
934.6778	2036.7261	3940.75	3066.7
934.8149	2038.2957	3945.6	3067.4
934.952	2039.8645	3924.25	3047.4
935.0891	2041.4325	3946.55	3066.6
935.2262	2042.9998	3916.75	3041.35
935.3632	2044.5664	3919.45	3042.8
935.5002	2046.1323	3898.15	3024.25
935.6372	2047.6974	3900.15	3024.9
935.7742	2049.2617	3902	3024.25
935.9111	2050.8254	3917.45	3020.5
936.048	2052.3883	3908.1	3032.85
936.1849	2053.9504	3903.4	3026.85
936.3218	2055.5118	3884.85	3007.1
936.4586	2057.0725	3865.4	2984.35
936.5955	2058.6325	3882.35	3005.35
936.7323	2060.1917	3860.45	2984.8
936.869	2061.7502	3852.1	2971.7
937.0058	2063.3079	3843.85	2969.9
937.1425	2064.8649	3845.35	2966.15
937.2792	2066.4212	3833.6	2955.8
937.4159	2067.9767	3823.3	2947.3
937.5525	2069.5315	3826.8	2950.6
937.6891	2071.0856	3805.6	2930.2
937.8257	2072.6389	3809	2931.05
937.9623	2074.1915	3771.5	2895.8
938.0989	2075.7433	3785.05	2909.55
938.2354	2077.2945	3774	2900.3
938.3719	2078.8448	3758.35	2882.7
938.5084	2080.3945	3751.8	2875.25
938.6448	2081.9434	3753.6	2877.7
938.7812	2083.4916	3740.55	2864.65
938.9176	2085.039	3732.75	2854.9
939.054	2086.5857	3752.05	2874.8
939.1903	2088.1317	3732.9	2856.8
939.3267	2089.677	3714.3	2837.85
939.463	2091.2215	3722.65	2847.95
939.5992	2092.7652	3712.65	2836.4
939.7355	2094.3083	3710.15	2835.3
939.8717	2095.8506	3698.1	2822.9
940.0079	2097.3921	3710.05	2833.25
940.1441	2098.933	3691.45	2814.35
940.2802	2100.4731	3700.2	2823.2
940.4163	2102.0124	3716.75	2825.35
940.5524	2103.5511	3682.75	2807.75
940.6885	2105.089	3684.3	2806.4
940.8245	2106.6261	3687.05	2810.55
940.9606	2108.1626	3666.55	2790.05
941.0965	2109.6983	3690.6	2788.5
941.2325	2111.2332	3663.8	2787.95
941.3684	2112.7675	3661.3	2784.65
941.5044	2114.301	3653.6	2776.9
941.6403	2115.8337	3665.6	2789.1
941.7761	2117.3657	3642.6	2768.15
941.912	2118.897	3643.7	2767.7
942.0478	2120.4276	3634.65	2752.95
942.1835	2121.9575	3619.35	2743.3
942.3193	2123.4866	3628.35	2748.45
942.455	2125.0149	3605.7	2727.65
942.5907	2126.5426	3598.85	2723.5
942.7264	2128.0695	3598.7	2718.85
942.8621	2129.5956	3596.6	2722.65
942.9977	2131.1211	3594.45	2713.65
943.1333	2132.6458	3583.85	2707.15
943.2689	2134.1698	3589.5	2712.9
943.4044	2135.693	3583.8	2704.55
943.54	2137.2155	3573.75	2695
943.6755	2138.7373	3552.8	2677.35
943.8109	2140.2584	3561.75	2685.75
943.9464	2141.7787	3553.05	2672.3
944.0818	2143.2983	3540.4	2666.55
944.2172	2144.8171	3532.15	2658.3
944.3526	2146.3353	3516.05	2637.45
944.4879	2147.8527	3499.45	2622.35
944.6232	2149.3693	3508.55	2632.5
944.7585	2150.8853	3494.05	2618.35
944.8938	2152.4005	3489.4	2614.15
945.029	2153.9149	3485.35	2609.2
945.1642	2155.4287	3484.55	2608.85
945.2994	2156.9417	3477.05	2600.15
945.4346	2158.454	3474.2	2595.7
945.5697	2159.9655	3474.95	2598.2
945.7048	2161.4764	3455.75	2578.3
945.8399	2162.9865	3459.6	2583.9
945.9749	2164.4958	3444.4	2567.85
946.1099	2166.0045	3437.4	2557.6
946.2449	2167.5124	3428.75	2553.3
946.3799	2169.0195	3427.3	2552.45
946.5148	2170.526	3438.8	2562.15
946.6498	2172.0317	3411.5	2535.8
946.7846	2173.5367	3415.35	2538.8
946.9195	2175.0409	3416.55	2541.95
947.0543	2176.5445	3416.25	2541.55
947.1891	2178.0473	3392.75	2517.3
947.3239	2179.5494	3383.15	2501.6
947.4587	2181.0507	3375.5	2499.95
947.5934	2182.5513	3374.3	2498.15
947.7281	2184.0512	3370.3	2493.4
947.8628	2185.5504	3346	2471.45
947.9974	2187.0488	3351.15	2476.3
948.132	2188.5465	3354.6	2478
948.2666	2190.0435	3333.6	2456.55
948.4012	2191.5397	3310.8	2436.75
948.5357	2193.0353	3319	2444.45
948.6702	2194.5301	3298.45	2419.75
948.8047	2196.0241	3299.05	2423
948.9392	2197.5175	3304.95	2429.5
949.0736	2199.0101	3292.8	2413.45
949.208	2200.502	3267.4	2391.85
949.3424	2201.9931	3276.75	2402.2
949.4767	2203.4835	3256.3	2379.05
949.611	2204.9733	3256.75	2374.85
949.7453	2206.4622	3256.25	2380.4
949.8796	2207.9505	3236.3	2356.8
950.0138	2209.438	3244.6	2370.9
950.148	2210.9248	3229.55	2353.9
950.2822	2212.4109	3194.9	2318.55
950.4164	2213.8962	3198.3	2320.1
950.5505	2215.3809	3219.5	2340.45
950.6846	2216.8648	3199.8	2322
950.8186	2218.3479	3198.6	2316.95
950.9527	2219.8304	3199.65	2321
951.0867	2221.3121	3177.65	2298.5
951.2207	2222.7931	3166.25	2287.9
951.3546	2224.2733	3159.25	2281.1
951.4886	2225.7529	3142.6	2265.9
951.6225	2227.2317	3137.2	2259.75
951.7563	2228.7098	3141.25	2265.6
951.8902	2230.1872	3120.1	2245.85
952.024	2231.6638	3135.2	2260.7
952.1578	2233.1397	3141.25	2258.4
952.2916	2234.6149	3114.85	2239.15
952.4253	2236.0894	3109.15	2234.8
952.559	2237.5632	3102.3	2216.25
952.6927	2239.0362	3102.35	2226.8
952.8263	2240.5085	3084.1	2206.15
952.9599	2241.9801	3080.2	2203.7
953.0935	2243.4509	3084.95	2208.7
953.2271	2244.921	3065.25	2185.85
953.3606	2246.3904	3054.95	2175.95
953.4941	2247.8591	3039.7	2166.45
953.6276	2249.3271	3038.85	2163.15
953.7611	2250.7943	3029.4	2154.15
953.8945	2252.2608	3026.35	2151.3
954.0279	2253.7266	3028.85	2152.6
954.1612	2255.1917	3013.75	2137.35
954.2946	2256.656	3006	2127.25
954.4279	2258.1197	2999.4	2123.85
954.5612	2259.5826	3001.5	2123.3
954.6944	2261.0447	2985.15	2107.4
954.8276	2262.5062	2974.55	2097.85
954.9608	2263.9669	2976.8	2099.55
955.094	2265.4269	2980.55	2104.5
955.2271	2266.8862	2970.6	2094.1
955.3602	2268.3448	2962.85	2085.35
955.4933	2269.8026	2952.45	2076.1
955.6264	2271.2598	2951.65	2076.25
955.7594	2272.7162	2944.35	2071.35
955.8924	2274.1719	2953.35	2077.1
956.0253	2275.6268	2929.2	2052.65
956.1583	2277.0811	2935.85	2060.15
956.2912	2278.5346	2915.45	2040.35
956.4241	2279.9874	2919.25	2043.95
956.5569	2281.4395	2912.05	2037.95
956.6897	2282.8908	2910.8	2028.55
956.8225	2284.3414	2904.1	2024.45
956.9553	2285.7914	2895.85	2022
957.088	2287.2406	2897.85	2021.35
957.2207	2288.689	2895.6	2019.6
957.3534	2290.1368	2887.4	2011.45
957.486	2291.5838	2871.05	1993
957.6186	2293.0302	2875.45	1997.05
957.7512	2294.4758	2857	1982.6
957.8838	2295.9206	2855.5	1977.05
958.0163	2297.3648	2840.75	1966.05
958.1488	2298.8082	2846.7	1967.85
958.2813	2300.251	2829.5	1953.25
958.4137	2301.693	2822.7	1942.95
958.5461	2303.1343	2833.45	1955.9
958.6785	2304.5748	2814.05	1939.6
958.8108	2306.0147	2814.65	1937.5
958.9432	2307.4538	2801.95	1922.85
959.0754	2308.8922	2794.55	1921
959.2077	2310.3299	2788.3	1912.75
959.3399	2311.7669	2785.9	1910.5
959.4721	2313.2031	2793.95	1918.2
959.6043	2314.6387	2779.65	1904.6
959.7365	2316.0735	2765.3	1888.85
959.8686	2317.5076	2762.85	1885
960.0006	2318.941	2763.6	1886.85
960.1327	2320.3737	2759.15	1882.15
960.2647	2321.8056	2766.05	1887.6
960.3967	2323.2369	2748.8	1870.85
960.5287	2324.6674	2733.3	1855
960.6606	2326.0972	2728.4	1849.55
960.7925	2327.5263	2729.6	1853.1
960.9244	2328.9547	2715.95	1840.45
961.0562	2330.3823	2708.95	1829.3
961.1881	2331.8092	2720.85	1842.55
961.3198	2333.2355	2702.75	1825.25
961.4516	2334.661	2689.35	1812.95
961.5833	2336.0858	2695.55	1819.6
961.715	2337.5098	2690.5	1815.85
961.8467	2338.9332	2681.25	1805.8
961.9783	2340.3558	2690.05	1810.85
962.1099	2341.7778	2668.95	1793.05
962.2415	2343.199	2656.95	1779.2
962.373	2344.6195	2654.35	1776.05
962.5045	2346.0393	2651.6	1776.05
962.636	2347.4583	2651.45	1774.4
962.7675	2348.8767	2636.35	1758.05
962.8989	2350.2943	2646.1	1770.25
963.0303	2351.7113	2626.8	1747.6
963.1617	2353.1275	2625.9	1749.7
963.293	2354.543	2618.95	1735.05
963.4243	2355.9578	2625.65	1748.3
963.5556	2357.3718	2586.65	1712.5
963.6868	2358.7852	2603.1	1722.3
963.818	2360.1978	2593.5	1717.75
963.9492	2361.6098	2588.45	1711.85
964.0803	2363.021	2569.2	1688.9
964.2114	2364.4315	2583.35	1708.75
964.3425	2365.8413	2575.7	1691.85
964.4736	2367.2504	2559.05	1683.85
964.6046	2368.6587	2543.8	1668.45
964.7356	2370.0664	2548.1	1671.25
964.8666	2371.4733	2546.15	1668.75
964.9975	2372.8795	2537.85	1661.6
965.1284	2374.285	2531.3	1655.2
965.2593	2375.6899	2512.85	1635.3
965.3901	2377.0939	2518.25	1642
965.5209	2378.4973	2512.2	1636.5
965.6517	2379.9	2502.95	1626.35
965.7825	2381.3019	2492.2	1614.7
965.9132	2382.7032	2491.75	1615.85
966.0439	2384.1037	2494.15	1618.8
966.1745	2385.5035	2479	1602.8
966.3051	2386.9027	2464.8	1587.15
966.4357	2388.3011	2465.2	1587.6
966.5663	2389.6987	2465.75	1589.4
966.6968	2391.0957	2462.4	1586.45
966.8273	2392.492	2452.7	1575.45
966.9578	2393.8876	2440.65	1566.2
967.0882	2395.2824	2434.25	1559.55
967.2186	2396.6765	2415.2	1540.9
967.349	2398.07	2418.8	1543.55
967.4793	2399.4627	2408.35	1530.85
967.6097	2400.8547	2412.4	1534.15
967.7399	2402.246	2411.5	1528
967.8702	2403.6366	2397.5	1519.8
968.0004	2405.0265	2384.45	1506.6
968.1306	2406.4156	2380.6	1498.85
968.2607	2407.8041	2382.75	1502.5
968.3909	2409.1918	2375.05	1495.6
968.521	2410.5789	2360.85	1483.5
968.651	2411.9652	2358.3	1480.5
968.781	2413.3508	2347.9	1471.75
968.911	2414.7358	2343.4	1464.15
969.041	2416.12	2327.5	1452.3
969.1709	2417.5035	2333.6	1456.7
969.3008	2418.8863	2319.55	1441.45
969.4307	2420.2684	2319.95	1442.25
969.5606	2421.6497	2308.8	1430.75
969.6904	2423.0304	2306.75	1432.8
969.8201	2424.4104	2301	1423.15
969.9499	2425.7896	2294.5	1416.3
970.0796	2427.1682	2290.7	1412.45
970.2093	2428.546	2293	1413.45
970.3389	2429.9232	2288.55	1410.4
970.4685	2431.2996	2286.7	1410.15
970.5981	2432.6753	2283.85	1406.9
970.7277	2434.0503	2273.55	1394.65
970.8572	2435.4246	2266.85	1389.55
970.9867	2436.7982	2267.8	1391
971.1161	2438.1711	2260.5	1383.75
971.2456	2439.5433	2263.1	1384.9
971.375	2440.9148	2256.6	1374.2
971.5043	2442.2856	2246.75	1371.65
971.6336	2443.6557	2246.6	1367.7
971.7629	2445.025	2227.45	1350.3
971.8922	2446.3937	2222.5	1344.5
972.0214	2447.7617	2220.15	1343.55
972.1506	2449.1289	2215.5	1338.65
972.2798	2450.4955	2225.25	1345.5
972.4089	2451.8613	2220.15	1343.7
972.538	2453.2265	2209.6	1333.6
972.6671	2454.5909	2207.1	1330.35
972.7961	2455.9546	2202.9	1327.35
972.9251	2457.3177	2207.35	1332.15
973.0541	2458.68	2198.95	1321.05
973.1831	2460.0416	2186.7	1309.7
973.312	2461.4025	2191	1312.1
973.4408	2462.7627	2193.65	1305.15
973.5697	2464.1222	2184.85	1309.7
973.6985	2465.4811	2171.15	1293.4
973.8273	2466.8392	2174.85	1296.2
973.956	2468.1966	2168.3	1288.75
974.0847	2469.5533	2168.9	1291.6
974.2134	2470.9093	2159.85	1283.45
974.3421	2472.2645	2147.85	1270.3
974.4707	2473.6191	2152.1	1276
974.5993	2474.973	2139.1	1262.5
974.7278	2476.3262	2134.4	1256.9
974.8563	2477.6787	2135.1	1258.95
974.9848	2479.0305	2134.4	1257.8
975.1132	2480.3816	2130.25	1252.8
975.2417	2481.7319	2115.35	1240.15
975.37	2483.0816	2110.7	1231.85
975.4984	2484.4306	2113.05	1236.15
975.6267	2485.7789	2105.3	1229.35
975.755	2487.1264	2103.85	1224.95
975.8833	2488.4733	2097.3	1220.4
976.0115	2489.8195	2101.7	1218.4
976.1397	2491.165	2088.55	1207.25
976.2678	2492.5097	2080.2	1202.1
976.3959	2493.8538	2068.75	1193.4
976.524	2495.1972	2072.55	1195.65
976.6521	2496.5398	2064.45	1184.95
976.7801	2497.8818	2062.85	1184.6
976.9081	2499.2231	2057.3	1180.6
977.036	2500.5637	2062.2	1182.65
977.164	2501.9035	2053.75	1175
977.2918	2503.2427	2050.4	1169.45
977.4197	2504.5812	2045.85	1169.55
977.5475	2505.919	2037.85	1160.9
977.6753	2507.256	2036.15	1160.9
977.8031	2508.5924	2024.6	1146.7
977.9308	2509.9281	2042.95	1159.95
978.0585	2511.2631	2027.05	1151.3
978.1861	2512.5974	2018.95	1142.65
978.3137	2513.9309	2012.95	1135.15
978.4413	2515.2638	2036.5	1132.4
978.5689	2516.596	2024	1149.35
978.6964	2517.9275	1997.15	1117.45
978.8239	2519.2583	1996.5	1120.05
978.9513	2520.5884	1992.3	1113.15
979.0788	2521.9178	1987.15	1111.1
979.2062	2523.2465	1992.1	1116.6
979.3335	2524.5745	1977.95	1101.15
979.4608	2525.9018	1974.95	1099.5
979.5881	2527.2284	1974.95	1098.55
979.7154	2528.5543	1965.2	1087.95
979.8426	2529.8796	1962.7	1085.65
979.9698	2531.2041	1959.55	1081.75
980.0969	2532.5279	1970.1	1095.65
980.224	2533.851	1962.15	1087.3
980.3511	2535.1735	1950.4	1076.2
980.4781	2536.4952	1947.8	1071
980.6052	2537.8163	1942.1	1065.3
980.7321	2539.1366	1934.3	1058.65
980.8591	2540.4562	1930.65	1050.65
980.986	2541.7752	1941.2	1065.75
981.1129	2543.0935	1933.75	1057.6
981.2397	2544.411	1927.2	1049.2
981.3665	2545.7279	1932.2	1055.75
981.4933	2547.0441	1922.65	1044.55
981.62	2548.3596	1922.9	1043.5
981.7467	2549.6744	1925.85	1048.85
981.8734	2550.9885	1927.15	1041.45
982.0001	2552.3019	1914.9	1038.9
982.1267	2553.6146	1906.95	1030.65
982.2532	2554.9266	1899.25	1021.55
982.3798	2556.2379	1900.65	1023.55
982.5063	2557.5485	1895.05	1020.3
982.6327	2558.8585	1897.5	1012.6
982.7592	2560.1677	1903.8	1024.85
982.8856	2561.4762	1892.85	1017.75
983.0119	2562.7841	1888.3	1006.55
983.1383	2564.0913	1891.5	1015.4
983.2646	2565.3977	1878.55	1001.85
983.3908	2566.7035	1877.65	1000.15
983.517	2568.0086	1876.95	997.7
983.6432	2569.313	1874.35	997.1
983.7694	2570.6167	1875.45	993.85
983.8955	2571.9197	1871.75	996.4
984.0216	2573.222	1870.3	991.1
984.1476	2574.5236	1864.75	987.75
984.2737	2575.8246	1853.85	974.2
984.3996	2577.1248	1859.4	979.8
984.5256	2578.4244	1855.05	978.45
984.6515	2579.7232	1856.65	981.2
984.7774	2581.0214	1871.9	969.4
984.9032	2582.3189	1848.2	973.35
985.029	2583.6157	1840.95	960.15
985.1548	2584.9118	1835.75	958.25
985.2806	2586.2072	1836.1	959.2
985.4063	2587.5019	1828.05	951.2
985.5319	2588.7959	1830.35	954.75
985.6576	2590.0893	1833	955.25
985.7832	2591.3819	1828.8	953.3
985.9087	2592.6739	1824.6	948.65
986.0343	2593.9652	1815.85	937.55
986.1597	2595.2557	1813.15	935.95
986.2852	2596.5456	1809.6	931.3
986.4106	2597.8348	1802.7	926
986.536	2599.1234	1800.5	924.65
986.6614	2600.4112	1790	913.85
986.7867	2601.6983	1795.3	913.6
986.912	2602.9848	1799.45	923.15
987.0372	2604.2705	1795.9	912.4
987.1624	2605.5556	1776.15	899.05
987.2876	2606.84	1769.75	895.65
987.4128	2608.1237	1774.3	896.35
987.5379	2609.4067	1765.55	889.1
987.6629	2610.689	1774.15	888.35
987.788	2611.9707	1765.7	885.85
987.913	2613.2516	1763.55	880.1
988.0379	2614.5319	1752.65	875.65
988.1629	2615.8115	1746	868.25
988.2878	2617.0903	1746.8	869.3
988.4126	2618.3685	1743.05	866.25
988.5375	2619.6461	1744.55	868.45
988.6622	2620.9229	1737.6	862.6
988.787	2622.199	1728.75	852.85
988.9117	2623.4745	1732.55	852.7
989.0364	2624.7493	1728.45	851.75
989.161	2626.0234	1714.95	839.1
989.2857	2627.2968	1714.65	837.3
989.4102	2628.5695	1717.2	840.5
989.5348	2629.8415	1711.25	835.15
989.6593	2631.1128	1708.65	831.3
989.7837	2632.3835	1710.3	833.75
989.9082	2633.6535	1698.75	822.4
990.0326	2634.9228	1698.4	823.2
990.1569	2636.1914	1688.65	812.1
990.2812	2637.4593	1698.9	815
990.4055	2638.7265	1695.85	818.5
990.5298	2639.9931	1687.2	811.05
990.654	2641.259	1684.25	806.6
990.7782	2642.5242	1684.2	805.35
990.9023	2643.7887	1669.3	791.2
991.0264	2645.0525	1670.4	794.75
991.1505	2646.3156	1673	795.85
991.2745	2647.5781	1665.85	790.95
991.3985	2648.8398	1661.1	787.45
991.5225	2650.1009	1671.25	786.3
991.6464	2651.3613	1657.1	781.8
991.7703	2652.6211	1655.4	779.7
991.8942	2653.8801	1648.35	771.85
992.018	2655.1385	1653.4	773.9
992.1418	2656.3961	1641.1	764.9
992.2655	2657.6531	1641.55	764.65
992.3892	2658.9094	1633	756.45
992.5129	2660.1651	1640.5	765.85
992.6366	2661.42	1633.85	758.4
992.7602	2662.6743	1632.6	756.95
992.8837	2663.9279	1624.1	747.75
993.0073	2665.1808	1622.4	745.75
993.1307	2666.433	1626.95	748.05
993.2542	2667.6846	1622.55	746.65
993.3776	2668.9354	1627.25	746.4
993.501	2670.1856	1618.9	741
993.6244	2671.4351	1618.35	741.85
993.7477	2672.6839	1610.45	735.15
993.8709	2673.9321	1614.15	738.45
993.9942	2675.1795	1608.05	732.85
994.1174	2676.4263	1600.25	724.45
994.2405	2677.6724	1605.5	731.55
994.3637	2678.9179	1603.75	727
994.4868	2680.1626	1596.9	720.05
994.6098	2681.4067	1590.1	714.05
994.7328	2682.6501	1596.65	720.6
994.8558	2683.8928	1590.1	714.95
994.9788	2685.1348	1587.5	711.45
995.1017	2686.3761	1581.75	704.6
995.2245	2687.6168	1592.25	715.85
995.3474	2688.8568	1577.35	701.25
995.4702	2690.0961	1573.3	696.75
995.5929	2691.3348	1572.55	695.4
995.7156	2692.5727	1562.85	687.7
995.8383	2693.81	1566.3	689.75
995.961	2695.0466	1568.35	692.95
996.0836	2696.2826	1562.75	686.85
996.2062	2697.5178	1570.2	673.3
996.3287	2698.7524	1552.3	676.4
996.4512	2699.9863	1557.7	678.7
996.5737	2701.2195	1551.5	676.65
996.6961	2702.452	1551	673.15
996.8185	2703.6839	1549.4	672.9
996.9408	2704.9151	1543.55	667.65
997.0631	2706.1456	1533.35	655.8
997.1854	2707.3755	1538.95	661.2
997.3077	2708.6046	1535.8	657.45
997.4299	2709.8331	1536.6	658.1
997.552	2711.0609	1536.6	661.45
997.6742	2712.2881	1524.55	647.25
997.7963	2713.5145	1530.45	653
997.9183	2714.7403	1524.7	647.7
998.0403	2715.9654	1518.5	641.1
998.1623	2717.1899	1532.6	641.4
998.2842	2718.4136	1522.9	646.25
998.4062	2719.6367	1514.75	640.2
998.528	2720.8591	1519.7	637.1
998.6498	2722.0809	1513.55	637.45
998.7716	2723.3019	1509.3	628.95
998.8934	2724.5223	1509.25	631.9
999.0151	2725.7421	1503.55	625
999.1368	2726.9611	1503.25	626.2
999.2584	2728.1795	1501.7	619.35
999.38	2729.3972	1492	615.85
999.5016	2730.6142	1506.9	619.1
999.6231	2731.8306	1488.95	610.9
999.7446	2733.0462	1486.2	607.85
999.8661	2734.2612	1489.1	608
999.9875	2735.4756	1489.6	611.6
1000.1089	2736.6892	1481.2	605
1000.2302	2737.9022	1467.15	591.7
1000.3515	2739.1145	1463.65	587.85
1000.4728	2740.3262	1473.65	588.6
1000.594	2741.5372	1461.65	586.6
1000.7152	2742.7475	1458.6	581.15
1000.8363	2743.9571	1455.15	576.15
1000.9575	2745.1661	1448.35	568.05
1001.0785	2746.3744	1452.7	573.05
1001.1996	2747.582	1451.55	576.05
1001.3206	2748.7889	1444.6	565.8
1001.4415	2749.9952	1443.9	569.45
1001.5625	2751.2008	1436.8	559.6
1001.6833	2752.4057	1445.45	565.7
1001.8042	2753.61	1439.5	561.45
1001.925	2754.8136	1440	564.05
1002.0458	2756.0165	1431.6	553.75
1002.1665	2757.2188	1431.7	556.45
1002.2872	2758.4204	1429.8	553.4
1002.4078	2759.6213	1427.5	549.3
1002.5285	2760.8215	1424.7	543.9
1002.649	2762.0211	1421.45	545.15
1002.7696	2763.22	1421.1	540.15
1002.8901	2764.4182	1413.95	536.55
1003.0106	2765.6158	1417.75	541.45
1003.131	2766.8127	1413.65	538.15
1003.2514	2768.009	1408.5	533.4
1003.3717	2769.2045	1408.45	530.1
1003.492	2770.3994	1404.35	525.4
1003.6123	2771.5936	1402.35	525.25
1003.7325	2772.7872	1396.25	519.55
1003.8527	2773.9801	1391.6	513.8
1003.9729	2775.1723	1402.75	507.75
1004.093	2776.3639	1392.75	519.4
1004.2131	2777.5548	1393.1	514.7
1004.3331	2778.745	1388.45	510.65
1004.4531	2779.9346	1391.6	517.2
1004.5731	2781.1235	1390.7	513.8
1004.693	2782.3117	1379.9	504
1004.8129	2783.4992	1380	504.7
1004.9328	2784.6861	1379.1	501.9
1005.0526	2785.8723	1378.45	502.7
1005.1723	2787.0579	1377.7	500.35
1005.2921	2788.2428	1369.1	490.35
1005.4118	2789.427	1362.55	486.45
1005.5314	2790.6106	1374.1	497.05
1005.651	2791.7935	1371.15	493
1005.7706	2792.9757	1359.2	484.05
1005.8902	2794.1573	1365.15	488.25
1006.0097	2795.3382	1356.15	482.15
1006.1291	2796.5184	1355.45	480.95
1006.2485	2797.698	1352.3	475.3
1006.3679	2798.8769	1352.4	475.6
1006.4873	2800.0551	1349.9	474.2
1006.6066	2801.2327	1350.15	470.2
1006.7258	2802.4096	1345	468.95
1006.8451	2803.5859	1344.4	468.65
1006.9642	2804.7615	1347.25	469.65
1007.0834	2805.9364	1341.85	465.8
1007.2025	2807.1106	1342.35	468.1
1007.3216	2808.2842	1341.15	465.6
1007.4406	2809.4572	1339.15	463
1007.5596	2810.6294	1338.3	459.35
1007.6785	2811.801	1336.95	462.25
1007.7975	2812.972	1336.1	460.85
1007.9163	2814.1423	1344.2	469
1008.0352	2815.3119	1336.9	460.9
1008.154	2816.4808	1333.75	458.8
1008.2727	2817.6491	1342.5	464.45
1008.3914	2818.8167	1339	465.35
1008.5101	2819.9837	1345.7	465.2
1008.6288	2821.15	1346.8	471.2
1008.7474	2822.3157	1348.75	473.85
1008.8659	2823.4807	1346.3	471.25
1008.9844	2824.645	1356	478.1
1009.1029	2825.8086	1363.05	486.2
1009.2214	2826.9716	1359.75	484.2
1009.3398	2828.134	1363.7	488.7
1009.4581	2829.2957	1367.85	492
1009.5764	2830.4567	1364.55	491.85
1009.6947	2831.617	1376.65	499.95
1009.813	2832.7767	1382.5	507.75
1009.9312	2833.9358	1364.7	490.2
1010.0493	2835.0941	1380.7	501.25
1010.1675	2836.2519	1374.9	500.25
1010.2855	2837.4089	1362.3	486.75
1010.4036	2838.5653	1362.75	488.25
1010.5216	2839.7211	1357.65	483.05
1010.6396	2840.8761	1354.25	475.55
1010.7575	2842.0306	1354.9	479.1
1010.8754	2843.1843	1353.7	478.55
1010.9932	2844.3374	1347.7	472.35
1011.111	2845.4899	1352.05	475.2
1011.2288	2846.6417	1355.15	479.15
1011.3465	2847.7928	1351.6	476
1011.4642	2848.9433	1351.95	474.8
1011.5818	2850.0931	1345.5	469.65
1011.6995	2851.2422	1353.35	475.15
1011.817	2852.3907	1340.45	463.55
1011.9345	2853.5385	1356.1	477.3
1012.052	2854.6857	1361.45	477.75
1012.1695	2855.8323	1350.1	476.05
1012.2869	2856.9781	1346.55	471.35
1012.4042	2858.1233	1358.8	482.2
1012.5216	2859.2679	1346.05	470
1012.6389	2860.4118	1355.1	478.45
1012.7561	2861.555	1360.1	479.95
1012.8733	2862.6976	1361.5	485.65
1012.9905	2863.8395	1351.6	476.4
1013.1076	2864.9808	1355.4	481.3
1013.2247	2866.1214	1352.05	476.05
1013.3417	2867.2614	1349.2	472.7
1013.4587	2868.4007	1349.3	473.2
1013.5757	2869.5393	1354.45	476.6
1013.6926	2870.6773	1362.35	485.65
1013.8095	2871.8146	1358.2	480.5
1013.9263	2872.9513	1355.3	477.3
1014.0431	2874.0874	1347.95	471.2
1014.1599	2875.2227	1353.75	478.2
1014.2766	2876.3574	1349.6	475.45
1014.3933	2877.4915	1351.9	475.4
1014.51	2878.6249	1354.7	480.6
1014.6266	2879.7577	1348.35	471.85
1014.7431	2880.8898	1358.95	472.95
1014.8596	2882.0212	1346.25	472.55
1014.9761	2883.152	1349.7	474.5
1015.0925	2884.2821	1347.9	472.4
1015.2089	2885.4116	1346.65	471.5
1015.3253	2886.5405	1348.1	471.85
1015.4416	2887.6686	1352.9	472.95
1015.5579	2888.7962	1353.75	479.95
1015.6741	2889.923	1344.7	467.7
1015.7903	2891.0493	1350.9	476.4
1015.9065	2892.1748	1346.7	470.6
1016.0226	2893.2997	1341.15	463.85
1016.1387	2894.424	1337.75	464.4
1016.2547	2895.5476	1338.3	463.9
1016.3707	2896.6706	1341.4	467.4
1016.4866	2897.7929	1330.4	453.3
1016.6025	2898.9145	1332.6	456.45
1016.7184	2900.0355	1333.55	457.5
1016.8342	2901.1559	1331.25	454.8
1016.95	2902.2756	1324.4	449.55
1017.0658	2903.3946	1324.05	450.85
1017.1815	2904.513	1328.3	448.7
1017.2971	2905.6308	1321	447.4
1017.4127	2906.7479	1317.15	440.5
1017.5283	2907.8643	1326.05	448.55
1017.6439	2908.9801	1322.15	445.7
1017.7594	2910.0953	1313.4	438.05
1017.8748	2911.2098	1319.6	440.2
1017.9902	2912.3236	1322	438.05
1018.1056	2913.4368	1317.45	438.9
1018.2209	2914.5494	1314.05	439.5
1018.3362	2915.6613	1318.25	436.05
1018.4515	2916.7725	1307.85	429.5
1018.5667	2917.8831	1301.1	423.3
1018.6819	2918.9931	1297.15	419.25
1018.797	2920.1024	1295.05	417.1
1018.9121	2921.211	1296.75	419.55
1019.0271	2922.319	1290.2	412.95
1019.1421	2923.4264	1283.5	407.3
1019.2571	2924.5331	1289.65	413.8
1019.372	2925.6391	1289.4	415.5
1019.4869	2926.7445	1286.95	412.85
1019.6017	2927.8493	1285.85	412.05
1019.7165	2928.9534	1283.45	407
1019.8313	2930.0569	1285.6	408.15
1019.946	2931.1597	1280.95	402.55
1020.0606	2932.2619	1284.9	409.4
1020.1753	2933.3634	1285.8	409.45
1020.2899	2934.4643	1289.65	407.85
1020.4044	2935.5645	1282.8	400.65
1020.5189	2936.6641	1285.6	406.4
1020.6334	2937.763	1274.4	398.2
1020.7478	2938.8613	1281.65	406.55
1020.8622	2939.959	1284.7	404.9
1020.9765	2941.056	1274.2	397.6
1021.0908	2942.1523	1270.55	391.95
1021.2051	2943.248	1257.45	380.5
1021.3193	2944.3431	1250.3	374.65
1021.4334	2945.4375	1247.75	373.6
1021.5476	2946.5313	1235.65	360.3
1021.6617	2947.6244	1225.1	348.95
1021.7757	2948.7169	1222.6	345.45
1021.8897	2949.8087	1218	343.45
1022.0037	2950.8999	1209.15	333.5
1022.1176	2951.9904	1208.05	330.6
1022.2315	2953.0803	1198.5	322.5
1022.3453	2954.1696	1190.4	314.2
1022.4591	2955.2582	1189.35	313.95
1022.5728	2956.3462	1191.85	317.75
1022.6865	2957.4335	1190.5	317
1022.8002	2958.5202	1187.4	309.15
1022.9138	2959.6062	1185.25	309.95
1023.0274	2960.6916	1184.25	308.95
1023.141	2961.7764	1186.85	311.3
1023.2545	2962.8605	1179.9	302.95
1023.3679	2963.9439	1175.75	301.05
1023.4813	2965.0267	1179.35	303.55
1023.5947	2966.1089	1200.95	301.85
1023.708	2967.1905	1175.35	300.15
1023.8213	2968.2714	1172.5	294.75
1023.9346	2969.3516	1169.8	296.05
1024.0478	2970.4312	1176.7	292
1024.1609	2971.5102	1171.05	294.4
1024.274	2972.5885	1163.65	287.7
1024.3871	2973.6662	1168.7	288.05
1024.5002	2974.7432	1165.35	289.35
1024.6132	2975.8196	1166.45	289.55
1024.7261	2976.8954	1166.7	292.15
1024.839	2977.9705	1163.85	289.55
1024.9519	2979.045	1163.1	288.95
1025.0647	2980.1188	1155.35	281.1
1025.1775	2981.192	1156.3	283.55
1025.2902	2982.2645	1156.55	279.05
1025.4029	2983.3364	1149.6	273.4
1025.5156	2984.4077	1143.9	268.15
1025.6282	2985.4783	1155.25	275.3
1025.7407	2986.5483	1147	272.3
1025.8532	2987.6177	1136.7	261.6
1025.9657	2988.6864	1137.85	262.15
1026.0782	2989.7545	1135.05	256.55
1026.1906	2990.8219	1131	254.7
1026.3029	2991.8887	1136.5	258.8
1026.4152	2992.9548	1130.4	254.05
1026.5275	2994.0204	1124.85	249.95
1026.6397	2995.0852	1122	246.05
1026.7519	2996.1495	1125.4	249.8
1026.864	2997.2131	1120.2	243.7
1026.9761	2998.276	1113.8	238.5
1027.0882	2999.3383	1115.9	239.8
1027.2002	3000.4	1116.75	240.6
1027.3122	3001.4611	1108.8	231.5
1027.4241	3002.5215	1101.4	226.1
1027.536	3003.5812	1104.3	230.35
1027.6478	3004.6404	1099.7	223
1027.7596	3005.6989	1097.8	220.65
1027.8714	3006.7567	1101	225.2
1027.9831	3007.8139	1117.55	220
1028.0947	3008.8705	1094.65	219.55
1028.2064	3009.9264	1099.1	221.85
1028.3179	3010.9818	1090	214.15
1028.4295	3012.0364	1093.8	216.15
1028.541	3013.0905	1093.4	217.65
1028.6524	3014.1439	1092	215
1028.7638	3015.1966	1088.55	214.45
1028.8752	3016.2487	1086.15	210.6
1028.9865	3017.3002	1092.65	211.1
1029.0978	3018.3511	1086.1	212.8
1029.209	3019.4013	1087.7	213.3
1029.3202	3020.4509	1083	208.35
1029.4314	3021.4998	1084.5	208.6
1029.5425	3022.5481	1082.5	207.5
1029.6535	3023.5958	1076.1	199.6
1029.7645	3024.6428	1082.35	205.05
1029.8755	3025.6892	1081.4	205.2
1029.9864	3026.735	1075.35	199.65
1030.0973	3027.7802	1080.35	206.45
1030.2082	3028.8247	1076.7	201.05
1030.319	3029.8685	1073.55	198.8
1030.4297	3030.9118	1074.75	199.6
1030.5404	3031.9544	1073.45	200
1030.6511	3032.9963	1075.25	201.2
1030.7617	3034.0376	1071.5	195.7
1030.8723	3035.0783	1073	195.8
1030.9829	3036.1184	1070.75	193.05
1031.0934	3037.1578	1071.7	197.9
1031.2038	3038.1966	1069.8	192.7
1031.3142	3039.2348	1065.35	191.3
1031.4246	3040.2723	1076.2	192.9
1031.5349	3041.3092	1064.6	191.3
1031.6452	3042.3455	1064.65	188.05
1031.7554	3043.3811	1068.5	192.55
1031.8656	3044.4161	1062.55	186.55
1031.9758	3045.4505	1063.2	189.75
1032.0859	3046.4842	1068.75	191.95
1032.1959	3047.5173	1063.25	188.9
1032.3059	3048.5498	1057.25	182.15
1032.4159	3049.5816	1062.7	187.65
1032.5258	3050.6128	1058.85	182.25
1032.6357	3051.6434	1064.55	187.55
1032.7455	3052.6734	1062.25	185.85
1032.8553	3053.7027	1061.15	187.3
1032.9651	3054.7314	1057.35	182.2
1033.0748	3055.7594	1053.4	179.85
1033.1845	3056.7868	1054.3	178
1033.2941	3057.8136	1057.2	181.35
1033.4037	3058.8398	1056.2	181.6
1033.5132	3059.8653	1053.45	178.5
1033.6227	3060.8902	1052.25	177.2
1033.7321	3061.9145	1055.2	181.3
1033.8415	3062.9381	1052.1	178.15
1033.9509	3063.9612	1068.15	178.9
1034.0602	3064.9835	1051.8	176.9
1034.1694	3066.0053	1053.1	177.75
1034.2787	3067.0264	1051.4	175.45
1034.3878	3068.0469	1048.7	173.45
1034.497	3069.0668	1053.5	174.45
1034.6061	3070.086	1044.65	170.75
1034.7151	3071.1046	1047.05	172.05
1034.8241	3072.1226	1049.95	174.25
1034.9331	3073.1399	1049.05	173.65
1035.042	3074.1567	1041.25	163.55
1035.1508	3075.1727	1047.35	168.8
1035.2597	3076.1882	1042.8	166.3
1035.3684	3077.203	1041.95	168.2
1035.4772	3078.2173	1045.2	168.6
1035.5859	3079.2308	1041.55	163.95
1035.6945	3080.2438	1038.5	161.85
1035.8031	3081.2561	1039.25	166.25
1035.9117	3082.2678	1038.2	162.85
1036.0202	3083.2789	1037.05	164.1
1036.1286	3084.2893	1034.2	160.35
1036.2371	3085.2991	1036.25	160.65
1036.3454	3086.3083	1037.35	158.25
1036.4538	3087.3169	1035.15	158.15
1036.562	3088.3248	1028.75	150.4
1036.6703	3089.3321	1033.9	157.55
1036.7785	3090.3388	1031.2	156.25
1036.8866	3091.3449	1032	157.2
1036.9948	3092.3503	1032.25	153.55
1037.1028	3093.3551	1028.2	154.65
1037.2108	3094.3593	1024.85	149.95
1037.3188	3095.3629	1028.15	155.25
1037.4267	3096.3658	1028.6	152.15
1037.5346	3097.3681	1021.05	145.3
1037.6425	3098.3698	1024.4	146.4
1037.7503	3099.3708	1027.9	144.3
1037.858	3100.3713	1022.2	148.55
1037.9657	3101.3711	1017.5	141.2
1038.0734	3102.3702	1155	146.35
1038.181	3103.3688	1024.45	146.5
1038.2886	3104.3667	1017.35	141.7
1038.3961	3105.364	1017.8	142.7
1038.5036	3106.3607	1017.1	141.8
1038.611	3107.3568	1013.9	137.55
1038.7184	3108.3522	1014.7	141.1
1038.8257	3109.347	1011.65	137.05
1038.933	3110.3412	1017.2	137.45
1039.0403	3111.3348	1014.7	139.35
1039.1475	3112.3277	1007.05	131.95
1039.2547	3113.32	1009.65	136.55
1039.3618	3114.3117	1007.6	131.65
1039.4689	3115.3028	1008.7	134.3
1039.5759	3116.2932	1010.1	132.45
1039.6829	3117.2831	1011.9	130.35
1039.7898	3118.2723	1010.85	136.15
1039.8967	3119.2608	1006.85	129.8
1040.0035	3120.2488	1003.35	125.25
1040.1103	3121.2361	1001.95	126.55
1040.2171	3122.2229	1003.95	128.8
1040.3238	3123.209	1001.6	123.6
1040.4305	3124.1944	1003	125.6
1040.5371	3125.1793	1003.5	125.85
1040.6437	3126.1635	998.4	123.25
1040.7502	3127.1471	1001.2	126.8
1040.8567	3128.1301	1001.5	126.85
1040.9631	3129.1125	996.7	122.25
1041.0695	3130.0942	997.25	121.3
1041.1759	3131.0753	1006.9	122.8
1041.2822	3132.0558	1003.7	124.4
1041.3884	3133.0357	997.65	123.35
1041.4946	3134.015	993.8	116.65
1041.6008	3134.9936	999.5	121.6
1041.7069	3135.9716	1015.05	119.15
1041.813	3136.949	991.45	118.4
1041.919	3137.9258	998.55	117.2
1042.025	3138.902	998	119.7
1042.1309	3139.8775	993.8	117.65
1042.2368	3140.8524	995.5	121.1
1042.3427	3141.8267	993.95	115.55
1042.4485	3142.8004	991.3	114.1
1042.5542	3143.7735	998.1	116.2
1042.6599	3144.7459	992.5	115.2
1042.7656	3145.7178	991.15	117.55
1042.8712	3146.689	987.05	113.1
1042.9768	3147.6596	989.05	113.15
1043.0823	3148.6295	987.5	112.55
1043.1878	3149.5989	984.8	110.1
1043.2932	3150.5676	982.4	109.6
1043.3986	3151.5357	983.45	108.3
1043.5039	3152.5032	985.65	110.6
1043.6092	3153.4701	982	105.75
1043.7145	3154.4364	987.1	108.6
1043.8197	3155.402	982.75	108.05
1043.9248	3156.367	981.35	104.9
1044.03	3157.3315	1021.6	105.65
1044.135	3158.2952	978.95	103.7
1044.24	3159.2584	983.4	108.05
1044.345	3160.221	981.9	107.25
1044.4499	3161.1829	979.1	102.75
1044.5548	3162.1442	980.85	106.3
1044.6596	3163.105	978.35	104.7
1044.7644	3164.065	977.35	102.75
1044.8692	3165.0245	981.8	105.95
1044.9739	3165.9834	974.45	101.75
1045.0785	3166.9416	979.2	103.25
1045.1831	3167.8993	977.95	104.1
1045.2877	3168.8563	974.5	97.55
1045.3922	3169.8127	975.15	98.65
1045.4966	3170.7684	975.8	100.1
1045.6011	3171.7236	975.05	99
1045.7054	3172.6782	974.4	98.75
1045.8098	3173.6321	974.35	99.3
1045.914	3174.5854	974.7	94.9
1046.0183	3175.5381	970.95	96.55
1046.1224	3176.4902	967.25	92.15
1046.2266	3177.4417	969.1	94.75
1046.3307	3178.3926	969.55	94.05
1046.4347	3179.3428	968.45	96.5
1046.5387	3180.2924	969.7	94.6
1046.6427	3181.2415	964.35	88.25
1046.7466	3182.1899	971.9	96
1046.8504	3183.1377	970.5	96.85
1046.9542	3184.0848	967.9	89.7
1047.058	3185.0314	965.75	91.3
1047.1617	3185.9773	965.55	91.5
1047.2654	3186.9227	965.85	90.6
1047.369	3187.8674	963.75	88.2
1047.4726	3188.8115	968.7	89
1047.5761	3189.755	965.15	92.05
1047.6796	3190.6979	960.95	85.95
1047.783	3191.6402	961.8	88.4
1047.8864	3192.5818	961.85	86.8
1047.9898	3193.5229	970.2	88.2
1048.0931	3194.4633	960.55	86.2
1048.1963	3195.4031	960.1	83.4
1048.2995	3196.3423	959.5	82.1
1048.4027	3197.2809	961.75	87.15
1048.5058	3198.2189	961.8	85.6
1048.6089	3199.1563	967.2	86.9
1048.7119	3200.0931	959.4	84.5
1048.8148	3201.0292	958	84.7
1048.9178	3201.9648	960.6	85.9
1049.0206	3202.8997	959.85	82.5
1049.1235	3203.834	958.05	83
1049.2262	3204.7677	955.2	78.95
1049.329	3205.7008	955.35	79.3
1049.4317	3206.6333	956.65	81.85
1049.5343	3207.5652	955.1	76.5
1049.6369	3208.4964	956.65	79.6
1049.7394	3209.4271	954.3	79.85
1049.8419	3210.3571	954.9	80.3
1049.9444	3211.2865	955.7	80.1
1050.0468	3212.2154	951.9	77.05
1050.1491	3213.1436	955.3	78.3
1050.2514	3214.0712	958.2	75.85
1050.3537	3214.9982	950.8	75.45
1050.4559	3215.9246	953.25	76.45
1050.5581	3216.8503	948.15	72.7
1050.6602	3217.7755	949.55	73.85
1050.7623	3218.7001	951.75	78.1
1050.8643	3219.624	955	78.9
1050.9663	3220.5473	950.25	76
1051.0682	3221.4701	950.65	76.4
1051.1701	3222.3922	949.4	73.8
1051.2719	3223.3137	945.85	71.9
1051.3737	3224.2346	948.15	73.95
1051.4754	3225.1549	946.25	73.85
1051.5771	3226.0746	945.05	69.7
1051.6788	3226.9937	947.7	71.05
1051.7804	3227.9121	946.35	71.4
1051.8819	3228.83	950.2	74.2
1051.9834	3229.7473	947.6	72.1
1052.0849	3230.6639	947.1	71.2
1052.1863	3231.5799	946.85	71
1052.2876	3232.4954	944.35	69.25
1052.3889	3233.4102	942.1	67.9
1052.4902	3234.3244	943.35	67.7
1052.5914	3235.238	945.9	70.75
1052.6926	3236.151	962.7	62.65
1052.7937	3237.0634	942.1	69.8
1052.8948	3237.9752	944.55	70.25
1052.9958	3238.8864	943.8	67.45
1053.0968	3239.797	941.65	66.1
1053.1977	3240.7069	943.95	68
1053.2986	3241.6163	944.05	66.55
1053.3994	3242.5251	940.85	66.8
1053.5002	3243.4332	940.55	65.6
1053.6009	3244.3408	939	62.25
1053.7016	3245.2477	935.6	60.25
1053.8022	3246.154	937.1	59.95
1053.9028	3247.0598	938.3	63
1054.0034	3247.9649	938.65	61.85
1054.1039	3248.8694	938	62.65
1054.2043	3249.7733	933.9	60.05
1054.3047	3250.6766	935.25	59.25
1054.4051	3251.5793	936.35	61.55
1054.5054	3252.4814	933.9	59.6
1054.6056	3253.3829	934.45	61.4
1054.7058	3254.2838	937.4	62.95
1054.806	3255.1841	934.6	60.2
1054.9061	3256.0838	934.25	58.95
1055.0061	3256.9829	933.3	59.25
1055.1062	3257.8814	935.25	57.7
1055.2061	3258.7792	935.15	56.5
1055.306	3259.6765	932.3	55.95
1055.4059	3260.5731	929.8	54.1
1055.5057	3261.4692	933.4	58.45
1055.6055	3262.3647	929.85	54.25
1055.7052	3263.2595	927.8	52.7
1055.8049	3264.1538	926.45	52.05
1055.9045	3265.0474	928.2	53.3
1056.0041	3265.9404	925.65	48.55
1056.1036	3266.8329	925.5	50.4
1056.2031	3267.7247	936.05	50.7
1056.3025	3268.616	927.3	52.45
1056.4019	3269.5066	923.9	48.75
1056.5013	3270.3966	924.05	45.65
1056.6005	3271.286	920.35	45.5
