Software Version:	3.9.2.0
Unit SN:	10000200
Spectrometer SN:	6960
Date:	3/6/2024 10:34:23 AM
Data Line Index:	25
Spectral Points:	2048
Integration time (ms):	125
Averages:	20
Delay (ms):	30
Sequence Number:	1
Processing:	dark subtract
Laser Power (mW):	305
Laser Current (mA):	824
Laser Diode Temp (C):	25.1
Laser Case Temp (C):	26.5
System Temp (C):	26.3
Spectrometer Temp (C):	23.8
CCD Temp (C):	-0.009
Secondary Temp (C):	20.004
Heatsink Temp (C):	21.99
CCDPCB Temp (C):	36.118
SecondaryPCB Temp (C):	31.071

Wavelength	RamanShift	Raw Counts	Dark Subtracted
787.061	30.1047	1141.25	728.6
787.2016	32.3739	1177.9	767.05
787.3422	34.6426	1222.25	811.25
787.4828	36.9109	1266.55	854.9
787.6235	39.1787	1325.9	908.65
787.7642	41.4461	1391.25	969.8
787.9049	43.7131	1451.3	1026.55
788.0456	45.9796	1510.95	1082.8
788.1863	48.2456	1585.35	1152.65
788.3271	50.5112	1657.85	1220.6
788.4679	52.7764	1725.45	1287
788.6087	55.0411	1804.45	1361.85
788.7496	57.3054	1896.95	1449.25
788.8904	59.5692	1983	1531.85
789.0313	61.8326	2082.4	1628.6
789.1722	64.0955	2175.75	1715.85
789.3132	66.3579	2314.05	1853.55
789.4541	68.6199	2471.3	2005.45
789.5951	70.8815	2730.95	2263.25
789.7361	73.1426	3255.5	2782.1
789.8771	75.4032	4628.4	4148.8
790.0181	77.6634	8126.4	7643.55
790.1592	79.9231	17449.8	16959.75
790.3003	82.1824	56536.05	56035.5
790.4414	84.4412	65535	65012.5
790.5825	86.6995	65535	64981.15
790.7237	88.9574	65535	64959.2
790.8648	91.2148	65535	64938.25
791.006	93.4717	65535	64921.7
791.1472	95.7282	65535	64922.3
791.2885	97.9842	65535	64912.5
791.4297	100.2398	65535	64913.9
791.571	102.4949	65535	64909.75
791.7123	104.7495	65535	64902.95
791.8536	107.0036	65535	64905.95
791.9949	109.2573	65535	64906.45
792.1363	111.5105	65535	64904.3
792.2777	113.7632	65535	64906.55
792.4191	116.0154	65535	64891.8
792.5605	118.2672	65535	64896.05
792.7019	120.5185	65535	64895.3
792.8434	122.7693	65535	64896.5
792.9849	125.0197	65535	64893.1
793.1264	127.2696	65535	64884.9
793.2679	129.519	65535	64880.55
793.4094	131.7679	65535	64881.1
793.551	134.0163	65535	64876.75
793.6926	136.2642	65535	64873
793.8342	138.5117	65535	64863.55
793.9758	140.7587	65535	64868.55
794.1175	143.0052	65535	64867.2
794.2591	145.2512	65535	64867.95
794.4008	147.4967	65535	64866.75
794.5425	149.7417	65535	64863.15
794.6842	151.9863	65535	64857.5
794.826	154.2304	65535	64857.8
794.9677	156.4739	65535	64848.7
795.1095	158.717	65535	64850.8
795.2513	160.9596	65535	64843.2
795.3931	163.2017	65535	64846.25
795.535	165.4433	65535	64844.7
795.6768	167.6844	65535	64843.7
795.8187	169.925	65535	64837.5
795.9606	172.1651	65535	64838.1
796.1025	174.4047	65535	64831.2
796.2445	176.6439	65535	64834.45
796.3864	178.8825	65535	64825.35
796.5284	181.1206	65535	64824.35
796.6704	183.3582	65535	64818.8
796.8124	185.5954	65535	64818.95
796.9544	187.832	65535	64816.45
797.0965	190.0681	65535	64815.3
797.2386	192.3037	65535	64805.55
797.3806	194.5388	65535	64807.7
797.5228	196.7734	65535	64805.35
797.6649	199.0075	65535	64800.8
797.807	201.2411	65535	64796.3
797.9492	203.4742	65535	64799.2
798.0914	205.7068	65535	64796.45
798.2336	207.9389	65535	64795.75
798.3758	210.1704	65535	64789.4
798.518	212.4015	65535	64792
798.6603	214.632	65535	64805.3
798.8025	216.862	65535	64813.6
798.9448	219.0915	65535	64815.35
799.0871	221.3205	65535	64812.6
799.2294	223.549	65535	64815.65
799.3718	225.777	65535	64815.5
799.5141	228.0044	65535	64812.55
799.6565	230.2314	65535	64811.7
799.7989	232.4578	65535	64805.8
799.9413	234.6837	65535	64800.15
800.0837	236.909	65535	64799.15
800.2262	239.1339	65535	64772.35
800.3687	241.3582	65535	64787
800.5111	243.582	65535	64754.55
800.6536	245.8053	65535	64770.5
800.7961	248.0281	65535	64778.4
800.9387	250.2503	65535	64772.35
801.0812	252.472	65535	64764.9
801.2238	254.6932	65535	64764.4
801.3664	256.9139	65535	64764.8
801.509	259.134	65535	64765.6
801.6516	261.3536	65535	64762.75
801.7942	263.5727	65535	64758.3
801.9369	265.7912	65535	64766.2
802.0795	268.0092	65535	64759.4
802.2222	270.2267	65535	64759
802.3649	272.4436	65535	64759.85
802.5076	274.6601	65535	64751.2
802.6504	276.8759	65535	64752.05
802.7931	279.0913	65535	64755.7
802.9359	281.3061	65535	64753.75
803.0787	283.5204	65535	64752.6
803.2215	285.7341	65535	64746.15
803.3643	287.9473	65535	64734.95
803.5071	290.16	65535	64741.3
803.6499	292.3721	65535	64747.2
803.7928	294.5837	65535	64744.9
803.9357	296.7947	65535	64747.95
804.0786	299.0052	65535	64747.4
804.2215	301.2152	65535	64745.25
804.3644	303.4246	65535	64748.5
804.5074	305.6334	65535	64746.35
804.6503	307.8418	65535	64740.75
804.7933	310.0495	65535	64743.15
804.9363	312.2568	65535	64742.55
805.0793	314.4635	65535	64737.45
805.2223	316.6696	65535	64737.75
805.3653	318.8752	65535	64728.75
805.5084	321.0802	65535	64738.9
805.6514	323.2847	65535	64737.6
805.7945	325.4887	65535	64734.15
805.9376	327.692	65535	64731.85
806.0807	329.8949	65535	64732.2
806.2238	332.0972	65535	64731.5
806.367	334.2989	65535	64727.3
806.5101	336.5001	65535	64727.95
806.6533	338.7007	65535	64728.8
806.7965	340.9008	65535	64725.4
806.9397	343.1003	65535	64722.45
807.0829	345.2992	65535	64723.95
807.2261	347.4976	65535	64721.35
807.3693	349.6955	65535	64717.65
807.5126	351.8927	65535	64718.15
807.6559	354.0895	65535	64708.05
807.7991	356.2856	65535	64718.75
807.9424	358.4812	65535	64717.05
808.0857	360.6763	65535	64714.7
808.2291	362.8707	65535	64710.85
808.3724	365.0646	65535	64710.4
808.5158	367.258	65535	64706.6
808.6591	369.4508	65535	64702.5
808.8025	371.643	65535	64706.9
808.9459	373.8346	65535	64701.5
809.0893	376.0257	65535	64695.9
809.2327	378.2162	65535	64698.8
809.3762	380.4062	65535	64700.1
809.5196	382.5956	65535	64697.95
809.6631	384.7844	65535	64703.2
809.8066	386.9726	65535	64705.35
809.9501	389.1603	65535	64707.25
810.0936	391.3474	65535	64661
810.2371	393.5339	65535	64703.6
810.3806	395.7199	65535	64710.15
810.5241	397.9052	65535	64707.65
810.6677	400.09	65535	64708.5
810.8113	402.2743	65535	64705.25
810.9548	404.4579	65535	64708.4
811.0984	406.641	65535	64704.95
811.2421	408.8235	65535	64703.9
811.3857	411.0054	65535	64702.6
811.5293	413.1868	65535	64699.9
811.673	415.3675	65535	64697.3
811.8166	417.5477	65535	64695.5
811.9603	419.7273	65535	64692.8
812.104	421.9064	65535	64685.6
812.2477	424.0848	65535	64691
812.3914	426.2627	65535	64690.3
812.5351	428.4399	65535	64689.25
812.6788	430.6166	65535	64689.15
812.8226	432.7928	65535	64686.2
812.9663	434.9683	65535	64685.35
813.1101	437.1432	65535	64685.3
813.2539	439.3176	65535	64685.75
813.3977	441.4914	65535	64683.75
813.5415	443.6645	65535	64684.55
813.6853	445.8371	65535	64682.7
813.8291	448.0091	65535	64683.2
813.973	450.1806	65535	64684.25
814.1168	452.3514	65535	64679.25
814.2607	454.5216	65535	64671.7
814.4046	456.6913	65535	64682.9
814.5485	458.8603	65535	64681.85
814.6924	461.0288	65535	64682.5
814.8363	463.1967	65535	64682.95
814.9802	465.3639	65535	64680.35
815.1241	467.5306	65535	64677.5
815.2681	469.6967	65535	64681.75
815.412	471.8622	65535	64682.45
815.556	474.0271	65535	64683.45
815.7	476.1914	65535	64677.3
815.844	478.3551	65535	64677.65
815.988	480.5182	65535	64674.8
816.132	482.6807	65535	64678.4
816.276	484.8426	65535	64679.4
816.4201	487.0039	65535	64678.8
816.5641	489.1647	65535	64677.95
816.7082	491.3248	65535	64674.7
816.8522	493.4843	65535	64675.75
816.9963	495.6432	65535	64679.6
817.1404	497.8015	65535	64671.65
817.2845	499.9592	65535	64676.1
817.4286	502.1163	65535	64671.25
817.5727	504.2728	65535	64672.1
817.7168	506.4287	65535	64677.35
817.861	508.5839	65535	64671.95
818.0051	510.7386	65535	64674.6
818.1493	512.8927	65535	64667.95
818.2935	515.0461	65535	64668.85
818.4377	517.199	65535	64667.55
818.5818	519.3512	65535	64671
818.726	521.5029	65535	64667.75
818.8703	523.6539	65535	64666.9
819.0145	525.8043	65535	64663.65
819.1587	527.9541	65535	64664.5
819.303	530.1033	65535	64664.1
819.4472	532.2519	65535	64666.95
819.5915	534.3999	65535	64660.85
819.7357	536.5472	65535	64663.55
819.88	538.694	65535	64665.25
820.0243	540.8401	65535	64663.85
820.1686	542.9856	65535	64659.25
820.3129	545.1305	65535	64660.5
820.4572	547.2748	65535	64659.2
820.6016	549.4185	65535	64657.75
820.7459	551.5615	65535	64662.1
820.8902	553.704	65535	64659.05
821.0346	555.8458	65535	64660.7
821.1789	557.987	65535	64662.45
821.3233	560.1276	65535	64659.45
821.4677	562.2675	65535	64659.5
821.6121	564.4069	65535	64661.15
821.7565	566.5456	65535	64658.7
821.9009	568.6837	65535	64657.45
822.0453	570.8212	65535	64662.8
822.1897	572.958	65535	64658.35
822.3342	575.0942	65535	64658.65
822.4786	577.2299	65535	64661.7
822.6231	579.3648	65535	64663
822.7675	581.4992	65535	64664.8
822.912	583.6329	65535	64665.2
823.0565	585.766	65535	64661.55
823.201	587.8985	65535	64664
823.3454	590.0304	65535	64632.2
823.4899	592.1616	65535	64655.75
823.6345	594.2922	65535	64656.55
823.779	596.4222	65535	64655.6
823.9235	598.5515	65535	64654.55
824.068	600.6802	65535	64655
824.2126	602.8083	65535	64657.7
824.3571	604.9358	65535	64654.95
824.5017	607.0626	65535	64650.7
824.6462	609.1888	65535	64650.1
824.7908	611.3144	65535	64653.5
824.9354	613.4393	65535	64653.2
825.08	615.5636	65535	64652
825.2246	617.6873	65535	64651.55
825.3692	619.8103	65535	64649.95
825.5138	621.9327	65535	64650.25
825.6584	624.0544	65535	64651.85
825.803	626.1756	65535	64652.2
825.9477	628.2961	65535	64652.5
826.0923	630.4159	65535	64649.5
826.237	632.5351	65535	64650.35
826.3816	634.6537	65535	64648.6
826.5263	636.7716	65535	64646.95
826.6709	638.8889	65535	64645.65
826.8156	641.0056	65535	64646.25
826.9603	643.1216	65535	64649.6
827.105	645.237	65535	64644.4
827.2497	647.3518	65535	64646.25
827.3944	649.4659	65535	64651.3
827.5391	651.5793	65535	64647.7
827.6838	653.6922	65535	64649.55
827.8285	655.8043	65535	64646.9
827.9733	657.9159	65535	64647.95
828.118	660.0268	65535	64643.55
828.2627	662.137	65535	64641.65
828.4075	664.2466	65535	64642.55
828.5522	666.3556	65535	64644.75
828.697	668.4639	65535	64643.65
828.8418	670.5716	65535	64645.5
828.9865	672.6786	65535	64642.65
829.1313	674.785	65535	64641.95
829.2761	676.8907	65535	64644.3
829.4209	678.9958	65535	64645.35
829.5657	681.1002	65535	64643.05
829.7105	683.204	65535	64640.55
829.8553	685.3072	65535	64640.7
830.0001	687.4097	65535	64638.7
830.1449	689.5115	65535	64640.7
830.2898	691.6127	65535	64642.55
830.4346	693.7132	65535	64643.05
830.5794	695.8131	65535	64633.1
830.7243	697.9123	65535	64640.5
830.8691	700.0109	65535	64639.15
831.014	702.1089	65535	64640.5
831.1588	704.2061	65535	64641.35
831.3037	706.3028	65535	64641.2
831.4486	708.3987	65535	64640.25
831.5935	710.4941	65535	64638.9
831.7383	712.5887	65535	64639.85
831.8832	714.6827	65535	64636.7
832.0281	716.7761	65535	64640.45
832.173	718.8688	65535	64637.05
832.3179	720.9608	65535	64632.55
832.4628	723.0522	65535	64634.45
832.6077	725.1429	65535	64639.25
832.7527	727.233	65535	64638.05
832.8976	729.3224	65535	64636
833.0425	731.4112	65535	64636.85
833.1874	733.4993	65535	64638.5
833.3324	735.5867	65535	64636.15
833.4773	737.6735	65535	64636.35
833.6222	739.7596	65535	64635.6
833.7672	741.845	65535	64637.15
833.9122	743.9298	65535	64632.45
834.0571	746.014	65535	64637.25
834.2021	748.0974	65535	64635.55
834.347	750.1802	65535	64636.45
834.492	752.2624	65535	64631.65
834.637	754.3439	65535	64631.3
834.782	756.4247	65535	64622.7
834.9269	758.5048	65535	64636.45
835.0719	760.5843	65535	64636
835.2169	762.6631	65535	64632.55
835.3619	764.7413	65535	64638.65
835.5069	766.8188	65535	64633.3
835.6519	768.8956	65535	64630.8
835.7969	770.9718	65535	64636.65
835.9419	773.0473	65535	64638
836.0869	775.1221	65535	64634.25
836.232	777.1962	65535	64636.65
836.377	779.2697	65535	64633.55
836.522	781.3426	65535	64615
836.667	783.4147	65535	64634.05
836.8121	785.4862	65535	64638.8
836.9571	787.557	65535	64633.9
837.1021	789.6271	65535	64630.75
837.2472	791.6966	65535	64634.9
837.3922	793.7654	65535	64632.05
837.5373	795.8335	65535	64633.15
837.6823	797.901	65535	64633.7
837.8274	799.9678	65535	64632.25
837.9724	802.0339	65535	64632.6
838.1175	804.0993	65535	64623.75
838.2626	806.1641	65535	64631.3
838.4076	808.2282	65535	64633.2
838.5527	810.2916	65535	64628.65
838.6978	812.3544	65535	64635.85
838.8428	814.4164	65535	64632.95
838.9879	816.4778	65535	64630.75
839.133	818.5385	65535	64632.1
839.2781	820.5986	65535	64632.5
839.4232	822.658	65535	64630
839.5682	824.7166	65535	64633.75
839.7133	826.7747	65535	64632.1
839.8584	828.832	65535	64630.65
840.0035	830.8886	65535	64629.75
840.1486	832.9446	65535	64630.6
840.2937	834.9999	65535	64635.65
840.4388	837.0545	65535	64628.9
840.5839	839.1085	65535	64633.65
840.729	841.1618	65535	64627.25
840.8741	843.2143	65535	64630.15
841.0192	845.2662	65535	64632.8
841.1643	847.3175	65535	64629.1
841.3095	849.368	65535	64631.75
841.4546	851.4179	65535	64634.7
841.5997	853.467	65535	64631.95
841.7448	855.5155	65535	64630.85
841.8899	857.5633	65535	64629.7
842.0351	859.6105	65535	64631.15
842.1802	861.6569	65535	64631.4
842.3253	863.7027	65535	64630.3
842.4704	865.7478	65535	64630.5
842.6156	867.7922	65535	64630.5
842.7607	869.8359	65535	64630.3
842.9058	871.8789	65535	64631.4
843.0509	873.9212	65535	64600
843.1961	875.9629	65535	64630.25
843.3412	878.0039	65535	64629.95
843.4863	880.0441	65535	64632.5
843.6315	882.0837	65535	64631.7
843.7766	884.1226	65535	64629.25
843.9218	886.1609	65535	64630.75
844.0669	888.1984	65535	64632.7
844.212	890.2352	65535	64630.3
844.3572	892.2714	65535	64622.4
844.5023	894.3069	65535	64625.6
844.6475	896.3416	65535	64628.05
844.7926	898.3757	65535	64628.75
844.9377	900.4091	65535	64628.3
845.0829	902.4418	65535	64622.25
845.228	904.4739	65535	64627.05
845.3732	906.5052	65535	64628.6
845.5183	908.5358	65535	64627.95
845.6635	910.5658	65535	64627.9
845.8086	912.595	65535	64627.8
845.9538	914.6236	65535	64629.25
846.0989	916.6515	65535	64629.9
846.2441	918.6786	65535	64624.95
846.3892	920.7051	65535	64627.15
846.5344	922.7309	65535	64628.3
846.6795	924.756	65535	64628.15
846.8246	926.7804	65535	64627.1
846.9698	928.8041	65535	64623.6
847.1149	930.8272	65535	64629.15
847.2601	932.8495	65535	64628.15
847.4052	934.8711	65535	64624.55
847.5504	936.892	65535	64624
847.6955	938.9123	65535	64625.15
847.8407	940.9318	65535	64628.75
847.9858	942.9506	65535	64629.95
848.131	944.9688	65535	64627.65
848.2761	946.9862	65535	64629.1
848.4213	949.003	65535	64624.6
848.5664	951.019	65535	64629.45
848.7115	953.0344	65535	64624
848.8567	955.0491	65535	64627.4
849.0018	957.063	65535	64630.5
849.147	959.0763	65535	64630.8
849.2921	961.0888	65535	64625.45
849.4373	963.1007	65535	64625.7
849.5824	965.1119	65535	64633.9
849.7275	967.1223	65535	64631.6
849.8727	969.1321	65535	64630.25
850.0178	971.1412	65535	64628
850.1629	973.1495	65535	64627.55
850.3081	975.1572	65535	64595.35
850.4532	977.1641	65535	64627.05
850.5983	979.1704	65535	64627.9
850.7435	981.1759	65535	64626.4
850.8886	983.1808	65535	64625.3
851.0337	985.1849	65535	64616.95
851.1788	987.1884	65535	64624.95
851.324	989.1911	65535	64624.65
851.4691	991.1932	65535	64624.95
851.6142	993.1945	65535	64630.25
851.7593	995.1951	65535	64628.4
851.9045	997.1951	65535	64622.5
852.0496	999.1943	65535	64627.35
852.1947	1001.1928	65535	64625.05
852.3398	1003.1906	65535	64629.75
852.4849	1005.1877	65535	64626.9
852.63	1007.1841	65535	64628.25
852.7751	1009.1798	65535	64628.35
852.9202	1011.1748	65535	64626.05
853.0653	1013.1691	65535	64627.25
853.2104	1015.1627	65535	64626.35
853.3555	1017.1556	65535	64628.6
853.5006	1019.1477	65535	64627
853.6457	1021.1392	65535	64630.65
853.7908	1023.1299	65535	64627.95
853.9359	1025.12	65535	64629.3
854.081	1027.1093	65535	64631.3
854.2261	1029.0979	65535	64634.7
854.3712	1031.0859	65535	64633.2
854.5163	1033.0731	65535	64629.15
854.6613	1035.0596	65535	64629.45
854.8064	1037.0454	65535	64629.25
854.9515	1039.0304	65535	64626.2
855.0965	1041.0148	65535	64627.1
855.2416	1042.9985	65535	64627.85
855.3867	1044.9814	65535	64628.15
855.5317	1046.9636	65535	64625.1
855.6768	1048.9452	65535	64628.95
855.8219	1050.926	65535	64631.05
855.9669	1052.9061	65535	64630.25
856.112	1054.8855	65535	64627.9
856.257	1056.8642	65535	64625.8
856.4021	1058.8421	65535	64622.5
856.5471	1060.8194	65535	64626.65
856.6921	1062.7959	65535	64628.15
856.8372	1064.7717	65535	64625.3
856.9822	1066.7469	65535	64622.35
857.1272	1068.7213	65535	64623.75
857.2723	1070.695	65535	64628.05
857.4173	1072.6679	65535	64629.2
857.5623	1074.6402	65535	64626.45
857.7073	1076.6117	65535	64623.75
857.8523	1078.5826	65535	64627.35
857.9973	1080.5527	65535	64626.15
858.1423	1082.5221	65535	64628.8
858.2873	1084.4908	65535	64628.8
858.4323	1086.4587	65535	64629.9
858.5773	1088.426	65535	64624.35
858.7223	1090.3925	65535	64623
858.8673	1092.3584	65535	64628.3
859.0123	1094.3235	65535	64627.8
859.1573	1096.2879	65535	64629.55
859.3022	1098.2515	65535	64630.45
859.4472	1100.2145	65535	64630.15
859.5922	1102.1767	65535	64628.3
859.7371	1104.1382	65535	64629.2
859.8821	1106.099	65535	64625.8
860.027	1108.0591	65535	64628.8
860.172	1110.0185	65535	64625.5
860.3169	1111.9771	65535	64628.85
860.4619	1113.9351	65535	64628.45
860.6068	1115.8923	65535	64627.6
860.7517	1117.8488	65535	64624.95
860.8967	1119.8045	65535	64627.35
861.0416	1121.7596	65535	64629.25
861.1865	1123.7139	65535	64630.65
861.3314	1125.6675	65535	64629.65
861.4763	1127.6204	65535	64628.95
861.6212	1129.5726	65535	64627.6
861.7661	1131.524	65535	64627.05
861.911	1133.4748	65535	64629.75
862.0559	1135.4248	65535	64626.7
862.2008	1137.3741	65535	64626.6
862.3457	1139.3226	65535	64627.75
862.4905	1141.2705	65535	64627.85
862.6354	1143.2176	65535	64621.15
862.7803	1145.164	65535	64628
862.9251	1147.1097	65535	64627.75
863.07	1149.0546	65535	64626
863.2148	1150.9989	65535	64627.9
863.3597	1152.9424	65535	64627.6
863.5045	1154.8852	65535	64630.15
863.6493	1156.8272	65535	64628.65
863.7942	1158.7686	65535	64621
863.939	1160.7092	65535	64628.25
864.0838	1162.6491	65535	64623.75
864.2286	1164.5883	65535	64629.25
864.3734	1166.5267	65535	64626.95
864.5182	1168.4644	65535	64626.7
864.663	1170.4014	65535	64625
864.8078	1172.3377	65535	64627.75
864.9526	1174.2732	65535	64631.75
865.0974	1176.2081	65535	64629.7
865.2421	1178.1421	65535	64623.45
865.3869	1180.0755	65535	64628
865.5317	1182.0082	65535	64627.6
865.6764	1183.9401	65535	64628.25
865.8212	1185.8713	65535	64628.1
865.9659	1187.8017	65535	64629.25
866.1106	1189.7315	65535	64633.3
866.2554	1191.6605	65535	64604.6
866.4001	1193.5888	65535	64629.25
866.5448	1195.5163	65535	64629.55
866.6895	1197.4432	65535	64629
866.8342	1199.3693	65535	64626.4
866.9789	1201.2947	65535	64626.6
867.1236	1203.2193	65535	64629.15
867.2683	1205.1432	65535	64626.55
867.413	1207.0664	65535	64629.95
867.5576	1208.9889	65535	64624.8
867.7023	1210.9106	65535	64630.95
867.847	1212.8316	65535	64629.6
867.9916	1214.7519	65535	64620.1
868.1363	1216.6715	65535	64629.2
868.2809	1218.5903	65535	64628.8
868.4255	1220.5084	65535	64628.9
868.5701	1222.4257	65535	64626.65
868.7148	1224.3424	65535	64630.55
868.8594	1226.2583	65535	64623.25
869.004	1228.1735	65535	64628.45
869.1486	1230.0879	65535	64629.3
869.2932	1232.0016	65535	64627.6
869.4377	1233.9146	65535	64628.2
869.5823	1235.8269	65535	64631.95
869.7269	1237.7384	65535	64632.05
869.8715	1239.6492	65535	64630.4
870.016	1241.5592	65535	64626.65
870.1606	1243.4686	65535	64627.45
870.3051	1245.3772	65535	64627.15
870.4496	1247.285	65535	64628.7
870.5941	1249.1922	65535	64628.85
870.7387	1251.0986	65535	64633.5
870.8832	1253.0042	65535	64631.85
871.0277	1254.9092	65535	64629.85
871.1722	1256.8134	65535	64630.3
871.3167	1258.7169	65535	64628.35
871.4611	1260.6196	65535	64628.95
871.6056	1262.5216	65535	64628.3
871.7501	1264.4229	65535	64629.6
871.8945	1266.3234	65535	64628.85
872.039	1268.2232	65535	64628.55
872.1834	1270.1223	65535	64625.9
872.3278	1272.0207	65535	64628.65
872.4723	1273.9183	65535	64624.8
872.6167	1275.8151	65535	64631.2
872.7611	1277.7113	65535	64630.6
872.9055	1279.6067	65535	64630.8
873.0499	1281.5014	65535	64627.1
873.1943	1283.3953	65535	64627.55
873.3386	1285.2885	65535	64630.15
873.483	1287.181	65535	64626.95
873.6274	1289.0727	65535	64631
873.7717	1290.9637	65535	64631.1
873.9161	1292.854	65535	64631.1
874.0604	1294.7435	65535	64630.75
874.2047	1296.6323	65535	64630.15
874.349	1298.5204	65535	64625.6
874.4933	1300.4077	65535	64629.3
874.6376	1302.2943	65535	64631.2
874.7819	1304.1802	65535	64630.7
874.9262	1306.0653	65535	64628.8
875.0705	1307.9497	65535	64630.55
875.2147	1309.8333	65535	64631.15
875.359	1311.7162	65535	64629.5
875.5032	1313.5984	65535	64628.25
875.6475	1315.4798	65535	64618.25
875.7917	1317.3605	65535	64613.95
875.9359	1319.2405	65535	64626.65
876.0801	1321.1197	65535	64631.3
876.2243	1322.9982	65535	64627.25
876.3685	1324.876	65535	64628.65
876.5127	1326.753	65535	64629
876.6569	1328.6293	65535	64628.25
876.801	1330.5048	65535	64629.2
876.9452	1332.3796	65535	64631.7
877.0893	1334.2537	65535	64605.8
877.2335	1336.127	65535	64631.35
877.3776	1337.9996	65535	64630.35
877.5217	1339.8714	65535	64629.85
877.6658	1341.7426	65535	64586.6
877.8099	1343.6129	65535	64628.95
877.954	1345.4826	65535	64629.8
878.0981	1347.3515	65535	64625.9
878.2422	1349.2196	65535	64628.9
878.3862	1351.087	65535	64629.95
878.5303	1352.9537	65535	64630.05
878.6743	1354.8197	65535	64627.9
878.8184	1356.6849	65535	64630.05
878.9624	1358.5493	65535	64629.15
879.1064	1360.4131	65535	64629.35
879.2504	1362.276	65535	64629.1
879.3944	1364.1383	65535	64632.05
879.5384	1365.9998	65535	64623.7
879.6823	1367.8606	65535	64629.7
879.8263	1369.7206	65535	64633.6
879.9702	1371.5799	65535	64627.5
880.1142	1373.4384	65535	64631.1
880.2581	1375.2962	65535	64631.85
880.402	1377.1533	65535	64629.9
880.5459	1379.0096	65535	64631.3
880.6898	1380.8652	65535	64632.4
880.8337	1382.7201	65535	64632.4
880.9776	1384.5742	65535	64628.55
881.1215	1386.4275	65535	64630.05
881.2653	1388.2802	65535	64629.85
881.4092	1390.132	65535	64630.65
881.553	1391.9832	65535	64628.7
881.6968	1393.8336	65535	64629.35
881.8406	1395.6832	65535	64628.7
881.9844	1397.5322	65535	64629.5
882.1282	1399.3803	65535	64627.3
882.272	1401.2278	65535	64631.7
882.4158	1403.0745	65535	64629.45
882.5595	1404.9204	65535	64631.3
882.7033	1406.7656	65535	64630.45
882.847	1408.6101	65535	64630.35
882.9908	1410.4538	65535	64631.4
883.1345	1412.2968	65535	64628.85
883.2782	1414.139	65535	64628.45
883.4219	1415.9805	65535	64632.55
883.5656	1417.8213	65535	64625.95
883.7092	1419.6613	65535	64630.75
883.8529	1421.5006	65535	64632.05
883.9965	1423.3391	65535	64631.35
884.1402	1425.1769	65535	64630.25
884.2838	1427.0139	65535	64629.75
884.4274	1428.8502	65535	64629.45
884.571	1430.6858	65535	64631.9
884.7146	1432.5206	65535	64629.7
884.8582	1434.3547	65535	64629.7
885.0018	1436.188	65535	64629.7
885.1453	1438.0206	65535	64630.1
885.2889	1439.8524	65535	64630.95
885.4324	1441.6835	65535	64629.3
885.5759	1443.5139	65535	64624.6
885.7194	1445.3435	65535	64631.1
885.8629	1447.1724	65535	64631.95
886.0064	1449.0005	65535	64631.4
886.1499	1450.8279	65535	64630.3
886.2933	1452.6545	65535	64630.25
886.4368	1454.4804	65535	64633.3
886.5802	1456.3056	65535	64624.75
886.7237	1458.13	65535	64631.8
886.8671	1459.9536	65535	64629.25
887.0105	1461.7766	65535	64631.9
887.1539	1463.5987	65535	64631.3
887.2972	1465.4202	65535	64631.95
887.4406	1467.2409	65535	64631.2
887.584	1469.0608	65535	64632.95
887.7273	1470.88	65535	64630.6
887.8706	1472.6984	65535	64630.95
888.0139	1474.5161	65535	64630.55
888.1572	1476.3331	65535	64630.3
888.3005	1478.1493	65535	64631.85
888.4438	1479.9648	65535	64632.55
888.5871	1481.7795	65535	64630.65
888.7303	1483.5935	65535	64631.25
888.8736	1485.4067	65535	64630.65
889.0168	1487.2192	65535	64632.7
889.16	1489.031	65535	64629.6
889.3032	1490.842	65535	64632.35
889.4464	1492.6522	65535	64634.25
889.5896	1494.4618	65535	64630.6
889.7327	1496.2705	65535	64634.15
889.8759	1498.0785	65535	64630.8
890.019	1499.8858	65535	64632.15
890.1622	1501.6924	65535	64632.35
890.3053	1503.4981	65535	64631.55
890.4484	1505.3032	65535	64631.35
890.5914	1507.1075	65535	64629.45
890.7345	1508.911	65535	64631.85
890.8776	1510.7138	65535	64631.4
891.0206	1512.5159	65535	64632.4
891.1637	1514.3172	65535	64631.9
891.3067	1516.1178	65535	64633.05
891.4497	1517.9176	65535	64630.7
891.5927	1519.7166	65535	64633.25
891.7357	1521.515	65535	64627.45
891.8786	1523.3126	65535	64631.9
892.0216	1525.1094	65535	64631.35
892.1645	1526.9055	65535	64633.6
892.3074	1528.7008	65535	64634.2
892.4503	1530.4954	65535	64629.75
892.5932	1532.2893	65535	64632.7
892.7361	1534.0824	65535	64628.95
892.879	1535.8747	65535	64634.8
893.0218	1537.6663	65535	64632.7
893.1647	1539.4572	65535	64631.15
893.3075	1541.2473	65535	64635.45
893.4503	1543.0367	65535	64634.6
893.5931	1544.8253	65535	64628.85
893.7359	1546.6132	65535	64631.2
893.8787	1548.4003	65535	64624.6
894.0214	1550.1867	65535	64622.95
894.1642	1551.9723	65535	64626.5
894.3069	1553.7572	65535	64634.1
894.4496	1555.5414	65535	64633.25
894.5923	1557.3247	65535	64633.2
894.735	1559.1074	65535	64635.7
894.8777	1560.8893	65535	64635.4
895.0204	1562.6705	65535	64634.25
895.163	1564.4509	65535	64634.95
895.3056	1566.2305	65535	64636.6
895.4482	1568.0094	65535	64635.95
895.5908	1569.7876	65535	64634.15
895.7334	1571.565	65535	64634.05
895.876	1573.3417	65535	64635.9
896.0186	1575.1176	65535	64635.85
896.1611	1576.8928	65535	64635.8
896.3036	1578.6672	65535	64638.15
896.4461	1580.4409	65535	64637.6
896.5886	1582.2138	65535	64635.75
896.7311	1583.986	65535	64635.4
896.8736	1585.7575	65535	64635.65
897.0161	1587.5282	65535	64638
897.1585	1589.2981	65535	64639.8
897.3009	1591.0673	65535	64636.7
897.4433	1592.8358	65535	64639.55
897.5857	1594.6035	65535	64634.75
897.7281	1596.3704	65535	64638.05
897.8705	1598.1366	65535	64635.45
898.0128	1599.9021	65535	64636.7
898.1551	1601.6668	65535	64635.8
898.2975	1603.4308	65535	64634.35
898.4398	1605.194	65535	64631.2
898.5821	1606.9564	65535	64637.1
898.7243	1608.7182	65535	64635.6
898.8666	1610.4791	65535	64638.65
899.0088	1612.2394	65535	64640.1
899.1511	1613.9988	65535	64640.5
899.2933	1615.7576	65535	64639.4
899.4355	1617.5156	65535	64629.45
899.5776	1619.2728	65535	64637.3
899.7198	1621.0293	65535	64639.1
899.862	1622.785	65535	64635.5
900.0041	1624.54	65535	64635.2
900.1462	1626.2942	65535	64637.7
900.2883	1628.0477	65535	64635.1
900.4304	1629.8005	65535	64636.3
900.5725	1631.5525	65535	64637.4
900.7145	1633.3037	65535	64639.3
900.8566	1635.0542	65535	64639.25
900.9986	1636.804	65535	64638.85
901.1406	1638.553	65535	64548.5
901.2826	1640.3013	65535	64636.25
901.4245	1642.0488	65535	64638
901.5665	1643.7955	65535	64638.9
901.7085	1645.5416	65535	64637.15
901.8504	1647.2868	65535	64637.05
901.9923	1649.0313	65535	64638.5
902.1342	1650.7751	65535	64633.25
902.2761	1652.5181	65535	64638.7
902.4179	1654.2604	65535	64638.5
902.5598	1656.0019	65535	64639.6
902.7016	1657.7427	65535	64638.3
902.8434	1659.4828	65535	64639.4
902.9852	1661.222	65535	64635.05
903.127	1662.9606	65535	64640
903.2687	1664.6984	65535	64637.9
903.4105	1666.4354	65535	64637.5
903.5522	1668.1717	65535	64638.35
903.6939	1669.9072	65523.75	64626.15
903.8356	1671.642	65529.95	64629.45
903.9773	1673.3761	65527.6	64630.8
904.119	1675.1094	65525	64628.1
904.2606	1676.8419	65486.5	64589.65
904.4022	1678.5737	65519.5	64622.05
904.5439	1680.3048	65506.25	64609.9
904.6855	1682.0351	65477.35	64580.95
904.827	1683.7646	65454.55	64554.55
904.9686	1685.4934	65476.15	64581.95
905.1101	1687.2215	65370.35	64475.45
905.2517	1688.9488	65460.1	64565.15
905.3932	1690.6754	65266	64370
905.5347	1692.4012	65399.85	64503.25
905.6761	1694.1263	65416.5	64520.1
905.8176	1695.8506	65301	64404.7
905.9591	1697.5742	65330.7	64435.15
906.1005	1699.297	65289.25	64392.5
906.2419	1701.0191	65331.85	64438.5
906.3833	1702.7404	65115.7	64221.65
906.5246	1704.461	65028.15	64130.9
906.666	1706.1808	65246.35	64349.3
906.8073	1707.8999	65071.55	64173.95
906.9487	1709.6182	65079.9	64182.7
907.09	1711.3358	65021.25	64128.4
907.2313	1713.0527	65012.25	64116.6
907.3725	1714.7688	65025.15	64124.55
907.5138	1716.4841	64685.8	63790.1
907.655	1718.1987	64808.95	63907.95
907.7962	1719.9126	64722.3	63827.7
907.9374	1721.6257	64853.9	63958.2
908.0786	1723.338	64843.55	63949.55
908.2198	1725.0496	64363.05	63468.55
908.3609	1726.7605	64452.85	63557
908.502	1728.4706	64230.45	63335.4
908.6431	1730.18	64507.2	63609.4
908.7842	1731.8886	64198.2	63304.1
908.9253	1733.5964	64041.35	63140.85
909.0664	1735.3036	64390.95	63493.05
909.2074	1737.0099	64137.4	63241.2
909.3484	1738.7156	63830.6	62937.3
909.4894	1740.4204	63730.7	62833.1
909.6304	1742.1246	63896.1	63000.15
909.7714	1743.8279	64007.25	63113.45
909.9123	1745.5306	63884.1	62988.4
910.0532	1747.2325	62646.35	61752.9
910.1941	1748.9336	62704.05	61811.7
910.335	1750.634	63152.05	62254.35
910.4759	1752.3336	63455.1	62561.6
910.6168	1754.0325	62493.15	61600.3
910.7576	1755.7307	63387.1	62496.05
910.8984	1757.4281	62176.85	61282.1
911.0392	1759.1247	63116.7	62212.25
911.18	1760.8206	61723.2	60824.8
911.3208	1762.5158	61838.65	60942.8
911.4615	1764.2102	62178.9	61286.45
911.6022	1765.9039	61910.65	61018
911.7429	1767.5968	61621.1	60727.5
911.8836	1769.289	61398.5	60503.8
912.0243	1770.9804	61657.15	60762.45
912.1649	1772.6711	61352	60457.8
912.3056	1774.361	61144.8	60248.05
912.4462	1776.0502	61160.6	60266.45
912.5868	1777.7386	60170.5	59274.2
912.7274	1779.4263	60758.4	59863.95
912.8679	1781.1132	60692.75	59800.6
913.0084	1782.7994	60454.2	59560.2
913.149	1784.4849	60527.6	59635.65
913.2895	1786.1696	59338.25	58438.45
913.4299	1787.8535	60049.05	59155.4
913.5704	1789.5367	60214.55	59321.35
913.7108	1791.2192	59367.5	58473.9
913.8513	1792.9009	58965.55	58041.35
913.9917	1794.5818	59514.05	58617.6
914.132	1796.2621	58891	57999.65
914.2724	1797.9415	58869.8	57973.95
914.4128	1799.6202	58742.75	57849.7
914.5531	1801.2982	58842.4	57949
914.6934	1802.9755	58180.7	57287.15
914.8337	1804.6519	57989.05	57093.9
914.9739	1806.3277	58831.45	57937.55
915.1142	1808.0027	57382.85	56491.65
915.2544	1809.6769	57856.5	56963.2
915.3946	1811.3504	58001.15	57107.1
915.5348	1813.0231	56931.35	56036.3
915.675	1814.6951	57629.6	56736.25
915.8151	1816.3664	57147.45	56252.55
915.9553	1818.0369	57239.45	56344.9
916.0954	1819.7067	56925.95	56033.75
916.2355	1821.3757	57461.85	56565.4
916.3755	1823.044	56552.55	55659.8
916.5156	1824.7115	56266.3	55371.6
916.6556	1826.3783	56427.85	55534.35
916.7956	1828.0443	56389.05	55497.2
916.9356	1829.7096	56117	55220.45
917.0756	1831.3741	55656.1	54761.25
917.2155	1833.0379	55800.95	54909.15
917.3555	1834.701	55785.65	54889.7
917.4954	1836.3633	55305.55	54410.25
917.6353	1838.0248	55533.5	54638.8
917.7751	1839.6856	55356.95	54463.45
917.915	1841.3457	54922.2	54032.6
918.0548	1843.005	55357.7	54463.45
918.1946	1844.6636	54965.6	54072
918.3344	1846.3214	54441.75	53549.6
918.4742	1847.9785	54604.05	53710.5
918.6139	1849.6349	54494.85	53598.9
918.7537	1851.2904	54729.8	53824.95
918.8934	1852.9453	54150.8	53257.2
919.0331	1854.5994	54211.4	53315.35
919.1727	1856.2528	54264.25	53365.7
919.3124	1857.9054	53841.3	52948.95
919.452	1859.5572	53706.05	52813.5
919.5916	1861.2083	53768.45	52874.4
919.7312	1862.8587	54077.65	53184.45
919.8708	1864.5084	53163.75	52270.15
920.0103	1866.1572	53324.8	52432.25
920.1498	1867.8054	52870.65	51976.75
920.2893	1869.4528	53196	52302.3
920.4288	1871.0994	52698.3	51805.2
920.5683	1872.7453	52681.1	51786.05
920.7077	1874.3905	52693.2	51793.55
920.8471	1876.0349	52343.35	51449.05
920.9865	1877.6786	52478.5	51583.3
921.1259	1879.3215	52249.15	51355.65
921.2653	1880.9637	52416.75	51521.9
921.4046	1882.6051	52115.65	51223.4
921.5439	1884.2458	51873.5	50979.6
921.6832	1885.8858	51612.25	50718.1
921.8225	1887.525	51625.45	50732.4
921.9617	1889.1634	51422.85	50530.7
922.101	1890.8011	51235.6	50342.1
922.2402	1892.4381	50855.75	49963.55
922.3794	1894.0743	51168.55	50277.75
922.5185	1895.7098	50891.8	49999.35
922.6577	1897.3446	50670.75	49776.25
922.7968	1898.9786	50600.25	49701.7
922.9359	1900.6118	50457.15	49565.5
923.075	1902.2443	50177.8	49280.6
923.214	1903.8761	50242.35	49349.3
923.3531	1905.5071	49958.4	49064.75
923.4921	1907.1374	49546.25	48651.25
923.6311	1908.7669	49624.25	48730.95
923.77	1910.3957	49660.95	48768.65
923.909	1912.0237	49103.75	48212.35
924.0479	1913.651	49015.1	48119.3
924.1868	1915.2776	48919.25	48027.6
924.3257	1916.9034	48726.3	47832.45
924.4646	1918.5285	48535.15	47644
924.6034	1920.1528	48341.85	47449.25
924.7422	1921.7764	48324.45	47431.1
924.881	1923.3992	48105.8	47214.1
925.0198	1925.0213	47750.95	46856.85
925.1586	1926.6427	47564.9	46673.6
925.2973	1928.2633	47589.1	46587.1
925.436	1929.8832	47343.85	46447.65
925.5747	1931.5023	47122.7	46229.6
925.7134	1933.1207	46963.85	46069.8
925.852	1934.7383	46929.25	46036.65
925.9906	1936.3552	46710.5	45817.55
926.1292	1937.9714	46658.95	45765.95
926.2678	1939.5868	46455.8	45561.7
926.4064	1941.2015	46156.35	45261.9
926.5449	1942.8154	45960.85	45068.45
926.6834	1944.4286	45813	44919.5
926.8219	1946.041	45620.55	44710.4
926.9604	1947.6528	45400.5	44501.75
927.0988	1949.2637	45292.95	44401.6
927.2372	1950.8739	45150.55	44257.9
927.3756	1952.4834	45042.4	44148.9
927.514	1954.0921	44978.15	44083.2
927.6523	1955.7001	44805.15	43909.25
927.7907	1957.3074	44705.2	43813.15
927.929	1958.9139	44398	43507.1
928.0673	1960.5197	44338.1	43443.8
928.2055	1962.1247	44087.2	43193.25
928.3438	1963.729	43919.55	43029.6
928.482	1965.3325	43768.35	42851.6
928.6202	1966.9353	43640.85	42749.15
928.7584	1968.5374	43519.75	42624.15
928.8965	1970.1387	43345.95	42452.5
929.0346	1971.7393	43155.5	42264.3
929.1727	1973.3392	43018.95	42127.35
929.3108	1974.9383	42826.5	41936.3
929.4489	1976.5366	42625.5	41734.05
929.5869	1978.1342	42593.3	41698.95
929.7249	1979.7311	42547.85	41655.25
929.8629	1981.3273	42370.45	41480.8
930.0009	1982.9227	42227.45	41334.5
930.1388	1984.5173	42042.1	41151.55
930.2767	1986.1112	41821.5	40929.35
930.4146	1987.7044	41764.55	40874.8
930.5525	1989.2968	41582.3	40691.15
930.6904	1990.8885	41510.9	40616.25
930.8282	1992.4795	41436.45	40544.35
930.966	1994.0697	41192.45	40299.25
931.1038	1995.6592	41090.45	40197.45
931.2415	1997.2479	40970.2	40077.3
931.3793	1998.8359	40776.35	39885.35
931.517	2000.4232	40607.15	39719.2
931.6547	2002.0097	40499.1	39609.45
931.7923	2003.5955	40330.7	39439.7
931.93	2005.1805	40305.05	39411.45
932.0676	2006.7648	40203.75	39311.65
932.2052	2008.3484	39969.45	39076.9
932.3427	2009.9312	40008.9	39116.95
932.4803	2011.5133	39833.7	38945.1
932.6178	2013.0946	39736.95	38845.6
932.7553	2014.6752	39606	38715
932.8928	2016.2551	39472.9	38581.45
933.0302	2017.8342	39290.25	38400.1
933.1676	2019.4126	39165.55	38274.75
933.305	2020.9902	38990.55	38099.95
933.4424	2022.5672	38958.25	38066.15
933.5798	2024.1433	38826.5	37930.25
933.7171	2025.7188	38686.3	37797.9
933.8544	2027.2935	38639.35	37747.65
933.9917	2028.8674	38477.85	37588.6
934.129	2030.4406	38295.95	37407.9
934.2662	2032.0131	38141.4	37252.15
934.4034	2033.5849	37991.35	37097.95
934.5406	2035.1559	37936.85	37046.55
934.6778	2036.7261	37878.7	36988.9
934.8149	2038.2957	37749.25	36857.3
934.952	2039.8645	37599.05	36709.2
935.0891	2041.4325	37623.7	36727.7
935.2262	2042.9998	37380.8	36490.75
935.3632	2044.5664	37360.05	36469
935.5002	2046.1323	37189.75	36300.5
935.6372	2047.6974	37094.35	36203.85
935.7742	2049.2617	37026.15	36137.55
935.9111	2050.8254	36966.85	36073.25
936.048	2052.3883	36888.65	35997.15
936.1849	2053.9504	36786.95	35896.65
936.3218	2055.5118	36594.05	35702.35
936.4586	2057.0725	36464	35569.05
936.5955	2058.6325	36386.4	35496.85
936.7323	2060.1917	36268.75	35380.2
936.869	2061.7502	36161.7	35267.7
937.0058	2063.3079	36006.4	35117.5
937.1425	2064.8649	35927.85	35034.9
937.2792	2066.4212	35759.75	34868.2
937.4159	2067.9767	35679.9	34791.5
937.5525	2069.5315	35528.05	34635
937.6891	2071.0856	35384.35	34492.75
937.8257	2072.6389	35222.75	34331.7
937.9623	2074.1915	35049.95	34161.95
938.0989	2075.7433	34868.55	33978.6
938.2354	2077.2945	34816.6	33927.4
938.3719	2078.8448	34732.65	33841.65
938.5084	2080.3945	34628.9	33738.75
938.6448	2081.9434	34539.55	33650
938.7812	2083.4916	34413.9	33522.75
938.9176	2085.039	34219.35	33327.05
939.054	2086.5857	34177.8	33284.65
939.1903	2088.1317	34065.6	33173.45
939.3267	2089.677	34070.4	33178.75
939.463	2091.2215	33941	33048.55
939.5992	2092.7652	33854.75	32961.35
939.7355	2094.3083	33738.25	32846.15
939.8717	2095.8506	33636.3	32747.4
940.0079	2097.3921	33637.4	32747.2
940.1441	2098.933	33498.95	32607.85
940.2802	2100.4731	33389.3	32498
940.4163	2102.0124	33324.05	32425.9
940.5524	2103.5511	33214.05	32325.2
940.6885	2105.089	33190.1	32298.85
940.8245	2106.6261	33075.9	32184.7
940.9606	2108.1626	32961.55	32068.55
941.0965	2109.6983	32900.7	31980.65
941.2325	2111.2332	32765.6	31874.6
941.3684	2112.7675	32646.95	31755.8
941.5044	2114.301	32559.1	31666
941.6403	2115.8337	32584.85	31693.65
941.7761	2117.3657	32431.5	31540.65
941.912	2118.897	32317.85	31425.6
942.0478	2120.4276	32208.9	31311.4
942.1835	2121.9575	32018.2	31127.9
942.3193	2123.4866	32021.1	31115.35
942.455	2125.0149	31974.55	31081.45
942.5907	2126.5426	31765.9	30875.4
942.7264	2128.0695	31675	30780.55
942.8621	2129.5956	31633.1	30742.55
942.9977	2131.1211	31570.9	30676.4
943.1333	2132.6458	31492	30602.3
943.2689	2134.1698	31396.2	30505.9
943.4044	2135.693	31272.2	30379.2
943.54	2137.2155	31253.6	30360.5
943.6755	2138.7373	31175.45	30283.1
943.8109	2140.2584	31009.7	30117.9
943.9464	2141.7787	30891.55	29995.05
944.0818	2143.2983	30775.45	29884.55
944.2172	2144.8171	30648.3	29758.3
944.3526	2146.3353	30547.3	29653.5
944.4879	2147.8527	30400.65	29510.45
944.6232	2149.3693	30380.1	29489.15
944.7585	2150.8853	30244.8	29353.95
944.8938	2152.4005	30107.05	29214.35
945.029	2153.9149	30088.3	29196.75
945.1642	2155.4287	30006.25	29114
945.2994	2156.9417	29920.35	29026.65
945.4346	2158.454	29820.8	28927.65
945.5697	2159.9655	29725.35	28833.9
945.7048	2161.4764	29673.75	28783.65
945.8399	2162.9865	29587.25	28695.5
945.9749	2164.4958	29481.45	28590.7
946.1099	2166.0045	29334.6	28440.05
946.2449	2167.5124	29346.1	28452.9
946.3799	2169.0195	29257.5	28367.45
946.5148	2170.526	29183.15	28290.6
946.6498	2172.0317	29059.85	28168.55
946.7846	2173.5367	28988.35	28096
946.9195	2175.0409	28926.4	28035.5
947.0543	2176.5445	28902.95	28013.5
947.1891	2178.0473	28830.7	27940.4
947.3239	2179.5494	28655.8	27760.2
947.4587	2181.0507	28528.45	27636.75
947.5934	2182.5513	28500.95	27606.85
947.7281	2184.0512	28415.85	27524.4
947.8628	2185.5504	28269.4	27378.1
947.9974	2187.0488	28080.3	27191.7
948.132	2188.5465	28053.75	27161.9
948.2666	2190.0435	27917.5	27026.2
948.4012	2191.5397	27850.15	26958.85
948.5357	2193.0353	27759.85	26869.25
948.6702	2194.5301	27576.35	26682.85
948.8047	2196.0241	27556.55	26664.2
948.9392	2197.5175	27487.55	26596.1
949.0736	2199.0101	27349.05	26452.8
949.208	2200.502	27230.25	26340.4
949.3424	2201.9931	27049.95	26159.9
949.4767	2203.4835	26929	26038.2
949.611	2204.9733	26889.85	25990.3
949.7453	2206.4622	26854.95	25963.95
949.8796	2207.9505	26764.35	25869.8
950.0138	2209.438	26618.35	25728.1
950.148	2210.9248	26554.45	25662.5
950.2822	2212.4109	26440.75	25551.5
950.4164	2213.8962	26341.4	25447.8
950.5505	2215.3809	26292.45	25398.85
950.6846	2216.8648	26231.25	25340.05
950.8186	2218.3479	26171.2	25276.65
950.9527	2219.8304	26025.35	25129.65
951.0867	2221.3121	25959.75	25065.15
951.2207	2222.7931	25835.7	24945.45
951.3546	2224.2733	25725.85	24833.85
951.4886	2225.7529	25626.9	24736.05
951.6225	2227.2317	25584.8	24692.7
951.7563	2228.7098	25532.2	24642.9
951.8902	2230.1872	25424	24535.2
952.024	2231.6638	25373.6	24481.7
952.1578	2233.1397	25254.4	24358
952.2916	2234.6149	25160.95	24271.35
952.4253	2236.0894	25097.8	24205.5
952.559	2237.5632	25029.05	24137.15
952.6927	2239.0362	24913.65	24023.75
952.8263	2240.5085	24847.6	23958.1
952.9599	2241.9801	24687.55	23795.75
953.0935	2243.4509	24665.4	23773.7
953.2271	2244.921	24578.45	23686.8
953.3606	2246.3904	24455.35	23562.3
953.4941	2247.8591	24377.3	23487.8
953.6276	2249.3271	24361.8	23469.5
953.7611	2250.7943	24220.2	23326.3
953.8945	2252.2608	24097.8	23206.65
954.0279	2253.7266	24043.95	23153.1
954.1612	2255.1917	23984.55	23093.15
954.2946	2256.656	23861.25	22969.75
954.4279	2258.1197	23817.65	22928.35
954.5612	2259.5826	23763.35	22870.5
954.6944	2261.0447	23725.95	22835.6
954.8276	2262.5062	23614.5	22721.95
954.9608	2263.9669	23539.55	22646
955.094	2265.4269	23492.6	22601.15
955.2271	2266.8862	23424.75	22534.45
955.3602	2268.3448	23370.8	22479
955.4933	2269.8026	23325.1	22434
955.6264	2271.2598	23247	22354.55
955.7594	2272.7162	23144.85	22255.25
955.8924	2274.1719	23071.35	22181.2
956.0253	2275.6268	23000.4	22108.85
956.1583	2277.0811	22946.65	22055.45
956.2912	2278.5346	22850.9	21960.5
956.4241	2279.9874	22835.05	21943.55
956.5569	2281.4395	22764.9	21876.35
956.6897	2282.8908	22683.4	21789.25
956.8225	2284.3414	22616.4	21722.15
956.9553	2285.7914	22523.15	21634.25
957.088	2287.2406	22461.55	21569.25
957.2207	2288.689	22398.45	21506.85
957.3534	2290.1368	22316.75	21425.05
957.486	2291.5838	22226.3	21332.55
957.6186	2293.0302	22203.65	21309.9
957.7512	2294.4758	22062	21171.35
957.8838	2295.9206	21945.6	21052.95
958.0163	2297.3648	21917.55	21026.75
958.1488	2298.8082	21894.5	21001.4
958.2813	2300.251	21802.65	20910.45
958.4137	2301.693	21722.75	20828.95
958.5461	2303.1343	21751.7	20858.95
958.6785	2304.5748	21640.65	20749.5
958.8108	2306.0147	21558	20665.4
958.9432	2307.4538	21515.8	20622.65
959.0754	2308.8922	21430.25	20540.05
959.2077	2310.3299	21364.15	20473.45
959.3399	2311.7669	21252.05	20361.1
959.4721	2313.2031	21207.05	20317
959.6043	2314.6387	21116.35	20225.95
959.7365	2316.0735	21054.5	20162.15
959.8686	2317.5076	20972.5	20081.75
960.0006	2318.941	20949.15	20058.6
960.1327	2320.3737	20875.6	19984.9
960.2647	2321.8056	20792.65	19899
960.3967	2323.2369	20706.35	19813.4
960.5287	2324.6674	20683.65	19789.3
960.6606	2326.0972	20585.85	19692.5
960.7925	2327.5263	20497.1	19605.75
960.9244	2328.9547	20436.9	19544.65
961.0562	2330.3823	20381.9	19491.1
961.1881	2331.8092	20353.95	19458.55
961.3198	2333.2355	20248.6	19357.05
961.4516	2334.661	20203.5	19311.7
961.5833	2336.0858	20166.35	19274.4
961.715	2337.5098	20132.25	19239.25
961.8467	2338.9332	20069.15	19177
961.9783	2340.3558	19999.4	19104.65
962.1099	2341.7778	19875	18982.25
962.2415	2343.199	19830.1	18937.8
962.373	2344.6195	19775.4	18883.25
962.5045	2346.0393	19730.9	18840
962.636	2347.4583	19687.6	18796.05
962.7675	2348.8767	19582.5	18691.7
962.8989	2350.2943	19547.95	18656.75
963.0303	2351.7113	19504.3	18612.1
963.1617	2353.1275	19447.6	18553.4
963.293	2354.543	19375.8	18476.65
963.4243	2355.9578	19309.65	18417.9
963.5556	2357.3718	19167.55	18278.35
963.6868	2358.7852	19105.6	18215.25
963.818	2360.1978	19012.95	18120.35
963.9492	2361.6098	18986.05	18098.4
964.0803	2363.021	18912.4	18018.6
964.2114	2364.4315	18893.25	18002.05
964.3425	2365.8413	18791.2	17898.2
964.4736	2367.2504	18734.65	17843.9
964.6046	2368.6587	18651.6	17761.1
964.7356	2370.0664	18550.3	17660.1
964.8666	2371.4733	18505.2	17614.9
964.9975	2372.8795	18438.65	17548.05
965.1284	2374.285	18350.05	17460.3
965.2593	2375.6899	18248.7	17359
965.3901	2377.0939	18193.05	17303
965.5209	2378.4973	18125.45	17234.95
965.6517	2379.9	18086.45	17196.5
965.7825	2381.3019	17976.7	17086.55
965.9132	2382.7032	17913.3	17022.55
966.0439	2384.1037	17916	17029.25
966.1745	2385.5035	17824.65	16935.5
966.3051	2386.9027	17789	16899.85
966.4357	2388.3011	17730.55	16836.6
966.5663	2389.6987	17674.75	16783.8
966.6968	2391.0957	17627.8	16738.3
966.8273	2392.492	17532.75	16644.3
966.9578	2393.8876	17396.15	16506.05
967.0882	2395.2824	17318.35	16428
967.2186	2396.6765	17292.75	16402.75
967.349	2398.07	17172.05	16283
967.4793	2399.4627	17163.85	16273.15
967.6097	2400.8547	17109.85	16218.55
967.7399	2402.246	17059.5	16162.35
967.8702	2403.6366	16943.75	16053.35
968.0004	2405.0265	16874.55	15984.05
968.1306	2406.4156	16816.25	15920.5
968.2607	2407.8041	16716.65	15825.35
968.3909	2409.1918	16688.25	15795.5
968.521	2410.5789	16599.25	15709.05
968.651	2411.9652	16522.3	15628.7
968.781	2413.3508	16519.6	15629.4
968.911	2414.7358	16423.25	15530.45
969.041	2416.12	16347.6	15457.6
969.1709	2417.5035	16323.25	15433.35
969.3008	2418.8863	16250.1	15360.5
969.4307	2420.2684	16204.75	15315.25
969.5606	2421.6497	16109.75	15219.45
969.6904	2423.0304	16010.65	15119.85
969.8201	2424.4104	15990.1	15100
969.9499	2425.7896	15944.1	15052.25
970.0796	2427.1682	15879.6	14989.4
970.2093	2428.546	15865.55	14973.35
970.3389	2429.9232	15823.45	14930.7
970.4685	2431.2996	15790	14900.85
970.5981	2432.6753	15778.45	14888.65
970.7277	2434.0503	15680.5	14790.15
970.8572	2435.4246	15617.7	14725.9
970.9867	2436.7982	15561.3	14668.9
971.1161	2438.1711	15513.45	14622.1
971.2456	2439.5433	15475.35	14584.15
971.375	2440.9148	15374.55	14479.05
971.5043	2442.2856	15292	14402.85
971.6336	2443.6557	15270.3	14379.55
971.7629	2445.025	15188.2	14297.3
971.8922	2446.3937	15160.35	14268.2
972.0214	2447.7617	15106.5	14214.75
972.1506	2449.1289	15076.3	14183.4
972.2798	2450.4955	15051.75	14155.9
972.4089	2451.8613	14981.3	14089.2
972.538	2453.2265	14962.2	14072.2
972.6671	2454.5909	14915.25	14024.75
972.7961	2455.9546	14853.4	13962.9
972.9251	2457.3177	14817.6	13926.75
973.0541	2458.68	14795.15	13903.8
973.1831	2460.0416	14741.7	13850.3
973.312	2461.4025	14723.9	13832.45
973.4408	2462.7627	14678.05	13774.65
973.5697	2464.1222	14615.25	13724.85
973.6985	2465.4811	14554.75	13664.25
973.8273	2466.8392	14521	13630.8
973.956	2468.1966	14487.8	13595.65
974.0847	2469.5533	14505.1	13613.65
974.2134	2470.9093	14440.9	13552.2
974.3421	2472.2645	14348.75	13457.15
974.4707	2473.6191	14303.85	13414.7
974.5993	2474.973	14256.1	13366.25
974.7278	2476.3262	14222	13331.2
974.8563	2477.6787	14118.2	13228.7
974.9848	2479.0305	14046.8	13157.4
975.1132	2480.3816	14020.05	13128.7
975.2417	2481.7319	13960.15	13069
975.37	2483.0816	13874.35	12982.3
975.4984	2484.4306	13868.75	12977.95
975.6267	2485.7789	13797.4	12907.15
975.755	2487.1264	13741	12850.1
975.8833	2488.4733	13668.75	12780.25
976.0115	2489.8195	13625.65	12718
976.1397	2491.165	13584.75	12691.6
976.2678	2492.5097	13553.7	12661.9
976.3959	2493.8538	13485.5	12594.3
976.524	2495.1972	13407.15	12517.3
976.6521	2496.5398	13354.9	12463.35
976.7801	2497.8818	13327.45	12434.4
976.9081	2499.2231	13292.05	12400.55
977.036	2500.5637	13231.6	12338.6
977.164	2501.9035	13184.05	12293.5
977.2918	2503.2427	13177.85	12283.15
977.4197	2504.5812	13115.85	12224.25
977.5475	2505.919	13083.9	12190.7
977.6753	2507.256	13031.65	12142.25
977.8031	2508.5924	12963.05	12072.1
977.9308	2509.9281	12929.95	12032.2
978.0585	2511.2631	12871.05	11981.05
978.1861	2512.5974	12851.5	11961.1
978.3137	2513.9309	12811.1	11921.15
978.4413	2515.2638	12759.6	11842.95
978.5689	2516.596	12740.95	11850.55
978.6964	2517.9275	12665.8	11774.6
978.8239	2519.2583	12624	11732.75
978.9513	2520.5884	12558.4	11666.25
979.0788	2521.9178	12485.3	11592.7
979.2062	2523.2465	12473	11581.9
979.3335	2524.5745	12383.3	11492.2
979.4608	2525.9018	12403.3	11511.05
979.5881	2527.2284	12353.9	11464.95
979.7154	2528.5543	12311	11419.8
979.8426	2529.8796	12268.45	11376.1
979.9698	2531.2041	12270.85	11379.4
980.0969	2532.5279	12230.2	11340.1
980.224	2533.851	12199.8	11309.95
980.3511	2535.1735	12154.85	11264.65
980.4781	2536.4952	12117.3	11228.25
980.6052	2537.8163	12100.95	11208.95
980.7321	2539.1366	12035.55	11144.6
980.8591	2540.4562	11996.7	11104.2
980.986	2541.7752	11977.5	11087.3
981.1129	2543.0935	11952.4	11062.7
981.2397	2544.411	11924.9	11033.5
981.3665	2545.7279	11898.6	11008.8
981.4933	2547.0441	11885.45	10995.15
981.62	2548.3596	11846.3	10951.95
981.7467	2549.6744	11816.65	10926.8
981.8734	2550.9885	11772.8	10874.25
982.0001	2552.3019	11726.95	10836.15
982.1267	2553.6146	11725.3	10833.25
982.2532	2554.9266	11649.9	10760.35
982.3798	2556.2379	11614.1	10723.3
982.5063	2557.5485	11594.4	10706.15
982.6327	2558.8585	11546.85	10649.45
982.7592	2560.1677	11539.45	10644.35
982.8856	2561.4762	11532.9	10642.55
983.0119	2562.7841	11498	10602.65
983.1383	2564.0913	11484.1	10595.9
983.2646	2565.3977	11433.65	10543.55
983.3908	2566.7035	11398.5	10506.75
983.517	2568.0086	11408.55	10516.6
983.6432	2569.313	11389.6	10495.9
983.7694	2570.6167	11337.25	10442.4
983.8955	2571.9197	11279.35	10388.9
984.0216	2573.222	11281.55	10387.35
984.1476	2574.5236	11254.95	10365.15
984.2737	2575.8246	11211.4	10315.85
984.3996	2577.1248	11187.85	10294.15
984.5256	2578.4244	11150.45	10259.5
984.6515	2579.7232	11152.85	10260.65
984.7774	2581.0214	11149.35	10234.65
984.9032	2582.3189	11083.45	10194.35
985.029	2583.6157	11048.35	10153.25
985.1548	2584.9118	11055	10162.7
985.2806	2586.2072	11002.2	10112.05
985.4063	2587.5019	10957	10068.8
985.5319	2588.7959	10950.7	10060.2
985.6576	2590.0893	10943.45	10049.85
985.7832	2591.3819	10874.55	9986.6
985.9087	2592.6739	10829.65	9937.9
986.0343	2593.9652	10813.45	9922.25
986.1597	2595.2557	10776.85	9887.15
986.2852	2596.5456	10738.4	9843.9
986.4106	2597.8348	10669.65	9780.7
986.536	2599.1234	10620.35	9731
986.6614	2600.4112	10607.05	9717.7
986.7867	2601.6983	10589.8	9695.1
986.912	2602.9848	10533.55	9643.05
987.0372	2604.2705	10499.95	9601.9
987.1624	2605.5556	10496.5	9604.6
987.2876	2606.84	10423.2	9533.9
987.4128	2608.1237	10389.85	9497.75
987.5379	2609.4067	10356.2	9465.75
987.6629	2610.689	10323.5	9426.15
987.788	2611.9707	10286.95	9393.35
987.913	2613.2516	10235.75	9341.1
988.0379	2614.5319	10197.7	9308
988.1629	2615.8115	10159.1	9267.8
988.2878	2617.0903	10094.85	9203.05
988.4126	2618.3685	10076.7	9185.95
988.5375	2619.6461	10053.55	9161.7
988.6622	2620.9229	9981.2	9091.85
988.787	2622.199	9965.95	9073.85
988.9117	2623.4745	9938.65	9048.3
989.0364	2624.7493	9905.9	9014.9
989.161	2626.0234	9877.05	8987.75
989.2857	2627.2968	9856.7	8965.25
989.4102	2628.5695	9806.5	8915.8
989.5348	2629.8415	9752.65	8862.35
989.6593	2631.1128	9700.95	8807.55
989.7837	2632.3835	9662.65	8773.55
989.9082	2633.6535	9613.1	8722.1
990.0326	2634.9228	9612.35	8722.6
990.1569	2636.1914	9583.1	8692.4
990.2812	2637.4593	9562.45	8671.8
990.4055	2638.7265	9507.05	8616.25
990.5298	2639.9931	9502.55	8611.7
990.654	2641.259	9454.1	8561.3
990.7782	2642.5242	9424.4	8534.05
990.9023	2643.7887	9398.35	8505.85
991.0264	2645.0525	9376.25	8484.35
991.1505	2646.3156	9317.8	8426.65
991.2745	2647.5781	9291.7	8401.65
991.3985	2648.8398	9254.5	8366
991.5225	2650.1009	9246.5	8347.4
991.6464	2651.3613	9188.1	8296.35
991.7703	2652.6211	9195	8304.35
991.8942	2653.8801	9135.05	8246.35
992.018	2655.1385	9138.05	8245.25
992.1418	2656.3961	9097.1	8205.85
992.2655	2657.6531	9077.9	8188.55
992.3892	2658.9094	9058.2	8166.7
992.5129	2660.1651	9026	8136.9
992.6366	2661.42	9042.25	8150.75
992.7602	2662.6743	8989	8099.05
992.8837	2663.9279	8972.5	8082.8
993.0073	2665.1808	8921.3	8030.35
993.1307	2666.433	8910.55	8019.4
993.2542	2667.6846	8890.5	8001.2
993.3776	2668.9354	8844.85	7950.6
993.501	2670.1856	8849.9	7957.85
993.6244	2671.4351	8812.05	7921.4
993.7477	2672.6839	8783.8	7891.95
993.8709	2673.9321	8731.1	7842.35
993.9942	2675.1795	8722.3	7832.3
994.1174	2676.4263	8675.9	7785.05
994.2405	2677.6724	8666.75	7778.45
994.3637	2678.9179	8641.2	7750
994.4868	2680.1626	8607.8	7717.2
994.6098	2681.4067	8582.1	7690.7
994.7328	2682.6501	8568.55	7679.6
994.8558	2683.8928	8527	7637.5
994.9788	2685.1348	8506.85	7615.95
995.1017	2686.3761	8470.3	7579.05
995.2245	2687.6168	8451.7	7562.95
995.3474	2688.8568	8400.55	7511.8
995.4702	2690.0961	8389.65	7501.8
995.5929	2691.3348	8364.15	7474.8
995.7156	2692.5727	8316.55	7426.05
995.8383	2693.81	8317.85	7426.9
995.961	2695.0466	8267.95	7380.4
996.0836	2696.2826	8269	7375.7
996.2062	2697.5178	8253.25	7358.85
996.3287	2698.7524	8200.05	7309.4
996.4512	2699.9863	8197.5	7304.5
996.5737	2701.2195	8158.25	7269.2
996.6961	2702.452	8137.4	7244.5
996.8185	2703.6839	8121.1	7229.8
996.9408	2704.9151	8095.2	7206.65
997.0631	2706.1456	8072.1	7181.95
997.1854	2707.3755	8027.3	7137.9
997.3077	2708.6046	8022.25	7129.85
997.4299	2709.8331	7993.05	7101.05
997.552	2711.0609	7954.3	7063.65
997.6742	2712.2881	7941.4	7049.85
997.7963	2713.5145	7900.05	7006.45
997.9183	2714.7403	7918.35	7028.85
998.0403	2715.9654	7890.45	6998.6
998.1623	2717.1899	7880.75	6976.15
998.2842	2718.4136	7858.05	6969.2
998.4062	2719.6367	7838.3	6948.4
998.528	2720.8591	7802.65	6906.95
998.6498	2722.0809	7782	6890.1
998.7716	2723.3019	7773.15	6877.65
998.8934	2724.5223	7749.35	6858.45
999.0151	2725.7421	7707.35	6816.85
999.1368	2726.9611	7691.4	6800.6
999.2584	2728.1795	7672.4	6779.05
999.38	2729.3972	7648.5	6756.8
999.5016	2730.6142	7600.05	6697.6
999.6231	2731.8306	7562.65	6670.75
999.7446	2733.0462	7516.25	6623.6
999.8661	2734.2612	7482.4	6586.85
999.9875	2735.4756	7439.85	6546.1
1000.1089	2736.6892	7370.05	6479.65
1000.2302	2737.9022	7329.15	6440.85
1000.3515	2739.1145	7323.65	6433.8
1000.4728	2740.3262	7289	6389.95
1000.594	2741.5372	7251.35	6361.6
1000.7152	2742.7475	7210.55	6319.65
1000.8363	2743.9571	7189.05	6295.45
1000.9575	2745.1661	7166.9	6272.65
1001.0785	2746.3744	7122.45	6230.85
1001.1996	2747.582	7096.3	6207.45
1001.3206	2748.7889	7079.35	6187.95
1001.4415	2749.9952	7024.3	6133.65
1001.5625	2751.2008	7009.15	6119.2
1001.6833	2752.4057	6996.55	6105.15
1001.8042	2753.61	6958.65	6067.2
1001.925	2754.8136	6943.7	6051.85
1002.0458	2756.0165	6923.2	6033
1002.1665	2757.2188	6888	5998.8
1002.2872	2758.4204	6887.9	5998.15
1002.4078	2759.6213	6851.35	5958.25
1002.5285	2760.8215	6858.95	5964.2
1002.649	2762.0211	6800.85	5909
1002.7696	2763.22	6781.4	5887.65
1002.8901	2764.4182	6770.45	5878.55
1003.0106	2765.6158	6733	5842.1
1003.131	2766.8127	6708.25	5818.35
1003.2514	2768.009	6692.15	5802.35
1003.3717	2769.2045	6682.7	5792.65
1003.492	2770.3994	6648.25	5756.85
1003.6123	2771.5936	6635.25	5744.45
1003.7325	2772.7872	6593.75	5704.15
1003.8527	2773.9801	6564.15	5675
1003.9729	2775.1723	6544.85	5637.4
1004.093	2776.3639	6526.2	5635.05
1004.2131	2777.5548	6494.45	5602.7
1004.3331	2778.745	6484	5592.25
1004.4531	2779.9346	6485.75	5597.05
1004.5731	2781.1235	6460.85	5568.95
1004.693	2782.3117	6426.75	5535.8
1004.8129	2783.4992	6415.1	5525.8
1004.9328	2784.6861	6394.25	5505.05
1005.0526	2785.8723	6370.25	5478.5
1005.1723	2787.0579	6353.75	5463.4
1005.2921	2788.2428	6332.1	5439.75
1005.4118	2789.427	6321.45	5432.55
1005.5314	2790.6106	6308.7	5418.55
1005.651	2791.7935	6323.3	5432.15
1005.7706	2792.9757	6271.85	5382.6
1005.8902	2794.1573	6267.65	5374.9
1006.0097	2795.3382	6258.9	5368.35
1006.1291	2796.5184	6242.95	5353.75
1006.2485	2797.698	6251.8	5361.75
1006.3679	2798.8769	6242.05	5351.4
1006.4873	2800.0551	6223.3	5333.2
1006.6066	2801.2327	6204.55	5310.85
1006.7258	2802.4096	6218.1	5328.8
1006.8451	2803.5859	6217.65	5328
1006.9642	2804.7615	6213.7	5324
1007.0834	2805.9364	6197.4	5309.05
1007.2025	2807.1106	6227.85	5338.6
1007.3216	2808.2842	6230.1	5339.1
1007.4406	2809.4572	6235.5	5346
1007.5596	2810.6294	6246.35	5353.5
1007.6785	2811.801	6263.5	5374.05
1007.7975	2812.972	6292.95	5403.05
1007.9163	2814.1423	6317.9	5428.55
1008.0352	2815.3119	6332.65	5442.75
1008.154	2816.4808	6360.2	5471.2
1008.2727	2817.6491	6387.8	5497.75
1008.3914	2818.8167	6442.95	5555.1
1008.5101	2819.9837	6473.8	5578.5
1008.6288	2821.15	6498	5609.7
1008.7474	2822.3157	6510.6	5621.45
1008.8659	2823.4807	6557.9	5667.8
1008.9844	2824.645	6574.85	5683.1
1009.1029	2825.8086	6582.4	5692.85
1009.2214	2826.9716	6634.05	5744.25
1009.3398	2828.134	6678.65	5787.6
1009.4581	2829.2957	6688.3	5799.15
1009.5764	2830.4567	6699.6	5812.55
1009.6947	2831.617	6696.55	5806.6
1009.813	2832.7767	6688	5799.45
1009.9312	2833.9358	6680.35	5791.8
1010.0493	2835.0941	6659.45	5769.3
1010.1675	2836.2519	6637.1	5745.35
1010.2855	2837.4089	6626.7	5736.25
1010.4036	2838.5653	6621.5	5732.45
1010.5216	2839.7211	6585.6	5697.3
1010.6396	2840.8761	6594.05	5703.25
1010.7575	2842.0306	6574.75	5686.05
1010.8754	2843.1843	6598.3	5710.15
1010.9932	2844.3374	6634.65	5745.4
1011.111	2845.4899	6673.95	5782.95
1011.2288	2846.6417	6745.35	5856.85
1011.3465	2847.7928	6803.45	5914.5
1011.4642	2848.9433	6846.4	5955.55
1011.5818	2850.0931	6918.75	6028.4
1011.6995	2851.2422	6971.55	6079.75
1011.817	2852.3907	7015.95	6126.65
1011.9345	2853.5385	7067.85	6174.85
1012.052	2854.6857	7144.15	6226.7
1012.1695	2855.8323	7135.95	6248.55
1012.2869	2856.9781	7187.9	6297.85
1012.4042	2858.1233	7222.95	6334.25
1012.5216	2859.2679	7232.5	6345.5
1012.6389	2860.4118	7274.55	6383.95
1012.7561	2861.555	7291.6	6396.55
1012.8733	2862.6976	7299	6408.45
1012.9905	2863.8395	7328.55	6438.3
1013.1076	2864.9808	7321.4	6431.55
1013.2247	2866.1214	7304.15	6413.75
1013.3417	2867.2614	7299.5	6408.25
1013.4587	2868.4007	7312.95	6421.4
1013.5757	2869.5393	7299.8	6408.25
1013.6926	2870.6773	7290.65	6397.75
1013.8095	2871.8146	7294.45	6400.7
1013.9263	2872.9513	7274.95	6382.5
1014.0431	2874.0874	7253.2	6364.65
1014.1599	2875.2227	7243.95	6352.5
1014.2766	2876.3574	7183.95	6294.7
1014.3933	2877.4915	7142.65	6254.25
1014.51	2878.6249	7107.25	6216.5
1014.6266	2879.7577	7070.75	6180.05
1014.7431	2880.8898	7047.25	6147.85
1014.8596	2882.0212	6999.85	6113.95
1014.9761	2883.152	6987.8	6097.15
1015.0925	2884.2821	6949.3	6062.05
1015.2089	2885.4116	6908.75	6020.7
1015.3253	2886.5405	6903.8	6014.9
1015.4416	2887.6686	6906.55	6015.45
1015.5579	2888.7962	6888.55	5999.5
1015.6741	2889.923	6889.9	6001.9
1015.7903	2891.0493	6879.05	5990.35
1015.9065	2892.1748	6846.55	5957.5
1016.0226	2893.2997	6858.4	5968.5
1016.1387	2894.424	6847.15	5958.65
1016.2547	2895.5476	6843	5952.05
1016.3707	2896.6706	6848.95	5960.75
1016.4866	2897.7929	6865.8	5974.75
1016.6025	2898.9145	6891.2	6001.55
1016.7184	2900.0355	6901.85	6011.4
1016.8342	2901.1559	6892.25	6003.2
1016.95	2902.2756	6919.55	6032.7
1017.0658	2903.3946	6933.65	6045.55
1017.1815	2904.513	6950.25	6059.75
1017.2971	2905.6308	6931.65	6041.45
1017.4127	2906.7479	6953.05	6063.25
1017.5283	2907.8643	6963.15	6072.65
1017.6439	2908.9801	6971.5	6082
1017.7594	2910.0953	6952.85	6065.45
1017.8748	2911.2098	6924.5	6031.3
1017.9902	2912.3236	6893.65	5996.75
1018.1056	2913.4368	6888.8	5996.45
1018.2209	2914.5494	6848.05	5959.45
1018.3362	2915.6613	6819.75	5925.7
1018.4515	2916.7725	6778.9	5886.9
1018.5667	2917.8831	6746.6	5855.5
1018.6819	2918.9931	6701.95	5811.4
1018.797	2920.1024	6645.55	5755.4
1018.9121	2921.211	6638.8	5750.55
1019.0271	2922.319	6585.75	5695.05
1019.1421	2923.4264	6574.3	5684
1019.2571	2924.5331	6559.25	5668.5
1019.372	2925.6391	6515.55	5626.2
1019.4869	2926.7445	6490.5	5601.9
1019.6017	2927.8493	6499.85	5611.6
1019.7165	2928.9534	6452.85	5563.95
1019.8313	2930.0569	6460.95	5569.2
1019.946	2931.1597	6445.9	5555.45
1020.0606	2932.2619	6411.55	5522.55
1020.1753	2933.3634	6421.25	5532.45
1020.2899	2934.4643	6389.5	5493.9
1020.4044	2935.5645	6350.25	5453.8
1020.5189	2936.6641	6327.65	5432.5
1020.6334	2937.763	6247.85	5358.5
1020.7478	2938.8613	6194.6	5306.15
1020.8622	2939.959	6139.25	5242.6
1020.9765	2941.056	6031.35	5142.3
1021.0908	2942.1523	5973.55	5083.7
1021.2051	2943.248	5877	4985.6
1021.3193	2944.3431	5742.6	4853.9
1021.4334	2945.4375	5645.8	4752.85
1021.5476	2946.5313	5540.1	4652.35
1021.6617	2947.6244	5441.2	4553.85
1021.7757	2948.7169	5319.8	4428.4
1021.8897	2949.8087	5222.05	4331.45
1022.0037	2950.8999	5106.9	4216.3
1022.1176	2951.9904	5032.65	4144.9
1022.2315	2953.0803	4948.55	4060.15
1022.3453	2954.1696	4867.15	3978.25
1022.4591	2955.2582	4812.1	3924.45
1022.5728	2956.3462	4753.3	3863.3
1022.6865	2957.4335	4699.8	3809.35
1022.8002	2958.5202	4655.9	3764.3
1022.9138	2959.6062	4613.45	3723.75
1023.0274	2960.6916	4577.4	3687.95
1023.141	2961.7764	4544.1	3653.45
1023.2545	2962.8605	4521.65	3632.35
1023.3679	2963.9439	4493.9	3605.8
1023.4813	2965.0267	4469.45	3577.75
1023.5947	2966.1089	4453.4	3540.25
1023.708	2967.1905	4425.8	3535.7
1023.8213	2968.2714	4413.75	3524.65
1023.9346	2969.3516	4396.15	3507
1024.0478	2970.4312	4404.8	3508.05
1024.1609	2971.5102	4377.85	3489.05
1024.274	2972.5885	4375.75	3486.9
1024.3871	2973.6662	4363.6	3469.65
1024.5002	2974.7432	4353.95	3464.45
1024.6132	2975.8196	4323.45	3435
1024.7261	2976.8954	4305	3417.35
1024.839	2977.9705	4295.25	3406
1024.9519	2979.045	4261.75	3371.25
1025.0647	2980.1188	4242.65	3355.25
1025.1775	2981.192	4198.3	3309.7
1025.2902	2982.2645	4165.5	3274.4
1025.4029	2983.3364	4165.3	3275.65
1025.5156	2984.4077	4094.05	3204.9
1025.6282	2985.4783	4071.7	3177.85
1025.7407	2986.5483	4017.9	3129.55
1025.8532	2987.6177	3986.15	3096.8
1025.9657	2988.6864	3941.9	3052.85
1026.0782	2989.7545	3918.45	3027.25
1026.1906	2990.8219	3864.55	2977.15
1026.3029	2991.8887	3829.6	2937.8
1026.4152	2992.9548	3803.75	2914.25
1026.5275	2994.0204	3754.4	2868.8
1026.6397	2995.0852	3714.75	2826.5
1026.7519	2996.1495	3689.25	2800.6
1026.864	2997.2131	3653.9	2764.8
1026.9761	2998.276	3622.35	2732.7
1027.0882	2999.3383	3591.25	2699.75
1027.2002	3000.4	3577.7	2689.15
1027.3122	3001.4611	3535.25	2648.2
1027.4241	3002.5215	3527.95	2639.65
1027.536	3003.5812	3504.9	2615.3
1027.6478	3004.6404	3478.25	2588.8
1027.7596	3005.6989	3461.65	2569.15
1027.8714	3006.7567	3448.1	2557.95
1027.9831	3007.8139	3447.75	2538.85
1028.0947	3008.8705	3400.95	2510.65
1028.2064	3009.9264	3405.4	2516.55
1028.3179	3010.9818	3390.25	2501.2
1028.4295	3012.0364	3372.2	2481.75
1028.541	3013.0905	3373.85	2485.85
1028.6524	3014.1439	3349.3	2460.3
1028.7638	3015.1966	3339.5	2450.15
1028.8752	3016.2487	3324.9	2435.6
1028.9865	3017.3002	3332.65	2436.15
1029.0978	3018.3511	3318.8	2430.15
1029.209	3019.4013	3309.05	2420.6
1029.3202	3020.4509	3285.9	2398.15
1029.4314	3021.4998	3294.3	2405.55
1029.5425	3022.5481	3280.8	2391.5
1029.6535	3023.5958	3277.2	2388.75
1029.7645	3024.6428	3266.85	2377.5
1029.8755	3025.6892	3257.05	2369.5
1029.9864	3026.735	3269.1	2380.15
1030.0973	3027.7802	3243.8	2355.05
1030.2082	3028.8247	3220.5	2331.6
1030.319	3029.8685	3214.25	2325.05
1030.4297	3030.9118	3228.3	2338.2
1030.5404	3031.9544	3214.05	2325.55
1030.6511	3032.9963	3207.2	2317.95
1030.7617	3034.0376	3194.15	2307.15
1030.8723	3035.0783	3202.45	2310.55
1030.9829	3036.1184	3213.3	2323.05
1031.0934	3037.1578	3199.4	2313.1
1031.2038	3038.1966	3186.25	2294.8
1031.3142	3039.2348	3181.3	2293.9
1031.4246	3040.2723	3168.9	2272.45
1031.5349	3041.3092	3145.5	2259.15
1031.6452	3042.3455	3147.75	2259.55
1031.7554	3043.3811	3149.7	2258.75
1031.8656	3044.4161	3131.4	2241.35
1031.9758	3045.4505	3102.8	2213.4
1032.0859	3046.4842	3095.85	2207.1
1032.1959	3047.5173	3087.15	2200.15
1032.3059	3048.5498	3069.8	2180.55
1032.4159	3049.5816	3065.7	2178
1032.5258	3050.6128	3053.2	2164.65
1032.6357	3051.6434	3045.9	2154.4
1032.7455	3052.6734	3026.75	2137.05
1032.8553	3053.7027	3022.95	2134
1032.9651	3054.7314	3011.85	2123
1033.0748	3055.7594	2971.4	2083.65
1033.1845	3056.7868	2981.3	2091.65
1033.2941	3057.8136	2961.4	2075.7
1033.4037	3058.8398	2950.45	2062.7
1033.5132	3059.8653	2941.7	2052.35
1033.6227	3060.8902	2920.9	2031.4
1033.7321	3061.9145	2911.9	2022.25
1033.8415	3062.9381	2890.65	2002.3
1033.9509	3063.9612	2906.8	2003.9
1034.0602	3064.9835	2872.1	1983.65
1034.1694	3066.0053	2865.15	1975.2
1034.2787	3067.0264	2852.55	1964.4
1034.3878	3068.0469	2836.1	1944.85
1034.497	3069.0668	2841.05	1951.8
1034.6061	3070.086	2813.25	1925.65
1034.7151	3071.1046	2805.95	1916.95
1034.8241	3072.1226	2785.7	1896.2
1034.9331	3073.1399	2764.65	1876.55
1035.042	3074.1567	2748.1	1858.05
1035.1508	3075.1727	2739.5	1848.9
1035.2597	3076.1882	2715.85	1824.8
1035.3684	3077.203	2702.95	1812.45
1035.4772	3078.2173	2709.3	1818.8
1035.5859	3079.2308	2684.15	1793.35
1035.6945	3080.2438	2679.4	1788.35
1035.8031	3081.2561	2660.25	1772.75
1035.9117	3082.2678	2661	1772.4
1036.0202	3083.2789	2624.15	1734.55
1036.1286	3084.2893	2622.4	1732.65
1036.2371	3085.2991	2603.75	1715.4
1036.3454	3086.3083	2595.75	1703.05
1036.4538	3087.3169	2588.5	1697.35
1036.562	3088.3248	2576.5	1686.95
1036.6703	3089.3321	2573.45	1683.25
1036.7785	3090.3388	2557.9	1669.2
1036.8866	3091.3449	2551	1662.9
1036.9948	3092.3503	2528	1638.9
1037.1028	3093.3551	2529.5	1643.8
1037.2108	3094.3593	2522.75	1637.15
1037.3188	3095.3629	2511	1623.6
1037.4267	3096.3658	2500.75	1611.15
1037.5346	3097.3681	2481	1592.75
1037.6425	3098.3698	2494.55	1602.25
1037.7503	3099.3708	2468.75	1571.85
1037.858	3100.3713	2455.1	1567.05
1037.9657	3101.3711	2446.85	1557.95
1038.0734	3102.3702	2559.35	1533.35
1038.181	3103.3688	2442	1551.3
1038.2886	3104.3667	2426.6	1540.35
1038.3961	3105.364	2405.85	1517.75
1038.5036	3106.3607	2396.05	1506.2
1038.611	3107.3568	2395.1	1505.9
1038.7184	3108.3522	2378.35	1490.85
1038.8257	3109.347	2378.45	1487.9
1038.933	3110.3412	2369.5	1475.6
1039.0403	3111.3348	2362.4	1473.3
1039.1475	3112.3277	2335.95	1447.8
1039.2547	3113.32	2341.65	1455.5
1039.3618	3114.3117	2343.5	1453.8
1039.4689	3115.3028	2322.6	1435.95
1039.5759	3116.2932	2325.5	1435.95
1039.6829	3117.2831	2301.65	1406.7
1039.7898	3118.2723	2301.2	1411.4
1039.8967	3119.2608	2287.8	1399.9
1040.0035	3120.2488	2286.2	1399.15
1040.1103	3121.2361	2273.2	1383.9
1040.2171	3122.2229	2258.25	1370.7
1040.3238	3123.209	2257.15	1368.25
1040.4305	3124.1944	2254.1	1366
1040.5371	3125.1793	2240.5	1349.15
1040.6437	3126.1635	2237.9	1349.65
1040.7502	3127.1471	2230.95	1341.9
1040.8567	3128.1301	2207.45	1318.95
1040.9631	3129.1125	2213.2	1325.35
1041.0695	3130.0942	2208.3	1318.4
1041.1759	3131.0753	2209.1	1313.65
1041.2822	3132.0558	2206.15	1312.9
1041.3884	3133.0357	2192.15	1302.75
1041.4946	3134.015	2179.05	1289.65
1041.6008	3134.9936	2180.95	1290.95
1041.7069	3135.9716	2200.45	1288.9
1041.813	3136.949	2171.25	1283.7
1041.919	3137.9258	2157.25	1265.05
1042.025	3138.902	2157.6	1263.35
1042.1309	3139.8775	2158.2	1268.8
1042.2368	3140.8524	2144.15	1255.8
1042.3427	3141.8267	2141.2	1250.4
1042.4485	3142.8004	2133.8	1242.35
1042.5542	3143.7735	2133.15	1240.65
1042.6599	3144.7459	2125.7	1236.1
1042.7656	3145.7178	2120.1	1231.2
1042.8712	3146.689	2113.6	1227.55
1042.9768	3147.6596	2095.15	1204.45
1043.0823	3148.6295	2090.75	1202.7
1043.1878	3149.5989	2089.65	1200.9
1043.2932	3150.5676	2076	1187.35
1043.3986	3151.5357	2077.85	1190.9
1043.5039	3152.5032	2067.85	1180.85
1043.6092	3153.4701	2064.5	1175.75
1043.7145	3154.4364	2049.2	1156.95
1043.8197	3155.402	2054.85	1166.9
1043.9248	3156.367	2052.25	1162.85
1044.03	3157.3315	2072.85	1140.2
1044.135	3158.2952	2023.45	1135
1044.24	3159.2584	2015.95	1129.35
1044.345	3160.221	2011.85	1123
1044.4499	3161.1829	2018.3	1129.95
1044.5548	3162.1442	1993.95	1106.8
1044.6596	3163.105	2005.7	1116.35
1044.7644	3164.065	1988.85	1099.9
1044.8692	3165.0245	1986.8	1094.65
1044.9739	3165.9834	1972.85	1086.55
1045.0785	3166.9416	1971.2	1084.6
1045.1831	3167.8993	1972	1085.45
1045.2877	3168.8563	1963.95	1076.2
1045.3922	3169.8127	1952	1063.7
1045.4966	3170.7684	1956.7	1070
1045.6011	3171.7236	1939.8	1050.75
1045.7054	3172.6782	1942.55	1053.85
1045.8098	3173.6321	1930.6	1041.6
1045.914	3174.5854	1937.15	1043.65
1046.0183	3175.5381	1920.3	1032.05
1046.1224	3176.4902	1908	1020.35
1046.2266	3177.4417	1902.9	1014.15
1046.3307	3178.3926	1904.85	1017.9
1046.4347	3179.3428	1894.7	1006.4
1046.5387	3180.2924	1890.25	1003.05
1046.6427	3181.2415	1888.9	999.6
1046.7466	3182.1899	1887.45	996.55
1046.8504	3183.1377	1870.95	981.85
1046.9542	3184.0848	1870.3	978.5
1047.058	3185.0314	1855.55	965.55
1047.1617	3185.9773	1855.15	966.65
1047.2654	3186.9227	1851	962.4
1047.369	3187.8674	1848.25	961.9
1047.4726	3188.8115	1836.95	944.2
1047.5761	3189.755	1840.75	953.6
1047.6796	3190.6979	1837.35	949.3
1047.783	3191.6402	1827.05	941.2
1047.8864	3192.5818	1829.6	942.05
1047.9898	3193.5229	1845.05	931.4
1048.0931	3194.4633	1820.95	933
1048.1963	3195.4031	1817.7	928.85
1048.2995	3196.3423	1801.95	914
1048.4027	3197.2809	1802.95	914.3
1048.5058	3198.2189	1793.5	905.85
1048.6089	3199.1563	1799.1	903.8
1048.7119	3200.0931	1788.95	900.4
1048.8148	3201.0292	1777	889.8
1048.9178	3201.9648	1782.9	893.85
1049.0206	3202.8997	1776.15	884.15
1049.1235	3203.834	1763.35	875.8
1049.2262	3204.7677	1758.7	869.8
1049.329	3205.7008	1757.85	868.45
1049.4317	3206.6333	1749.75	863.25
1049.5343	3207.5652	1753.9	865.2
1049.6369	3208.4964	1734.9	847.1
1049.7394	3209.4271	1738.25	850.25
1049.8419	3210.3571	1733.35	847.35
1049.9444	3211.2865	1726	837.7
1050.0468	3212.2154	1725.95	836.15
1050.1491	3213.1436	1725.3	833.55
1050.2514	3214.0712	1730.25	835.8
1050.3537	3214.9982	1722.65	834.25
1050.4559	3215.9246	1718.7	830.05
1050.5581	3216.8503	1707.6	821.1
1050.6602	3217.7755	1706.65	820.15
1050.7623	3218.7001	1696.25	809.6
1050.8643	3219.624	1695.45	804.55
1050.9663	3220.5473	1688.25	799.3
1051.0682	3221.4701	1683	794.75
1051.1701	3222.3922	1674.65	784.6
1051.2719	3223.3137	1671.55	782.25
1051.3737	3224.2346	1673.15	783.85
1051.4754	3225.1549	1672.75	783.65
1051.5771	3226.0746	1659.25	771.45
1051.6788	3226.9937	1658.15	768.85
1051.7804	3227.9121	1650	762.1
1051.8819	3228.83	1647.85	761.45
1051.9834	3229.7473	1648.15	760.25
1052.0849	3230.6639	1644.15	756.15
1052.1863	3231.5799	1643.05	756.25
1052.2876	3232.4954	1634.55	747.15
1052.3889	3233.4102	1634.2	746.45
1052.4902	3234.3244	1622.75	732.9
1052.5914	3235.238	1617.1	730.95
1052.6926	3236.151	1642.9	732.55
1052.7937	3237.0634	1617.8	730.05
1052.8948	3237.9752	1612.4	724.2
1052.9958	3238.8864	1605.4	717.35
1053.0968	3239.797	1610.6	723.6
1053.1977	3240.7069	1598.9	710.6
1053.2986	3241.6163	1598.25	708.25
1053.3994	3242.5251	1586.15	699.05
1053.5002	3243.4332	1586.45	699.4
1053.6009	3244.3408	1579	691.4
1053.7016	3245.2477	1583.8	694.25
1053.8022	3246.154	1569.3	681.55
1053.9028	3247.0598	1557.75	668.35
1054.0034	3247.9649	1562.5	674.75
1054.1039	3248.8694	1559.45	672.35
1054.2043	3249.7733	1555.8	668
1054.3047	3250.6766	1551.1	664.05
1054.4051	3251.5793	1551.45	660.5
1054.5054	3252.4814	1538.7	652
1054.6056	3253.3829	1539	651.05
1054.7058	3254.2838	1532.7	644.95
1054.806	3255.1841	1528.2	642.05
1054.9061	3256.0838	1520.5	630.6
1055.0061	3256.9829	1520.35	634.55
1055.1062	3257.8814	1516.55	626.35
1055.2061	3258.7792	1509.6	618.55
1055.306	3259.6765	1501.5	614
1055.4059	3260.5731	1499.45	612.7
1055.5057	3261.4692	1488	599.85
1055.6055	3262.3647	1482.65	596.15
1055.7052	3263.2595	1469.5	580.9
1055.8049	3264.1538	1462.9	575
1055.9045	3265.0474	1450.4	561
1056.0041	3265.9404	1445.1	555.8
1056.1036	3266.8329	1435.55	548.75
1056.2031	3267.7247	1436.2	539.75
1056.3025	3268.616	1417.8	530
1056.4019	3269.5066	1399.55	511.05
1056.5013	3270.3966	1395.5	505.45
1056.6005	3271.286	1371.75	486.75
