Software Version:	3.9.2.0
Unit SN:	10000200
Spectrometer SN:	6960
Date:	3/6/2024 10:38:48 AM
Data Line Index:	25
Spectral Points:	2048
Integration time (ms):	125
Averages:	20
Delay (ms):	30
Sequence Number:	1
Processing:	dark subtract
Laser Power (mW):	300
Laser Current (mA):	823
Laser Diode Temp (C):	25.1
Laser Case Temp (C):	26.8
System Temp (C):	26.6
Spectrometer Temp (C):	24
CCD Temp (C):	-0.003
Secondary Temp (C):	20.001
Heatsink Temp (C):	22.309
CCDPCB Temp (C):	36.374
SecondaryPCB Temp (C):	32.505

Wavelength	RamanShift	Raw Counts	Dark Subtracted
787.061	30.1047	1133.35	719.75
787.2016	32.3739	1157.1	743.55
787.3422	34.6426	1202.2	786.9
787.4828	36.9109	1252.05	836.4
787.6235	39.1787	1311.7	891.35
787.7642	41.4461	1372.55	949.2
787.9049	43.7131	1426.1	999.75
788.0456	45.9796	1493	1063.15
788.1863	48.2456	1569.55	1134.75
788.3271	50.5112	1640.75	1204.8
788.4679	52.7764	1712.1	1273.05
788.6087	55.0411	1786.2	1341.55
788.7496	57.3054	1859.4	1409.65
788.8904	59.5692	1960.5	1510.95
789.0313	61.8326	2054.75	1600.5
789.1722	64.0955	2164.15	1707.35
789.3132	66.3579	2290.8	1828.2
789.4541	68.6199	2450.25	1985.9
789.5951	70.8815	2714.05	2244.65
789.7361	73.1426	3237.5	2763.15
789.8771	75.4032	4556.7	4078.05
790.0181	77.6634	7959.8	7475.95
790.1592	79.9231	16893.15	16403.45
790.3003	82.1824	55078.85	54577.55
790.4414	84.4412	65535	65012.65
790.5825	86.6995	65535	64983
790.7237	88.9574	65535	64958.05
790.8648	91.2148	65535	64940.7
791.006	93.4717	65535	64925.5
791.1472	95.7282	65535	64918.55
791.2885	97.9842	65535	64916.55
791.4297	100.2398	65535	64914.3
791.571	102.4949	65535	64908.85
791.7123	104.7495	65535	64906.3
791.8536	107.0036	65535	64909.25
791.9949	109.2573	65535	64907.65
792.1363	111.5105	65535	64904.8
792.2777	113.7632	65535	64904.1
792.4191	116.0154	65535	64889.25
792.5605	118.2672	65535	64901.5
792.7019	120.5185	65535	64898.35
792.8434	122.7693	65535	64896.3
792.9849	125.0197	65535	64890.55
793.1264	127.2696	65535	64886.8
793.2679	129.519	65535	64883.4
793.4094	131.7679	65535	64882
793.551	134.0163	65535	64880
793.6926	136.2642	65535	64873.95
793.8342	138.5117	65535	64865.4
793.9758	140.7587	65535	64871.65
794.1175	143.0052	65535	64871.35
794.2591	145.2512	65535	64872.75
794.4008	147.4967	65535	64867
794.5425	149.7417	65535	64865.9
794.6842	151.9863	65535	64861.85
794.826	154.2304	65535	64858.9
794.9677	156.4739	65535	64851.25
795.1095	158.717	65535	64848.7
795.2513	160.9596	65535	64849.2
795.3931	163.2017	65535	64846.6
795.535	165.4433	65535	64845.55
795.6768	167.6844	65535	64845
795.8187	169.925	65535	64840.3
795.9606	172.1651	65535	64841.05
796.1025	174.4047	65535	64831.05
796.2445	176.6439	65535	64834.35
796.3864	178.8825	65535	64827.35
796.5284	181.1206	65535	64824.25
796.6704	183.3582	65535	64825.25
796.8124	185.5954	65535	64821.2
796.9544	187.832	65535	64818.65
797.0965	190.0681	65535	64817.05
797.2386	192.3037	65535	64809.75
797.3806	194.5388	65535	64806.35
797.5228	196.7734	65535	64806.35
797.6649	199.0075	65535	64803.7
797.807	201.2411	65535	64803.25
797.9492	203.4742	65535	64799.5
798.0914	205.7068	65535	64801.35
798.2336	207.9389	65535	64797.25
798.3758	210.1704	65535	64792.2
798.518	212.4015	65535	64795.3
798.6603	214.632	65535	64804.75
798.8025	216.862	65535	64815.75
798.9448	219.0915	65535	64818.35
799.0871	221.3205	65535	64812.2
799.2294	223.549	65535	64816.75
799.3718	225.777	65535	64815.25
799.5141	228.0044	65535	64811.5
799.6565	230.2314	65535	64813.2
799.7989	232.4578	65535	64810.6
799.9413	234.6837	65535	64801.4
800.0837	236.909	65535	64795.4
800.2262	239.1339	65535	64768.1
800.3687	241.3582	65535	64786.85
800.5111	243.582	65535	64756.2
800.6536	245.8053	65535	64770.1
800.7961	248.0281	65535	64780
800.9387	250.2503	65535	64770.6
801.0812	252.472	65535	64773
801.2238	254.6932	65535	64767.15
801.3664	256.9139	65535	64766.35
801.509	259.134	65535	64764.35
801.6516	261.3536	65535	64765.25
801.7942	263.5727	65535	64763.95
801.9369	265.7912	65535	64767.15
802.0795	268.0092	65535	64763.65
802.2222	270.2267	65535	64758.75
802.3649	272.4436	65535	64762.3
802.5076	274.6601	65535	64753.75
802.6504	276.8759	65535	64757.4
802.7931	279.0913	65535	64753.75
802.9359	281.3061	65535	64752.3
803.0787	283.5204	65535	64757.15
803.2215	285.7341	65535	64750.2
803.3643	287.9473	65535	64732
803.5071	290.16	65535	64743.05
803.6499	292.3721	65535	64750.95
803.7928	294.5837	65535	64747.95
803.9357	296.7947	65535	64746.6
804.0786	299.0052	65535	64748.8
804.2215	301.2152	65535	64744.25
804.3644	303.4246	65535	64748.85
804.5074	305.6334	65535	64747.7
804.6503	307.8418	65535	64747.3
804.7933	310.0495	65535	64743.5
804.9363	312.2568	65535	64744.3
805.0793	314.4635	65535	64740.25
805.2223	316.6696	65535	64738.45
805.3653	318.8752	65535	64731.2
805.5084	321.0802	65535	64742.55
805.6514	323.2847	65535	64736.15
805.7945	325.4887	65535	64736.3
805.9376	327.692	65535	64734.55
806.0807	329.8949	65535	64732.7
806.2238	332.0972	65535	64734.5
806.367	334.2989	65535	64724.5
806.5101	336.5001	65535	64728.4
806.6533	338.7007	65535	64728.65
806.7965	340.9008	65535	64728.95
806.9397	343.1003	65535	64727.4
807.0829	345.2992	65535	64724.35
807.2261	347.4976	65535	64722.95
807.3693	349.6955	65535	64720.4
807.5126	351.8927	65535	64719.4
807.6559	354.0895	65535	64705.25
807.7991	356.2856	65535	64717.9
807.9424	358.4812	65535	64720.6
808.0857	360.6763	65535	64713.4
808.2291	362.8707	65535	64715.6
808.3724	365.0646	65535	64707.55
808.5158	367.258	65535	64708.45
808.6591	369.4508	65535	64702.85
808.8025	371.643	65535	64708.4
808.9459	373.8346	65535	64705.2
809.0893	376.0257	65535	64698.75
809.2327	378.2162	65535	64702.65
809.3762	380.4062	65535	64698.1
809.5196	382.5956	65535	64702.2
809.6631	384.7844	65535	64703.3
809.8066	386.9726	65535	64703.9
809.9501	389.1603	65535	64706.95
810.0936	391.3474	65535	64663.35
810.2371	393.5339	65535	64704.9
810.3806	395.7199	65535	64711.05
810.5241	397.9052	65535	64709.5
810.6677	400.09	65535	64708.25
810.8113	402.2743	65535	64710.55
810.9548	404.4579	65535	64708.8
811.0984	406.641	65535	64711.2
811.2421	408.8235	65535	64708.7
811.3857	411.0054	65535	64701.6
811.5293	413.1868	65535	64701.25
811.673	415.3675	65535	64701.2
811.8166	417.5477	65535	64699.7
811.9603	419.7273	65535	64696.7
812.104	421.9064	65535	64690.85
812.2477	424.0848	65535	64691.7
812.3914	426.2627	65535	64691.75
812.5351	428.4399	65535	64689.5
812.6788	430.6166	65535	64689.5
812.8226	432.7928	65535	64689.45
812.9663	434.9683	65535	64690.35
813.1101	437.1432	65535	64684.55
813.2539	439.3176	65535	64686.7
813.3977	441.4914	65535	64685.8
813.5415	443.6645	65535	64684.8
813.6853	445.8371	65535	64689.15
813.8291	448.0091	65535	64687.5
813.973	450.1806	65535	64684.8
814.1168	452.3514	65535	64683.9
814.2607	454.5216	65535	64677.75
814.4046	456.6913	65535	64682.5
814.5485	458.8603	65535	64682.3
814.6924	461.0288	65535	64684.4
814.8363	463.1967	65535	64680.3
814.9802	465.3639	65535	64680.35
815.1241	467.5306	65535	64679.7
815.2681	469.6967	65535	64683.45
815.412	471.8622	65535	64684.1
815.556	474.0271	65535	64683.35
815.7	476.1914	65535	64672.85
815.844	478.3551	65535	64679.3
815.988	480.5182	65535	64679.75
816.132	482.6807	65535	64680.15
816.276	484.8426	65535	64681.65
816.4201	487.0039	65535	64679.4
816.5641	489.1647	65535	64677.45
816.7082	491.3248	65535	64674.85
816.8522	493.4843	65535	64679.2
816.9963	495.6432	65535	64679.15
817.1404	497.8015	65535	64673
817.2845	499.9592	65535	64677.4
817.4286	502.1163	65535	64676.4
817.5727	504.2728	65535	64670
817.7168	506.4287	65535	64676.05
817.861	508.5839	65535	64674.45
818.0051	510.7386	65535	64671.8
818.1493	512.8927	65535	64670
818.2935	515.0461	65535	64672.3
818.4377	517.199	65535	64669.9
818.5818	519.3512	65535	64668.9
818.726	521.5029	65535	64670
818.8703	523.6539	65535	64669.1
819.0145	525.8043	65535	64671.9
819.1587	527.9541	65535	64665.7
819.303	530.1033	65535	64667.75
819.4472	532.2519	65535	64666.7
819.5915	534.3999	65535	64660.6
819.7357	536.5472	65535	64665.2
819.88	538.694	65535	64665.5
820.0243	540.8401	65535	64662.85
820.1686	542.9856	65535	64662.1
820.3129	545.1305	65535	64659.9
820.4572	547.2748	65535	64659.35
820.6016	549.4185	65535	64655.75
820.7459	551.5615	65535	64662.6
820.8902	553.704	65535	64659.55
821.0346	555.8458	65535	64661.4
821.1789	557.987	65535	64661.75
821.3233	560.1276	65535	64660.65
821.4677	562.2675	65535	64659.7
821.6121	564.4069	65535	64657.3
821.7565	566.5456	65535	64662.95
821.9009	568.6837	65535	64662.4
822.0453	570.8212	65535	64660.15
822.1897	572.958	65535	64660.45
822.3342	575.0942	65535	64662.35
822.4786	577.2299	65535	64662.85
822.6231	579.3648	65535	64661.4
822.7675	581.4992	65535	64665.8
822.912	583.6329	65535	64661.15
823.0565	585.766	65535	64666.15
823.201	587.8985	65535	64663.35
823.3454	590.0304	65535	64638.05
823.4899	592.1616	65535	64658.85
823.6345	594.2922	65535	64656.2
823.779	596.4222	65535	64658.5
823.9235	598.5515	65535	64656.65
824.068	600.6802	65535	64656.9
824.2126	602.8083	65535	64657
824.3571	604.9358	65535	64657.95
824.5017	607.0626	65535	64657.6
824.6462	609.1888	65535	64657.2
824.7908	611.3144	65535	64656.1
824.9354	613.4393	65535	64654.25
825.08	615.5636	65535	64653.55
825.2246	617.6873	65535	64652.3
825.3692	619.8103	65535	64650.2
825.5138	621.9327	65535	64647.7
825.6584	624.0544	65535	64653.15
825.803	626.1756	65535	64654.9
825.9477	628.2961	65535	64652.2
826.0923	630.4159	65535	64651.75
826.237	632.5351	65535	64651.3
826.3816	634.6537	65535	64649.95
826.5263	636.7716	65535	64650.35
826.6709	638.8889	65535	64650.25
826.8156	641.0056	65535	64648.35
826.9603	643.1216	65535	64647.9
827.105	645.237	65535	64647.4
827.2497	647.3518	65535	64650.8
827.3944	649.4659	65535	64651.3
827.5391	651.5793	65535	64650.85
827.6838	653.6922	65535	64651.65
827.8285	655.8043	65535	64654.2
827.9733	657.9159	65535	64648.45
828.118	660.0268	65535	64646.45
828.2627	662.137	65535	64649.25
828.4075	664.2466	65535	64646.15
828.5522	666.3556	65535	64648.05
828.697	668.4639	65535	64646.2
828.8418	670.5716	65535	64648.45
828.9865	672.6786	65535	64645.5
829.1313	674.785	65535	64647.6
829.2761	676.8907	65535	64646.75
829.4209	678.9958	65535	64646.7
829.5657	681.1002	65535	64645.15
829.7105	683.204	65535	64640.35
829.8553	685.3072	65535	64641.95
830.0001	687.4097	65535	64643.3
830.1449	689.5115	65535	64643.95
830.2898	691.6127	65535	64645.75
830.4346	693.7132	65535	64644.2
830.5794	695.8131	65535	64632.6
830.7243	697.9123	65535	64642.45
830.8691	700.0109	65535	64642.95
831.014	702.1089	65535	64644.8
831.1588	704.2061	65535	64642.95
831.3037	706.3028	65535	64641.7
831.4486	708.3987	65535	64640.15
831.5935	710.4941	65535	64645.65
831.7383	712.5887	65535	64642.25
831.8832	714.6827	65535	64638.2
832.0281	716.7761	65535	64642.25
832.173	718.8688	65535	64639.9
832.3179	720.9608	65535	64639.05
832.4628	723.0522	65535	64634.55
832.6077	725.1429	65535	64641.15
832.7527	727.233	65535	64638.5
832.8976	729.3224	65535	64638.65
833.0425	731.4112	65535	64638.95
833.1874	733.4993	65535	64639.35
833.3324	735.5867	65535	64638.6
833.4773	737.6735	65535	64636.75
833.6222	739.7596	65535	64638.5
833.7672	741.845	65535	64640.05
833.9122	743.9298	65535	64635.25
834.0571	746.014	65535	64640.65
834.2021	748.0974	65535	64639.6
834.347	750.1802	65535	64636.4
834.492	752.2624	65535	64638.15
834.637	754.3439	65535	64635.5
834.782	756.4247	65535	64627.85
834.9269	758.5048	65535	64637.1
835.0719	760.5843	65535	64635.95
835.2169	762.6631	65535	64637.45
835.3619	764.7413	65535	64638.15
835.5069	766.8188	65535	64633.6
835.6519	768.8956	65535	64635.5
835.7969	770.9718	65535	64637.1
835.9419	773.0473	65535	64636.35
836.0869	775.1221	65535	64636.1
836.232	777.1962	65535	64635.45
836.377	779.2697	65535	64634.65
836.522	781.3426	65535	64616.3
836.667	783.4147	65535	64634.05
836.8121	785.4862	65535	64636.95
836.9571	787.557	65535	64635.05
837.1021	789.6271	65535	64635.5
837.2472	791.6966	65535	64636.1
837.3922	793.7654	65535	64635.25
837.5373	795.8335	65535	64638.15
837.6823	797.901	65535	64635.85
837.8274	799.9678	65535	64631.2
837.9724	802.0339	65535	64635.15
838.1175	804.0993	65535	64622.45
838.2626	806.1641	65535	64635.55
838.4076	808.2282	65535	64637.05
838.5527	810.2916	65535	64632.6
838.6978	812.3544	65535	64636.05
838.8428	814.4164	65535	64636.45
838.9879	816.4778	65535	64631
839.133	818.5385	65535	64637.35
839.2781	820.5986	65535	64631.45
839.4232	822.658	65535	64631.25
839.5682	824.7166	65535	64633.75
839.7133	826.7747	65535	64635.7
839.8584	828.832	65535	64631.9
840.0035	830.8886	65535	64632.15
840.1486	832.9446	65535	64633.3
840.2937	834.9999	65535	64636.1
840.4388	837.0545	65535	64628.65
840.5839	839.1085	65535	64633.25
840.729	841.1618	65535	64630.1
840.8741	843.2143	65535	64633.9
841.0192	845.2662	65535	64633.6
841.1643	847.3175	65535	64633.25
841.3095	849.368	65535	64630.6
841.4546	851.4179	65535	64634.2
841.5997	853.467	65535	64634.25
841.7448	855.5155	65535	64630.6
841.8899	857.5633	65535	64635.35
842.0351	859.6105	65535	64633.9
842.1802	861.6569	65535	64635.35
842.3253	863.7027	65535	64632.85
842.4704	865.7478	65535	64634
842.6156	867.7922	65535	64632.8
842.7607	869.8359	65535	64630.25
842.9058	871.8789	65535	64631.65
843.0509	873.9212	65535	64601.9
843.1961	875.9629	65535	64629.85
843.3412	878.0039	65535	64631.15
843.4863	880.0441	65535	64630.35
843.6315	882.0837	65535	64631.4
843.7766	884.1226	65535	64631.35
843.9218	886.1609	65535	64633.45
844.0669	888.1984	65535	64633.35
844.212	890.2352	65535	64631.6
844.3572	892.2714	65535	64627.55
844.5023	894.3069	65535	64630.6
844.6475	896.3416	65535	64629.85
844.7926	898.3757	65535	64630.95
844.9377	900.4091	65535	64628.8
845.0829	902.4418	65535	64625.8
845.228	904.4739	65535	64629.6
845.3732	906.5052	65535	64631
845.5183	908.5358	65535	64631.35
845.6635	910.5658	65535	64629.25
845.8086	912.595	65535	64631.55
845.9538	914.6236	65535	64630.1
846.0989	916.6515	65535	64631.8
846.2441	918.6786	65535	64628.25
846.3892	920.7051	65535	64625.75
846.5344	922.7309	65535	64632.1
846.6795	924.756	65535	64630.95
846.8246	926.7804	65535	64629
846.9698	928.8041	65535	64626.65
847.1149	930.8272	65535	64630.65
847.2601	932.8495	65535	64631.6
847.4052	934.8711	65535	64630.4
847.5504	936.892	65535	64628.5
847.6955	938.9123	65535	64624.6
847.8407	940.9318	65535	64628.1
847.9858	942.9506	65535	64628
848.131	944.9688	65535	64629.5
848.2761	946.9862	65535	64630
848.4213	949.003	65535	64628.65
848.5664	951.019	65535	64630.6
848.7115	953.0344	65535	64630.75
848.8567	955.0491	65535	64628.9
849.0018	957.063	65535	64631.05
849.147	959.0763	65535	64631.7
849.2921	961.0888	65535	64626.35
849.4373	963.1007	65535	64628.3
849.5824	965.1119	65535	64631.55
849.7275	967.1223	65535	64631.45
849.8727	969.1321	65535	64633.35
850.0178	971.1412	65535	64631.95
850.1629	973.1495	65535	64630
850.3081	975.1572	65535	64579.9
850.4532	977.1641	65535	64629.9
850.5983	979.1704	65535	64630.05
850.7435	981.1759	65535	64626.9
850.8886	983.1808	65535	64626.7
851.0337	985.1849	65535	64616.55
851.1788	987.1884	65535	64628.1
851.324	989.1911	65535	64628.25
851.4691	991.1932	65535	64626.15
851.6142	993.1945	65535	64628.3
851.7593	995.1951	65535	64629
851.9045	997.1951	65535	64626.1
852.0496	999.1943	65535	64627.1
852.1947	1001.1928	65535	64626.55
852.3398	1003.1906	65535	64628.15
852.4849	1005.1877	65535	64628.55
852.63	1007.1841	65535	64628.75
852.7751	1009.1798	65535	64632.4
852.9202	1011.1748	65535	64630.9
853.0653	1013.1691	65535	64628.95
853.2104	1015.1627	65535	64630.3
853.3555	1017.1556	65535	64632
853.5006	1019.1477	65535	64627.3
853.6457	1021.1392	65535	64630.15
853.7908	1023.1299	65535	64628.95
853.9359	1025.12	65535	64630
854.081	1027.1093	65535	64633.75
854.2261	1029.0979	65535	64637
854.3712	1031.0859	65535	64633.35
854.5163	1033.0731	65535	64631
854.6613	1035.0596	65535	64630
854.8064	1037.0454	65535	64630.7
854.9515	1039.0304	65535	64631.7
855.0965	1041.0148	65535	64629.45
855.2416	1042.9985	65535	64626.7
855.3867	1044.9814	65535	64632.3
855.5317	1046.9636	65535	64628.5
855.6768	1048.9452	65535	64630.5
855.8219	1050.926	65535	64629.3
855.9669	1052.9061	65535	64631.4
856.112	1054.8855	65535	64630.9
856.257	1056.8642	65535	64631.45
856.4021	1058.8421	65535	64626.7
856.5471	1060.8194	65535	64627.55
856.6921	1062.7959	65535	64626.8
856.8372	1064.7717	65535	64629.5
856.9822	1066.7469	65535	64630.7
857.1272	1068.7213	65535	64627.1
857.2723	1070.695	65535	64629.75
857.4173	1072.6679	65535	64627.15
857.5623	1074.6402	65535	64629.65
857.7073	1076.6117	65535	64622.2
857.8523	1078.5826	65535	64627.35
857.9973	1080.5527	65535	64627.65
858.1423	1082.5221	65535	64627.4
858.2873	1084.4908	65535	64630.15
858.4323	1086.4587	65535	64628.7
858.5773	1088.426	65535	64629.65
858.7223	1090.3925	65535	64624
858.8673	1092.3584	65535	64628.2
859.0123	1094.3235	65535	64632.3
859.1573	1096.2879	65535	64629.85
859.3022	1098.2515	65535	64629.3
859.4472	1100.2145	65535	64629.75
859.5922	1102.1767	65535	64628.1
859.7371	1104.1382	65535	64627
859.8821	1106.099	65535	64627.45
860.027	1108.0591	65535	64631.8
860.172	1110.0185	65535	64628.9
860.3169	1111.9771	65535	64630.35
860.4619	1113.9351	65535	64627.95
860.6068	1115.8923	65535	64628.65
860.7517	1117.8488	65535	64628.75
860.8967	1119.8045	65535	64629.6
861.0416	1121.7596	65535	64630.65
861.1865	1123.7139	65535	64630.05
861.3314	1125.6675	65535	64628.85
861.4763	1127.6204	65535	64629.1
861.6212	1129.5726	65535	64627.4
861.7661	1131.524	65535	64631.15
861.911	1133.4748	65535	64628.3
862.0559	1135.4248	65535	64627.6
862.2008	1137.3741	65535	64631.75
862.3457	1139.3226	65535	64629.5
862.4905	1141.2705	65535	64626.05
862.6354	1143.2176	65535	64622.4
862.7803	1145.164	65535	64626.25
862.9251	1147.1097	65535	64628.1
863.07	1149.0546	65535	64630.7
863.2148	1150.9989	65535	64630.15
863.3597	1152.9424	65535	64630.65
863.5045	1154.8852	65535	64627.75
863.6493	1156.8272	65535	64628.1
863.7942	1158.7686	65535	64623
863.939	1160.7092	65535	64631.2
864.0838	1162.6491	65535	64627.85
864.2286	1164.5883	65535	64631.45
864.3734	1166.5267	65535	64628.15
864.5182	1168.4644	65535	64629.95
864.663	1170.4014	65535	64624
864.8078	1172.3377	65535	64633.25
864.9526	1174.2732	65535	64630.05
865.0974	1176.2081	65535	64629.95
865.2421	1178.1421	65535	64627.15
865.3869	1180.0755	65535	64631.2
865.5317	1182.0082	65535	64628.75
865.6764	1183.9401	65535	64627.7
865.8212	1185.8713	65535	64631.85
865.9659	1187.8017	65535	64633.55
866.1106	1189.7315	65535	64634.45
866.2554	1191.6605	65535	64605.4
866.4001	1193.5888	65535	64634.65
866.5448	1195.5163	65535	64632.25
866.6895	1197.4432	65535	64627.9
866.8342	1199.3693	65535	64632.95
866.9789	1201.2947	65535	64630.05
867.1236	1203.2193	65535	64632.35
867.2683	1205.1432	65535	64629.55
867.413	1207.0664	65535	64629.1
867.5576	1208.9889	65535	64627.75
867.7023	1210.9106	65535	64631.45
867.847	1212.8316	65535	64629.5
867.9916	1214.7519	65535	64619.55
868.1363	1216.6715	65535	64633.1
868.2809	1218.5903	65535	64633.75
868.4255	1220.5084	65535	64631.7
868.5701	1222.4257	65535	64631
868.7148	1224.3424	65535	64633.75
868.8594	1226.2583	65535	64625.9
869.004	1228.1735	65535	64630.45
869.1486	1230.0879	65535	64629.4
869.2932	1232.0016	65535	64632.5
869.4377	1233.9146	65535	64630.9
869.5823	1235.8269	65535	64631.5
869.7269	1237.7384	65535	64631.3
869.8715	1239.6492	65535	64630.95
870.016	1241.5592	65535	64629.15
870.1606	1243.4686	65535	64629.15
870.3051	1245.3772	65535	64630.05
870.4496	1247.285	65535	64633.35
870.5941	1249.1922	65535	64628.25
870.7387	1251.0986	65535	64631.6
870.8832	1253.0042	65535	64631.65
871.0277	1254.9092	65535	64631.25
871.1722	1256.8134	65535	64633.15
871.3167	1258.7169	65535	64631.1
871.4611	1260.6196	65535	64631.8
871.6056	1262.5216	65535	64630.45
871.7501	1264.4229	65535	64631.45
871.8945	1266.3234	65535	64631.55
872.039	1268.2232	65535	64626.8
872.1834	1270.1223	65535	64630.65
872.3278	1272.0207	65535	64630.55
872.4723	1273.9183	65535	64624.35
872.6167	1275.8151	65535	64632.2
872.7611	1277.7113	65535	64629.2
872.9055	1279.6067	65535	64632.35
873.0499	1281.5014	65535	64629.15
873.1943	1283.3953	65535	64627.8
873.3386	1285.2885	65535	64631
873.483	1287.181	65535	64630.25
873.6274	1289.0727	65535	64632.35
873.7717	1290.9637	65535	64632.7
873.9161	1292.854	65535	64631.65
874.0604	1294.7435	65535	64632.6
874.2047	1296.6323	65535	64631.3
874.349	1298.5204	65535	64627.45
874.4933	1300.4077	65535	64631.4
874.6376	1302.2943	65535	64633.05
874.7819	1304.1802	65535	64633.55
874.9262	1306.0653	65535	64629.45
875.0705	1307.9497	65535	64633.85
875.2147	1309.8333	65535	64632.2
875.359	1311.7162	65535	64631.25
875.5032	1313.5984	65535	64630
875.6475	1315.4798	65535	64621.4
875.7917	1317.3605	65535	64614.7
875.9359	1319.2405	65535	64628.6
876.0801	1321.1197	65535	64628.8
876.2243	1322.9982	65535	64627.55
876.3685	1324.876	65535	64631.4
876.5127	1326.753	65535	64630.8
876.6569	1328.6293	65535	64630.2
876.801	1330.5048	65535	64626.5
876.9452	1332.3796	65535	64630.85
877.0893	1334.2537	65535	64605.9
877.2335	1336.127	65535	64632.6
877.3776	1337.9996	65535	64630.05
877.5217	1339.8714	65535	64630.15
877.6658	1341.7426	65535	64587.4
877.8099	1343.6129	65535	64630.15
877.954	1345.4826	65535	64630.65
878.0981	1347.3515	65535	64630.3
878.2422	1349.2196	65535	64630.05
878.3862	1351.087	65535	64628.7
878.5303	1352.9537	65535	64628.95
878.6743	1354.8197	65535	64631.45
878.8184	1356.6849	65535	64631.65
878.9624	1358.5493	65535	64631.05
879.1064	1360.4131	65535	64628.75
879.2504	1362.276	65535	64634.15
879.3944	1364.1383	65535	64630.2
879.5384	1365.9998	65535	64625.9
879.6823	1367.8606	65535	64631.1
879.8263	1369.7206	65535	64631.15
879.9702	1371.5799	65535	64628.15
880.1142	1373.4384	65535	64630.6
880.2581	1375.2962	65535	64630.05
880.402	1377.1533	65535	64631.75
880.5459	1379.0096	65535	64631.4
880.6898	1380.8652	65535	64633.2
880.8337	1382.7201	65535	64631.95
880.9776	1384.5742	65535	64631.3
881.1215	1386.4275	65535	64630.45
881.2653	1388.2802	65535	64633.45
881.4092	1390.132	65535	64632.15
881.553	1391.9832	65535	64630.1
881.6968	1393.8336	65535	64632
881.8406	1395.6832	65535	64628.95
881.9844	1397.5322	65535	64632.3
882.1282	1399.3803	65535	64626.1
882.272	1401.2278	65535	64629.35
882.4158	1403.0745	65535	64631.4
882.5595	1404.9204	65535	64632.05
882.7033	1406.7656	65535	64632.8
882.847	1408.6101	65535	64629.05
882.9908	1410.4538	65535	64630.95
883.1345	1412.2968	65535	64632.7
883.2782	1414.139	65535	64630.45
883.4219	1415.9805	65535	64631.15
883.5656	1417.8213	65535	64624.1
883.7092	1419.6613	65535	64631.65
883.8529	1421.5006	65535	64631.75
883.9965	1423.3391	65535	64630.7
884.1402	1425.1769	65535	64630.4
884.2838	1427.0139	65535	64631.4
884.4274	1428.8502	65535	64630.6
884.571	1430.6858	65535	64631.75
884.7146	1432.5206	65535	64632
884.8582	1434.3547	65535	64633.35
885.0018	1436.188	65535	64634.35
885.1453	1438.0206	65535	64631.35
885.2889	1439.8524	65535	64633.1
885.4324	1441.6835	65535	64630.7
885.5759	1443.5139	65535	64628.25
885.7194	1445.3435	65535	64631.7
885.8629	1447.1724	65535	64631.2
886.0064	1449.0005	65535	64632.3
886.1499	1450.8279	65535	64628.15
886.2933	1452.6545	65535	64634.4
886.4368	1454.4804	65535	64633.3
886.5802	1456.3056	65535	64625.85
886.7237	1458.13	65535	64634.3
886.8671	1459.9536	65535	64630.6
887.0105	1461.7766	65535	64632.75
887.1539	1463.5987	65535	64631.65
887.2972	1465.4202	65535	64632.9
887.4406	1467.2409	65535	64633.7
887.584	1469.0608	65535	64635.35
887.7273	1470.88	65535	64632.5
887.8706	1472.6984	65535	64634.25
888.0139	1474.5161	65535	64630.9
888.1572	1476.3331	65535	64635.3
888.3005	1478.1493	65535	64631.1
888.4438	1479.9648	65535	64631.4
888.5871	1481.7795	65535	64631.95
888.7303	1483.5935	65535	64633.1
888.8736	1485.4067	65535	64632.85
889.0168	1487.2192	65535	64631.65
889.16	1489.031	65535	64632.6
889.3032	1490.842	65535	64632.8
889.4464	1492.6522	65535	64632.85
889.5896	1494.4618	65535	64633
889.7327	1496.2705	65535	64634.3
889.8759	1498.0785	65535	64629.1
890.019	1499.8858	65535	64631.35
890.1622	1501.6924	65535	64633.35
890.3053	1503.4981	65535	64633.5
890.4484	1505.3032	65535	64633.15
890.5914	1507.1075	65535	64634.35
890.7345	1508.911	65535	64634.05
890.8776	1510.7138	65535	64631.7
891.0206	1512.5159	65535	64632.5
891.1637	1514.3172	65535	64632.15
891.3067	1516.1178	65535	64633.25
891.4497	1517.9176	65535	64629.75
891.5927	1519.7166	65535	64633.3
891.7357	1521.515	65535	64628.55
891.8786	1523.3126	65535	64631.2
892.0216	1525.1094	65535	64631.6
892.1645	1526.9055	65535	64635.3
892.3074	1528.7008	65535	64633.7
892.4503	1530.4954	65535	64628.35
892.5932	1532.2893	65535	64637.65
892.7361	1534.0824	65535	64629.4
892.879	1535.8747	65535	64633.45
893.0218	1537.6663	65535	64634.55
893.1647	1539.4572	65535	64633.95
893.3075	1541.2473	65535	64634
893.4503	1543.0367	65535	64634.3
893.5931	1544.8253	65535	64629.8
893.7359	1546.6132	65535	64630.9
893.8787	1548.4003	65535	64623.05
894.0214	1550.1867	65535	64626.95
894.1642	1551.9723	65535	64631.9
894.3069	1553.7572	65535	64632.9
894.4496	1555.5414	65535	64635.15
894.5923	1557.3247	65535	64632.4
894.735	1559.1074	65535	64635.3
894.8777	1560.8893	65535	64637.15
895.0204	1562.6705	65535	64634.4
895.163	1564.4509	65535	64638.6
895.3056	1566.2305	65535	64637.05
895.4482	1568.0094	65535	64640.05
895.5908	1569.7876	65535	64633.8
895.7334	1571.565	65535	64632.2
895.876	1573.3417	65535	64636.6
896.0186	1575.1176	65535	64636.7
896.1611	1576.8928	65535	64637.75
896.3036	1578.6672	65535	64637.5
896.4461	1580.4409	65535	64640.2
896.5886	1582.2138	65535	64636.5
896.7311	1583.986	65535	64634.65
896.8736	1585.7575	65535	64639.65
897.0161	1587.5282	65535	64638.25
897.1585	1589.2981	65535	64637.8
897.3009	1591.0673	65535	64638.5
897.4433	1592.8358	65535	64638.05
897.5857	1594.6035	65535	64634.4
897.7281	1596.3704	65535	64636.55
897.8705	1598.1366	65535	64636.55
898.0128	1599.9021	65535	64639
898.1551	1601.6668	65535	64636.5
898.2975	1603.4308	65535	64636.2
898.4398	1605.194	65535	64632.8
898.5821	1606.9564	65535	64635.35
898.7243	1608.7182	65535	64634.3
898.8666	1610.4791	65535	64637.75
899.0088	1612.2394	65535	64638.05
899.1511	1613.9988	65535	64638.2
899.2933	1615.7576	65535	64638.95
899.4355	1617.5156	65535	64632.5
899.5776	1619.2728	65535	64634.85
899.7198	1621.0293	65535	64639.95
899.862	1622.785	65535	64637.75
900.0041	1624.54	65535	64635.4
900.1462	1626.2942	65535	64636.65
900.2883	1628.0477	65535	64636.3
900.4304	1629.8005	65525.85	64627.7
900.5725	1631.5525	65535	64637.9
900.7145	1633.3037	65521.35	64624.35
900.8566	1635.0542	65515	64619
900.9986	1636.804	65531.1	64635.35
901.1406	1638.553	65483.3	64507.25
901.2826	1640.3013	65506.5	64610.55
901.4245	1642.0488	65468.1	64571.5
901.5665	1643.7955	65513.8	64619.55
901.7085	1645.5416	65457.85	64561.3
901.8504	1647.2868	65384.3	64489
901.9923	1649.0313	65476.4	64579.6
902.1342	1650.7751	65427.85	64527.4
902.2761	1652.5181	65402.25	64506.5
902.4179	1654.2604	65419.95	64523.75
902.5598	1656.0019	65437.7	64541.55
902.7016	1657.7427	65418.15	64522.85
902.8434	1659.4828	65495.4	64598.95
902.9852	1661.222	65405.65	64505.9
903.127	1662.9606	65503.5	64608.2
903.2687	1664.6984	65380.85	64484.35
903.4105	1666.4354	65442.65	64545.35
903.5522	1668.1717	65254.35	64359.05
903.6939	1669.9072	64872.75	63978.15
903.8356	1671.642	64922.3	64023.9
903.9773	1673.3761	64802.55	63906.85
904.119	1675.1094	64699.75	63804.85
904.2606	1676.8419	64032.35	63136.25
904.4022	1678.5737	64410.75	63514.55
904.5439	1680.3048	64118.2	63221.95
904.6855	1682.0351	63821.05	62925.95
904.827	1683.7646	63504.2	62605.35
904.9686	1685.4934	63852.95	62958.2
905.1101	1687.2215	62403.85	61508.55
905.2517	1688.9488	63540.05	62645.05
905.3932	1690.6754	61209.45	60314.05
905.5347	1692.4012	62441.55	61547.2
905.6761	1694.1263	62690.1	61795.8
905.8176	1695.8506	61580.8	60684.1
905.9591	1697.5742	61690.85	60795.85
906.1005	1699.297	61407.2	60513.55
906.2419	1701.0191	61647.8	60755.55
906.3833	1702.7404	60446.1	59553.15
906.5246	1704.461	60079.95	59185.05
906.666	1706.1808	60734	59837.35
906.8073	1707.8999	60361.45	59466.55
906.9487	1709.6182	60013.2	59118.65
907.09	1711.3358	59896.15	59000.45
907.2313	1713.0527	59736.45	58842.5
907.3725	1714.7688	59804.5	58905.9
907.5138	1716.4841	58647.9	57753.35
907.655	1718.1987	59100.4	58200
907.7962	1719.9126	58739.6	57846.8
907.9374	1721.6257	58946.95	58050.05
908.0786	1723.338	58977	58082
908.2198	1725.0496	57734.95	56840
908.3609	1726.7605	57775.5	56881
908.502	1728.4706	57474.65	56580.1
908.6431	1730.18	57782.6	56885.05
908.7842	1731.8886	57332.05	56437.1
908.9253	1733.5964	56989.85	56072.75
909.0664	1735.3036	57387.3	56492.7
909.2074	1737.0099	56995.35	56104.1
909.3484	1738.7156	56448.7	55555.4
909.4894	1740.4204	56297.9	55399.65
909.6304	1742.1246	56439.45	55542.1
909.7714	1743.8279	56450.1	55557.75
909.9123	1745.5306	56422.2	55528.25
910.0532	1747.2325	55425.25	54531.65
910.1941	1748.9336	55393.4	54499.45
910.335	1750.634	55412.65	54517.7
910.4759	1752.3336	55749.95	54858.1
910.6168	1754.0325	55023.2	54132.4
910.7576	1755.7307	55468.7	54574.25
910.8984	1757.4281	54709.2	53815.55
911.0392	1759.1247	55181.95	54279.85
911.18	1760.8206	54490.75	53590.95
911.3208	1762.5158	54456.55	53558.3
911.4615	1764.2102	54483.45	53590.75
911.6022	1765.9039	54258.75	53365.9
911.7429	1767.5968	54034.55	53141.15
911.8836	1769.289	53852.7	52959.1
912.0243	1770.9804	53871.5	52977.45
912.1649	1772.6711	53713	52820.35
912.3056	1774.361	53495.45	52600.3
912.4462	1776.0502	53422.5	52527
912.5868	1777.7386	53049.15	52151.4
912.7274	1779.4263	53039	52143.45
912.8679	1781.1132	53022.5	52129.65
913.0084	1782.7994	52783.7	51889.45
913.149	1784.4849	52864.15	51971.9
913.2895	1786.1696	52248.1	51351.15
913.4299	1787.8535	52306.85	51415.9
913.5704	1789.5367	52316.85	51424.8
913.7108	1791.2192	52019.25	51125.2
913.8513	1792.9009	51777.7	50852.4
913.9917	1794.5818	51782	50887.15
914.132	1796.2621	51586.8	50693.3
914.2724	1797.9415	51494.5	50598.1
914.4128	1799.6202	51339.25	50444.55
914.5531	1801.2982	51317	50424.3
914.6934	1802.9755	51064.95	50168.15
914.8337	1804.6519	50922.3	50029.25
914.9739	1806.3277	50908.2	50014.05
915.1142	1808.0027	50395	49504.05
915.2544	1809.6769	50504.95	49613.05
915.3946	1811.3504	50425.3	49530.2
915.5348	1813.0231	50055.9	49161.55
915.675	1814.6951	50140	49247.4
915.8151	1816.3664	50025.5	49131.35
915.9553	1818.0369	49920.75	49027.3
916.0954	1819.7067	49687.25	48793.95
916.2355	1821.3757	49775.55	48880.8
916.3755	1823.044	49427.4	48535.85
916.5156	1824.7115	49243.8	48350.75
916.6556	1826.3783	49152.8	48261
916.7956	1828.0443	49006.35	48115.3
916.9356	1829.7096	48863	47967.45
917.0756	1831.3741	48776.6	47879.55
917.2155	1833.0379	48647.95	47753.95
917.3555	1834.701	48477	47581.2
917.4954	1836.3633	48335.75	47441.7
917.6353	1838.0248	48200.95	47306.1
917.7751	1839.6856	48164.7	47271.6
917.915	1841.3457	48024.55	47133.25
918.0548	1843.005	47960.6	47069.2
918.1946	1844.6636	47863.45	46971.25
918.3344	1846.3214	47671.5	46777.45
918.4742	1847.9785	47614.55	46721.15
918.6139	1849.6349	47437.5	46541.85
918.7537	1851.2904	47408.5	46505.4
918.8934	1852.9453	47190.25	46295.05
919.0331	1854.5994	47098.2	46204.6
919.1727	1856.2528	47076.15	46179.65
919.3124	1857.9054	46937.85	46043.6
919.452	1859.5572	46825	45932.9
919.5916	1861.2083	46684.5	45789.45
919.7312	1862.8587	46711.85	45819.75
919.8708	1864.5084	46490.35	45595.55
920.0103	1866.1572	46357.4	45464.8
920.1498	1867.8054	46118.45	45224.1
920.2893	1869.4528	46109.7	45218.8
920.4288	1871.0994	45889.95	44996.25
920.5683	1872.7453	45868.95	44974.35
920.7077	1874.3905	45688.55	44788.7
920.8471	1876.0349	45535.55	44640.85
920.9865	1877.6786	45579.85	44686.2
921.1259	1879.3215	45542.45	44651
921.2653	1880.9637	45418.95	44525.8
921.4046	1882.6051	45234.25	44340.5
921.5439	1884.2458	45070.7	44177.45
921.6832	1885.8858	44920.9	44028
921.8225	1887.525	44894.3	44000.95
921.9617	1889.1634	44611.55	43721.95
922.101	1890.8011	44457.2	43563.4
922.2402	1892.4381	44404.15	43513.2
922.3794	1894.0743	44343.9	43452.9
922.5185	1895.7098	44215.1	43321.45
922.6577	1897.3446	44071.95	43177.8
922.7968	1898.9786	43913.8	43016.6
922.9359	1900.6118	43797.15	42905.4
923.075	1902.2443	43567.6	42673.3
923.214	1903.8761	43492.7	42599.7
923.3531	1905.5071	43195.4	42301.15
923.4921	1907.1374	43133.65	42238.05
923.6311	1908.7669	43016.8	42124.95
923.77	1910.3957	42956.25	42063.7
923.909	1912.0237	42630.85	41739.25
924.0479	1913.651	42549.25	41655.9
924.1868	1915.2776	42460.65	41569.15
924.3257	1916.9034	42224.35	41332.95
924.4646	1918.5285	42084.5	41195.25
924.6034	1920.1528	41919.85	41026.8
924.7422	1921.7764	41857.15	40963.9
924.881	1923.3992	41689.55	40796.95
925.0198	1925.0213	41389.2	40493.8
925.1586	1926.6427	41207.6	40316.7
925.2973	1928.2633	41208.3	40200.25
925.436	1929.8832	41039.3	40144.8
925.5747	1931.5023	40782.3	39890.25
925.7134	1933.1207	40804.2	39911.55
925.852	1934.7383	40674.35	39781.3
925.9906	1936.3552	40448.2	39555.55
926.1292	1937.9714	40331.55	39437.95
926.2678	1939.5868	40127.9	39232.75
926.4064	1941.2015	39954.35	39060.7
926.5449	1942.8154	39850.05	38957.45
926.6834	1944.4286	39667.2	38774.5
926.8219	1946.041	39525.5	38616.75
926.9604	1947.6528	39280.6	38381.2
927.0988	1949.2637	39220.45	38327.85
927.2372	1950.8739	39076.45	38184.85
927.3756	1952.4834	38978.8	38084.3
927.514	1954.0921	38860.2	37966.65
927.6523	1955.7001	38703.1	37806.85
927.7907	1957.3074	38587.7	37696.3
927.929	1958.9139	38449.25	37559.05
928.0673	1960.5197	38366.55	37474
928.2055	1962.1247	38087.75	37196.7
928.3438	1963.729	37993.05	37100.35
928.482	1965.3325	37798.5	36880.7
928.6202	1966.9353	37713.15	36821.45
928.7584	1968.5374	37540.05	36646.65
928.8965	1970.1387	37413.95	36519.8
929.0346	1971.7393	37265.1	36373.85
929.1727	1973.3392	37168.7	36275.75
929.3108	1974.9383	37012.8	36123.65
929.4489	1976.5366	36830.3	35938.6
929.5869	1978.1342	36808.35	35916.7
929.7249	1979.7311	36714.7	35819.85
929.8629	1981.3273	36615.8	35723.05
930.0009	1982.9227	36486.6	35594
930.1388	1984.5173	36259.7	35367.7
930.2767	1986.1112	36123.3	35231.3
930.4146	1987.7044	36024.2	35133.25
930.5525	1989.2968	35905.05	35011.25
930.6904	1990.8885	35811	34916.2
930.8282	1992.4795	35700.7	34807.95
930.966	1994.0697	35545.65	34655.6
931.1038	1995.6592	35460	34570.7
931.2415	1997.2479	35309.35	34416.8
931.3793	1998.8359	35233.4	34342.7
931.517	2000.4232	35030.25	34141.1
931.6547	2002.0097	34938.2	34049.5
931.7923	2003.5955	34776.7	33883.65
931.93	2005.1805	34743.65	33850.2
932.0676	2006.7648	34670.45	33779.5
932.2052	2008.3484	34541.85	33649.1
932.3427	2009.9312	34535.15	33642.6
932.4803	2011.5133	34365.5	33476.75
932.6178	2013.0946	34258.85	33369.85
932.7553	2014.6752	34139.2	33250.35
932.8928	2016.2551	34013.1	33121.9
933.0302	2017.8342	33873.75	32980.9
933.1676	2019.4126	33740.9	32851.4
933.305	2020.9902	33622.1	32730.95
933.4424	2022.5672	33554.35	32664
933.5798	2024.1433	33480.25	32584.45
933.7171	2025.7188	33339.15	32450.65
933.8544	2027.2935	33210.35	32320.75
933.9917	2028.8674	33070.4	32179.75
934.129	2030.4406	32985.45	32097.4
934.2662	2032.0131	32845.85	31956.2
934.4034	2033.5849	32713.25	31815.2
934.5406	2035.1559	32657.05	31766.8
934.6778	2036.7261	32601.1	31710.7
934.8149	2038.2957	32468.6	31577.55
934.952	2039.8645	32406.5	31516.45
935.0891	2041.4325	32404.65	31511.1
935.2262	2042.9998	32230.15	31340.2
935.3632	2044.5664	32181.3	31287.8
935.5002	2046.1323	32045.1	31153.35
935.6372	2047.6974	31948.55	31058.7
935.7742	2049.2617	31889.25	30998.7
935.9111	2050.8254	31843.75	30932.15
936.048	2052.3883	31736.55	30843.15
936.1849	2053.9504	31629.8	30737.15
936.3218	2055.5118	31533.75	30641.25
936.4586	2057.0725	31309.4	30414.75
936.5955	2058.6325	31253.7	30363.15
936.7323	2060.1917	31158.2	30266.45
936.869	2061.7502	31083.55	30191.6
937.0058	2063.3079	30957.7	30066.95
937.1425	2064.8649	30850.75	29956.7
937.2792	2066.4212	30759.65	29868.15
937.4159	2067.9767	30677.6	29787.45
937.5525	2069.5315	30529.1	29637.9
937.6891	2071.0856	30367.45	29476.55
937.8257	2072.6389	30278.45	29386.95
937.9623	2074.1915	30178.25	29291.1
938.0989	2075.7433	29986.55	29094.3
938.2354	2077.2945	29934.1	29044.4
938.3719	2078.8448	29767.4	28877.3
938.5084	2080.3945	29703.75	28810.95
938.6448	2081.9434	29689.55	28799.1
938.7812	2083.4916	29591.75	28700.5
938.9176	2085.039	29467.05	28572.5
939.054	2086.5857	29415.4	28522.65
939.1903	2088.1317	29329.4	28438.45
939.3267	2089.677	29222.5	28330.9
939.463	2091.2215	29122.65	28230.65
939.5992	2092.7652	29053.3	28160.3
939.7355	2094.3083	28959.45	28067.95
939.8717	2095.8506	28870.95	27979.8
940.0079	2097.3921	28896.55	28005.8
940.1441	2098.933	28806.45	27915.9
940.2802	2100.4731	28694.5	27803.6
940.4163	2102.0124	28633.75	27736.05
940.5524	2103.5511	28566.55	27676.85
940.6885	2105.089	28471.05	27579.05
940.8245	2106.6261	28429.65	27537.35
940.9606	2108.1626	28301.05	27409.5
941.0965	2109.6983	28278.15	27359.4
941.2325	2111.2332	28156.15	27263.5
941.3684	2112.7675	28043.2	27150.85
941.5044	2114.301	27942.95	27052.1
941.6403	2115.8337	27917.3	27025.65
941.7761	2117.3657	27805.45	26912.8
941.912	2118.897	27758.55	26865.25
942.0478	2120.4276	27652.35	26755.4
942.1835	2121.9575	27544.7	26652.9
942.3193	2123.4866	27551.5	26647.2
942.455	2125.0149	27431.95	26539
942.5907	2126.5426	27307	26417.55
942.7264	2128.0695	27238	26345.05
942.8621	2129.5956	27165.45	26276.15
942.9977	2131.1211	27075	26178
943.1333	2132.6458	27029.15	26139.7
943.2689	2134.1698	26935.7	26042.7
943.4044	2135.693	26843.85	25949.75
943.54	2137.2155	26777.4	25885.35
943.6755	2138.7373	26713.7	25821.9
943.8109	2140.2584	26622.7	25732.65
943.9464	2141.7787	26481.7	25586.05
944.0818	2143.2983	26367.5	25479.2
944.2172	2144.8171	26271.9	25382.8
944.3526	2146.3353	26199.55	25307.1
944.4879	2147.8527	26071.8	25183.55
944.6232	2149.3693	26040.15	25149.65
944.7585	2150.8853	25917.95	25026.1
944.8938	2152.4005	25814.4	24922.3
945.029	2153.9149	25763.1	24870.1
945.1642	2155.4287	25679.9	24789.7
945.2994	2156.9417	25660.4	24768.45
945.4346	2158.454	25540.15	24647.3
945.5697	2159.9655	25509.35	24618.5
945.7048	2161.4764	25418.15	24526.75
945.8399	2162.9865	25332.95	24442.35
945.9749	2164.4958	25266.2	24375.15
946.1099	2166.0045	25158.15	24264.1
946.2449	2167.5124	25134.5	24245.7
946.3799	2169.0195	25072.1	24181.1
946.5148	2170.526	25018.1	24126.6
946.6498	2172.0317	24919.8	24028.35
946.7846	2173.5367	24881.65	23990.3
946.9195	2175.0409	24775.55	23885.75
947.0543	2176.5445	24746.8	23857.3
947.1891	2178.0473	24669.85	23778.9
947.3239	2179.5494	24520.7	23626.35
947.4587	2181.0507	24429.1	23536.05
947.5934	2182.5513	24367.95	23476.85
947.7281	2184.0512	24315.2	23423.25
947.8628	2185.5504	24218.2	23324.9
947.9974	2187.0488	24042	23151.05
948.132	2188.5465	23981.8	23090
948.2666	2190.0435	23936.65	23046.5
948.4012	2191.5397	23819.8	22927.65
948.5357	2193.0353	23785.5	22894.5
948.6702	2194.5301	23642.9	22750.45
948.8047	2196.0241	23557.4	22663.3
948.9392	2197.5175	23506.6	22613.05
949.0736	2199.0101	23380.5	22486.8
949.208	2200.502	23290.45	22400.1
949.3424	2201.9931	23186.15	22296.65
949.4767	2203.4835	23118.6	22227.05
949.611	2204.9733	23048.45	22152
949.7453	2206.4622	23020.2	22128.6
949.8796	2207.9505	22860.4	21967.6
950.0138	2209.438	22776.15	21886.75
950.148	2210.9248	22691.35	21799.35
950.2822	2212.4109	22637.05	21746.65
950.4164	2213.8962	22554.25	21660.5
950.5505	2215.3809	22494.2	21601.2
950.6846	2216.8648	22419.35	21527.65
950.8186	2218.3479	22385.95	21490.75
950.9527	2219.8304	22280.05	21385.2
951.0867	2221.3121	22156.85	21264.1
951.2207	2222.7931	22098.45	21207.65
951.3546	2224.2733	22024.75	21133.4
951.4886	2225.7529	21933.35	21042.9
951.6225	2227.2317	21864.5	20970.35
951.7563	2228.7098	21853.8	20963.9
951.8902	2230.1872	21698.25	20807.35
952.024	2231.6638	21672.75	20781.25
952.1578	2233.1397	21577.55	20680.85
952.2916	2234.6149	21499.25	20608.65
952.4253	2236.0894	21439.15	20546.85
952.559	2237.5632	21396.95	20493.4
952.6927	2239.0362	21312.05	20421.8
952.8263	2240.5085	21232.05	20339.9
952.9599	2241.9801	21145.45	20254.3
953.0935	2243.4509	21080.3	20191.1
953.2271	2244.921	21026.8	20136.4
953.3606	2246.3904	20923.2	20029.45
953.4941	2247.8591	20846.4	19954.55
953.6276	2249.3271	20813.5	19924
953.7611	2250.7943	20739.95	19849.55
953.8945	2252.2608	20656.05	19765.25
954.0279	2253.7266	20580.4	19688.55
954.1612	2255.1917	20540.45	19650.25
954.2946	2256.656	20417.7	19526.05
954.4279	2258.1197	20350.1	19459.6
954.5612	2259.5826	20322.35	19429.7
954.6944	2261.0447	20245.65	19354.4
954.8276	2262.5062	20180.7	19287.6
954.9608	2263.9669	20126.6	19232.3
955.094	2265.4269	20119.35	19231.5
955.2271	2266.8862	20011	19121.55
955.3602	2268.3448	19925.1	19034.85
955.4933	2269.8026	19946.7	19056.7
955.6264	2271.2598	19827.35	18933.6
955.7594	2272.7162	19751.95	18860.25
955.8924	2274.1719	19692.8	18801
956.0253	2275.6268	19628.55	18736.2
956.1583	2277.0811	19573	18682.45
956.2912	2278.5346	19537.3	18646.95
956.4241	2279.9874	19461.35	18569.3
956.5569	2281.4395	19469.15	18578.65
956.6897	2282.8908	19369.5	18472.3
956.8225	2284.3414	19362.75	18470.6
956.9553	2285.7914	19228.6	18338.05
957.088	2287.2406	19194.5	18303
957.2207	2288.689	19135.15	18244.95
957.3534	2290.1368	19055.7	18164.55
957.486	2291.5838	18973.65	18080.95
957.6186	2293.0302	18931.1	18036
957.7512	2294.4758	18856.75	17964.7
957.8838	2295.9206	18738.25	17846.2
958.0163	2297.3648	18737.75	17848
958.1488	2298.8082	18675.1	17783.5
958.2813	2300.251	18629.3	17737.25
958.4137	2301.693	18560.3	17665.45
958.5461	2303.1343	18560.7	17668.1
958.6785	2304.5748	18443.45	17553.85
958.8108	2306.0147	18368.9	17479.1
958.9432	2307.4538	18337.2	17443.5
959.0754	2308.8922	18271.5	17380.9
959.2077	2310.3299	18236.55	17344.9
959.3399	2311.7669	18151.4	17261.25
959.4721	2313.2031	18066.8	17175
959.6043	2314.6387	18024.6	17132.6
959.7365	2316.0735	17966.25	17074.15
959.8686	2317.5076	17885.65	16994.25
960.0006	2318.941	17859.7	16968
960.1327	2320.3737	17815.1	16923.3
960.2647	2321.8056	17756.75	16863.95
960.3967	2323.2369	17704.55	16813.95
960.5287	2324.6674	17634.55	16742.15
960.6606	2326.0972	17570.95	16677.8
960.7925	2327.5263	17472.5	16580.5
960.9244	2328.9547	17448.05	16556.8
961.0562	2330.3823	17403.4	16512.8
961.1881	2331.8092	17376.7	16483.25
961.3198	2333.2355	17292.55	16401.5
961.4516	2334.661	17239.8	16348.45
961.5833	2336.0858	17182.25	16288.7
961.715	2337.5098	17175.25	16283.7
961.8467	2338.9332	17153	16261
961.9783	2340.3558	17044.1	16150.05
962.1099	2341.7778	17001.3	16111.05
962.2415	2343.199	16936	16042.5
962.373	2344.6195	16849.5	15958.75
962.5045	2346.0393	16806.75	15915.45
962.636	2347.4583	16799.5	15906.9
962.7675	2348.8767	16754.75	15862.55
962.8989	2350.2943	16678.4	15783.95
963.0303	2351.7113	16632.2	15740.2
963.1617	2353.1275	16550.4	15659.3
963.293	2354.543	16514.25	15612.95
963.4243	2355.9578	16471.4	15579.7
963.5556	2357.3718	16371.2	15479.9
963.6868	2358.7852	16278.2	15384.8
963.818	2360.1978	16250.5	15358.15
963.9492	2361.6098	16186.75	15294.95
964.0803	2363.021	16149.25	15254.7
964.2114	2364.4315	16099.7	15208.4
964.3425	2365.8413	16017.2	15124.85
964.4736	2367.2504	15965.25	15074.8
964.6046	2368.6587	15867.15	14977
964.7356	2370.0664	15792.95	14903.5
964.8666	2371.4733	15758.8	14867.1
964.9975	2372.8795	15714.25	14824
965.1284	2374.285	15658.2	14765.65
965.2593	2375.6899	15581.75	14692.5
965.3901	2377.0939	15494.15	14603.1
965.5209	2378.4973	15457.5	14567.6
965.6517	2379.9	15418.75	14527.65
965.7825	2381.3019	15334.25	14444.85
965.9132	2382.7032	15304.25	14413.05
966.0439	2384.1037	15247.95	14359.05
966.1745	2385.5035	15216.25	14326.95
966.3051	2386.9027	15138.65	14248.9
966.4357	2388.3011	15115.55	14222.2
966.5663	2389.6987	15055.8	14164.5
966.6968	2391.0957	14976.8	14087.65
966.8273	2392.492	14917.5	14029.25
966.9578	2393.8876	14811.45	13921.95
967.0882	2395.2824	14752.35	13862.65
967.2186	2396.6765	14721.3	13831.7
967.349	2398.07	14615.95	13726.2
967.4793	2399.4627	14611.2	13718.75
967.6097	2400.8547	14590.75	13698.85
967.7399	2402.246	14507.85	13613.05
967.8702	2403.6366	14430.7	13540.4
968.0004	2405.0265	14380.7	13492.8
968.1306	2406.4156	14321	13426.45
968.2607	2407.8041	14272.3	13380.05
968.3909	2409.1918	14206.05	13313.45
968.521	2410.5789	14162.4	13271.15
968.651	2411.9652	14095.35	13203.05
968.781	2413.3508	14031.3	13139.95
968.911	2414.7358	14014.9	13123
969.041	2416.12	13966.85	13078.4
969.1709	2417.5035	13894.15	13003.2
969.3008	2418.8863	13828.15	12936.55
969.4307	2420.2684	13785	12894.15
969.5606	2421.6497	13739.45	12847.25
969.6904	2423.0304	13662.1	12772.65
969.8201	2424.4104	13647.75	12756.15
969.9499	2425.7896	13570.75	12678.85
970.0796	2427.1682	13531.75	12642.05
970.2093	2428.546	13507.9	12616.05
970.3389	2429.9232	13500.65	12608.95
970.4685	2431.2996	13445.45	12554.85
970.5981	2432.6753	13380.35	12490.2
970.7277	2434.0503	13379.4	12489.25
970.8572	2435.4246	13291.85	12401.3
970.9867	2436.7982	13237.7	12342.9
971.1161	2438.1711	13188.45	12297.15
971.2456	2439.5433	13131	12239.9
971.375	2440.9148	13100.9	12206.6
971.5043	2442.2856	13052.55	12161.8
971.6336	2443.6557	13005.6	12112.75
971.7629	2445.025	12963.5	12072.55
971.8922	2446.3937	12953.55	12062.5
972.0214	2447.7617	12872	11981.4
972.1506	2449.1289	12869.25	11977.35
972.2798	2450.4955	12840.05	11947.95
972.4089	2451.8613	12789.5	11899.25
972.538	2453.2265	12739.6	11849.05
972.6671	2454.5909	12726.1	11834.15
972.7961	2455.9546	12662.5	11772.55
972.9251	2457.3177	12616.45	11724.9
973.0541	2458.68	12568.15	11675.45
973.1831	2460.0416	12552.05	11660.65
973.312	2461.4025	12568.4	11677.8
973.4408	2462.7627	12506.05	11602.65
973.5697	2464.1222	12414.75	11525.75
973.6985	2465.4811	12431.25	11539.5
973.8273	2466.8392	12390.15	11497.4
973.956	2468.1966	12326.65	11434.05
974.0847	2469.5533	12296.9	11405.4
974.2134	2470.9093	12265.35	11374.55
974.3421	2472.2645	12211.9	11321
974.4707	2473.6191	12186.15	11297.2
974.5993	2474.973	12113.45	11221.2
974.7278	2476.3262	12094.4	11201.25
974.8563	2477.6787	12030.4	11141.35
974.9848	2479.0305	11988.3	11099.6
975.1132	2480.3816	11947.55	11054
975.2417	2481.7319	11917.6	11028.35
975.37	2483.0816	11852.15	10958.75
975.4984	2484.4306	11828.65	10935.95
975.6267	2485.7789	11782.3	10892.85
975.755	2487.1264	11705.45	10812.3
975.8833	2488.4733	11650.25	10761.15
976.0115	2489.8195	11635.45	10728.05
976.1397	2491.165	11584.25	10688.1
976.2678	2492.5097	11552.15	10659.6
976.3959	2493.8538	11503.3	10613.3
976.524	2495.1972	11426.85	10536.55
976.6521	2496.5398	11379.15	10488.65
976.7801	2497.8818	11373.9	10480.6
976.9081	2499.2231	11335.85	10445
977.036	2500.5637	11270.7	10376.45
977.164	2501.9035	11238.2	10346.8
977.2918	2503.2427	11214	10319.9
977.4197	2504.5812	11175.6	10286.35
977.5475	2505.919	11152.65	10262.35
977.6753	2507.256	11113.4	10223.4
977.8031	2508.5924	11070	10178.6
977.9308	2509.9281	11027	10130.65
978.0585	2511.2631	10999.4	10108.3
978.1861	2512.5974	10962.15	10072.45
978.3137	2513.9309	10905.15	10014.85
978.4413	2515.2638	10880.6	9964.6
978.5689	2516.596	10836.5	9946.65
978.6964	2517.9275	10773.9	9880.9
978.8239	2519.2583	10755.5	9863.15
978.9513	2520.5884	10702.95	9810.15
979.0788	2521.9178	10670.3	9779.3
979.2062	2523.2465	10613.6	9723.85
979.3335	2524.5745	10579.3	9689.4
979.4608	2525.9018	10534	9643.1
979.5881	2527.2284	10543.15	9653.35
979.7154	2528.5543	10494.15	9605.75
979.8426	2529.8796	10443.75	9552.9
979.9698	2531.2041	10441.7	9551.05
980.0969	2532.5279	10440.1	9552.25
980.224	2533.851	10422.2	9531.25
980.3511	2535.1735	10366.35	9475.05
980.4781	2536.4952	10344.8	9454.6
980.6052	2537.8163	10300.25	9409.6
980.7321	2539.1366	10247.15	9358.4
980.8591	2540.4562	10223.9	9330.75
980.986	2541.7752	10207.9	9316.55
981.1129	2543.0935	10169.7	9276.85
981.2397	2544.411	10160.95	9269.05
981.3665	2545.7279	10148.45	9257.2
981.4933	2547.0441	10112.6	9222.8
981.62	2548.3596	10082.15	9189.45
981.7467	2549.6744	10073.35	9184.25
981.8734	2550.9885	10020.6	9126.65
982.0001	2552.3019	9995.85	9103.55
982.1267	2553.6146	10000.45	9107.95
982.2532	2554.9266	9935.9	9045.65
982.3798	2556.2379	9909.2	9017.55
982.5063	2557.5485	9900.3	9011.45
982.6327	2558.8585	9872.2	8972.3
982.7592	2560.1677	9823.25	8928.15
982.8856	2561.4762	9820.4	8928.6
983.0119	2562.7841	9825.55	8931.55
983.1383	2564.0913	9758.25	8868.8
983.2646	2565.3977	9756.75	8866
983.3908	2566.7035	9740.2	8849.75
983.517	2568.0086	9714.25	8819.95
983.6432	2569.313	9692.15	8800.15
983.7694	2570.6167	9673.95	8780.45
983.8955	2571.9197	9638.7	8749.15
984.0216	2573.222	9643.05	8749.25
984.1476	2574.5236	9602.35	8711.4
984.2737	2575.8246	9538.85	8646.25
984.3996	2577.1248	9529.4	8634.45
984.5256	2578.4244	9523.65	8634.65
984.6515	2579.7232	9503.05	8613.85
984.7774	2581.0214	9489.95	8573.75
984.9032	2582.3189	9438.45	8548.5
985.029	2583.6157	9427.7	8531.85
985.1548	2584.9118	9374.8	8483.45
985.2806	2586.2072	9378.85	8488.15
985.4063	2587.5019	9319	8426.5
985.5319	2588.7959	9315.15	8423.3
985.6576	2590.0893	9299.45	8406.75
985.7832	2591.3819	9279.7	8389.9
985.9087	2592.6739	9235.95	8346.3
986.0343	2593.9652	9232.45	8339.8
986.1597	2595.2557	9171.85	8280.05
986.2852	2596.5456	9128.55	8233.6
986.4106	2597.8348	9124.7	8233.2
986.536	2599.1234	9091.3	8201.05
986.6614	2600.4112	9043.2	8152.35
986.7867	2601.6983	9026.7	8131.5
986.912	2602.9848	8979.7	8088.25
987.0372	2604.2705	8966.25	8068.9
987.1624	2605.5556	8927.95	8035.9
987.2876	2606.84	8901.2	8009
987.4128	2608.1237	8852.65	7961
987.5379	2609.4067	8835.55	7944.1
987.6629	2610.689	8798.8	7898.75
987.788	2611.9707	8757.85	7864.7
987.913	2613.2516	8737.85	7844.1
988.0379	2614.5319	8696.05	7805.35
988.1629	2615.8115	8661.6	7771.8
988.2878	2617.0903	8634.9	7743.15
988.4126	2618.3685	8609.65	7720.7
988.5375	2619.6461	8561.25	7669.75
988.6622	2620.9229	8554.85	7664.5
988.787	2622.199	8515.5	7625.55
988.9117	2623.4745	8488.3	7597.65
989.0364	2624.7493	8464.2	7573.25
989.161	2626.0234	8424.9	7534.9
989.2857	2627.2968	8397.95	7506.95
989.4102	2628.5695	8368	7474.7
989.5348	2629.8415	8342.95	7452
989.6593	2631.1128	8279.15	7385.75
989.7837	2632.3835	8265.5	7374.35
989.9082	2633.6535	8228.2	7337.1
990.0326	2634.9228	8206.85	7318.5
990.1569	2636.1914	8160.6	7269.45
990.2812	2637.4593	8139.45	7247.45
990.4055	2638.7265	8119.55	7229.2
990.5298	2639.9931	8100.5	7208.9
990.654	2641.259	8106.75	7213.55
990.7782	2642.5242	8073.45	7181.55
990.9023	2643.7887	8026.65	7134.65
991.0264	2645.0525	8013.15	7121.75
991.1505	2646.3156	7969.3	7078.55
991.2745	2647.5781	7942.6	7052.4
991.3985	2648.8398	7894.15	7004.65
991.5225	2650.1009	7889.4	6989.3
991.6464	2651.3613	7876.45	6985.95
991.7703	2652.6211	7835.65	6945.6
991.8942	2653.8801	7820.35	6930.15
992.018	2655.1385	7800.5	6905.95
992.1418	2656.3961	7759.5	6869.4
992.2655	2657.6531	7760.45	6870.2
992.3892	2658.9094	7751.6	6859.75
992.5129	2660.1651	7734.5	6846.1
992.6366	2661.42	7707.45	6817.95
992.7602	2662.6743	7682.45	6790.45
992.8837	2663.9279	7666.85	6777.25
993.0073	2665.1808	7622.8	6730.5
993.1307	2666.433	7591.8	6698.9
993.2542	2667.6846	7600.95	6710.6
993.3776	2668.9354	7562.8	6669.85
993.501	2670.1856	7549.65	6656
993.6244	2671.4351	7508.7	6616.75
993.7477	2672.6839	7515.5	6624.3
993.8709	2673.9321	7474.1	6585.65
993.9942	2675.1795	7462.55	6572.25
994.1174	2676.4263	7437.2	6546.7
994.2405	2677.6724	7433.1	6543.1
994.3637	2678.9179	7424.75	6533.5
994.4868	2680.1626	7387.1	6496.6
994.6098	2681.4067	7387.95	6495.6
994.7328	2682.6501	7335.15	6444.35
994.8558	2683.8928	7307.05	6415.4
994.9788	2685.1348	7274.85	6383.85
995.1017	2686.3761	7251.05	6360.95
995.2245	2687.6168	7239.8	6348.7
995.3474	2688.8568	7208.25	6316.7
995.4702	2690.0961	7180.3	6290.05
995.5929	2691.3348	7169.5	6278.3
995.7156	2692.5727	7143.85	6251.5
995.8383	2693.81	7109.2	6217.15
995.961	2695.0466	7093.75	6204.1
996.0836	2696.2826	7064.5	6170.75
996.2062	2697.5178	7061.95	6170.45
996.3287	2698.7524	7038.7	6148.2
996.4512	2699.9863	7007.3	6114.4
996.5737	2701.2195	6963.4	6074.05
996.6961	2702.452	6959.55	6067.4
996.8185	2703.6839	6958.2	6067.05
996.9408	2704.9151	6933.15	6044.7
997.0631	2706.1456	6906	6014.4
997.1854	2707.3755	6881.7	5990.75
997.3077	2708.6046	6879.25	5986.4
997.4299	2709.8331	6851.8	5962.9
997.552	2711.0609	6830.65	5938
997.6742	2712.2881	6824.8	5935.3
997.7963	2713.5145	6804.6	5912.75
997.9183	2714.7403	6792.3	5902.2
998.0403	2715.9654	6775.8	5884.75
998.1623	2717.1899	6773.2	5867.55
998.2842	2718.4136	6749.2	5859.65
998.4062	2719.6367	6727.35	5834.9
998.528	2720.8591	6723.45	5827.4
998.6498	2722.0809	6697.35	5807.1
998.7716	2723.3019	6685.5	5790.65
998.8934	2724.5223	6661.2	5769.15
999.0151	2725.7421	6657.45	5765.35
999.1368	2726.9611	6628	5735.2
999.2584	2728.1795	6620.5	5726.15
999.38	2729.3972	6583.1	5691.75
999.5016	2730.6142	6565.75	5661.95
999.6231	2731.8306	6516.9	5625.7
999.7446	2733.0462	6481	5588.3
999.8661	2734.2612	6435.15	5540.45
999.9875	2735.4756	6398.35	5504.6
1000.1089	2736.6892	6361.65	5470.75
1000.2302	2737.9022	6346.15	5456.8
1000.3515	2739.1145	6289.55	5399
1000.4728	2740.3262	6271.8	5373.8
1000.594	2741.5372	6236.9	5345.95
1000.7152	2742.7475	6208.3	5316.55
1000.8363	2743.9571	6194.8	5302.25
1000.9575	2745.1661	6157.1	5262.8
1001.0785	2746.3744	6131.8	5241.6
1001.1996	2747.582	6113.3	5223.25
1001.3206	2748.7889	6085.35	5193.75
1001.4415	2749.9952	6059.5	5169.55
1001.5625	2751.2008	6026.05	5133
1001.6833	2752.4057	6014.15	5120
1001.8042	2753.61	5972.3	5081.1
1001.925	2754.8136	5960.7	5067.85
1002.0458	2756.0165	5945.1	5056.4
1002.1665	2757.2188	5941.15	5053.35
1002.2872	2758.4204	5925.5	5034.45
1002.4078	2759.6213	5890.2	4997.1
1002.5285	2760.8215	5899.3	5004.3
1002.649	2762.0211	5867.85	4974.15
1002.7696	2763.22	5823.45	4928.55
1002.8901	2764.4182	5803.85	4911.9
1003.0106	2765.6158	5789.4	4897.55
1003.131	2766.8127	5786.1	4895.8
1003.2514	2768.009	5739.2	4849.4
1003.3717	2769.2045	5763.65	4871.95
1003.492	2770.3994	5712	4818.05
1003.6123	2771.5936	5699.95	4808.9
1003.7325	2772.7872	5694.85	4804.3
1003.8527	2773.9801	5651.45	4759.85
1003.9729	2775.1723	5651.95	4744.35
1004.093	2776.3639	5607	4717.5
1004.2131	2777.5548	5594.45	4703.25
1004.3331	2778.745	5588.45	4696.65
1004.4531	2779.9346	5578.9	4688.9
1004.5731	2781.1235	5564.05	4672.05
1004.693	2782.3117	5550.75	4659.7
1004.8129	2783.4992	5532.8	4643
1004.9328	2784.6861	5508.45	4618.85
1005.0526	2785.8723	5491.1	4600.45
1005.1723	2787.0579	5481.55	4590.75
1005.2921	2788.2428	5477.45	4586.85
1005.4118	2789.427	5446.55	4556.7
1005.5314	2790.6106	5448.15	4557.3
1005.651	2791.7935	5429.15	4539.75
1005.7706	2792.9757	5422.5	4531.95
1005.8902	2794.1573	5407	4515.3
1006.0097	2795.3382	5398.05	4508.1
1006.1291	2796.5184	5408.8	4518.85
1006.2485	2797.698	5406.3	4515.8
1006.3679	2798.8769	5419.2	4529.45
1006.4873	2800.0551	5404.05	4513.25
1006.6066	2801.2327	5404.55	4509.95
1006.7258	2802.4096	5390.05	4498.35
1006.8451	2803.5859	5395.7	4503.45
1006.9642	2804.7615	5391.1	4499.1
1007.0834	2805.9364	5432.55	4543.25
1007.2025	2807.1106	5433.3	4544.75
1007.3216	2808.2842	5425.35	4533.55
1007.4406	2809.4572	5444.85	4555.2
1007.5596	2810.6294	5481.2	4590.1
1007.6785	2811.801	5507.65	4618.8
1007.7975	2812.972	5527.7	4638.45
1007.9163	2814.1423	5549.6	4658.15
1008.0352	2815.3119	5578	4688.95
1008.154	2816.4808	5619.7	4730.2
1008.2727	2817.6491	5650.9	4758.55
1008.3914	2818.8167	5678.75	4789.25
1008.5101	2819.9837	5708.3	4813.55
1008.6288	2821.15	5735.9	4844.45
1008.7474	2822.3157	5762.7	4873.6
1008.8659	2823.4807	5796.6	4906.3
1008.9844	2824.645	5846.8	4955.35
1009.1029	2825.8086	5853.2	4964.05
1009.2214	2826.9716	5888.85	4999.4
1009.3398	2828.134	5920.5	5030.7
1009.4581	2829.2957	5956.45	5065.6
1009.5764	2830.4567	5958	5068.25
1009.6947	2831.617	5976.85	5087.3
1009.813	2832.7767	5972.7	5084
1009.9312	2833.9358	5947.35	5056.35
1010.0493	2835.0941	5943.7	5053.8
1010.1675	2836.2519	5927.3	5036.8
1010.2855	2837.4089	5912.8	5023.5
1010.4036	2838.5653	5881.55	4990.65
1010.5216	2839.7211	5875.5	4989.25
1010.6396	2840.8761	5875.35	4984.5
1010.7575	2842.0306	5878.8	4990.9
1010.8754	2843.1843	5891.35	5002.05
1010.9932	2844.3374	5947.65	5056.5
1011.111	2845.4899	5996.6	5105.5
1011.2288	2846.6417	6057.35	5168.4
1011.3465	2847.7928	6115.2	5225.6
1011.4642	2848.9433	6172	5282.05
1011.5818	2850.0931	6229.65	5340
1011.6995	2851.2422	6307.95	5416.15
1011.817	2852.3907	6366.1	5475.4
1011.9345	2853.5385	6406.15	5514.75
1012.052	2854.6857	6474.7	5558.5
1012.1695	2855.8323	6502.3	5613.15
1012.2869	2856.9781	6516.5	5629.4
1012.4042	2858.1233	6560.2	5671.25
1012.5216	2859.2679	6595.2	5704.75
1012.6389	2860.4118	6622.2	5731.8
1012.7561	2861.555	6627	5731.45
1012.8733	2862.6976	6674.3	5782.15
1012.9905	2863.8395	6688.4	5799.25
1013.1076	2864.9808	6683.45	5793.4
1013.2247	2866.1214	6684.7	5796.55
1013.3417	2867.2614	6692.2	5800.85
1013.4587	2868.4007	6699.55	5808.35
1013.5757	2869.5393	6692.95	5801.95
1013.6926	2870.6773	6690.25	5796.85
1013.8095	2871.8146	6697.5	5805.35
1013.9263	2872.9513	6673.6	5782.55
1014.0431	2874.0874	6649.2	5759.6
1014.1599	2875.2227	6614.65	5725
1014.2766	2876.3574	6606.2	5716.4
1014.3933	2877.4915	6572	5683.25
1014.51	2878.6249	6520.55	5629.05
1014.6266	2879.7577	6483.4	5591.5
1014.7431	2880.8898	6441.9	5542.15
1014.8596	2882.0212	6436.2	5545.35
1014.9761	2883.152	6390.6	5500.15
1015.0925	2884.2821	6370.55	5483.15
1015.2089	2885.4116	6354.9	5466.25
1015.3253	2886.5405	6323.25	5433.85
1015.4416	2887.6686	6331.25	5436.85
1015.5579	2888.7962	6332.85	5444.95
1015.6741	2889.923	6324.8	5433.95
1015.7903	2891.0493	6311.95	5422.05
1015.9065	2892.1748	6299.75	5409.05
1016.0226	2893.2997	6303.6	5413.2
1016.1387	2894.424	6302.35	5413.75
1016.2547	2895.5476	6306.25	5416.65
1016.3707	2896.6706	6341.45	5451.8
1016.4866	2897.7929	6332.1	5441.85
1016.6025	2898.9145	6350.9	5459.65
1016.7184	2900.0355	6364.1	5472.85
1016.8342	2901.1559	6399.55	5509.65
1016.95	2902.2756	6431.45	5541.95
1017.0658	2903.3946	6428.5	5539.65
1017.1815	2904.513	6422.4	5528.35
1017.2971	2905.6308	6452.8	5562.75
1017.4127	2906.7479	6460.15	5568
1017.5283	2907.8643	6470.3	5579.8
1017.6439	2908.9801	6467.8	5580.35
1017.7594	2910.0953	6464.45	5575.15
1017.8748	2911.2098	6461	5568.4
1017.9902	2912.3236	6425.65	5527.6
1018.1056	2913.4368	6418.65	5524.35
1018.2209	2914.5494	6376.3	5484.5
1018.3362	2915.6613	6329.4	5435.4
1018.4515	2916.7725	6303.5	5411.65
1018.5667	2917.8831	6254.5	5365.2
1018.6819	2918.9931	6226.45	5332.95
1018.797	2920.1024	6189.35	5298.4
1018.9121	2921.211	6161.35	5272.8
1019.0271	2922.319	6115.7	5225.1
1019.1421	2923.4264	6122.85	5233.15
1019.2571	2924.5331	6085.15	5195.8
1019.372	2925.6391	6060.95	5169.7
1019.4869	2926.7445	6053.15	5164.8
1019.6017	2927.8493	6029.45	5139.8
1019.7165	2928.9534	6005.15	5114.35
1019.8313	2930.0569	5989.4	5096.2
1019.946	2931.1597	5976.5	5084.15
1020.0606	2932.2619	5958.45	5068.85
1020.1753	2933.3634	5949.15	5059.05
1020.2899	2934.4643	5945.1	5049.65
1020.4044	2935.5645	5911.2	5014.05
1020.5189	2936.6641	5862.8	4967.3
1020.6334	2937.763	5815.35	4925.2
1020.7478	2938.8613	5744.4	4854.75
1020.8622	2939.959	5681.65	4787.25
1020.9765	2941.056	5594.45	4705.4
1021.0908	2942.1523	5514.7	4622.65
1021.2051	2943.248	5427	4537.25
1021.3193	2944.3431	5310.1	4421.6
1021.4334	2945.4375	5188.05	4298.6
1021.5476	2946.5313	5085.6	4196.5
1021.6617	2947.6244	4987.15	4096.9
1021.7757	2948.7169	4882.1	3993.5
1021.8897	2949.8087	4762.25	3871.85
1022.0037	2950.8999	4658.9	3770.05
1022.1176	2951.9904	4568.25	3678.85
1022.2315	2953.0803	4486.85	3595.4
1022.3453	2954.1696	4409.2	3518.95
1022.4591	2955.2582	4352.85	3464.7
1022.5728	2956.3462	4304.15	3415.6
1022.6865	2957.4335	4258.55	3367.25
1022.8002	2958.5202	4211.7	3319.15
1022.9138	2959.6062	4155.7	3265.95
1023.0274	2960.6916	4138.7	3250.55
1023.141	2961.7764	4100.6	3210.35
1023.2545	2962.8605	4080.85	3190.35
1023.3679	2963.9439	4073.5	3185.2
1023.4813	2965.0267	4038.5	3148
1023.5947	2966.1089	4036.25	3126.35
1023.708	2967.1905	4003.25	3113.3
1023.8213	2968.2714	4001.95	3114.5
1023.9346	2969.3516	3986.95	3097.25
1024.0478	2970.4312	3985	3087.7
1024.1609	2971.5102	3982.85	3093.55
1024.274	2972.5885	3943.9	3053.4
1024.3871	2973.6662	3962.15	3069.35
1024.5002	2974.7432	3927.9	3038.4
1024.6132	2975.8196	3905.05	3016.9
1024.7261	2976.8954	3885.55	2997.8
1024.839	2977.9705	3873.65	2983.95
1024.9519	2979.045	3849.7	2960.35
1025.0647	2980.1188	3823.15	2934.85
1025.1775	2981.192	3784.85	2894.85
1025.2902	2982.2645	3774.75	2884.4
1025.4029	2983.3364	3744.95	2857.9
1025.5156	2984.4077	3690.05	2802.45
1025.6282	2985.4783	3685.65	2790.55
1025.7407	2986.5483	3634.75	2747.3
1025.8532	2987.6177	3576.65	2690.75
1025.9657	2988.6864	3545.35	2655
1026.0782	2989.7545	3511.9	2620.6
1026.1906	2990.8219	3471.6	2582.1
1026.3029	2991.8887	3435.2	2543.4
1026.4152	2992.9548	3396.55	2507.25
1026.5275	2994.0204	3353.4	2465.5
1026.6397	2995.0852	3306.8	2419.15
1026.7519	2996.1495	3299.4	2409.8
1026.864	2997.2131	3251.7	2362.35
1026.9761	2998.276	3225.5	2337
1027.0882	2999.3383	3209.6	2318.8
1027.2002	3000.4	3170.7	2281.15
1027.3122	3001.4611	3158.4	2269.95
1027.4241	3002.5215	3134.75	2243.4
1027.536	3003.5812	3120.45	2231.4
1027.6478	3004.6404	3095.45	2204.75
1027.7596	3005.6989	3083.75	2192.65
1027.8714	3006.7567	3084.4	2194.35
1027.9831	3007.8139	3067.35	2157.65
1028.0947	3008.8705	3041.2	2151.4
1028.2064	3009.9264	3024.55	2132.7
1028.3179	3010.9818	3018.4	2129.5
1028.4295	3012.0364	3012.35	2120.5
1028.541	3013.0905	3001.6	2110.7
1028.6524	3014.1439	2987.2	2097.2
1028.7638	3015.1966	2977.15	2087.2
1028.8752	3016.2487	2958.5	2069.15
1028.9865	3017.3002	2958.05	2064.05
1029.0978	3018.3511	2950.4	2061.25
1029.209	3019.4013	2959.25	2070.25
1029.3202	3020.4509	2946.75	2058.45
1029.4314	3021.4998	2944.4	2056.6
1029.5425	3022.5481	2939.95	2048.25
1029.6535	3023.5958	2938.9	2047.45
1029.7645	3024.6428	2918.5	2027.65
1029.8755	3025.6892	2915.1	2025.45
1029.9864	3026.735	2911.7	2022.85
1030.0973	3027.7802	2898.9	2008.7
1030.2082	3028.8247	2887.45	1998.25
1030.319	3029.8685	2882.4	1992.65
1030.4297	3030.9118	2894.45	2005
1030.5404	3031.9544	2876.3	1987.2
1030.6511	3032.9963	2880.35	1990.65
1030.7617	3034.0376	2876.15	1985.25
1030.8723	3035.0783	2880.05	1989.35
1030.9829	3036.1184	2883.45	1992.8
1031.0934	3037.1578	2866.45	1979.4
1031.2038	3038.1966	2868.05	1978.25
1031.3142	3039.2348	2847.4	1957.8
1031.4246	3040.2723	2843.7	1946.7
1031.5349	3041.3092	2828.25	1939.05
1031.6452	3042.3455	2834.9	1945.25
1031.7554	3043.3811	2823.4	1933.1
1031.8656	3044.4161	2806.7	1917.45
1031.9758	3045.4505	2801.75	1912.25
1032.0859	3046.4842	2794.2	1905
1032.1959	3047.5173	2776.85	1887.75
1032.3059	3048.5498	2772.95	1883.4
1032.4159	3049.5816	2753.2	1864
1032.5258	3050.6128	2751.4	1861.35
1032.6357	3051.6434	2735.95	1844.95
1032.7455	3052.6734	2725.4	1835.65
1032.8553	3053.7027	2711.9	1822.7
1032.9651	3054.7314	2703.25	1814.4
1033.0748	3055.7594	2685.4	1796.5
1033.1845	3056.7868	2680.8	1788.75
1033.2941	3057.8136	2666.9	1778.4
1033.4037	3058.8398	2659.85	1772.75
1033.5132	3059.8653	2648.05	1761.45
1033.6227	3060.8902	2620.6	1732.5
1033.7321	3061.9145	2620.2	1730.3
1033.8415	3062.9381	2614.25	1724.9
1033.9509	3063.9612	2617.4	1712.6
1034.0602	3064.9835	2601.8	1712.55
1034.1694	3066.0053	2575.45	1685.45
1034.2787	3067.0264	2563.95	1676.1
1034.3878	3068.0469	2554.1	1663.75
1034.497	3069.0668	2541.7	1649.95
1034.6061	3070.086	2524.1	1635.1
1034.7151	3071.1046	2510.3	1621.55
1034.8241	3072.1226	2494.4	1604.15
1034.9331	3073.1399	2481.75	1592.45
1035.042	3074.1567	2460.2	1571.6
1035.1508	3075.1727	2455.35	1564.75
1035.2597	3076.1882	2446.85	1559.15
1035.3684	3077.203	2428.7	1539.6
1035.4772	3078.2173	2407	1516.5
1035.5859	3079.2308	2403.6	1510.7
1035.6945	3080.2438	2389.35	1499.3
1035.8031	3081.2561	2375.85	1488.2
1035.9117	3082.2678	2366.15	1479.3
1036.0202	3083.2789	2361.3	1471.85
1036.1286	3084.2893	2343.85	1456.3
1036.2371	3085.2991	2327.7	1437.45
1036.3454	3086.3083	2320.1	1426.5
1036.4538	3087.3169	2315.15	1422.15
1036.562	3088.3248	2309.55	1418.2
1036.6703	3089.3321	2294.1	1403.55
1036.7785	3090.3388	2284.3	1397.7
1036.8866	3091.3449	2269.9	1381.45
1036.9948	3092.3503	2270	1379.75
1037.1028	3093.3551	2262.35	1373.45
1037.2108	3094.3593	2252.5	1366.05
1037.3188	3095.3629	2252.1	1364.55
1037.4267	3096.3658	2220.15	1330.05
1037.5346	3097.3681	2232.35	1343.85
1037.6425	3098.3698	2216.7	1324.85
1037.7503	3099.3708	2210	1316.65
1037.858	3100.3713	2205.3	1316.1
1037.9657	3101.3711	2193.9	1304.05
1038.0734	3102.3702	2306.85	1279.95
1038.181	3103.3688	2182.6	1290.75
1038.2886	3104.3667	2164.75	1278.05
1038.3961	3105.364	2158.05	1270.2
1038.5036	3106.3607	2138.85	1247.3
1038.611	3107.3568	2148	1258.65
1038.7184	3108.3522	2126.7	1239.85
1038.8257	3109.347	2127.9	1240.5
1038.933	3110.3412	2134.45	1240.45
1039.0403	3111.3348	2116	1225.4
1039.1475	3112.3277	2099.1	1211
1039.2547	3113.32	2099.15	1210.3
1039.3618	3114.3117	2096.4	1207.15
1039.4689	3115.3028	2077.9	1189.55
1039.5759	3116.2932	2066.55	1174.6
1039.6829	3117.2831	2069.75	1175.7
1039.7898	3118.2723	2064.15	1174.05
1039.8967	3119.2608	2052.9	1163.95
1040.0035	3120.2488	2048.15	1157
1040.1103	3121.2361	2037.6	1147.75
1040.2171	3122.2229	2024.55	1134.4
1040.3238	3123.209	2024.45	1133.7
1040.4305	3124.1944	2035.35	1147.65
1040.5371	3125.1793	2024.55	1135.3
1040.6437	3126.1635	2008.3	1119.1
1040.7502	3127.1471	2006.55	1118.45
1040.8567	3128.1301	1995.85	1106.65
1040.9631	3129.1125	1993.85	1106.05
1041.0695	3130.0942	1990.1	1100.55
1041.1759	3131.0753	1991.2	1093.35
1041.2822	3132.0558	1983.05	1090.5
1041.3884	3133.0357	1975.7	1085.95
1041.4946	3134.015	1974.75	1085.85
1041.6008	3134.9936	1963.2	1072.95
1041.7069	3135.9716	1974.2	1065.75
1041.813	3136.949	1950.05	1061.45
1041.919	3137.9258	1949.4	1055.75
1042.025	3138.902	1950.35	1055.25
1042.1309	3139.8775	1942.25	1055
1042.2368	3140.8524	1937.85	1049.8
1042.3427	3141.8267	1926.55	1037.05
1042.4485	3142.8004	1923.1	1032.75
1042.5542	3143.7735	1922.8	1028.65
1042.6599	3144.7459	1915.65	1025.45
1042.7656	3145.7178	1907.95	1017.45
1042.8712	3146.689	1906.25	1018.3
1042.9768	3147.6596	1899.9	1008.9
1043.0823	3148.6295	1889.6	998.8
1043.1878	3149.5989	1882.8	994.05
1043.2932	3150.5676	1872.75	984.65
1043.3986	3151.5357	1879.65	992.1
1043.5039	3152.5032	1878.05	990.6
1043.6092	3153.4701	1868.65	980
1043.7145	3154.4364	1854.35	961.55
1043.8197	3155.402	1849.4	961.75
1043.9248	3156.367	1850.9	960.9
1044.03	3157.3315	1882.45	949.6
1044.135	3158.2952	1839.85	952.15
1044.24	3159.2584	1830.75	943.95
1044.345	3160.221	1826.2	936.05
1044.4499	3161.1829	1821.2	932.45
1044.5548	3162.1442	1818	928.25
1044.6596	3163.105	1810.85	921.8
1044.7644	3164.065	1797.5	906.95
1044.8692	3165.0245	1794.05	901.95
1044.9739	3165.9834	1789.45	902.35
1045.0785	3166.9416	1781.05	895.25
1045.1831	3167.8993	1786.95	897.25
1045.2877	3168.8563	1771.5	882.8
1045.3922	3169.8127	1771.6	880.9
1045.4966	3170.7684	1764.9	875.55
1045.6011	3171.7236	1769.3	880.95
1045.7054	3172.6782	1759.7	873
1045.8098	3173.6321	1752.9	863.75
1045.914	3174.5854	1752.65	859.7
1046.0183	3175.5381	1741.95	853.95
1046.1224	3176.4902	1744.75	857.1
1046.2266	3177.4417	1732.05	845.05
1046.3307	3178.3926	1734.15	847.7
1046.4347	3179.3428	1720.6	832.6
1046.5387	3180.2924	1719.3	832.05
1046.6427	3181.2415	1715.75	827.4
1046.7466	3182.1899	1716.35	825.3
1046.8504	3183.1377	1702.7	813.6
1046.9542	3184.0848	1701.5	810.1
1047.058	3185.0314	1710.9	821.3
1047.1617	3185.9773	1684.95	798.05
1047.2654	3186.9227	1688.6	800.75
1047.369	3187.8674	1696.85	808.35
1047.4726	3188.8115	1687.4	794.05
1047.5761	3189.755	1671	782
1047.6796	3190.6979	1675	787.15
1047.783	3191.6402	1675.35	788.45
1047.8864	3192.5818	1663.3	775.65
1047.9898	3193.5229	1683.05	770.1
1048.0931	3194.4633	1655.1	765
1048.1963	3195.4031	1656.5	768.8
1048.2995	3196.3423	1649.25	761.35
1048.4027	3197.2809	1645.45	756.25
1048.5058	3198.2189	1647.25	758.7
1048.6089	3199.1563	1639.95	743.4
1048.7119	3200.0931	1628.2	739.85
1048.8148	3201.0292	1629.55	741.95
1048.9178	3201.9648	1621.85	735.45
1049.0206	3202.8997	1628.85	737.25
1049.1235	3203.834	1623.45	735.25
1049.2262	3204.7677	1619	730.5
1049.329	3205.7008	1611.5	719.75
1049.4317	3206.6333	1602.75	717.35
1049.5343	3207.5652	1605.55	714.25
1049.6369	3208.4964	1601.65	712.8
1049.7394	3209.4271	1598.2	710.9
1049.8419	3210.3571	1593.85	705.6
1049.9444	3211.2865	1588.65	699.55
1050.0468	3212.2154	1590.1	701
1050.1491	3213.1436	1585.35	692.9
1050.2514	3214.0712	1583.2	687.15
1050.3537	3214.9982	1569.8	680.5
1050.4559	3215.9246	1574.6	684.85
1050.5581	3216.8503	1575.2	688.4
1050.6602	3217.7755	1568.3	679.25
1050.7623	3218.7001	1566.4	678.45
1050.8643	3219.624	1561.3	671
1050.9663	3220.5473	1557.7	667.15
1051.0682	3221.4701	1545.15	654.8
1051.1701	3222.3922	1545.8	653.95
1051.2719	3223.3137	1547.35	659.7
1051.3737	3224.2346	1541.35	651.45
1051.4754	3225.1549	1543.55	655.85
1051.5771	3226.0746	1529.6	643.65
1051.6788	3226.9937	1528.35	639.25
1051.7804	3227.9121	1525.7	638.45
1051.8819	3228.83	1515.9	628
1051.9834	3229.7473	1525	636.55
1052.0849	3230.6639	1510.7	620.3
1052.1863	3231.5799	1509.3	620.65
1052.2876	3232.4954	1508.95	620.1
1052.3889	3233.4102	1507.3	618.65
1052.4902	3234.3244	1505.15	615.9
1052.5914	3235.238	1492.1	604.7
1052.6926	3236.151	1518.2	608
1052.7937	3237.0634	1484.6	594.45
1052.8948	3237.9752	1487.55	599.6
1052.9958	3238.8864	1491.05	601.7
1053.0968	3239.797	1486.15	598.55
1053.1977	3240.7069	1482.55	592.4
1053.2986	3241.6163	1471.6	581.4
1053.3994	3242.5251	1471.95	585
1053.5002	3243.4332	1463.55	575.65
1053.6009	3244.3408	1463.65	574.75
1053.7016	3245.2477	1459	570.4
1053.8022	3246.154	1459	570.45
1053.9028	3247.0598	1457.85	568.05
1054.0034	3247.9649	1448.55	559.35
1054.1039	3248.8694	1446.15	556.35
1054.2043	3249.7733	1436.7	546.15
1054.3047	3250.6766	1447.1	558.4
1054.4051	3251.5793	1437.5	547.15
1054.5054	3252.4814	1428.45	539.9
1054.6056	3253.3829	1430.15	541.8
1054.7058	3254.2838	1419.2	531.95
1054.806	3255.1841	1428.95	541.9
1054.9061	3256.0838	1414	527.5
1055.0061	3256.9829	1415.9	527.4
1055.1062	3257.8814	1412.4	521.4
1055.2061	3258.7792	1412.9	520.35
1055.306	3259.6765	1402.8	512.75
1055.4059	3260.5731	1394.9	507.9
1055.5057	3261.4692	1393.5	504.95
1055.6055	3262.3647	1377.55	487.05
1055.7052	3263.2595	1378.65	490.9
1055.8049	3264.1538	1365.45	477.5
1055.9045	3265.0474	1358.65	469.6
1056.0041	3265.9404	1359.25	472.3
1056.1036	3266.8329	1339.9	452.3
1056.2031	3267.7247	1345.75	447.7
1056.3025	3268.616	1328.15	440.6
1056.4019	3269.5066	1318.4	429.1
1056.5013	3270.3966	1314.9	421.8
1056.6005	3271.286	1292.85	406.75
