Software Version:	3.9.2.0
Unit SN:	10000200
Spectrometer SN:	6960
Date:	3/6/2024 10:49:18 AM
Data Line Index:	25
Spectral Points:	2048
Integration time (ms):	125
Averages:	20
Delay (ms):	30
Sequence Number:	1
Processing:	dark subtract
Laser Power (mW):	300
Laser Current (mA):	821
Laser Diode Temp (C):	25.1
Laser Case Temp (C):	27.5
System Temp (C):	27.4
Spectrometer Temp (C):	24.7
CCD Temp (C):	0.007
Secondary Temp (C):	20.014
Heatsink Temp (C):	23.061
CCDPCB Temp (C):	36.507
SecondaryPCB Temp (C):	33.306

Wavelength	RamanShift	Raw Counts	Dark Subtracted
787.061	30.1047	1145.7	733.95
787.2016	32.3739	1183.8	772.7
787.3422	34.6426	1216.95	804.85
787.4828	36.9109	1273.7	859.7
787.6235	39.1787	1319.4	901.45
787.7642	41.4461	1390.4	966.3
787.9049	43.7131	1455.55	1028.65
788.0456	45.9796	1523.25	1094
788.1863	48.2456	1588.8	1155.65
788.3271	50.5112	1660.5	1220.35
788.4679	52.7764	1735	1294.8
788.6087	55.0411	1816.45	1372.1
788.7496	57.3054	1893.6	1443.25
788.8904	59.5692	1989.7	1538.5
789.0313	61.8326	2094.1	1638.7
789.1722	64.0955	2190.8	1734.2
789.3132	66.3579	2338.55	1873.3
789.4541	68.6199	2499.25	2034.85
789.5951	70.8815	2747.3	2275.65
789.7361	73.1426	3277.8	2801.75
789.8771	75.4032	4593.4	4115.45
790.0181	77.6634	7974.65	7491.8
790.1592	79.9231	16832.05	16343.45
790.3003	82.1824	55287.3	54787.6
790.4414	84.4412	65535	65019.95
790.5825	86.6995	65535	64996.85
790.7237	88.9574	65535	64973.75
790.8648	91.2148	65535	64956.4
791.006	93.4717	65535	64948.95
791.1472	95.7282	65535	64942.95
791.2885	97.9842	65535	64939.95
791.4297	100.2398	65535	64934.3
791.571	102.4949	65535	64934.1
791.7123	104.7495	65535	64925.45
791.8536	107.0036	65535	64928.25
791.9949	109.2573	65535	64930.3
792.1363	111.5105	65535	64926.35
792.2777	113.7632	65535	64925.1
792.4191	116.0154	65535	64911.1
792.5605	118.2672	65535	64921.95
792.7019	120.5185	65535	64920.1
792.8434	122.7693	65535	64911.25
792.9849	125.0197	65535	64911.3
793.1264	127.2696	65535	64910.75
793.2679	129.519	65535	64907.5
793.4094	131.7679	65535	64904.8
793.551	134.0163	65535	64898.8
793.6926	136.2642	65535	64895.2
793.8342	138.5117	65535	64889.7
793.9758	140.7587	65535	64894.9
794.1175	143.0052	65535	64890.45
794.2591	145.2512	65535	64887.75
794.4008	147.4967	65535	64890.1
794.5425	149.7417	65535	64889.35
794.6842	151.9863	65535	64882.3
794.826	154.2304	65535	64881.35
794.9677	156.4739	65535	64875.5
795.1095	158.717	65535	64872.15
795.2513	160.9596	65535	64871.95
795.3931	163.2017	65535	64872.55
795.535	165.4433	65535	64863.65
795.6768	167.6844	65535	64864
795.8187	169.925	65535	64859.2
795.9606	172.1651	65535	64857.85
796.1025	174.4047	65535	64856.25
796.2445	176.6439	65535	64851.25
796.3864	178.8825	65535	64848.1
796.5284	181.1206	65535	64848.65
796.6704	183.3582	65535	64838.8
796.8124	185.5954	65535	64839.55
796.9544	187.832	65535	64836.55
797.0965	190.0681	65535	64834.55
797.2386	192.3037	65535	64831.45
797.3806	194.5388	65535	64829.95
797.5228	196.7734	65535	64823.85
797.6649	199.0075	65535	64819.4
797.807	201.2411	65535	64817.25
797.9492	203.4742	65535	64818.35
798.0914	205.7068	65535	64820.65
798.2336	207.9389	65535	64815.95
798.3758	210.1704	65535	64818.6
798.518	212.4015	65535	64813.15
798.6603	214.632	65535	64822.7
798.8025	216.862	65535	64832.45
798.9448	219.0915	65535	64834.25
799.0871	221.3205	65535	64829.8
799.2294	223.549	65535	64836.85
799.3718	225.777	65535	64835.45
799.5141	228.0044	65535	64834.1
799.6565	230.2314	65535	64833.85
799.7989	232.4578	65535	64831.55
799.9413	234.6837	65535	64818.7
800.0837	236.909	65535	64820.25
800.2262	239.1339	65535	64795.9
800.3687	241.3582	65535	64807.25
800.5111	243.582	65535	64773.55
800.6536	245.8053	65535	64792.4
800.7961	248.0281	65535	64798.8
800.9387	250.2503	65535	64791.1
801.0812	252.472	65535	64788.05
801.2238	254.6932	65535	64785.45
801.3664	256.9139	65535	64789.5
801.509	259.134	65535	64783.05
801.6516	261.3536	65535	64783.5
801.7942	263.5727	65535	64778.6
801.9369	265.7912	65535	64784.8
802.0795	268.0092	65535	64783.05
802.2222	270.2267	65535	64779.55
802.3649	272.4436	65535	64780.25
802.5076	274.6601	65535	64772.05
802.6504	276.8759	65535	64775.7
802.7931	279.0913	65535	64775.1
802.9359	281.3061	65535	64771.3
803.0787	283.5204	65535	64773.35
803.2215	285.7341	65535	64766.15
803.3643	287.9473	65535	64751.15
803.5071	290.16	65535	64762.4
803.6499	292.3721	65535	64767.35
803.7928	294.5837	65535	64767.65
803.9357	296.7947	65535	64767.2
804.0786	299.0052	65535	64764.5
804.2215	301.2152	65535	64767.7
804.3644	303.4246	65535	64766.35
804.5074	305.6334	65535	64765.25
804.6503	307.8418	65535	64764.25
804.7933	310.0495	65535	64759.15
804.9363	312.2568	65535	64763.3
805.0793	314.4635	65535	64759.3
805.2223	316.6696	65535	64760.55
805.3653	318.8752	65535	64748.55
805.5084	321.0802	65535	64756.6
805.6514	323.2847	65535	64756.4
805.7945	325.4887	65535	64755.55
805.9376	327.692	65535	64753.45
806.0807	329.8949	65535	64752.65
806.2238	332.0972	65535	64750.2
806.367	334.2989	65535	64746.55
806.5101	336.5001	65535	64745.5
806.6533	338.7007	65535	64747.2
806.7965	340.9008	65535	64747.3
806.9397	343.1003	65535	64744
807.0829	345.2992	65535	64739.8
807.2261	347.4976	65535	64740.1
807.3693	349.6955	65535	64739.85
807.5126	351.8927	65535	64733.7
807.6559	354.0895	65535	64725.2
807.7991	356.2856	65535	64734.55
807.9424	358.4812	65535	64735.9
808.0857	360.6763	65535	64729
808.2291	362.8707	65535	64732.35
808.3724	365.0646	65535	64727.2
808.5158	367.258	65535	64724.35
808.6591	369.4508	65535	64722.55
808.8025	371.643	65535	64724.45
808.9459	373.8346	65535	64720.85
809.0893	376.0257	65535	64718.3
809.2327	378.2162	65535	64718.95
809.3762	380.4062	65535	64716.6
809.5196	382.5956	65535	64713.15
809.6631	384.7844	65535	64715.75
809.8066	386.9726	65535	64712.65
809.9501	389.1603	65535	64723.4
810.0936	391.3474	65535	64687.45
810.2371	393.5339	65535	64719.8
810.3806	395.7199	65535	64724.55
810.5241	397.9052	65535	64727.2
810.6677	400.09	65535	64727.2
810.8113	402.2743	65535	64727.4
810.9548	404.4579	65535	64727
811.0984	406.641	65535	64722.4
811.2421	408.8235	65535	64721.85
811.3857	411.0054	65535	64719.05
811.5293	413.1868	65535	64718.4
811.673	415.3675	65535	64715.35
811.8166	417.5477	65535	64714.6
811.9603	419.7273	65535	64710.7
812.104	421.9064	65535	64707.15
812.2477	424.0848	65535	64709.55
812.3914	426.2627	65535	64707.1
812.5351	428.4399	65535	64705.15
812.6788	430.6166	65535	64702.15
812.8226	432.7928	65535	64702.5
812.9663	434.9683	65535	64703.05
813.1101	437.1432	65535	64700.75
813.2539	439.3176	65535	64700.25
813.3977	441.4914	65535	64703
813.5415	443.6645	65535	64697.85
813.6853	445.8371	65535	64699.9
813.8291	448.0091	65535	64699.5
813.973	450.1806	65535	64698.55
814.1168	452.3514	65535	64695.45
814.2607	454.5216	65535	64687.35
814.4046	456.6913	65535	64695.95
814.5485	458.8603	65535	64698.5
814.6924	461.0288	65535	64697.65
814.8363	463.1967	65535	64698.35
814.9802	465.3639	65535	64696.05
815.1241	467.5306	65535	64691.3
815.2681	469.6967	65535	64694
815.412	471.8622	65535	64694.7
815.556	474.0271	65535	64693.7
815.7	476.1914	65535	64692.8
815.844	478.3551	65535	64695.1
815.988	480.5182	65535	64693.4
816.132	482.6807	65535	64694.2
816.276	484.8426	65535	64692.9
816.4201	487.0039	65535	64691.2
816.5641	489.1647	65535	64691.7
816.7082	491.3248	65535	64691.8
816.8522	493.4843	65535	64692.5
816.9963	495.6432	65535	64692.1
817.1404	497.8015	65535	64685.75
817.2845	499.9592	65535	64686.45
817.4286	502.1163	65535	64687.1
817.5727	504.2728	65535	64683.95
817.7168	506.4287	65535	64689.35
817.861	508.5839	65535	64689.7
818.0051	510.7386	65535	64688.4
818.1493	512.8927	65535	64683.1
818.2935	515.0461	65535	64684.1
818.4377	517.199	65535	64686.05
818.5818	519.3512	65535	64684.45
818.726	521.5029	65535	64677.9
818.8703	523.6539	65535	64682.2
819.0145	525.8043	65535	64681.35
819.1587	527.9541	65535	64677.4
819.303	530.1033	65535	64680.5
819.4472	532.2519	65535	64680.7
819.5915	534.3999	65535	64677.65
819.7357	536.5472	65535	64676.9
819.88	538.694	65535	64680.65
820.0243	540.8401	65535	64677.3
820.1686	542.9856	65535	64674.2
820.3129	545.1305	65535	64672.25
820.4572	547.2748	65535	64675.1
820.6016	549.4185	65535	64672.75
820.7459	551.5615	65535	64673.15
820.8902	553.704	65535	64668.65
821.0346	555.8458	65535	64677.1
821.1789	557.987	65535	64673.25
821.3233	560.1276	65535	64669.25
821.4677	562.2675	65535	64674.8
821.6121	564.4069	65535	64671.9
821.7565	566.5456	65535	64675.5
821.9009	568.6837	65535	64678.8
822.0453	570.8212	65535	64675
822.1897	572.958	65535	64675.75
822.3342	575.0942	65535	64676.85
822.4786	577.2299	65535	64675.65
822.6231	579.3648	65535	64676.1
822.7675	581.4992	65535	64681.15
822.912	583.6329	65535	64676.55
823.0565	585.766	65535	64675.7
823.201	587.8985	65535	64676.65
823.3454	590.0304	65535	64651.45
823.4899	592.1616	65535	64671.9
823.6345	594.2922	65535	64668.6
823.779	596.4222	65535	64666.7
823.9235	598.5515	65535	64668.55
824.068	600.6802	65535	64665.85
824.2126	602.8083	65535	64667.65
824.3571	604.9358	65535	64666.9
824.5017	607.0626	65535	64665.05
824.6462	609.1888	65535	64665.3
824.7908	611.3144	65535	64664.85
824.9354	613.4393	65535	64665
825.08	615.5636	65535	64667.4
825.2246	617.6873	65535	64664.75
825.3692	619.8103	65535	64663.8
825.5138	621.9327	65535	64660.6
825.6584	624.0544	65535	64667.95
825.803	626.1756	65535	64664
825.9477	628.2961	65535	64664.2
826.0923	630.4159	65535	64666
826.237	632.5351	65535	64661.55
826.3816	634.6537	65535	64661.85
826.5263	636.7716	65535	64661.15
826.6709	638.8889	65535	64662.55
826.8156	641.0056	65535	64658.75
826.9603	643.1216	65535	64660.1
827.105	645.237	65535	64656.65
827.2497	647.3518	65535	64666
827.3944	649.4659	65535	64662.55
827.5391	651.5793	65535	64660.15
827.6838	653.6922	65535	64662.4
827.8285	655.8043	65535	64662.4
827.9733	657.9159	65535	64658.7
828.118	660.0268	65535	64658.8
828.2627	662.137	65535	64657.25
828.4075	664.2466	65535	64656.75
828.5522	666.3556	65535	64655.7
828.697	668.4639	65535	64656.5
828.8418	670.5716	65535	64659.4
828.9865	672.6786	65535	64659.65
829.1313	674.785	65535	64655.55
829.2761	676.8907	65535	64656.7
829.4209	678.9958	65535	64660.2
829.5657	681.1002	65535	64655.9
829.7105	683.204	65535	64650.3
829.8553	685.3072	65535	64652.2
830.0001	687.4097	65535	64655.55
830.1449	689.5115	65535	64652.35
830.2898	691.6127	65535	64656.45
830.4346	693.7132	65535	64656
830.5794	695.8131	65535	64638.9
830.7243	697.9123	65535	64650.5
830.8691	700.0109	65535	64651.55
831.014	702.1089	65535	64653.6
831.1588	704.2061	65535	64652.95
831.3037	706.3028	65535	64652.8
831.4486	708.3987	65535	64652.55
831.5935	710.4941	65535	64654.75
831.7383	712.5887	65535	64651.25
831.8832	714.6827	65535	64650.4
832.0281	716.7761	65535	64654.3
832.173	718.8688	65535	64651.45
832.3179	720.9608	65535	64647.45
832.4628	723.0522	65535	64646.85
832.6077	725.1429	65535	64648.6
832.7527	727.233	65535	64649.45
832.8976	729.3224	65535	64650
833.0425	731.4112	65535	64649.4
833.1874	733.4993	65535	64649.45
833.3324	735.5867	65535	64647.95
833.4773	737.6735	65535	64646.85
833.6222	739.7596	65535	64647.65
833.7672	741.845	65535	64646.75
833.9122	743.9298	65535	64643.85
834.0571	746.014	65535	64649.7
834.2021	748.0974	65535	64646.8
834.347	750.1802	65535	64646.5
834.492	752.2624	65535	64649.4
834.637	754.3439	65535	64642.8
834.782	756.4247	65535	64637.3
834.9269	758.5048	65535	64643.55
835.0719	760.5843	65535	64647.3
835.2169	762.6631	65535	64646.8
835.3619	764.7413	65535	64650.05
835.5069	766.8188	65535	64643.85
835.6519	768.8956	65535	64645.05
835.7969	770.9718	65535	64646.2
835.9419	773.0473	65535	64646.4
836.0869	775.1221	65535	64647.4
836.232	777.1962	65535	64645.4
836.377	779.2697	65535	64647.5
836.522	781.3426	65535	64625.95
836.667	783.4147	65535	64644.8
836.8121	785.4862	65535	64648.75
836.9571	787.557	65535	64643.2
837.1021	789.6271	65535	64646
837.2472	791.6966	65535	64646.05
837.3922	793.7654	65535	64645.95
837.5373	795.8335	65535	64645.4
837.6823	797.901	65535	64645.9
837.8274	799.9678	65535	64645.4
837.9724	802.0339	65535	64646.55
838.1175	804.0993	65535	64635.85
838.2626	806.1641	65535	64641.65
838.4076	808.2282	65535	64643
838.5527	810.2916	65535	64642.95
838.6978	812.3544	65535	64647.2
838.8428	814.4164	65535	64645.45
838.9879	816.4778	65535	64644
839.133	818.5385	65535	64641.2
839.2781	820.5986	65535	64645
839.4232	822.658	65535	64638.2
839.5682	824.7166	65535	64642.15
839.7133	826.7747	65535	64644.15
839.8584	828.832	65535	64641.35
840.0035	830.8886	65535	64642.25
840.1486	832.9446	65535	64641.65
840.2937	834.9999	65535	64645.2
840.4388	837.0545	65535	64639.75
840.5839	839.1085	65535	64642
840.729	841.1618	65535	64637.55
840.8741	843.2143	65535	64643.4
841.0192	845.2662	65535	64644.1
841.1643	847.3175	65535	64640.75
841.3095	849.368	65535	64644.35
841.4546	851.4179	65535	64641.3
841.5997	853.467	65535	64641.05
841.7448	855.5155	65535	64638.25
841.8899	857.5633	65535	64642.65
842.0351	859.6105	65535	64640.85
842.1802	861.6569	65535	64641.8
842.3253	863.7027	65535	64639.6
842.4704	865.7478	65535	64638.95
842.6156	867.7922	65535	64640.85
842.7607	869.8359	65535	64641.9
842.9058	871.8789	65535	64640.6
843.0509	873.9212	65535	64609
843.1961	875.9629	65535	64639.35
843.3412	878.0039	65535	64640.85
843.4863	880.0441	65535	64639.2
843.6315	882.0837	65535	64640.6
843.7766	884.1226	65535	64639
843.9218	886.1609	65535	64641.45
844.0669	888.1984	65535	64639.4
844.212	890.2352	65535	64640.25
844.3572	892.2714	65535	64637.1
844.5023	894.3069	65535	64635.3
844.6475	896.3416	65535	64634.55
844.7926	898.3757	65535	64639.5
844.9377	900.4091	65535	64636.4
845.0829	902.4418	65535	64634.5
845.228	904.4739	65535	64635.6
845.3732	906.5052	65535	64639.8
845.5183	908.5358	65535	64640.55
845.6635	910.5658	65535	64638.5
845.8086	912.595	65535	64640
845.9538	914.6236	65535	64639.55
846.0989	916.6515	65535	64639.5
846.2441	918.6786	65535	64636.7
846.3892	920.7051	65535	64636.4
846.5344	922.7309	65535	64636.8
846.6795	924.756	65535	64638.9
846.8246	926.7804	65535	64635.1
846.9698	928.8041	65535	64635.3
847.1149	930.8272	65535	64638.2
847.2601	932.8495	65535	64634.6
847.4052	934.8711	65535	64637.75
847.5504	936.892	65535	64636.8
847.6955	938.9123	65535	64634.9
847.8407	940.9318	65535	64636.9
847.9858	942.9506	65535	64635.7
848.131	944.9688	65535	64638.2
848.2761	946.9862	65535	64635.75
848.4213	949.003	65535	64636.7
848.5664	951.019	65535	64638.85
848.7115	953.0344	65535	64635.85
848.8567	955.0491	65535	64636.85
849.0018	957.063	65535	64635.95
849.147	959.0763	65535	64638.1
849.2921	961.0888	65535	64634.75
849.4373	963.1007	65535	64636.1
849.5824	965.1119	65535	64637.65
849.7275	967.1223	65535	64635.25
849.8727	969.1321	65535	64638.95
850.0178	971.1412	65535	64639.95
850.1629	973.1495	65535	64638.7
850.3081	975.1572	65535	64603
850.4532	977.1641	65535	64637.7
850.5983	979.1704	65535	64638.45
850.7435	981.1759	65535	64634.35
850.8886	983.1808	65535	64634.15
851.0337	985.1849	65535	64624.75
851.1788	987.1884	65535	64632.1
851.324	989.1911	65535	64633.35
851.4691	991.1932	65535	64636.3
851.6142	993.1945	65535	64636
851.7593	995.1951	65535	64634.85
851.9045	997.1951	65535	64631
852.0496	999.1943	65535	64635.65
852.1947	1001.1928	65535	64634.1
852.3398	1003.1906	65535	64636.15
852.4849	1005.1877	65535	64633.7
852.63	1007.1841	65535	64636.4
852.7751	1009.1798	65535	64635.15
852.9202	1011.1748	65535	64637.1
853.0653	1013.1691	65535	64636.2
853.2104	1015.1627	65535	64634.25
853.3555	1017.1556	65535	64636.95
853.5006	1019.1477	65535	64635.2
853.6457	1021.1392	65535	64637.15
853.7908	1023.1299	65535	64639.6
853.9359	1025.12	65535	64635.2
854.081	1027.1093	65535	64637.8
854.2261	1029.0979	65535	64640
854.3712	1031.0859	65535	64637.4
854.5163	1033.0731	65535	64635.45
854.6613	1035.0596	65535	64639.65
854.8064	1037.0454	65535	64636.6
854.9515	1039.0304	65535	64636.4
855.0965	1041.0148	65535	64635.15
855.2416	1042.9985	65535	64637.65
855.3867	1044.9814	65535	64639.2
855.5317	1046.9636	65535	64638.2
855.6768	1048.9452	65535	64633.25
855.8219	1050.926	65535	64638.35
855.9669	1052.9061	65535	64638.3
856.112	1054.8855	65535	64633.95
856.257	1056.8642	65535	64635.65
856.4021	1058.8421	65535	64630.75
856.5471	1060.8194	65535	64636.8
856.6921	1062.7959	65535	64633.75
856.8372	1064.7717	65535	64635.4
856.9822	1066.7469	65535	64635.45
857.1272	1068.7213	65535	64632.55
857.2723	1070.695	65535	64635.65
857.4173	1072.6679	65535	64638
857.5623	1074.6402	65535	64633.35
857.7073	1076.6117	65535	64632.8
857.8523	1078.5826	65535	64634.25
857.9973	1080.5527	65535	64633.05
858.1423	1082.5221	65535	64636.7
858.2873	1084.4908	65535	64636.7
858.4323	1086.4587	65535	64633.9
858.5773	1088.426	65535	64632.05
858.7223	1090.3925	65535	64629.3
858.8673	1092.3584	65535	64634.75
859.0123	1094.3235	65535	64637.1
859.1573	1096.2879	65535	64636.05
859.3022	1098.2515	65535	64634.45
859.4472	1100.2145	65535	64634.7
859.5922	1102.1767	65535	64635.55
859.7371	1104.1382	65535	64632.35
859.8821	1106.099	65535	64633.2
860.027	1108.0591	65535	64636.75
860.172	1110.0185	65535	64632
860.3169	1111.9771	65535	64636.3
860.4619	1113.9351	65535	64634.05
860.6068	1115.8923	65535	64638.15
860.7517	1117.8488	65535	64633.9
860.8967	1119.8045	65535	64633.75
861.0416	1121.7596	65535	64633.05
861.1865	1123.7139	65535	64634.9
861.3314	1125.6675	65535	64635.65
861.4763	1127.6204	65535	64639
861.6212	1129.5726	65535	64634.15
861.7661	1131.524	65535	64636.65
861.911	1133.4748	65535	64634.45
862.0559	1135.4248	65535	64633.05
862.2008	1137.3741	65535	64636.5
862.3457	1139.3226	65535	64634.05
862.4905	1141.2705	65535	64635.5
862.6354	1143.2176	65535	64628
862.7803	1145.164	65535	64631.75
862.9251	1147.1097	65535	64634.9
863.07	1149.0546	65535	64635.45
863.2148	1150.9989	65535	64634.45
863.3597	1152.9424	65535	64636.2
863.5045	1154.8852	65535	64633.85
863.6493	1156.8272	65535	64637.35
863.7942	1158.7686	65535	64624.4
863.939	1160.7092	65535	64633.8
864.0838	1162.6491	65535	64635.4
864.2286	1164.5883	65535	64634.55
864.3734	1166.5267	65535	64631.4
864.5182	1168.4644	65535	64632.9
864.663	1170.4014	65535	64630.3
864.8078	1172.3377	65535	64636.15
864.9526	1174.2732	65535	64636.25
865.0974	1176.2081	65535	64634.35
865.2421	1178.1421	65535	64632.6
865.3869	1180.0755	65535	64635.5
865.5317	1182.0082	65535	64635.3
865.6764	1183.9401	65535	64632.55
865.8212	1185.8713	65535	64638.55
865.9659	1187.8017	65535	64636.25
866.1106	1189.7315	65535	64638.1
866.2554	1191.6605	65535	64609.8
866.4001	1193.5888	65535	64636.55
866.5448	1195.5163	65535	64635.7
866.6895	1197.4432	65535	64633.6
866.8342	1199.3693	65535	64635.7
866.9789	1201.2947	65535	64631.1
867.1236	1203.2193	65535	64634.9
867.2683	1205.1432	65535	64636.9
867.413	1207.0664	65535	64635.55
867.5576	1208.9889	65535	64631.05
867.7023	1210.9106	65535	64635.55
867.847	1212.8316	65535	64633.3
867.9916	1214.7519	65535	64624.7
868.1363	1216.6715	65535	64634.75
868.2809	1218.5903	65535	64637.45
868.4255	1220.5084	65535	64635.75
868.5701	1222.4257	65535	64636.2
868.7148	1224.3424	65535	64636.5
868.8594	1226.2583	65535	64628.85
869.004	1228.1735	65535	64633.15
869.1486	1230.0879	65535	64632.7
869.2932	1232.0016	65535	64635.9
869.4377	1233.9146	65535	64634.85
869.5823	1235.8269	65535	64636.7
869.7269	1237.7384	65535	64633.65
869.8715	1239.6492	65535	64637.45
870.016	1241.5592	65535	64634.75
870.1606	1243.4686	65535	64634.4
870.3051	1245.3772	65535	64636.05
870.4496	1247.285	65535	64632.2
870.5941	1249.1922	65535	64634.75
870.7387	1251.0986	65535	64634.5
870.8832	1253.0042	65535	64635
871.0277	1254.9092	65535	64635.35
871.1722	1256.8134	65535	64635.1
871.3167	1258.7169	65535	64634.65
871.4611	1260.6196	65535	64637.5
871.6056	1262.5216	65535	64632.95
871.7501	1264.4229	65535	64639.8
871.8945	1266.3234	65535	64636.2
872.039	1268.2232	65535	64635.85
872.1834	1270.1223	65535	64633.05
872.3278	1272.0207	65535	64632.3
872.4723	1273.9183	65535	64627.6
872.6167	1275.8151	65535	64636.85
872.7611	1277.7113	65535	64634.7
872.9055	1279.6067	65535	64635.35
873.0499	1281.5014	65535	64633
873.1943	1283.3953	65535	64632.45
873.3386	1285.2885	65535	64633.55
873.483	1287.181	65535	64634.05
873.6274	1289.0727	65535	64636.75
873.7717	1290.9637	65535	64633.55
873.9161	1292.854	65535	64636.9
874.0604	1294.7435	65535	64633.7
874.2047	1296.6323	65535	64633.35
874.349	1298.5204	65535	64631.3
874.4933	1300.4077	65535	64633.75
874.6376	1302.2943	65535	64635.85
874.7819	1304.1802	65535	64637.1
874.9262	1306.0653	65535	64633.2
875.0705	1307.9497	65535	64633.15
875.2147	1309.8333	65535	64635.15
875.359	1311.7162	65535	64635.05
875.5032	1313.5984	65535	64631.65
875.6475	1315.4798	65535	64619.75
875.7917	1317.3605	65535	64616.9
875.9359	1319.2405	65535	64633.7
876.0801	1321.1197	65535	64633
876.2243	1322.9982	65535	64630.25
876.3685	1324.876	65535	64636.2
876.5127	1326.753	65535	64634.15
876.6569	1328.6293	65535	64632.6
876.801	1330.5048	65535	64631.05
876.9452	1332.3796	65535	64635.15
877.0893	1334.2537	65535	64609.6
877.2335	1336.127	65535	64636.6
877.3776	1337.9996	65535	64637.3
877.5217	1339.8714	65535	64630.8
877.6658	1341.7426	65535	64589.55
877.8099	1343.6129	65535	64633.4
877.954	1345.4826	65535	64633.3
878.0981	1347.3515	65535	64633.15
878.2422	1349.2196	65535	64634.9
878.3862	1351.087	65535	64635.45
878.5303	1352.9537	65535	64634.5
878.6743	1354.8197	65535	64637.3
878.8184	1356.6849	65535	64633.15
878.9624	1358.5493	65535	64635.1
879.1064	1360.4131	65535	64635
879.2504	1362.276	65535	64634.2
879.3944	1364.1383	65535	64634
879.5384	1365.9998	65535	64631.55
879.6823	1367.8606	65535	64633.5
879.8263	1369.7206	65535	64634.6
879.9702	1371.5799	65535	64632.35
880.1142	1373.4384	65535	64631.6
880.2581	1375.2962	65535	64632.95
880.402	1377.1533	65535	64634.6
880.5459	1379.0096	65535	64633.8
880.6898	1380.8652	65535	64636.15
880.8337	1382.7201	65535	64635.6
880.9776	1384.5742	65535	64634.15
881.1215	1386.4275	65535	64635.95
881.2653	1388.2802	65535	64635.25
881.4092	1390.132	65535	64634.7
881.553	1391.9832	65535	64632.15
881.6968	1393.8336	65535	64633.9
881.8406	1395.6832	65535	64631.55
881.9844	1397.5322	65535	64634.5
882.1282	1399.3803	65535	64631.75
882.272	1401.2278	65535	64636.1
882.4158	1403.0745	65535	64633.95
882.5595	1404.9204	65535	64634.15
882.7033	1406.7656	65535	64634.95
882.847	1408.6101	65535	64635.55
882.9908	1410.4538	65535	64635.05
883.1345	1412.2968	65535	64637.1
883.2782	1414.139	65535	64636.4
883.4219	1415.9805	65535	64634.1
883.5656	1417.8213	65535	64630.2
883.7092	1419.6613	65535	64634.6
883.8529	1421.5006	65535	64634.1
883.9965	1423.3391	65535	64632.85
884.1402	1425.1769	65535	64635.45
884.2838	1427.0139	65535	64633.35
884.4274	1428.8502	65535	64633
884.571	1430.6858	65535	64633.7
884.7146	1432.5206	65535	64635.6
884.8582	1434.3547	65535	64634.75
885.0018	1436.188	65535	64634.2
885.1453	1438.0206	65535	64634.7
885.2889	1439.8524	65535	64632.25
885.4324	1441.6835	65535	64636.8
885.5759	1443.5139	65535	64631.6
885.7194	1445.3435	65535	64636.2
885.8629	1447.1724	65535	64637.3
886.0064	1449.0005	65535	64634.55
886.1499	1450.8279	65535	64633.65
886.2933	1452.6545	65535	64632.45
886.4368	1454.4804	65535	64637.75
886.5802	1456.3056	65535	64628.75
886.7237	1458.13	65535	64636.2
886.8671	1459.9536	65535	64635.15
887.0105	1461.7766	65535	64635.1
887.1539	1463.5987	65535	64633.15
887.2972	1465.4202	65535	64634.8
887.4406	1467.2409	65535	64634.75
887.584	1469.0608	65535	64635.5
887.7273	1470.88	65535	64632
887.8706	1472.6984	65535	64635.4
888.0139	1474.5161	65535	64632.25
888.1572	1476.3331	65535	64633.8
888.3005	1478.1493	65535	64635
888.4438	1479.9648	65535	64635.45
888.5871	1481.7795	65535	64635.4
888.7303	1483.5935	65535	64635.55
888.8736	1485.4067	65535	64633.65
889.0168	1487.2192	65535	64636.2
889.16	1489.031	65535	64633.05
889.3032	1490.842	65535	64634.85
889.4464	1492.6522	65535	64635.75
889.5896	1494.4618	65535	64632.9
889.7327	1496.2705	65535	64635.1
889.8759	1498.0785	65535	64634.8
890.019	1499.8858	65535	64635.8
890.1622	1501.6924	65535	64637.55
890.3053	1503.4981	65535	64636.85
890.4484	1505.3032	65535	64635.35
890.5914	1507.1075	65535	64633.7
890.7345	1508.911	65535	64635.35
890.8776	1510.7138	65535	64635.15
891.0206	1512.5159	65535	64635.3
891.1637	1514.3172	65535	64635.05
891.3067	1516.1178	65535	64637.15
891.4497	1517.9176	65535	64631.95
891.5927	1519.7166	65535	64636.95
891.7357	1521.515	65535	64629.65
891.8786	1523.3126	65535	64634.45
892.0216	1525.1094	65535	64634.85
892.1645	1526.9055	65535	64636.9
892.3074	1528.7008	65535	64636.2
892.4503	1530.4954	65535	64631.55
892.5932	1532.2893	65535	64637.4
892.7361	1534.0824	65535	64629.65
892.879	1535.8747	65535	64635.85
893.0218	1537.6663	65535	64636.85
893.1647	1539.4572	65535	64633.5
893.3075	1541.2473	65535	64634
893.4503	1543.0367	65535	64637
893.5931	1544.8253	65535	64631.45
893.7359	1546.6132	65535	64633.75
893.8787	1548.4003	65535	64629.45
894.0214	1550.1867	65535	64627.7
894.1642	1551.9723	65535	64631.45
894.3069	1553.7572	65535	64636.85
894.4496	1555.5414	65535	64637.6
894.5923	1557.3247	65533.55	64634.15
894.735	1559.1074	65535	64638.4
894.8777	1560.8893	65535	64638.5
895.0204	1562.6705	65535	64636.95
895.163	1564.4509	65534.7	64639.35
895.3056	1566.2305	65535	64640.1
895.4482	1568.0094	65535	64638.2
895.5908	1569.7876	65535	64635.9
895.7334	1571.565	65535	64637.65
895.876	1573.3417	65535	64640.15
896.0186	1575.1176	65535	64637.6
896.1611	1576.8928	65535	64638.15
896.3036	1578.6672	65523.45	64629.05
896.4461	1580.4409	65532.8	64638.5
896.5886	1582.2138	65497.75	64597.45
896.7311	1583.986	65511.1	64613.95
896.8736	1585.7575	65458.45	64561.8
897.0161	1587.5282	65491.85	64596.8
897.1585	1589.2981	65481.65	64584.6
897.3009	1591.0673	65395.85	64500.9
897.4433	1592.8358	65288.7	64392
897.5857	1594.6035	65400.3	64502
897.7281	1596.3704	65437.6	64540.55
897.8705	1598.1366	65199.9	64301.6
898.0128	1599.9021	65012.05	64115.85
898.1551	1601.6668	65283.3	64386
898.2975	1603.4308	65133.8	64233.25
898.4398	1605.194	65136.75	64234.4
898.5821	1606.9564	64754	63860.05
898.7243	1608.7182	64995.6	64096.2
898.8666	1610.4791	64774.9	63880.65
899.0088	1612.2394	65014.15	64118.35
899.1511	1613.9988	64652.4	63755.95
899.2933	1615.7576	65027.65	64132.25
899.4355	1617.5156	65003.6	64101.45
899.5776	1619.2728	65276.7	64382
899.7198	1621.0293	64807.25	63912.7
899.862	1622.785	64819.95	63922.4
900.0041	1624.54	65007.25	64111.65
900.1462	1626.2942	64639.35	63743.05
900.2883	1628.0477	63955.5	63059.25
900.4304	1629.8005	63206.3	62307.2
900.5725	1631.5525	64006.85	63110.75
900.7145	1633.3037	62860	61966.65
900.8566	1635.0542	62649.55	61753.3
900.9986	1636.804	63219.4	62324
901.1406	1638.553	61948.15	60945.65
901.2826	1640.3013	62392.15	61495.3
901.4245	1642.0488	61573	60678.5
901.5665	1643.7955	62179	61284.55
901.7085	1645.5416	61590.45	60697.5
901.8504	1647.2868	61075.5	60182.9
901.9923	1649.0313	61975.6	61078.9
902.1342	1650.7751	61407.05	60507.65
902.2761	1652.5181	60990.45	60094.75
902.4179	1654.2604	61089.35	60194
902.5598	1656.0019	61519.85	60626.05
902.7016	1657.7427	61309.7	60414.9
902.8434	1659.4828	61984.2	61089.1
902.9852	1661.222	61437.9	60542.1
903.127	1662.9606	61996.6	61103.65
903.2687	1664.6984	61035.4	60140.9
903.4105	1666.4354	61303.15	60406.7
903.5522	1668.1717	60042.45	59146.7
903.6939	1669.9072	59264.1	58368.1
903.8356	1671.642	59021.2	58123.15
903.9773	1673.3761	58655.55	57759.1
904.119	1675.1094	58336	57441.85
904.2606	1676.8419	57706.7	56810.8
904.4022	1678.5737	57631.55	56738.1
904.5439	1680.3048	57293.95	56398.65
904.6855	1682.0351	57008	56113.55
904.827	1683.7646	56612.55	55712.5
904.9686	1685.4934	56763.25	55869.6
905.1101	1687.2215	55707.55	54814.6
905.2517	1688.9488	56390.2	55497.85
905.3932	1690.6754	54899.25	54005.8
905.5347	1692.4012	55455.85	54561.45
905.6761	1694.1263	55337.9	54443.6
905.8176	1695.8506	54913.1	54017.5
905.9591	1697.5742	54773.65	53878.1
906.1005	1699.297	54500.6	53605.55
906.2419	1701.0191	54419.1	53525.9
906.3833	1702.7404	53836.55	52944.3
906.5246	1704.461	53628.9	52732.55
906.666	1706.1808	53530.85	52637.35
906.8073	1707.8999	53444.05	52546.55
906.9487	1709.6182	53133.9	52239.5
907.09	1711.3358	53009.95	52116.8
907.2313	1713.0527	52771.95	51880
907.3725	1714.7688	52755.4	51855.3
907.5138	1716.4841	52163.3	51269.15
907.655	1718.1987	52273.55	51376.75
907.7962	1719.9126	52011.95	51119.35
907.9374	1721.6257	51881.2	50983.6
908.0786	1723.338	51947.65	51053.75
908.2198	1725.0496	51284.25	50387.45
908.3609	1726.7605	51208.45	50315.75
908.502	1728.4706	51008.4	50113.7
908.6431	1730.18	50808.05	49912.6
908.7842	1731.8886	50656.1	49762.7
908.9253	1733.5964	50519.75	49606.75
909.0664	1735.3036	50449.55	49553.05
909.2074	1737.0099	50305.7	49414.55
909.3484	1738.7156	50053.35	49163
909.4894	1740.4204	49828.15	48932.6
909.6304	1742.1246	49701	48805.35
909.7714	1743.8279	49595.65	48700.85
909.9123	1745.5306	49497.35	48603.2
910.0532	1747.2325	49141.75	48246.7
910.1941	1748.9336	49056.5	48163.95
910.335	1750.634	48822.85	47926.5
910.4759	1752.3336	48766.65	47874.7
910.6168	1754.0325	48635.25	47745.45
910.7576	1755.7307	48627.85	47734.9
910.8984	1757.4281	48466.75	47574.4
911.0392	1759.1247	48438.05	47535.3
911.18	1760.8206	48162.85	47265.1
911.3208	1762.5158	48064.5	47168.45
911.4615	1764.2102	47908.2	47015.75
911.6022	1765.9039	47712.85	46818.65
911.7429	1767.5968	47594.65	46703.55
911.8836	1769.289	47424.3	46530.85
912.0243	1770.9804	47308	46414.15
912.1649	1772.6711	47217.5	46323.6
912.3056	1774.361	47015.45	46120.4
912.4462	1776.0502	46955.55	46062.95
912.5868	1777.7386	46770.9	45874.15
912.7274	1779.4263	46622.1	45728.9
912.8679	1781.1132	46581.1	45688.4
913.0084	1782.7994	46315.85	45421.75
913.149	1784.4849	46234.55	45344.15
913.2895	1786.1696	46070.05	45170.9
913.4299	1787.8535	45930.2	45037.7
913.5704	1789.5367	45761.05	44867.6
913.7108	1791.2192	45704.35	44812
913.8513	1792.9009	45493.05	44569.4
913.9917	1794.5818	45340.8	44447.1
914.132	1796.2621	45286.35	44394.75
914.2724	1797.9415	45116.85	44222.1
914.4128	1799.6202	44993.85	44102.95
914.5531	1801.2982	44912.85	44018.4
914.6934	1802.9755	44757.8	43862.95
914.8337	1804.6519	44696.3	43803.85
914.9739	1806.3277	44419.5	43526.85
915.1142	1808.0027	44228.7	43335.45
915.2544	1809.6769	44217.35	43324.7
915.3946	1811.3504	44072.05	43177.85
915.5348	1813.0231	43937.25	43042.8
915.675	1814.6951	43913.3	43020.55
915.8151	1816.3664	43863.45	42967.65
915.9553	1818.0369	43650.3	42756.9
916.0954	1819.7067	43531.95	42640.1
916.2355	1821.3757	43388.7	42495.55
916.3755	1823.044	43299.1	42405.6
916.5156	1824.7115	43221.95	42327.35
916.6556	1826.3783	42966	42073.6
916.7956	1828.0443	42822.9	41931.45
916.9356	1829.7096	42702.4	41807.75
917.0756	1831.3741	42650.2	41753.35
917.2155	1833.0379	42536.5	41645.2
917.3555	1834.701	42379.4	41486.3
917.4954	1836.3633	42257.15	41363.6
917.6353	1838.0248	42179.05	41288.75
917.7751	1839.6856	42034.45	41141.9
917.915	1841.3457	41979.55	41087.3
918.0548	1843.005	41803.55	40912.5
918.1946	1844.6636	41801.65	40910.8
918.3344	1846.3214	41600.5	40707.4
918.4742	1847.9785	41552.65	40660.2
918.6139	1849.6349	41448.85	40555.4
918.7537	1851.2904	41294.35	40392.35
918.8934	1852.9453	41218.85	40325.9
919.0331	1854.5994	41050.45	40155.35
919.1727	1856.2528	41071.1	40173.9
919.3124	1857.9054	40884	39989.25
919.452	1859.5572	40836.45	39944.5
919.5916	1861.2083	40668.8	39774.7
919.7312	1862.8587	40666.35	39774.9
919.8708	1864.5084	40501.6	39608.2
920.0103	1866.1572	40366.1	39474.5
920.1498	1867.8054	40135.65	39243.4
920.2893	1869.4528	40055.2	39163.05
920.4288	1871.0994	39933.85	39042.25
920.5683	1872.7453	39880.6	38987.6
920.7077	1874.3905	39813.9	38915.25
920.8471	1876.0349	39658.9	38765.25
920.9865	1877.6786	39616.8	38723.3
921.1259	1879.3215	39595.1	38702.6
921.2653	1880.9637	39410.15	38515.05
921.4046	1882.6051	39342.05	38447.95
921.5439	1884.2458	39174.2	38282.15
921.6832	1885.8858	39054.9	38161.55
921.8225	1887.525	38982.75	38089.8
921.9617	1889.1634	38777.3	37887.15
922.101	1890.8011	38646.75	37752
922.2402	1892.4381	38582.8	37691.7
922.3794	1894.0743	38510.5	37617.8
922.5185	1895.7098	38342.9	37450.7
922.6577	1897.3446	38276.35	37383.9
922.7968	1898.9786	38138.55	37242.05
922.9359	1900.6118	38058.9	37165.65
923.075	1902.2443	37810.8	36915.15
923.214	1903.8761	37761.6	36868.5
923.3531	1905.5071	37557.1	36662.85
923.4921	1907.1374	37402.2	36510.75
923.6311	1908.7669	37325.95	36432.4
923.77	1910.3957	37307.7	36414.6
923.909	1912.0237	37064.55	36170.55
924.0479	1913.651	36937.95	36045.9
924.1868	1915.2776	36783.25	35891.95
924.3257	1916.9034	36595.45	35703.65
924.4646	1918.5285	36480.25	35589.55
924.6034	1920.1528	36311.4	35418.15
924.7422	1921.7764	36292.9	35401.25
924.881	1923.3992	36118.45	35225.7
925.0198	1925.0213	35867.35	34974.25
925.1586	1926.6427	35685.6	34794.2
925.2973	1928.2633	35720.15	34722.25
925.436	1929.8832	35497.55	34603.85
925.5747	1931.5023	35371.9	34479.8
925.7134	1933.1207	35228.95	34335.95
925.852	1934.7383	35204.65	34315.3
925.9906	1936.3552	35024.5	34131.4
926.1292	1937.9714	34919.6	34025
926.2678	1939.5868	34786.15	33892.1
926.4064	1941.2015	34555.4	33660.15
926.5449	1942.8154	34474.85	33583.3
926.6834	1944.4286	34250.7	33357.35
926.8219	1946.041	34092.65	33182.05
926.9604	1947.6528	33916.4	33019.7
927.0988	1949.2637	33856.6	32966.05
927.2372	1950.8739	33706.3	32815.35
927.3756	1952.4834	33614.6	32723.45
927.514	1954.0921	33584.05	32690.95
927.6523	1955.7001	33424.95	32527.85
927.7907	1957.3074	33277.45	32384.7
927.929	1958.9139	33213.25	32323.15
928.0673	1960.5197	33068.45	32176.25
928.2055	1962.1247	32890.6	32001.45
928.3438	1963.729	32725.35	31834.15
928.482	1965.3325	32632.45	31718.25
928.6202	1966.9353	32498.05	31606.05
928.7584	1968.5374	32381.4	31488.95
928.8965	1970.1387	32249.75	31356.05
929.0346	1971.7393	32174.35	31282.7
929.1727	1973.3392	32094.35	31203.65
929.3108	1974.9383	31914.55	31023.3
929.4489	1976.5366	31776.4	30886.15
929.5869	1978.1342	31723.9	30829.85
929.7249	1979.7311	31608.95	30718.85
929.8629	1981.3273	31509.85	30619.15
930.0009	1982.9227	31453.3	30559.15
930.1388	1984.5173	31260.75	30370.75
930.2767	1986.1112	31128.6	30236.3
930.4146	1987.7044	31092.55	30201.65
930.5525	1989.2968	30911.85	30019.1
930.6904	1990.8885	30829.3	29932.75
930.8282	1992.4795	30791.15	29898.8
930.966	1994.0697	30632.2	29740.65
931.1038	1995.6592	30508.65	29616.55
931.2415	1997.2479	30420.4	29529.55
931.3793	1998.8359	30338.95	29448.8
931.517	2000.4232	30199.9	29309.6
931.6547	2002.0097	30043.25	29154.9
931.7923	2003.5955	29910.9	29019.35
931.93	2005.1805	29948.65	29054.9
932.0676	2006.7648	29832.35	28940.95
932.2052	2008.3484	29697.55	28806.1
932.3427	2009.9312	29718.25	28823.15
932.4803	2011.5133	29524.35	28635
932.6178	2013.0946	29417.45	28528.2
932.7553	2014.6752	29322.6	28433.95
932.8928	2016.2551	29271.55	28379.2
933.0302	2017.8342	29082.2	28191.4
933.1676	2019.4126	29018	28128.4
933.305	2020.9902	28890.2	28000.75
933.4424	2022.5672	28832.8	27940.3
933.5798	2024.1433	28737.2	27841.2
933.7171	2025.7188	28609	27718.85
933.8544	2027.2935	28504.9	27612.8
933.9917	2028.8674	28398.5	27508
934.129	2030.4406	28315.35	27425.45
934.2662	2032.0131	28177.55	27288
934.4034	2033.5849	28067.2	27165.95
934.5406	2035.1559	27984.9	27094.4
934.6778	2036.7261	27951.05	27059.8
934.8149	2038.2957	27844.95	26952.7
934.952	2039.8645	27805.05	26911.15
935.0891	2041.4325	27791.2	26896.2
935.2262	2042.9998	27625.3	26734.6
935.3632	2044.5664	27547.4	26654.75
935.5002	2046.1323	27442.45	26550
935.6372	2047.6974	27369.4	26477.55
935.7742	2049.2617	27311.95	26422.35
935.9111	2050.8254	27285.45	26375.2
936.048	2052.3883	27196.1	26304
936.1849	2053.9504	27071.25	26180.35
936.3218	2055.5118	26947.1	26055.4
936.4586	2057.0725	26834.7	25941.25
936.5955	2058.6325	26777.4	25886.9
936.7323	2060.1917	26717.2	25826.5
936.869	2061.7502	26616.75	25723.1
937.0058	2063.3079	26501.65	25609.85
937.1425	2064.8649	26464.5	25569.25
937.2792	2066.4212	26362.95	25468.45
937.4159	2067.9767	26275.9	25386.35
937.5525	2069.5315	26146.6	25255.85
937.6891	2071.0856	26017.85	25127.2
937.8257	2072.6389	25920.25	25026.25
937.9623	2074.1915	25785.45	24894.9
938.0989	2075.7433	25650.45	24758.85
938.2354	2077.2945	25633	24742
938.3719	2078.8448	25549.3	24657.2
938.5084	2080.3945	25411.55	24520.05
938.6448	2081.9434	25393.75	24503.5
938.7812	2083.4916	25335.35	24442.9
938.9176	2085.039	25173.7	24279.25
939.054	2086.5857	25114.55	24219.4
939.1903	2088.1317	25100.4	24209.15
939.3267	2089.677	24996.2	24104.65
939.463	2091.2215	24907.55	24018.35
939.5992	2092.7652	24811.75	23919.1
939.7355	2094.3083	24749.8	23857.85
939.8717	2095.8506	24733.5	23843.9
940.0079	2097.3921	24705.1	23815.25
940.1441	2098.933	24584.85	23693.55
940.2802	2100.4731	24504.7	23611.65
940.4163	2102.0124	24459.4	23560.05
940.5524	2103.5511	24380.85	23489.45
940.6885	2105.089	24345.8	23453.95
940.8245	2106.6261	24256.85	23367
940.9606	2108.1626	24163.95	23270.25
941.0965	2109.6983	24119.25	23201.95
941.2325	2111.2332	23991.95	23099.3
941.3684	2112.7675	23964.45	23070.8
941.5044	2114.301	23863.15	22966.85
941.6403	2115.8337	23830.6	22937
941.7761	2117.3657	23748	22856.8
941.912	2118.897	23669.45	22777.6
942.0478	2120.4276	23599.35	22702.65
942.1835	2121.9575	23494.85	22602
942.3193	2123.4866	23485.15	22578.45
942.455	2125.0149	23389.15	22495.8
942.5907	2126.5426	23225.9	22334.65
942.7264	2128.0695	23184.75	22289.95
942.8621	2129.5956	23110.2	22219.95
942.9977	2131.1211	23088.1	22192.95
943.1333	2132.6458	23042.05	22149.2
943.2689	2134.1698	22962.9	22069.4
943.4044	2135.693	22908.25	22014.6
943.54	2137.2155	22824.4	21929.05
943.6755	2138.7373	22776.85	21884.1
943.8109	2140.2584	22661.05	21771.8
943.9464	2141.7787	22549.3	21652.45
944.0818	2143.2983	22459.8	21568.8
944.2172	2144.8171	22325.75	21434.05
944.3526	2146.3353	22286.5	21391.45
944.4879	2147.8527	22192.55	21302.35
944.6232	2149.3693	22176.85	21286
944.7585	2150.8853	22090.8	21199.55
944.8938	2152.4005	21973.45	21082.1
945.029	2153.9149	21901.75	21009.05
945.1642	2155.4287	21841.25	20948.25
945.2994	2156.9417	21802.75	20910.3
945.4346	2158.454	21726.1	20831.65
945.5697	2159.9655	21692.55	20800.1
945.7048	2161.4764	21649	20757.2
945.8399	2162.9865	21539.3	20649.05
945.9749	2164.4958	21509.5	20617.55
946.1099	2166.0045	21408.45	20513.2
946.2449	2167.5124	21397	20505.55
946.3799	2169.0195	21347.5	20455.95
946.5148	2170.526	21291.6	20400
946.6498	2172.0317	21205.2	20312.05
946.7846	2173.5367	21133.5	20241.2
946.9195	2175.0409	21072.45	20182.1
947.0543	2176.5445	21066.4	20174.05
947.1891	2178.0473	20975.2	20084.3
947.3239	2179.5494	20820	19924.85
947.4587	2181.0507	20752.25	19859.9
947.5934	2182.5513	20698.75	19807.75
947.7281	2184.0512	20668	19774.4
947.8628	2185.5504	20554.95	19664.2
947.9974	2187.0488	20444.5	19552.35
948.132	2188.5465	20384.45	19493.05
948.2666	2190.0435	20344.4	19452.75
948.4012	2191.5397	20271.95	19380.55
948.5357	2193.0353	20176.5	19284.45
948.6702	2194.5301	20065.8	19171.7
948.8047	2196.0241	19993.2	19099.9
948.9392	2197.5175	19936.1	19044.85
949.0736	2199.0101	19870.05	18974.8
949.208	2200.502	19739.9	18849.1
949.3424	2201.9931	19696.2	18805.05
949.4767	2203.4835	19618.6	18724.95
949.611	2204.9733	19549.35	18652.2
949.7453	2206.4622	19465.15	18571.8
949.8796	2207.9505	19391.75	18498.3
950.0138	2209.438	19294.55	18403.8
950.148	2210.9248	19247.5	18353.5
950.2822	2212.4109	19232.6	18341.75
950.4164	2213.8962	19108.65	18213.95
950.5505	2215.3809	19066.45	18174
950.6846	2216.8648	19033.9	18143.65
950.8186	2218.3479	18979.75	18082.45
950.9527	2219.8304	18868.75	17973.95
951.0867	2221.3121	18797.8	17903.1
951.2207	2222.7931	18706.5	17814
951.3546	2224.2733	18652.55	17761.25
951.4886	2225.7529	18580.3	17687.5
951.6225	2227.2317	18530.8	17635.7
951.7563	2228.7098	18493.35	17603.85
951.8902	2230.1872	18404.7	17511.65
952.024	2231.6638	18377	17486.8
952.1578	2233.1397	18284.35	17384.85
952.2916	2234.6149	18233.65	17342.7
952.4253	2236.0894	18177.55	17284.35
952.559	2237.5632	18131.95	17231.05
952.6927	2239.0362	18025.2	17133.7
952.8263	2240.5085	17952.85	17060.4
952.9599	2241.9801	17898.95	17007.15
953.0935	2243.4509	17850.85	16960.75
953.2271	2244.921	17778.95	16886.9
953.3606	2246.3904	17721.9	16829.8
953.4941	2247.8591	17654.6	16761.55
953.6276	2249.3271	17590.05	16696.3
953.7611	2250.7943	17504.3	16611.9
953.8945	2252.2608	17453.5	16562.35
954.0279	2253.7266	17408.55	16516.9
954.1612	2255.1917	17357.75	16466.25
954.2946	2256.656	17266.6	16373.85
954.4279	2258.1197	17232.05	16341.95
954.5612	2259.5826	17175.95	16282.35
954.6944	2261.0447	17154.65	16263.45
954.8276	2262.5062	17026.75	16131.55
954.9608	2263.9669	16995.6	16102.95
955.094	2265.4269	17029.1	16138.95
955.2271	2266.8862	16935.7	16043.15
955.3602	2268.3448	16897.45	16005.3
955.4933	2269.8026	16845.4	15951.5
955.6264	2271.2598	16804.35	15914.05
955.7594	2272.7162	16697.5	15806.75
955.8924	2274.1719	16630.5	15738.15
956.0253	2275.6268	16604.65	15712.7
956.1583	2277.0811	16566.9	15673.8
956.2912	2278.5346	16524.05	15632.8
956.4241	2279.9874	16458.55	15566.6
956.5569	2281.4395	16444.05	15551.7
956.6897	2282.8908	16354.15	15457.9
956.8225	2284.3414	16340.25	15448
956.9553	2285.7914	16286.15	15393.35
957.088	2287.2406	16233.1	15340.65
957.2207	2288.689	16177.25	15284.5
957.3534	2290.1368	16129.3	15235.1
957.486	2291.5838	16030.95	15136.4
957.6186	2293.0302	15978.05	15083.55
957.7512	2294.4758	15922.7	15031.6
957.8838	2295.9206	15873.3	14977.95
958.0163	2297.3648	15815.55	14922.7
958.1488	2298.8082	15774	14879.95
958.2813	2300.251	15745.4	14854
958.4137	2301.693	15664.25	14768.45
958.5461	2303.1343	15667.3	14773.55
958.6785	2304.5748	15594.35	14702.5
958.8108	2306.0147	15493.8	14601
958.9432	2307.4538	15498.8	14603.25
959.0754	2308.8922	15463	14575
959.2077	2310.3299	15361.35	14471.25
959.3399	2311.7669	15332.4	14441.75
959.4721	2313.2031	15257.35	14365.2
959.6043	2314.6387	15205.1	14309.85
959.7365	2316.0735	15133	14239
959.8686	2317.5076	15118.35	14224.65
960.0006	2318.941	15090.2	14199.8
960.1327	2320.3737	15032.4	14140.45
960.2647	2321.8056	14966.65	14071.2
960.3967	2323.2369	14932.8	14038.2
960.5287	2324.6674	14884.8	13991.15
960.6606	2326.0972	14821.85	13927.95
960.7925	2327.5263	14743	13851.75
960.9244	2328.9547	14729.25	13836
961.0562	2330.3823	14648.15	13755.1
961.1881	2331.8092	14677.8	13780.95
961.3198	2333.2355	14582.25	13688.15
961.4516	2334.661	14536.9	13645.4
961.5833	2336.0858	14479.45	13585.2
961.715	2337.5098	14474.1	13581.55
961.8467	2338.9332	14430.15	13537.05
961.9783	2340.3558	14347.4	13451.6
962.1099	2341.7778	14281.75	13389.6
962.2415	2343.199	14251.75	13356.6
962.373	2344.6195	14199.55	13306.75
962.5045	2346.0393	14162.15	13269.3
962.636	2347.4583	14129.35	13235.2
962.7675	2348.8767	14096	13205.65
962.8989	2350.2943	14055.55	13161.8
963.0303	2351.7113	14019.4	13125.7
963.1617	2353.1275	13950.45	13058.5
963.293	2354.543	13930	13029.7
963.4243	2355.9578	13861.9	12968.3
963.5556	2357.3718	13780.75	12889.4
963.6868	2358.7852	13708.8	12814.2
963.818	2360.1978	13671.85	12779.25
963.9492	2361.6098	13642.3	12750.65
964.0803	2363.021	13597.05	12702
964.2114	2364.4315	13561.3	12670.7
964.3425	2365.8413	13504.2	12610.75
964.4736	2367.2504	13455.2	12564.9
964.6046	2368.6587	13377.65	12487.7
964.7356	2370.0664	13302.7	12409.7
964.8666	2371.4733	13280.5	12388.95
964.9975	2372.8795	13204.25	12311.2
965.1284	2374.285	13157.45	12268.4
965.2593	2375.6899	13106.15	12216.05
965.3901	2377.0939	13037.45	12147
965.5209	2378.4973	12972.35	12080.6
965.6517	2379.9	12925.75	12033.5
965.7825	2381.3019	12889.55	11998.15
965.9132	2382.7032	12827.85	11936.25
966.0439	2384.1037	12812.9	11923.75
966.1745	2385.5035	12755.35	11864.15
966.3051	2386.9027	12722.9	11834
966.4357	2388.3011	12694	11800.05
966.5663	2389.6987	12662.7	11771.3
966.6968	2391.0957	12594.6	11702.05
966.8273	2392.492	12557.9	11666.8
966.9578	2393.8876	12474.45	11584.15
967.0882	2395.2824	12409.2	11519.45
967.2186	2396.6765	12368	11478.1
967.349	2398.07	12327.15	11434.75
967.4793	2399.4627	12282.65	11390.2
967.6097	2400.8547	12254.2	11362.35
967.7399	2402.246	12208.3	11310.25
967.8702	2403.6366	12131.4	11241.9
968.0004	2405.0265	12066.65	11175
968.1306	2406.4156	12036.5	11141.25
968.2607	2407.8041	11979.4	11086
968.3909	2409.1918	11932.8	11039.95
968.521	2410.5789	11890.6	10997.9
968.651	2411.9652	11849.75	10952.45
968.781	2413.3508	11776.25	10885.95
968.911	2414.7358	11736.25	10844.7
969.041	2416.12	11697.05	10805.05
969.1709	2417.5035	11664.6	10774.1
969.3008	2418.8863	11630.65	10738.05
969.4307	2420.2684	11590.5	10698.05
969.5606	2421.6497	11550.5	10658.75
969.6904	2423.0304	11473.6	10582.85
969.8201	2424.4104	11432.7	10541.35
969.9499	2425.7896	11407.35	10513.2
970.0796	2427.1682	11368.6	10476.45
970.2093	2428.546	11359.05	10465.55
970.3389	2429.9232	11290.1	10396.3
970.4685	2431.2996	11270.5	10378.6
970.5981	2432.6753	11256.7	10365.15
970.7277	2434.0503	11214.85	10322.3
970.8572	2435.4246	11141.2	10250.95
970.9867	2436.7982	11121.05	10228.65
971.1161	2438.1711	11100.15	10209
971.2456	2439.5433	11059.2	10166.3
971.375	2440.9148	10989.8	10096
971.5043	2442.2856	10931.9	10038.6
971.6336	2443.6557	10923.85	10030.2
971.7629	2445.025	10877.25	9984.45
971.8922	2446.3937	10867.75	9975.6
972.0214	2447.7617	10804.5	9912.3
972.1506	2449.1289	10801	9910.5
972.2798	2450.4955	10762.4	9866.25
972.4089	2451.8613	10712	9820.75
972.538	2453.2265	10684.35	9794.15
972.6671	2454.5909	10673.65	9780.95
972.7961	2455.9546	10631.45	9739.5
972.9251	2457.3177	10561.4	9669.7
973.0541	2458.68	10547.7	9655.55
973.1831	2460.0416	10542.6	9650.85
973.312	2461.4025	10516	9622.15
973.4408	2462.7627	10488.45	9586.05
973.5697	2464.1222	10430.65	9540.05
973.6985	2465.4811	10414.3	9521.3
973.8273	2466.8392	10356.25	9465.25
973.956	2468.1966	10344.8	9451.6
974.0847	2469.5533	10325.5	9430.25
974.2134	2470.9093	10302.05	9409.85
974.3421	2472.2645	10271.85	9379.25
974.4707	2473.6191	10257.6	9366.4
974.5993	2474.973	10178.4	9287.85
974.7278	2476.3262	10156.7	9262.7
974.8563	2477.6787	10110.55	9219.25
974.9848	2479.0305	10062.95	9171.6
975.1132	2480.3816	10027.35	9134.15
975.2417	2481.7319	10014.1	9122.45
975.37	2483.0816	9941.8	9047.8
975.4984	2484.4306	9914.6	9020.9
975.6267	2485.7789	9849.5	8959.05
975.755	2487.1264	9826.4	8931.8
975.8833	2488.4733	9776.85	8885.05
976.0115	2489.8195	9763.1	8854.35
976.1397	2491.165	9741.15	8845.45
976.2678	2492.5097	9707.55	8815.1
976.3959	2493.8538	9666.4	8774.7
976.524	2495.1972	9593.5	8701.85
976.6521	2496.5398	9542.75	8650.25
976.7801	2497.8818	9541	8647.45
976.9081	2499.2231	9501.85	8611.6
977.036	2500.5637	9462.45	8567.75
977.164	2501.9035	9425.2	8532.6
977.2918	2503.2427	9395.7	8500.6
977.4197	2504.5812	9373.65	8483.1
977.5475	2505.919	9360	8465.1
977.6753	2507.256	9342.8	8451.05
977.8031	2508.5924	9262.55	8371.25
977.9308	2509.9281	9244.55	8347.35
978.0585	2511.2631	9213.1	8322
978.1861	2512.5974	9172.3	8281
978.3137	2513.9309	9146.45	8253.35
978.4413	2515.2638	9158.1	8231.95
978.5689	2516.596	9094	8202.15
978.6964	2517.9275	9031.65	8138.3
978.8239	2519.2583	9018.5	8125.35
978.9513	2520.5884	8995.1	8100.95
979.0788	2521.9178	8953.45	8060.6
979.2062	2523.2465	8920.2	8030.05
979.3335	2524.5745	8891.45	8000.05
979.4608	2525.9018	8827.95	7936.85
979.5881	2527.2284	8796.7	7903.6
979.7154	2528.5543	8796.5	7904.9
979.8426	2529.8796	8748.65	7856.7
979.9698	2531.2041	8754.35	7859.75
980.0969	2532.5279	8731.5	7841.35
980.224	2533.851	8702.95	7811
980.3511	2535.1735	8683.75	7791.5
980.4781	2536.4952	8641.65	7749.55
980.6052	2537.8163	8629.7	7738
980.7321	2539.1366	8606.9	7715.35
980.8591	2540.4562	8568.9	7675
980.986	2541.7752	8570.65	7679.3
981.1129	2543.0935	8544.4	7651.55
981.2397	2544.411	8544.65	7653.5
981.3665	2545.7279	8503.2	7612.4
981.4933	2547.0441	8481.9	7588.7
981.62	2548.3596	8456.1	7561.6
981.7467	2549.6744	8451.95	7559.75
981.8734	2550.9885	8407.15	7511.6
982.0001	2552.3019	8357.85	7467.6
982.1267	2553.6146	8349.9	7458
982.2532	2554.9266	8319.15	7427.35
982.3798	2556.2379	8281.95	7387.1
982.5063	2557.5485	8270.75	7379.45
982.6327	2558.8585	8235.85	7337.7
982.7592	2560.1677	8254.95	7358.75
982.8856	2561.4762	8211.25	7318.75
983.0119	2562.7841	8204	7308.85
983.1383	2564.0913	8167.9	7277.7
983.2646	2565.3977	8172.6	7280.75
983.3908	2566.7035	8117.95	7224.85
983.517	2568.0086	8135.7	7242.8
983.6432	2569.313	8104	7210.8
983.7694	2570.6167	8089.05	7194.15
983.8955	2571.9197	8050.55	7158.4
984.0216	2573.222	8051.75	7155.75
984.1476	2574.5236	8048.2	7157.25
984.2737	2575.8246	7998.45	7103.55
984.3996	2577.1248	7984.1	7087.65
984.5256	2578.4244	7969.3	7076.1
984.6515	2579.7232	7963.8	7072.25
984.7774	2581.0214	7966.75	7050.15
984.9032	2582.3189	7916.2	7024.7
985.029	2583.6157	7920.05	7022.9
985.1548	2584.9118	7881.55	6988.7
985.2806	2586.2072	7869.3	6977.1
985.4063	2587.5019	7822.25	6931.3
985.5319	2588.7959	7824.3	6932.35
985.6576	2590.0893	7817.8	6924.65
985.7832	2591.3819	7796.7	6905.9
985.9087	2592.6739	7774.95	6883.7
986.0343	2593.9652	7734.1	6840.9
986.1597	2595.2557	7723.3	6832.25
986.2852	2596.5456	7678.9	6782.7
986.4106	2597.8348	7640.05	6748.45
986.536	2599.1234	7635.8	6744.25
986.6614	2600.4112	7602.75	6711.9
986.7867	2601.6983	7576.65	6680.95
986.912	2602.9848	7546.7	6654.15
987.0372	2604.2705	7512.5	6614.25
987.1624	2605.5556	7494.55	6602.5
987.2876	2606.84	7471	6578.95
987.4128	2608.1237	7445.35	6550.25
987.5379	2609.4067	7404.95	6512.95
987.6629	2610.689	7382	6479
987.788	2611.9707	7362.85	6466.25
987.913	2613.2516	7341.15	6444.95
988.0379	2614.5319	7307.75	6416.6
988.1629	2615.8115	7283	6389.9
988.2878	2617.0903	7270.3	6375.75
988.4126	2618.3685	7213.7	6320.8
988.5375	2619.6461	7177.9	6285.75
988.6622	2620.9229	7150.25	6258.5
988.787	2622.199	7152	6258.35
988.9117	2623.4745	7131.15	6238.5
989.0364	2624.7493	7115	6222.6
989.161	2626.0234	7060.75	6170.9
989.2857	2627.2968	7041.7	6151.6
989.4102	2628.5695	7051.2	6159.35
989.5348	2629.8415	6997	6104.2
989.6593	2631.1128	6950.85	6056.25
989.7837	2632.3835	6942.25	6050.4
989.9082	2633.6535	6895.75	6003.7
990.0326	2634.9228	6886	5994.4
990.1569	2636.1914	6870.15	5978.35
990.2812	2637.4593	6847.55	5948.4
990.4055	2638.7265	6830.45	5936.75
990.5298	2639.9931	6794.55	5902.1
990.654	2641.259	6760.1	5867
990.7782	2642.5242	6770	5877.1
990.9023	2643.7887	6748.45	5854
991.0264	2645.0525	6736.2	5842.8
991.1505	2646.3156	6689.3	5796.45
991.2745	2647.5781	6676.45	5783.55
991.3985	2648.8398	6664.6	5773
991.5225	2650.1009	6640.9	5739.9
991.6464	2651.3613	6601	5707.6
991.7703	2652.6211	6596	5701.6
991.8942	2653.8801	6565.2	5671.95
992.018	2655.1385	6551.95	5657.05
992.1418	2656.3961	6548.4	5657.3
992.2655	2657.6531	6511.15	5620.5
992.3892	2658.9094	6505.4	5613.15
992.5129	2660.1651	6482.2	5590.75
992.6366	2661.42	6459.95	5567.3
992.7602	2662.6743	6462.1	5568.25
992.8837	2663.9279	6450.3	5558.6
993.0073	2665.1808	6422.85	5528.25
993.1307	2666.433	6399.15	5505.15
993.2542	2667.6846	6354.85	5463.5
993.3776	2668.9354	6370.95	5475.75
993.501	2670.1856	6336.35	5443.55
993.6244	2671.4351	6318.8	5427.85
993.7477	2672.6839	6333.7	5439.5
993.8709	2673.9321	6300.8	5409.7
993.9942	2675.1795	6275.1	5383.75
994.1174	2676.4263	6295.65	5404
994.2405	2677.6724	6248.55	5356.5
994.3637	2678.9179	6228.75	5333.1
994.4868	2680.1626	6224.45	5331.75
994.6098	2681.4067	6189.75	5298.4
994.7328	2682.6501	6194.75	5303.35
994.8558	2683.8928	6172.45	5280.45
994.9788	2685.1348	6118.7	5227.6
995.1017	2686.3761	6101.2	5210.4
995.2245	2687.6168	6097.55	5206.1
995.3474	2688.8568	6064.2	5171.35
995.4702	2690.0961	6060.2	5169.5
995.5929	2691.3348	6043.25	5150.15
995.7156	2692.5727	6013.35	5121.5
995.8383	2693.81	5983.5	5091.35
995.961	2695.0466	5982.35	5091.05
996.0836	2696.2826	5962.1	5068.7
996.2062	2697.5178	5953.3	5060.3
996.3287	2698.7524	5912.9	5020.45
996.4512	2699.9863	5920.3	5025.15
996.5737	2701.2195	5880.95	4989.05
996.6961	2702.452	5879.35	4984.5
996.8185	2703.6839	5840.75	4948.5
996.9408	2704.9151	5815.3	4923.9
997.0631	2706.1456	5792.1	4900.55
997.1854	2707.3755	5792.85	4900.4
997.3077	2708.6046	5780.25	4885.35
997.4299	2709.8331	5780.1	4886.55
997.552	2711.0609	5767.85	4875.55
997.6742	2712.2881	5758.4	4867.65
997.7963	2713.5145	5757.65	4863.1
997.9183	2714.7403	5733.75	4843.95
998.0403	2715.9654	5731.7	4839.05
998.1623	2717.1899	5721.45	4815.1
998.2842	2718.4136	5709.65	4818.15
998.4062	2719.6367	5695.5	4802.15
998.528	2720.8591	5688.85	4791.05
998.6498	2722.0809	5674.2	4781.1
998.7716	2723.3019	5664.1	4768
998.8934	2724.5223	5669.35	4776.8
999.0151	2725.7421	5646.95	4754.5
999.1368	2726.9611	5629.05	4735.05
999.2584	2728.1795	5643.2	4747.15
999.38	2729.3972	5588.25	4696.8
999.5016	2730.6142	5560.85	4661.3
999.6231	2731.8306	5516.45	4623.9
999.7446	2733.0462	5502.75	4610.45
999.8661	2734.2612	5468.65	4571.95
999.9875	2735.4756	5438.1	4542.45
1000.1089	2736.6892	5389.75	4498.85
1000.2302	2737.9022	5354.15	4463.25
1000.3515	2739.1145	5317.55	4424.7
1000.4728	2740.3262	5315.5	4414.8
1000.594	2741.5372	5273.55	4381.5
1000.7152	2742.7475	5255.7	4364.25
1000.8363	2743.9571	5221.75	4328.5
1000.9575	2745.1661	5195.3	4297
1001.0785	2746.3744	5172.45	4280.55
1001.1996	2747.582	5151.35	4260.35
1001.3206	2748.7889	5124.8	4232.9
1001.4415	2749.9952	5121.2	4229.75
1001.5625	2751.2008	5095.1	4201
1001.6833	2752.4057	5075.85	4180.4
1001.8042	2753.61	5059.55	4163.35
1001.925	2754.8136	5041.7	4146.05
1002.0458	2756.0165	5026.25	4134.3
1002.1665	2757.2188	5003.75	4111.8
1002.2872	2758.4204	4988.55	4096.25
1002.4078	2759.6213	4963.65	4068.65
1002.5285	2760.8215	4965	4068.8
1002.649	2762.0211	4964.05	4072.05
1002.7696	2763.22	4920.85	4026.15
1002.8901	2764.4182	4914.15	4020.55
1003.0106	2765.6158	4905.05	4014.25
1003.131	2766.8127	4890.8	4000.85
1003.2514	2768.009	4865.55	3975.45
1003.3717	2769.2045	4869	3974.85
1003.492	2770.3994	4857.3	3962.8
1003.6123	2771.5936	4834.35	3940.55
1003.7325	2772.7872	4808.55	3916
1003.8527	2773.9801	4772.8	3878.8
1003.9729	2775.1723	4788.1	3878.55
1004.093	2776.3639	4743.05	3850.25
1004.2131	2777.5548	4726.6	3832.95
1004.3331	2778.745	4719	3824.3
1004.4531	2779.9346	4708.9	3817.3
1004.5731	2781.1235	4699	3805.8
1004.693	2782.3117	4673.45	3783.6
1004.8129	2783.4992	4670.9	3780.7
1004.9328	2784.6861	4665.3	3773.85
1005.0526	2785.8723	4662.05	3770.1
1005.1723	2787.0579	4637.5	3745.2
1005.2921	2788.2428	4640.6	3750.1
1005.4118	2789.427	4633.95	3743.6
1005.5314	2790.6106	4639	3747.05
1005.651	2791.7935	4624.6	3733.35
1005.7706	2792.9757	4618.8	3726.25
1005.8902	2794.1573	4616.4	3722.95
1006.0097	2795.3382	4610.35	3719.55
1006.1291	2796.5184	4628.6	3737.8
1006.2485	2797.698	4625.2	3731.3
1006.3679	2798.8769	4616.1	3724.2
1006.4873	2800.0551	4617.35	3725.85
1006.6066	2801.2327	4621.6	3728.55
1006.7258	2802.4096	4617.05	3724.15
1006.8451	2803.5859	4620.85	3728.8
1006.9642	2804.7615	4629	3736.3
1007.0834	2805.9364	4640.9	3752
1007.2025	2807.1106	4654.3	3764
1007.3216	2808.2842	4680.35	3786.45
1007.4406	2809.4572	4700.25	3809.55
1007.5596	2810.6294	4732.65	3839.7
1007.6785	2811.801	4755.7	3866.85
1007.7975	2812.972	4773.3	3883.4
1007.9163	2814.1423	4810	3918.6
1008.0352	2815.3119	4835.7	3944.15
1008.154	2816.4808	4866.75	3976.9
1008.2727	2817.6491	4909.75	4018.5
1008.3914	2818.8167	4951.95	4061.1
1008.5101	2819.9837	4987.8	4091.05
1008.6288	2821.15	5020.2	4128.9
1008.7474	2822.3157	5043.65	4153.7
1008.8659	2823.4807	5095.3	4204.45
1008.9844	2824.645	5142.25	4250.6
1009.1029	2825.8086	5155.15	4263.25
1009.2214	2826.9716	5188	4297.7
1009.3398	2828.134	5229.3	4338.2
1009.4581	2829.2957	5249.05	4358
1009.5764	2830.4567	5271.65	4380.6
1009.6947	2831.617	5257.4	4364.75
1009.813	2832.7767	5266.8	4374.7
1009.9312	2833.9358	5270.6	4379.35
1010.0493	2835.0941	5259.8	4363.75
1010.1675	2836.2519	5264.25	4374.25
1010.2855	2837.4089	5231.5	4338.15
1010.4036	2838.5653	5212.85	4322.7
1010.5216	2839.7211	5189.2	4299.25
1010.6396	2840.8761	5205.6	4311.5
1010.7575	2842.0306	5200.75	4312.35
1010.8754	2843.1843	5226.75	4335.55
1010.9932	2844.3374	5257.75	4367
1011.111	2845.4899	5320.75	4429.5
1011.2288	2846.6417	5392.95	4499.75
1011.3465	2847.7928	5452.85	4564.05
1011.4642	2848.9433	5535.15	4643.75
1011.5818	2850.0931	5601.95	4711.5
1011.6995	2851.2422	5671.5	4779.15
1011.817	2852.3907	5748.5	4857.4
1011.9345	2853.5385	5809.9	4917.4
1012.052	2854.6857	5866.3	4947.65
1012.1695	2855.8323	5891.3	5000.45
1012.2869	2856.9781	5929	5037.3
1012.4042	2858.1233	5963.45	5070.15
1012.5216	2859.2679	5993.55	5101.8
1012.6389	2860.4118	6020.2	5127.65
1012.7561	2861.555	6052.9	5157.5
1012.8733	2862.6976	6088.2	5194.9
1012.9905	2863.8395	6081.6	5191.5
1013.1076	2864.9808	6114.5	5222.05
1013.2247	2866.1214	6113.75	5222
1013.3417	2867.2614	6132.15	5241.5
1013.4587	2868.4007	6122	5229.55
1013.5757	2869.5393	6110.85	5217.3
1013.6926	2870.6773	6115.2	5220.5
1013.8095	2871.8146	6106.8	5211.85
1013.9263	2872.9513	6131.9	5238.7
1014.0431	2874.0874	6083.4	5193.15
1014.1599	2875.2227	6078.35	5185.5
1014.2766	2876.3574	6060.6	5171.05
1014.3933	2877.4915	6015.65	5125.85
1014.51	2878.6249	5985.85	5095.65
1014.6266	2879.7577	5938.1	5047.5
1014.7431	2880.8898	5929.75	5025.15
1014.8596	2882.0212	5881.3	4989.5
1014.9761	2883.152	5851.6	4959.7
1015.0925	2884.2821	5839.25	4949.5
1015.2089	2885.4116	5809.55	4918.6
1015.3253	2886.5405	5810.55	4920
1015.4416	2887.6686	5814	4918.3
1015.5579	2888.7962	5810.95	4921.55
1015.6741	2889.923	5773.35	4882.6
1015.7903	2891.0493	5807.65	4917.35
1015.9065	2892.1748	5787.5	4895.95
1016.0226	2893.2997	5793.4	4901
1016.1387	2894.424	5804.2	4914.95
1016.2547	2895.5476	5806.4	4915.1
1016.3707	2896.6706	5833.65	4942.9
1016.4866	2897.7929	5825	4933.1
1016.6025	2898.9145	5862.7	4972.95
1016.7184	2900.0355	5874.5	4984.35
1016.8342	2901.1559	5909.4	5016.65
1016.95	2902.2756	5921.95	5030.35
1017.0658	2903.3946	5937.1	5045.05
1017.1815	2904.513	5982.5	5087.05
1017.2971	2905.6308	5988.15	5098.5
1017.4127	2906.7479	5999.9	5107.1
1017.5283	2907.8643	6012	5118
1017.6439	2908.9801	6018.15	5126.15
1017.7594	2910.0953	5995.25	5104.95
1017.8748	2911.2098	6004.2	5111.25
1017.9902	2912.3236	6005.9	5107.7
1018.1056	2913.4368	5959.05	5062.8
1018.2209	2914.5494	5940.25	5050.3
1018.3362	2915.6613	5909.5	5011.9
1018.4515	2916.7725	5870.6	4976.6
1018.5667	2917.8831	5853.8	4961.55
1018.6819	2918.9931	5806.85	4913.65
1018.797	2920.1024	5750	4858.4
1018.9121	2921.211	5720.7	4830.5
1019.0271	2922.319	5698.35	4806.7
1019.1421	2923.4264	5674.35	4782.75
1019.2571	2924.5331	5657.65	4766.95
1019.372	2925.6391	5636.5	4747.05
1019.4869	2926.7445	5604.45	4714.35
1019.6017	2927.8493	5594.35	4703.45
1019.7165	2928.9534	5588.85	4697.05
1019.8313	2930.0569	5570.55	4677.8
1019.946	2931.1597	5566.3	4673.9
1020.0606	2932.2619	5546.25	4655.75
1020.1753	2933.3634	5537.3	4647.65
1020.2899	2934.4643	5524.85	4627.65
1020.4044	2935.5645	5475.3	4577.7
1020.5189	2936.6641	5441	4544.9
1020.6334	2937.763	5388.95	4497.5
1020.7478	2938.8613	5318.5	4426.7
1020.8622	2939.959	5268.75	4372.35
1020.9765	2941.056	5175.4	4284.35
1021.0908	2942.1523	5070.95	4178.6
1021.2051	2943.248	4983.75	4092.3
1021.3193	2944.3431	4881.3	3991.2
1021.4334	2945.4375	4763.55	3872.6
1021.5476	2946.5313	4656.2	3765.65
1021.6617	2947.6244	4549.1	3656.6
1021.7757	2948.7169	4443.35	3549.95
1021.8897	2949.8087	4333	3441.2
1022.0037	2950.8999	4226.95	3336.65
1022.1176	2951.9904	4147.8	3256.9
1022.2315	2953.0803	4063.55	3171.85
1022.3453	2954.1696	3989.9	3097.55
1022.4591	2955.2582	3947.65	3056.5
1022.5728	2956.3462	3885.85	2994.7
1022.6865	2957.4335	3832.5	2940.15
1022.8002	2958.5202	3784.4	2890.1
1022.9138	2959.6062	3750	2857.75
1023.0274	2960.6916	3716.5	2826
1023.141	2961.7764	3674.75	2783.7
1023.2545	2962.8605	3666.1	2776.4
1023.3679	2963.9439	3637.4	2746.55
1023.4813	2965.0267	3647.9	2756.65
1023.5947	2966.1089	3641.5	2727.9
1023.708	2967.1905	3591.65	2700.15
1023.8213	2968.2714	3588.85	2697.25
1023.9346	2969.3516	3574.8	2684.15
1024.0478	2970.4312	3584.3	2687.2
1024.1609	2971.5102	3553.75	2662.05
1024.274	2972.5885	3575.65	2685.55
1024.3871	2973.6662	3545.1	2649.3
1024.5002	2974.7432	3543.25	2653.15
1024.6132	2975.8196	3532.35	2640.9
1024.7261	2976.8954	3506.05	2615.4
1024.839	2977.9705	3496.45	2605.15
1024.9519	2979.045	3464.25	2573.9
1025.0647	2980.1188	3452.4	2561.15
1025.1775	2981.192	3416.9	2525.5
1025.2902	2982.2645	3393	2502.9
1025.4029	2983.3364	3356.7	2465.55
1025.5156	2984.4077	3313.5	2422.9
1025.6282	2985.4783	3288.95	2393.4
1025.7407	2986.5483	3248.75	2360.25
1025.8532	2987.6177	3207.9	2319.3
1025.9657	2988.6864	3175.45	2284
1026.0782	2989.7545	3133.75	2242.1
1026.1906	2990.8219	3091.85	2201.4
1026.3029	2991.8887	3062.95	2169.75
1026.4152	2992.9548	3031.7	2138.75
1026.5275	2994.0204	2973.05	2083.65
1026.6397	2995.0852	2969	2081.95
1026.7519	2996.1495	2927.65	2035.5
1026.864	2997.2131	2904.35	2014.1
1026.9761	2998.276	2855.6	1965.85
1027.0882	2999.3383	2854.1	1963.35
1027.2002	3000.4	2812.75	1919.95
1027.3122	3001.4611	2794.15	1902.5
1027.4241	3002.5215	2762.45	1871.6
1027.536	3003.5812	2745.65	1855.05
1027.6478	3004.6404	2736.9	1845.7
1027.7596	3005.6989	2730.3	1837.6
1027.8714	3006.7567	2716.15	1825.85
1027.9831	3007.8139	2717.7	1803.1
1028.0947	3008.8705	2689.55	1797.45
1028.2064	3009.9264	2668.4	1774.1
1028.3179	3010.9818	2667.45	1775.25
1028.4295	3012.0364	2652.3	1761.35
1028.541	3013.0905	2660.25	1768.35
1028.6524	3014.1439	2632.6	1742.05
1028.7638	3015.1966	2631.05	1741
1028.8752	3016.2487	2640.8	1749.05
1028.9865	3017.3002	2621.25	1724.65
1029.0978	3018.3511	2605.85	1714.9
1029.209	3019.4013	2606.7	1716.2
1029.3202	3020.4509	2599.75	1709.65
1029.4314	3021.4998	2602.5	1710.7
1029.5425	3022.5481	2595.5	1703.95
1029.6535	3023.5958	2596.75	1705
1029.7645	3024.6428	2594	1703.85
1029.8755	3025.6892	2583.75	1694.9
1029.9864	3026.735	2572.1	1682
1030.0973	3027.7802	2584.85	1694.3
1030.2082	3028.8247	2571.35	1680.4
1030.319	3029.8685	2562.15	1669.8
1030.4297	3030.9118	2562.05	1669.65
1030.5404	3031.9544	2568.7	1677.65
1030.6511	3032.9963	2556.35	1666.1
1030.7617	3034.0376	2561.95	1670.75
1030.8723	3035.0783	2565.15	1672.65
1030.9829	3036.1184	2560.75	1668.8
1031.0934	3037.1578	2544.7	1654.7
1031.2038	3038.1966	2551	1660.05
1031.3142	3039.2348	2553.85	1665.9
1031.4246	3040.2723	2552	1654.75
1031.5349	3041.3092	2536.55	1644.85
1031.6452	3042.3455	2532.7	1640.7
1031.7554	3043.3811	2528.1	1636.15
1031.8656	3044.4161	2505.1	1613.2
1031.9758	3045.4505	2496.2	1606.4
1032.0859	3046.4842	2496.6	1604.4
1032.1959	3047.5173	2484.6	1595.6
1032.3059	3048.5498	2466.95	1575.25
1032.4159	3049.5816	2472.65	1581.35
1032.5258	3050.6128	2453.1	1562.2
1032.6357	3051.6434	2447.55	1554.8
1032.7455	3052.6734	2421.9	1529.1
1032.8553	3053.7027	2424.7	1534.5
1032.9651	3054.7314	2414.55	1525.05
1033.0748	3055.7594	2391.9	1502.7
1033.1845	3056.7868	2400.2	1507.35
1033.2941	3057.8136	2375	1485.2
1033.4037	3058.8398	2360.9	1470.85
1033.5132	3059.8653	2356.25	1465.8
1033.6227	3060.8902	2338.6	1447.1
1033.7321	3061.9145	2344.1	1452.4
1033.8415	3062.9381	2336.65	1445.15
1033.9509	3063.9612	2323.45	1416.75
1034.0602	3064.9835	2310.9	1420.25
1034.1694	3066.0053	2292	1398.45
1034.2787	3067.0264	2281.65	1391
1034.3878	3068.0469	2266.3	1374.65
1034.497	3069.0668	2244.35	1349
1034.6061	3070.086	2250.2	1360.15
1034.7151	3071.1046	2227.05	1336.35
1034.8241	3072.1226	2220.15	1330.05
1034.9331	3073.1399	2208.65	1320.2
1035.042	3074.1567	2191.1	1300.4
1035.1508	3075.1727	2183.4	1291.85
1035.2597	3076.1882	2164.4	1273.65
1035.3684	3077.203	2149.85	1260.85
1035.4772	3078.2173	2142.55	1251.3
1035.5859	3079.2308	2129.75	1236.6
1035.6945	3080.2438	2125.5	1232.15
1035.8031	3081.2561	2112.7	1223.4
1035.9117	3082.2678	2100.4	1210.75
1036.0202	3083.2789	2082.8	1191.95
1036.1286	3084.2893	2078.45	1188.1
1036.2371	3085.2991	2073.85	1183.35
1036.3454	3086.3083	2064.9	1169.5
1036.4538	3087.3169	2056.25	1164.8
1036.562	3088.3248	2043.4	1151.8
1036.6703	3089.3321	2034.3	1141.55
1036.7785	3090.3388	2025.55	1135.65
1036.8866	3091.3449	2015.25	1124.75
1036.9948	3092.3503	2015.45	1122.5
1037.1028	3093.3551	1994.25	1104.5
1037.2108	3094.3593	1994.2	1106.05
1037.3188	3095.3629	1989	1098.55
1037.4267	3096.3658	1975.45	1083.95
1037.5346	3097.3681	1974.7	1084.4
1037.6425	3098.3698	1963.4	1071.25
1037.7503	3099.3708	1965.45	1067.3
1037.858	3100.3713	1943.7	1052.65
1037.9657	3101.3711	1945.55	1054.35
1038.0734	3102.3702	2042.7	1036.65
1038.181	3103.3688	1939.7	1047.95
1038.2886	3104.3667	1916.75	1027.5
1038.3961	3105.364	1930.6	1041.05
1038.5036	3106.3607	1900.7	1009.55
1038.611	3107.3568	1901.9	1010.3
1038.7184	3108.3522	1902.15	1011.8
1038.8257	3109.347	1891.8	1001.55
1038.933	3110.3412	1891.6	996.9
1039.0403	3111.3348	1879.8	991.05
1039.1475	3112.3277	1863.6	972.85
1039.2547	3113.32	1863.8	974.55
1039.3618	3114.3117	1856.95	965.25
1039.4689	3115.3028	1856.15	966.35
1039.5759	3116.2932	1859.75	967.5
1039.6829	3117.2831	1844.3	949.15
1039.7898	3118.2723	1835.95	945.65
1039.8967	3119.2608	1837.85	947.85
1040.0035	3120.2488	1818.8	928.9
1040.1103	3121.2361	1822.4	933.7
1040.2171	3122.2229	1809.35	920.5
1040.3238	3123.209	1806.95	916
1040.4305	3124.1944	1803.35	913.25
1040.5371	3125.1793	1801.45	908.4
1040.6437	3126.1635	1795.85	905.85
1040.7502	3127.1471	1798.9	907.3
1040.8567	3128.1301	1781.35	890.95
1040.9631	3129.1125	1789.65	898.85
1041.0695	3130.0942	1781.7	892.7
1041.1759	3131.0753	1774.6	877.4
1041.2822	3132.0558	1775.2	882.05
1041.3884	3133.0357	1760.8	868.85
1041.4946	3134.015	1761.05	869.95
1041.6008	3134.9936	1759.95	867.9
1041.7069	3135.9716	1777.35	865.3
1041.813	3136.949	1750.25	859.65
1041.919	3137.9258	1746.65	850.95
1042.025	3138.902	1738.25	841.8
1042.1309	3139.8775	1738.7	849.2
1042.2368	3140.8524	1734.85	846.35
1042.3427	3141.8267	1722.45	830.2
1042.4485	3142.8004	1719.3	828.15
1042.5542	3143.7735	1726.5	830
1042.6599	3144.7459	1712.35	820
1042.7656	3145.7178	1714.75	824.75
1042.8712	3146.689	1708.05	820.2
1042.9768	3147.6596	1701.4	809.75
1043.0823	3148.6295	1692.35	802.25
1043.1878	3149.5989	1687.8	798.8
1043.2932	3150.5676	1685.3	796.7
1043.3986	3151.5357	1687.85	797.6
1043.5039	3152.5032	1687.95	799.1
1043.6092	3153.4701	1671.35	780.6
1043.7145	3154.4364	1673.85	781
1043.8197	3155.402	1671.45	781.95
1043.9248	3156.367	1660.4	768.4
1044.03	3157.3315	1699.75	767.15
1044.135	3158.2952	1655.1	763.15
1044.24	3159.2584	1644.75	756.35
1044.345	3160.221	1643.1	751.1
1044.4499	3161.1829	1642.5	753
1044.5548	3162.1442	1632.65	743.7
1044.6596	3163.105	1623.25	733.25
1044.7644	3164.065	1620.65	728.8
1044.8692	3165.0245	1620.6	727.7
1044.9739	3165.9834	1614.1	725.15
1045.0785	3166.9416	1616.85	727.1
1045.1831	3167.8993	1615.7	725.3
1045.2877	3168.8563	1602.55	711.95
1045.3922	3169.8127	1601	711.55
1045.4966	3170.7684	1583.25	693.95
1045.6011	3171.7236	1595.7	705
1045.7054	3172.6782	1588.75	696.5
1045.8098	3173.6321	1584.8	692.6
1045.914	3174.5854	1580.75	687.1
1046.0183	3175.5381	1570.3	678.9
1046.1224	3176.4902	1571.75	682.8
1046.2266	3177.4417	1563.55	675.1
1046.3307	3178.3926	1564.7	676.85
1046.4347	3179.3428	1560.25	669.75
1046.5387	3180.2924	1557.65	667.65
1046.6427	3181.2415	1553.25	663.55
1046.7466	3182.1899	1549.5	659.35
1046.8504	3183.1377	1546.65	656.9
1046.9542	3184.0848	1548.6	655.2
1047.058	3185.0314	1535.85	644.95
1047.1617	3185.9773	1535.75	645.35
1047.2654	3186.9227	1538.65	647.6
1047.369	3187.8674	1531.3	640.05
1047.4726	3188.8115	1532.95	639.7
1047.5761	3189.755	1524.6	632.85
1047.6796	3190.6979	1525.45	636.75
1047.783	3191.6402	1513.05	624.7
1047.8864	3192.5818	1513.4	622.35
1047.9898	3193.5229	1539.95	627.2
1048.0931	3194.4633	1519.3	628.8
1048.1963	3195.4031	1504	614.4
1048.2995	3196.3423	1505.3	617.4
1048.4027	3197.2809	1501.85	611.45
1048.5058	3198.2189	1497.1	606.6
1048.6089	3199.1563	1502.2	605.95
1048.7119	3200.0931	1492.3	603
1048.8148	3201.0292	1483.1	592.45
1048.9178	3201.9648	1480.95	591.75
1049.0206	3202.8997	1485.85	593.35
1049.1235	3203.834	1471.85	581
1049.2262	3204.7677	1476.5	588.4
1049.329	3205.7008	1471.75	579.15
1049.4317	3206.6333	1461.05	571.8
1049.5343	3207.5652	1468.1	576.05
1049.6369	3208.4964	1462.75	573.2
1049.7394	3209.4271	1460.15	572.55
1049.8419	3210.3571	1459.95	572.3
1049.9444	3211.2865	1451.35	562.2
1050.0468	3212.2154	1456.05	565.5
1050.1491	3213.1436	1446	552.95
1050.2514	3214.0712	1452.35	556.2
1050.3537	3214.9982	1444.25	553.8
1050.4559	3215.9246	1439.9	551.75
1050.5581	3216.8503	1438.45	551.85
1050.6602	3217.7755	1431.4	541.65
1050.7623	3218.7001	1427.35	538.9
1050.8643	3219.624	1434.05	543.45
1050.9663	3220.5473	1432.9	542.1
1051.0682	3221.4701	1423.3	533.7
1051.1701	3222.3922	1428.25	537.65
1051.2719	3223.3137	1416.5	526.55
1051.3737	3224.2346	1416.6	525.5
1051.4754	3225.1549	1413.35	525.5
1051.5771	3226.0746	1408.4	519.35
1051.6788	3226.9937	1407.45	516.25
1051.7804	3227.9121	1402.7	512.95
1051.8819	3228.83	1401.5	512.05
1051.9834	3229.7473	1401.05	510.25
1052.0849	3230.6639	1395.15	504.65
1052.1863	3231.5799	1394.8	504.35
1052.2876	3232.4954	1385.2	495.1
1052.3889	3233.4102	1389.05	501.1
1052.4902	3234.3244	1385.2	498.05
1052.5914	3235.238	1379.95	489.25
1052.6926	3236.151	1395.65	482.05
1052.7937	3237.0634	1371.75	481.9
1052.8948	3237.9752	1369.55	481.3
1052.9958	3238.8864	1372.25	480.6
1053.0968	3239.797	1366	476.8
1053.1977	3240.7069	1361.7	471.3
1053.2986	3241.6163	1365.6	474.55
1053.3994	3242.5251	1355.4	464.95
1053.5002	3243.4332	1357.75	468.7
1053.6009	3244.3408	1358.5	469.25
1053.7016	3245.2477	1352.05	463.15
1053.8022	3246.154	1343.65	450.8
1053.9028	3247.0598	1347.3	458.05
1054.0034	3247.9649	1334	444.9
1054.1039	3248.8694	1336.5	445.85
1054.2043	3249.7733	1339.45	450.55
1054.3047	3250.6766	1333.25	445.4
1054.4051	3251.5793	1329.75	438.05
1054.5054	3252.4814	1331.3	441.4
1054.6056	3253.3829	1323.95	433.85
1054.7058	3254.2838	1320.6	431.55
1054.806	3255.1841	1320	431.95
1054.9061	3256.0838	1310.35	422.45
1055.0061	3256.9829	1311.3	423.2
1055.1062	3257.8814	1311.3	420.15
1055.2061	3258.7792	1305.6	413.2
1055.306	3259.6765	1297.2	406.5
1055.4059	3260.5731	1289.65	400.75
1055.5057	3261.4692	1293.7	403.45
1055.6055	3262.3647	1286.45	397.5
1055.7052	3263.2595	1283.9	395.1
1055.8049	3264.1538	1268.4	381.2
1055.9045	3265.0474	1270.5	381.25
1056.0041	3265.9404	1266.5	378.2
1056.1036	3266.8329	1255.35	365.9
1056.2031	3267.7247	1263.9	364.1
1056.3025	3268.616	1246.75	356.2
1056.4019	3269.5066	1232.1	344.6
1056.5013	3270.3966	1231.85	341.7
1056.6005	3271.286	1215.2	327.15
