Software Version:	3.9.2.0
Unit SN:	10000200
Spectrometer SN:	6960
Date:	3/6/2024 9:39:51 AM
Data Line Index:	25
Spectral Points:	2048
Integration time (ms):	125
Averages:	20
Delay (ms):	30
Sequence Number:	1
Processing:	dark subtract
Laser Power (mW):	305
Laser Current (mA):	825
Laser Diode Temp (C):	25
Laser Case Temp (C):	24
System Temp (C):	23.7
Spectrometer Temp (C):	21.3
CCD Temp (C):	-0.03
Secondary Temp (C):	20.006
Heatsink Temp (C):	17.107
CCDPCB Temp (C):	30.149
SecondaryPCB Temp (C):	25.647

Wavelength	RamanShift	Raw Counts	Dark Subtracted
787.061	30.1047	481.85	74.1
787.2016	32.3739	485.55	80.35
787.3422	34.6426	492.6	86.55
787.4828	36.9109	497.95	90.6
787.6235	39.1787	503.4	91.25
787.7642	41.4461	516.75	99.8
787.9049	43.7131	525	105.95
788.0456	45.9796	533.4	110.05
788.1863	48.2456	545.05	118.95
788.3271	50.5112	548.6	119.1
788.4679	52.7764	562.5	129.4
788.6087	55.0411	575.45	138.55
788.7496	57.3054	589.2	145.35
788.8904	59.5692	601.45	159.2
789.0313	61.8326	614.9	169.3
789.1722	64.0955	626.1	177.6
789.3132	66.3579	645.8	192.75
789.4541	68.6199	669.85	211.15
789.5951	70.8815	711.3	249.75
789.7361	73.1426	789.55	324.35
789.8771	75.4032	989.05	519.65
790.0181	77.6634	1479.2	1008.45
790.1592	79.9231	2664.6	2190.7
790.3003	82.1824	5207.85	4728.45
790.4414	84.4412	9669.3	9180.9
790.5825	86.6995	15705.85	15208.65
790.7237	88.9574	21623.8	21120.55
790.8648	91.2148	25876	25369.85
791.006	93.4717	28212.6	27703.45
791.1472	95.7282	29188.8	28675.05
791.2885	97.9842	29686.05	29172.25
791.4297	100.2398	29888.7	29372.9
791.571	102.4949	29985.75	29464.25
791.7123	104.7495	30023.9	29498.85
791.8536	107.0036	30020	29493.4
791.9949	109.2573	30021.6	29496.7
792.1363	111.5105	30095.75	29567.75
792.2777	113.7632	30033.75	29504.15
792.4191	116.0154	30079.45	29536.6
792.5605	118.2672	30198	29664.4
792.7019	120.5185	30276.25	29739.7
792.8434	122.7693	30293.35	29753.1
792.9849	125.0197	30381.45	29835.7
793.1264	127.2696	30348	29799.2
793.2679	129.519	30530	29979.55
793.4094	131.7679	30575	30020.9
793.551	134.0163	30678.45	30124
793.6926	136.2642	30734.2	30175.8
793.8342	138.5117	30752.8	30191.9
793.9758	140.7587	30809.95	30246.9
794.1175	143.0052	30874.45	30307.2
794.2591	145.2512	30825.55	30257.45
794.4008	147.4967	30801.3	30231.8
794.5425	149.7417	30839.65	30267.45
794.6842	151.9863	30813.7	30240.8
794.826	154.2304	30865.55	30286.75
794.9677	156.4739	30805	30219.25
795.1095	158.717	30893.3	30308.2
795.2513	160.9596	30905.4	30316.75
795.3931	163.2017	30931.55	30339
795.535	165.4433	30958.65	30364.65
795.6768	167.6844	31006.4	30408.55
795.8187	169.925	31056.15	30457.9
795.9606	172.1651	31002.25	30399.45
796.1025	174.4047	31017.95	30411.3
796.2445	176.6439	31011.05	30402.55
796.3864	178.8825	31061.25	30450.15
796.5284	181.1206	31123	30505.5
796.6704	183.3582	31152.8	30535
796.8124	185.5954	31157.75	30538.05
796.9544	187.832	31199.7	30576.15
797.0965	190.0681	31282.25	30657
797.2386	192.3037	31370.7	30739.15
797.3806	194.5388	31406.4	30773.55
797.5228	196.7734	31512.75	30879.25
797.6649	199.0075	31598.3	30962.95
797.807	201.2411	31786.6	31152.3
797.9492	203.4742	31844.15	31203.2
798.0914	205.7068	31987.25	31341.2
798.2336	207.9389	31997.9	31354.5
798.3758	210.1704	32129.75	31499.35
798.518	212.4015	32094.6	31472.4
798.6603	214.632	32200.35	31578.9
798.8025	216.862	32250.8	31631.85
798.9448	219.0915	32278.25	31658.35
799.0871	221.3205	32323.9	31700.6
799.2294	223.549	32429.35	31807.9
799.3718	225.777	32492	31867.65
799.5141	228.0044	32545.9	31914.9
799.6565	230.2314	32659.55	32028.1
799.7989	232.4578	32610.4	31972.65
799.9413	234.6837	32641.2	31994.85
800.0837	236.909	32727	32079.3
800.2262	239.1339	32756.95	32086.05
800.3687	241.3582	32778.1	32121.75
800.5111	243.582	32811.95	32125.45
800.6536	245.8053	32865.1	32191
800.7961	248.0281	32916.8	32245.45
800.9387	250.2503	32943.3	32272.3
801.0812	252.472	32925.6	32252.3
801.2238	254.6932	33074.2	32403.3
801.3664	256.9139	32995.55	32319.25
801.509	259.134	33081.1	32401.9
801.6516	261.3536	33119	32444.1
801.7942	263.5727	33226.35	32549.8
801.9369	265.7912	33165.75	32487.3
802.0795	268.0092	33299	32618.8
802.2222	270.2267	33293.8	32614.8
802.3649	272.4436	33366	32684.95
802.5076	274.6601	33394.35	32700.05
802.6504	276.8759	33446.45	32756.75
802.7931	279.0913	33505.45	32815.9
802.9359	281.3061	33496.35	32807.5
803.0787	283.5204	33581.15	32889.25
803.2215	285.7341	33642.1	32947.1
803.3643	287.9473	33673.95	32969.3
803.5071	290.16	33728.9	33028.35
803.6499	292.3721	33715.25	33021.4
803.7928	294.5837	33685.05	32990.1
803.9357	296.7947	33681.6	32986.6
804.0786	299.0052	33655.15	32960.5
804.2215	301.2152	33584.55	32885.15
804.3644	303.4246	33654.35	32960.8
804.5074	305.6334	33603.05	32906.25
804.6503	307.8418	33619.5	32916.3
804.7933	310.0495	33595.25	32892.4
804.9363	312.2568	33534.95	32831.65
805.0793	314.4635	33421.35	32715.7
805.2223	316.6696	33400.45	32693.2
805.3653	318.8752	33295.05	32577.8
805.5084	321.0802	33266.9	32558.2
805.6514	323.2847	33287.3	32575.45
805.7945	325.4887	33223.75	32511.6
805.9376	327.692	33182.7	32468.95
806.0807	329.8949	33348.25	32633.5
806.2238	332.0972	33362.25	32645.55
806.367	334.2989	33431.45	32710.4
806.5101	336.5001	33412.85	32691.95
806.6533	338.7007	33416.85	32698
806.7965	340.9008	33452.25	32733.25
806.9397	343.1003	33397.7	32674.95
807.0829	345.2992	33303.9	32579.35
807.2261	347.4976	33304	32578.55
807.3693	349.6955	33290.75	32560.85
807.5126	351.8927	33333.45	32600.2
807.6559	354.0895	33239.5	32495.95
807.7991	356.2856	33291.9	32557.3
807.9424	358.4812	33186.55	32453.45
808.0857	360.6763	33302.45	32566.85
808.2291	362.8707	33188	32453.85
808.3724	365.0646	33282.85	32541.8
808.5158	367.258	33215.9	32473.5
808.6591	369.4508	33182.55	32434.65
808.8025	371.643	33206.25	32460
808.9459	373.8346	33125.55	32376.45
809.0893	376.0257	33157.1	32406.7
809.2327	378.2162	33100.45	32351.6
809.3762	380.4062	33129.85	32382.85
809.5196	382.5956	33050.25	32302.45
809.6631	384.7844	33081.5	32339.6
809.8066	386.9726	32972.25	32232.6
809.9501	389.1603	32906.65	32167.7
810.0936	391.3474	32884.75	32098.05
810.2371	393.5339	32836.45	32088.45
810.3806	395.7199	32756.6	32013.2
810.5241	397.9052	32765.85	32022.75
810.6677	400.09	32743.2	31999.05
810.8113	402.2743	32788.1	32040.85
810.9548	404.4579	32814.3	32065.05
811.0984	406.641	32870.5	32120.45
811.2421	408.8235	32922.35	32171.6
811.3857	411.0054	32980.8	32227.25
811.5293	413.1868	33070.3	32313.8
811.673	415.3675	33077	32314.65
811.8166	417.5477	33054.1	32294.3
811.9603	419.7273	32988.15	32221.8
812.104	421.9064	32848.15	32076.35
812.2477	424.0848	32713.65	31947.6
812.3914	426.2627	32613.5	31850.15
812.5351	428.4399	32547.1	31782.15
812.6788	430.6166	32475.65	31704.25
812.8226	432.7928	32393.35	31619.95
812.9663	434.9683	32250.9	31478.15
813.1101	437.1432	32212.7	31441.3
813.2539	439.3176	32078.45	31307.15
813.3977	441.4914	31948.85	31177.2
813.5415	443.6645	31965.3	31190.3
813.6853	445.8371	31827	31055.55
813.8291	448.0091	31740.25	30967.1
813.973	450.1806	31648.25	30874
814.1168	452.3514	31573.7	30796.35
814.2607	454.5216	31556	30772.15
814.4046	456.6913	31422.3	30642.3
814.5485	458.8603	31469.45	30691.95
814.6924	461.0288	31501.1	30724.3
814.8363	463.1967	31395.75	30618.05
814.9802	465.3639	31398.85	30618.5
815.1241	467.5306	31360.1	30581.7
815.2681	469.6967	31283.1	30501.7
815.412	471.8622	31138.45	30357.75
815.556	474.0271	31200.05	30417.7
815.7	476.1914	31170.3	30388.05
815.844	478.3551	31160.15	30379.75
815.988	480.5182	31200.65	30418.6
816.132	482.6807	31195.55	30412.45
816.276	484.8426	31232.1	30448.4
816.4201	487.0039	31262.2	30477.35
816.5641	489.1647	31264.6	30474.1
816.7082	491.3248	31379.55	30592.45
816.8522	493.4843	31348.1	30561.6
816.9963	495.6432	31340.45	30553.65
817.1404	497.8015	31253.05	30464.1
817.2845	499.9592	31230.2	30442
817.4286	502.1163	31164.15	30375.05
817.5727	504.2728	31018	30225.3
817.7168	506.4287	31074.55	30286.5
817.861	508.5839	30958.25	30165.7
818.0051	510.7386	30950.45	30158.3
818.1493	512.8927	30981.9	30181.75
818.2935	515.0461	30955.5	30161.05
818.4377	517.199	30955.6	30160.25
818.5818	519.3512	30943.15	30147.75
818.726	521.5029	30938.75	30137.85
818.8703	523.6539	30976.65	30180.2
819.0145	525.8043	30954.35	30155.8
819.1587	527.9541	30880.2	30079.7
819.303	530.1033	30783.6	29985.4
819.4472	532.2519	30719.7	29921.55
819.5915	534.3999	30681.2	29878.05
819.7357	536.5472	30661.15	29860.45
819.88	538.694	30673.85	29872.05
820.0243	540.8401	30655.25	29853.75
820.1686	542.9856	30655.6	29850.6
820.3129	545.1305	30580.9	29776.95
820.4572	547.2748	30646.35	29842.2
820.6016	549.4185	30660.15	29851.75
820.7459	551.5615	30583.1	29780.05
820.8902	553.704	30593.4	29787.6
821.0346	555.8458	30541	29738.8
821.1789	557.987	30551.5	29749.5
821.3233	560.1276	30500.3	29697.9
821.4677	562.2675	30540.1	29736.3
821.6121	564.4069	30581.15	29776.55
821.7565	566.5456	30508.85	29706.95
821.9009	568.6837	30495.2	29690.85
822.0453	570.8212	30371.15	29567.45
822.1897	572.958	30263.8	29457.65
822.3342	575.0942	30135.7	29330.35
822.4786	577.2299	30060.95	29252.8
822.6231	579.3648	29954.45	29146.75
822.7675	581.4992	29865.85	29056.95
822.912	583.6329	29758.4	28949.25
823.0565	585.766	29722.35	28913.45
823.201	587.8985	29675.5	28867.6
823.3454	590.0304	29623.55	28801.55
823.4899	592.1616	29616.05	28801
823.6345	594.2922	29518.35	28705.6
823.779	596.4222	29454.05	28640.45
823.9235	598.5515	29386.05	28572.45
824.068	600.6802	29264.7	28449.8
824.2126	602.8083	29072.8	28257.6
824.3571	604.9358	29100.5	28284.9
824.5017	607.0626	28975.3	28159.65
824.6462	609.1888	28947.2	28130.15
824.7908	611.3144	28948.8	28130.45
824.9354	613.4393	28924.35	28108.25
825.08	615.5636	28970.55	28152.95
825.2246	617.6873	28961.2	28146.45
825.3692	619.8103	28991.35	28172.85
825.5138	621.9327	28921.45	28099.25
825.6584	624.0544	28887.2	28070.15
825.803	626.1756	28836	28018.55
825.9477	628.2961	28736.95	27917.6
826.0923	630.4159	28657.05	27836.75
826.237	632.5351	28628	27806.55
826.3816	634.6537	28596.1	27775.05
826.5263	636.7716	28561.05	27738
826.6709	638.8889	28544.05	27721.4
826.8156	641.0056	28593.45	27772.25
826.9603	643.1216	28502.7	27678.45
827.105	645.237	28543.4	27719.5
827.2497	647.3518	28466.55	27644.4
827.3944	649.4659	28451	27628.75
827.5391	651.5793	28392.85	27567.15
827.6838	653.6922	28318.35	27495.35
827.8285	655.8043	28283.2	27458.85
827.9733	657.9159	28234.4	27408.55
828.118	660.0268	28199.5	27370.1
828.2627	662.137	28112.9	27288
828.4075	664.2466	28137.85	27309.5
828.5522	666.3556	28073.6	27246.95
828.697	668.4639	27990.1	27157.25
828.8418	670.5716	28035.3	27209.2
828.9865	672.6786	27951.6	27123.1
829.1313	674.785	27853.7	27022.3
829.2761	676.8907	27766.85	26935.45
829.4209	678.9958	27797.2	26968.4
829.5657	681.1002	27713.35	26882.5
829.7105	683.204	27658	26825.35
829.8553	685.3072	27659.1	26827.05
830.0001	687.4097	27527.4	26696.05
830.1449	689.5115	27548.95	26714.35
830.2898	691.6127	27547.45	26715.5
830.4346	693.7132	27508.15	26675.7
830.5794	695.8131	27482.55	26641
830.7243	697.9123	27512.35	26677
830.8691	700.0109	27461.2	26628.5
831.014	702.1089	27375.45	26542.15
831.1588	704.2061	27345.35	26511.6
831.3037	706.3028	27382.45	26544.8
831.4486	708.3987	27377.4	26539.2
831.5935	710.4941	27265.9	26432.55
831.7383	712.5887	27287	26448.65
831.8832	714.6827	27291.45	26451.05
832.0281	716.7761	27257.95	26422.05
832.173	718.8688	27232.05	26392.5
832.3179	720.9608	27158.9	26317.85
832.4628	723.0522	27213.1	26371.2
832.6077	725.1429	27094.85	26258.05
832.7527	727.233	27124.1	26284.95
832.8976	729.3224	27198.85	26359.75
833.0425	731.4112	27125.95	26287
833.1874	733.4993	27115.75	26273.45
833.3324	735.5867	27016.8	26175.95
833.4773	737.6735	26925.1	26084
833.6222	739.7596	26843.8	26000.7
833.7672	741.845	26790.3	25950.3
833.9122	743.9298	26649.3	25807.5
834.0571	746.014	26612.25	25772.95
834.2021	748.0974	26625.3	25783.75
834.347	750.1802	26500	25657.95
834.492	752.2624	26452.7	25611.8
834.637	754.3439	26348.35	25503.3
834.782	756.4247	26270.9	25418.5
834.9269	758.5048	26211.95	25370.25
835.0719	760.5843	26193.25	25346.95
835.2169	762.6631	26119.15	25277.65
835.3619	764.7413	26106.25	25264.55
835.5069	766.8188	26167.8	25322.45
835.6519	768.8956	26113.7	25269.7
835.7969	770.9718	26185.85	25343.2
835.9419	773.0473	26064.5	25220.15
836.0869	775.1221	26011.1	25165.9
836.232	777.1962	25903.25	25058.35
836.377	779.2697	25938.4	25092.75
836.522	781.3426	25929.35	25066.2
836.667	783.4147	25928.65	25082.35
836.8121	785.4862	25924.7	25081.7
836.9571	787.557	25773.25	24928.6
837.1021	789.6271	25678.8	24831.9
837.2472	791.6966	25522.05	24674.9
837.3922	793.7654	25352.55	24506.6
837.5373	795.8335	25320.45	24472.4
837.6823	797.901	25260.05	24414.2
837.8274	799.9678	25192.9	24346.45
837.9724	802.0339	25120.4	24273.15
838.1175	804.0993	25124.8	24267.35
838.2626	806.1641	25056.75	24207.8
838.4076	808.2282	24998.2	24149.75
838.5527	810.2916	24959.1	24108.7
838.6978	812.3544	24919.75	24073.5
838.8428	814.4164	24851.95	24005.75
838.9879	816.4778	24886.8	24037.45
839.133	818.5385	24797.35	23947.95
839.2781	820.5986	24825.6	23976.4
839.4232	822.658	24860.7	24010.65
839.5682	824.7166	24802.25	23952
839.7133	826.7747	24918.95	24069.6
839.8584	828.832	24918.35	24069.55
840.0035	830.8886	24861.9	24011.2
840.1486	832.9446	24841.7	23991.45
840.2937	834.9999	24786	23936.6
840.4388	837.0545	24713.75	23858.85
840.5839	839.1085	24583.05	23729.5
840.729	841.1618	24508.4	23655.3
840.8741	843.2143	24445.85	23594.95
841.0192	845.2662	24298.1	23448.45
841.1643	847.3175	24296.5	23446.55
841.3095	849.368	24258.2	23406.8
841.4546	851.4179	24207.6	23356.05
841.5997	853.467	24097.2	23246.45
841.7448	855.5155	24108.55	23255.8
841.8899	857.5633	24074.1	23220.5
842.0351	859.6105	24027.15	23173.45
842.1802	861.6569	23987.9	23136.45
842.3253	863.7027	23945.7	23091.25
842.4704	865.7478	23909.1	23055
842.6156	867.7922	23860.05	23006.75
842.7607	869.8359	23820.3	22967.25
842.9058	871.8789	23752.4	22897
843.0509	873.9212	23765.15	22879.15
843.1961	875.9629	23672.4	22819
843.3412	878.0039	23686.25	22829.75
843.4863	880.0441	23655.85	22799.4
843.6315	882.0837	23702.35	22846.45
843.7766	884.1226	23682	22826.65
843.9218	886.1609	23692.95	22838.95
844.0669	888.1984	23706.2	22850.95
844.212	890.2352	23759.75	22905.85
844.3572	892.2714	23729.7	22868.8
844.5023	894.3069	23688.65	22833.1
844.6475	896.3416	23581.15	22721.45
844.7926	898.3757	23530.8	22674.6
844.9377	900.4091	23498.85	22641.25
845.0829	902.4418	23432.25	22570.4
845.228	904.4739	23377.2	22520.3
845.3732	906.5052	23340.35	22483.8
845.5183	908.5358	23323.6	22464.85
845.6635	910.5658	23266.8	22406.05
845.8086	912.595	23213.85	22358.2
845.9538	914.6236	23136.4	22277.5
846.0989	916.6515	23064.4	22206.45
846.2441	918.6786	23016.2	22156.9
846.3892	920.7051	22984.35	22124.2
846.5344	922.7309	23039.75	22180.75
846.6795	924.756	22946.6	22087.85
846.8246	926.7804	22927.4	22066.7
846.9698	928.8041	22780.75	21918.1
847.1149	930.8272	22819.3	21960.6
847.2601	932.8495	22682.1	21820.45
847.4052	934.8711	22723.5	21863.15
847.5504	936.892	22625.65	21766.65
847.6955	938.9123	22561.95	21700.25
847.8407	940.9318	22519.65	21660.2
847.9858	942.9506	22467.65	21605.9
848.131	944.9688	22412.75	21551.85
848.2761	946.9862	22344.6	21485.55
848.4213	949.003	22207.45	21347.6
848.5664	951.019	22153.7	21294.75
848.7115	953.0344	22095.5	21233.35
848.8567	955.0491	22079.55	21217.95
849.0018	957.063	22064.05	21202.65
849.147	959.0763	22030.85	21170.25
849.2921	961.0888	21955.2	21091.5
849.4373	963.1007	21939.45	21075.3
849.5824	965.1119	21931	21069.95
849.7275	967.1223	21939.45	21079.15
849.8727	969.1321	21879	21019.9
850.0178	971.1412	21873.15	21013.9
850.1629	973.1495	21784.9	20921.7
850.3081	975.1572	21778.2	20870.85
850.4532	977.1641	21717.05	20856.95
850.5983	979.1704	21672.4	20809.3
850.7435	981.1759	21641.55	20776.25
850.8886	983.1808	21564.65	20699.35
851.0337	985.1849	21541.4	20668.7
851.1788	987.1884	21509.75	20645.1
851.324	989.1911	21471.15	20605.55
851.4691	991.1932	21414.9	20551.8
851.6142	993.1945	21360.4	20498.5
851.7593	995.1951	21259.85	20397.45
851.9045	997.1951	21249.7	20383.3
852.0496	999.1943	21149.6	20285.1
852.1947	1001.1928	21070.45	20207.25
852.3398	1003.1906	20972.35	20110.25
852.4849	1005.1877	20978.15	20111.6
852.63	1007.1841	20928.25	20062.8
852.7751	1009.1798	20843.9	19979.4
852.9202	1011.1748	20809.5	19946.85
853.0653	1013.1691	20726.95	19861.75
853.2104	1015.1627	20640.9	19775.6
853.3555	1017.1556	20517.9	19653.15
853.5006	1019.1477	20440.25	19575.95
853.6457	1021.1392	20345.95	19483.85
853.7908	1023.1299	20256.8	19392.1
853.9359	1025.12	20191.95	19326.75
854.081	1027.1093	20138.3	19275.25
854.2261	1029.0979	20112.2	19250.85
854.3712	1031.0859	20013.9	19151.75
854.5163	1033.0731	20010.3	19144.85
854.6613	1035.0596	19922.05	19057.05
854.8064	1037.0454	19848.15	18982.7
854.9515	1039.0304	19815.3	18948.6
855.0965	1041.0148	19721.4	18855.15
855.2416	1042.9985	19673.3	18805.85
855.3867	1044.9814	19647	18783.1
855.5317	1046.9636	19522.8	18655
855.6768	1048.9452	19477.95	18613.75
855.8219	1050.926	19474.1	18609
855.9669	1052.9061	19436.7	18572
856.112	1054.8855	19383.05	18516.6
856.257	1056.8642	19379.6	18512.1
856.4021	1058.8421	19350.15	18477.55
856.5471	1060.8194	19300.05	18430.35
856.6921	1062.7959	19267.45	18401.9
856.8372	1064.7717	19217.35	18350.55
856.9822	1066.7469	19204.6	18336
857.1272	1068.7213	19161.6	18291.9
857.2723	1070.695	19142.6	18276.8
857.4173	1072.6679	19075.4	18206.2
857.5623	1074.6402	19074.25	18205.5
857.7073	1076.6117	19062	18190.55
857.8523	1078.5826	19047.05	18179.1
857.9973	1080.5527	18953.1	18083.4
858.1423	1082.5221	18871.8	18002.35
858.2873	1084.4908	18832.95	17965.2
858.4323	1086.4587	18773.5	17905.1
858.5773	1088.426	18762.55	17894.15
858.7223	1090.3925	18661.5	17788.65
858.8673	1092.3584	18664.85	17798.2
859.0123	1094.3235	18608.5	17742.3
859.1573	1096.2879	18574.4	17707.8
859.3022	1098.2515	18570.15	17701.85
859.4472	1100.2145	18589.3	17722.15
859.5922	1102.1767	18553.1	17682.8
859.7371	1104.1382	18560.45	17692.25
859.8821	1106.099	18539.95	17669
860.027	1108.0591	18526.25	17657.05
860.172	1110.0185	18523.3	17652.65
860.3169	1111.9771	18564.55	17694.75
860.4619	1113.9351	18537	17667.55
860.6068	1115.8923	18541.2	17671.75
860.7517	1117.8488	18513.1	17641.85
860.8967	1119.8045	18427.15	17558.1
861.0416	1121.7596	18342.15	17473.1
861.1865	1123.7139	18169.55	17300.6
861.3314	1125.6675	18079.75	17210.6
861.4763	1127.6204	18123.4	17255.2
861.6212	1129.5726	18061.15	17189.8
861.7661	1131.524	18054.1	17184.4
861.911	1133.4748	18002.4	17132.45
862.0559	1135.4248	17910.7	17041.75
862.2008	1137.3741	17842.25	16972.95
862.3457	1139.3226	17752.8	16881.2
862.4905	1141.2705	17777.75	16908.55
862.6354	1143.2176	17687.6	16811.35
862.7803	1145.164	17680.85	16808.45
862.9251	1147.1097	17649.6	16780.4
863.07	1149.0546	17625.55	16754.05
863.2148	1150.9989	17619.35	16748.1
863.3597	1152.9424	17582.05	16710.9
863.5045	1154.8852	17532.1	16662.1
863.6493	1156.8272	17515.2	16644.75
863.7942	1158.7686	17478.6	16600.85
863.939	1160.7092	17454.6	16583.95
864.0838	1162.6491	17352.25	16478.15
864.2286	1164.5883	17340.9	16471.3
864.3734	1166.5267	17362.35	16490.9
864.5182	1168.4644	17389.55	16518.05
864.663	1170.4014	17373.3	16496.75
864.8078	1172.3377	17422.6	16551.25
864.9526	1174.2732	17437.1	16566.3
865.0974	1176.2081	17493.5	16623.05
865.2421	1178.1421	17566.65	16692.6
865.3869	1180.0755	17646.35	16776.9
865.5317	1182.0082	17638.55	16768.5
865.6764	1183.9401	17641	16769.1
865.8212	1185.8713	17497.45	16628.55
865.9659	1187.8017	17357.1	16482.35
866.1106	1189.7315	17266.55	16397.9
866.2554	1191.6605	17067.15	16194
866.4001	1193.5888	16941.5	16071.5
866.5448	1195.5163	16894	16022.75
866.6895	1197.4432	16853.15	15981.25
866.8342	1199.3693	16784.9	15913.75
866.9789	1201.2947	16721.3	15847.7
867.1236	1203.2193	16660.2	15787.65
867.2683	1205.1432	16628.75	15757.6
867.413	1207.0664	16607.25	15734.8
867.5576	1208.9889	16553.3	15677.05
867.7023	1210.9106	16517.35	15645.55
867.847	1212.8316	16414.2	15543.45
867.9916	1214.7519	16430.8	15550.7
868.1363	1216.6715	16402.55	15531.05
868.2809	1218.5903	16359	15486.15
868.4255	1220.5084	16363.1	15490.4
868.5701	1222.4257	16377.7	15505.75
868.7148	1224.3424	16312.85	15441.5
868.8594	1226.2583	16294.3	15418.55
869.004	1228.1735	16262.65	15390.9
869.1486	1230.0879	16238.5	15365.05
869.2932	1232.0016	16251.15	15378.3
869.4377	1233.9146	16242.8	15368.2
869.5823	1235.8269	16193.95	15321.2
869.7269	1237.7384	16226.55	15354.2
869.8715	1239.6492	16146.05	15276.35
870.016	1241.5592	16154.3	15281.45
870.1606	1243.4686	16144.5	15271.2
870.3051	1245.3772	16208.95	15335.95
870.4496	1247.285	16224.45	15351.5
870.5941	1249.1922	16247.9	15374
870.7387	1251.0986	16313.65	15441.55
870.8832	1253.0042	16325.35	15451.2
871.0277	1254.9092	16380.1	15506.9
871.1722	1256.8134	16461.75	15587.45
871.3167	1258.7169	16511.75	15637.05
871.4611	1260.6196	16487.6	15614.3
871.6056	1262.5216	16528.7	15653.7
871.7501	1264.4229	16472.15	15597.8
871.8945	1266.3234	16431.85	15556.7
872.039	1268.2232	16365.2	15490.6
872.1834	1270.1223	16291.95	15414.35
872.3278	1272.0207	16214.8	15340.9
872.4723	1273.9183	16202.8	15325.05
872.6167	1275.8151	16158.9	15285.2
872.7611	1277.7113	16182.2	15308.2
872.9055	1279.6067	16201.1	15327.4
873.0499	1281.5014	16329.75	15452.35
873.1943	1283.3953	16451.15	15571.25
873.3386	1285.2885	16641.7	15768.5
873.483	1287.181	16764.7	15889.4
873.6274	1289.0727	16821	15946
873.7717	1290.9637	16722.7	15845.1
873.9161	1292.854	16648.15	15772.2
874.0604	1294.7435	16479.85	15603.65
874.2047	1296.6323	16377.45	15500.8
874.349	1298.5204	16297.05	15418.85
874.4933	1300.4077	16194	15318.7
874.6376	1302.2943	16142.25	15269.2
874.7819	1304.1802	16081.75	15207.45
874.9262	1306.0653	16038.3	15163.95
875.0705	1307.9497	15998.85	15124.45
875.2147	1309.8333	15941.45	15067.25
875.359	1311.7162	15893.85	15018.75
875.5032	1313.5984	15839.3	14959.1
875.6475	1315.4798	15795.9	14912.15
875.7917	1317.3605	15772.55	14893.55
875.9359	1319.2405	15756.3	14879.1
876.0801	1321.1197	15685	14809.1
876.2243	1322.9982	15622.3	14743.35
876.3685	1324.876	15560.9	14687.6
876.5127	1326.753	15440.95	14565.65
876.6569	1328.6293	15392.7	14514
876.801	1330.5048	15291	14414.45
876.9452	1332.3796	15217	14343.15
877.0893	1334.2537	15164.5	14263.55
877.2335	1336.127	15067.3	14191.45
877.3776	1337.9996	15026.65	14150.05
877.5217	1339.8714	14978.8	14102.4
877.6658	1341.7426	14973.9	14053.65
877.8099	1343.6129	14916.55	14041.4
877.954	1345.4826	14863.15	13987.2
878.0981	1347.3515	14857.75	13979.3
878.2422	1349.2196	14814.35	13938.45
878.3862	1351.087	14782.35	13905.85
878.5303	1352.9537	14783.6	13907.5
878.6743	1354.8197	14778.6	13903.1
878.8184	1356.6849	14791	13915.95
878.9624	1358.5493	14775.8	13900.9
879.1064	1360.4131	14756.2	13880.5
879.2504	1362.276	14758.35	13883
879.3944	1364.1383	14740.7	13863.8
879.5384	1365.9998	14739.3	13858.75
879.6823	1367.8606	14679.8	13801.95
879.8263	1369.7206	14668.8	13792.35
879.9702	1371.5799	14622.35	13743.75
880.1142	1373.4384	14595.3	13721.15
880.2581	1375.2962	14559.75	13682.4
880.402	1377.1533	14433.65	13559.2
880.5459	1379.0096	14325.25	13449.8
880.6898	1380.8652	14264.85	13388.65
880.8337	1382.7201	14212.2	13336.7
880.9776	1384.5742	14136.35	13259.85
881.1215	1386.4275	14067.8	13190.95
881.2653	1388.2802	14011.05	13137.85
881.4092	1390.132	13935.9	13059.2
881.553	1391.9832	13932.4	13055.55
881.6968	1393.8336	13878.3	13002.1
881.8406	1395.6832	13836.7	12958.55
881.9844	1397.5322	13801.85	12926.1
882.1282	1399.3803	13768.75	12888.2
882.272	1401.2278	13675.2	12800.3
882.4158	1403.0745	13660.55	12783.85
882.5595	1404.9204	13589.95	12716.35
882.7033	1406.7656	13579.05	12702.65
882.847	1408.6101	13510.35	12632.9
882.9908	1410.4538	13463.7	12586.75
883.1345	1412.2968	13454	12576.6
883.2782	1414.139	13373.5	12497.1
883.4219	1415.9805	13342.35	12466.2
883.5656	1417.8213	13339.3	12441.6
883.7092	1419.6613	13285.85	12410.5
883.8529	1421.5006	13312.75	12433.5
883.9965	1423.3391	13265.5	12389.6
884.1402	1425.1769	13279.5	12401.15
884.2838	1427.0139	13353.75	12476.85
884.4274	1428.8502	13370.95	12493.55
884.571	1430.6858	13432.95	12555.75
884.7146	1432.5206	13391.4	12516.25
884.8582	1434.3547	13422.85	12546.05
885.0018	1436.188	13393.15	12516.2
885.1453	1438.0206	13378	12501.35
885.2889	1439.8524	13324.25	12448.35
885.4324	1441.6835	13288.55	12411.5
885.5759	1443.5139	13252	12371.75
885.7194	1445.3435	13221.7	12344.8
885.8629	1447.1724	13260.15	12385.4
886.0064	1449.0005	13239.7	12362.25
886.1499	1450.8279	13180.85	12303
886.2933	1452.6545	13174.65	12297.45
886.4368	1454.4804	13168	12293.35
886.5802	1456.3056	13126.9	12243.45
886.7237	1458.13	13078.5	12203.3
886.8671	1459.9536	13075.35	12199.25
887.0105	1461.7766	13006.55	12129.65
887.1539	1463.5987	12947.15	12066.35
887.2972	1465.4202	12863.1	11983.15
887.4406	1467.2409	12804.9	11929.7
887.584	1469.0608	12769.35	11890.85
887.7273	1470.88	12706	11828.55
887.8706	1472.6984	12654.4	11778.5
888.0139	1474.5161	12615.65	11736
888.1572	1476.3331	12578.25	11701.2
888.3005	1478.1493	12555.85	11678.35
888.4438	1479.9648	12539.5	11663.65
888.5871	1481.7795	12518.45	11639.25
888.7303	1483.5935	12525	11647.55
888.8736	1485.4067	12470.9	11594.3
889.0168	1487.2192	12457.8	11582.1
889.16	1489.031	12462.1	11582.75
889.3032	1490.842	12418.45	11541.9
889.4464	1492.6522	12411.1	11534.5
889.5896	1494.4618	12386.1	11510
889.7327	1496.2705	12362.95	11485.65
889.8759	1498.0785	12343.95	11466.8
890.019	1499.8858	12301.05	11421.3
890.1622	1501.6924	12246.2	11370.7
890.3053	1503.4981	12235.4	11359.4
890.4484	1505.3032	12214.85	11338.6
890.5914	1507.1075	12197.8	11320.8
890.7345	1508.911	12165.7	11289.85
890.8776	1510.7138	12126.95	11248.4
891.0206	1512.5159	12088.85	11210.6
891.1637	1514.3172	12047.8	11170
891.3067	1516.1178	12015.95	11140.1
891.4497	1517.9176	12013.55	11131.3
891.5927	1519.7166	11942.65	11067.65
891.7357	1521.515	11934.95	11051.1
891.8786	1523.3126	11898.2	11021.5
892.0216	1525.1094	11838.2	10959.7
892.1645	1526.9055	11778.8	10902.2
892.3074	1528.7008	11750.2	10871.75
892.4503	1530.4954	11702.25	10822.15
892.5932	1532.2893	11690.55	10814.7
892.7361	1534.0824	11621.85	10740.5
892.879	1535.8747	11614.5	10738.65
893.0218	1537.6663	11557.85	10677.45
893.1647	1539.4572	11517.55	10639.3
893.3075	1541.2473	11482.8	10606.15
893.4503	1543.0367	11447.85	10570.15
893.5931	1544.8253	11436.6	10554.6
893.7359	1546.6132	11432.7	10551.95
893.8787	1548.4003	11368.6	10481.3
894.0214	1550.1867	11360.6	10477.55
894.1642	1551.9723	11342	10460.8
894.3069	1553.7572	11332.05	10453.25
894.4496	1555.5414	11320.15	10442.8
894.5923	1557.3247	11302.5	10423.5
894.735	1559.1074	11311.5	10436.6
894.8777	1560.8893	11316.2	10441.3
895.0204	1562.6705	11299.45	10422.8
895.163	1564.4509	11313.3	10436.2
895.3056	1566.2305	11279.35	10402.5
895.4482	1568.0094	11296.5	10421.25
895.5908	1569.7876	11246.9	10369.7
895.7334	1571.565	11232.35	10353.9
895.876	1573.3417	11225.6	10350.05
896.0186	1575.1176	11181.9	10303.6
896.1611	1576.8928	11193.8	10316.5
896.3036	1578.6672	11169.4	10294.35
896.4461	1580.4409	11150.9	10276.25
896.5886	1582.2138	11140.55	10263
896.7311	1583.986	11158.25	10283.45
896.8736	1585.7575	11176.1	10299.5
897.0161	1587.5282	11164.65	10291
897.1585	1589.2981	11162.95	10287.5
897.3009	1591.0673	11126.7	10251
897.4433	1592.8358	11146.8	10271.55
897.5857	1594.6035	11109.65	10229.75
897.7281	1596.3704	11078.7	10201.95
897.8705	1598.1366	11032.2	10154.65
898.0128	1599.9021	10972.9	10097.1
898.1551	1601.6668	10889.9	10012.35
898.2975	1603.4308	10868.45	9991.2
898.4398	1605.194	10832.25	9951.35
898.5821	1606.9564	10816.85	9939.8
898.7243	1608.7182	10853.9	9973.7
898.8666	1610.4791	10908	10031.4
899.0088	1612.2394	10995.1	10118.6
899.1511	1613.9988	11016.05	10140.05
899.2933	1615.7576	11093.1	10220.4
899.4355	1617.5156	11141.25	10259.4
899.5776	1619.2728	11103.65	10226.85
899.7198	1621.0293	10981.2	10105.85
899.862	1622.785	10854.3	9972.7
900.0041	1624.54	10673.9	9795.45
900.1462	1626.2942	10570.5	9692.3
900.2883	1628.0477	10369.1	9489.25
900.4304	1629.8005	10257.7	9376.35
900.5725	1631.5525	10199.15	9322.05
900.7145	1633.3037	10101	9225.7
900.8566	1635.0542	10057.4	9179.9
900.9986	1636.804	9959.75	9082.6
901.1406	1638.553	9965.05	9006.9
901.2826	1640.3013	9886.95	9010.85
901.4245	1642.0488	9806.45	8928.4
901.5665	1643.7955	9759.05	8881.35
901.7085	1645.5416	9731.85	8855
901.8504	1647.2868	9727	8849.6
901.9923	1649.0313	9657.65	8781.4
902.1342	1650.7751	9630.5	8751.9
902.2761	1652.5181	9620.35	8746.4
902.4179	1654.2604	9566.6	8691.7
902.5598	1656.0019	9558.05	8682.75
902.7016	1657.7427	9568.1	8690.4
902.8434	1659.4828	9561.85	8685.85
902.9852	1661.222	9596.25	8717.35
903.127	1662.9606	9533.2	8657.3
903.2687	1664.6984	9558.5	8680.8
903.4105	1666.4354	9548.55	8670.1
903.5522	1668.1717	9510.75	8634.8
903.6939	1669.9072	9434.4	8559.55
903.8356	1671.642	9376.4	8497.95
903.9773	1673.3761	9305.95	8429.8
904.119	1675.1094	9245.6	8367.35
904.2606	1676.8419	9172	8295.3
904.4022	1678.5737	9146.7	8270.5
904.5439	1680.3048	9077.5	8200.6
904.6855	1682.0351	9058.9	8182.3
904.827	1683.7646	9017	8138.05
904.9686	1685.4934	8946.9	8071.6
905.1101	1687.2215	8930	8055.05
905.2517	1688.9488	8898	8023.2
905.3932	1690.6754	8839.25	7963.35
905.5347	1692.4012	8847.1	7969.9
905.6761	1694.1263	8816.3	7939.65
905.8176	1695.8506	8771.6	7892.5
905.9591	1697.5742	8734.4	7856.8
906.1005	1699.297	8686.4	7808.4
906.2419	1701.0191	8680.05	7805.15
906.3833	1702.7404	8650.45	7775.45
906.5246	1704.461	8585.3	7709.15
906.666	1706.1808	8560.4	7683.3
906.8073	1707.8999	8548.65	7670.9
906.9487	1709.6182	8518.65	7642.35
907.09	1711.3358	8496.9	7619.95
907.2313	1713.0527	8469.3	7593.95
907.3725	1714.7688	8451.95	7567.4
907.5138	1716.4841	8411.25	7533.4
907.655	1718.1987	8413.35	7531.4
907.7962	1719.9126	8392.75	7515.95
907.9374	1721.6257	8348	7468.45
908.0786	1723.338	8342.65	7466.2
908.2198	1725.0496	8277	7399.4
908.3609	1726.7605	8276.05	7401.1
908.502	1728.4706	8257.15	7379.15
908.6431	1730.18	8232.15	7356.3
908.7842	1731.8886	8205.45	7329.1
908.9253	1733.5964	8215.85	7319.5
909.0664	1735.3036	8193.35	7314.85
909.2074	1737.0099	8179.9	7303.8
909.3484	1738.7156	8169.2	7293.25
909.4894	1740.4204	8160.25	7279.45
909.6304	1742.1246	8143.7	7266.8
909.7714	1743.8279	8126.15	7251.15
909.9123	1745.5306	8130.3	7253.5
910.0532	1747.2325	8071.6	7194.7
910.1941	1748.9336	8039.05	7163.9
910.335	1750.634	8032.55	7155.8
910.4759	1752.3336	8037.1	7160.9
910.6168	1754.0325	8036.75	7162.5
910.7576	1755.7307	8009.2	7133.9
910.8984	1757.4281	8015.35	7139.25
911.0392	1759.1247	8003.9	7117.95
911.18	1760.8206	7976.6	7095.65
911.3208	1762.5158	7975.1	7092.9
911.4615	1764.2102	7954.75	7078.9
911.6022	1765.9039	7911.95	7033.85
911.7429	1767.5968	7905.45	7031.3
911.8836	1769.289	7871.25	6996.25
912.0243	1770.9804	7874.35	6996.9
912.1649	1772.6711	7868.6	6990.25
912.3056	1774.361	7846.8	6968.5
912.4462	1776.0502	7833.2	6956.45
912.5868	1777.7386	7824.85	6946.75
912.7274	1779.4263	7809.4	6932.25
912.8679	1781.1132	7800.85	6925.9
913.0084	1782.7994	7740.45	6862.3
913.149	1784.4849	7745.5	6868.4
913.2895	1786.1696	7735.4	6840.2
913.4299	1787.8535	7704.45	6827.3
913.5704	1789.5367	7693.8	6817
913.7108	1791.2192	7658.45	6780.65
913.8513	1792.9009	7661.4	6766.4
913.9917	1794.5818	7637.45	6761.5
914.132	1796.2621	7609.8	6734.35
914.2724	1797.9415	7614.5	6737.65
914.4128	1799.6202	7568.95	6692.35
914.5531	1801.2982	7578.8	6703.5
914.6934	1802.9755	7565.65	6688.1
914.8337	1804.6519	7549.65	6673.25
914.9739	1806.3277	7513.65	6636.75
915.1142	1808.0027	7495.15	6618.8
915.2544	1809.6769	7493	6616.4
915.3946	1811.3504	7468.35	6591.75
915.5348	1813.0231	7447.55	6572.15
915.675	1814.6951	7436.45	6558.25
915.8151	1816.3664	7453.75	6575.15
915.9553	1818.0369	7415	6537.95
916.0954	1819.7067	7379	6503.05
916.2355	1821.3757	7390.55	6512.8
916.3755	1823.044	7373.25	6497.35
916.5156	1824.7115	7355.3	6479.25
916.6556	1826.3783	7326.95	6452.45
916.7956	1828.0443	7311.45	6435.1
916.9356	1829.7096	7301.5	6422.85
917.0756	1831.3741	7298.75	6418.6
917.2155	1833.0379	7286.7	6410.65
917.3555	1834.701	7256.75	6377.6
917.4954	1836.3633	7240.7	6366.05
917.6353	1838.0248	7231.9	6353.45
917.7751	1839.6856	7209.95	6332.6
917.915	1841.3457	7205.3	6330.1
918.0548	1843.005	7190.65	6313.9
918.1946	1844.6636	7187.1	6313.5
918.3344	1846.3214	7169	6292.3
918.4742	1847.9785	7152.9	6276.45
918.6139	1849.6349	7136.8	6259.5
918.7537	1851.2904	7119.8	6232.9
918.8934	1852.9453	7105.2	6229.4
919.0331	1854.5994	7096.55	6219.15
919.1727	1856.2528	7105.9	6222.9
919.3124	1857.9054	7085.55	6208.5
919.452	1859.5572	7074.8	6198.7
919.5916	1861.2083	7035.75	6157.75
919.7312	1862.8587	7061.9	6185.8
919.8708	1864.5084	7022.8	6145.45
920.0103	1866.1572	7001.95	6124.5
920.1498	1867.8054	6985.35	6108.3
920.2893	1869.4528	6954.6	6077.75
920.4288	1871.0994	6943.75	6066
920.5683	1872.7453	6917.8	6041.1
920.7077	1874.3905	6921.4	6037.65
920.8471	1876.0349	6903.7	6028
920.9865	1877.6786	6889.75	6011.4
921.1259	1879.3215	6894.25	6017.55
921.2653	1880.9637	6876.05	5996.5
921.4046	1882.6051	6875	5999.1
921.5439	1884.2458	6865.7	5987.5
921.6832	1885.8858	6846.55	5968.45
921.8225	1887.525	6810.9	5933.85
921.9617	1889.1634	6790.45	5914.2
922.101	1890.8011	6785.7	5907.4
922.2402	1892.4381	6783.35	5907.15
922.3794	1894.0743	6789.9	5914.25
922.5185	1895.7098	6766.3	5891.25
922.6577	1897.3446	6749.5	5870.9
922.7968	1898.9786	6712.75	5831.1
922.9359	1900.6118	6700.45	5826
923.075	1902.2443	6684.55	5806.1
923.214	1903.8761	6684.4	5808.4
923.3531	1905.5071	6630.65	5752.2
923.4921	1907.1374	6636.5	5758.25
923.6311	1908.7669	6625.4	5748.55
923.77	1910.3957	6602.85	5727.85
923.909	1912.0237	6565.35	5689.85
924.0479	1913.651	6577.6	5702.2
924.1868	1915.2776	6548.95	5674.9
924.3257	1916.9034	6535.05	5658.1
924.4646	1918.5285	6517.4	5640.65
924.6034	1920.1528	6474.15	5596.8
924.7422	1921.7764	6485.85	5609.9
924.881	1923.3992	6457.6	5579.6
925.0198	1925.0213	6420.65	5543.7
925.1586	1926.6427	6398.65	5523.6
925.2973	1928.2633	6542.15	5447.8
925.436	1929.8832	6406.95	5528.75
925.5747	1931.5023	6345.95	5469.5
925.7134	1933.1207	6318.5	5442.25
925.852	1934.7383	6334.7	5456.7
925.9906	1936.3552	6309.25	5433.65
926.1292	1937.9714	6292.9	5414.2
926.2678	1939.5868	6279.65	5400.25
926.4064	1941.2015	6262.8	5384.3
926.5449	1942.8154	6237.3	5360
926.6834	1944.4286	6184.35	5308.4
926.8219	1946.041	6196.6	5297.65
926.9604	1947.6528	6174.25	5293.95
927.0988	1949.2637	6158.7	5283.2
927.2372	1950.8739	6140.35	5261.85
927.3756	1952.4834	6125.1	5247.3
927.514	1954.0921	6122.05	5243.4
927.6523	1955.7001	6103.2	5221.35
927.7907	1957.3074	6097.85	5222.6
927.929	1958.9139	6079.3	5203.6
928.0673	1960.5197	6053	5175
928.2055	1962.1247	6002.8	5127
928.3438	1963.729	6027.95	5153
928.482	1965.3325	6013.75	5114
928.6202	1966.9353	5991.4	5116.85
928.7584	1968.5374	5980.15	5101.8
928.8965	1970.1387	5954.65	5077.7
929.0346	1971.7393	5939.25	5062.4
929.1727	1973.3392	5905.4	5029.35
929.3108	1974.9383	5909.8	5032.4
929.4489	1976.5366	5884.45	5008.45
929.5869	1978.1342	5877.7	5001.3
929.7249	1979.7311	5889.35	5011.4
929.8629	1981.3273	5864.35	4988.15
930.0009	1982.9227	5844.35	4966
930.1388	1984.5173	5840.3	4964.7
930.2767	1986.1112	5804.5	4927.95
930.4146	1987.7044	5799.3	4923.35
930.5525	1989.2968	5792.15	4913.55
930.6904	1990.8885	5790.45	4910.8
930.8282	1992.4795	5770.45	4892.15
930.966	1994.0697	5752.2	4876.95
931.1038	1995.6592	5718.95	4842.95
931.2415	1997.2479	5719.85	4844.6
931.3793	1998.8359	5721.8	4845.55
931.517	2000.4232	5705.05	4830.45
931.6547	2002.0097	5673.35	4800.5
931.7923	2003.5955	5676.7	4799.7
931.93	2005.1805	5652.05	4773.75
932.0676	2006.7648	5636.75	4762.25
932.2052	2008.3484	5629.2	4752.95
932.3427	2009.9312	5630	4753.65
932.4803	2011.5133	5601.3	4726.4
932.6178	2013.0946	5594	4719.45
932.7553	2014.6752	5591.35	4716.55
932.8928	2016.2551	5570.95	4693.05
933.0302	2017.8342	5556.1	4681.8
933.1676	2019.4126	5526.45	4649.95
933.305	2020.9902	5526.8	4652.75
933.4424	2022.5672	5509.7	4633.3
933.5798	2024.1433	5522.2	4641.45
933.7171	2025.7188	5479.25	4604.05
933.8544	2027.2935	5489	4611.15
933.9917	2028.8674	5453.25	4576.95
934.129	2030.4406	5447.05	4572.05
934.2662	2032.0131	5426.1	4552.45
934.4034	2033.5849	5414.9	4535.7
934.5406	2035.1559	5410.2	4534.65
934.6778	2036.7261	5429.05	4554.65
934.8149	2038.2957	5396.5	4521.7
934.952	2039.8645	5402.3	4526.55
935.0891	2041.4325	5388.75	4510.15
935.2262	2042.9998	5356.9	4481.3
935.3632	2044.5664	5363.55	4486.05
935.5002	2046.1323	5351	4475.6
935.6372	2047.6974	5349.8	4475.45
935.7742	2049.2617	5318.65	4444.15
935.9111	2050.8254	5338.2	4441.8
936.048	2052.3883	5335.25	4461.9
936.1849	2053.9504	5319.4	4444.15
936.3218	2055.5118	5310.9	4432.2
936.4586	2057.0725	5294.5	4414.25
936.5955	2058.6325	5290	4412.5
936.7323	2060.1917	5278.05	4401.85
936.869	2061.7502	5250.45	4371.35
937.0058	2063.3079	5242.75	4367.1
937.1425	2064.8649	5228.55	4349.9
937.2792	2066.4212	5213.75	4336.85
937.4159	2067.9767	5205.2	4331
937.5525	2069.5315	5194.55	4320.65
937.6891	2071.0856	5180.8	4303.85
937.8257	2072.6389	5164.9	4288
937.9623	2074.1915	5130	4255.35
938.0989	2075.7433	5134.7	4257.4
938.2354	2077.2945	5122.7	4248.35
938.3719	2078.8448	5126.15	4250
938.5084	2080.3945	5088.45	4215.6
938.6448	2081.9434	5101.15	4226.3
938.7812	2083.4916	5088.95	4212.65
938.9176	2085.039	5067.65	4189.95
939.054	2086.5857	5062.95	4186.7
939.1903	2088.1317	5055.9	4180.65
939.3267	2089.677	5043.6	4166.15
939.463	2091.2215	5026.95	4151.15
939.5992	2092.7652	5022.5	4147.3
939.7355	2094.3083	5025	4148.1
939.8717	2095.8506	5006.6	4132.55
940.0079	2097.3921	5021.85	4144.15
940.1441	2098.933	4995.35	4118.8
940.2802	2100.4731	5011.95	4137.35
940.4163	2102.0124	5003.2	4109.55
940.5524	2103.5511	4968.75	4094.65
940.6885	2105.089	4998.5	4122.85
940.8245	2106.6261	4979.65	4102.15
940.9606	2108.1626	4951.05	4071.45
941.0965	2109.6983	4950.9	4047.95
941.2325	2111.2332	4921.3	4046.05
941.3684	2112.7675	4944.15	4067.1
941.5044	2114.301	4914.2	4035.35
941.6403	2115.8337	4921.8	4046.15
941.7761	2117.3657	4910.05	4033.85
941.912	2118.897	4907.4	4031.2
942.0478	2120.4276	4897.7	4016.55
942.1835	2121.9575	4876.5	3997.65
942.3193	2123.4866	4878.7	3999.75
942.455	2125.0149	4878.25	4000.85
942.5907	2126.5426	4837.8	3961.45
942.7264	2128.0695	4848.45	3968.6
942.8621	2129.5956	4827	3952.35
942.9977	2131.1211	4823.5	3945.4
943.1333	2132.6458	4795.6	3921
943.2689	2134.1698	4802.8	3927.35
943.4044	2135.693	4794.6	3915.9
943.54	2137.2155	4798.2	3920.4
943.6755	2138.7373	4779.1	3901.25
943.8109	2140.2584	4767.55	3892.9
943.9464	2141.7787	4758.2	3876.2
944.0818	2143.2983	4750.6	3875.1
944.2172	2144.8171	4713.3	3838.85
944.3526	2146.3353	4724.55	3848.6
944.4879	2147.8527	4704.2	3830
944.6232	2149.3693	4699.05	3821.15
944.7585	2150.8853	4695.35	3818.7
944.8938	2152.4005	4676.3	3800
945.029	2153.9149	4660.1	3784.7
945.1642	2155.4287	4641.5	3765.8
945.2994	2156.9417	4649.65	3772.3
945.4346	2158.454	4629.25	3750.45
945.5697	2159.9655	4624	3748.9
945.7048	2161.4764	4620.7	3743.95
945.8399	2162.9865	4616.8	3741.3
945.9749	2164.4958	4598.55	3722.45
946.1099	2166.0045	4594	3716.55
946.2449	2167.5124	4589.1	3714.7
946.3799	2169.0195	4596.15	3720.9
946.5148	2170.526	4568.75	3694.75
946.6498	2172.0317	4551.8	3675.7
946.7846	2173.5367	4555.8	3678.15
946.9195	2175.0409	4537.9	3661.15
947.0543	2176.5445	4542.15	3667.25
947.1891	2178.0473	4515.8	3642.25
947.3239	2179.5494	4499.2	3620.35
947.4587	2181.0507	4487	3611.05
947.5934	2182.5513	4476.5	3599.9
947.7281	2184.0512	4467.95	3590.85
947.8628	2185.5504	4459.85	3584.9
947.9974	2187.0488	4443.05	3565.5
948.132	2188.5465	4443.8	3568.45
948.2666	2190.0435	4436.1	3557.85
948.4012	2191.5397	4415.45	3540.25
948.5357	2193.0353	4416.75	3540.85
948.6702	2194.5301	4383.95	3507.9
948.8047	2196.0241	4385.1	3509.2
948.9392	2197.5175	4376.5	3501.25
949.0736	2199.0101	4344.75	3466.5
949.208	2200.502	4332	3455.95
949.3424	2201.9931	4312.7	3436.5
949.4767	2203.4835	4310.6	3434.3
949.611	2204.9733	4312.75	3429.95
949.7453	2206.4622	4307.6	3431.4
949.8796	2207.9505	4299.7	3421.75
950.0138	2209.438	4280.7	3404.1
950.148	2210.9248	4266.7	3390.35
950.2822	2212.4109	4263.8	3389.1
950.4164	2213.8962	4244.95	3367.2
950.5505	2215.3809	4244.35	3368.3
950.6846	2216.8648	4233.9	3357.4
950.8186	2218.3479	4230.65	3350.7
950.9527	2219.8304	4206.15	3326.9
951.0867	2221.3121	4192	3315.25
951.2207	2222.7931	4176.6	3298.45
951.3546	2224.2733	4160.95	3284.95
951.4886	2225.7529	4165.75	3287.3
951.6225	2227.2317	4148.4	3270.2
951.7563	2228.7098	4139.45	3261.5
951.8902	2230.1872	4128.55	3253.25
952.024	2231.6638	4116.85	3239.55
952.1578	2233.1397	4104.95	3223.25
952.2916	2234.6149	4094.8	3220.45
952.4253	2236.0894	4079.9	3203.35
952.559	2237.5632	4089.8	3203.15
952.6927	2239.0362	4072.45	3196.05
952.8263	2240.5085	4066.45	3190.9
952.9599	2241.9801	4044.5	3167.65
953.0935	2243.4509	4041.75	3163.65
953.2271	2244.921	4031.9	3154.6
953.3606	2246.3904	4023.6	3146.45
953.4941	2247.8591	4015.9	3141.65
953.6276	2249.3271	4005.85	3129.7
953.7611	2250.7943	3984.75	3109.15
953.8945	2252.2608	3987.6	3113.85
954.0279	2253.7266	3979.5	3104.15
954.1612	2255.1917	3966.95	3091.1
954.2946	2256.656	3957.15	3080.3
954.4279	2258.1197	3942.4	3066.65
954.5612	2259.5826	3925.75	3048.65
954.6944	2261.0447	3927.2	3050.6
954.8276	2262.5062	3908.05	3029.25
954.9608	2263.9669	3901.9	3024.95
955.094	2265.4269	3912	3037.35
955.2271	2266.8862	3896.95	3020.35
955.3602	2268.3448	3887.85	3010.65
955.4933	2269.8026	3881	3004.2
955.6264	2271.2598	3856	2979.75
955.7594	2272.7162	3867.25	2992.1
955.8924	2274.1719	3843.75	2968.05
956.0253	2275.6268	3841.4	2964.3
956.1583	2277.0811	3849.5	2973.15
956.2912	2278.5346	3826.45	2951.95
956.4241	2279.9874	3811.95	2937.4
956.5569	2281.4395	3815.9	2942.5
956.6897	2282.8908	3803.2	2923.75
956.8225	2284.3414	3782.1	2903.05
956.9553	2285.7914	3794.15	2919.75
957.088	2287.2406	3774.25	2896.3
957.2207	2288.689	3771.3	2895.85
957.3534	2290.1368	3770.05	2894.15
957.486	2291.5838	3750.1	2874.05
957.6186	2293.0302	3736.55	2857.4
957.7512	2294.4758	3724	2849.3
957.8838	2295.9206	3711.4	2833.75
958.0163	2297.3648	3721.4	2845.2
958.1488	2298.8082	3712.75	2837.55
958.2813	2300.251	3686.35	2810.7
958.4137	2301.693	3695.2	2818.55
958.5461	2303.1343	3702.5	2825.15
958.6785	2304.5748	3656.95	2781.1
958.8108	2306.0147	3670.7	2793.95
958.9432	2307.4538	3661.6	2783.4
959.0754	2308.8922	3638.5	2766.2
959.2077	2310.3299	3629.15	2754.5
959.3399	2311.7669	3614.15	2738.55
959.4721	2313.2031	3629.05	2754.3
959.6043	2314.6387	3611.5	2732.3
959.7365	2316.0735	3585.45	2708.05
959.8686	2317.5076	3591.75	2716.1
960.0006	2318.941	3589.05	2714.7
960.1327	2320.3737	3571.8	2695.75
960.2647	2321.8056	3562.1	2685.4
960.3967	2323.2369	3553.15	2675.6
960.5287	2324.6674	3548.7	2671.6
960.6606	2326.0972	3544.55	2665.45
960.7925	2327.5263	3546.9	2670.5
960.9244	2328.9547	3526.9	2650.95
961.0562	2330.3823	3506.8	2628.8
961.1881	2331.8092	3511	2632.4
961.3198	2333.2355	3505.75	2630.3
961.4516	2334.661	3507	2629.75
961.5833	2336.0858	3488.4	2611.2
961.715	2337.5098	3470.7	2594.55
961.8467	2338.9332	3476.4	2600.4
961.9783	2340.3558	3470.8	2590.3
962.1099	2341.7778	3458.85	2584.15
962.2415	2343.199	3446	2569.7
962.373	2344.6195	3435.6	2559.95
962.5045	2346.0393	3429.8	2553.95
962.636	2347.4583	3420.05	2544.45
962.7675	2348.8767	3406.4	2530.65
962.8989	2350.2943	3413.8	2535
963.0303	2351.7113	3398.95	2520.15
963.1617	2353.1275	3386.15	2508.85
963.293	2354.543	3395.05	2511.05
963.4243	2355.9578	3388.25	2512.2
963.5556	2357.3718	3359.1	2483.2
963.6868	2358.7852	3351.55	2471.65
963.818	2360.1978	3348.25	2471.75
963.9492	2361.6098	3337.9	2461.35
964.0803	2363.021	3318.8	2437.1
964.2114	2364.4315	3320.45	2444.15
964.3425	2365.8413	3315.65	2434
964.4736	2367.2504	3305.8	2430.7
964.6046	2368.6587	3274.2	2396.8
964.7356	2370.0664	3284.6	2410.65
964.8666	2371.4733	3278.75	2403.9
964.9975	2372.8795	3272.4	2396
965.1284	2374.285	3247	2368.95
965.2593	2375.6899	3249.3	2374
965.3901	2377.0939	3239.2	2363.6
965.5209	2378.4973	3227	2349.8
965.6517	2379.9	3218.4	2339.75
965.7825	2381.3019	3200.05	2323.45
965.9132	2382.7032	3208.25	2334.25
966.0439	2384.1037	3187.6	2314.85
966.1745	2385.5035	3196.95	2322.25
966.3051	2386.9027	3171.55	2296
966.4357	2388.3011	3170.65	2292.2
966.5663	2389.6987	3174.65	2297
966.6968	2391.0957	3160.95	2283.3
966.8273	2392.492	3137.6	2260.05
966.9578	2393.8876	3140.9	2262.2
967.0882	2395.2824	3136.5	2260.9
967.2186	2396.6765	3115.05	2241.15
967.349	2398.07	3105.55	2227.45
967.4793	2399.4627	3107.45	2229.3
967.6097	2400.8547	3092.7	2215.9
967.7399	2402.246	3084.2	2199.4
967.8702	2403.6366	3063.2	2186.5
968.0004	2405.0265	3063.15	2187
968.1306	2406.4156	3053.7	2173.45
968.2607	2407.8041	3048.1	2169.85
968.3909	2409.1918	3039.3	2162.05
968.521	2410.5789	3028.4	2152.85
968.651	2411.9652	3020.6	2140.45
968.781	2413.3508	3005.05	2128.3
968.911	2414.7358	2994.7	2115.65
969.041	2416.12	2984	2106.15
969.1709	2417.5035	2988.45	2111.25
969.3008	2418.8863	2989.8	2111.9
969.4307	2420.2684	2965.6	2089.3
969.5606	2421.6497	2947.5	2070.85
969.6904	2423.0304	2939.35	2062.2
969.8201	2424.4104	2931	2054.45
969.9499	2425.7896	2925.4	2046.1
970.0796	2427.1682	2926.95	2050.3
970.2093	2428.546	2922.7	2046.55
970.3389	2429.9232	2914.75	2036.9
970.4685	2431.2996	2905.95	2030.6
970.5981	2432.6753	2896.45	2018.65
970.7277	2434.0503	2902.65	2027.75
970.8572	2435.4246	2886	2008.3
970.9867	2436.7982	2884.9	2004.85
971.1161	2438.1711	2879.5	2002.8
971.2456	2439.5433	2874.9	1999.3
971.375	2440.9148	2856.45	1974.5
971.5043	2442.2856	2847.65	1973.25
971.6336	2443.6557	2846.5	1968.9
971.7629	2445.025	2847.4	1970.15
971.8922	2446.3937	2834.9	1958.2
972.0214	2447.7617	2832.15	1954.35
972.1506	2449.1289	2829.8	1954.1
972.2798	2450.4955	2817.8	1939.15
972.4089	2451.8613	2801.05	1924.65
972.538	2453.2265	2802.3	1924.45
972.6671	2454.5909	2803.95	1927
972.7961	2455.9546	2791.95	1914.45
972.9251	2457.3177	2782.2	1905.55
973.0541	2458.68	2783.1	1905.9
973.1831	2460.0416	2779.4	1902.1
973.312	2461.4025	2777.95	1899.85
973.4408	2462.7627	2766	1877.95
973.5697	2464.1222	2762.85	1887.35
973.6985	2465.4811	2752.95	1874.65
973.8273	2466.8392	2743.5	1867.4
973.956	2468.1966	2741.4	1861.35
974.0847	2469.5533	2745.5	1866.1
974.2134	2470.9093	2734.8	1857.6
974.3421	2472.2645	2722.9	1843.55
974.4707	2473.6191	2715.9	1839.4
974.5993	2474.973	2709.85	1832.25
974.7278	2476.3262	2708.45	1831.6
974.8563	2477.6787	2693.75	1819.35
974.9848	2479.0305	2686.25	1809.7
975.1132	2480.3816	2677.8	1800.65
975.2417	2481.7319	2667.65	1790.4
975.37	2483.0816	2658.35	1778.8
975.4984	2484.4306	2664.45	1785.7
975.6267	2485.7789	2648.5	1773.1
975.755	2487.1264	2643.6	1767.5
975.8833	2488.4733	2626.75	1752.55
976.0115	2489.8195	2636.2	1753.45
976.1397	2491.165	2629.45	1748.9
976.2678	2492.5097	2613.4	1735.8
976.3959	2493.8538	2614.45	1738.35
976.524	2495.1972	2594.6	1718.75
976.6521	2496.5398	2589.55	1712.15
976.7801	2497.8818	2591.4	1714.9
976.9081	2499.2231	2570.6	1694.9
977.036	2500.5637	2579.75	1700.2
977.164	2501.9035	2558.15	1681.05
977.2918	2503.2427	2572.6	1692.6
977.4197	2504.5812	2550.25	1672.6
977.5475	2505.919	2546.75	1667.3
977.6753	2507.256	2554.9	1677.7
977.8031	2508.5924	2537.55	1658.65
977.9308	2509.9281	2539.7	1657.95
978.0585	2511.2631	2524.1	1646.6
978.1861	2512.5974	2510.95	1634.05
978.3137	2513.9309	2513.9	1639.35
978.4413	2515.2638	2529.2	1624.3
978.5689	2516.596	2508.85	1634.7
978.6964	2517.9275	2500.65	1621.1
978.8239	2519.2583	2492.8	1614.85
978.9513	2520.5884	2485.1	1607.1
979.0788	2521.9178	2481.95	1603.7
979.2062	2523.2465	2465.1	1588.8
979.3335	2524.5745	2466.05	1589.6
979.4608	2525.9018	2455.45	1577.85
979.5881	2527.2284	2457.05	1581.1
979.7154	2528.5543	2457.65	1582.7
979.8426	2529.8796	2449.6	1572.4
979.9698	2531.2041	2439.95	1562.35
980.0969	2532.5279	2438.7	1563.85
980.224	2533.851	2447.85	1572.5
980.3511	2535.1735	2434.5	1557.25
980.4781	2536.4952	2424.95	1548.4
980.6052	2537.8163	2420.2	1542.95
980.7321	2539.1366	2417.55	1539.25
980.8591	2540.4562	2420.55	1544.75
980.986	2541.7752	2416.8	1541
981.1129	2543.0935	2411.05	1536.8
981.2397	2544.411	2408.6	1531.75
981.3665	2545.7279	2393.35	1517.85
981.4933	2547.0441	2396.5	1519.7
981.62	2548.3596	2394.2	1515
981.7467	2549.6744	2386.15	1508.85
981.8734	2550.9885	2372.8	1488.6
982.0001	2552.3019	2370.85	1493.95
982.1267	2553.6146	2374.45	1500.3
982.2532	2554.9266	2366.7	1491.4
982.3798	2556.2379	2355.5	1477.2
982.5063	2557.5485	2354.05	1478.35
982.6327	2558.8585	2352.5	1466.4
982.7592	2560.1677	2355.6	1474.45
982.8856	2561.4762	2341.3	1465.45
983.0119	2562.7841	2337.75	1459.6
983.1383	2564.0913	2334.25	1458.6
983.2646	2565.3977	2329.25	1454.4
983.3908	2566.7035	2331.45	1454.95
983.517	2568.0086	2335.4	1458.1
983.6432	2569.313	2322.45	1446.3
983.7694	2570.6167	2319.4	1440
983.8955	2571.9197	2307.6	1432
984.0216	2573.222	2304.75	1425.05
984.1476	2574.5236	2311.8	1432.7
984.2737	2575.8246	2306.85	1428.6
984.3996	2577.1248	2296.65	1417.5
984.5256	2578.4244	2291.9	1415.5
984.6515	2579.7232	2287.3	1410.65
984.7774	2581.0214	2309.55	1406.75
984.9032	2582.3189	2288.05	1411.25
985.029	2583.6157	2291.9	1410.9
985.1548	2584.9118	2272.15	1394.35
985.2806	2586.2072	2273.05	1397.15
985.4063	2587.5019	2260.95	1386.15
985.5319	2588.7959	2265.85	1389.3
985.6576	2590.0893	2264.1	1386.15
985.7832	2591.3819	2256.2	1380.25
985.9087	2592.6739	2246.15	1370.95
986.0343	2593.9652	2246.25	1366.8
986.1597	2595.2557	2232.05	1354.85
986.2852	2596.5456	2242	1362.15
986.4106	2597.8348	2228.75	1352.55
986.536	2599.1234	2214.55	1337.8
986.6614	2600.4112	2210.95	1334.8
986.7867	2601.6983	2225.3	1344.7
986.912	2602.9848	2209.25	1332.55
987.0372	2604.2705	2202.45	1317.55
987.1624	2605.5556	2198.35	1323.5
987.2876	2606.84	2188.95	1310.7
987.4128	2608.1237	2188.15	1309
987.5379	2609.4067	2174.15	1299.05
987.6629	2610.689	2174.55	1290.85
987.788	2611.9707	2177.6	1297.5
987.913	2613.2516	2174.2	1292.95
988.0379	2614.5319	2154.1	1276.95
988.1629	2615.8115	2153.35	1276.35
988.2878	2617.0903	2145.3	1267.5
988.4126	2618.3685	2135.3	1259.55
988.5375	2619.6461	2134.15	1257.65
988.6622	2620.9229	2130.8	1255.3
988.787	2622.199	2132.9	1259.45
988.9117	2623.4745	2110.2	1233.9
989.0364	2624.7493	2111.35	1234.85
989.161	2626.0234	2108.9	1233.7
989.2857	2627.2968	2102.05	1225.45
989.4102	2628.5695	2110.45	1231.9
989.5348	2629.8415	2084.1	1206.35
989.6593	2631.1128	2081.6	1204.15
989.7837	2632.3835	2081.35	1206.1
989.9082	2633.6535	2065.15	1189.75
990.0326	2634.9228	2068.9	1191.7
990.1569	2636.1914	2059.4	1182.1
990.2812	2637.4593	2073.3	1192.75
990.4055	2638.7265	2065.7	1189.3
990.5298	2639.9931	2062.7	1186.05
990.654	2641.259	2049.45	1171.7
990.7782	2642.5242	2043.7	1165.8
990.9023	2643.7887	2029.85	1153.5
991.0264	2645.0525	2036.15	1158.85
991.1505	2646.3156	2034.85	1158.7
991.2745	2647.5781	2035.2	1159.2
991.3985	2648.8398	2027.3	1151.6
991.5225	2650.1009	2021.5	1135.05
991.6464	2651.3613	2025.45	1151.55
991.7703	2652.6211	2015.75	1139
991.8942	2653.8801	2010.65	1134.8
992.018	2655.1385	2015.1	1133.5
992.1418	2656.3961	2000.25	1121.9
992.2655	2657.6531	2006.65	1129.25
992.3892	2658.9094	1998.9	1122.6
992.5129	2660.1651	1992.95	1118.1
992.6366	2661.42	1981.45	1106.85
992.7602	2662.6743	1990.05	1112.2
992.8837	2663.9279	1984	1106.5
993.0073	2665.1808	1985.05	1109
993.1307	2666.433	1977.15	1098.6
993.2542	2667.6846	1961.8	1088.1
993.3776	2668.9354	1963.8	1083.05
993.501	2670.1856	1968.85	1092.8
993.6244	2671.4351	1959.15	1084.85
993.7477	2672.6839	1950.05	1071
993.8709	2673.9321	1958.5	1082.75
993.9942	2675.1795	1955	1078.5
994.1174	2676.4263	1944.8	1068.65
994.2405	2677.6724	1939.15	1065.3
994.3637	2678.9179	1935	1059.5
994.4868	2680.1626	1923.05	1046.45
994.6098	2681.4067	1925.6	1048.4
994.7328	2682.6501	1918.2	1041.9
994.8558	2683.8928	1926.05	1050.05
994.9788	2685.1348	1907.35	1030.5
995.1017	2686.3761	1915.35	1040.95
995.2245	2687.6168	1902.25	1025.25
995.3474	2688.8568	1901.4	1025.25
995.4702	2690.0961	1894.45	1017.5
995.5929	2691.3348	1897.3	1019.4
995.7156	2692.5727	1895.25	1018.5
995.8383	2693.81	1882.65	1004.8
995.961	2695.0466	1881.55	1005
996.0836	2696.2826	1890.5	1014.15
996.2062	2697.5178	1903.9	1008.6
996.3287	2698.7524	1876.2	1001.75
996.4512	2699.9863	1871.2	994.95
996.5737	2701.2195	1859.85	984.1
996.6961	2702.452	1869.2	991.1
996.8185	2703.6839	1865.25	988.7
996.9408	2704.9151	1853.25	976.4
997.0631	2706.1456	1851.5	976.2
997.1854	2707.3755	1852.6	975.7
997.3077	2708.6046	1850.65	972.65
997.4299	2709.8331	1840.9	963.5
997.552	2711.0609	1831.25	955.4
997.6742	2712.2881	1829.15	952.35
997.7963	2713.5145	1831.3	952.5
997.9183	2714.7403	1828.1	953.55
998.0403	2715.9654	1825.65	947.7
998.1623	2717.1899	1838.45	948
998.2842	2718.4136	1828.2	953.15
998.4062	2719.6367	1811.55	935.5
998.528	2720.8591	1810.1	928.4
998.6498	2722.0809	1815.8	939.05
998.7716	2723.3019	1812.7	931.8
998.8934	2724.5223	1808.8	930.15
999.0151	2725.7421	1797.45	919.65
999.1368	2726.9611	1794.05	917.65
999.2584	2728.1795	1792.95	912.8
999.38	2729.3972	1778.15	901.25
999.5016	2730.6142	1784.5	896.55
999.6231	2731.8306	1767.05	890.7
999.7446	2733.0462	1769.2	891.35
999.8661	2734.2612	1767.75	886.05
999.9875	2735.4756	1757.35	879.65
1000.1089	2736.6892	1756.7	880.6
1000.2302	2737.9022	1748.5	874.6
1000.3515	2739.1145	1747.55	870.1
1000.4728	2740.3262	1754.15	869.7
1000.594	2741.5372	1736.9	860.65
1000.7152	2742.7475	1733.6	855.35
1000.8363	2743.9571	1734.6	857.15
1000.9575	2745.1661	1731.95	852.45
1001.0785	2746.3744	1731.8	853.15
1001.1996	2747.582	1721.1	845.15
1001.3206	2748.7889	1717.8	839.95
1001.4415	2749.9952	1708.55	832.65
1001.5625	2751.2008	1708.6	831.65
1001.6833	2752.4057	1708.25	829.7
1001.8042	2753.61	1690.4	814.4
1001.925	2754.8136	1702.2	825.2
1002.0458	2756.0165	1690.6	813.25
1002.1665	2757.2188	1688.4	815.55
1002.2872	2758.4204	1679.65	804.55
1002.4078	2759.6213	1688.3	808.9
1002.5285	2760.8215	1689.35	808.95
1002.649	2762.0211	1680.45	802.55
1002.7696	2763.22	1683.55	804.05
1002.8901	2764.4182	1673.15	793.75
1003.0106	2765.6158	1671.1	795.95
1003.131	2766.8127	1665.75	788.15
1003.2514	2768.009	1662.2	786.65
1003.3717	2769.2045	1651.95	774.05
1003.492	2770.3994	1656.85	778.35
1003.6123	2771.5936	1658.1	781.25
1003.7325	2772.7872	1642.7	769.1
1003.8527	2773.9801	1639.85	760.45
1003.9729	2775.1723	1663.55	770.7
1004.093	2776.3639	1641.1	763.95
1004.2131	2777.5548	1626.15	746.35
1004.3331	2778.745	1630.8	752.65
1004.4531	2779.9346	1624.4	748
1004.5731	2781.1235	1635.6	757.55
1004.693	2782.3117	1616.7	740.65
1004.8129	2783.4992	1623.45	747.5
1004.9328	2784.6861	1620.85	746.1
1005.0526	2785.8723	1619.4	740.55
1005.1723	2787.0579	1611.35	733.8
1005.2921	2788.2428	1612.15	735.95
1005.4118	2789.427	1610.05	734.65
1005.5314	2790.6106	1605.8	728.75
1005.651	2791.7935	1607.1	730.45
1005.7706	2792.9757	1596.7	722.4
1005.8902	2794.1573	1592.05	713.5
1006.0097	2795.3382	1589	712.65
1006.1291	2796.5184	1587.85	715.25
1006.2485	2797.698	1582.15	703.6
1006.3679	2798.8769	1578.45	704.3
1006.4873	2800.0551	1578.55	701.65
1006.6066	2801.2327	1580.05	701.25
1006.7258	2802.4096	1575.25	702.2
1006.8451	2803.5859	1571.05	694.9
1006.9642	2804.7615	1564.65	687.85
1007.0834	2805.9364	1571.55	696.2
1007.2025	2807.1106	1561.55	685.55
1007.3216	2808.2842	1569.75	694.2
1007.4406	2809.4572	1564.15	688.3
1007.5596	2810.6294	1558.6	679.75
1007.6785	2811.801	1556.5	680.6
1007.7975	2812.972	1549.75	673.45
1007.9163	2814.1423	1553.15	675.75
1008.0352	2815.3119	1555.15	678.05
1008.154	2816.4808	1553.6	678.55
1008.2727	2817.6491	1555.75	678.4
1008.3914	2818.8167	1558.05	681.4
1008.5101	2819.9837	1560.2	682.2
1008.6288	2821.15	1561.1	686.65
1008.7474	2822.3157	1567.5	693.95
1008.8659	2823.4807	1570.8	694.2
1008.9844	2824.645	1581.7	702.65
1009.1029	2825.8086	1589.35	712.5
1009.2214	2826.9716	1596.25	720.85
1009.3398	2828.134	1606.8	730.65
1009.4581	2829.2957	1601.3	727.05
1009.5764	2830.4567	1609.95	735.05
1009.6947	2831.617	1609.2	732.4
1009.813	2832.7767	1616.9	739.95
1009.9312	2833.9358	1610.4	736.75
1010.0493	2835.0941	1613.9	736.85
1010.1675	2836.2519	1602.55	725.8
1010.2855	2837.4089	1591.15	713.15
1010.4036	2838.5653	1587.8	712.7
1010.5216	2839.7211	1579.9	704.15
1010.6396	2840.8761	1587	708.1
1010.7575	2842.0306	1579.65	702.7
1010.8754	2843.1843	1576.8	702.2
1010.9932	2844.3374	1570.05	694.1
1011.111	2845.4899	1580.2	702.6
1011.2288	2846.6417	1577.45	701.9
1011.3465	2847.7928	1585.6	709.65
1011.4642	2848.9433	1574.05	696.9
1011.5818	2850.0931	1578.75	703.75
1011.6995	2851.2422	1570.25	690.5
1011.817	2852.3907	1578.55	702.5
1011.9345	2853.5385	1577	698.6
1012.052	2854.6857	1583.9	698.95
1012.1695	2855.8323	1565.4	691.5
1012.2869	2856.9781	1582.85	705.25
1012.4042	2858.1233	1578.55	701.25
1012.5216	2859.2679	1578.7	703.65
1012.6389	2860.4118	1583	710.1
1012.7561	2861.555	1579.8	700.5
1012.8733	2862.6976	1570.55	693.4
1012.9905	2863.8395	1585.3	710.55
1013.1076	2864.9808	1581.25	705.55
1013.2247	2866.1214	1585	711.5
1013.3417	2867.2614	1575.55	699.1
1013.4587	2868.4007	1577.85	699.2
1013.5757	2869.5393	1576.7	697.8
1013.6926	2870.6773	1583.55	704.6
1013.8095	2871.8146	1576.2	697
1013.9263	2872.9513	1579.15	704.35
1014.0431	2874.0874	1577.95	702
1014.1599	2875.2227	1575.65	701.75
1014.2766	2876.3574	1584.8	710.2
1014.3933	2877.4915	1569.25	693.4
1014.51	2878.6249	1571.3	695.25
1014.6266	2879.7577	1589.35	712.55
1014.7431	2880.8898	1592.45	706.8
1014.8596	2882.0212	1580.4	707.3
1014.9761	2883.152	1571.55	693.9
1015.0925	2884.2821	1573.35	696.9
1015.2089	2885.4116	1571.2	696.85
1015.3253	2886.5405	1572.15	694.75
1015.4416	2887.6686	1567.1	689.45
1015.5579	2888.7962	1566	693.75
1015.6741	2889.923	1572.45	697.95
1015.7903	2891.0493	1571.25	695.95
1015.9065	2892.1748	1568.75	692.5
1016.0226	2893.2997	1563.85	687.9
1016.1387	2894.424	1557.2	682.7
1016.2547	2895.5476	1565.85	690.6
1016.3707	2896.6706	1560.5	685.9
1016.4866	2897.7929	1547.35	670.05
1016.6025	2898.9145	1552.7	678
1016.7184	2900.0355	1543.4	667.55
1016.8342	2901.1559	1549.6	671.7
1016.95	2902.2756	1549.1	674.3
1017.0658	2903.3946	1549	672.3
1017.1815	2904.513	1538.45	659.15
1017.2971	2905.6308	1534.3	660.35
1017.4127	2906.7479	1531.65	656.35
1017.5283	2907.8643	1535.65	660.45
1017.6439	2908.9801	1527.45	651.1
1017.7594	2910.0953	1523.65	649.45
1017.8748	2911.2098	1526.7	647.35
1017.9902	2912.3236	1526.8	645.05
1018.1056	2913.4368	1520.9	642.35
1018.2209	2914.5494	1521.55	646.65
1018.3362	2915.6613	1518.45	638.5
1018.4515	2916.7725	1512.8	634.35
1018.5667	2917.8831	1503.5	626.75
1018.6819	2918.9931	1495.5	617.55
1018.797	2920.1024	1497.9	619.75
1018.9121	2921.211	1494.45	618.05
1019.0271	2922.319	1481.8	606.15
1019.1421	2923.4264	1478.8	602.8
1019.2571	2924.5331	1478.4	604.85
1019.372	2925.6391	1478.9	604.9
1019.4869	2926.7445	1481.3	608.3
1019.6017	2927.8493	1478.95	604.1
1019.7165	2928.9534	1472.5	596
1019.8313	2930.0569	1477.75	600.1
1019.946	2931.1597	1475.9	598.9
1020.0606	2932.2619	1465.65	589.35
1020.1753	2933.3634	1473.6	600.45
1020.2899	2934.4643	1487.15	604.6
1020.4044	2935.5645	1485	602.35
1020.5189	2936.6641	1481.85	601.2
1020.6334	2937.763	1464.25	588.15
1020.7478	2938.8613	1465.25	588.4
1020.8622	2939.959	1467.1	586.05
1020.9765	2941.056	1466.25	591.7
1021.0908	2942.1523	1447.2	570.1
1021.2051	2943.248	1445.85	570.3
1021.3193	2944.3431	1426.2	550.3
1021.4334	2945.4375	1413.95	537.25
1021.5476	2946.5313	1410.35	535.6
1021.6617	2947.6244	1405.65	528.35
1021.7757	2948.7169	1391.05	513.15
1021.8897	2949.8087	1380.7	504
1022.0037	2950.8999	1370.1	493.65
1022.1176	2951.9904	1358.6	483
1022.2315	2953.0803	1351.3	475.3
1022.3453	2954.1696	1348.9	474.35
1022.4591	2955.2582	1345.75	470.25
1022.5728	2956.3462	1338.55	462.8
1022.6865	2957.4335	1345.2	469.65
1022.8002	2958.5202	1337.25	458.85
1022.9138	2959.6062	1325.75	448
1023.0274	2960.6916	1329.25	453.35
1023.141	2961.7764	1330.3	453.15
1023.2545	2962.8605	1326.7	450.95
1023.3679	2963.9439	1329.65	454.6
1023.4813	2965.0267	1331.5	455
1023.5947	2966.1089	1336.9	435.35
1023.708	2967.1905	1312.35	438.4
1023.8213	2968.2714	1309.1	435
1023.9346	2969.3516	1310.35	435.2
1024.0478	2970.4312	1316.4	433.1
1024.1609	2971.5102	1304.4	430.9
1024.274	2972.5885	1304.65	430.15
1024.3871	2973.6662	1312.3	432.2
1024.5002	2974.7432	1302.2	427.6
1024.6132	2975.8196	1302.55	427.2
1024.7261	2976.8954	1296.7	420.15
1024.839	2977.9705	1304.65	428.1
1024.9519	2979.045	1296.2	421.25
1025.0647	2980.1188	1297.3	424.2
1025.1775	2981.192	1291.7	416.65
1025.2902	2982.2645	1291.8	415.95
1025.4029	2983.3364	1282.6	404.9
1025.5156	2984.4077	1279.7	404.8
1025.6282	2985.4783	1281.85	399.55
1025.7407	2986.5483	1272.3	396.6
1025.8532	2987.6177	1275.75	401.9
1025.9657	2988.6864	1268.85	394.2
1026.0782	2989.7545	1261.6	383.65
1026.1906	2990.8219	1258.75	382.15
1026.3029	2991.8887	1258.6	382.3
1026.4152	2992.9548	1254	375.4
1026.5275	2994.0204	1246.15	372.95
1026.6397	2995.0852	1237.5	363.85
1026.7519	2996.1495	1239.7	364
1026.864	2997.2131	1228.75	354.9
1026.9761	2998.276	1225.85	349.3
1027.0882	2999.3383	1232.1	354.9
1027.2002	3000.4	1226.5	347.75
1027.3122	3001.4611	1217	340.25
1027.4241	3002.5215	1211.7	334.55
1027.536	3003.5812	1218.5	342.65
1027.6478	3004.6404	1210.75	335.85
1027.7596	3005.6989	1211.55	335.3
1027.8714	3006.7567	1210.8	335.7
1027.9831	3007.8139	1225.35	327.75
1028.0947	3008.8705	1203.1	329.25
1028.2064	3009.9264	1203.6	325.2
1028.3179	3010.9818	1203.15	328.65
1028.4295	3012.0364	1190.1	313.1
1028.541	3013.0905	1192.65	315.65
1028.6524	3014.1439	1193.05	317.15
1028.7638	3015.1966	1185.55	309.9
1028.8752	3016.2487	1189.65	313.85
1028.9865	3017.3002	1193.6	312.55
1029.0978	3018.3511	1191.45	317.45
1029.209	3019.4013	1185.9	310.85
1029.3202	3020.4509	1183.55	309.45
1029.4314	3021.4998	1184.85	308.75
1029.5425	3022.5481	1183.7	307.7
1029.6535	3023.5958	1181.85	307.45
1029.7645	3024.6428	1184.45	308.75
1029.8755	3025.6892	1170.75	295.55
1029.9864	3026.735	1174.9	299.6
1030.0973	3027.7802	1179.2	302.7
1030.2082	3028.8247	1173.1	299.15
1030.319	3029.8685	1166.6	291.75
1030.4297	3030.9118	1170.45	293.35
1030.5404	3031.9544	1167.3	292.55
1030.6511	3032.9963	1167.55	293.55
1030.7617	3034.0376	1166.95	289.65
1030.8723	3035.0783	1169.15	291.6
1030.9829	3036.1184	1165.35	287.9
1031.0934	3037.1578	1161.2	286.8
1031.2038	3038.1966	1163.35	287
1031.3142	3039.2348	1160.7	286.55
1031.4246	3040.2723	1166.85	283.4
1031.5349	3041.3092	1161.4	287.2
1031.6452	3042.3455	1156.5	281.7
1031.7554	3043.3811	1156.55	280.5
1031.8656	3044.4161	1153.25	276.8
1031.9758	3045.4505	1154.95	282.7
1032.0859	3046.4842	1153.6	277.95
1032.1959	3047.5173	1157.15	280.6
1032.3059	3048.5498	1148.7	273.85
1032.4159	3049.5816	1154.25	278.7
1032.5258	3050.6128	1151.4	275.85
1032.6357	3051.6434	1151.5	274.15
1032.7455	3052.6734	1151.4	275.2
1032.8553	3053.7027	1145.25	270.3
1032.9651	3054.7314	1147.1	272.75
1033.0748	3055.7594	1145.6	272.2
1033.1845	3056.7868	1139.5	262.8
1033.2941	3057.8136	1146	268.25
1033.4037	3058.8398	1139.5	265.3
1033.5132	3059.8653	1134.1	258.65
1033.6227	3060.8902	1144.3	267.65
1033.7321	3061.9145	1142.9	266.1
1033.8415	3062.9381	1144.1	268.85
1033.9509	3063.9612	1151.1	261.7
1034.0602	3064.9835	1138.9	263.1
1034.1694	3066.0053	1142.35	267.05
1034.2787	3067.0264	1133.25	257.6
1034.3878	3068.0469	1136.75	260.2
1034.497	3069.0668	1134.2	256.65
1034.6061	3070.086	1132.15	256.25
1034.7151	3071.1046	1134.6	259.25
1034.8241	3072.1226	1136	258.5
1034.9331	3073.1399	1130.05	254.55
1035.042	3074.1567	1129.45	253.4
1035.1508	3075.1727	1132.05	254.85
1035.2597	3076.1882	1128.1	251.85
1035.3684	3077.203	1125.5	251
1035.4772	3078.2173	1123.3	247.05
1035.5859	3079.2308	1123.85	248.5
1035.6945	3080.2438	1118	241.95
1035.8031	3081.2561	1113.35	237.5
1035.9117	3082.2678	1116.05	239.85
1036.0202	3083.2789	1108.2	233.1
1036.1286	3084.2893	1115.55	239.95
1036.2371	3085.2991	1114.6	238.3
1036.3454	3086.3083	1116.6	236.65
1036.4538	3087.3169	1109.85	234.95
1036.562	3088.3248	1110.45	233.5
1036.6703	3089.3321	1108	230.75
1036.7785	3090.3388	1098.75	224.15
1036.8866	3091.3449	1106.5	230.15
1036.9948	3092.3503	1106.3	229.6
1037.1028	3093.3551	1102.9	228.2
1037.2108	3094.3593	1102.95	227.85
1037.3188	3095.3629	1096.35	221.2
1037.4267	3096.3658	1101.05	223.65
1037.5346	3097.3681	1097.8	226.2
1037.6425	3098.3698	1094.9	218.25
1037.7503	3099.3708	1103.45	222.2
1037.858	3100.3713	1096.8	220.5
1037.9657	3101.3711	1092.15	214.7
1038.0734	3102.3702	1224.1	213
1038.181	3103.3688	1090.5	213.5
1038.2886	3104.3667	1085.75	210.35
1038.3961	3105.364	1086.35	211.9
1038.5036	3106.3607	1084.5	207.8
1038.611	3107.3568	1083.8	208.15
1038.7184	3108.3522	1083.65	209.65
1038.8257	3109.347	1077.05	201.6
1038.933	3110.3412	1083.7	205.1
1039.0403	3111.3348	1076.25	201.6
1039.1475	3112.3277	1080.05	205.2
1039.2547	3113.32	1079.35	206.1
1039.3618	3114.3117	1078.6	203.8
1039.4689	3115.3028	1074.1	198.85
1039.5759	3116.2932	1069.2	192.65
1039.6829	3117.2831	1078.25	198.35
1039.7898	3118.2723	1070.7	195.4
1039.8967	3119.2608	1066.35	189.25
1040.0035	3120.2488	1070.15	194.2
1040.1103	3121.2361	1070.85	195.65
1040.2171	3122.2229	1066.65	192.35
1040.3238	3123.209	1064.5	187.8
1040.4305	3124.1944	1064.85	189.95
1040.5371	3125.1793	1065.95	188.5
1040.6437	3126.1635	1056.8	182.35
1040.7502	3127.1471	1056.35	182.3
1040.8567	3128.1301	1057.25	183.55
1040.9631	3129.1125	1054.2	180.75
1041.0695	3130.0942	1059.55	184.15
1041.1759	3131.0753	1065.2	180.75
1041.2822	3132.0558	1064	185.9
1041.3884	3133.0357	1056.55	179.9
1041.4946	3134.015	1053.25	178.05
1041.6008	3134.9936	1051.9	176.55
1041.7069	3135.9716	1076.85	181.7
1041.813	3136.949	1051.05	178.1
1041.919	3137.9258	1054.6	174.75
1042.025	3138.902	1057.4	176.65
1042.1309	3139.8775	1048.1	173.15
1042.2368	3140.8524	1050.05	173.25
1042.3427	3141.8267	1050.2	172.95
1042.4485	3142.8004	1047.25	171.7
1042.5542	3143.7735	1055.05	174.4
1042.6599	3144.7459	1049.4	171.9
1042.7656	3145.7178	1044.6	168.3
1042.8712	3146.689	1043.4	168.9
1042.9768	3147.6596	1045.65	170.45
1043.0823	3148.6295	1042	166.95
1043.1878	3149.5989	1043.05	168
1043.2932	3150.5676	1039.35	164
1043.3986	3151.5357	1040.55	168.45
1043.5039	3152.5032	1036	160.3
1043.6092	3153.4701	1040.65	166.1
1043.7145	3154.4364	1037.75	159
1043.8197	3155.402	1030.75	157.95
1043.9248	3156.367	1034.85	158.65
1044.03	3157.3315	1074.55	161.45
1044.135	3158.2952	1035.25	159.35
1044.24	3159.2584	1029.95	155.7
1044.345	3160.221	1031.55	155.7
1044.4499	3161.1829	1029.65	153.4
1044.5548	3162.1442	1028.5	153
1044.6596	3163.105	1024	147.15
1044.7644	3164.065	1024.3	148.85
1044.8692	3165.0245	1031.3	153.95
1044.9739	3165.9834	1025.55	151.45
1045.0785	3166.9416	1029	153.6
1045.1831	3167.8993	1028.1	151.45
1045.2877	3168.8563	1023.9	147.35
1045.3922	3169.8127	1021.15	146.8
1045.4966	3170.7684	1019.1	143.5
1045.6011	3171.7236	1020.5	143.45
1045.7054	3172.6782	1021.2	147.95
1045.8098	3173.6321	1017.6	142.65
1045.914	3174.5854	1024.85	143.75
1046.0183	3175.5381	1016	139.7
1046.1224	3176.4902	1018.15	144.85
1046.2266	3177.4417	1015.35	140.25
1046.3307	3178.3926	1014.2	140.1
1046.4347	3179.3428	1015.6	140.75
1046.5387	3180.2924	1012.55	138.75
1046.6427	3181.2415	1013.75	137.45
1046.7466	3182.1899	1012.65	137.65
1046.8504	3183.1377	1009.85	134.25
1046.9542	3184.0848	1013.9	134.4
1047.058	3185.0314	1013.15	138.05
1047.1617	3185.9773	1009.8	133
1047.2654	3186.9227	1007.85	133.15
1047.369	3187.8674	1007.85	133
1047.4726	3188.8115	1015.35	134.6
1047.5761	3189.755	1005.95	132.2
1047.6796	3190.6979	1004.8	128.55
1047.783	3191.6402	1001.85	126.5
1047.8864	3192.5818	1007.35	130.85
1047.9898	3193.5229	1010.8	128.85
1048.0931	3194.4633	1002.4	127.15
1048.1963	3195.4031	1005.2	128.2
1048.2995	3196.3423	1003.5	128.15
1048.4027	3197.2809	1002.65	126.3
1048.5058	3198.2189	1001.6	126.25
1048.6089	3199.1563	1004.25	122.4
1048.7119	3200.0931	999.75	125.35
1048.8148	3201.0292	998.9	126.6
1048.9178	3201.9648	996.3	118.55
1049.0206	3202.8997	999.55	120.2
1049.1235	3203.834	995.15	119.8
1049.2262	3204.7677	992.4	116.3
1049.329	3205.7008	994.3	116.6
1049.4317	3206.6333	993.55	118.7
1049.5343	3207.5652	998.5	120.6
1049.6369	3208.4964	991.25	116.1
1049.7394	3209.4271	995.35	121.65
1049.8419	3210.3571	995.9	121
1049.9444	3211.2865	991.35	115.35
1050.0468	3212.2154	992.3	117.9
1050.1491	3213.1436	993.35	114.6
1050.2514	3214.0712	999.5	116.25
1050.3537	3214.9982	989.35	113.7
1050.4559	3215.9246	989.6	113.05
1050.5581	3216.8503	986.65	112.65
1050.6602	3217.7755	989.5	115.4
1050.7623	3218.7001	989.05	113.1
1050.8643	3219.624	988.2	112.4
1050.9663	3220.5473	989.8	115.35
1051.0682	3221.4701	984.35	108.7
1051.1701	3222.3922	987.75	111.5
1051.2719	3223.3137	986.7	111.5
1051.3737	3224.2346	986.2	111.2
1051.4754	3225.1549	985.65	112.2
1051.5771	3226.0746	982.25	107.6
1051.6788	3226.9937	983.4	106.45
1051.7804	3227.9121	980.85	105.9
1051.8819	3228.83	977.9	101.6
1051.9834	3229.7473	981.15	107.1
1052.0849	3230.6639	981.55	104.65
1052.1863	3231.5799	975.65	101.85
1052.2876	3232.4954	982.1	106.8
1052.3889	3233.4102	977.15	100.8
1052.4902	3234.3244	980.25	105.5
1052.5914	3235.238	975.45	99.85
1052.6926	3236.151	1001.1	101
1052.7937	3237.0634	974	100.35
1052.8948	3237.9752	977.95	102.1
1052.9958	3238.8864	977.05	100.65
1053.0968	3239.797	975.9	100.85
1053.1977	3240.7069	974	96.6
1053.2986	3241.6163	973.5	98.3
1053.3994	3242.5251	970.95	96.35
1053.5002	3243.4332	973.05	99.5
1053.6009	3244.3408	970.95	96.25
1053.7016	3245.2477	971.85	97.25
1053.8022	3246.154	969.8	94.75
1053.9028	3247.0598	970.45	94.75
1054.0034	3247.9649	965.95	89.1
1054.1039	3248.8694	968.7	92.6
1054.2043	3249.7733	965.8	90.95
1054.3047	3250.6766	968.55	95.1
1054.4051	3251.5793	967.4	89.4
1054.5054	3252.4814	963.75	90.8
1054.6056	3253.3829	960.8	86.35
1054.7058	3254.2838	962.85	88.8
1054.806	3255.1841	964.3	90
1054.9061	3256.0838	961.35	86.3
1055.0061	3256.9829	960.1	84.75
1055.1062	3257.8814	963.75	84.1
1055.2061	3258.7792	966.15	90.5
1055.306	3259.6765	959	84.2
1055.4059	3260.5731	957.6	82.75
1055.5057	3261.4692	958.3	82.15
1055.6055	3262.3647	957.05	81.85
1055.7052	3263.2595	954.75	79
1055.8049	3264.1538	957.25	81.6
1055.9045	3265.0474	954	78.4
1056.0041	3265.9404	953.35	79.45
1056.1036	3266.8329	949.5	74.35
1056.2031	3267.7247	957.8	73.95
1056.3025	3268.616	948.85	74.95
1056.4019	3269.5066	945.45	69.4
1056.5013	3270.3966	950.3	73.65
1056.6005	3271.286	937.85	64.35
