Software Version:	3.9.2.0
Unit SN:	10000200
Spectrometer SN:	6960
Date:	3/6/2024 9:51:16 AM
Data Line Index:	25
Spectral Points:	2048
Integration time (ms):	125
Averages:	20
Delay (ms):	30
Sequence Number:	1
Processing:	dark subtract
Laser Power (mW):	305
Laser Current (mA):	824
Laser Diode Temp (C):	25.1
Laser Case Temp (C):	24.3
System Temp (C):	24.2
Spectrometer Temp (C):	21.7
CCD Temp (C):	0
Secondary Temp (C):	20.007
Heatsink Temp (C):	18.43
CCDPCB Temp (C):	31.016
SecondaryPCB Temp (C):	26.103

Wavelength	RamanShift	Raw Counts	Dark Subtracted
787.061	30.1047	440.5	32.2
787.2016	32.3739	441.55	36.25
787.3422	34.6426	444.1	38.35
787.4828	36.9109	449.7	40.2
787.6235	39.1787	454.85	42.6
787.7642	41.4461	463.2	47.6
787.9049	43.7131	469.3	49
788.0456	45.9796	476.6	52.85
788.1863	48.2456	480.3	53.7
788.3271	50.5112	486	55.8
788.4679	52.7764	493	59.95
788.6087	55.0411	502.2	65.65
788.7496	57.3054	509.65	66.45
788.8904	59.5692	515.9	72.15
789.0313	61.8326	526.9	80.85
789.1722	64.0955	534	83.95
789.3132	66.3579	547.05	91.95
789.4541	68.6199	560.65	102.35
789.5951	70.8815	578.2	115.2
789.7361	73.1426	621.95	154.35
789.8771	75.4032	718.75	248.55
790.0181	77.6634	962.3	488.15
790.1592	79.9231	1556.5	1078.1
790.3003	82.1824	2770.65	2285.05
790.4414	84.4412	4882.75	4382.75
790.5825	86.6995	7796.05	7281.4
790.7237	88.9574	10664.1	10136.4
790.8648	91.2148	12773.95	12238.25
791.006	93.4717	13975.9	13435.3
791.1472	95.7282	14501.65	13955.35
791.2885	97.9842	14770.35	14224.9
791.4297	100.2398	14837.95	14289
791.571	102.4949	14902.4	14351.1
791.7123	104.7495	14909.65	14353.05
791.8536	107.0036	14871.95	14312
791.9949	109.2573	14877.15	14319.35
792.1363	111.5105	14876	14318.5
792.2777	113.7632	14868.2	14306.4
792.4191	116.0154	14876.15	14304.6
792.5605	118.2672	14923.65	14358.7
792.7019	120.5185	14920.9	14353.7
792.8434	122.7693	14969.05	14397.85
792.9849	125.0197	14967.15	14391.7
793.1264	127.2696	14968.8	14387.05
793.2679	129.519	15035.1	14453.45
793.4094	131.7679	15033.55	14450.15
793.551	134.0163	15054.45	14466.25
793.6926	136.2642	15093.75	14502.4
793.8342	138.5117	15106.1	14511.4
793.9758	140.7587	15106.9	14512.5
794.1175	143.0052	15128.45	14526.25
794.2591	145.2512	15089.35	14491.6
794.4008	147.4967	15072.9	14471.45
794.5425	149.7417	15093.6	14487.2
794.6842	151.9863	15088.05	14479.7
794.826	154.2304	15082.2	14470.75
794.9677	156.4739	15058.5	14441.3
795.1095	158.717	15123.6	14508.8
795.2513	160.9596	15102.75	14479.85
795.3931	163.2017	15086.25	14462.5
795.535	165.4433	15111.5	14486.4
795.6768	167.6844	15108.6	14484.15
795.8187	169.925	15148.5	14519.55
795.9606	172.1651	15111.75	14477.15
796.1025	174.4047	15089.85	14452.8
796.2445	176.6439	15079.7	14438.9
796.3864	178.8825	15082.3	14441.9
796.5284	181.1206	15107.6	14462.45
796.6704	183.3582	15102.2	14452.75
796.8124	185.5954	15139.6	14486.2
796.9544	187.832	15146.85	14491.8
797.0965	190.0681	15180.05	14521.35
797.2386	192.3037	15217.8	14555.4
797.3806	194.5388	15195.95	14529.2
797.5228	196.7734	15223.95	14557.65
797.6649	199.0075	15262.8	14594.9
797.807	201.2411	15360.45	14692.25
797.9492	203.4742	15386.2	14716.25
798.0914	205.7068	15430.4	14755.35
798.2336	207.9389	15430.9	14752.7
798.3758	210.1704	15467.4	14797.95
798.518	212.4015	15464.55	14804.7
798.6603	214.632	15500.55	14845.15
798.8025	216.862	15505.6	14853.15
798.9448	219.0915	15531.8	14876.2
799.0871	221.3205	15575.7	14916.95
799.2294	223.549	15608.8	14957.5
799.3718	225.777	15609.9	14960.25
799.5141	228.0044	15646.7	14985.85
799.6565	230.2314	15661.55	15000.5
799.7989	232.4578	15641.8	14976.3
799.9413	234.6837	15686.05	15010.05
800.0837	236.909	15708.65	15030.2
800.2262	239.1339	15745.7	15046.6
800.3687	241.3582	15740.1	15050.95
800.5111	243.582	15724.85	15006.25
800.6536	245.8053	15745.75	15044
800.7961	248.0281	15757.45	15058.7
800.9387	250.2503	15743.9	15041
801.0812	252.472	15775.6	15069.5
801.2238	254.6932	15822.45	15117.45
801.3664	256.9139	15775.15	15070
801.509	259.134	15826.8	15117.15
801.6516	261.3536	15837.75	15129.5
801.7942	263.5727	15894.25	15184.05
801.9369	265.7912	15843.15	15134.25
802.0795	268.0092	15909.6	15202.6
802.2222	270.2267	15915.45	15204.1
802.3649	272.4436	15907.7	15197.25
802.5076	274.6601	15908.5	15185.3
802.6504	276.8759	15901.3	15183.25
802.7931	279.0913	15936.35	15215.1
802.9359	281.3061	15949.95	15229.7
803.0787	283.5204	16006.45	15279.05
803.2215	285.7341	15988.7	15262.5
803.3643	287.9473	16044.7	15308.4
803.5071	290.16	16053.95	15324.25
803.6499	292.3721	16007.6	15285
803.7928	294.5837	16012	15288.25
803.9357	296.7947	15968.35	15241.5
804.0786	299.0052	15991.45	15265.35
804.2215	301.2152	15942.6	15213.7
804.3644	303.4246	15992.05	15266.35
804.5074	305.6334	15968.85	15239.35
804.6503	307.8418	15935.75	15201.5
804.7933	310.0495	15927.55	15191.25
804.9363	312.2568	15896.9	15164.8
805.0793	314.4635	15851.95	15116.8
805.2223	316.6696	15820.25	15080.1
805.3653	318.8752	15744.35	14996.75
805.5084	321.0802	15739.8	14997.95
805.6514	323.2847	15746.65	15002.75
805.7945	325.4887	15738.7	14998.15
805.9376	327.692	15696.9	14955
806.0807	329.8949	15787.7	15042.8
806.2238	332.0972	15761.8	15013.6
806.367	334.2989	15787.75	15038.5
806.5101	336.5001	15764.4	15012.15
806.6533	338.7007	15746.75	14994.65
806.7965	340.9008	15787.95	15033.45
806.9397	343.1003	15727.95	14971.9
807.0829	345.2992	15712.25	14958.45
807.2261	347.4976	15692.15	14934.2
807.3693	349.6955	15697.05	14938.35
807.5126	351.8927	15718.75	14954.25
807.6559	354.0895	15666.2	14894.1
807.7991	356.2856	15676.2	14913.7
807.9424	358.4812	15615.8	14850.25
808.0857	360.6763	15684.65	14919.05
808.2291	362.8707	15605.45	14836.6
808.3724	365.0646	15638.05	14866.95
808.5158	367.258	15658.75	14886
808.6591	369.4508	15609.95	14834
808.8025	371.643	15631.75	14857.65
808.9459	373.8346	15584.35	14809.75
809.0893	376.0257	15602.15	14825.35
809.2327	378.2162	15579.8	14801.65
809.3762	380.4062	15594.55	14813.65
809.5196	382.5956	15529.2	14751
809.6631	384.7844	15538.5	14764.7
809.8066	386.9726	15463.45	14690.65
809.9501	389.1603	15443.55	14674.9
810.0936	391.3474	15473.5	14665.15
810.2371	393.5339	15418.45	14642.7
810.3806	395.7199	15359.85	14586.8
810.5241	397.9052	15390.85	14619
810.6677	400.09	15369.2	14595.3
810.8113	402.2743	15370	14594.25
810.9548	404.4579	15373.75	14595.8
811.0984	406.641	15397.5	14616.6
811.2421	408.8235	15408.5	14627.45
811.3857	411.0054	15443.1	14659.55
811.5293	413.1868	15540.6	14755.9
811.673	415.3675	15590.6	14802.95
811.8166	417.5477	15592.75	14804.6
811.9603	419.7273	15533	14741.05
812.104	421.9064	15388.5	14590.75
812.2477	424.0848	15322.75	14530.05
812.3914	426.2627	15244.7	14450.95
812.5351	428.4399	15252.35	14454.85
812.6788	430.6166	15192.9	14394.85
812.8226	432.7928	15140.3	14342.75
812.9663	434.9683	15076.4	14277.55
813.1101	437.1432	15037.1	14234.65
813.2539	439.3176	14983.7	14186.8
813.3977	441.4914	14958.6	14160.35
813.5415	443.6645	14961.75	14162.2
813.6853	445.8371	14873.3	14070.7
813.8291	448.0091	14857.85	14056.5
813.973	450.1806	14794.9	13995.75
814.1168	452.3514	14775.55	13974.45
814.2607	454.5216	14754.7	13945.6
814.4046	456.6913	14691.5	13886.2
814.5485	458.8603	14681.8	13879.05
814.6924	461.0288	14690	13887.35
814.8363	463.1967	14659.15	13857.85
814.9802	465.3639	14672.25	13868.15
815.1241	467.5306	14643.45	13837.7
815.2681	469.6967	14615.65	13808.65
815.412	471.8622	14568.05	13766.1
815.556	474.0271	14535.7	13729.95
815.7	476.1914	14581.15	13773.6
815.844	478.3551	14528.9	13718.45
815.988	480.5182	14548.7	13738.65
816.132	482.6807	14568.35	13761.45
816.276	484.8426	14563.75	13758.05
816.4201	487.0039	14584.65	13777.2
816.5641	489.1647	14612.8	13801.7
816.7082	491.3248	14608.5	13796.55
816.8522	493.4843	14593.65	13784.45
816.9963	495.6432	14585.9	13779.15
817.1404	497.8015	14507.1	13690.85
817.2845	499.9592	14549.55	13733.4
817.4286	502.1163	14503.9	13687.4
817.5727	504.2728	14456.65	13638
817.7168	506.4287	14489.2	13677.9
817.861	508.5839	14440.35	13624.85
818.0051	510.7386	14398.55	13585.55
818.1493	512.8927	14432.6	13614.3
818.2935	515.0461	14409.25	13590.2
818.4377	517.199	14403.65	13585.95
818.5818	519.3512	14402.75	13582.1
818.726	521.5029	14426.05	13601
818.8703	523.6539	14428.3	13607.25
819.0145	525.8043	14427.5	13607.95
819.1587	527.9541	14373.7	13551.6
819.303	530.1033	14346.05	13524.6
819.4472	532.2519	14299.6	13476.65
819.5915	534.3999	14266.7	13440.1
819.7357	536.5472	14283.05	13460.65
819.88	538.694	14284.7	13462.05
820.0243	540.8401	14297.3	13472.65
820.1686	542.9856	14307	13476.8
820.3129	545.1305	14262.1	13434.3
820.4572	547.2748	14325.85	13496.4
820.6016	549.4185	14292.2	13461.55
820.7459	551.5615	14238.6	13410.25
820.8902	553.704	14242.7	13411.45
821.0346	555.8458	14262.6	13433.05
821.1789	557.987	14248.9	13418.4
821.3233	560.1276	14234.55	13399.4
821.4677	562.2675	14250.95	13419.7
821.6121	564.4069	14258.15	13426.75
821.7565	566.5456	14247.05	13418.65
821.9009	568.6837	14253.7	13422.65
822.0453	570.8212	14146.25	13317.2
822.1897	572.958	14135.65	13305
822.3342	575.0942	14043.85	13212.8
822.4786	577.2299	14019.7	13188.65
822.6231	579.3648	13960.4	13131.05
822.7675	581.4992	13898.2	13070.25
822.912	583.6329	13872.35	13042.85
823.0565	585.766	13852.6	13025.6
823.201	587.8985	13849.55	13019.2
823.3454	590.0304	13839.9	12993.05
823.4899	592.1616	13803.05	12965.1
823.6345	594.2922	13775.65	12938.75
823.779	596.4222	13729.1	12892.05
823.9235	598.5515	13708.6	12867.9
824.068	600.6802	13661.25	12821.4
824.2126	602.8083	13578	12739
824.3571	604.9358	13575	12734.1
824.5017	607.0626	13533.85	12693.9
824.6462	609.1888	13505.2	12662.5
824.7908	611.3144	13508.05	12664
824.9354	613.4393	13501.2	12660.45
825.08	615.5636	13474.75	12629.35
825.2246	617.6873	13510.5	12666.25
825.3692	619.8103	13516.05	12671.65
825.5138	621.9327	13505.65	12662.15
825.6584	624.0544	13486.55	12646.85
825.803	626.1756	13487.9	12648.1
825.9477	628.2961	13414.85	12572.3
826.0923	630.4159	13390.5	12545.55
826.237	632.5351	13375.65	12530.9
826.3816	634.6537	13340.65	12492.95
826.5263	636.7716	13334.25	12484.8
826.6709	638.8889	13353.45	12503.5
826.8156	641.0056	13366.65	12516
826.9603	643.1216	13267.1	12417.7
827.105	645.237	13337.45	12489.3
827.2497	647.3518	13275.7	12430.4
827.3944	649.4659	13287.2	12441.85
827.5391	651.5793	13240.65	12394.9
827.6838	653.6922	13224.3	12378.3
827.8285	655.8043	13191.55	12344.55
827.9733	657.9159	13190	12338.75
828.118	660.0268	13176.55	12326.15
828.2627	662.137	13116	12266.3
828.4075	664.2466	13127.4	12274.3
828.5522	666.3556	13129.25	12278
828.697	668.4639	13097.1	12240.15
828.8418	670.5716	13102.7	12254.6
828.9865	672.6786	13078.75	12227.05
829.1313	674.785	13021.1	12163.75
829.2761	676.8907	12992.35	12139.8
829.4209	678.9958	12994.5	12144.7
829.5657	681.1002	12964.25	12111.9
829.7105	683.204	12931.2	12073
829.8553	685.3072	12912.75	12055.4
830.0001	687.4097	12896.25	12042.5
830.1449	689.5115	12896.8	12039.3
830.2898	691.6127	12869.15	12015.5
830.4346	693.7132	12863	12009.65
830.5794	695.8131	12863.1	11993.5
830.7243	697.9123	12858.6	12001
830.8691	700.0109	12838.4	11977.1
831.014	702.1089	12824.75	11966.15
831.1588	704.2061	12818.85	11961.1
831.3037	706.3028	12830.6	11971.55
831.4486	708.3987	12798.75	11942.65
831.5935	710.4941	12799.25	11941.25
831.7383	712.5887	12791.15	11932.55
831.8832	714.6827	12781.55	11917.95
832.0281	716.7761	12776.7	11917.95
832.173	718.8688	12762.25	11902.7
832.3179	720.9608	12744.15	11878.65
832.4628	723.0522	12742.8	11877.95
832.6077	725.1429	12679.6	11817.2
832.7527	727.233	12712	11850.35
832.8976	729.3224	12744.9	11881.15
833.0425	731.4112	12736.4	11874.95
833.1874	733.4993	12723.95	11858.45
833.3324	735.5867	12679.15	11816.35
833.4773	737.6735	12626.4	11759.55
833.6222	739.7596	12604.45	11741.05
833.7672	741.845	12591.2	11727.8
833.9122	743.9298	12540.6	11673.7
834.0571	746.014	12537.45	11675.7
834.2021	748.0974	12524.35	11657.8
834.347	750.1802	12529.8	11662.1
834.492	752.2624	12457.8	11591.25
834.637	754.3439	12400.8	11531
834.782	756.4247	12388.8	11513.35
834.9269	758.5048	12319.4	11449.65
835.0719	760.5843	12278.45	11411.6
835.2169	762.6631	12264.65	11395
835.3619	764.7413	12260.75	11393.3
835.5069	766.8188	12281.95	11414
835.6519	768.8956	12266.2	11397.7
835.7969	770.9718	12291.7	11421.9
835.9419	773.0473	12269.25	11404.7
836.0869	775.1221	12212.75	11343.8
836.232	777.1962	12219.25	11349.5
836.377	779.2697	12214.25	11342.65
836.522	781.3426	12206.85	11316.45
836.667	783.4147	12202	11330.3
836.8121	785.4862	12192.95	11325.7
836.9571	787.557	12130.55	11258.2
837.1021	789.6271	12063.55	11191.5
837.2472	791.6966	11995.65	11127.7
837.3922	793.7654	11936.2	11066.05
837.5373	795.8335	11892.45	11020.8
837.6823	797.901	11866.5	10996.55
837.8274	799.9678	11839.3	10965.9
837.9724	802.0339	11812.6	10943.3
838.1175	804.0993	11807.2	10927.5
838.2626	806.1641	11782.2	10908.5
838.4076	808.2282	11756.45	10886.6
838.5527	810.2916	11735.6	10861.2
838.6978	812.3544	11708.2	10837.35
838.8428	814.4164	11702.25	10834.45
838.9879	816.4778	11708.1	10834.3
839.133	818.5385	11668.2	10795.25
839.2781	820.5986	11660.85	10786.1
839.4232	822.658	11670.15	10795
839.5682	824.7166	11653.8	10783.9
839.7133	826.7747	11700.1	10827.75
839.8584	828.832	11722.1	10849.75
840.0035	830.8886	11724.9	10850
840.1486	832.9446	11700	10823.5
840.2937	834.9999	11655.95	10785.65
840.4388	837.0545	11644.9	10764.3
840.5839	839.1085	11596.7	10720
840.729	841.1618	11550.3	10673.4
840.8741	843.2143	11512.9	10640.7
841.0192	845.2662	11431.2	10554.75
841.1643	847.3175	11419.6	10543.8
841.3095	849.368	11422.15	10545.9
841.4546	851.4179	11369	10495.8
841.5997	853.467	11330.55	10454
841.7448	855.5155	11357.35	10482.45
841.8899	857.5633	11312.9	10437.85
842.0351	859.6105	11302.25	10424.8
842.1802	861.6569	11286.9	10410.85
842.3253	863.7027	11270.6	10391.9
842.4704	865.7478	11249.2	10372.6
842.6156	867.7922	11226.9	10348.6
842.7607	869.8359	11211.85	10334.05
842.9058	871.8789	11216.85	10337
843.0509	873.9212	11207.4	10296.4
843.1961	875.9629	11168.3	10288.65
843.3412	878.0039	11160.95	10283.35
843.4863	880.0441	11121.45	10241.7
843.6315	882.0837	11124.05	10246.95
843.7766	884.1226	11107.1	10225.35
843.9218	886.1609	11136.2	10259.85
844.0669	888.1984	11168.05	10289.55
844.212	890.2352	11202.3	10323.7
844.3572	892.2714	11189.75	10306.7
844.5023	894.3069	11173.15	10291.8
844.6475	896.3416	11112.3	10231.55
844.7926	898.3757	11067.7	10185.7
844.9377	900.4091	11055.2	10175.15
845.0829	902.4418	11035.3	10151.95
845.228	904.4739	10997.4	10115.75
845.3732	906.5052	11006.45	10125.55
845.5183	908.5358	10981.4	10104.05
845.6635	910.5658	10951.55	10065.9
845.8086	912.595	10944.55	10062.8
845.9538	914.6236	10871.9	9990.1
846.0989	916.6515	10887.9	10007.05
846.2441	918.6786	10821.75	9941
846.3892	920.7051	10811.5	9927.45
846.5344	922.7309	10806.95	9926.75
846.6795	924.756	10775.35	9894.25
846.8246	926.7804	10792.1	9906.85
846.9698	928.8041	10719.2	9834.8
847.1149	930.8272	10734.65	9849.8
847.2601	932.8495	10675.3	9789.55
847.4052	934.8711	10683.45	9796.3
847.5504	936.892	10661.2	9777.55
847.6955	938.9123	10604.15	9720.45
847.8407	940.9318	10595.8	9713.8
847.9858	942.9506	10579.4	9699.45
848.131	944.9688	10518.6	9633.4
848.2761	946.9862	10534.7	9648.85
848.4213	949.003	10454.7	9570.9
848.5664	951.019	10453.3	9569.6
848.7115	953.0344	10413.25	9531.5
848.8567	955.0491	10373.5	9490.1
849.0018	957.063	10365.5	9480.4
849.147	959.0763	10394.7	9511.8
849.2921	961.0888	10346.95	9462
849.4373	963.1007	10351.85	9466.95
849.5824	965.1119	10342.7	9460.55
849.7275	967.1223	10325.1	9443
849.8727	969.1321	10301.45	9420.85
850.0178	971.1412	10289.5	9406.4
850.1629	973.1495	10232.4	9349.85
850.3081	975.1572	10224	9293.5
850.4532	977.1641	10225.6	9339.4
850.5983	979.1704	10198.1	9312.65
850.7435	981.1759	10184.4	9297.1
850.8886	983.1808	10166.25	9279.2
851.0337	985.1849	10163	9267.65
851.1788	987.1884	10129.8	9241.1
851.324	989.1911	10079.45	9192.3
851.4691	991.1932	10068.85	9179.95
851.6142	993.1945	10048.7	9166
851.7593	995.1951	9980.3	9094.35
851.9045	997.1951	9983	9091.45
852.0496	999.1943	9937.3	9053.1
852.1947	1001.1928	9902.6	9012.55
852.3398	1003.1906	9852.8	8967.55
852.4849	1005.1877	9872.6	8986.35
852.63	1007.1841	9821.15	8935.35
852.7751	1009.1798	9823	8934.7
852.9202	1011.1748	9791.3	8905.9
853.0653	1013.1691	9760.9	8873.2
853.2104	1015.1627	9708.45	8824.2
853.3555	1017.1556	9647.75	8763.4
853.5006	1019.1477	9614.6	8729.8
853.6457	1021.1392	9546.2	8663.45
853.7908	1023.1299	9506.15	8620.05
853.9359	1025.12	9489.95	8605.9
854.081	1027.1093	9436.35	8555.4
854.2261	1029.0979	9444.35	8566.5
854.3712	1031.0859	9405.7	8522.95
854.5163	1033.0731	9387	8500.45
854.6613	1035.0596	9378.05	8495.85
854.8064	1037.0454	9311.25	8426.55
854.9515	1039.0304	9289.55	8401.05
855.0965	1041.0148	9261.8	8377.95
855.2416	1042.9985	9208.9	8323.65
855.3867	1044.9814	9223.9	8339.35
855.5317	1046.9636	9186.2	8299.65
855.6768	1048.9452	9146.15	8259.75
855.8219	1050.926	9141.5	8257.55
855.9669	1052.9061	9112.1	8225.4
856.112	1054.8855	9102.55	8216.1
856.257	1056.8642	9087.65	8198.45
856.4021	1058.8421	9093.85	8205.05
856.5471	1060.8194	9062.1	8173.85
856.6921	1062.7959	9039.95	8153.1
856.8372	1064.7717	9018.85	8131.05
856.9822	1066.7469	8987.15	8100.25
857.1272	1068.7213	8978.85	8088
857.2723	1070.695	8986.2	8100.95
857.4173	1072.6679	8957.1	8065.85
857.5623	1074.6402	8961.15	8072.6
857.7073	1076.6117	8943.3	8049.75
857.8523	1078.5826	8936.35	8047.15
857.9973	1080.5527	8913.75	8022.9
858.1423	1082.5221	8858.2	7968.5
858.2873	1084.4908	8810.45	7923.5
858.4323	1086.4587	8804.3	7914.35
858.5773	1088.426	8769	7879.3
858.7223	1090.3925	8751.9	7858.5
858.8673	1092.3584	8756.6	7867.75
859.0123	1094.3235	8718.7	7829.7
859.1573	1096.2879	8696.2	7805.7
859.3022	1098.2515	8705.35	7815.55
859.4472	1100.2145	8707.65	7819.1
859.5922	1102.1767	8678.45	7787.25
859.7371	1104.1382	8698.85	7807.3
859.8821	1106.099	8691.75	7802.8
860.027	1108.0591	8672.95	7784.25
860.172	1110.0185	8680.35	7791.15
860.3169	1111.9771	8676	7787.95
860.4619	1113.9351	8675.4	7784.9
860.6068	1115.8923	8687.45	7799.1
860.7517	1117.8488	8668.3	7777.95
860.8967	1119.8045	8622.45	7734.8
861.0416	1121.7596	8555.45	7667.1
861.1865	1123.7139	8515.15	7625.45
861.3314	1125.6675	8456.45	7568.85
861.4763	1127.6204	8471.3	7585.35
861.6212	1129.5726	8448.9	7559.85
861.7661	1131.524	8417.95	7529.65
861.911	1133.4748	8408.4	7520
862.0559	1135.4248	8363.7	7474.3
862.2008	1137.3741	8329.75	7440.1
862.3457	1139.3226	8294.1	7402.3
862.4905	1141.2705	8307.7	7419
862.6354	1143.2176	8247	7350.15
862.7803	1145.164	8243.75	7351.55
862.9251	1147.1097	8248.05	7358.05
863.07	1149.0546	8220.3	7330.3
863.2148	1150.9989	8187.05	7296.9
863.3597	1152.9424	8188.55	7297.7
863.5045	1154.8852	8162.1	7270.8
863.6493	1156.8272	8160.75	7270.5
863.7942	1158.7686	8165.15	7268.35
863.939	1160.7092	8112.7	7221.15
864.0838	1162.6491	8084.55	7191.3
864.2286	1164.5883	8092.4	7202.2
864.3734	1166.5267	8088.05	7196.75
864.5182	1168.4644	8089.75	7200.35
864.663	1170.4014	8080.4	7184
864.8078	1172.3377	8103.65	7214.7
864.9526	1174.2732	8105.3	7216.05
865.0974	1176.2081	8138.75	7249
865.2421	1178.1421	8176.65	7284.1
865.3869	1180.0755	8211.1	7322.05
865.5317	1182.0082	8227.15	7336.75
865.6764	1183.9401	8205.75	7316.45
865.8212	1185.8713	8152.35	7262.95
865.9659	1187.8017	8088.2	7200.65
866.1106	1189.7315	8004.6	7119.7
866.2554	1191.6605	7936.4	7051.3
866.4001	1193.5888	7885.05	7000.6
866.5448	1195.5163	7868.65	6980.55
866.6895	1197.4432	7837.9	6947.25
866.8342	1199.3693	7813.4	6923.3
866.9789	1201.2947	7757.95	6862.35
867.1236	1203.2193	7744.5	6853.9
867.2683	1205.1432	7716.05	6824.7
867.413	1207.0664	7696.5	6804.95
867.5576	1208.9889	7678.7	6783.95
867.7023	1210.9106	7651.6	6760.05
867.847	1212.8316	7631.05	6740.95
867.9916	1214.7519	7632.1	6732.65
868.1363	1216.6715	7600.8	6709.2
868.2809	1218.5903	7588.45	6699.35
868.4255	1220.5084	7583.3	6693.4
868.5701	1222.4257	7593.95	6703.85
868.7148	1224.3424	7568.2	6677.85
868.8594	1226.2583	7553.6	6657.85
869.004	1228.1735	7539.6	6648.15
869.1486	1230.0879	7537.15	6642.7
869.2932	1232.0016	7530.7	6641.15
869.4377	1233.9146	7544.55	6652.1
869.5823	1235.8269	7524.55	6635.4
869.7269	1237.7384	7536.85	6646.85
869.8715	1239.6492	7494.05	6602.4
870.016	1241.5592	7505.45	6610.95
870.1606	1243.4686	7481.95	6590.05
870.3051	1245.3772	7510.1	6617.75
870.4496	1247.285	7541.05	6651.6
870.5941	1249.1922	7558.25	6667.65
870.7387	1251.0986	7561	6671.5
870.8832	1253.0042	7577.8	6685.7
871.0277	1254.9092	7602.1	6710.1
871.1722	1256.8134	7623.7	6735.2
871.3167	1258.7169	7667.05	6774.8
871.4611	1260.6196	7663.65	6771.6
871.6056	1262.5216	7638.3	6743.9
871.7501	1264.4229	7614.4	6724.85
871.8945	1266.3234	7618.25	6725.7
872.039	1268.2232	7605.55	6713.3
872.1834	1270.1223	7553.85	6659.4
872.3278	1272.0207	7535.15	6641.8
872.4723	1273.9183	7507.9	6611.55
872.6167	1275.8151	7483.1	6593.8
872.7611	1277.7113	7499.45	6608.85
872.9055	1279.6067	7511.95	6620.1
873.0499	1281.5014	7537.1	6644.05
873.1943	1283.3953	7641.1	6746.8
873.3386	1285.2885	7707.9	6817.15
873.483	1287.181	7760.5	6869.45
873.6274	1289.0727	7772.45	6880.65
873.7717	1290.9637	7749.75	6855.25
873.9161	1292.854	7695.15	6801.8
874.0604	1294.7435	7664.75	6771.75
874.2047	1296.6323	7605.75	6714.65
874.349	1298.5204	7546.35	6650.05
874.4933	1300.4077	7512.9	6620.55
874.6376	1302.2943	7472	6580.25
874.7819	1304.1802	7472	6581.2
874.9262	1306.0653	7428.45	6534.05
875.0705	1307.9497	7405.45	6512.65
875.2147	1309.8333	7389.25	6497.65
875.359	1311.7162	7362.4	6470.8
875.5032	1313.5984	7342.9	6448.8
875.6475	1315.4798	7340.6	6446.15
875.7917	1317.3605	7312.65	6405.4
875.9359	1319.2405	7283.25	6388.2
876.0801	1321.1197	7264.7	6370.45
876.2243	1322.9982	7227.3	6332.15
876.3685	1324.876	7192.1	6300.9
876.5127	1326.753	7129.8	6238.25
876.6569	1328.6293	7093.9	6202.75
876.801	1330.5048	7049.9	6154.3
876.9452	1332.3796	6992.4	6102
877.0893	1334.2537	6994.9	6078.5
877.2335	1336.127	6954.45	6062.25
877.3776	1337.9996	6937.8	6043.45
877.5217	1339.8714	6918.5	6024.7
877.6658	1341.7426	6951.65	6016.7
877.8099	1343.6129	6885.5	5991.95
877.954	1345.4826	6855.15	5961.9
878.0981	1347.3515	6834.2	5939.1
878.2422	1349.2196	6822	5929.3
878.3862	1351.087	6813.95	5921.2
878.5303	1352.9537	6822.2	5930.5
878.6743	1354.8197	6797.05	5906.8
878.8184	1356.6849	6808.05	5915.2
878.9624	1358.5493	6805.8	5913.4
879.1064	1360.4131	6805.75	5914.5
879.2504	1362.276	6795.05	5904.9
879.3944	1364.1383	6786.15	5896.05
879.5384	1365.9998	6798.55	5901.7
879.6823	1367.8606	6770.65	5878.55
879.8263	1369.7206	6749.35	5856.65
879.9702	1371.5799	6750	5856.2
880.1142	1373.4384	6713.15	5819.8
880.2581	1375.2962	6720.3	5828.5
880.402	1377.1533	6649.45	5759.1
880.5459	1379.0096	6600.05	5708.55
880.6898	1380.8652	6585.65	5697.3
880.8337	1382.7201	6551.55	5662.35
880.9776	1384.5742	6504.7	5613.05
881.1215	1386.4275	6483.5	5590.65
881.2653	1388.2802	6477.95	5585.35
881.4092	1390.132	6441	5550.95
881.553	1391.9832	6416.7	5522.65
881.6968	1393.8336	6369.35	5475.45
881.8406	1395.6832	6369.3	5475.35
881.9844	1397.5322	6347.35	5456.7
882.1282	1399.3803	6318.1	5424.05
882.272	1401.2278	6290.7	5396.5
882.4158	1403.0745	6290.15	5401.8
882.5595	1404.9204	6227.6	5336.25
882.7033	1406.7656	6248.95	5355.9
882.847	1408.6101	6204.3	5309.65
882.9908	1410.4538	6192.65	5300.15
883.1345	1412.2968	6177.8	5286.2
883.2782	1414.139	6154.55	5262.6
883.4219	1415.9805	6147.95	5255.1
883.5656	1417.8213	6150.25	5251.25
883.7092	1419.6613	6126.15	5233.7
883.8529	1421.5006	6124.75	5232.35
883.9965	1423.3391	6111.25	5221.15
884.1402	1425.1769	6123.5	5232.05
884.2838	1427.0139	6151.3	5259.5
884.4274	1428.8502	6189.95	5297.5
884.571	1430.6858	6215.9	5321.8
884.7146	1432.5206	6172.5	5282.25
884.8582	1434.3547	6186.8	5295.25
885.0018	1436.188	6163.55	5271.25
885.1453	1438.0206	6163.5	5270.45
885.2889	1439.8524	6131.8	5239.05
885.4324	1441.6835	6125.85	5233.35
885.5759	1443.5139	6126.65	5232.45
885.7194	1445.3435	6101.55	5210.55
885.8629	1447.1724	6089.55	5199.35
886.0064	1449.0005	6083.45	5194.15
886.1499	1450.8279	6065.45	5175.8
886.2933	1452.6545	6059.6	5167.75
886.4368	1454.4804	6061	5170.1
886.5802	1456.3056	6037.55	5138.85
886.7237	1458.13	6026.75	5135.9
886.8671	1459.9536	6033.85	5140.3
887.0105	1461.7766	6007.3	5115.75
887.1539	1463.5987	5962.65	5068.65
887.2972	1465.4202	5934.25	5043.95
887.4406	1467.2409	5895.25	5001.95
887.584	1469.0608	5867.5	4976.7
887.7273	1470.88	5847.05	4955.95
887.8706	1472.6984	5823.9	4932.25
888.0139	1474.5161	5795.5	4902
888.1572	1476.3331	5771.45	4879.5
888.3005	1478.1493	5762.3	4870.35
888.4438	1479.9648	5767	4875.55
888.5871	1481.7795	5746	4854.65
888.7303	1483.5935	5740.35	4850.35
888.8736	1485.4067	5714.9	4823.35
889.0168	1487.2192	5728	4836.9
889.16	1489.031	5701.8	4804.85
889.3032	1490.842	5696.7	4806.4
889.4464	1492.6522	5691.85	4801.45
889.5896	1494.4618	5659.6	4766.25
889.7327	1496.2705	5675.3	4783.75
889.8759	1498.0785	5649.9	4756.45
890.019	1499.8858	5636.05	4743.3
890.1622	1501.6924	5623.15	4732.8
890.3053	1503.4981	5605.8	4715.35
890.4484	1505.3032	5590.75	4698.15
890.5914	1507.1075	5585.2	4694
890.7345	1508.911	5565.05	4675.3
890.8776	1510.7138	5546.3	4653.15
891.0206	1512.5159	5542.2	4650.65
891.1637	1514.3172	5509	4618.1
891.3067	1516.1178	5475.9	4587.75
891.4497	1517.9176	5481.05	4588
891.5927	1519.7166	5450.1	4560.9
891.7357	1521.515	5459.6	4561.1
891.8786	1523.3126	5436.15	4544.3
892.0216	1525.1094	5424.35	4531.5
892.1645	1526.9055	5378.25	4489.4
892.3074	1528.7008	5381.7	4491.65
892.4503	1530.4954	5342.95	4450.4
892.5932	1532.2893	5344.7	4458.7
892.7361	1534.0824	5319.9	4423.45
892.879	1535.8747	5290.65	4398.4
893.0218	1537.6663	5289.15	4400.7
893.1647	1539.4572	5276.2	4383.95
893.3075	1541.2473	5271.5	4377.9
893.4503	1543.0367	5258.1	4369.6
893.5931	1544.8253	5216.95	4321.75
893.7359	1546.6132	5199.8	4305.85
893.8787	1548.4003	5211.1	4312.95
894.0214	1550.1867	5192.5	4292.9
894.1642	1551.9723	5175.25	4282
894.3069	1553.7572	5157.5	4265.95
894.4496	1555.5414	5156.8	4267
894.5923	1557.3247	5165.55	4276.75
894.735	1559.1074	5147.9	4261.35
894.8777	1560.8893	5156.25	4268.55
895.0204	1562.6705	5169.5	4280.1
895.163	1564.4509	5158.9	4271.1
895.3056	1566.2305	5133.95	4246.15
895.4482	1568.0094	5135.4	4247.4
895.5908	1569.7876	5135.3	4250.1
895.7334	1571.565	5121.85	4233.05
895.876	1573.3417	5115.9	4228.9
896.0186	1575.1176	5090.3	4205
896.1611	1576.8928	5079.65	4194.25
896.3036	1578.6672	5079.35	4194.05
896.4461	1580.4409	5069.65	4185.3
896.5886	1582.2138	5058.45	4171.8
896.7311	1583.986	5074.35	4186.65
896.8736	1585.7575	5080.9	4194.05
897.0161	1587.5282	5082.65	4197.35
897.1585	1589.2981	5085.6	4199.55
897.3009	1591.0673	5083.1	4198.05
897.4433	1592.8358	5079.5	4192.55
897.5857	1594.6035	5055.45	4166.15
897.7281	1596.3704	5023.55	4138.3
897.8705	1598.1366	5001.3	4114.3
898.0128	1599.9021	4984.4	4097.65
898.1551	1601.6668	4957.75	4070.15
898.2975	1603.4308	4932.65	4045.05
898.4398	1605.194	4914.3	4023.35
898.5821	1606.9564	4899.1	4013.5
898.7243	1608.7182	4938.45	4050.05
898.8666	1610.4791	4963.8	4081.75
899.0088	1612.2394	4984.6	4101.5
899.1511	1613.9988	5015.8	4133.85
899.2933	1615.7576	5049.25	4165.45
899.4355	1617.5156	5066.1	4173.7
899.5776	1619.2728	5028.2	4140.7
899.7198	1621.0293	4984.4	4097.15
899.862	1622.785	4913.85	4024
900.0041	1624.54	4843	3956.2
900.1462	1626.2942	4778.9	3893.1
900.2883	1628.0477	4709	3824.25
900.4304	1629.8005	4652.9	3765.15
900.5725	1631.5525	4612.45	3726.65
900.7145	1633.3037	4562.3	3677.6
900.8566	1635.0542	4546.45	3662.9
900.9986	1636.804	4520.3	3634.2
901.1406	1638.553	4553.6	3585.85
901.2826	1640.3013	4481.9	3595.9
901.4245	1642.0488	4447.9	3563.3
901.5665	1643.7955	4430.2	3545.85
901.7085	1645.5416	4400.8	3517.2
901.8504	1647.2868	4382.5	3498.15
901.9923	1649.0313	4359.05	3472.7
902.1342	1650.7751	4362.35	3474.65
902.2761	1652.5181	4340.4	3456.45
902.4179	1654.2604	4314.35	3428
902.5598	1656.0019	4323.75	3440.15
902.7016	1657.7427	4320.9	3436.5
902.8434	1659.4828	4316.3	3433.9
902.9852	1661.222	4320.9	3434.95
903.127	1662.9606	4308.3	3422.05
903.2687	1664.6984	4324.95	3439
903.4105	1666.4354	4340.15	3453.35
903.5522	1668.1717	4302.8	3416.2
903.6939	1669.9072	4246.4	3359.2
903.8356	1671.642	4223.55	3334.45
903.9773	1673.3761	4198.8	3313.05
904.119	1675.1094	4161.95	3276.2
904.2606	1676.8419	4130.45	3246.7
904.4022	1678.5737	4123.7	3235.2
904.5439	1680.3048	4111.9	3224.65
904.6855	1682.0351	4080.35	3195.2
904.827	1683.7646	4042	3154.65
904.9686	1685.4934	4045.2	3161.7
905.1101	1687.2215	4019.85	3131.8
905.2517	1688.9488	3990	3106.45
905.3932	1690.6754	3995.95	3111.6
905.5347	1692.4012	3977.55	3092.8
905.6761	1694.1263	3963.8	3076.65
905.8176	1695.8506	3953.25	3064.7
905.9591	1697.5742	3935.9	3049.85
906.1005	1699.297	3915.85	3033.3
906.2419	1701.0191	3898.15	3012.6
906.3833	1702.7404	3881.3	2998.75
906.5246	1704.461	3877.8	2993.35
906.666	1706.1808	3872.75	2986.9
906.8073	1707.8999	3850.7	2964.1
906.9487	1709.6182	3840.65	2958.35
907.09	1711.3358	3827.95	2943.4
907.2313	1713.0527	3817.15	2935.95
907.3725	1714.7688	3799.55	2908.15
907.5138	1716.4841	3802.5	2917.05
907.655	1718.1987	3783.55	2892.85
907.7962	1719.9126	3770.05	2887.9
907.9374	1721.6257	3768.6	2882.65
908.0786	1723.338	3766.2	2881.65
908.2198	1725.0496	3747	2862.15
908.3609	1726.7605	3743.55	2857.85
908.502	1728.4706	3744.55	2858.8
908.6431	1730.18	3726.3	2839.05
908.7842	1731.8886	3722.65	2840.55
908.9253	1733.5964	3721.7	2830.7
909.0664	1735.3036	3722.7	2835.85
909.2074	1737.0099	3717.3	2832.9
909.3484	1738.7156	3705.3	2822.45
909.4894	1740.4204	3681	2794.35
909.6304	1742.1246	3689.95	2804.85
909.7714	1743.8279	3681.3	2797.35
909.9123	1745.5306	3674	2789.35
910.0532	1747.2325	3668.9	2785.35
910.1941	1748.9336	3655.7	2772.35
910.335	1750.634	3649.1	2762.85
910.4759	1752.3336	3653.45	2771.2
910.6168	1754.0325	3642.75	2759.35
910.7576	1755.7307	3644.9	2763.4
910.8984	1757.4281	3651.35	2764.95
911.0392	1759.1247	3655.5	2763.5
911.18	1760.8206	3629.8	2742.15
911.3208	1762.5158	3635.15	2745.95
911.4615	1764.2102	3606.85	2722.8
911.6022	1765.9039	3608.4	2725.9
911.7429	1767.5968	3599.6	2715.65
911.8836	1769.289	3593.85	2710.7
912.0243	1770.9804	3589.7	2705.15
912.1649	1772.6711	3576.3	2691.9
912.3056	1774.361	3572.6	2687.35
912.4462	1776.0502	3573.45	2689.2
912.5868	1777.7386	3559.85	2675
912.7274	1779.4263	3554.65	2670.95
912.8679	1781.1132	3545.8	2662.9
913.0084	1782.7994	3551.4	2668.65
913.149	1784.4849	3543.45	2660.8
913.2895	1786.1696	3534.6	2633.2
913.4299	1787.8535	3542.85	2660.9
913.5704	1789.5367	3529.3	2647.4
913.7108	1791.2192	3509.85	2626.6
913.8513	1792.9009	3529.05	2618.8
913.9917	1794.5818	3498.25	2613.65
914.132	1796.2621	3497.75	2614.85
914.2724	1797.9415	3469.35	2586.15
914.4128	1799.6202	3473.85	2590.35
914.5531	1801.2982	3471.5	2588.05
914.6934	1802.9755	3466	2580.6
914.8337	1804.6519	3455.35	2571.95
914.9739	1806.3277	3429.45	2546.75
915.1142	1808.0027	3432.4	2550.5
915.2544	1809.6769	3435.35	2552.6
915.3946	1811.3504	3426.15	2541.05
915.5348	1813.0231	3421.95	2537.95
915.675	1814.6951	3415.65	2533.1
915.8151	1816.3664	3415.25	2528.9
915.9553	1818.0369	3410.2	2526.25
916.0954	1819.7067	3397.4	2516.6
916.2355	1821.3757	3398.05	2511.2
916.3755	1823.044	3385.2	2503.05
916.5156	1824.7115	3384.8	2499
916.6556	1826.3783	3365.45	2482.85
916.7956	1828.0443	3363.4	2480.05
916.9356	1829.7096	3366.15	2480.55
917.0756	1831.3741	3357.95	2468.4
917.2155	1833.0379	3358	2474.95
917.3555	1834.701	3341.75	2454.75
917.4954	1836.3633	3337.7	2455.35
917.6353	1838.0248	3335.75	2452.2
917.7751	1839.6856	3323.1	2438
917.915	1841.3457	3329.7	2446.3
918.0548	1843.005	3307.2	2424.2
918.1946	1844.6636	3304.4	2422.75
918.3344	1846.3214	3303.75	2420.35
918.4742	1847.9785	3297.65	2413.2
918.6139	1849.6349	3293.2	2406.1
918.7537	1851.2904	3300.25	2406.7
918.8934	1852.9453	3283.8	2397.9
919.0331	1854.5994	3271.05	2382.9
919.1727	1856.2528	3278.95	2388.6
919.3124	1857.9054	3264.15	2379.5
919.452	1859.5572	3255.25	2370.95
919.5916	1861.2083	3247.75	2362.5
919.7312	1862.8587	3257.6	2373.35
919.8708	1864.5084	3249.45	2364.45
920.0103	1866.1572	3240.85	2357.1
920.1498	1867.8054	3224.95	2341.15
920.2893	1869.4528	3219.05	2332.5
920.4288	1871.0994	3205.45	2319.9
920.5683	1872.7453	3209.4	2324.8
920.7077	1874.3905	3215.6	2324.65
920.8471	1876.0349	3207.05	2322.5
920.9865	1877.6786	3214.8	2330.25
921.1259	1879.3215	3191.65	2307.45
921.2653	1880.9637	3188	2302.25
921.4046	1882.6051	3185.25	2301.45
921.5439	1884.2458	3183.85	2297
921.6832	1885.8858	3159.8	2276.2
921.8225	1887.525	3167	2282.6
921.9617	1889.1634	3159.95	2274.55
922.101	1890.8011	3143.15	2257.45
922.2402	1892.4381	3148.25	2264.7
922.3794	1894.0743	3149.1	2266.5
922.5185	1895.7098	3140.9	2256.1
922.6577	1897.3446	3137.25	2253.45
922.7968	1898.9786	3112.95	2225.45
922.9359	1900.6118	3119.35	2236
923.075	1902.2443	3119.45	2234.75
923.214	1903.8761	3104	2219.15
923.3531	1905.5071	3101.05	2214.75
923.4921	1907.1374	3092.55	2206.95
923.6311	1908.7669	3084.25	2200.1
923.77	1910.3957	3076.95	2193.45
923.909	1912.0237	3067.7	2182.35
924.0479	1913.651	3061.25	2178
924.1868	1915.2776	3056.5	2175.45
924.3257	1916.9034	3057	2173.4
924.4646	1918.5285	3046.95	2165.65
924.6034	1920.1528	3027.55	2143.5
924.7422	1921.7764	3028.4	2144.9
924.881	1923.3992	3024	2139.35
925.0198	1925.0213	3004.95	2121.85
925.1586	1926.6427	2989.8	2106.85
925.2973	1928.2633	3198.5	2068
925.436	1929.8832	3024.9	2137
925.5747	1931.5023	2998.5	2117.15
925.7134	1933.1207	2974.2	2090.7
925.852	1934.7383	2981.5	2097.85
925.9906	1936.3552	2967.15	2085.35
926.1292	1937.9714	2963.45	2078.9
926.2678	1939.5868	2955.7	2070.85
926.4064	1941.2015	2950.05	2065.65
926.5449	1942.8154	2937.5	2053.85
926.6834	1944.4286	2937.5	2052.95
926.8219	1946.041	2942.1	2037.1
926.9604	1947.6528	2925.9	2037.5
927.0988	1949.2637	2907.2	2024.3
927.2372	1950.8739	2911.75	2027.8
927.3756	1952.4834	2895.85	2012.55
927.514	1954.0921	2914.05	2030.4
927.6523	1955.7001	2906.1	2020.45
927.7907	1957.3074	2879.35	1998.4
927.929	1958.9139	2879.65	1998.2
928.0673	1960.5197	2890.15	2006.4
928.2055	1962.1247	2874.95	1991.1
928.3438	1963.729	2863.5	1981.15
928.482	1965.3325	2873.7	1966.75
928.6202	1966.9353	2848.7	1967.25
928.7584	1968.5374	2853	1970.45
928.8965	1970.1387	2849.55	1966.65
929.0346	1971.7393	2839.3	1956
929.1727	1973.3392	2830.8	1949.2
929.3108	1974.9383	2827.3	1946
929.4489	1976.5366	2807.5	1925.5
929.5869	1978.1342	2807.75	1922.2
929.7249	1979.7311	2806.05	1925.25
929.8629	1981.3273	2804.95	1921.65
930.0009	1982.9227	2806.7	1923.45
930.1388	1984.5173	2798.75	1918
930.2767	1986.1112	2782.25	1902.75
930.4146	1987.7044	2776	1894.65
930.5525	1989.2968	2762.7	1880.6
930.6904	1990.8885	2776.4	1892
930.8282	1992.4795	2768.35	1886.9
930.966	1994.0697	2770.65	1889.05
931.1038	1995.6592	2758.9	1879.35
931.2415	1997.2479	2750.5	1869.25
931.3793	1998.8359	2756.3	1876.85
931.517	2000.4232	2738	1859.05
931.6547	2002.0097	2726.1	1847.7
931.7923	2003.5955	2727.45	1846.8
931.93	2005.1805	2730.4	1849.95
932.0676	2006.7648	2723.35	1841.65
932.2052	2008.3484	2715.15	1835.35
932.3427	2009.9312	2723	1839.9
932.4803	2011.5133	2713.95	1834.05
932.6178	2013.0946	2703.45	1821.7
932.7553	2014.6752	2702.2	1823.25
932.8928	2016.2551	2699.55	1819.35
933.0302	2017.8342	2689.6	1811.3
933.1676	2019.4126	2687.35	1808.8
933.305	2020.9902	2689.5	1809.9
933.4424	2022.5672	2683.3	1801.45
933.5798	2024.1433	2672.3	1787.7
933.7171	2025.7188	2676.85	1797.65
933.8544	2027.2935	2679.8	1799.75
933.9917	2028.8674	2670.3	1789.7
934.129	2030.4406	2656.8	1777.4
934.2662	2032.0131	2644.75	1765.4
934.4034	2033.5849	2644.7	1760.2
934.5406	2035.1559	2646.5	1765.95
934.6778	2036.7261	2638.05	1758.5
934.8149	2038.2957	2646.15	1765.1
934.952	2039.8645	2650.3	1768.35
935.0891	2041.4325	2643.2	1759.85
935.2262	2042.9998	2649.9	1770.55
935.3632	2044.5664	2626.9	1746.25
935.5002	2046.1323	2633.35	1754.05
935.6372	2047.6974	2622.6	1743.55
935.7742	2049.2617	2617.35	1739.55
935.9111	2050.8254	2620	1735.15
936.048	2052.3883	2626.85	1749.1
936.1849	2053.9504	2614.85	1732.5
936.3218	2055.5118	2612.4	1730.5
936.4586	2057.0725	2606.05	1721.45
936.5955	2058.6325	2598.65	1718.9
936.7323	2060.1917	2590.65	1710.05
936.869	2061.7502	2601.05	1718.5
937.0058	2063.3079	2596.5	1717.5
937.1425	2064.8649	2588.1	1704.3
937.2792	2066.4212	2584.05	1702.4
937.4159	2067.9767	2575.45	1696.35
937.5525	2069.5315	2572.9	1693.6
937.6891	2071.0856	2563.35	1682.45
937.8257	2072.6389	2556	1674.7
937.9623	2074.1915	2547.55	1669.25
938.0989	2075.7433	2547.1	1663.95
938.2354	2077.2945	2541.45	1661.9
938.3719	2078.8448	2542.9	1661.9
938.5084	2080.3945	2549.35	1670.6
938.6448	2081.9434	2543.05	1665.25
938.7812	2083.4916	2539.1	1658.1
938.9176	2085.039	2531.25	1649.1
939.054	2086.5857	2548.8	1665.8
939.1903	2088.1317	2524.7	1640.85
939.3267	2089.677	2526.55	1644.05
939.463	2091.2215	2530	1648.85
939.5992	2092.7652	2525.55	1642.55
939.7355	2094.3083	2523.4	1640.55
939.8717	2095.8506	2511.35	1630.65
940.0079	2097.3921	2506.55	1627.3
940.1441	2098.933	2507.25	1626.4
940.2802	2100.4731	2505.5	1624
940.4163	2102.0124	2517.55	1619.85
940.5524	2103.5511	2504.65	1624.35
940.6885	2105.089	2495.4	1614.05
940.8245	2106.6261	2492.25	1611.85
940.9606	2108.1626	2496.1	1614.35
941.0965	2109.6983	2510.5	1600.1
941.2325	2111.2332	2495.6	1614.4
941.3684	2112.7675	2496	1613.5
941.5044	2114.301	2482.5	1601
941.6403	2115.8337	2485.3	1605.4
941.7761	2117.3657	2475.8	1594.2
941.912	2118.897	2471.15	1587.45
942.0478	2120.4276	2478.2	1590.2
942.1835	2121.9575	2469.85	1592.1
942.3193	2123.4866	2489.45	1593.65
942.455	2125.0149	2468.35	1585.2
942.5907	2126.5426	2453.15	1573.45
942.7264	2128.0695	2448.65	1565.9
942.8621	2129.5956	2446.75	1568.85
942.9977	2131.1211	2457.45	1572.55
943.1333	2132.6458	2454.2	1573.35
943.2689	2134.1698	2444.75	1563.75
943.4044	2135.693	2439.5	1556.65
943.54	2137.2155	2441.6	1557.95
943.6755	2138.7373	2431.2	1550.85
943.8109	2140.2584	2437	1555.45
943.9464	2141.7787	2433.6	1547.55
944.0818	2143.2983	2425.9	1548.2
944.2172	2144.8171	2417.45	1539.4
944.3526	2146.3353	2411.2	1530.3
944.4879	2147.8527	2401.65	1522.85
944.6232	2149.3693	2408.45	1527.05
944.7585	2150.8853	2400	1518.6
944.8938	2152.4005	2397.1	1515.65
945.029	2153.9149	2401.05	1520.15
945.1642	2155.4287	2397.95	1517.15
945.2994	2156.9417	2379.15	1496.05
945.4346	2158.454	2388.25	1506.4
945.5697	2159.9655	2378.15	1497.65
945.7048	2161.4764	2381.75	1501.15
945.8399	2162.9865	2373.15	1494.1
945.9749	2164.4958	2377.9	1494.65
946.1099	2166.0045	2378.65	1497.65
946.2449	2167.5124	2361.95	1482.25
946.3799	2169.0195	2365.5	1484.55
946.5148	2170.526	2364.7	1482.5
946.6498	2172.0317	2352.3	1469.85
946.7846	2173.5367	2352.45	1472.85
946.9195	2175.0409	2344.95	1466.05
947.0543	2176.5445	2352	1472.15
947.1891	2178.0473	2337.9	1455.85
947.3239	2179.5494	2336.95	1452.7
947.4587	2181.0507	2335.65	1455
947.5934	2182.5513	2324.45	1444.15
947.7281	2184.0512	2331.2	1450.3
947.8628	2185.5504	2318.6	1436.6
947.9974	2187.0488	2316.75	1435.15
948.132	2188.5465	2313.9	1433.8
948.2666	2190.0435	2301.6	1419.8
948.4012	2191.5397	2305.4	1425.75
948.5357	2193.0353	2311.25	1428.05
948.6702	2194.5301	2291.9	1409.8
948.8047	2196.0241	2288.2	1406.6
948.9392	2197.5175	2285.3	1401.7
949.0736	2199.0101	2285.55	1401.65
949.208	2200.502	2273.7	1392.75
949.3424	2201.9931	2261.8	1381.3
949.4767	2203.4835	2263.15	1381.85
949.611	2204.9733	2269.8	1385.15
949.7453	2206.4622	2261.3	1380.9
949.8796	2207.9505	2244.65	1361.7
950.0138	2209.438	2247.1	1369.15
950.148	2210.9248	2245.85	1363.4
950.2822	2212.4109	2233.7	1355.35
950.4164	2213.8962	2238.75	1356.55
950.5505	2215.3809	2229.5	1347.05
950.6846	2216.8648	2238.85	1357.4
950.8186	2218.3479	2233.85	1346.35
950.9527	2219.8304	2224.85	1339.65
951.0867	2221.3121	2211.6	1326.65
951.2207	2222.7931	2212.8	1331.3
951.3546	2224.2733	2209.85	1328.35
951.4886	2225.7529	2211.95	1331.3
951.6225	2227.2317	2196.75	1313.3
951.7563	2228.7098	2192	1312.15
951.8902	2230.1872	2194.8	1315.25
952.024	2231.6638	2184.45	1305.05
952.1578	2233.1397	2186.45	1300.75
952.2916	2234.6149	2187.7	1308.75
952.4253	2236.0894	2179	1298.45
952.559	2237.5632	2179.4	1289.75
952.6927	2239.0362	2166.3	1285.35
952.8263	2240.5085	2171.85	1290.6
952.9599	2241.9801	2164.7	1282.5
953.0935	2243.4509	2154.75	1273.35
953.2271	2244.921	2146.3	1265.5
953.3606	2246.3904	2158.4	1273.8
953.4941	2247.8591	2141.8	1261.4
953.6276	2249.3271	2131.6	1251.9
953.7611	2250.7943	2140.45	1258.45
953.8945	2252.2608	2123.75	1243.35
954.0279	2253.7266	2133.5	1253.3
954.1612	2255.1917	2124.8	1243.75
954.2946	2256.656	2124.45	1241.2
954.4279	2258.1197	2109.55	1229.75
954.5612	2259.5826	2115.7	1230.95
954.6944	2261.0447	2105	1223.95
954.8276	2262.5062	2106.55	1222.6
954.9608	2263.9669	2108.65	1226.7
955.094	2265.4269	2104.65	1227.15
955.2271	2266.8862	2100.7	1219.8
955.3602	2268.3448	2094.45	1212
955.4933	2269.8026	2092.75	1213.25
955.6264	2271.2598	2081.85	1201.05
955.7594	2272.7162	2092.4	1210.4
955.8924	2274.1719	2086.45	1204.95
956.0253	2275.6268	2084.3	1203
956.1583	2277.0811	2068.8	1186.8
956.2912	2278.5346	2072.2	1193.5
956.4241	2279.9874	2067.35	1188.25
956.5569	2281.4395	2067.65	1188.4
956.6897	2282.8908	2061.4	1175.45
956.8225	2284.3414	2069.85	1188.3
956.9553	2285.7914	2055.15	1173.2
957.088	2287.2406	2049.9	1166.55
957.2207	2288.689	2062.05	1180.1
957.3534	2290.1368	2046.45	1163.15
957.486	2291.5838	2049	1165.1
957.6186	2293.0302	2045.7	1162.5
957.7512	2294.4758	2034.15	1154.05
957.8838	2295.9206	2031.4	1148.35
958.0163	2297.3648	2031.9	1151
958.1488	2298.8082	2028.8	1146.8
958.2813	2300.251	2018.2	1135.5
958.4137	2301.693	2015.15	1131
958.5461	2303.1343	2022.1	1140.55
958.6785	2304.5748	2010.6	1128.75
958.8108	2306.0147	2012.4	1132
958.9432	2307.4538	2012	1129.05
959.0754	2308.8922	1995.35	1118.35
959.2077	2310.3299	1998.05	1118.5
959.3399	2311.7669	1992.1	1112.35
959.4721	2313.2031	1988.25	1108
959.6043	2314.6387	1980.3	1096.8
959.7365	2316.0735	1986.95	1108.7
959.8686	2317.5076	1990.35	1109.95
960.0006	2318.941	1986.75	1101.3
960.1327	2320.3737	1989.6	1107
960.2647	2321.8056	1976.6	1092.8
960.3967	2323.2369	1976.7	1093.15
960.5287	2324.6674	1972.35	1089.5
960.6606	2326.0972	1972.05	1088.6
960.7925	2327.5263	1956.5	1075.55
960.9244	2328.9547	1957.85	1075
961.0562	2330.3823	1965.75	1082.6
961.1881	2331.8092	1959.35	1074.5
961.3198	2333.2355	1951.6	1069.5
961.4516	2334.661	1946.75	1062.75
961.5833	2336.0858	1943.45	1059.55
961.715	2337.5098	1930	1049.8
961.8467	2338.9332	1939.55	1058.55
961.9783	2340.3558	1933.15	1047.95
962.1099	2341.7778	1934.05	1051.55
962.2415	2343.199	1917.9	1034.05
962.373	2344.6195	1917.8	1037.65
962.5045	2346.0393	1912.8	1032.6
962.636	2347.4583	1918.95	1035.15
962.7675	2348.8767	1910.85	1027.75
962.8989	2350.2943	1913.25	1029
963.0303	2351.7113	1921.1	1036
963.1617	2353.1275	1906.05	1025
963.293	2354.543	1908	1017.9
963.4243	2355.9578	1894.5	1012.7
963.5556	2357.3718	1891.3	1008.2
963.6868	2358.7852	1888.75	1004.65
963.818	2360.1978	1883.4	1000.3
963.9492	2361.6098	1872.4	992.15
964.0803	2363.021	1885.7	997.85
964.2114	2364.4315	1864	982.45
964.3425	2365.8413	1868	986.5
964.4736	2367.2504	1861.95	980.9
964.6046	2368.6587	1847.25	965.35
964.7356	2370.0664	1843.05	960.9
964.8666	2371.4733	1850.45	968.9
964.9975	2372.8795	1839.65	956.7
965.1284	2374.285	1842.15	960.3
965.2593	2375.6899	1831.3	950.25
965.3901	2377.0939	1822.9	941.35
965.5209	2378.4973	1831.1	950.45
965.6517	2379.9	1826.25	942.5
965.7825	2381.3019	1812.95	929.6
965.9132	2382.7032	1817.3	935.15
966.0439	2384.1037	1813.35	935.55
966.1745	2385.5035	1806.65	926.25
966.3051	2386.9027	1806.35	924.8
966.4357	2388.3011	1802.9	918.9
966.5663	2389.6987	1801.4	919.2
966.6968	2391.0957	1782.15	899.9
966.8273	2392.492	1788.1	904.25
966.9578	2393.8876	1784.25	901.35
967.0882	2395.2824	1779.1	896.9
967.2186	2396.6765	1781	899.35
967.349	2398.07	1766	882.65
967.4793	2399.4627	1773.75	891.15
967.6097	2400.8547	1774.85	892.45
967.7399	2402.246	1776.35	888.4
967.8702	2403.6366	1758.9	874.45
968.0004	2405.0265	1745.8	863.1
968.1306	2406.4156	1756.4	870.55
968.2607	2407.8041	1755.25	869.7
968.3909	2409.1918	1747.35	863.5
968.521	2410.5789	1734.25	849.75
968.651	2411.9652	1734.85	851.15
968.781	2413.3508	1729.45	847.5
968.911	2414.7358	1729.15	844.3
969.041	2416.12	1721.8	842.05
969.1709	2417.5035	1719.95	838.4
969.3008	2418.8863	1726.3	841.65
969.4307	2420.2684	1708.9	824.25
969.5606	2421.6497	1713.2	829.8
969.6904	2423.0304	1702.1	820.4
969.8201	2424.4104	1713.85	829.65
969.9499	2425.7896	1707.8	823.25
970.0796	2427.1682	1702.2	819.35
970.2093	2428.546	1700	817.05
970.3389	2429.9232	1698.55	814
970.4685	2431.2996	1699.05	815.3
970.5981	2432.6753	1693.55	811.45
970.7277	2434.0503	1698.95	815.5
970.8572	2435.4246	1687.8	804.4
970.9867	2436.7982	1695.95	811.1
971.1161	2438.1711	1678.95	795.7
971.2456	2439.5433	1684.3	800.35
971.375	2440.9148	1682.55	794.5
971.5043	2442.2856	1676.2	793.85
971.6336	2443.6557	1667.35	782.7
971.7629	2445.025	1668.05	785.65
971.8922	2446.3937	1666.2	781.2
972.0214	2447.7617	1662.85	780.2
972.1506	2449.1289	1651.55	767.5
972.2798	2450.4955	1657.2	769.7
972.4089	2451.8613	1656.5	774.75
972.538	2453.2265	1645.9	763.8
972.6671	2454.5909	1657.95	774.4
972.7961	2455.9546	1646.15	763.2
972.9251	2457.3177	1651.85	768.65
973.0541	2458.68	1647.15	762.25
973.1831	2460.0416	1648.8	768.1
973.312	2461.4025	1640.3	754.65
973.4408	2462.7627	1655.55	760.85
973.5697	2464.1222	1641.25	758.55
973.6985	2465.4811	1631.5	747.1
973.8273	2466.8392	1636.2	755.9
973.956	2468.1966	1641.2	757.35
974.0847	2469.5533	1635.6	751.55
974.2134	2470.9093	1624.75	741.8
974.3421	2472.2645	1623.35	739.8
974.4707	2473.6191	1613.9	731.4
974.5993	2474.973	1618.15	735.15
974.7278	2476.3262	1610.5	725.6
974.8563	2477.6787	1612.25	729.3
974.9848	2479.0305	1605.4	720.65
975.1132	2480.3816	1613.65	728.1
975.2417	2481.7319	1606.8	724.45
975.37	2483.0816	1609.25	724.25
975.4984	2484.4306	1605.1	722.1
975.6267	2485.7789	1593.8	713.3
975.755	2487.1264	1589.2	707.4
975.8833	2488.4733	1590.8	709.3
976.0115	2489.8195	1595.8	707.75
976.1397	2491.165	1589.45	704.9
976.2678	2492.5097	1589.25	703.45
976.3959	2493.8538	1577.7	697.15
976.524	2495.1972	1571.9	687.45
976.6521	2496.5398	1572.15	689.15
976.7801	2497.8818	1575.8	689.9
976.9081	2499.2231	1564.8	682.85
977.036	2500.5637	1561.5	678.45
977.164	2501.9035	1559	677.05
977.2918	2503.2427	1562.3	677.1
977.4197	2504.5812	1562.1	678.3
977.5475	2505.919	1566.2	681.7
977.6753	2507.256	1547.05	663.25
977.8031	2508.5924	1549.4	666.2
977.9308	2509.9281	1556.2	668.15
978.0585	2511.2631	1543.9	661.4
978.1861	2512.5974	1542.85	661.55
978.3137	2513.9309	1544.8	663.05
978.4413	2515.2638	1568.9	655.6
978.5689	2516.596	1545.75	665.15
978.6964	2517.9275	1530.65	647.5
978.8239	2519.2583	1532.8	649.65
978.9513	2520.5884	1526.8	642
979.0788	2521.9178	1527.7	645.4
979.2062	2523.2465	1522.95	641.95
979.3335	2524.5745	1524.85	640.9
979.4608	2525.9018	1513.1	632.3
979.5881	2527.2284	1514.05	632.45
979.7154	2528.5543	1512.6	630.5
979.8426	2529.8796	1511.25	630
979.9698	2531.2041	1508.1	627.05
980.0969	2532.5279	1510.5	630.25
980.224	2533.851	1504.9	622.35
980.3511	2535.1735	1504.2	622.2
980.4781	2536.4952	1497.85	614.3
980.6052	2537.8163	1501.6	618.1
980.7321	2539.1366	1502.5	624.05
980.8591	2540.4562	1498.85	614
980.986	2541.7752	1494.8	613.7
981.1129	2543.0935	1488.15	605.15
981.2397	2544.411	1498.7	615.8
981.3665	2545.7279	1487.5	605.95
981.4933	2547.0441	1495.2	612.55
981.62	2548.3596	1490	605.65
981.7467	2549.6744	1483.15	600.35
981.8734	2550.9885	1495.05	603.65
982.0001	2552.3019	1480.9	598.4
982.1267	2553.6146	1478.2	593
982.2532	2554.9266	1474.1	590.8
982.3798	2556.2379	1473.55	589.45
982.5063	2557.5485	1471.9	591.35
982.6327	2558.8585	1478.25	590.3
982.7592	2560.1677	1473.9	588.1
982.8856	2561.4762	1466.55	584.05
983.0119	2562.7841	1470.05	583.45
983.1383	2564.0913	1462.8	582.6
983.2646	2565.3977	1469.6	587.95
983.3908	2566.7035	1462.3	578.3
983.517	2568.0086	1467.05	581.8
983.6432	2569.313	1463.1	576.85
983.7694	2570.6167	1461.65	577.2
983.8955	2571.9197	1459.05	576.75
984.0216	2573.222	1458.6	572.5
984.1476	2574.5236	1456.4	572.9
984.2737	2575.8246	1453.8	567.45
984.3996	2577.1248	1452.9	569.15
984.5256	2578.4244	1449.95	567.4
984.6515	2579.7232	1443.8	562.45
984.7774	2581.0214	1478.3	555.75
984.9032	2582.3189	1445.25	562.45
985.029	2583.6157	1449.65	562.95
985.1548	2584.9118	1447.95	567.8
985.2806	2586.2072	1439.15	559
985.4063	2587.5019	1444.6	562.45
985.5319	2588.7959	1438.55	554.95
985.6576	2590.0893	1438.65	554.25
985.7832	2591.3819	1430.45	549.4
985.9087	2592.6739	1430.25	548.75
986.0343	2593.9652	1425.1	542.9
986.1597	2595.2557	1427.95	547.4
986.2852	2596.5456	1425.8	540.2
986.4106	2597.8348	1420.5	540.05
986.536	2599.1234	1414.35	531.35
986.6614	2600.4112	1417.2	534.7
986.7867	2601.6983	1416.85	530.25
986.912	2602.9848	1410.8	528.2
987.0372	2604.2705	1417.8	526.8
987.1624	2605.5556	1407.9	524.6
987.2876	2606.84	1410.2	529.15
987.4128	2608.1237	1409.2	524.25
987.5379	2609.4067	1401.9	519.3
987.6629	2610.689	1403.75	514.05
987.788	2611.9707	1395.15	510.95
987.913	2613.2516	1399.85	511.8
988.0379	2614.5319	1388.35	507.5
988.1629	2615.8115	1382.1	498.25
988.2878	2617.0903	1384.75	502.1
988.4126	2618.3685	1382.2	498.8
988.5375	2619.6461	1388.75	505
988.6622	2620.9229	1380.15	497.45
988.787	2622.199	1384.7	499.85
988.9117	2623.4745	1376.3	494.3
989.0364	2624.7493	1373.55	491.15
989.161	2626.0234	1364.25	483.1
989.2857	2627.2968	1379.5	496.9
989.4102	2628.5695	1372.1	487.75
989.5348	2629.8415	1364.9	482
989.6593	2631.1128	1359.65	476.6
989.7837	2632.3835	1362	480.95
989.9082	2633.6535	1351.95	467.5
990.0326	2634.9228	1351.85	470.5
990.1569	2636.1914	1357.8	476.5
990.2812	2637.4593	1358.35	470.75
990.4055	2638.7265	1348.65	466.45
990.5298	2639.9931	1343.05	461.3
990.654	2641.259	1341.75	459.35
990.7782	2642.5242	1346.3	464
990.9023	2643.7887	1339.3	458.35
991.0264	2645.0525	1347.65	464.2
991.1505	2646.3156	1344.2	462.1
991.2745	2647.5781	1336.65	456.8
991.3985	2648.8398	1329.65	449.25
991.5225	2650.1009	1340.35	448.9
991.6464	2651.3613	1333.9	452.9
991.7703	2652.6211	1324.65	442.2
991.8942	2653.8801	1331.7	448.9
992.018	2655.1385	1330.4	443.55
992.1418	2656.3961	1325.2	442.95
992.2655	2657.6531	1325.2	444.15
992.3892	2658.9094	1326.65	443.8
992.5129	2660.1651	1319.7	438.75
992.6366	2661.42	1318.4	437.05
992.7602	2662.6743	1317.6	434.7
992.8837	2663.9279	1315.75	434.25
993.0073	2665.1808	1323.6	439
993.1307	2666.433	1320.65	439.15
993.2542	2667.6846	1320.45	437.25
993.3776	2668.9354	1313.15	427.1
993.501	2670.1856	1307	425.05
993.6244	2671.4351	1309.45	426.8
993.7477	2672.6839	1313.3	430.35
993.8709	2673.9321	1301.15	417.5
993.9942	2675.1795	1304.8	423.9
994.1174	2676.4263	1299.45	417.2
994.2405	2677.6724	1301.65	420.95
994.3637	2678.9179	1298.2	415.75
994.4868	2680.1626	1302.75	421.2
994.6098	2681.4067	1299.95	417.9
994.7328	2682.6501	1293.95	411.5
994.8558	2683.8928	1290.5	408
994.9788	2685.1348	1290.25	410.9
995.1017	2686.3761	1284.15	401.4
995.2245	2687.6168	1292.8	410.45
995.3474	2688.8568	1285.3	403.8
995.4702	2690.0961	1286.8	405.1
995.5929	2691.3348	1279.75	397.05
995.7156	2692.5727	1277.65	395.05
995.8383	2693.81	1277.8	397.55
995.961	2695.0466	1276.2	396
996.0836	2696.2826	1279.3	394.6
996.2062	2697.5178	1276.75	391.35
996.3287	2698.7524	1277.35	397.9
996.4512	2699.9863	1279.3	396.5
996.5737	2701.2195	1268.5	388.15
996.6961	2702.452	1275.1	392.1
996.8185	2703.6839	1273.6	390.1
996.9408	2704.9151	1266.1	385.8
997.0631	2706.1456	1264.55	383.85
997.1854	2707.3755	1263.45	380
997.3077	2708.6046	1269.75	385.35
997.4299	2709.8331	1272.2	389.85
997.552	2711.0609	1264.45	383.45
997.6742	2712.2881	1262.85	380.5
997.7963	2713.5145	1263.8	380.85
997.9183	2714.7403	1258.65	376.4
998.0403	2715.9654	1257.55	376.45
998.1623	2717.1899	1268.05	369.8
998.2842	2718.4136	1251.8	369.05
998.4062	2719.6367	1248.1	365.95
998.528	2720.8591	1258.35	371.2
998.6498	2722.0809	1249.25	367.65
998.7716	2723.3019	1251.35	367.25
998.8934	2724.5223	1249.9	366.85
999.0151	2725.7421	1247.55	364.6
999.1368	2726.9611	1253.3	367.45
999.2584	2728.1795	1250.5	363.05
999.38	2729.3972	1237.5	355.6
999.5016	2730.6142	1246.3	353.55
999.6231	2731.8306	1237.45	355.7
999.7446	2733.0462	1240.5	355.85
999.8661	2734.2612	1235.8	351.5
999.9875	2735.4756	1228.75	345.55
1000.1089	2736.6892	1227.3	344.95
1000.2302	2737.9022	1231.5	351.5
1000.3515	2739.1145	1222.15	337.95
1000.4728	2740.3262	1221.55	334.8
1000.594	2741.5372	1215.65	333.25
1000.7152	2742.7475	1219.05	335.8
1000.8363	2743.9571	1221.1	338.9
1000.9575	2745.1661	1220.45	336.35
1001.0785	2746.3744	1212.1	331.25
1001.1996	2747.582	1209.95	328.5
1001.3206	2748.7889	1210.7	326.85
1001.4415	2749.9952	1210.45	330.2
1001.5625	2751.2008	1208	325.25
1001.6833	2752.4057	1207.9	325.75
1001.8042	2753.61	1206.35	323.65
1001.925	2754.8136	1203	319.6
1002.0458	2756.0165	1207.6	328.15
1002.1665	2757.2188	1202.1	321.15
1002.2872	2758.4204	1205.25	323
1002.4078	2759.6213	1206.6	322.05
1002.5285	2760.8215	1205.4	320.6
1002.649	2762.0211	1194.75	311.4
1002.7696	2763.22	1191.2	306.3
1002.8901	2764.4182	1192.6	308.2
1003.0106	2765.6158	1189.65	308.4
1003.131	2766.8127	1190.15	308.75
1003.2514	2768.009	1189.15	306.85
1003.3717	2769.2045	1193.05	309.55
1003.492	2770.3994	1189.95	305.5
1003.6123	2771.5936	1190.5	308.05
1003.7325	2772.7872	1185.4	306.7
1003.8527	2773.9801	1185.8	303.05
1003.9729	2775.1723	1202.85	303.5
1004.093	2776.3639	1180.4	300.5
1004.2131	2777.5548	1185.4	303.05
1004.3331	2778.745	1180.65	299.4
1004.4531	2779.9346	1176	295.55
1004.5731	2781.1235	1174.2	290.5
1004.693	2782.3117	1172.6	292.35
1004.8129	2783.4992	1173.65	294.9
1004.9328	2784.6861	1169.45	289.65
1005.0526	2785.8723	1174.8	291.9
1005.1723	2787.0579	1167.15	285.65
1005.2921	2788.2428	1167.65	285.5
1005.4118	2789.427	1164.35	283.85
1005.5314	2790.6106	1163.7	281.05
1005.651	2791.7935	1167.55	284.4
1005.7706	2792.9757	1164.05	285.6
1005.8902	2794.1573	1165.4	281.4
1006.0097	2795.3382	1162.7	279.65
1006.1291	2796.5184	1155.7	276
1006.2485	2797.698	1160.85	278.2
1006.3679	2798.8769	1157.7	277.95
1006.4873	2800.0551	1155.55	270.75
1006.6066	2801.2327	1155.55	274.5
1006.7258	2802.4096	1158.05	278.8
1006.8451	2803.5859	1155.45	272.85
1006.9642	2804.7615	1150.95	269.2
1007.0834	2805.9364	1150.35	269.75
1007.2025	2807.1106	1147.35	267.55
1007.3216	2808.2842	1148.75	268.7
1007.4406	2809.4572	1142.5	262.55
1007.5596	2810.6294	1153.8	272.1
1007.6785	2811.801	1145.35	265.5
1007.7975	2812.972	1147.7	268.45
1007.9163	2814.1423	1145.95	263.9
1008.0352	2815.3119	1147.6	266.25
1008.154	2816.4808	1151.4	270.6
1008.2727	2817.6491	1154.3	274
1008.3914	2818.8167	1146.8	266.4
1008.5101	2819.9837	1161.85	276.85
1008.6288	2821.15	1151.95	269.6
1008.7474	2822.3157	1156.25	276.9
1008.8659	2823.4807	1159.45	278.9
1008.9844	2824.645	1164.4	282.5
1009.1029	2825.8086	1164.15	285.45
1009.2214	2826.9716	1167.7	289.9
1009.3398	2828.134	1174.3	294.7
1009.4581	2829.2957	1171.8	292.2
1009.5764	2830.4567	1174	296.75
1009.6947	2831.617	1181.5	300.5
1009.813	2832.7767	1178.5	300
1009.9312	2833.9358	1174.6	292.95
1010.0493	2835.0941	1177	294.65
1010.1675	2836.2519	1175.9	294.8
1010.2855	2837.4089	1175.9	295.75
1010.4036	2838.5653	1164	283.85
1010.5216	2839.7211	1166.35	287.05
1010.6396	2840.8761	1166.8	283.15
1010.7575	2842.0306	1162.95	284.1
1010.8754	2843.1843	1163	283.6
1010.9932	2844.3374	1166.35	285.45
1011.111	2845.4899	1161.55	278.45
1011.2288	2846.6417	1168.75	288.75
1011.3465	2847.7928	1159.1	278.45
1011.4642	2848.9433	1160.45	281.1
1011.5818	2850.0931	1161.3	281.95
1011.6995	2851.2422	1163.45	281.05
1011.817	2852.3907	1162.85	281.55
1011.9345	2853.5385	1168.35	286.35
1012.052	2854.6857	1173.3	282.25
1012.1695	2855.8323	1161.25	283.95
1012.2869	2856.9781	1168.05	287.7
1012.4042	2858.1233	1160.4	280.6
1012.5216	2859.2679	1165.9	287.15
1012.6389	2860.4118	1166.55	285.55
1012.7561	2861.555	1169.25	283.8
1012.8733	2862.6976	1173.15	289.05
1012.9905	2863.8395	1171.55	291.35
1013.1076	2864.9808	1162.6	283.3
1013.2247	2866.1214	1170.8	290.15
1013.3417	2867.2614	1171.4	291.85
1013.4587	2868.4007	1167.35	285.1
1013.5757	2869.5393	1165.8	283.6
1013.6926	2870.6773	1167.85	285.1
1013.8095	2871.8146	1174.6	290.95
1013.9263	2872.9513	1172.2	288.5
1014.0431	2874.0874	1167.4	287.35
1014.1599	2875.2227	1168.95	287.8
1014.2766	2876.3574	1166.3	283.35
1014.3933	2877.4915	1168.6	288.15
1014.51	2878.6249	1169.5	291.05
1014.6266	2879.7577	1170.85	290.05
1014.7431	2880.8898	1175.85	285.9
1014.8596	2882.0212	1167.15	286.7
1014.9761	2883.152	1168.5	287.8
1015.0925	2884.2821	1168	289
1015.2089	2885.4116	1164.4	284.15
1015.3253	2886.5405	1165.75	286.8
1015.4416	2887.6686	1166.1	281.8
1015.5579	2888.7962	1169.25	291.75
1015.6741	2889.923	1164.1	283.4
1015.7903	2891.0493	1163.45	284.2
1015.9065	2892.1748	1163.6	283.05
1016.0226	2893.2997	1164.65	283.95
1016.1387	2894.424	1160.3	282.05
1016.2547	2895.5476	1166.05	285.9
1016.3707	2896.6706	1163.75	285.05
1016.4866	2897.7929	1162.3	281.9
1016.6025	2898.9145	1161.9	281.6
1016.7184	2900.0355	1161.05	280.8
1016.8342	2901.1559	1157.85	275.75
1016.95	2902.2756	1151.95	273.55
1017.0658	2903.3946	1158.45	278.85
1017.1815	2904.513	1160.35	277.95
1017.2971	2905.6308	1155.05	274.35
1017.4127	2906.7479	1159.7	277.55
1017.5283	2907.8643	1154.9	275.6
1017.6439	2908.9801	1151.3	269.7
1017.7594	2910.0953	1149.55	270.05
1017.8748	2911.2098	1151.8	270.05
1017.9902	2912.3236	1159.2	273.5
1018.1056	2913.4368	1148.45	264.85
1018.2209	2914.5494	1144.15	263.05
1018.3362	2915.6613	1150.95	265
1018.4515	2916.7725	1143.65	259.15
1018.5667	2917.8831	1148.25	267
1018.6819	2918.9931	1138.65	256.15
1018.797	2920.1024	1137.5	255.35
1018.9121	2921.211	1135.15	254.95
1019.0271	2922.319	1134.95	255
1019.1421	2923.4264	1141.85	261.4
1019.2571	2924.5331	1129.75	251.35
1019.372	2925.6391	1134.55	255.4
1019.4869	2926.7445	1124.75	247.1
1019.6017	2927.8493	1126.35	244.8
1019.7165	2928.9534	1129.05	249.6
1019.8313	2930.0569	1131.4	249
1019.946	2931.1597	1131.4	247.6
1020.0606	2932.2619	1125.7	243.6
1020.1753	2933.3634	1130.4	249.6
1020.2899	2934.4643	1135.65	247.1
1020.4044	2935.5645	1137.55	251.1
1020.5189	2936.6641	1135.2	250.35
1020.6334	2937.763	1130.7	251.25
1020.7478	2938.8613	1125.55	246.8
1020.8622	2939.959	1132.35	246.8
1020.9765	2941.056	1125.5	244.85
1021.0908	2942.1523	1122	241.8
1021.2051	2943.248	1115.15	233.85
1021.3193	2944.3431	1102.65	223.1
1021.4334	2945.4375	1105.55	225.65
1021.5476	2946.5313	1095.2	216.7
1021.6617	2947.6244	1091.05	211.05
1021.7757	2948.7169	1089.15	207.65
1021.8897	2949.8087	1085.2	206.25
1022.0037	2950.8999	1084.1	204.6
1022.1176	2951.9904	1081	198.8
1022.2315	2953.0803	1075.45	193.5
1022.3453	2954.1696	1073.05	193.15
1022.4591	2955.2582	1071.5	193
1022.5728	2956.3462	1069.6	189.45
1022.6865	2957.4335	1065.05	183.8
1022.8002	2958.5202	1070.45	188.55
1022.9138	2959.6062	1063.5	184.15
1023.0274	2960.6916	1063.3	182.8
1023.141	2961.7764	1062.4	181.1
1023.2545	2962.8605	1061.2	180
1023.3679	2963.9439	1057.8	178.35
1023.4813	2965.0267	1061.25	178.3
1023.5947	2966.1089	1079.1	175.8
1023.708	2967.1905	1057.45	179.75
1023.8213	2968.2714	1057.4	178.3
1023.9346	2969.3516	1052.75	172.25
1024.0478	2970.4312	1062.3	174.25
1024.1609	2971.5102	1055.55	176.5
1024.274	2972.5885	1052.6	171.75
1024.3871	2973.6662	1058.4	175.7
1024.5002	2974.7432	1049.3	170.2
1024.6132	2975.8196	1054.75	174.1
1024.7261	2976.8954	1047.9	168.9
1024.839	2977.9705	1046.55	167.15
1024.9519	2979.045	1046.05	167.35
1025.0647	2980.1188	1048	168.4
1025.1775	2981.192	1048.25	170
1025.2902	2982.2645	1051.55	170.45
1025.4029	2983.3364	1044.25	165.8
1025.5156	2984.4077	1045.4	166.05
1025.6282	2985.4783	1048	162.05
1025.7407	2986.5483	1038.55	161.25
1025.8532	2987.6177	1038.3	158.1
1025.9657	2988.6864	1036.5	156.15
1026.0782	2989.7545	1035.1	153.9
1026.1906	2990.8219	1032.5	153.7
1026.3029	2991.8887	1032.25	150.35
1026.4152	2992.9548	1030.55	151.85
1026.5275	2994.0204	1028.3	149.95
1026.6397	2995.0852	1027.25	149.3
1026.7519	2996.1495	1025.8	146
1026.864	2997.2131	1022	141.75
1026.9761	2998.276	1018.45	138.65
1027.0882	2999.3383	1014.65	135.1
1027.2002	3000.4	1018.95	137.7
1027.3122	3001.4611	1017.05	137.15
1027.4241	3002.5215	1015.35	134.95
1027.536	3003.5812	1009.15	130
1027.6478	3004.6404	1014.9	135.2
1027.7596	3005.6989	1011.45	129.55
1027.8714	3006.7567	1011.8	131.6
1027.9831	3007.8139	1035.35	134.05
1028.0947	3008.8705	1010	130
1028.2064	3009.9264	1008.8	125.35
1028.3179	3010.9818	1006.55	129.1
1028.4295	3012.0364	1006.45	126.9
1028.541	3013.0905	1005.05	125.45
1028.6524	3014.1439	1007.8	128.55
1028.7638	3015.1966	1003.65	124.6
1028.8752	3016.2487	1001.15	122.4
1028.9865	3017.3002	1010.65	122.15
1029.0978	3018.3511	996.1	117.95
1029.209	3019.4013	999.3	118.25
1029.3202	3020.4509	999.35	119.7
1029.4314	3021.4998	1002.6	122.1
1029.5425	3022.5481	999.55	120.6
1029.6535	3023.5958	999.5	119.4
1029.7645	3024.6428	1001.75	121.75
1029.8755	3025.6892	1000.9	124.05
1029.9864	3026.735	999.3	120.05
1030.0973	3027.7802	997.65	117.9
1030.2082	3028.8247	999.85	120.95
1030.319	3029.8685	994.4	114
1030.4297	3030.9118	997.4	117.2
1030.5404	3031.9544	992.15	113.8
1030.6511	3032.9963	991.7	113.55
1030.7617	3034.0376	993.25	114.3
1030.8723	3035.0783	999.1	116.5
1030.9829	3036.1184	997.8	117.4
1031.0934	3037.1578	993.1	113.25
1031.2038	3038.1966	993.3	111.9
1031.3142	3039.2348	990.65	111.95
1031.4246	3040.2723	998.75	111.7
1031.5349	3041.3092	990.1	113.5
1031.6452	3042.3455	991.75	113.55
1031.7554	3043.3811	991.4	111
1031.8656	3044.4161	990.05	108.2
1031.9758	3045.4505	989.45	110.4
1032.0859	3046.4842	991.45	111.45
1032.1959	3047.5173	989.4	112.15
1032.3059	3048.5498	990.95	111.5
1032.4159	3049.5816	991.25	111.6
1032.5258	3050.6128	989.7	109.55
1032.6357	3051.6434	988.2	106.8
1032.7455	3052.6734	987.45	106.1
1032.8553	3053.7027	986.1	105.5
1032.9651	3054.7314	986.35	107.95
1033.0748	3055.7594	985.9	106.35
1033.1845	3056.7868	988.9	107.55
1033.2941	3057.8136	988.15	108.4
1033.4037	3058.8398	983.15	104.05
1033.5132	3059.8653	984.5	104.7
1033.6227	3060.8902	982.65	105
1033.7321	3061.9145	984.35	105.9
1033.8415	3062.9381	983.15	103.75
1033.9509	3063.9612	1000.65	104.25
1034.0602	3064.9835	984.6	105.1
1034.1694	3066.0053	986.8	105.1
1034.2787	3067.0264	980.25	100.15
1034.3878	3068.0469	982.3	101.15
1034.497	3069.0668	987.15	104.7
1034.6061	3070.086	982.5	104.1
1034.7151	3071.1046	980.25	100.65
1034.8241	3072.1226	982.65	102.1
1034.9331	3073.1399	980.2	102.7
1035.042	3074.1567	979.05	99.45
1035.1508	3075.1727	979.75	98.45
1035.2597	3076.1882	975.35	94.75
1035.3684	3077.203	974.7	94.75
1035.4772	3078.2173	975.05	93.25
1035.5859	3079.2308	982.55	101.3
1035.6945	3080.2438	980.2	99.85
1035.8031	3081.2561	972.15	91.45
1035.9117	3082.2678	974.85	95.55
1036.0202	3083.2789	974.25	93.6
1036.1286	3084.2893	971.5	94
1036.2371	3085.2991	974.9	93.85
1036.3454	3086.3083	975.15	92.6
1036.4538	3087.3169	973	92.7
1036.562	3088.3248	974.35	93.4
1036.6703	3089.3321	970.75	87.5
1036.7785	3090.3388	969.75	92.25
1036.8866	3091.3449	969.3	87.95
1036.9948	3092.3503	972.6	91.1
1037.1028	3093.3551	968.85	90.2
1037.2108	3094.3593	965.05	86.2
1037.3188	3095.3629	964.8	87.3
1037.4267	3096.3658	970.3	89.45
1037.5346	3097.3681	966.3	87.75
1037.6425	3098.3698	965.05	83.45
1037.7503	3099.3708	973.05	86.85
1037.858	3100.3713	964.35	84.75
1037.9657	3101.3711	964.35	84.05
1038.0734	3102.3702	1104.25	86.05
1038.181	3103.3688	968.6	87.25
1038.2886	3104.3667	960.85	80.5
1038.3961	3105.364	960.25	82.55
1038.5036	3106.3607	963.4	82.5
1038.611	3107.3568	961.35	81.95
1038.7184	3108.3522	963	83.9
1038.8257	3109.347	961.55	83.25
1038.933	3110.3412	965.25	82.15
1039.0403	3111.3348	960.75	82.95
1039.1475	3112.3277	956.85	79.5
1039.2547	3113.32	959	79.45
1039.3618	3114.3117	958.65	77.4
1039.4689	3115.3028	956.6	77.75
1039.5759	3116.2932	960.45	80.15
1039.6829	3117.2831	960.05	76.1
1039.7898	3118.2723	952.6	72.3
1039.8967	3119.2608	954.65	75.7
1040.0035	3120.2488	954.95	76.7
1040.1103	3121.2361	955.75	74.5
1040.2171	3122.2229	953.6	73.55
1040.3238	3123.209	952.6	72.4
1040.4305	3124.1944	952.7	73.7
1040.5371	3125.1793	955.25	74
1040.6437	3126.1635	952.8	76.75
1040.7502	3127.1471	953.8	74.9
1040.8567	3128.1301	950.95	70.5
1040.9631	3129.1125	947.8	68.75
1041.0695	3130.0942	953.6	75.55
1041.1759	3131.0753	958.25	69.9
1041.2822	3132.0558	951.7	71.4
1041.3884	3133.0357	950.3	69.45
1041.4946	3134.015	951.9	72.15
1041.6008	3134.9936	952.4	72.2
1041.7069	3135.9716	969.15	68.75
1041.813	3136.949	950.5	70.2
1041.919	3137.9258	952.3	65.65
1042.025	3138.902	954.65	69.95
1042.1309	3139.8775	948.55	69.65
1042.2368	3140.8524	946.6	67.85
1042.3427	3141.8267	947.5	65.55
1042.4485	3142.8004	946.25	66.45
1042.5542	3143.7735	954.45	69.25
1042.6599	3144.7459	949.65	69.5
1042.7656	3145.7178	945.55	64.5
1042.8712	3146.689	946.35	65.9
1042.9768	3147.6596	949.75	69.5
1043.0823	3148.6295	945.35	65.25
1043.1878	3149.5989	946.65	66.75
1043.2932	3150.5676	942.8	65
1043.3986	3151.5357	943.6	66.85
1043.5039	3152.5032	942.3	63.1
1043.6092	3153.4701	943.35	64.1
1043.7145	3154.4364	946.1	63.15
1043.8197	3155.402	940.65	64.35
1043.9248	3156.367	944.9	62.7
1044.03	3157.3315	977.6	58.65
1044.135	3158.2952	941.75	62.15
1044.24	3159.2584	938.65	58.8
1044.345	3160.221	937.25	56.1
1044.4499	3161.1829	938.2	58.3
1044.5548	3162.1442	940.05	61.2
1044.6596	3163.105	935.6	56.7
1044.7644	3164.065	940.5	62.25
1044.8692	3165.0245	943.1	62.4
1044.9739	3165.9834	940.5	62.6
1045.0785	3166.9416	935.8	56.4
1045.1831	3167.8993	940.6	58.75
1045.2877	3168.8563	938.25	58.75
1045.3922	3169.8127	939.4	59.4
1045.4966	3170.7684	938.8	60.6
1045.6011	3171.7236	937.85	58.3
1045.7054	3172.6782	936.05	55.9
1045.8098	3173.6321	936.6	58.2
1045.914	3174.5854	938.35	54.85
1046.0183	3175.5381	934.65	54.95
1046.1224	3176.4902	933.05	53.25
1046.2266	3177.4417	933.35	54.2
1046.3307	3178.3926	932	54.3
1046.4347	3179.3428	935.45	57.3
1046.5387	3180.2924	933.05	52.9
1046.6427	3181.2415	933.85	55.65
1046.7466	3182.1899	933.95	54.7
1046.8504	3183.1377	929.45	51
1046.9542	3184.0848	935.1	53.15
1047.058	3185.0314	935.95	56.4
1047.1617	3185.9773	929.8	49.6
1047.2654	3186.9227	932.95	55.45
1047.369	3187.8674	931.95	52.05
1047.4726	3188.8115	934.6	51.45
1047.5761	3189.755	933.05	52.15
1047.6796	3190.6979	929.65	51.7
1047.783	3191.6402	927.95	48.6
1047.8864	3192.5818	931.8	53.95
1047.9898	3193.5229	947.3	50.35
1048.0931	3194.4633	931.4	52.1
1048.1963	3195.4031	933.4	52.2
1048.2995	3196.3423	930.35	51.85
1048.4027	3197.2809	929.6	49.4
1048.5058	3198.2189	928.8	49.1
1048.6089	3199.1563	943.4	44.9
1048.7119	3200.0931	927.85	51.95
1048.8148	3201.0292	925.15	47.05
1048.9178	3201.9648	928	48.6
1049.0206	3202.8997	930.85	48.1
1049.1235	3203.834	929.6	51.95
1049.2262	3204.7677	928.25	50.1
1049.329	3205.7008	927.9	48.35
1049.4317	3206.6333	926.05	48.6
1049.5343	3207.5652	927.55	45.95
1049.6369	3208.4964	924.2	43.35
1049.7394	3209.4271	924.95	47.9
1049.8419	3210.3571	925.1	46.2
1049.9444	3211.2865	924.6	45.05
1050.0468	3212.2154	926.1	47.05
1050.1491	3213.1436	927.5	45.4
1050.2514	3214.0712	930.55	45
1050.3537	3214.9982	922.7	42.35
1050.4559	3215.9246	922.6	41.9
1050.5581	3216.8503	921	41.65
1050.6602	3217.7755	924.5	43.55
1050.7623	3218.7001	922.85	43.85
1050.8643	3219.624	922.5	44.45
1050.9663	3220.5473	923.85	45.35
1051.0682	3221.4701	924.95	45.95
1051.1701	3222.3922	921.65	40.5
1051.2719	3223.3137	923.75	44.75
1051.3737	3224.2346	920.9	42.6
1051.4754	3225.1549	922.65	42.55
1051.5771	3226.0746	920.05	40.2
1051.6788	3226.9937	920.3	40.75
1051.7804	3227.9121	920.2	42.15
1051.8819	3228.83	920.4	42.15
1051.9834	3229.7473	921.5	43.55
1052.0849	3230.6639	919.85	41.15
1052.1863	3231.5799	918.6	41.3
1052.2876	3232.4954	922.45	42.8
1052.3889	3233.4102	919.05	38.75
1052.4902	3234.3244	918.45	37
1052.5914	3235.238	919.7	41
1052.6926	3236.151	942.95	40.55
1052.7937	3237.0634	917.65	39.65
1052.8948	3237.9752	919.2	39.3
1052.9958	3238.8864	917.1	37.35
1053.0968	3239.797	919.4	40.4
1053.1977	3240.7069	917.25	37.7
1053.2986	3241.6163	919.45	39.6
1053.3994	3242.5251	915.9	37.85
1053.5002	3243.4332	915.25	34.9
1053.6009	3244.3408	917.55	39.25
1053.7016	3245.2477	917.3	39.25
1053.8022	3246.154	917.3	37.85
1053.9028	3247.0598	917.95	38.8
1054.0034	3247.9649	914.85	35.3
1054.1039	3248.8694	918.8	40.6
1054.2043	3249.7733	914.85	35.4
1054.3047	3250.6766	914.9	36.65
1054.4051	3251.5793	917.1	37.6
1054.5054	3252.4814	914.7	34.4
1054.6056	3253.3829	914.2	34.1
1054.7058	3254.2838	912.7	34.05
1054.806	3255.1841	912.85	34.95
1054.9061	3256.0838	912.45	33.75
1055.0061	3256.9829	911.35	32.65
1055.1062	3257.8814	915.15	31.75
1055.2061	3258.7792	914.15	34.75
1055.306	3259.6765	912.2	32.35
1055.4059	3260.5731	911.25	32.15
1055.5057	3261.4692	911.4	31.8
1055.6055	3262.3647	911.3	31.3
1055.7052	3263.2595	910.35	31.5
1055.8049	3264.1538	911.4	33.9
1055.9045	3265.0474	910.8	32.75
1056.0041	3265.9404	909.2	30.45
1056.1036	3266.8329	906.75	27.95
1056.2031	3267.7247	918.55	31.55
1056.3025	3268.616	905.45	26.6
1056.4019	3269.5066	907.05	27.25
1056.5013	3270.3966	908.5	29.45
1056.6005	3271.286	906.25	28.25
