Software Version:	3.9.2.0
Unit SN:	10000200
Spectrometer SN:	6960
Date:	3/6/2024 9:24:59 AM
Data Line Index:	25
Spectral Points:	2048
Integration time (ms):	125
Averages:	20
Delay (ms):	30
Sequence Number:	1
Processing:	dark subtract
Laser Power (mW):	305
Laser Current (mA):	809
Laser Diode Temp (C):	25.1
Laser Case Temp (C):	22.5
System Temp (C):	22.4
Spectrometer Temp (C):	20.5
CCD Temp (C):	-0.015
Secondary Temp (C):	20.007
Heatsink Temp (C):	17.325
CCDPCB Temp (C):	29.304
SecondaryPCB Temp (C):	25.035

Wavelength	RamanShift	Raw Counts	Dark Subtracted
787.061	30.1047	776	366.65
787.2016	32.3739	794.15	387.3
787.3422	34.6426	808.95	400.05
787.4828	36.9109	842.35	433.1
787.6235	39.1787	870.45	456.9
787.7642	41.4461	899.4	479.05
787.9049	43.7131	929.95	508.75
788.0456	45.9796	962.25	539.05
788.1863	48.2456	998.75	570.15
788.3271	50.5112	1029.85	596.8
788.4679	52.7764	1063.95	626.15
788.6087	55.0411	1109	671.6
788.7496	57.3054	1147.5	704.9
788.8904	59.5692	1190.95	747
789.0313	61.8326	1244.25	797.5
789.1722	64.0955	1296.4	846.5
789.3132	66.3579	1368.9	913.75
789.4541	68.6199	1457.35	999.05
789.5951	70.8815	1610.05	1148.8
789.7361	73.1426	1944.65	1479.05
789.8771	75.4032	2773.3	2304.6
790.0181	77.6634	4912.35	4440.55
790.1592	79.9231	10159.45	9684.5
790.3003	82.1824	22856.75	22379.55
790.4414	84.4412	55060.75	54578
790.5825	86.6995	65466.65	64981.1
790.7237	88.9574	65535	65043.65
790.8648	91.2148	65535	65041
791.006	93.4717	65535	65038.2
791.1472	95.7282	65535	65035.95
791.2885	97.9842	65535	65033.85
791.4297	100.2398	65535	65033.8
791.571	102.4949	65535	65028.8
791.7123	104.7495	65535	65024.35
791.8536	107.0036	65535	65024.5
791.9949	109.2573	65535	65023.7
792.1363	111.5105	65535	65023
792.2777	113.7632	65535	65021
792.4191	116.0154	65535	65010.5
792.5605	118.2672	65535	65019.25
792.7019	120.5185	65535	65013.65
792.8434	122.7693	65535	65010.1
792.9849	125.0197	65535	65005.55
793.1264	127.2696	65535	65002.85
793.2679	129.519	65535	64998.9
793.4094	131.7679	65535	64998.45
793.551	134.0163	65535	64995.65
793.6926	136.2642	65535	64993.7
793.8342	138.5117	65535	64989.25
793.9758	140.7587	65535	64988.85
794.1175	143.0052	65535	64984.05
794.2591	145.2512	65535	64984.5
794.4008	147.4967	65535	64982.25
794.5425	149.7417	65535	64978.4
794.6842	151.9863	65535	64975.9
794.826	154.2304	65535	64971.85
794.9677	156.4739	65535	64965.15
795.1095	158.717	65535	64967.7
795.2513	160.9596	65535	64961
795.3931	163.2017	65535	64960.3
795.535	165.4433	65535	64958.05
795.6768	167.6844	65535	64954.4
795.8187	169.925	65535	64953.2
795.9606	172.1651	65535	64947.9
796.1025	174.4047	65535	64945.35
796.2445	176.6439	65535	64941.85
796.3864	178.8825	65535	64939.05
796.5284	181.1206	65535	64937.1
796.6704	183.3582	65535	64934.15
796.8124	185.5954	65535	64931.65
796.9544	187.832	65535	64926.25
797.0965	190.0681	65535	64924.75
797.2386	192.3037	65535	64919.25
797.3806	194.5388	65535	64917.35
797.5228	196.7734	65535	64918.2
797.6649	199.0075	65535	64918.45
797.807	201.2411	65535	64915.4
797.9492	203.4742	65535	64910.7
798.0914	205.7068	65535	64908
798.2336	207.9389	65535	64910.6
798.3758	210.1704	65535	64921.95
798.518	212.4015	65535	64928.25
798.6603	214.632	65535	64930.75
798.8025	216.862	65535	64928.5
798.9448	219.0915	65535	64928.25
799.0871	221.3205	65535	64925.85
799.2294	223.549	65535	64929.45
799.3718	225.777	65535	64925.55
799.5141	228.0044	65535	64918.85
799.6565	230.2314	65535	64916.75
799.7989	232.4578	65535	64914
799.9413	234.6837	65535	64903.45
800.0837	236.909	65535	64903.9
800.2262	239.1339	65535	64881.25
800.3687	241.3582	65535	64894.75
800.5111	243.582	65535	64863.2
800.6536	245.8053	65535	64874.85
800.7961	248.0281	65535	64881.55
800.9387	250.2503	65535	64878.3
801.0812	252.472	65535	64877.6
801.2238	254.6932	65535	64880.4
801.3664	256.9139	65535	64872.35
801.509	259.134	65535	64869.6
801.6516	261.3536	65535	64875.15
801.7942	263.5727	65535	64872.8
801.9369	265.7912	65535	64873.1
802.0795	268.0092	65535	64871.65
802.2222	270.2267	65535	64871.2
802.3649	272.4436	65535	64866.8
802.5076	274.6601	65535	64856.5
802.6504	276.8759	65535	64861.5
802.7931	279.0913	65535	64861.25
802.9359	281.3061	65535	64860.65
803.0787	283.5204	65535	64857.5
803.2215	285.7341	65535	64855.25
803.3643	287.9473	65535	64844.3
803.5071	290.16	65535	64849.45
803.6499	292.3721	65535	64857.45
803.7928	294.5837	65535	64858.1
803.9357	296.7947	65535	64855.2
804.0786	299.0052	65535	64854.6
804.2215	301.2152	65535	64850.35
804.3644	303.4246	65535	64852.55
804.5074	305.6334	65535	64854.25
804.6503	307.8418	65535	64849.55
804.7933	310.0495	65535	64846.2
804.9363	312.2568	65535	64848.1
805.0793	314.4635	65535	64847
805.2223	316.6696	65535	64843.45
805.3653	318.8752	65535	64834.15
805.5084	321.0802	65535	64841.55
805.6514	323.2847	65535	64837.95
805.7945	325.4887	65535	64837.35
805.9376	327.692	65535	64837.7
806.0807	329.8949	65535	64835.55
806.2238	332.0972	65535	64835.15
806.367	334.2989	65535	64830.9
806.5101	336.5001	65535	64828.75
806.6533	338.7007	65535	64829.45
806.7965	340.9008	65535	64827.25
806.9397	343.1003	65535	64826
807.0829	345.2992	65535	64824.8
807.2261	347.4976	65535	64821.45
807.3693	349.6955	65535	64817.8
807.5126	351.8927	65535	64818.7
807.6559	354.0895	65535	64808
807.7991	356.2856	65535	64816.05
807.9424	358.4812	65535	64815.6
808.0857	360.6763	65535	64812.5
808.2291	362.8707	65535	64810.5
808.3724	365.0646	65535	64809.85
808.5158	367.258	65535	64807.7
808.6591	369.4508	65535	64803.85
808.8025	371.643	65535	64803.9
808.9459	373.8346	65535	64801.05
809.0893	376.0257	65535	64798.65
809.2327	378.2162	65535	64800.4
809.3762	380.4062	65535	64800.45
809.5196	382.5956	65535	64802.65
809.6631	384.7844	65535	64805
809.8066	386.9726	65535	64804.8
809.9501	389.1603	65535	64806.2
810.0936	391.3474	65535	64758.15
810.2371	393.5339	65535	64806.45
810.3806	395.7199	65535	64804.9
810.5241	397.9052	65535	64805.7
810.6677	400.09	65535	64802.9
810.8113	402.2743	65535	64801.25
810.9548	404.4579	65535	64800.35
811.0984	406.641	65535	64798.6
811.2421	408.8235	65535	64795
811.3857	411.0054	65535	64795.4
811.5293	413.1868	65535	64789.85
811.673	415.3675	65535	64786.8
811.8166	417.5477	65535	64786.85
811.9603	419.7273	65535	64784.75
812.104	421.9064	65535	64778.6
812.2477	424.0848	65535	64783.25
812.3914	426.2627	65535	64782.8
812.5351	428.4399	65535	64782.25
812.6788	430.6166	65535	64777.05
812.8226	432.7928	65535	64775.6
812.9663	434.9683	65535	64777.8
813.1101	437.1432	65535	64773.6
813.2539	439.3176	65535	64774.7
813.3977	441.4914	65535	64774.2
813.5415	443.6645	65535	64772.95
813.6853	445.8371	65535	64773.75
813.8291	448.0091	65535	64772.7
813.973	450.1806	65535	64772.4
814.1168	452.3514	65535	64770
814.2607	454.5216	65535	64763.3
814.4046	456.6913	65535	64766.35
814.5485	458.8603	65535	64766.7
814.6924	461.0288	65535	64768.8
814.8363	463.1967	65535	64767.9
814.9802	465.3639	65535	64766.35
815.1241	467.5306	65535	64765.65
815.2681	469.6967	65535	64767.25
815.412	471.8622	65535	64763.55
815.556	474.0271	65535	64765.75
815.7	476.1914	65535	64762.3
815.844	478.3551	65535	64764.2
815.988	480.5182	65535	64761.15
816.132	482.6807	65535	64760.7
816.276	484.8426	65535	64761.25
816.4201	487.0039	65535	64761.45
816.5641	489.1647	65535	64758.6
816.7082	491.3248	65535	64758.8
816.8522	493.4843	65535	64758.6
816.9963	495.6432	65535	64756.5
817.1404	497.8015	65535	64754.95
817.2845	499.9592	65535	64757
817.4286	502.1163	65535	64755.65
817.5727	504.2728	65535	64753.85
817.7168	506.4287	65535	64753.5
817.861	508.5839	65535	64752.3
818.0051	510.7386	65535	64752.9
818.1493	512.8927	65535	64744.75
818.2935	515.0461	65535	64749
818.4377	517.199	65535	64749.4
818.5818	519.3512	65535	64749.8
818.726	521.5029	65535	64743.55
818.8703	523.6539	65535	64748.45
819.0145	525.8043	65535	64749.55
819.1587	527.9541	65535	64744.7
819.303	530.1033	65535	64746.8
819.4472	532.2519	65535	64746.7
819.5915	534.3999	65535	64743.45
819.7357	536.5472	65535	64745.45
819.88	538.694	65535	64745.2
820.0243	540.8401	65535	64744.8
820.1686	542.9856	65535	64741.8
820.3129	545.1305	65535	64742.95
820.4572	547.2748	65535	64743.8
820.6016	549.4185	65535	64741.4
820.7459	551.5615	65535	64741.45
820.8902	553.704	65535	64740.95
821.0346	555.8458	65535	64741.65
821.1789	557.987	65535	64742.25
821.3233	560.1276	65535	64736.7
821.4677	562.2675	65535	64740.5
821.6121	564.4069	65535	64740.75
821.7565	566.5456	65535	64739.65
821.9009	568.6837	65535	64737.4
822.0453	570.8212	65535	64736.25
822.1897	572.958	65535	64735.5
822.3342	575.0942	65535	64736.2
822.4786	577.2299	65535	64733.35
822.6231	579.3648	65535	64733.15
822.7675	581.4992	65535	64732.4
822.912	583.6329	65535	64734.6
823.0565	585.766	65535	64732.4
823.201	587.8985	65535	64733.7
823.3454	590.0304	65535	64708.3
823.4899	592.1616	65535	64727.05
823.6345	594.2922	65535	64733.25
823.779	596.4222	65535	64729.6
823.9235	598.5515	65535	64729.4
824.068	600.6802	65535	64727.35
824.2126	602.8083	65535	64729.05
824.3571	604.9358	65535	64728.2
824.5017	607.0626	65535	64728.7
824.6462	609.1888	65535	64725.5
824.7908	611.3144	65535	64725.4
824.9354	613.4393	65535	64725.1
825.08	615.5636	65535	64725.15
825.2246	617.6873	65535	64725.6
825.3692	619.8103	65535	64721.55
825.5138	621.9327	65535	64720
825.6584	624.0544	65535	64727.05
825.803	626.1756	65535	64724.3
825.9477	628.2961	65535	64723.3
826.0923	630.4159	65535	64720.6
826.237	632.5351	65535	64722.95
826.3816	634.6537	65535	64720.1
826.5263	636.7716	65535	64718.8
826.6709	638.8889	65535	64719.3
826.8156	641.0056	65535	64721.6
826.9603	643.1216	65535	64717.9
827.105	645.237	65535	64716.9
827.2497	647.3518	65535	64717.85
827.3944	649.4659	65535	64717.4
827.5391	651.5793	65535	64714.55
827.6838	653.6922	65535	64717.3
827.8285	655.8043	65535	64716.65
827.9733	657.9159	65535	64715.65
828.118	660.0268	65535	64713.3
828.2627	662.137	65535	64712.75
828.4075	664.2466	65535	64713.05
828.5522	666.3556	65535	64713.65
828.697	668.4639	65535	64711.2
828.8418	670.5716	65535	64714.35
828.9865	672.6786	65535	64710.9
829.1313	674.785	65535	64710.55
829.2761	676.8907	65535	64712.05
829.4209	678.9958	65535	64711.8
829.5657	681.1002	65535	64710.7
829.7105	683.204	65535	64709.5
829.8553	685.3072	65535	64707.65
830.0001	687.4097	65535	64709.75
830.1449	689.5115	65535	64706.55
830.2898	691.6127	65535	64708.15
830.4346	693.7132	65535	64708.2
830.5794	695.8131	65535	64686.65
830.7243	697.9123	65535	64706
830.8691	700.0109	65535	64706.85
831.014	702.1089	65535	64708.9
831.1588	704.2061	65535	64706.7
831.3037	706.3028	65535	64704.3
831.4486	708.3987	65535	64708.3
831.5935	710.4941	65535	64706.5
831.7383	712.5887	65535	64705
831.8832	714.6827	65535	64698.35
832.0281	716.7761	65535	64703.5
832.173	718.8688	65535	64703
832.3179	720.9608	65535	64698.95
832.4628	723.0522	65535	64700.9
832.6077	725.1429	65535	64703.2
832.7527	727.233	65535	64703.15
832.8976	729.3224	65535	64703.45
833.0425	731.4112	65535	64698.85
833.1874	733.4993	65535	64698.4
833.3324	735.5867	65535	64700.05
833.4773	737.6735	65535	64698.3
833.6222	739.7596	65535	64698.15
833.7672	741.845	65535	64699.85
833.9122	743.9298	65535	64696
834.0571	746.014	65535	64700.3
834.2021	748.0974	65535	64697.3
834.347	750.1802	65535	64698.75
834.492	752.2624	65535	64699.45
834.637	754.3439	65535	64698.2
834.782	756.4247	65535	64689.55
834.9269	758.5048	65535	64695.95
835.0719	760.5843	65535	64696.65
835.2169	762.6631	65535	64696.05
835.3619	764.7413	65535	64697.75
835.5069	766.8188	65535	64693.75
835.6519	768.8956	65535	64692.9
835.7969	770.9718	65535	64696.05
835.9419	773.0473	65535	64695.25
836.0869	775.1221	65535	64696.05
836.232	777.1962	65535	64694.65
836.377	779.2697	65535	64692.6
836.522	781.3426	65535	64684.35
836.667	783.4147	65535	64691.85
836.8121	785.4862	65535	64694.3
836.9571	787.557	65535	64693.65
837.1021	789.6271	65535	64691.4
837.2472	791.6966	65535	64694.2
837.3922	793.7654	65535	64691.95
837.5373	795.8335	65535	64692.05
837.6823	797.901	65535	64693.05
837.8274	799.9678	65535	64687.6
837.9724	802.0339	65535	64694.35
838.1175	804.0993	65535	64679.55
838.2626	806.1641	65535	64690.9
838.4076	808.2282	65535	64692.15
838.5527	810.2916	65535	64688.35
838.6978	812.3544	65535	64693.9
838.8428	814.4164	65535	64691.55
838.9879	816.4778	65535	64689.8
839.133	818.5385	65535	64690.8
839.2781	820.5986	65535	64691.65
839.4232	822.658	65535	64689.95
839.5682	824.7166	65535	64689.3
839.7133	826.7747	65535	64689.35
839.8584	828.832	65535	64688.65
840.0035	830.8886	65535	64684.9
840.1486	832.9446	65535	64687.05
840.2937	834.9999	65535	64690.8
840.4388	837.0545	65535	64685.3
840.5839	839.1085	65535	64688.2
840.729	841.1618	65535	64682.4
840.8741	843.2143	65535	64685.7
841.0192	845.2662	65535	64687.15
841.1643	847.3175	65535	64687.7
841.3095	849.368	65535	64685.35
841.4546	851.4179	65535	64683.85
841.5997	853.467	65535	64687.75
841.7448	855.5155	65535	64686.9
841.8899	857.5633	65535	64687.1
842.0351	859.6105	65535	64686.1
842.1802	861.6569	65535	64685.7
842.3253	863.7027	65535	64686.3
842.4704	865.7478	65535	64684.3
842.6156	867.7922	65535	64683
842.7607	869.8359	65535	64681.85
842.9058	871.8789	65535	64683.7
843.0509	873.9212	65535	64652.2
843.1961	875.9629	65535	64683.7
843.3412	878.0039	65535	64682.9
843.4863	880.0441	65535	64683.9
843.6315	882.0837	65535	64682.6
843.7766	884.1226	65535	64681.95
843.9218	886.1609	65535	64684.25
844.0669	888.1984	65535	64683.1
844.212	890.2352	65535	64684.4
844.3572	892.2714	65535	64680.35
844.5023	894.3069	65535	64680.6
844.6475	896.3416	65535	64680.7
844.7926	898.3757	65535	64680.15
844.9377	900.4091	65535	64679.2
845.0829	902.4418	65535	64675.95
845.228	904.4739	65535	64677.75
845.3732	906.5052	65535	64681.4
845.5183	908.5358	65535	64680.2
845.6635	910.5658	65535	64680.05
845.8086	912.595	65535	64679.5
845.9538	914.6236	65535	64681.5
846.0989	916.6515	65535	64680.6
846.2441	918.6786	65535	64679
846.3892	920.7051	65535	64679.05
846.5344	922.7309	65535	64679.6
846.6795	924.756	65535	64677.6
846.8246	926.7804	65535	64677.15
846.9698	928.8041	65535	64676.4
847.1149	930.8272	65535	64678.5
847.2601	932.8495	65535	64677.55
847.4052	934.8711	65535	64677.9
847.5504	936.892	65535	64679.3
847.6955	938.9123	65535	64676.65
847.8407	940.9318	65535	64676.55
847.9858	942.9506	65535	64677.2
848.131	944.9688	65535	64675.45
848.2761	946.9862	65535	64677.2
848.4213	949.003	65535	64676.3
848.5664	951.019	65535	64674.55
848.7115	953.0344	65535	64677.05
848.8567	955.0491	65535	64677.25
849.0018	957.063	65535	64677.85
849.147	959.0763	65535	64677.85
849.2921	961.0888	65535	64673
849.4373	963.1007	65535	64677.2
849.5824	965.1119	65535	64678.3
849.7275	967.1223	65535	64676.6
849.8727	969.1321	65535	64676.7
850.0178	971.1412	65535	64676.25
850.1629	973.1495	65535	64677.15
850.3081	975.1572	65535	64627.5
850.4532	977.1641	65535	64676.1
850.5983	979.1704	65535	64675.25
850.7435	981.1759	65535	64669.85
850.8886	983.1808	65535	64675.15
851.0337	985.1849	65535	64669.1
851.1788	987.1884	65535	64671
851.324	989.1911	65535	64670.4
851.4691	991.1932	65535	64674.5
851.6142	993.1945	65535	64675.45
851.7593	995.1951	65535	64673.2
851.9045	997.1951	65535	64667.4
852.0496	999.1943	65535	64674.85
852.1947	1001.1928	65535	64672.65
852.3398	1003.1906	65535	64673.25
852.4849	1005.1877	65535	64672.55
852.63	1007.1841	65535	64672.75
852.7751	1009.1798	65535	64673.65
852.9202	1011.1748	65535	64671.9
853.0653	1013.1691	65535	64672.85
853.2104	1015.1627	65535	64672.1
853.3555	1017.1556	65535	64672.9
853.5006	1019.1477	65535	64671.4
853.6457	1021.1392	65535	64672.75
853.7908	1023.1299	65535	64672.4
853.9359	1025.12	65535	64670.75
854.081	1027.1093	65535	64673.1
854.2261	1029.0979	65535	64672.65
854.3712	1031.0859	65535	64670.65
854.5163	1033.0731	65535	64670.05
854.6613	1035.0596	65535	64672.1
854.8064	1037.0454	65535	64669.65
854.9515	1039.0304	65535	64669.3
855.0965	1041.0148	65535	64670.75
855.2416	1042.9985	65535	64669.1
855.3867	1044.9814	65535	64672.05
855.5317	1046.9636	65535	64667.5
855.6768	1048.9452	65535	64671.85
855.8219	1050.926	65535	64669.45
855.9669	1052.9061	65535	64670.65
856.112	1054.8855	65535	64668.65
856.257	1056.8642	65535	64669.35
856.4021	1058.8421	65535	64663.9
856.5471	1060.8194	65535	64668.3
856.6921	1062.7959	65535	64669.25
856.8372	1064.7717	65535	64667.7
856.9822	1066.7469	65535	64667.75
857.1272	1068.7213	65535	64665.7
857.2723	1070.695	65535	64668.8
857.4173	1072.6679	65535	64669.45
857.5623	1074.6402	65535	64669.3
857.7073	1076.6117	65535	64661.65
857.8523	1078.5826	65535	64667.3
857.9973	1080.5527	65535	64664.95
858.1423	1082.5221	65535	64668.3
858.2873	1084.4908	65535	64666.7
858.4323	1086.4587	65535	64667.05
858.5773	1088.426	65535	64667.25
858.7223	1090.3925	65535	64663.15
858.8673	1092.3584	65535	64668.2
859.0123	1094.3235	65534.05	64667.8
859.1573	1096.2879	65535	64665.9
859.3022	1098.2515	65535	64667.15
859.4472	1100.2145	65535	64669
859.5922	1102.1767	65535	64665.05
859.7371	1104.1382	65535	64666.7
859.8821	1106.099	65535	64663.7
860.027	1108.0591	65535	64665.7
860.172	1110.0185	65521.85	64650.75
860.3169	1111.9771	65535	64668.2
860.4619	1113.9351	65535	64666.85
860.6068	1115.8923	65535	64666.55
860.7517	1117.8488	65534.8	64664.2
860.8967	1119.8045	65528.55	64661.15
861.0416	1121.7596	65533.1	64663.35
861.1865	1123.7139	65523.65	64656.7
861.3314	1125.6675	65523.5	64654.15
861.4763	1127.6204	65517.1	64648.95
861.6212	1129.5726	65485.3	64613.9
861.7661	1131.524	65520.05	64649.65
861.911	1133.4748	65519.45	64650.55
862.0559	1135.4248	65460.5	64589.6
862.2008	1137.3741	65472.75	64603.55
862.3457	1139.3226	65468.15	64598.2
862.4905	1141.2705	65464.3	64594.45
862.6354	1143.2176	65490.4	64614.8
862.7803	1145.164	65394	64522.05
862.9251	1147.1097	65446.9	64575.95
863.07	1149.0546	65451.55	64580.35
863.2148	1150.9989	65461.3	64590.25
863.3597	1152.9424	65378.5	64508.25
863.5045	1154.8852	65459.1	64586.2
863.6493	1156.8272	65394.5	64524.5
863.7942	1158.7686	65463.5	64586.75
863.939	1160.7092	65368.4	64497.75
864.0838	1162.6491	65395.9	64523.85
864.2286	1164.5883	65401.9	64531.3
864.3734	1166.5267	65367.3	64494.65
864.5182	1168.4644	65391.6	64520.75
864.663	1170.4014	65384.45	64508.05
864.8078	1172.3377	65399.7	64529.4
864.9526	1174.2732	65425.05	64552.8
865.0974	1176.2081	65404.65	64533.45
865.2421	1178.1421	65400.8	64525.35
865.3869	1180.0755	65467.85	64596.6
865.5317	1182.0082	65470	64599.5
865.6764	1183.9401	65466.5	64594.45
865.8212	1185.8713	65400.9	64529.9
865.9659	1187.8017	65378.05	64507.65
866.1106	1189.7315	65364.15	64493.8
866.2554	1191.6605	65367.25	64496
866.4001	1193.5888	65333.35	64462.05
866.5448	1195.5163	65288.85	64418.1
866.6895	1197.4432	65291.05	64419.6
866.8342	1199.3693	65281.3	64409.15
866.9789	1201.2947	65269.3	64395.65
867.1236	1203.2193	65289.75	64415.55
867.2683	1205.1432	65230.25	64354.95
867.413	1207.0664	65244.1	64371.6
867.5576	1208.9889	65242.75	64366.95
867.7023	1210.9106	65241.9	64371
867.847	1212.8316	65224.4	64352.85
867.9916	1214.7519	65228.35	64344.9
868.1363	1216.6715	65221.1	64350.1
868.2809	1218.5903	65209.05	64335.8
868.4255	1220.5084	65201.95	64327.65
868.5701	1222.4257	65204.05	64328.85
868.7148	1224.3424	65189.2	64318.25
868.8594	1226.2583	65175.7	64297.9
869.004	1228.1735	65205.8	64331.7
869.1486	1230.0879	65171.9	64298.05
869.2932	1232.0016	65211.1	64337.9
869.4377	1233.9146	65186.35	64311.6
869.5823	1235.8269	65196.95	64323.65
869.7269	1237.7384	65186.2	64311.2
869.8715	1239.6492	65186.4	64312.45
870.016	1241.5592	65157.85	64283.4
870.1606	1243.4686	65203.35	64328.5
870.3051	1245.3772	65175.05	64302.5
870.4496	1247.285	65225.75	64351.75
870.5941	1249.1922	65193.25	64319.95
870.7387	1251.0986	65234.2	64361.75
870.8832	1253.0042	65221.5	64345.85
871.0277	1254.9092	65265.5	64391.2
871.1722	1256.8134	65218.35	64347.05
871.3167	1258.7169	65308.15	64432.95
871.4611	1260.6196	65271.75	64396.8
871.6056	1262.5216	65266.3	64390.5
871.7501	1264.4229	65283	64408.45
871.8945	1266.3234	65304.05	64429.15
872.039	1268.2232	65267.65	64392.6
872.1834	1270.1223	65229.05	64351.4
872.3278	1272.0207	65218.1	64343.15
872.4723	1273.9183	65215.7	64336.9
872.6167	1275.8151	65210.65	64337.85
872.7611	1277.7113	65229.65	64354.65
872.9055	1279.6067	65224.65	64350.9
873.0499	1281.5014	65255.2	64376.7
873.1943	1283.3953	65336.3	64461.5
873.3386	1285.2885	65343.25	64470.8
873.483	1287.181	65360.9	64485.7
873.6274	1289.0727	65374.55	64499.55
873.7717	1290.9637	65313.05	64436.7
873.9161	1292.854	65357.6	64482.8
874.0604	1294.7435	65303.55	64426.4
874.2047	1296.6323	65276.45	64401.7
874.349	1298.5204	65230.6	64351.9
874.4933	1300.4077	65247.4	64370.65
874.6376	1302.2943	65207.1	64330.55
874.7819	1304.1802	65184.05	64307.45
874.9262	1306.0653	65163.5	64285
875.0705	1307.9497	65165.05	64290.35
875.2147	1309.8333	65171.3	64295.65
875.359	1311.7162	65159.5	64283.95
875.5032	1313.5984	65161.35	64283.25
875.6475	1315.4798	65134.8	64249.7
875.7917	1317.3605	65137.5	64258.35
875.9359	1319.2405	65152.15	64275.85
876.0801	1321.1197	65107.7	64231.15
876.2243	1322.9982	65140.55	64261
876.3685	1324.876	65124.15	64248.2
876.5127	1326.753	65095.05	64218.75
876.6569	1328.6293	65109.85	64232.1
876.801	1330.5048	65060.5	64183.5
876.9452	1332.3796	65034	64158.45
877.0893	1334.2537	65011.15	64111.1
877.2335	1336.127	64995.85	64121.25
877.3776	1337.9996	64980.85	64104.1
877.5217	1339.8714	64995.75	64118.1
877.6658	1341.7426	64957.65	64036.5
877.8099	1343.6129	64968.9	64093.6
877.954	1345.4826	64966.95	64091.3
878.0981	1347.3515	64940.55	64061.6
878.2422	1349.2196	64936.95	64059.3
878.3862	1351.087	64928.85	64052.15
878.5303	1352.9537	64940.35	64063.15
878.6743	1354.8197	64948.85	64072.8
878.8184	1356.6849	64944.7	64069.3
878.9624	1358.5493	64941.55	64065.05
879.1064	1360.4131	64932.35	64056.55
879.2504	1362.276	64953.5	64077.75
879.3944	1364.1383	64928.05	64051.55
879.5384	1365.9998	64934.05	64054.2
879.6823	1367.8606	64934.05	64056.85
879.8263	1369.7206	64913.05	64036.6
879.9702	1371.5799	64920.55	64038.9
880.1142	1373.4384	64903.9	64028.7
880.2581	1375.2962	64912.85	64035.05
880.402	1377.1533	64829.45	63952.75
880.5459	1379.0096	64826.4	63949
880.6898	1380.8652	64795.85	63916.6
880.8337	1382.7201	64743.65	63868.4
880.9776	1384.5742	64788.85	63911.95
881.1215	1386.4275	64304.9	63425.1
881.2653	1388.2802	64647.65	63772.15
881.4092	1390.132	64719.75	63841.65
881.553	1391.9832	64135.4	63256.5
881.6968	1393.8336	63880.8	63003.4
881.8406	1395.6832	64043.15	63162.45
881.9844	1397.5322	64391.3	63515.6
882.1282	1399.3803	63627.3	62743.55
882.272	1401.2278	63872.25	62994.55
882.4158	1403.0745	63424.95	62549.1
882.5595	1404.9204	63487.05	62609.95
882.7033	1406.7656	63410	62534.35
882.847	1408.6101	62496.3	61618.3
882.9908	1410.4538	62900.35	62022.35
883.1345	1412.2968	62872.1	61994.9
883.2782	1414.139	62100.25	61222.1
883.4219	1415.9805	62496.5	61619.5
883.5656	1417.8213	61870.85	60971.05
883.7092	1419.6613	62472.1	61594.5
883.8529	1421.5006	61974.45	61096.3
883.9965	1423.3391	61769	60889.4
884.1402	1425.1769	62136.7	61257.15
884.2838	1427.0139	63056.2	62177.5
884.4274	1428.8502	62315	61437.9
884.571	1430.6858	62359.45	61483.7
884.7146	1432.5206	63680.9	62802.4
884.8582	1434.3547	62421.6	61542.85
885.0018	1436.188	61776.45	60896.95
885.1453	1438.0206	62446.45	61569
885.2889	1439.8524	62239.5	61362.25
885.4324	1441.6835	61762.15	60883
885.5759	1443.5139	62425.35	61544.15
885.7194	1445.3435	61881.5	61003.05
885.8629	1447.1724	62203.6	61324.8
886.0064	1449.0005	61135.6	60256
886.1499	1450.8279	61871.45	60991.95
886.2933	1452.6545	61615.85	60738.9
886.4368	1454.4804	61334.15	60456
886.5802	1456.3056	60854.15	59969.2
886.7237	1458.13	61158.8	60283.15
886.8671	1459.9536	61905.95	61026.2
887.0105	1461.7766	60711.05	59833.6
887.1539	1463.5987	60069.8	59189.15
887.2972	1465.4202	60435.6	59556.8
887.4406	1467.2409	60207.15	59328.5
887.584	1469.0608	59278.95	58400.5
887.7273	1470.88	59532.7	58650.8
887.8706	1472.6984	59729.35	58852.1
888.0139	1474.5161	58761.5	57879.9
888.1572	1476.3331	59181.75	58303.45
888.3005	1478.1493	58428.95	57549.45
888.4438	1479.9648	58286.6	57408.85
888.5871	1481.7795	58897.95	58020.85
888.7303	1483.5935	58943.15	58064.65
888.8736	1485.4067	58116.85	57237.15
889.0168	1487.2192	58421.55	57543.65
889.16	1489.031	57928.6	57046.9
889.3032	1490.842	58336.55	57458.7
889.4464	1492.6522	58420.65	57540.3
889.5896	1494.4618	57892.1	57012.35
889.7327	1496.2705	58291.05	57413.65
889.8759	1498.0785	57141.85	56262.95
890.019	1499.8858	57622.85	56743.95
890.1622	1501.6924	58229.95	57352.15
890.3053	1503.4981	57240.05	56361.65
890.4484	1505.3032	57442.65	56563.15
890.5914	1507.1075	56826.05	55945.85
890.7345	1508.911	57069.65	56192.25
890.8776	1510.7138	57029.1	56149.4
891.0206	1512.5159	57225.85	56345.85
891.1637	1514.3172	55869.9	54990.35
891.3067	1516.1178	56198.8	55322.6
891.4497	1517.9176	56674.15	55792.55
891.5927	1519.7166	56162.2	55283.2
891.7357	1521.515	55872.4	54987.95
891.8786	1523.3126	55487.6	54608.6
892.0216	1525.1094	55850.45	54968.2
892.1645	1526.9055	55486.75	54608.8
892.3074	1528.7008	55553.2	54672.75
892.4503	1530.4954	54817.45	53935.95
892.5932	1532.2893	55290.35	54411.05
892.7361	1534.0824	54675.7	53791.25
892.879	1535.8747	54320.55	53443.05
893.0218	1537.6663	55227.25	54348.05
893.1647	1539.4572	53654.5	52773.05
893.3075	1541.2473	54263.65	53383.55
893.4503	1543.0367	53909.65	53030.4
893.5931	1544.8253	53792.8	52909.4
893.7359	1546.6132	54024.75	53142.25
893.8787	1548.4003	53615.8	52728.4
894.0214	1550.1867	53464.65	52575.8
894.1642	1551.9723	53422.8	52539.1
894.3069	1553.7572	53437.8	52556.75
894.4496	1555.5414	53587.6	52707.6
894.5923	1557.3247	52995.55	52113.95
894.735	1559.1074	53369.3	52491.3
894.8777	1560.8893	53231.95	52354.05
895.0204	1562.6705	53436.5	52555.05
895.163	1564.4509	53185.4	52306.5
895.3056	1566.2305	53262.2	52383
895.4482	1568.0094	53606.3	52728.4
895.5908	1569.7876	53220.05	52340.45
895.7334	1571.565	52774.2	51894.35
895.876	1573.3417	53026.15	52146.4
896.0186	1575.1176	52823.75	51943.35
896.1611	1576.8928	52754.65	51873.65
896.3036	1578.6672	52642.3	51763.05
896.4461	1580.4409	52724.35	51846.95
896.5886	1582.2138	52562.15	51678.15
896.7311	1583.986	52843.25	51963.2
896.8736	1585.7575	52783.4	51903.95
897.0161	1587.5282	52857.1	51976.15
897.1585	1589.2981	53090.8	52213.15
897.3009	1591.0673	52755.5	51876.75
897.4433	1592.8358	52624.55	51745.3
897.5857	1594.6035	52753.1	51871.15
897.7281	1596.3704	52601.95	51721.75
897.8705	1598.1366	52104.15	51225.05
898.0128	1599.9021	51747.45	50868.35
898.1551	1601.6668	51661.25	50778.4
898.2975	1603.4308	51395.15	50515.65
898.4398	1605.194	51499.65	50613.1
898.5821	1606.9564	50878.85	49999.65
898.7243	1608.7182	51350.95	50465.3
898.8666	1610.4791	51366.7	50487.55
899.0088	1612.2394	51774	50894.05
899.1511	1613.9988	52082.45	51202.4
899.2933	1615.7576	52722	51842.45
899.4355	1617.5156	52717.9	51832.1
899.5776	1619.2728	52931.55	52052.95
899.7198	1621.0293	51954.6	51075.2
899.862	1622.785	51452.15	50567.4
900.0041	1624.54	50873.05	49988.6
900.1462	1626.2942	50199.95	49317.45
900.2883	1628.0477	49271.7	48388.25
900.4304	1629.8005	48805.5	47920.4
900.5725	1631.5525	48535.85	47655.6
900.7145	1633.3037	48060.4	47179.35
900.8566	1635.0542	47841.6	46961.75
900.9986	1636.804	47521.65	46641.2
901.1406	1638.553	47345.15	46373.75
901.2826	1640.3013	47073.1	46193
901.4245	1642.0488	46793.75	45912.3
901.5665	1643.7955	46633.05	45754
901.7085	1645.5416	46450.85	45570.9
901.8504	1647.2868	46354.05	45473.5
901.9923	1649.0313	46093.8	45212.75
902.1342	1650.7751	46015.5	45132.8
902.2761	1652.5181	45920.95	45040.5
902.4179	1654.2604	45692.6	44811.85
902.5598	1656.0019	45665.65	44786.8
902.7016	1657.7427	45623.45	44743.25
902.8434	1659.4828	45639.05	44758.8
902.9852	1661.222	45595.1	44714.55
903.127	1662.9606	45621.25	44741.45
903.2687	1664.6984	45698.1	44818.25
903.4105	1666.4354	45791.3	44909.85
903.5522	1668.1717	45613.3	44732.1
903.6939	1669.9072	45255.1	44376.9
903.8356	1671.642	44955.6	44075.15
903.9773	1673.3761	44690.1	43810.8
904.119	1675.1094	44363.3	43482.45
904.2606	1676.8419	44095.1	43213.35
904.4022	1678.5737	43805.05	42924.35
904.5439	1680.3048	43643.4	42762.05
904.6855	1682.0351	43411.9	42531.85
904.827	1683.7646	43132.65	42247.2
904.9686	1685.4934	43079.2	42198.95
905.1101	1687.2215	42859.6	41978.35
905.2517	1688.9488	42711.15	41830.7
905.3932	1690.6754	42476.35	41596.75
905.5347	1692.4012	42413.2	41532.65
905.6761	1694.1263	42242.95	41365.15
905.8176	1695.8506	42089.05	41208.75
905.9591	1697.5742	41984.25	41103.4
906.1005	1699.297	41794.55	40915.3
906.2419	1701.0191	41605.9	40724.55
906.3833	1702.7404	41461.15	40582.1
906.5246	1704.461	41250.8	40368.7
906.666	1706.1808	41106	40223.35
906.8073	1707.8999	40980.4	40099.9
906.9487	1709.6182	40856.4	39975.35
907.09	1711.3358	40777.5	39897.05
907.2313	1713.0527	40647.7	39768.9
907.3725	1714.7688	40446.25	39559.9
907.5138	1716.4841	40287.9	39407.05
907.655	1718.1987	40279.75	39395.75
907.7962	1719.9126	40088.5	39209.3
907.9374	1721.6257	40023.2	39138.9
908.0786	1723.338	39949.45	39066.4
908.2198	1725.0496	39713.3	38832.9
908.3609	1726.7605	39651.45	38769.95
908.502	1728.4706	39519.5	38636.55
908.6431	1730.18	39340.3	38455.7
908.7842	1731.8886	39219.05	38338.9
908.9253	1733.5964	39188.15	38287.5
909.0664	1735.3036	39134.6	38252.55
909.2074	1737.0099	39044.35	38163.4
909.3484	1738.7156	38936.25	38056.3
909.4894	1740.4204	38774.65	37890.7
909.6304	1742.1246	38742.25	37859.25
909.7714	1743.8279	38598.1	37718.75
909.9123	1745.5306	38590.7	37708.6
910.0532	1747.2325	38484.2	37602.95
910.1941	1748.9336	38372.95	37492.05
910.335	1750.634	38235.25	37353.8
910.4759	1752.3336	38134.25	37250.35
910.6168	1754.0325	38104.75	37225.2
910.7576	1755.7307	38047.75	37165.95
910.8984	1757.4281	38043.05	37161.7
911.0392	1759.1247	37920.35	37030.25
911.18	1760.8206	37829.8	36945.1
911.3208	1762.5158	37828.35	36944.8
911.4615	1764.2102	37667.65	36787.85
911.6022	1765.9039	37508.4	36627.85
911.7429	1767.5968	37524.5	36643.9
911.8836	1769.289	37347.05	36467.2
912.0243	1770.9804	37231	36348.1
912.1649	1772.6711	37221.75	36342.65
912.3056	1774.361	37109.2	36228.3
912.4462	1776.0502	37048	36165.1
912.5868	1777.7386	36940.9	36058.9
912.7274	1779.4263	36834.6	35952.85
912.8679	1781.1132	36839.75	35957.75
913.0084	1782.7994	36703.75	35819.05
913.149	1784.4849	36640.5	35759.25
913.2895	1786.1696	36491.7	35590.8
913.4299	1787.8535	36391.4	35509.7
913.5704	1789.5367	36315.65	35435.45
913.7108	1791.2192	36318.25	35437.3
913.8513	1792.9009	36120.6	35221
913.9917	1794.5818	36035.2	35153.65
914.132	1796.2621	35953.95	35074.45
914.2724	1797.9415	35883.35	35002.5
914.4128	1799.6202	35787.2	34905.5
914.5531	1801.2982	35705.75	34825.05
914.6934	1802.9755	35624.05	34743.25
914.8337	1804.6519	35621.4	34738.45
914.9739	1806.3277	35355.5	34475
915.1142	1808.0027	35254.6	34375.55
915.2544	1809.6769	35208.75	34326.35
915.3946	1811.3504	35103.65	34221.85
915.5348	1813.0231	34999.4	34116.65
915.675	1814.6951	35025.45	34143.45
915.8151	1816.3664	34999.65	34116
915.9553	1818.0369	34903.35	34021.1
916.0954	1819.7067	34707.7	33828.05
916.2355	1821.3757	34715.3	33833.1
916.3755	1823.044	34630.75	33750.1
916.5156	1824.7115	34519.85	33639
916.6556	1826.3783	34393.8	33512.95
916.7956	1828.0443	34350.5	33472.3
916.9356	1829.7096	34247.35	33363.8
917.0756	1831.3741	34210.7	33326.85
917.2155	1833.0379	34167.8	33288.25
917.3555	1834.701	34013.45	33128.15
917.4954	1836.3633	33941.8	33058.45
917.6353	1838.0248	33893.25	33008.75
917.7751	1839.6856	33817.8	32936.05
917.915	1841.3457	33806.2	32927.8
918.0548	1843.005	33685.7	32804.2
918.1946	1844.6636	33626.6	32746.05
918.3344	1846.3214	33551.3	32671.6
918.4742	1847.9785	33461.75	32581.9
918.6139	1849.6349	33366	32483.35
918.7537	1851.2904	33339.7	32450.2
918.8934	1852.9453	33228.95	32345.85
919.0331	1854.5994	33125.8	32240.4
919.1727	1856.2528	33119.6	32233.25
919.3124	1857.9054	33010.35	32129.7
919.452	1859.5572	32928.35	32047.9
919.5916	1861.2083	32903.85	32023.65
919.7312	1862.8587	32904.95	32023
919.8708	1864.5084	32789.7	31906.7
920.0103	1866.1572	32664.7	31784.9
920.1498	1867.8054	32529.3	31648.85
920.2893	1869.4528	32522.8	31641.9
920.4288	1871.0994	32392.35	31511.2
920.5683	1872.7453	32337.35	31454.4
920.7077	1874.3905	32258.55	31369.7
920.8471	1876.0349	32180.8	31298.3
920.9865	1877.6786	32177.1	31294.65
921.1259	1879.3215	32108.3	31226.3
921.2653	1880.9637	31986.1	31103.75
921.4046	1882.6051	31964.85	31083.2
921.5439	1884.2458	31865.7	30980.8
921.6832	1885.8858	31743.15	30861.95
921.8225	1887.525	31700.7	30818.1
921.9617	1889.1634	31554.35	30673.8
922.101	1890.8011	31466	30584.3
922.2402	1892.4381	31416.45	30535.2
922.3794	1894.0743	31396.25	30515.9
922.5185	1895.7098	31324.25	30442.75
922.6577	1897.3446	31243.5	30362.1
922.7968	1898.9786	31172.95	30288.65
922.9359	1900.6118	31078.4	30199
923.075	1902.2443	30951.35	30067.8
923.214	1903.8761	30884.2	30003.1
923.3531	1905.5071	30699.45	29816.3
923.4921	1907.1374	30629.45	29748.7
923.6311	1908.7669	30599.15	29716.8
923.77	1910.3957	30588.2	29706.3
923.909	1912.0237	30392.9	29511.15
924.0479	1913.651	30312.85	29433
924.1868	1915.2776	30218.5	29337.25
924.3257	1916.9034	30113.6	29232.3
924.4646	1918.5285	30009.5	29129.1
924.6034	1920.1528	29913.45	29031.9
924.7422	1921.7764	29795.55	28914.4
924.881	1923.3992	29689.7	28809.3
925.0198	1925.0213	29537.55	28655.6
925.1586	1926.6427	29386.35	28507.1
925.2973	1928.2633	29535.15	28442.1
925.436	1929.8832	29261.75	28379
925.5747	1931.5023	29118.15	28235.65
925.7134	1933.1207	29054.15	28171.9
925.852	1934.7383	28999.35	28116.9
925.9906	1936.3552	28898.4	28016.75
926.1292	1937.9714	28810.15	27928.45
926.2678	1939.5868	28712	27827
926.4064	1941.2015	28541.6	27659.8
926.5449	1942.8154	28457.25	27575.75
926.6834	1944.4286	28353.1	27471.45
926.8219	1946.041	28250.6	27345.45
926.9604	1947.6528	28106.7	27220.2
927.0988	1949.2637	28032.75	27153.5
927.2372	1950.8739	27967.7	27086.8
927.3756	1952.4834	27913.35	27030.35
927.514	1954.0921	27823	26941.15
927.6523	1955.7001	27758.95	26873.7
927.7907	1957.3074	27672.9	26794.35
927.929	1958.9139	27587.6	26705.85
928.0673	1960.5197	27479.7	26596.25
928.2055	1962.1247	27389.65	26507.8
928.3438	1963.729	27249.9	26368.5
928.482	1965.3325	27161.2	26255.45
928.6202	1966.9353	27123	26242.75
928.7584	1968.5374	26993.35	26110.25
928.8965	1970.1387	26936.8	26053.65
929.0346	1971.7393	26832.95	25949.85
929.1727	1973.3392	26756.8	25876.8
929.3108	1974.9383	26643.8	25762.7
929.4489	1976.5366	26541.6	25659.25
929.5869	1978.1342	26524.8	25641.45
929.7249	1979.7311	26459.2	25576.95
929.8629	1981.3273	26347.4	25464.8
930.0009	1982.9227	26280.7	25399.05
930.1388	1984.5173	26183.95	25304.25
930.2767	1986.1112	26096.15	25216.35
930.4146	1987.7044	26027.15	25147.8
930.5525	1989.2968	25974.25	25090.95
930.6904	1990.8885	25919.9	25035.95
930.8282	1992.4795	25860.3	24975.45
930.966	1994.0697	25749.25	24868.35
931.1038	1995.6592	25660.85	24780.2
931.2415	1997.2479	25606.5	24723.7
931.3793	1998.8359	25504	24621.9
931.517	2000.4232	25404.2	24524.35
931.6547	2002.0097	25329.15	24446.8
931.7923	2003.5955	25217	24335.55
931.93	2005.1805	25199.55	24314.45
932.0676	2006.7648	25180.05	24296.55
932.2052	2008.3484	25075.05	24192.75
932.3427	2009.9312	25027.3	24143.35
932.4803	2011.5133	24902.65	24020.65
932.6178	2013.0946	24840.35	23957.15
932.7553	2014.6752	24776.4	23897
932.8928	2016.2551	24734.3	23852.5
933.0302	2017.8342	24563.35	23681
933.1676	2019.4126	24474.95	23594.85
933.305	2020.9902	24387.75	23507.55
933.4424	2022.5672	24371.75	23488.95
933.5798	2024.1433	24338.5	23451.65
933.7171	2025.7188	24266.75	23388.3
933.8544	2027.2935	24167.7	23285.8
933.9917	2028.8674	24074.7	23192.5
934.129	2030.4406	24012.75	23133.65
934.2662	2032.0131	23897.1	23017.65
934.4034	2033.5849	23816.35	22928
934.5406	2035.1559	23787.9	22905.9
934.6778	2036.7261	23744.3	22863.45
934.8149	2038.2957	23685.95	22804.85
934.952	2039.8645	23674.85	22795
935.0891	2041.4325	23623.8	22738.05
935.2262	2042.9998	23518.95	22635.7
935.3632	2044.5664	23490.65	22607.2
935.5002	2046.1323	23427.15	22544.65
935.6372	2047.6974	23310.5	22430.6
935.7742	2049.2617	23279.2	22398.55
935.9111	2050.8254	23263.85	22358.6
936.048	2052.3883	23216.7	22334.6
936.1849	2053.9504	23151.65	22270.65
936.3218	2055.5118	23060	22177.7
936.4586	2057.0725	22987.95	22104.2
936.5955	2058.6325	22953.6	22072.2
936.7323	2060.1917	22860.25	21978.8
936.869	2061.7502	22828.5	21943.9
937.0058	2063.3079	22691.3	21811.9
937.1425	2064.8649	22674.45	21790.3
937.2792	2066.4212	22634.6	21752.1
937.4159	2067.9767	22554.7	21673.2
937.5525	2069.5315	22478.4	21595.55
937.6891	2071.0856	22373.25	21491.75
937.8257	2072.6389	22279.25	21395.95
937.9623	2074.1915	22213.95	21336
938.0989	2075.7433	22090	21206.35
938.2354	2077.2945	22045.4	21163.85
938.3719	2078.8448	21965.35	21085.35
938.5084	2080.3945	21903.3	21022.4
938.6448	2081.9434	21880.7	21000.6
938.7812	2083.4916	21828.6	20948.1
938.9176	2085.039	21740.9	20856.9
939.054	2086.5857	21703.45	20819.7
939.1903	2088.1317	21691.5	20810.9
939.3267	2089.677	21624.25	20742.85
939.463	2091.2215	21518.5	20638.85
939.5992	2092.7652	21465.4	20581.75
939.7355	2094.3083	21440.75	20560.45
939.8717	2095.8506	21412.45	20531.9
940.0079	2097.3921	21388.45	20506.2
940.1441	2098.933	21281.1	20398.25
940.2802	2100.4731	21257.7	20375.2
940.4163	2102.0124	21219.65	20321.9
940.5524	2103.5511	21174.7	20294.2
940.6885	2105.089	21159.5	20278.2
940.8245	2106.6261	21079.8	20198.35
940.9606	2108.1626	21043.05	20159.9
941.0965	2109.6983	21023.6	20114.55
941.2325	2111.2332	20926.5	20044.9
941.3684	2112.7675	20890.35	20007.85
941.5044	2114.301	20848.05	19964.55
941.6403	2115.8337	20802.25	19919.25
941.7761	2117.3657	20736.55	19854.3
941.912	2118.897	20693	19812.8
942.0478	2120.4276	20628.4	19739.25
942.1835	2121.9575	20571.8	19691.75
942.3193	2123.4866	20523.35	19637.45
942.455	2125.0149	20461.2	19577.8
942.5907	2126.5426	20359.65	19479.9
942.7264	2128.0695	20327.25	19442.35
942.8621	2129.5956	20263.45	19382.75
942.9977	2131.1211	20254.5	19370.55
943.1333	2132.6458	20136.8	19256.05
943.2689	2134.1698	20129.85	19249.05
943.4044	2135.693	20055.85	19170.65
943.54	2137.2155	20031.6	19150.15
943.6755	2138.7373	19994.65	19112.75
943.8109	2140.2584	19906.15	19025.1
943.9464	2141.7787	19867.25	18981.3
944.0818	2143.2983	19768.35	18888.6
944.2172	2144.8171	19657.2	18775.45
944.3526	2146.3353	19626.1	18744.15
944.4879	2147.8527	19561	18681.25
944.6232	2149.3693	19538.85	18656.85
944.7585	2150.8853	19437.25	18554.95
944.8938	2152.4005	19369.95	18488.55
945.029	2153.9149	19348.75	18467.7
945.1642	2155.4287	19306.1	18424.85
945.2994	2156.9417	19267.85	18387
945.4346	2158.454	19219.05	18336.4
945.5697	2159.9655	19157.1	18275.25
945.7048	2161.4764	19124.95	18245.1
945.8399	2162.9865	19050.5	18168.3
945.9749	2164.4958	18975.5	18093.55
946.1099	2166.0045	18924.1	18039.4
946.2449	2167.5124	18895.8	18016.8
946.3799	2169.0195	18833.05	17953.45
946.5148	2170.526	18801.95	17919.35
946.6498	2172.0317	18749.95	17868.1
946.7846	2173.5367	18705.7	17822.6
946.9195	2175.0409	18649.75	17766.85
947.0543	2176.5445	18636.3	17756.6
947.1891	2178.0473	18524.6	17643.35
947.3239	2179.5494	18454.75	17570.5
947.4587	2181.0507	18397.15	17515.25
947.5934	2182.5513	18356.45	17475.25
947.7281	2184.0512	18331.85	17452
947.8628	2185.5504	18255.75	17373.8
947.9974	2187.0488	18166.55	17286.7
948.132	2188.5465	18101.3	17218.5
948.2666	2190.0435	18042.9	17162.5
948.4012	2191.5397	17961.7	17080.65
948.5357	2193.0353	17948.25	17067.7
948.6702	2194.5301	17843.9	16962.65
948.8047	2196.0241	17788.85	16906.75
948.9392	2197.5175	17749.55	16866.3
949.0736	2199.0101	17680.4	16796.2
949.208	2200.502	17597.7	16715.05
949.3424	2201.9931	17537.45	16656.7
949.4767	2203.4835	17477.05	16594.4
949.611	2204.9733	17451.2	16565.95
949.7453	2206.4622	17375.5	16496.25
949.8796	2207.9505	17324.05	16439.65
950.0138	2209.438	17261.4	16379.15
950.148	2210.9248	17214.45	16328.95
950.2822	2212.4109	17166.25	16285.15
950.4164	2213.8962	17105.9	16221.6
950.5505	2215.3809	17042.05	16159.05
950.6846	2216.8648	17006.65	16124.4
950.8186	2218.3479	16974.35	16088.85
950.9527	2219.8304	16877	15994.5
951.0867	2221.3121	16821.8	15939.75
951.2207	2222.7931	16748.9	15869.05
951.3546	2224.2733	16742.35	15861.8
951.4886	2225.7529	16660.55	15779.95
951.6225	2227.2317	16598	15713.8
951.7563	2228.7098	16578.85	15696.35
951.8902	2230.1872	16512.85	15631.15
952.024	2231.6638	16484.5	15602.75
952.1578	2233.1397	16412.45	15525.05
952.2916	2234.6149	16347.45	15467.15
952.4253	2236.0894	16298	15415.15
952.559	2237.5632	16270.45	15387.65
952.6927	2239.0362	16180.8	15298.1
952.8263	2240.5085	16123.8	15243
952.9599	2241.9801	16061.5	15179.9
953.0935	2243.4509	16052.4	15172.7
953.2271	2244.921	15971.8	15092.2
953.3606	2246.3904	15919.65	15036.5
953.4941	2247.8591	15878.2	14997.95
953.6276	2249.3271	15823.75	14942.75
953.7611	2250.7943	15753	14870.1
953.8945	2252.2608	15673.15	14792.8
954.0279	2253.7266	15666.45	14787
954.1612	2255.1917	15633.9	14753.15
954.2946	2256.656	15595.85	14713.45
954.4279	2258.1197	15522.25	14641.1
954.5612	2259.5826	15463.05	14578.95
954.6944	2261.0447	15433	14550
954.8276	2262.5062	15378.9	14493.25
954.9608	2263.9669	15364.95	14483.65
955.094	2265.4269	15337.6	14457.3
955.2271	2266.8862	15296.6	14416.15
955.3602	2268.3448	15234.5	14352.3
955.4933	2269.8026	15220.5	14339.35
955.6264	2271.2598	15151.2	14268.1
955.7594	2272.7162	15079.2	14199.85
955.8924	2274.1719	15060.65	14178.6
956.0253	2275.6268	15008.8	14127.3
956.1583	2277.0811	14986.6	14106.15
956.2912	2278.5346	14946	14066.8
956.4241	2279.9874	14928.6	14047.1
956.5569	2281.4395	14896.65	14017.3
956.6897	2282.8908	14842.4	13955.15
956.8225	2284.3414	14801.45	13919.6
956.9553	2285.7914	14745.9	13864.95
957.088	2287.2406	14679.5	13795.2
957.2207	2288.689	14657.15	13776.45
957.3534	2290.1368	14620.2	13737.3
957.486	2291.5838	14554.35	13670.8
957.6186	2293.0302	14535.9	13654.75
957.7512	2294.4758	14453.9	13573.05
957.8838	2295.9206	14400	13518.4
958.0163	2297.3648	14368.5	13487.6
958.1488	2298.8082	14365.85	13483
958.2813	2300.251	14301.9	13419.25
958.4137	2301.693	14257.25	13376.6
958.5461	2303.1343	14244.85	13360.65
958.6785	2304.5748	14185	13303.4
958.8108	2306.0147	14114.4	13230.85
958.9432	2307.4538	14094.7	13209.75
959.0754	2308.8922	14048.3	13167.5
959.2077	2310.3299	14004.4	13123.5
959.3399	2311.7669	13966.5	13087.45
959.4721	2313.2031	13881.3	13000.85
959.6043	2314.6387	13869.75	12987.8
959.7365	2316.0735	13807.35	12926.65
959.8686	2317.5076	13788.6	12906
960.0006	2318.941	13746.8	12868.15
960.1327	2320.3737	13708.1	12827.3
960.2647	2321.8056	13672.1	12788.7
960.3967	2323.2369	13624.95	12742
960.5287	2324.6674	13604.25	12718.65
960.6606	2326.0972	13530.95	12646.75
960.7925	2327.5263	13501.9	12623.75
960.9244	2328.9547	13425.4	12543.1
961.0562	2330.3823	13428.4	12545.65
961.1881	2331.8092	13417.05	12532.95
961.3198	2333.2355	13302.55	12420.9
961.4516	2334.661	13295.9	12413.05
961.5833	2336.0858	13266.75	12382.75
961.715	2337.5098	13236.9	12354.7
961.8467	2338.9332	13218	12337
961.9783	2340.3558	13151.7	12266.15
962.1099	2341.7778	13094.75	12213.75
962.2415	2343.199	13046.85	12161.45
962.373	2344.6195	13054.7	12174.5
962.5045	2346.0393	13028.2	12147.65
962.636	2347.4583	13005.45	12125
962.7675	2348.8767	12922.45	12041
962.8989	2350.2943	12895.5	12014.35
963.0303	2351.7113	12853.65	11972.25
963.1617	2353.1275	12831.15	11948.85
963.293	2354.543	12801.05	11910.4
963.4243	2355.9578	12763.4	11883.55
963.5556	2357.3718	12643.35	11761.25
963.6868	2358.7852	12614.55	11729
963.818	2360.1978	12600.85	11719.6
963.9492	2361.6098	12579.85	11696.8
964.0803	2363.021	12518.7	11635.7
964.2114	2364.4315	12493.95	11609.65
964.3425	2365.8413	12473.4	11586.7
964.4736	2367.2504	12410.9	11529.75
964.6046	2368.6587	12333.1	11449.65
964.7356	2370.0664	12293.85	11410.8
964.8666	2371.4733	12275.05	11391.35
964.9975	2372.8795	12243.35	11362.2
965.1284	2374.285	12174.85	11291.45
965.2593	2375.6899	12116	11234.8
965.3901	2377.0939	12102.65	11221.85
965.5209	2378.4973	12052.1	11171.6
965.6517	2379.9	12019.2	11135.4
965.7825	2381.3019	11971.95	11090.5
965.9132	2382.7032	11939.25	11056.65
966.0439	2384.1037	11923.35	11044.7
966.1745	2385.5035	11870.75	10989.25
966.3051	2386.9027	11841.1	10959.05
966.4357	2388.3011	11816.2	10930.7
966.5663	2389.6987	11796.4	10913.55
966.6968	2391.0957	11732.15	10851.65
966.8273	2392.492	11691.1	10809.45
966.9578	2393.8876	11597.75	10714.45
967.0882	2395.2824	11577.35	10697.35
967.2186	2396.6765	11552.15	10670.3
967.349	2398.07	11502.3	10621.95
967.4793	2399.4627	11474.05	10591.15
967.6097	2400.8547	11451.35	10569.2
967.7399	2402.246	11375.3	10488.55
967.8702	2403.6366	11337.6	10454.6
968.0004	2405.0265	11275	10394.05
968.1306	2406.4156	11238.5	10353.25
968.2607	2407.8041	11197.8	10314.6
968.3909	2409.1918	11153	10271
968.521	2410.5789	11138.8	10256.55
968.651	2411.9652	11081.95	10195.45
968.781	2413.3508	11035.05	10154.55
968.911	2414.7358	10991.45	10108.1
969.041	2416.12	10970	10090.55
969.1709	2417.5035	10922.95	10041.7
969.3008	2418.8863	10887.95	10006.5
969.4307	2420.2684	10849.45	9968.15
969.5606	2421.6497	10794.05	9910.7
969.6904	2423.0304	10717.55	9836.65
969.8201	2424.4104	10698.7	9815.7
969.9499	2425.7896	10692.6	9803.05
970.0796	2427.1682	10645.6	9763.75
970.2093	2428.546	10606.9	9725.3
970.3389	2429.9232	10592.75	9710.25
970.4685	2431.2996	10542.9	9661.45
970.5981	2432.6753	10531	9649.05
970.7277	2434.0503	10515.65	9633.45
970.8572	2435.4246	10459.3	9576.95
970.9867	2436.7982	10431.45	9548.05
971.1161	2438.1711	10393.95	9513.2
971.2456	2439.5433	10368.5	9485.05
971.375	2440.9148	10321.85	9435.7
971.5043	2442.2856	10267.2	9383.9
971.6336	2443.6557	10261.5	9378.15
971.7629	2445.025	10215.3	9332.85
971.8922	2446.3937	10210.5	9330.25
972.0214	2447.7617	10173.45	9291.05
972.1506	2449.1289	10134.65	9251.8
972.2798	2450.4955	10112.85	9227.8
972.4089	2451.8613	10089.1	9207.1
972.538	2453.2265	10066	9183.25
972.6671	2454.5909	10037.45	9156
972.7961	2455.9546	9992.1	9109.05
972.9251	2457.3177	9957.25	9074.95
973.0541	2458.68	9920.15	9037.75
973.1831	2460.0416	9914.7	9033.4
973.312	2461.4025	9901.9	9018.25
973.4408	2462.7627	9875.35	8981.45
973.5697	2464.1222	9837.9	8959.2
973.6985	2465.4811	9804.45	8920.9
973.8273	2466.8392	9766.5	8882.6
973.956	2468.1966	9742.4	8856.6
974.0847	2469.5533	9694.45	8810.25
974.2134	2470.9093	9697.7	8814.45
974.3421	2472.2645	9652.3	8771.4
974.4707	2473.6191	9633.7	8752.7
974.5993	2474.973	9579.05	8699.2
974.7278	2476.3262	9551.05	8668.65
974.8563	2477.6787	9531.3	8650.5
974.9848	2479.0305	9485.8	8603.85
975.1132	2480.3816	9459.6	8574.95
975.2417	2481.7319	9413.7	8529.25
975.37	2483.0816	9354.15	8471.2
975.4984	2484.4306	9348.8	8466
975.6267	2485.7789	9334.9	8452.5
975.755	2487.1264	9298.15	8413.6
975.8833	2488.4733	9228	8346.55
976.0115	2489.8195	9235.45	8347.15
976.1397	2491.165	9184.9	8298.85
976.2678	2492.5097	9142.4	8259.7
976.3959	2493.8538	9120.35	8238.3
976.524	2495.1972	9048.4	8166.65
976.6521	2496.5398	9040.6	8155.7
976.7801	2497.8818	9034.75	8150.3
976.9081	2499.2231	8995.25	8114.3
977.036	2500.5637	8947.95	8062.3
977.164	2501.9035	8932.2	8050.35
977.2918	2503.2427	8893.05	8006.4
977.4197	2504.5812	8853.4	7971.7
977.5475	2505.919	8831.3	7947.15
977.6753	2507.256	8833.45	7950.25
977.8031	2508.5924	8799.3	7917.45
977.9308	2509.9281	8741.35	7852.65
978.0585	2511.2631	8717.6	7836.75
978.1861	2512.5974	8717.9	7836.8
978.3137	2513.9309	8681.05	7798.85
978.4413	2515.2638	8654.4	7746.9
978.5689	2516.596	8626.25	7746.05
978.6964	2517.9275	8561.3	7676.9
978.8239	2519.2583	8530.95	7648
978.9513	2520.5884	8508.7	7624.25
979.0788	2521.9178	8511.2	7628.3
979.2062	2523.2465	8472.35	7589.9
979.3335	2524.5745	8420.25	7539.75
979.4608	2525.9018	8385.25	7502.15
979.5881	2527.2284	8389	7508.9
979.7154	2528.5543	8358.4	7475.7
979.8426	2529.8796	8325.9	7443.7
979.9698	2531.2041	8311	7429.75
980.0969	2532.5279	8310.3	7428.25
980.224	2533.851	8303.35	7422.1
980.3511	2535.1735	8244.8	7363.65
980.4781	2536.4952	8225.95	7346.45
980.6052	2537.8163	8199.5	7315.5
980.7321	2539.1366	8185.6	7304.85
980.8591	2540.4562	8155.05	7271.3
980.986	2541.7752	8140.9	7262.25
981.1129	2543.0935	8132.35	7250.4
981.2397	2544.411	8114.1	7231.35
981.3665	2545.7279	8087.7	7207.45
981.4933	2547.0441	8053.2	7172.6
981.62	2548.3596	8067.8	7182.15
981.7467	2549.6744	8022.35	7142.55
981.8734	2550.9885	8007.25	7118.75
982.0001	2552.3019	7994.7	7115.35
982.1267	2553.6146	7960.6	7078.3
982.2532	2554.9266	7947.8	7066.05
982.3798	2556.2379	7916.35	7032.95
982.5063	2557.5485	7907.1	7024
982.6327	2558.8585	7884	6996.65
982.7592	2560.1677	7867.2	6981
982.8856	2561.4762	7865.6	6984.4
983.0119	2562.7841	7839.85	6956.15
983.1383	2564.0913	7830.7	6951.55
983.2646	2565.3977	7797.7	6917.7
983.3908	2566.7035	7770.1	6890
983.517	2568.0086	7767.35	6886.25
983.6432	2569.313	7760.9	6878.5
983.7694	2570.6167	7737	6851.25
983.8955	2571.9197	7696.25	6813.7
984.0216	2573.222	7695.9	6812.25
984.1476	2574.5236	7689.2	6807.25
984.2737	2575.8246	7654.75	6771.7
984.3996	2577.1248	7661.05	6776.15
984.5256	2578.4244	7635.9	6755.55
984.6515	2579.7232	7618.4	6733.7
984.7774	2581.0214	7632.9	6726.45
984.9032	2582.3189	7568.75	6688.45
985.029	2583.6157	7565.8	6679
985.1548	2584.9118	7554.75	6672.15
985.2806	2586.2072	7508.7	6628.8
985.4063	2587.5019	7479.1	6596.6
985.5319	2588.7959	7455.4	6575.2
985.6576	2590.0893	7450.9	6567.75
985.7832	2591.3819	7444	6563.85
985.9087	2592.6739	7408.6	6527.8
986.0343	2593.9652	7400.85	6516.7
986.1597	2595.2557	7373.4	6493.05
986.2852	2596.5456	7327.75	6443.7
986.4106	2597.8348	7311.15	6430.05
986.536	2599.1234	7271.3	6387.8
986.6614	2600.4112	7256.4	6375.15
986.7867	2601.6983	7247.7	6362.2
986.912	2602.9848	7200.9	6318.45
987.0372	2604.2705	7170.4	6281.4
987.1624	2605.5556	7148.6	6267
987.2876	2606.84	7156.4	6275
987.4128	2608.1237	7099.2	6215.25
987.5379	2609.4067	7078.8	6196.25
987.6629	2610.689	7046.9	6153.15
987.788	2611.9707	7022.2	6137.4
987.913	2613.2516	7019.35	6131.85
988.0379	2614.5319	6964.85	6083.55
988.1629	2615.8115	6934.65	6051.6
988.2878	2617.0903	6919.5	6035.75
988.4126	2618.3685	6894.75	6012.1
988.5375	2619.6461	6880.6	6000.65
988.6622	2620.9229	6857	5974.5
988.787	2622.199	6849.6	5968.1
988.9117	2623.4745	6840.4	5957.95
989.0364	2624.7493	6795.45	5912.95
989.161	2626.0234	6793.8	5911.25
989.2857	2627.2968	6752.6	5871.5
989.4102	2628.5695	6717.75	5835.55
989.5348	2629.8415	6671.4	5789.65
989.6593	2631.1128	6662.75	5781.95
989.7837	2632.3835	6626.7	5745.1
989.9082	2633.6535	6614.25	5734.2
990.0326	2634.9228	6602.5	5720.95
990.1569	2636.1914	6585.6	5703.6
990.2812	2637.4593	6581.75	5694.4
990.4055	2638.7265	6527.65	5645
990.5298	2639.9931	6520	5637.35
990.654	2641.259	6498.15	5612.9
990.7782	2642.5242	6473.65	5590.35
990.9023	2643.7887	6456.55	5574.4
991.0264	2645.0525	6429.85	5548
991.1505	2646.3156	6407.1	5523.9
991.2745	2647.5781	6389.05	5508.85
991.3985	2648.8398	6367.25	5487.1
991.5225	2650.1009	6372.25	5455.65
991.6464	2651.3613	6322.2	5440.55
991.7703	2652.6211	6294.45	5410.85
991.8942	2653.8801	6289.3	5409.05
992.018	2655.1385	6271.35	5384
992.1418	2656.3961	6266.75	5386.45
992.2655	2657.6531	6240.65	5358.45
992.3892	2658.9094	6234.7	5352.85
992.5129	2660.1651	6195.95	5314.55
992.6366	2661.42	6200.35	5319.2
992.7602	2662.6743	6181.45	5299.05
992.8837	2663.9279	6181.5	5300.3
993.0073	2665.1808	6144.1	5261.15
993.1307	2666.433	6126.6	5243.9
993.2542	2667.6846	6101.95	5219.45
993.3776	2668.9354	6108.35	5224.85
993.501	2670.1856	6068.75	5186.25
993.6244	2671.4351	6057.65	5177.15
993.7477	2672.6839	6052.9	5170
993.8709	2673.9321	6024.8	5144.3
993.9942	2675.1795	6001.15	5119.7
994.1174	2676.4263	5984.7	5102.05
994.2405	2677.6724	5961.25	5082.2
994.3637	2678.9179	5963.4	5078.45
994.4868	2680.1626	5941.7	5060.55
994.6098	2681.4067	5923	5040.95
994.7328	2682.6501	5893.25	5011.75
994.8558	2683.8928	5882	5000
994.9788	2685.1348	5854.3	4972.05
995.1017	2686.3761	5844.15	4963.7
995.2245	2687.6168	5815.25	4933.6
995.3474	2688.8568	5791.05	4908.25
995.4702	2690.0961	5773.35	4893.55
995.5929	2691.3348	5742.45	4860.95
995.7156	2692.5727	5754	4869.5
995.8383	2693.81	5716.4	4833.2
995.961	2695.0466	5715.05	4833.65
996.0836	2696.2826	5686.8	4804
996.2062	2697.5178	5666.95	4782.45
996.3287	2698.7524	5672.3	4789.25
996.4512	2699.9863	5645.95	4761.2
996.5737	2701.2195	5619.75	4741.05
996.6961	2702.452	5627.25	4743.7
996.8185	2703.6839	5590.45	4707.65
996.9408	2704.9151	5584.25	4702.8
997.0631	2706.1456	5569.7	4687.1
997.1854	2707.3755	5533.15	4652.6
997.3077	2708.6046	5527.85	4643.3
997.4299	2709.8331	5522.85	4640.95
997.552	2711.0609	5490.7	4606.85
997.6742	2712.2881	5460.15	4578.15
997.7963	2713.5145	5457.55	4574.1
997.9183	2714.7403	5447.3	4568.3
998.0403	2715.9654	5412.7	4531.05
998.1623	2717.1899	5417.45	4522.65
998.2842	2718.4136	5409.25	4529.8
998.4062	2719.6367	5387.2	4507
998.528	2720.8591	5368.35	4478.95
998.6498	2722.0809	5351.4	4469.95
998.7716	2723.3019	5347.65	4461.35
998.8934	2724.5223	5325.4	4442.6
999.0151	2725.7421	5301.35	4417.75
999.1368	2726.9611	5275.95	4392.05
999.2584	2728.1795	5269.45	4384.15
999.38	2729.3972	5240.55	4358.85
999.5016	2730.6142	5215.9	4326.4
999.6231	2731.8306	5169.15	4287.5
999.7446	2733.0462	5144.55	4259.05
999.8661	2734.2612	5134.85	4248.4
999.9875	2735.4756	5129.7	4245.45
1000.1089	2736.6892	5097.7	4215.75
1000.2302	2737.9022	5072.55	4191.7
1000.3515	2739.1145	5042.95	4160.55
1000.4728	2740.3262	5036.65	4147.7
1000.594	2741.5372	5000.55	4119
1000.7152	2742.7475	4997.1	4114.1
1000.8363	2743.9571	4983.55	4101.15
1000.9575	2745.1661	4975.35	4089.85
1001.0785	2746.3744	4955.2	4072.9
1001.1996	2747.582	4926.15	4044.7
1001.3206	2748.7889	4922.1	4038.2
1001.4415	2749.9952	4898.8	4018.55
1001.5625	2751.2008	4879.65	3996.4
1001.6833	2752.4057	4861.95	3979.65
1001.8042	2753.61	4844.05	3960.8
1001.925	2754.8136	4846.05	3963.3
1002.0458	2756.0165	4804.8	3922
1002.1665	2757.2188	4815.6	3934.6
1002.2872	2758.4204	4789.8	3905.9
1002.4078	2759.6213	4762.05	3877.15
1002.5285	2760.8215	4757.1	3869.75
1002.649	2762.0211	4745.8	3862.75
1002.7696	2763.22	4733.45	3847.2
1002.8901	2764.4182	4717.55	3833.7
1003.0106	2765.6158	4702.2	3819.1
1003.131	2766.8127	4689.75	3806.2
1003.2514	2768.009	4666.75	3784.55
1003.3717	2769.2045	4671.05	3787.15
1003.492	2770.3994	4663.2	3781.2
1003.6123	2771.5936	4644.25	3763.25
1003.7325	2772.7872	4606.55	3724.65
1003.8527	2773.9801	4586.05	3701.75
1003.9729	2775.1723	4578.35	3680.05
1004.093	2776.3639	4557.7	3678.65
1004.2131	2777.5548	4547.45	3664.95
1004.3331	2778.745	4524.65	3641.65
1004.4531	2779.9346	4495.65	3613.9
1004.5731	2781.1235	4498.55	3615
1004.693	2782.3117	4489.05	3608.2
1004.8129	2783.4992	4463.05	3581.55
1004.9328	2784.6861	4464.6	3584.2
1005.0526	2785.8723	4436.65	3554.5
1005.1723	2787.0579	4437.5	3556.75
1005.2921	2788.2428	4419.1	3535.45
1005.4118	2789.427	4405.7	3526.3
1005.5314	2790.6106	4378.15	3494.5
1005.651	2791.7935	4378.4	3496
1005.7706	2792.9757	4344.85	3463.65
1005.8902	2794.1573	4335.4	3452.05
1006.0097	2795.3382	4321.1	3438.85
1006.1291	2796.5184	4305.95	3424.35
1006.2485	2797.698	4307.65	3425.8
1006.3679	2798.8769	4290.8	3408.6
1006.4873	2800.0551	4276.85	3394
1006.6066	2801.2327	4261.6	3377.6
1006.7258	2802.4096	4236.55	3356.25
1006.8451	2803.5859	4224.45	3340.9
1006.9642	2804.7615	4211.55	3328.95
1007.0834	2805.9364	4205.55	3325.45
1007.2025	2807.1106	4206.4	3325.8
1007.3216	2808.2842	4199.8	3317.25
1007.4406	2809.4572	4169.85	3288.35
1007.5596	2810.6294	4162.1	3280.45
1007.6785	2811.801	4168.8	3288.25
1007.7975	2812.972	4169.45	3286.7
1007.9163	2814.1423	4147.6	3266.15
1008.0352	2815.3119	4161.75	3280.7
1008.154	2816.4808	4163.95	3283.95
1008.2727	2817.6491	4178.05	3294.25
1008.3914	2818.8167	4185.05	3304.1
1008.5101	2819.9837	4193.4	3306.25
1008.6288	2821.15	4208.25	3326.75
1008.7474	2822.3157	4235.8	3354.75
1008.8659	2823.4807	4275.05	3390.85
1008.9844	2824.645	4281.8	3400.2
1009.1029	2825.8086	4315.05	3435.75
1009.2214	2826.9716	4360.2	3481.05
1009.3398	2828.134	4382	3501.85
1009.4581	2829.2957	4421.9	3538.05
1009.5764	2830.4567	4440.2	3560.45
1009.6947	2831.617	4451.95	3568.85
1009.813	2832.7767	4458.9	3576.05
1009.9312	2833.9358	4453.8	3573.65
1010.0493	2835.0941	4431.05	3546.8
1010.1675	2836.2519	4418.25	3537.2
1010.2855	2837.4089	4392.2	3512.4
1010.4036	2838.5653	4371.5	3490.95
1010.5216	2839.7211	4339	3458.6
1010.6396	2840.8761	4314.8	3431.05
1010.7575	2842.0306	4291.65	3409.95
1010.8754	2843.1843	4288.35	3407.7
1010.9932	2844.3374	4291.2	3409.45
1011.111	2845.4899	4278.75	3396
1011.2288	2846.6417	4267.35	3386.55
1011.3465	2847.7928	4290.05	3409.05
1011.4642	2848.9433	4275.55	3394.5
1011.5818	2850.0931	4285.15	3403.85
1011.6995	2851.2422	4286.55	3404.8
1011.817	2852.3907	4264.15	3379.65
1011.9345	2853.5385	4294.7	3410.05
1012.052	2854.6857	4278.5	3386.4
1012.1695	2855.8323	4257.75	3375.6
1012.2869	2856.9781	4260.5	3378.55
1012.4042	2858.1233	4276.4	3393.85
1012.5216	2859.2679	4279.3	3396.95
1012.6389	2860.4118	4297.95	3415.95
1012.7561	2861.555	4304.9	3419.4
1012.8733	2862.6976	4296.15	3414.2
1012.9905	2863.8395	4329.75	3448.4
1013.1076	2864.9808	4305.15	3423.15
1013.2247	2866.1214	4303.3	3421.65
1013.3417	2867.2614	4306.6	3423.85
1013.4587	2868.4007	4305.8	3423.25
1013.5757	2869.5393	4292	3409.55
1013.6926	2870.6773	4324.95	3441
1013.8095	2871.8146	4312.3	3427.4
1013.9263	2872.9513	4306.3	3423.3
1014.0431	2874.0874	4293.5	3411.5
1014.1599	2875.2227	4301.75	3420.6
1014.2766	2876.3574	4316.35	3434.65
1014.3933	2877.4915	4290	3409.9
1014.51	2878.6249	4293.55	3412.1
1014.6266	2879.7577	4300.2	3416.35
1014.7431	2880.8898	4298.95	3406.1
1014.8596	2882.0212	4307.75	3426.2
1014.9761	2883.152	4297.9	3416.05
1015.0925	2884.2821	4294.1	3412.25
1015.2089	2885.4116	4283.9	3403.3
1015.3253	2886.5405	4302.15	3420.9
1015.4416	2887.6686	4302.5	3418.8
1015.5579	2888.7962	4284.85	3404.15
1015.6741	2889.923	4282.05	3400.8
1015.7903	2891.0493	4261.05	3380.9
1015.9065	2892.1748	4242.55	3361.25
1016.0226	2893.2997	4221.75	3337.6
1016.1387	2894.424	4223.5	3341.7
1016.2547	2895.5476	4193.1	3310.35
1016.3707	2896.6706	4197.15	3318.4
1016.4866	2897.7929	4181.95	3298.9
1016.6025	2898.9145	4169.5	3289.4
1016.7184	2900.0355	4145.05	3263.25
1016.8342	2901.1559	4121.35	3238.55
1016.95	2902.2756	4125	3244.85
1017.0658	2903.3946	4104.25	3222.25
1017.1815	2904.513	4093.4	3209.7
1017.2971	2905.6308	4074.25	3193.35
1017.4127	2906.7479	4078.6	3196.95
1017.5283	2907.8643	4058.45	3175.65
1017.6439	2908.9801	4039.95	3157.65
1017.7594	2910.0953	4020.75	3139.1
1017.8748	2911.2098	4007.5	3121.75
1017.9902	2912.3236	4014.35	3123.6
1018.1056	2913.4368	4020.3	3135.1
1018.2209	2914.5494	3987.7	3104.5
1018.3362	2915.6613	3969.35	3082.05
1018.4515	2916.7725	3931.15	3048.95
1018.5667	2917.8831	3916.9	3034.35
1018.6819	2918.9931	3907.25	3023.25
1018.797	2920.1024	3869.2	2989.3
1018.9121	2921.211	3853.05	2970.9
1019.0271	2922.319	3833.7	2951.35
1019.1421	2923.4264	3820.35	2939.75
1019.2571	2924.5331	3804.95	2924.5
1019.372	2925.6391	3785.2	2904.6
1019.4869	2926.7445	3776.9	2896.35
1019.6017	2927.8493	3770.15	2888.65
1019.7165	2928.9534	3774.45	2893.4
1019.8313	2930.0569	3776.15	2890.3
1019.946	2931.1597	3775.55	2892.05
1020.0606	2932.2619	3766.45	2881.85
1020.1753	2933.3634	3762.85	2882.9
1020.2899	2934.4643	3773.7	2884.6
1020.4044	2935.5645	3776.45	2887.9
1020.5189	2936.6641	3766.95	2880.25
1020.6334	2937.763	3754.8	2873.8
1020.7478	2938.8613	3758.65	2877
1020.8622	2939.959	3743.7	2858.8
1020.9765	2941.056	3703	2822.4
1021.0908	2942.1523	3667.95	2784.85
1021.2051	2943.248	3631.05	2747.95
1021.3193	2944.3431	3581.1	2700.45
1021.4334	2945.4375	3523.35	2639.75
1021.5476	2946.5313	3468.7	2587.75
1021.6617	2947.6244	3413.2	2532.1
1021.7757	2948.7169	3374.2	2491.65
1021.8897	2949.8087	3334	2455.4
1022.0037	2950.8999	3290.85	2409.6
1022.1176	2951.9904	3245.55	2363.75
1022.2315	2953.0803	3214.15	2333.6
1022.3453	2954.1696	3177.5	2296.35
1022.4591	2955.2582	3157.45	2276.2
1022.5728	2956.3462	3131.8	2249.45
1022.6865	2957.4335	3125.3	2243.35
1022.8002	2958.5202	3108.35	2225.55
1022.9138	2959.6062	3097	2215.35
1023.0274	2960.6916	3091.85	2211.15
1023.141	2961.7764	3076.1	2192.1
1023.2545	2962.8605	3078.45	2196.55
1023.3679	2963.9439	3065.2	2184.35
1023.4813	2965.0267	3058.1	2172.4
1023.5947	2966.1089	3065.7	2163.8
1023.708	2967.1905	3007.85	2126.05
1023.8213	2968.2714	3008.25	2128.1
1023.9346	2969.3516	2987.55	2105.2
1024.0478	2970.4312	2993	2101.8
1024.1609	2971.5102	2967.85	2085.8
1024.274	2972.5885	2962.5	2079.75
1024.3871	2973.6662	2971.4	2082.75
1024.5002	2974.7432	2959.9	2077.9
1024.6132	2975.8196	2945.05	2063.6
1024.7261	2976.8954	2947.15	2066.15
1024.839	2977.9705	2940.65	2058.2
1024.9519	2979.045	2918.3	2037.55
1025.0647	2980.1188	2913.35	2034.2
1025.1775	2981.192	2909.05	2029.25
1025.2902	2982.2645	2906.35	2024
1025.4029	2983.3364	2872.75	1992.65
1025.5156	2984.4077	2852.1	1971.7
1025.6282	2985.4783	2839.7	1951.75
1025.7407	2986.5483	2809.65	1928.65
1025.8532	2987.6177	2803.4	1923
1025.9657	2988.6864	2767.3	1883.8
1026.0782	2989.7545	2768.45	1885.5
1026.1906	2990.8219	2744	1861.85
1026.3029	2991.8887	2736.55	1852.3
1026.4152	2992.9548	2709.65	1828.3
1026.5275	2994.0204	2684.25	1804.4
1026.6397	2995.0852	2674.7	1793.25
1026.7519	2996.1495	2654.75	1771.95
1026.864	2997.2131	2617.05	1734.15
1026.9761	2998.276	2600	1718.25
1027.0882	2999.3383	2598.2	1717
1027.2002	3000.4	2572.8	1690.85
1027.3122	3001.4611	2562.9	1682.3
1027.4241	3002.5215	2534.3	1653.3
1027.536	3003.5812	2521.35	1639.3
1027.6478	3004.6404	2509.2	1627.95
1027.7596	3005.6989	2505.5	1622.75
1027.8714	3006.7567	2489.35	1606.1
1027.9831	3007.8139	2502.65	1597.5
1028.0947	3008.8705	2468.25	1587.7
1028.2064	3009.9264	2446.2	1560.8
1028.3179	3010.9818	2449.2	1568.9
1028.4295	3012.0364	2440.35	1556.9
1028.541	3013.0905	2430.25	1549.9
1028.6524	3014.1439	2418.4	1537.55
1028.7638	3015.1966	2407.55	1526.35
1028.8752	3016.2487	2414.4	1532.25
1028.9865	3017.3002	2395.5	1510.2
1029.0978	3018.3511	2392.35	1512.7
1029.209	3019.4013	2381.9	1501.9
1029.3202	3020.4509	2385.5	1503.85
1029.4314	3021.4998	2371.55	1488.95
1029.5425	3022.5481	2363.4	1482.15
1029.6535	3023.5958	2357.3	1474.85
1029.7645	3024.6428	2363.75	1480.95
1029.8755	3025.6892	2355.85	1473.9
1029.9864	3026.735	2341.05	1459.75
1030.0973	3027.7802	2333.85	1451.9
1030.2082	3028.8247	2321.8	1441.2
1030.319	3029.8685	2316	1433.45
1030.4297	3030.9118	2306	1422.65
1030.5404	3031.9544	2305.6	1424.6
1030.6511	3032.9963	2289.25	1407.9
1030.7617	3034.0376	2288.15	1406.05
1030.8723	3035.0783	2284.95	1402.5
1030.9829	3036.1184	2285.25	1403.35
1031.0934	3037.1578	2282.4	1401.8
1031.2038	3038.1966	2274.7	1391.85
1031.3142	3039.2348	2276.95	1397.75
1031.4246	3040.2723	2273.9	1382.6
1031.5349	3041.3092	2260.6	1379.6
1031.6452	3042.3455	2255.3	1374.5
1031.7554	3043.3811	2241.05	1356.4
1031.8656	3044.4161	2242.35	1360.15
1031.9758	3045.4505	2240.05	1359.5
1032.0859	3046.4842	2229.85	1345.6
1032.1959	3047.5173	2218.15	1338.75
1032.3059	3048.5498	2227.35	1344.7
1032.4159	3049.5816	2218.8	1336.9
1032.5258	3050.6128	2202.9	1319.65
1032.6357	3051.6434	2199.8	1315.55
1032.7455	3052.6734	2204.55	1323.4
1032.8553	3053.7027	2195.25	1312.05
1032.9651	3054.7314	2192.3	1312.4
1033.0748	3055.7594	2192.15	1310.25
1033.1845	3056.7868	2185.2	1301.9
1033.2941	3057.8136	2178.85	1297.15
1033.4037	3058.8398	2189.5	1306.5
1033.5132	3059.8653	2179.7	1298.65
1033.6227	3060.8902	2166.6	1285.45
1033.7321	3061.9145	2166.6	1283.2
1033.8415	3062.9381	2151.45	1269.15
1033.9509	3063.9612	2175.3	1277.3
1034.0602	3064.9835	2155.75	1274.55
1034.1694	3066.0053	2151.85	1269
1034.2787	3067.0264	2139.2	1257.95
1034.3878	3068.0469	2143.35	1261.6
1034.497	3069.0668	2148.45	1265.4
1034.6061	3070.086	2139.3	1258.2
1034.7151	3071.1046	2122.1	1240.5
1034.8241	3072.1226	2127.4	1243.85
1034.9331	3073.1399	2107.85	1225.1
1035.042	3074.1567	2108.65	1227.25
1035.1508	3075.1727	2105.4	1221.4
1035.2597	3076.1882	2094.65	1214.95
1035.3684	3077.203	2079.4	1198.35
1035.4772	3078.2173	2080.9	1197.55
1035.5859	3079.2308	2071.35	1188.5
1035.6945	3080.2438	2064.55	1180.15
1035.8031	3081.2561	2055.7	1175.55
1035.9117	3082.2678	2049.1	1166.8
1036.0202	3083.2789	2040.3	1159.3
1036.1286	3084.2893	2023.1	1141.4
1036.2371	3085.2991	2023	1140.15
1036.3454	3086.3083	2022.1	1134.95
1036.4538	3087.3169	2010.45	1128.65
1036.562	3088.3248	2013	1131.15
1036.6703	3089.3321	2009.35	1126.2
1036.7785	3090.3388	1993.7	1111.8
1036.8866	3091.3449	1996.8	1113.55
1036.9948	3092.3503	1989.9	1106.15
1037.1028	3093.3551	1977.2	1095.6
1037.2108	3094.3593	1973.3	1090.8
1037.3188	3095.3629	1963.05	1083.25
1037.4267	3096.3658	1955.95	1072.05
1037.5346	3097.3681	1949	1067.85
1037.6425	3098.3698	1946.7	1063.8
1037.7503	3099.3708	1951.15	1062.75
1037.858	3100.3713	1930.85	1051.35
1037.9657	3101.3711	1927	1045.75
1038.0734	3102.3702	2043.4	1024.2
1038.181	3103.3688	1924	1041.65
1038.2886	3104.3667	1918.55	1038.55
1038.3961	3105.364	1902	1020.55
1038.5036	3106.3607	1893.55	1009.1
1038.611	3107.3568	1895.35	1012
1038.7184	3108.3522	1893.9	1014
1038.8257	3109.347	1877.95	996.8
1038.933	3110.3412	1871.55	986.8
1039.0403	3111.3348	1867.15	987.35
1039.1475	3112.3277	1874.6	993.7
1039.2547	3113.32	1856.95	977.05
1039.3618	3114.3117	1839.95	957.1
1039.4689	3115.3028	1843.35	961.45
1039.5759	3116.2932	1839.25	957.35
1039.6829	3117.2831	1842	953.7
1039.7898	3118.2723	1820.35	939.85
1039.8967	3119.2608	1822.6	941.15
1040.0035	3120.2488	1819.6	936.85
1040.1103	3121.2361	1812.95	931.8
1040.2171	3122.2229	1792.5	909.8
1040.3238	3123.209	1789.65	909.05
1040.4305	3124.1944	1789	906.8
1040.5371	3125.1793	1790.55	908.75
1040.6437	3126.1635	1776.25	894
1040.7502	3127.1471	1773.85	892.5
1040.8567	3128.1301	1776.55	894.8
1040.9631	3129.1125	1768.1	887.8
1041.0695	3130.0942	1772.6	890.65
1041.1759	3131.0753	1760.4	869.65
1041.2822	3132.0558	1755.6	870.05
1041.3884	3133.0357	1753.35	871.3
1041.4946	3134.015	1743.3	862.85
1041.6008	3134.9936	1740.8	857.1
1041.7069	3135.9716	1758.8	856.9
1041.813	3136.949	1734.55	854.75
1041.919	3137.9258	1732.8	845.45
1042.025	3138.902	1733.85	848.7
1042.1309	3139.8775	1728.5	847.3
1042.2368	3140.8524	1715.75	834.45
1042.3427	3141.8267	1724.2	839.4
1042.4485	3142.8004	1715.65	833.15
1042.5542	3143.7735	1717.7	830.6
1042.6599	3144.7459	1716.1	833.25
1042.7656	3145.7178	1703.45	823.6
1042.8712	3146.689	1697.95	818.6
1042.9768	3147.6596	1696.95	813.2
1043.0823	3148.6295	1692	811.05
1043.1878	3149.5989	1684.6	803.4
1043.2932	3150.5676	1683.95	804.4
1043.3986	3151.5357	1682.7	801.75
1043.5039	3152.5032	1669.3	788.2
1043.6092	3153.4701	1673.05	793.05
1043.7145	3154.4364	1665.65	782.45
1043.8197	3155.402	1654.75	775.6
1043.9248	3156.367	1656.15	772.15
1044.03	3157.3315	1680.95	759.65
1044.135	3158.2952	1647.3	765.6
1044.24	3159.2584	1641.9	760.45
1044.345	3160.221	1633.2	750.45
1044.4499	3161.1829	1639.95	757.2
1044.5548	3162.1442	1626.5	745.3
1044.6596	3163.105	1621.15	739.55
1044.7644	3164.065	1615.35	733.55
1044.8692	3165.0245	1615.05	730.35
1044.9739	3165.9834	1611.15	730.25
1045.0785	3166.9416	1606.6	724.6
1045.1831	3167.8993	1597.1	715.05
1045.2877	3168.8563	1592.35	711.55
1045.3922	3169.8127	1589.65	708.3
1045.4966	3170.7684	1589.5	707.2
1045.6011	3171.7236	1590.9	708.55
1045.7054	3172.6782	1591	708.45
1045.8098	3173.6321	1580.5	698.7
1045.914	3174.5854	1582.4	696.75
1046.0183	3175.5381	1567.2	685.95
1046.1224	3176.4902	1568.65	688.95
1046.2266	3177.4417	1562.3	681.5
1046.3307	3178.3926	1559.75	675.45
1046.4347	3179.3428	1559.15	678.5
1046.5387	3180.2924	1554.8	674.85
1046.6427	3181.2415	1553.75	671.25
1046.7466	3182.1899	1544.45	661.3
1046.8504	3183.1377	1537.65	655.55
1046.9542	3184.0848	1541.7	656.55
1047.058	3185.0314	1532.6	650.4
1047.1617	3185.9773	1525.05	643.65
1047.2654	3186.9227	1530.6	648.85
1047.369	3187.8674	1517.5	635.65
1047.4726	3188.8115	1520.85	634.75
1047.5761	3189.755	1518.35	637.8
1047.6796	3190.6979	1510.65	628.9
1047.783	3191.6402	1515	633.75
1047.8864	3192.5818	1503.85	621.75
1047.9898	3193.5229	1512.6	624.65
1048.0931	3194.4633	1503.35	621.95
1048.1963	3195.4031	1505.05	621.9
1048.2995	3196.3423	1495.2	616.35
1048.4027	3197.2809	1493.3	612.9
1048.5058	3198.2189	1483.85	603.35
1048.6089	3199.1563	1484.95	597.55
1048.7119	3200.0931	1483.3	603.25
1048.8148	3201.0292	1473.6	592.9
1048.9178	3201.9648	1469.9	588.35
1049.0206	3202.8997	1468.7	585.8
1049.1235	3203.834	1474.2	592.65
1049.2262	3204.7677	1463.35	581.65
1049.329	3205.7008	1460.45	575.75
1049.4317	3206.6333	1461.45	581.75
1049.5343	3207.5652	1463.7	579.95
1049.6369	3208.4964	1455.65	575.15
1049.7394	3209.4271	1454.1	574.65
1049.8419	3210.3571	1452.1	570.8
1049.9444	3211.2865	1445.4	563.35
1050.0468	3212.2154	1449.1	567.85
1050.1491	3213.1436	1441.95	558.55
1050.2514	3214.0712	1443.15	555.8
1050.3537	3214.9982	1436.1	554.55
1050.4559	3215.9246	1429.5	546.3
1050.5581	3216.8503	1424.35	544.45
1050.6602	3217.7755	1421.05	538.5
1050.7623	3218.7001	1431.3	549.65
1050.8643	3219.624	1415.9	534.2
1050.9663	3220.5473	1420.05	537.55
1051.0682	3221.4701	1417	534.75
1051.1701	3222.3922	1410.15	526.8
1051.2719	3223.3137	1409.45	528.8
1051.3737	3224.2346	1404.85	523.8
1051.4754	3225.1549	1401.95	519
1051.5771	3226.0746	1402.65	521.2
1051.6788	3226.9937	1401.65	520.3
1051.7804	3227.9121	1398.6	518
1051.8819	3228.83	1395.5	513.25
1051.9834	3229.7473	1392.5	509.3
1052.0849	3230.6639	1388.25	507.8
1052.1863	3231.5799	1382.25	500.75
1052.2876	3232.4954	1386.35	504.55
1052.3889	3233.4102	1376.2	496.7
1052.4902	3234.3244	1372.15	491.35
1052.5914	3235.238	1376.2	495.95
1052.6926	3236.151	1394.9	490.85
1052.7937	3237.0634	1362.85	483.2
1052.8948	3237.9752	1357.8	477.4
1052.9958	3238.8864	1363.85	480.5
1053.0968	3239.797	1354.7	472.8
1053.1977	3240.7069	1351.85	469.6
1053.2986	3241.6163	1350.8	467.6
1053.3994	3242.5251	1351.5	470.45
1053.5002	3243.4332	1342.35	461.6
1053.6009	3244.3408	1343	461.3
1053.7016	3245.2477	1337.75	458.65
1053.8022	3246.154	1339.45	455.4
1053.9028	3247.0598	1338.15	456.05
1054.0034	3247.9649	1331.3	447.85
1054.1039	3248.8694	1331.65	448.6
1054.2043	3249.7733	1327.4	446.9
1054.3047	3250.6766	1323.45	440.95
1054.4051	3251.5793	1322.9	442.6
1054.5054	3252.4814	1315.6	435.8
1054.6056	3253.3829	1313.6	433
1054.7058	3254.2838	1313.2	432.6
1054.806	3255.1841	1307.7	425.6
1054.9061	3256.0838	1305.75	425.35
1055.0061	3256.9829	1303.8	424.05
1055.1062	3257.8814	1299.4	415.55
1055.2061	3258.7792	1299.95	415.4
1055.306	3259.6765	1301.2	418.85
1055.4059	3260.5731	1289.15	407.7
1055.5057	3261.4692	1281.8	399.95
1055.6055	3262.3647	1274.3	391.95
1055.7052	3263.2595	1269.8	388.35
1055.8049	3264.1538	1262.3	381.55
1055.9045	3265.0474	1260.4	379.6
1056.0041	3265.9404	1256.25	374.6
1056.1036	3266.8329	1244.15	362
1056.2031	3267.7247	1252.95	361.6
1056.3025	3268.616	1235	356.1
1056.4019	3269.5066	1223.3	340.75
1056.5013	3270.3966	1217.1	334.45
1056.6005	3271.286	1206.95	326.85
