Software Version:	3.9.2.0
Unit SN:	10000200
Spectrometer SN:	6960
Date:	3/6/2024 10:16:19 AM
Data Line Index:	25
Spectral Points:	2048
Integration time (ms):	125
Averages:	20
Delay (ms):	30
Sequence Number:	1
Processing:	dark subtract
Laser Power (mW):	305
Laser Current (mA):	825
Laser Diode Temp (C):	25.1
Laser Case Temp (C):	25.1
System Temp (C):	24.8
Spectrometer Temp (C):	22.4
CCD Temp (C):	0.009
Secondary Temp (C):	20.006
Heatsink Temp (C):	19.752
CCDPCB Temp (C):	31.861
SecondaryPCB Temp (C):	26.091

Wavelength	RamanShift	Raw Counts	Dark Subtracted
787.061	30.1047	916.2	505.9
787.2016	32.3739	938.75	532.35
787.3422	34.6426	969.6	560.45
787.4828	36.9109	1006.3	595.8
787.6235	39.1787	1049.15	634.3
787.7642	41.4461	1092.85	673.35
787.9049	43.7131	1132.75	710.45
788.0456	45.9796	1173.65	749.5
788.1863	48.2456	1226.35	799
788.3271	50.5112	1276.4	843.95
788.4679	52.7764	1328.65	893.85
788.6087	55.0411	1383.8	945.45
788.7496	57.3054	1451.3	1004.7
788.8904	59.5692	1506.65	1059.3
789.0313	61.8326	1579.45	1131.4
789.1722	64.0955	1658.35	1204.5
789.3132	66.3579	1744.25	1286.5
789.4541	68.6199	1854.1	1392.3
789.5951	70.8815	2055.7	1589.75
789.7361	73.1426	2462.9	1994.5
789.8771	75.4032	3511.3	3038.55
790.0181	77.6634	6235.35	5758.95
790.1592	79.9231	13022.1	12540.55
790.3003	82.1824	36908.95	36415.3
790.4414	84.4412	64212.1	63702.9
790.5825	86.6995	65535	65004.55
790.7237	88.9574	65535	64987.95
790.8648	91.2148	65535	64975.25
791.006	93.4717	65535	64964.45
791.1472	95.7282	65535	64960.75
791.2885	97.9842	65535	64960.5
791.4297	100.2398	65535	64955.5
791.571	102.4949	65535	64952.85
791.7123	104.7495	65535	64947.45
791.8536	107.0036	65535	64948.1
791.9949	109.2573	65535	64949.75
792.1363	111.5105	65535	64947.95
792.2777	113.7632	65535	64945.35
792.4191	116.0154	65535	64932.6
792.5605	118.2672	65535	64940.55
792.7019	120.5185	65535	64938.6
792.8434	122.7693	65535	64934.6
792.9849	125.0197	65535	64929.75
793.1264	127.2696	65535	64930.4
793.2679	129.519	65535	64923.8
793.4094	131.7679	65535	64922.05
793.551	134.0163	65535	64917.95
793.6926	136.2642	65535	64916.85
793.8342	138.5117	65535	64910.25
793.9758	140.7587	65535	64912.6
794.1175	143.0052	65535	64907.9
794.2591	145.2512	65535	64910.3
794.4008	147.4967	65535	64909
794.5425	149.7417	65535	64904.35
794.6842	151.9863	65535	64899.05
794.826	154.2304	65535	64895.4
794.9677	156.4739	65535	64889.3
795.1095	158.717	65535	64890.35
795.2513	160.9596	65535	64886.75
795.3931	163.2017	65535	64888.75
795.535	165.4433	65535	64879.8
795.6768	167.6844	65535	64881.7
795.8187	169.925	65535	64877.45
795.9606	172.1651	65535	64873.6
796.1025	174.4047	65535	64865.65
796.2445	176.6439	65535	64869.05
796.3864	178.8825	65535	64867.25
796.5284	181.1206	65535	64861.2
796.6704	183.3582	65535	64857.35
796.8124	185.5954	65535	64858.3
796.9544	187.832	65535	64851.7
797.0965	190.0681	65535	64849.2
797.2386	192.3037	65535	64847.05
797.3806	194.5388	65535	64844.5
797.5228	196.7734	65535	64843.7
797.6649	199.0075	65535	64839.5
797.807	201.2411	65535	64840.4
797.9492	203.4742	65535	64838.9
798.0914	205.7068	65535	64832.35
798.2336	207.9389	65535	64830.95
798.3758	210.1704	65535	64837.4
798.518	212.4015	65535	64845.75
798.6603	214.632	65535	64851
798.8025	216.862	65535	64857.35
798.9448	219.0915	65535	64852.4
799.0871	221.3205	65535	64852.25
799.2294	223.549	65535	64853.95
799.3718	225.777	65535	64856.9
799.5141	228.0044	65535	64846.3
799.6565	230.2314	65535	64846.8
799.7989	232.4578	65535	64842.15
799.9413	234.6837	65535	64832.5
800.0837	236.909	65535	64833
800.2262	239.1339	65535	64807.95
800.3687	241.3582	65535	64823.65
800.5111	243.582	65535	64793.35
800.6536	245.8053	65535	64803.8
800.7961	248.0281	65535	64809.9
800.9387	250.2503	65535	64804.8
801.0812	252.472	65535	64803.45
801.2238	254.6932	65535	64805.35
801.3664	256.9139	65535	64802.8
801.509	259.134	65535	64795.9
801.6516	261.3536	65535	64801.7
801.7942	263.5727	65535	64803.45
801.9369	265.7912	65535	64800.9
802.0795	268.0092	65535	64797.65
802.2222	270.2267	65535	64799.45
802.3649	272.4436	65535	64797.7
802.5076	274.6601	65535	64786.25
802.6504	276.8759	65535	64788.25
802.7931	279.0913	65535	64788.65
802.9359	281.3061	65535	64788.35
803.0787	283.5204	65535	64785.75
803.2215	285.7341	65535	64782.25
803.3643	287.9473	65535	64773.1
803.5071	290.16	65535	64780.15
803.6499	292.3721	65535	64785.25
803.7928	294.5837	65535	64786.9
803.9357	296.7947	65535	64785.15
804.0786	299.0052	65535	64784.25
804.2215	301.2152	65535	64781.8
804.3644	303.4246	65535	64782.25
804.5074	305.6334	65535	64784.9
804.6503	307.8418	65535	64778.25
804.7933	310.0495	65535	64775.45
804.9363	312.2568	65535	64779.05
805.0793	314.4635	65535	64774.55
805.2223	316.6696	65535	64778.1
805.3653	318.8752	65535	64766.75
805.5084	321.0802	65535	64775.05
805.6514	323.2847	65535	64771.5
805.7945	325.4887	65535	64768.75
805.9376	327.692	65535	64771.25
806.0807	329.8949	65535	64768.95
806.2238	332.0972	65535	64769
806.367	334.2989	65535	64761.4
806.5101	336.5001	65535	64762.4
806.6533	338.7007	65535	64762.4
806.7965	340.9008	65535	64757.9
806.9397	343.1003	65535	64756.05
807.0829	345.2992	65535	64754.6
807.2261	347.4976	65535	64752.85
807.3693	349.6955	65535	64750.45
807.5126	351.8927	65535	64751.65
807.6559	354.0895	65535	64739.55
807.7991	356.2856	65535	64750.45
807.9424	358.4812	65535	64748.45
808.0857	360.6763	65535	64745
808.2291	362.8707	65535	64744.3
808.3724	365.0646	65535	64743.2
808.5158	367.258	65535	64743.15
808.6591	369.4508	65535	64737.3
808.8025	371.643	65535	64740.55
808.9459	373.8346	65535	64733.15
809.0893	376.0257	65535	64733.85
809.2327	378.2162	65535	64732.15
809.3762	380.4062	65535	64733
809.5196	382.5956	65535	64731.15
809.6631	384.7844	65535	64738.35
809.8066	386.9726	65535	64736.5
809.9501	389.1603	65535	64738
810.0936	391.3474	65535	64698.75
810.2371	393.5339	65535	64736.45
810.3806	395.7199	65535	64741.85
810.5241	397.9052	65535	64744.1
810.6677	400.09	65535	64738.95
810.8113	402.2743	65535	64738.3
810.9548	404.4579	65535	64739.05
811.0984	406.641	65535	64736.05
811.2421	408.8235	65535	64736.1
811.3857	411.0054	65535	64734.5
811.5293	413.1868	65535	64730.05
811.673	415.3675	65535	64728.25
811.8166	417.5477	65535	64723.6
811.9603	419.7273	65535	64722.15
812.104	421.9064	65535	64717.25
812.2477	424.0848	65535	64723.5
812.3914	426.2627	65535	64718.1
812.5351	428.4399	65535	64721
812.6788	430.6166	65535	64717.95
812.8226	432.7928	65535	64715.35
812.9663	434.9683	65535	64717.4
813.1101	437.1432	65535	64714.15
813.2539	439.3176	65535	64712.95
813.3977	441.4914	65535	64716.3
813.5415	443.6645	65535	64715.05
813.6853	445.8371	65535	64714
813.8291	448.0091	65535	64715.65
813.973	450.1806	65535	64713.55
814.1168	452.3514	65535	64711.1
814.2607	454.5216	65535	64703.1
814.4046	456.6913	65535	64708.2
814.5485	458.8603	65535	64709.15
814.6924	461.0288	65535	64712
814.8363	463.1967	65535	64709.85
814.9802	465.3639	65535	64707.7
815.1241	467.5306	65535	64709.75
815.2681	469.6967	65535	64710
815.412	471.8622	65535	64707
815.556	474.0271	65535	64706.45
815.7	476.1914	65535	64705.05
815.844	478.3551	65535	64706.15
815.988	480.5182	65535	64705.1
816.132	482.6807	65535	64704.7
816.276	484.8426	65535	64705.9
816.4201	487.0039	65535	64703.05
816.5641	489.1647	65535	64700.4
816.7082	491.3248	65535	64704.95
816.8522	493.4843	65535	64702.7
816.9963	495.6432	65535	64703.9
817.1404	497.8015	65535	64697.15
817.2845	499.9592	65535	64699.45
817.4286	502.1163	65535	64699.9
817.5727	504.2728	65535	64697.15
817.7168	506.4287	65535	64700.8
817.861	508.5839	65535	64696.95
818.0051	510.7386	65535	64697.25
818.1493	512.8927	65535	64693.7
818.2935	515.0461	65535	64698.95
818.4377	517.199	65535	64695.8
818.5818	519.3512	65535	64696.95
818.726	521.5029	65535	64690.1
818.8703	523.6539	65535	64692
819.0145	525.8043	65535	64693.2
819.1587	527.9541	65535	64690.3
819.303	530.1033	65535	64692.55
819.4472	532.2519	65535	64691.65
819.5915	534.3999	65535	64690.75
819.7357	536.5472	65535	64692.45
819.88	538.694	65535	64689.6
820.0243	540.8401	65535	64691.2
820.1686	542.9856	65535	64686
820.3129	545.1305	65535	64686.45
820.4572	547.2748	65535	64686.9
820.6016	549.4185	65535	64684.55
820.7459	551.5615	65535	64686.15
820.8902	553.704	65535	64686.9
821.0346	555.8458	65535	64685.35
821.1789	557.987	65535	64687.3
821.3233	560.1276	65535	64686.9
821.4677	562.2675	65535	64687.25
821.6121	564.4069	65535	64689.1
821.7565	566.5456	65535	64684.65
821.9009	568.6837	65535	64687.15
822.0453	570.8212	65535	64686.55
822.1897	572.958	65535	64686.45
822.3342	575.0942	65535	64685.4
822.4786	577.2299	65535	64685.35
822.6231	579.3648	65535	64684.45
822.7675	581.4992	65535	64683.65
822.912	583.6329	65535	64685.35
823.0565	585.766	65535	64683.6
823.201	587.8985	65535	64685.35
823.3454	590.0304	65535	64658.45
823.4899	592.1616	65535	64679.4
823.6345	594.2922	65535	64680.85
823.779	596.4222	65535	64682.1
823.9235	598.5515	65535	64678.4
824.068	600.6802	65535	64678.15
824.2126	602.8083	65535	64679.7
824.3571	604.9358	65535	64679.85
824.5017	607.0626	65535	64678
824.6462	609.1888	65535	64676.6
824.7908	611.3144	65535	64678.55
824.9354	613.4393	65535	64676.65
825.08	615.5636	65535	64677.4
825.2246	617.6873	65535	64678.9
825.3692	619.8103	65535	64674.3
825.5138	621.9327	65535	64674
825.6584	624.0544	65535	64676.2
825.803	626.1756	65535	64675.8
825.9477	628.2961	65535	64672.85
826.0923	630.4159	65535	64673.65
826.237	632.5351	65535	64675.65
826.3816	634.6537	65535	64673.1
826.5263	636.7716	65535	64670.6
826.6709	638.8889	65535	64668.7
826.8156	641.0056	65535	64672.7
826.9603	643.1216	65535	64671.7
827.105	645.237	65535	64671.25
827.2497	647.3518	65535	64672.15
827.3944	649.4659	65535	64674.4
827.5391	651.5793	65535	64670.7
827.6838	653.6922	65535	64672.95
827.8285	655.8043	65535	64673.25
827.9733	657.9159	65535	64669.85
828.118	660.0268	65535	64670.05
828.2627	662.137	65535	64668.8
828.4075	664.2466	65535	64667.05
828.5522	666.3556	65535	64670
828.697	668.4639	65535	64664.6
828.8418	670.5716	65535	64669.3
828.9865	672.6786	65535	64668.3
829.1313	674.785	65535	64664.2
829.2761	676.8907	65535	64666.5
829.4209	678.9958	65535	64667.15
829.5657	681.1002	65535	64665.05
829.7105	683.204	65535	64660.25
829.8553	685.3072	65535	64662.75
830.0001	687.4097	65535	64661.85
830.1449	689.5115	65535	64661.05
830.2898	691.6127	65535	64665.6
830.4346	693.7132	65535	64665.3
830.5794	695.8131	65535	64640.95
830.7243	697.9123	65535	64659.8
830.8691	700.0109	65535	64661.9
831.014	702.1089	65535	64664
831.1588	704.2061	65535	64661.65
831.3037	706.3028	65535	64661.8
831.4486	708.3987	65535	64663.4
831.5935	710.4941	65535	64662.2
831.7383	712.5887	65535	64660.35
831.8832	714.6827	65535	64660.75
832.0281	716.7761	65535	64662.25
832.173	718.8688	65535	64659.8
832.3179	720.9608	65535	64656.95
832.4628	723.0522	65535	64657.45
832.6077	725.1429	65535	64661.15
832.7527	727.233	65535	64661.05
832.8976	729.3224	65535	64660.45
833.0425	731.4112	65535	64657.45
833.1874	733.4993	65535	64655
833.3324	735.5867	65535	64658.65
833.4773	737.6735	65535	64657.45
833.6222	739.7596	65535	64656.15
833.7672	741.845	65535	64656.3
833.9122	743.9298	65535	64653.1
834.0571	746.014	65535	64659.45
834.2021	748.0974	65535	64653.45
834.347	750.1802	65535	64654.6
834.492	752.2624	65535	64655.2
834.637	754.3439	65535	64654.5
834.782	756.4247	65535	64647.15
834.9269	758.5048	65535	64658.6
835.0719	760.5843	65535	64656.2
835.2169	762.6631	65535	64656.7
835.3619	764.7413	65535	64655.8
835.5069	766.8188	65535	64654.65
835.6519	768.8956	65535	64651.55
835.7969	770.9718	65535	64656.6
835.9419	773.0473	65535	64656.55
836.0869	775.1221	65535	64655.05
836.232	777.1962	65535	64655.7
836.377	779.2697	65535	64656.25
836.522	781.3426	65535	64637.15
836.667	783.4147	65535	64651.75
836.8121	785.4862	65535	64655.55
836.9571	787.557	65535	64653.4
837.1021	789.6271	65535	64655.35
837.2472	791.6966	65535	64653.1
837.3922	793.7654	65535	64654.7
837.5373	795.8335	65535	64653.25
837.6823	797.901	65535	64656.3
837.8274	799.9678	65535	64651.3
837.9724	802.0339	65535	64656.75
838.1175	804.0993	65535	64643.35
838.2626	806.1641	65535	64654.65
838.4076	808.2282	65535	64655
838.5527	810.2916	65535	64650.35
838.6978	812.3544	65535	64655.4
838.8428	814.4164	65535	64651.95
838.9879	816.4778	65535	64654.4
839.133	818.5385	65535	64655
839.2781	820.5986	65535	64654.5
839.4232	822.658	65535	64652.1
839.5682	824.7166	65535	64652.65
839.7133	826.7747	65535	64651.3
839.8584	828.832	65535	64650.55
840.0035	830.8886	65535	64650.5
840.1486	832.9446	65535	64648.55
840.2937	834.9999	65535	64654.7
840.4388	837.0545	65535	64648.75
840.5839	839.1085	65535	64654.05
840.729	841.1618	65535	64646.35
840.8741	843.2143	65535	64649.55
841.0192	845.2662	65535	64649.55
841.1643	847.3175	65535	64651.15
841.3095	849.368	65535	64651.35
841.4546	851.4179	65535	64651.85
841.5997	853.467	65535	64651.4
841.7448	855.5155	65535	64649.45
841.8899	857.5633	65535	64649.7
842.0351	859.6105	65535	64651.4
842.1802	861.6569	65535	64648.75
842.3253	863.7027	65535	64647.35
842.4704	865.7478	65535	64646.5
842.6156	867.7922	65535	64651.75
842.7607	869.8359	65535	64648.65
842.9058	871.8789	65535	64649.9
843.0509	873.9212	65535	64620.7
843.1961	875.9629	65535	64649.35
843.3412	878.0039	65535	64647.7
843.4863	880.0441	65535	64651.5
843.6315	882.0837	65535	64648.55
843.7766	884.1226	65535	64645.5
843.9218	886.1609	65535	64649.7
844.0669	888.1984	65535	64650.85
844.212	890.2352	65535	64650.55
844.3572	892.2714	65535	64644.85
844.5023	894.3069	65535	64646.05
844.6475	896.3416	65535	64646.3
844.7926	898.3757	65535	64648.35
844.9377	900.4091	65535	64647.15
845.0829	902.4418	65535	64644
845.228	904.4739	65535	64647.1
845.3732	906.5052	65535	64647.5
845.5183	908.5358	65535	64645.8
845.6635	910.5658	65535	64645.4
845.8086	912.595	65535	64647.85
845.9538	914.6236	65535	64646.45
846.0989	916.6515	65535	64649.25
846.2441	918.6786	65535	64646.9
846.3892	920.7051	65535	64645.75
846.5344	922.7309	65535	64645.9
846.6795	924.756	65535	64645.85
846.8246	926.7804	65535	64646.05
846.9698	928.8041	65535	64645.7
847.1149	930.8272	65535	64648.35
847.2601	932.8495	65535	64644.5
847.4052	934.8711	65535	64647.1
847.5504	936.892	65535	64647.8
847.6955	938.9123	65535	64641.9
847.8407	940.9318	65535	64645.85
847.9858	942.9506	65535	64644.65
848.131	944.9688	65535	64646.5
848.2761	946.9862	65535	64645.15
848.4213	949.003	65535	64644.25
848.5664	951.019	65535	64646.45
848.7115	953.0344	65535	64647.6
848.8567	955.0491	65535	64642.15
849.0018	957.063	65535	64645.5
849.147	959.0763	65535	64644.45
849.2921	961.0888	65535	64644.45
849.4373	963.1007	65535	64644.2
849.5824	965.1119	65535	64645.4
849.7275	967.1223	65535	64647.6
849.8727	969.1321	65535	64646.55
850.0178	971.1412	65535	64648.75
850.1629	973.1495	65535	64644.45
850.3081	975.1572	65535	64614.3
850.4532	977.1641	65535	64647.2
850.5983	979.1704	65535	64647.35
850.7435	981.1759	65535	64641.7
850.8886	983.1808	65535	64644.5
851.0337	985.1849	65535	64634.15
851.1788	987.1884	65535	64640.35
851.324	989.1911	65535	64639.75
851.4691	991.1932	65535	64643.65
851.6142	993.1945	65535	64646.5
851.7593	995.1951	65535	64643.95
851.9045	997.1951	65535	64640
852.0496	999.1943	65535	64643.7
852.1947	1001.1928	65535	64645.9
852.3398	1003.1906	65535	64644.65
852.4849	1005.1877	65535	64642.6
852.63	1007.1841	65535	64642.55
852.7751	1009.1798	65535	64644.35
852.9202	1011.1748	65535	64643.3
853.0653	1013.1691	65535	64642.95
853.2104	1015.1627	65535	64642.45
853.3555	1017.1556	65535	64646.4
853.5006	1019.1477	65535	64644.3
853.6457	1021.1392	65535	64644.25
853.7908	1023.1299	65535	64645.85
853.9359	1025.12	65535	64643.85
854.081	1027.1093	65535	64646.75
854.2261	1029.0979	65535	64645.9
854.3712	1031.0859	65535	64646.4
854.5163	1033.0731	65535	64646.1
854.6613	1035.0596	65535	64645.35
854.8064	1037.0454	65535	64644.55
854.9515	1039.0304	65535	64642.45
855.0965	1041.0148	65535	64643.85
855.2416	1042.9985	65535	64645.1
855.3867	1044.9814	65535	64644.65
855.5317	1046.9636	65535	64644.35
855.6768	1048.9452	65535	64647.35
855.8219	1050.926	65535	64645.8
855.9669	1052.9061	65535	64646.25
856.112	1054.8855	65535	64642.05
856.257	1056.8642	65535	64644.25
856.4021	1058.8421	65535	64641
856.5471	1060.8194	65535	64644.45
856.6921	1062.7959	65535	64645.05
856.8372	1064.7717	65535	64641.75
856.9822	1066.7469	65535	64642.1
857.1272	1068.7213	65535	64640.8
857.2723	1070.695	65535	64643.55
857.4173	1072.6679	65535	64641.05
857.5623	1074.6402	65535	64645.95
857.7073	1076.6117	65535	64638.7
857.8523	1078.5826	65535	64642.35
857.9973	1080.5527	65535	64639.9
858.1423	1082.5221	65535	64642.4
858.2873	1084.4908	65535	64644.05
858.4323	1086.4587	65535	64642.6
858.5773	1088.426	65535	64644.5
858.7223	1090.3925	65535	64637.4
858.8673	1092.3584	65535	64643.9
859.0123	1094.3235	65535	64644.55
859.1573	1096.2879	65535	64642.55
859.3022	1098.2515	65535	64644.3
859.4472	1100.2145	65535	64644.55
859.5922	1102.1767	65535	64641.65
859.7371	1104.1382	65535	64644.3
859.8821	1106.099	65535	64640.65
860.027	1108.0591	65535	64645.65
860.172	1110.0185	65535	64641.4
860.3169	1111.9771	65535	64643.95
860.4619	1113.9351	65535	64642.3
860.6068	1115.8923	65535	64641.95
860.7517	1117.8488	65535	64642.25
860.8967	1119.8045	65535	64645.85
861.0416	1121.7596	65535	64643
861.1865	1123.7139	65535	64646.7
861.3314	1125.6675	65535	64643.05
861.4763	1127.6204	65535	64643.8
861.6212	1129.5726	65535	64640.85
861.7661	1131.524	65535	64644
861.911	1133.4748	65535	64643.55
862.0559	1135.4248	65535	64642.1
862.2008	1137.3741	65535	64643.1
862.3457	1139.3226	65535	64646.45
862.4905	1141.2705	65535	64645.75
862.6354	1143.2176	65535	64637.25
862.7803	1145.164	65535	64642.05
862.9251	1147.1097	65535	64643.95
863.07	1149.0546	65535	64644
863.2148	1150.9989	65535	64640.9
863.3597	1152.9424	65535	64643.95
863.5045	1154.8852	65535	64643
863.6493	1156.8272	65535	64643.95
863.7942	1158.7686	65535	64636.55
863.939	1160.7092	65535	64642.6
864.0838	1162.6491	65535	64640.4
864.2286	1164.5883	65535	64646.25
864.3734	1166.5267	65535	64643.05
864.5182	1168.4644	65535	64646.1
864.663	1170.4014	65535	64637.1
864.8078	1172.3377	65535	64646.35
864.9526	1174.2732	65535	64643
865.0974	1176.2081	65535	64646.55
865.2421	1178.1421	65535	64639.15
865.3869	1180.0755	65535	64642.15
865.5317	1182.0082	65535	64645.6
865.6764	1183.9401	65535	64640.85
865.8212	1185.8713	65535	64642.5
865.9659	1187.8017	65535	64644.3
866.1106	1189.7315	65535	64645.4
866.2554	1191.6605	65535	64620.45
866.4001	1193.5888	65535	64645.85
866.5448	1195.5163	65535	64644.1
866.6895	1197.4432	65535	64641.3
866.8342	1199.3693	65535	64644.7
866.9789	1201.2947	65535	64640
867.1236	1203.2193	65535	64644.45
867.2683	1205.1432	65528.5	64637.7
867.413	1207.0664	65530.3	64640.05
867.5576	1208.9889	65527.8	64633.2
867.7023	1210.9106	65531.65	64641.05
867.847	1212.8316	65522.1	64631.8
867.9916	1214.7519	65520.45	64618.3
868.1363	1216.6715	65518.9	64629.75
868.2809	1218.5903	65517.3	64627.35
868.4255	1220.5084	65508.4	64617.95
868.5701	1222.4257	65513.2	64620.7
868.7148	1224.3424	65508	64615.7
868.8594	1226.2583	65447.65	64551.65
869.004	1228.1735	65515.75	64621.4
869.1486	1230.0879	65449.35	64558.2
869.2932	1232.0016	65491.95	64600.7
869.4377	1233.9146	65433.7	64541
869.5823	1235.8269	65457.65	64566.6
869.7269	1237.7384	65437.5	64545.85
869.8715	1239.6492	65415.55	64527.2
870.016	1241.5592	65374.55	64482.5
870.1606	1243.4686	65421.5	64528.65
870.3051	1245.3772	65375.3	64484.8
870.4496	1247.285	65420.15	64530
870.5941	1249.1922	65364.15	64473.5
870.7387	1251.0986	65388.2	64497.4
870.8832	1253.0042	65365	64473.65
871.0277	1254.9092	65393.6	64502.4
871.1722	1256.8134	65334.2	64444.4
871.3167	1258.7169	65381.4	64489.1
871.4611	1260.6196	65329.05	64437.1
871.6056	1262.5216	65312.7	64422.8
871.7501	1264.4229	65341.45	64452.05
871.8945	1266.3234	65357.95	64468.05
872.039	1268.2232	65332.05	64441.7
872.1834	1270.1223	65293.35	64400.75
872.3278	1272.0207	65307.95	64416.6
872.4723	1273.9183	65301	64403.75
872.6167	1275.8151	65301.05	64410.8
872.7611	1277.7113	65311.15	64416.9
872.9055	1279.6067	65281.2	64391.25
873.0499	1281.5014	65280.15	64384.75
873.1943	1283.3953	65300.2	64405.55
873.3386	1285.2885	65278.8	64388.05
873.483	1287.181	65283.95	64389.65
873.6274	1289.0727	65285.4	64396.9
873.7717	1290.9637	65222.3	64332.65
873.9161	1292.854	65286.3	64395.45
874.0604	1294.7435	65261.45	64369.5
874.2047	1296.6323	65262.95	64371.4
874.349	1298.5204	65236.05	64339.9
874.4933	1300.4077	65260.15	64367
874.6376	1302.2943	65219.35	64329.55
874.7819	1304.1802	65203.2	64311.85
874.9262	1306.0653	65182.95	64290.65
875.0705	1307.9497	65183.55	64293.5
875.2147	1309.8333	65194.25	64302.35
875.359	1311.7162	65156.65	64264.2
875.5032	1313.5984	65162	64269.25
875.6475	1315.4798	65142.35	64239.75
875.7917	1317.3605	65145.7	64239.65
875.9359	1319.2405	65156.05	64263.7
876.0801	1321.1197	65068.8	64175.1
876.2243	1322.9982	65101.75	64206.65
876.3685	1324.876	65059.55	64169.1
876.5127	1326.753	65003.9	64112.3
876.6569	1328.6293	65100.7	64208.4
876.801	1330.5048	65036.5	64142.35
876.9452	1332.3796	64980.25	64089.5
877.0893	1334.2537	64969.3	64053.45
877.2335	1336.127	65009.95	64116.9
877.3776	1337.9996	64940.95	64050
877.5217	1339.8714	64995.3	64102.95
877.6658	1341.7426	64872.25	63937.95
877.8099	1343.6129	64943.25	64051.65
877.954	1345.4826	64943.35	64051.8
878.0981	1347.3515	64841.75	63949.3
878.2422	1349.2196	64920.65	64028.9
878.3862	1351.087	64900.3	64009.65
878.5303	1352.9537	64883.35	63991.65
878.6743	1354.8197	64883.05	63990.45
878.8184	1356.6849	64869.95	63976.6
878.9624	1358.5493	64885.8	63995.05
879.1064	1360.4131	64820.85	63931.95
879.2504	1362.276	64909.05	64018.95
879.3944	1364.1383	64798.15	63907.75
879.5384	1365.9998	64758.2	63862.05
879.6823	1367.8606	64790.15	63895.3
879.8263	1369.7206	64742.4	63851.25
879.9702	1371.5799	64725.8	63832.15
880.1142	1373.4384	64677.9	63785.95
880.2581	1375.2962	64699.6	63806.85
880.402	1377.1533	64614.45	63723.6
880.5459	1379.0096	64585.45	63695.5
880.6898	1380.8652	64589.35	63697.1
880.8337	1382.7201	64557.05	63665.75
880.9776	1384.5742	64542.1	63650.1
881.1215	1386.4275	64469.15	63576.55
881.2653	1388.2802	64477.2	63588.85
881.4092	1390.132	64506.4	63616.65
881.553	1391.9832	64423.1	63529.3
881.6968	1393.8336	64378.8	63486.55
881.8406	1395.6832	64382.35	63489
881.9844	1397.5322	64390.95	63500.85
882.1282	1399.3803	64377.7	63481.3
882.272	1401.2278	64340.55	63446.15
882.4158	1403.0745	64308.2	63414.85
882.5595	1404.9204	64283.15	63392.4
882.7033	1406.7656	64291.7	63399.05
882.847	1408.6101	64237.1	63344.85
882.9908	1410.4538	64226.25	63335.95
883.1345	1412.2968	64228.6	63338.7
883.2782	1414.139	64174.45	63284.35
883.4219	1415.9805	64199.85	63308.85
883.5656	1417.8213	64158.15	63262.8
883.7092	1419.6613	64160.8	63270.65
883.8529	1421.5006	64139	63246.45
883.9965	1423.3391	64140.5	63249.1
884.1402	1425.1769	64119.95	63227.25
884.2838	1427.0139	64148.6	63258
884.4274	1428.8502	64135.75	63241.45
884.571	1430.6858	64127.35	63237
884.7146	1432.5206	64150.6	63257.95
884.8582	1434.3547	64142.4	63251.75
885.0018	1436.188	64120.1	63230.05
885.1453	1438.0206	64109.45	63217.8
885.2889	1439.8524	64093.7	63201.65
885.4324	1441.6835	64068.8	63178.6
885.5759	1443.5139	64074.75	63179.85
885.7194	1445.3435	64038.15	63147.15
885.8629	1447.1724	64043.15	63152.9
886.0064	1449.0005	64005.2	63116.25
886.1499	1450.8279	64005.35	63113.8
886.2933	1452.6545	64010.8	63122.1
886.4368	1454.4804	63995.5	63105.75
886.5802	1456.3056	63973.75	63076.7
886.7237	1458.13	63966.55	63076.95
886.8671	1459.9536	63987.7	63097.75
887.0105	1461.7766	63957.45	63065.25
887.1539	1463.5987	63909	63017.8
887.2972	1465.4202	63880.7	62989.3
887.4406	1467.2409	63862.5	62972.1
887.584	1469.0608	63808.55	62918.25
887.7273	1470.88	63807.15	62914.2
887.8706	1472.6984	63825.6	62933.5
888.0139	1474.5161	63744.6	62850.45
888.1572	1476.3331	63778.65	62888
888.3005	1478.1493	63695.95	62804.6
888.4438	1479.9648	63684.75	62794.45
888.5871	1481.7795	63685.05	62795
888.7303	1483.5935	63692.25	62802.15
888.8736	1485.4067	63621.7	62729.9
889.0168	1487.2192	63652.6	62763.7
889.16	1489.031	63586.15	62694.85
889.3032	1490.842	63603.8	62714.6
889.4464	1492.6522	63613.8	62724.05
889.5896	1494.4618	63559.9	62672
889.7327	1496.2705	63594.4	62704.75
889.8759	1498.0785	63460.25	62569.45
890.019	1499.8858	63505.65	62614.1
890.1622	1501.6924	63539.35	62649.85
890.3053	1503.4981	63459.95	62569.35
890.4484	1505.3032	63493.25	62601.75
890.5914	1507.1075	63413.95	62522.05
890.7345	1508.911	63425.7	62536.4
890.8776	1510.7138	63425.25	62533.4
891.0206	1512.5159	63432.15	62541.2
891.1637	1514.3172	63231.1	62340.4
891.3067	1516.1178	63279.6	62389.75
891.4497	1517.9176	63346.45	62454.8
891.5927	1519.7166	63280.5	62391
891.7357	1521.515	63202.65	62307.5
891.8786	1523.3126	63093.7	62204.65
892.0216	1525.1094	63236.85	62347.5
892.1645	1526.9055	63149.25	62260.9
892.3074	1528.7008	63131.35	62241.7
892.4503	1530.4954	62938.6	62047.2
892.5932	1532.2893	63086.6	62197.05
892.7361	1534.0824	62906.75	62012.85
892.879	1535.8747	62801.75	61912.6
893.0218	1537.6663	63057.35	62167.8
893.1647	1539.4572	62527.5	61637.35
893.3075	1541.2473	62756.25	61863.9
893.4503	1543.0367	62693.3	61804.15
893.5931	1544.8253	62610.5	61716.7
893.7359	1546.6132	62697.6	61805.1
893.8787	1548.4003	62522.75	61624
894.0214	1550.1867	62472.65	61574.45
894.1642	1551.9723	62415.3	61520.6
894.3069	1553.7572	62450.8	61561.45
894.4496	1555.5414	62590.1	61701.5
894.5923	1557.3247	61824.4	60935.4
894.735	1559.1074	62471.3	61584.75
894.8777	1560.8893	62220.4	61330.25
895.0204	1562.6705	62331.15	61442.35
895.163	1564.4509	61897	61007.35
895.3056	1566.2305	62085.85	61199.2
895.4482	1568.0094	62321.85	61434.75
895.5908	1569.7876	62069.55	61180.15
895.7334	1571.565	61784.65	60896.45
895.876	1573.3417	61941.8	61052.55
896.0186	1575.1176	61850.2	60961.3
896.1611	1576.8928	61736.05	60850.65
896.3036	1578.6672	61457.15	60569.3
896.4461	1580.4409	61662.7	60778.9
896.5886	1582.2138	61321.25	60429.2
896.7311	1583.986	61473.5	60582.1
896.8736	1585.7575	61150.55	60263.8
897.0161	1587.5282	61261.25	60374.35
897.1585	1589.2981	61312.55	60427
897.3009	1591.0673	61003.25	60116.75
897.4433	1592.8358	60813.2	59926.05
897.5857	1594.6035	61064.6	60174.75
897.7281	1596.3704	61134.6	60245.1
897.8705	1598.1366	60733.4	59843.9
898.0128	1599.9021	60513.2	59626.7
898.1551	1601.6668	60838.75	59950.25
898.2975	1603.4308	60626.1	59738.5
898.4398	1605.194	60714.85	59822.65
898.5821	1606.9564	60221	59334.4
898.7243	1608.7182	60509.7	59620.5
898.8666	1610.4791	60248.4	59362.1
899.0088	1612.2394	60458.15	59574.7
899.1511	1613.9988	60179.85	59291.95
899.2933	1615.7576	60479.45	59591.2
899.4355	1617.5156	60450.1	59556.1
899.5776	1619.2728	60731.05	59841.8
899.7198	1621.0293	60134.95	59248.45
899.862	1622.785	60077.6	59185.6
900.0041	1624.54	60144.05	59255.75
900.1462	1626.2942	59910.25	59020.95
900.2883	1628.0477	59468.65	58579.1
900.4304	1629.8005	59153.5	58264.7
900.5725	1631.5525	59489.8	58603.4
900.7145	1633.3037	58948.95	58062.1
900.8566	1635.0542	58933.75	58046.7
900.9986	1636.804	59087.2	58199.85
901.1406	1638.553	58669	57701.05
901.2826	1640.3013	58767.1	57878.75
901.4245	1642.0488	58437.95	57548.15
901.5665	1643.7955	58642.55	57758.5
901.7085	1645.5416	58425.3	57540.35
901.8504	1647.2868	58203	57317.7
901.9923	1649.0313	58529.3	57644.6
902.1342	1650.7751	58266	57376.8
902.2761	1652.5181	58016.8	57131.45
902.4179	1654.2604	58008.3	57122.75
902.5598	1656.0019	58148.35	57260.85
902.7016	1657.7427	57975.5	57089.1
902.8434	1659.4828	58213.55	57325.95
902.9852	1661.222	57913.15	57024.55
903.127	1662.9606	58108.25	57220.4
903.2687	1664.6984	57717.95	56830.05
903.4105	1666.4354	57846.9	56958.75
903.5522	1668.1717	57284.85	56400
903.6939	1669.9072	56803.8	55918.3
903.8356	1671.642	56684.2	55796.2
903.9773	1673.3761	56591.05	55706.9
904.119	1675.1094	56357.5	55470.65
904.2606	1676.8419	55888.05	55001.05
904.4022	1678.5737	55855.9	54967.25
904.5439	1680.3048	55626.1	54740.25
904.6855	1682.0351	55368.3	54482.9
904.827	1683.7646	55138.4	54249.95
904.9686	1685.4934	55299.7	54416.25
905.1101	1687.2215	54354.85	53468.65
905.2517	1688.9488	54985.8	54099.8
905.3932	1690.6754	53626.2	52739.4
905.5347	1692.4012	54280.9	53394.85
905.6761	1694.1263	54252.7	53366.5
905.8176	1695.8506	53648.15	52761.35
905.9591	1697.5742	53689.65	52803.85
906.1005	1699.297	53491.8	52606.75
906.2419	1701.0191	53435.85	52549.05
906.3833	1702.7404	52720.55	51835.25
906.5246	1704.461	52439.9	51553.95
906.666	1706.1808	52720.95	51834.7
906.8073	1707.8999	52491.55	51606.6
906.9487	1709.6182	52226.65	51340.95
907.09	1711.3358	52085.05	51200.75
907.2313	1713.0527	51944.45	51062.45
907.3725	1714.7688	51917.05	51025.4
907.5138	1716.4841	51272.95	50383.9
907.655	1718.1987	51442.7	50551.65
907.7962	1719.9126	51211.25	50325
907.9374	1721.6257	51195.65	50308.1
908.0786	1723.338	51239.1	50354.25
908.2198	1725.0496	50462.65	49573.85
908.3609	1726.7605	50491.1	49602.45
908.502	1728.4706	50268.15	49382.6
908.6431	1730.18	50316.7	49429.75
908.7842	1731.8886	50051.2	49165.8
908.9253	1733.5964	49884.55	48995.1
909.0664	1735.3036	50028.9	49140.85
909.2074	1737.0099	49829.25	48944.2
909.3484	1738.7156	49481.95	48597.85
909.4894	1740.4204	49303.9	48415.3
909.6304	1742.1246	49347.55	48462.45
909.7714	1743.8279	49347.7	48462.65
909.9123	1745.5306	49302.25	48416.45
910.0532	1747.2325	48733.25	47847.15
910.1941	1748.9336	48698.2	47815.65
910.335	1750.634	48565.3	47678.35
910.4759	1752.3336	48717.4	47835.05
910.6168	1754.0325	48329.1	47445.85
910.7576	1755.7307	48526.15	47641.7
910.8984	1757.4281	48135.25	47249.35
911.0392	1759.1247	48263.7	47369.35
911.18	1760.8206	47831.5	46940.75
911.3208	1762.5158	47877.55	46987.75
911.4615	1764.2102	47741.75	46858.25
911.6022	1765.9039	47533.3	46649.4
911.7429	1767.5968	47477.05	46591.85
911.8836	1769.289	47254	46369.45
912.0243	1770.9804	47272.8	46385.8
912.1649	1772.6711	47169.15	46284.4
912.3056	1774.361	47024.2	46138.65
912.4462	1776.0502	46941.8	46054.65
912.5868	1777.7386	46732.9	45845.2
912.7274	1779.4263	46646.3	45761.45
912.8679	1781.1132	46636.9	45750.35
913.0084	1782.7994	46418.95	45531.9
913.149	1784.4849	46459.5	45574.45
913.2895	1786.1696	46075.35	45183.6
913.4299	1787.8535	46131.4	45248.2
913.5704	1789.5367	46034.2	45147.1
913.7108	1791.2192	45876.75	44991.95
913.8513	1792.9009	45667.95	44754.05
913.9917	1794.5818	45623.4	44735.8
914.132	1796.2621	45445.7	44563.4
914.2724	1797.9415	45337.45	44452.4
914.4128	1799.6202	45246.95	44360.45
914.5531	1801.2982	45174.9	44288.7
914.6934	1802.9755	45021.55	44135.25
914.8337	1804.6519	44978	44092.6
914.9739	1806.3277	44946.45	44063.3
915.1142	1808.0027	44532.7	43648.9
915.2544	1809.6769	44572.35	43688.05
915.3946	1811.3504	44542.1	43655.35
915.5348	1813.0231	44275.2	43389.35
915.675	1814.6951	44301.2	43417.05
915.8151	1816.3664	44195.25	43307.7
915.9553	1818.0369	44130.7	43245.65
916.0954	1819.7067	43999.2	43113.8
916.2355	1821.3757	43922.8	43036.85
916.3755	1823.044	43731.1	42845.5
916.5156	1824.7115	43631.45	42746.4
916.6556	1826.3783	43465.15	42581.9
916.7956	1828.0443	43336.8	42453.05
916.9356	1829.7096	43319.35	42434.15
917.0756	1831.3741	43255.25	42368.3
917.2155	1833.0379	43158.1	42275.65
917.3555	1834.701	42955.35	42067.1
917.4954	1836.3633	42937.1	42052.6
917.6353	1838.0248	42827.1	41940.4
917.7751	1839.6856	42692.3	41807.8
917.915	1841.3457	42604.8	41720.95
918.0548	1843.005	42581.7	41698.05
918.1946	1844.6636	42529.6	41646.25
918.3344	1846.3214	42390.1	41507.5
918.4742	1847.9785	42282.6	41399.25
918.6139	1849.6349	42210.7	41323.75
918.7537	1851.2904	42157.15	41263.05
918.8934	1852.9453	41965.25	41081.2
919.0331	1854.5994	41827.9	40941.7
919.1727	1856.2528	41900.2	41008.85
919.3124	1857.9054	41709.05	40822.55
919.452	1859.5572	41683.85	40801.1
919.5916	1861.2083	41601.25	40714.4
919.7312	1862.8587	41623.2	40738.8
919.8708	1864.5084	41400.6	40516.55
920.0103	1866.1572	41306.95	40422.3
920.1498	1867.8054	41078.85	40193.85
920.2893	1869.4528	41040.15	40155.95
920.4288	1871.0994	40925.4	40040.35
920.5683	1872.7453	40845.85	39960.05
920.7077	1874.3905	40729.35	39836.6
920.8471	1876.0349	40560.3	39674.3
920.9865	1877.6786	40564.75	39678.05
921.1259	1879.3215	40525.35	39639.6
921.2653	1880.9637	40420.15	39535.2
921.4046	1882.6051	40395.9	39511.5
921.5439	1884.2458	40284	39397.3
921.6832	1885.8858	40048.9	39162.8
921.8225	1887.525	40040.2	39155.05
921.9617	1889.1634	39789.3	38903.7
922.101	1890.8011	39717.95	38831.75
922.2402	1892.4381	39653.05	38768.95
922.3794	1894.0743	39610.65	38727.65
922.5185	1895.7098	39558.8	38674.1
922.6577	1897.3446	39402.6	38517.55
922.7968	1898.9786	39261.6	38372.15
922.9359	1900.6118	39190	38306.5
923.075	1902.2443	39018.9	38131.7
923.214	1903.8761	38922	38036.7
923.3531	1905.5071	38713.6	37826.7
923.4921	1907.1374	38581.25	37696.55
923.6311	1908.7669	38560.1	37674.8
923.77	1910.3957	38480.75	37596.6
923.909	1912.0237	38184.4	37296.35
924.0479	1913.651	38140.1	37256.45
924.1868	1915.2776	38059.45	37176.15
924.3257	1916.9034	37952.6	37068.35
924.4646	1918.5285	37759.55	36876.2
924.6034	1920.1528	37544.2	36659.85
924.7422	1921.7764	37552.05	36668.1
924.881	1923.3992	37407.5	36525.1
925.0198	1925.0213	37159.95	36276.3
925.1586	1926.6427	37011.15	36128
925.2973	1928.2633	37013.15	36047.7
925.436	1929.8832	36840.25	35956.4
925.5747	1931.5023	36701	35815.95
925.7134	1933.1207	36629.5	35744.4
925.852	1934.7383	36507.2	35622.65
925.9906	1936.3552	36365.3	35481.5
926.1292	1937.9714	36263.8	35377.35
926.2678	1939.5868	36103.8	35218.25
926.4064	1941.2015	35929.2	35044.1
926.5449	1942.8154	35846	34963.2
926.6834	1944.4286	35649.45	34764.8
926.8219	1946.041	35548.75	34644.65
926.9604	1947.6528	35328.3	34439.85
927.0988	1949.2637	35318.4	34436.05
927.2372	1950.8739	35209.05	34324.8
927.3756	1952.4834	35094.5	34209.55
927.514	1954.0921	35053.1	34167.05
927.6523	1955.7001	34913.5	34025.75
927.7907	1957.3074	34816.55	33933.3
927.929	1958.9139	34659.05	33774
928.0673	1960.5197	34553.65	33667.85
928.2055	1962.1247	34389.8	33506.1
928.3438	1963.729	34244.65	33362
928.482	1965.3325	34116.75	33207.7
928.6202	1966.9353	34018.65	33135.45
928.7584	1968.5374	33867.3	32983.75
928.8965	1970.1387	33824.65	32943.95
929.0346	1971.7393	33649.6	32765.1
929.1727	1973.3392	33625.15	32740.55
929.3108	1974.9383	33401.9	32517.2
929.4489	1976.5366	33222.4	32338.55
929.5869	1978.1342	33227.55	32342.8
929.7249	1979.7311	33125.2	32241.35
929.8629	1981.3273	33055.8	32172.1
930.0009	1982.9227	32900.6	32016.65
930.1388	1984.5173	32802.45	31919.2
930.2767	1986.1112	32704.65	31821.15
930.4146	1987.7044	32627	31746.7
930.5525	1989.2968	32483.05	31599.3
930.6904	1990.8885	32449.45	31559.75
930.8282	1992.4795	32399.8	31513.05
930.966	1994.0697	32194.2	31309.55
931.1038	1995.6592	32123.55	31240.4
931.2415	1997.2479	32011.7	31127.85
931.3793	1998.8359	31891.8	31008.85
931.517	2000.4232	31748.15	30866.9
931.6547	2002.0097	31729.3	30846.45
931.7923	2003.5955	31589.8	30706
931.93	2005.1805	31527.9	30642.75
932.0676	2006.7648	31413.2	30531.65
932.2052	2008.3484	31321.45	30437.85
932.3427	2009.9312	31358.7	30471.65
932.4803	2011.5133	31179.6	30296
932.6178	2013.0946	31067.15	30182.95
932.7553	2014.6752	31049.4	30166.25
932.8928	2016.2551	30910.8	30026.55
933.0302	2017.8342	30775.7	29892.5
933.1676	2019.4126	30663.05	29779.85
933.305	2020.9902	30539.85	29658.65
933.4424	2022.5672	30448.15	29563.7
933.5798	2024.1433	30422.2	29532.95
933.7171	2025.7188	30260.55	29377.9
933.8544	2027.2935	30212.75	29327.7
933.9917	2028.8674	30066.6	29183.3
934.129	2030.4406	30043.65	29159.2
934.2662	2032.0131	29809.45	28927.05
934.4034	2033.5849	29783.9	28892.65
934.5406	2035.1559	29710.75	28825.9
934.6778	2036.7261	29639.4	28756.25
934.8149	2038.2957	29557.9	28673.25
934.952	2039.8645	29509.6	28626.15
935.0891	2041.4325	29479.8	28591.6
935.2262	2042.9998	29346.7	28464.35
935.3632	2044.5664	29264.6	28379
935.5002	2046.1323	29185.05	28301.8
935.6372	2047.6974	29110.95	28227.45
935.7742	2049.2617	29027.05	28144.65
935.9111	2050.8254	28972.9	28085.6
936.048	2052.3883	28898.2	28013.4
936.1849	2053.9504	28775.1	27890.65
936.3218	2055.5118	28707.55	27821.55
936.4586	2057.0725	28507.25	27621.2
936.5955	2058.6325	28525.45	27640.7
936.7323	2060.1917	28398	27515.45
936.869	2061.7502	28331.75	27445.8
937.0058	2063.3079	28207.95	27326.05
937.1425	2064.8649	28129.6	27242.25
937.2792	2066.4212	28106.15	27221.85
937.4159	2067.9767	28014.8	27129.3
937.5525	2069.5315	27871.55	26987.05
937.6891	2071.0856	27778.65	26895.15
937.8257	2072.6389	27662.95	26777.5
937.9623	2074.1915	27489.05	26606.25
938.0989	2075.7433	27388.05	26503.1
938.2354	2077.2945	27306	26425.25
938.3719	2078.8448	27260.55	26377.25
938.5084	2080.3945	27128.4	26247.15
938.6448	2081.9434	27111.25	26228.35
938.7812	2083.4916	27016.6	26131.15
938.9176	2085.039	26929.55	26044.15
939.054	2086.5857	26861	25975.95
939.1903	2088.1317	26825.25	25942.75
939.3267	2089.677	26708.9	25823.95
939.463	2091.2215	26629.5	25747.05
939.5992	2092.7652	26567.75	25683.15
939.7355	2094.3083	26500.1	25614.4
939.8717	2095.8506	26483.9	25600.35
940.0079	2097.3921	26417.85	25534.8
940.1441	2098.933	26346.65	25463.45
940.2802	2100.4731	26249.05	25366.35
940.4163	2102.0124	26185.95	25285.35
940.5524	2103.5511	26078.3	25194.85
940.6885	2105.089	26054.55	25170.8
940.8245	2106.6261	25989.15	25104.45
940.9606	2108.1626	25923.7	25038.5
941.0965	2109.6983	25886.9	24972.8
941.2325	2111.2332	25804.9	24919.85
941.3684	2112.7675	25744.9	24858.55
941.5044	2114.301	25618.85	24735.85
941.6403	2115.8337	25635.05	24752.25
941.7761	2117.3657	25545.05	24659.2
941.912	2118.897	25474.8	24591.6
942.0478	2120.4276	25329.35	24439
942.1835	2121.9575	25243.8	24358.65
942.3193	2123.4866	25267	24368.2
942.455	2125.0149	25160.75	24275.2
942.5907	2126.5426	25063.9	24182.05
942.7264	2128.0695	24980.85	24091.9
942.8621	2129.5956	24941.95	24058.65
942.9977	2131.1211	24899.15	24012.15
943.1333	2132.6458	24822.25	23938.1
943.2689	2134.1698	24750.45	23866.75
943.4044	2135.693	24669.9	23781.95
943.54	2137.2155	24634.8	23749.1
943.6755	2138.7373	24597.1	23712
943.8109	2140.2584	24499.2	23616.8
943.9464	2141.7787	24400.1	23511.05
944.0818	2143.2983	24259.15	23377.15
944.2172	2144.8171	24115.6	23233.15
944.3526	2146.3353	24058.7	23171.95
944.4879	2147.8527	23989.2	23106.45
944.6232	2149.3693	23939.25	23055.1
944.7585	2150.8853	23862.85	22978.75
944.8938	2152.4005	23767	22882.4
945.029	2153.9149	23708.6	22823.25
945.1642	2155.4287	23652.45	22770.35
945.2994	2156.9417	23615.6	22729.95
945.4346	2158.454	23551.45	22666.4
945.5697	2159.9655	23463	22579.6
945.7048	2161.4764	23453.6	22568.85
945.8399	2162.9865	23329.05	22446.05
945.9749	2164.4958	23263.5	22378.05
946.1099	2166.0045	23227.4	22340.15
946.2449	2167.5124	23153.65	22269.6
946.3799	2169.0195	23060.65	22180.2
946.5148	2170.526	23041.2	22154.35
946.6498	2172.0317	22958.7	22076.15
946.7846	2173.5367	22899	22014.85
946.9195	2175.0409	22820.85	21937.4
947.0543	2176.5445	22796.05	21913.3
947.1891	2178.0473	22674.55	21789.75
947.3239	2179.5494	22595.8	21707.15
947.4587	2181.0507	22534.1	21649
947.5934	2182.5513	22493.4	21609.05
947.7281	2184.0512	22420.65	21538.7
947.8628	2185.5504	22318.35	21436.05
947.9974	2187.0488	22216.25	21333.1
948.132	2188.5465	22146.35	21262.1
948.2666	2190.0435	22064.1	21178.95
948.4012	2191.5397	22003	21119.7
948.5357	2193.0353	21896.75	21014.85
948.6702	2194.5301	21809.55	20924.5
948.8047	2196.0241	21745	20861.55
948.9392	2197.5175	21674.2	20789.1
949.0736	2199.0101	21566.45	20678.65
949.208	2200.502	21528.1	20644.35
949.3424	2201.9931	21422.95	20538.8
949.4767	2203.4835	21348.75	20461.45
949.611	2204.9733	21280.1	20390.65
949.7453	2206.4622	21241.45	20357.1
949.8796	2207.9505	21179.2	20293.7
950.0138	2209.438	21062.9	20183.35
950.148	2210.9248	21002.2	20116.3
950.2822	2212.4109	20945.75	20062.9
950.4164	2213.8962	20844.2	19957.5
950.5505	2215.3809	20802.15	19919
950.6846	2216.8648	20784.85	19899.45
950.8186	2218.3479	20696.85	19808.15
950.9527	2219.8304	20630.8	19744.85
951.0867	2221.3121	20536.4	19650.4
951.2207	2222.7931	20462.55	19578.95
951.3546	2224.2733	20402.2	19516.95
951.4886	2225.7529	20345.55	19461.75
951.6225	2227.2317	20236	19349.2
951.7563	2228.7098	20226.7	19343.15
951.8902	2230.1872	20098.9	19214.65
952.024	2231.6638	20101.2	19218.25
952.1578	2233.1397	20009.5	19118.35
952.2916	2234.6149	19929.55	19044.9
952.4253	2236.0894	19839.95	18955.45
952.559	2237.5632	19813.05	18927.55
952.6927	2239.0362	19705.6	18823.85
952.8263	2240.5085	19665.35	18781.75
952.9599	2241.9801	19581.3	18698.2
953.0935	2243.4509	19531.8	18648.5
953.2271	2244.921	19489.2	18603.8
953.3606	2246.3904	19408.7	18520.45
953.4941	2247.8591	19318.85	18435.85
953.6276	2249.3271	19259.95	18377.5
953.7611	2250.7943	19176.65	18292.1
953.8945	2252.2608	19102.3	18220.2
954.0279	2253.7266	19066.35	18183.55
954.1612	2255.1917	19020	18134.9
954.2946	2256.656	18951.85	18067.55
954.4279	2258.1197	18931.05	18047
954.5612	2259.5826	18874.9	17989.8
954.6944	2261.0447	18838.4	17952.75
954.8276	2262.5062	18722.55	17836.45
954.9608	2263.9669	18715	17830.15
955.094	2265.4269	18663.45	17780.35
955.2271	2266.8862	18598.45	17714.7
955.3602	2268.3448	18535.7	17653.35
955.4933	2269.8026	18470.6	17588.15
955.6264	2271.2598	18454.85	17570.45
955.7594	2272.7162	18377.95	17496
955.8924	2274.1719	18325.5	17440.3
956.0253	2275.6268	18256.5	17374
956.1583	2277.0811	18203.1	17318.3
956.2912	2278.5346	18148.1	17263.7
956.4241	2279.9874	18126.6	17244.65
956.5569	2281.4395	18095.75	17214
956.6897	2282.8908	18008.3	17119.6
956.8225	2284.3414	17962.95	17077.7
956.9553	2285.7914	17898.5	17016.3
957.088	2287.2406	17832.45	16949.15
957.2207	2288.689	17796.2	16912.75
957.3534	2290.1368	17736.85	16853.2
957.486	2291.5838	17674.45	16789.45
957.6186	2293.0302	17644.7	16758
957.7512	2294.4758	17557.85	16674.2
957.8838	2295.9206	17464	16577.6
958.0163	2297.3648	17408.35	16525.45
958.1488	2298.8082	17376.8	16492.6
958.2813	2300.251	17340.55	16457
958.4137	2301.693	17264.55	16378.05
958.5461	2303.1343	17258.2	16373.75
958.6785	2304.5748	17235.75	16352.7
958.8108	2306.0147	17163.95	16279.05
958.9432	2307.4538	17115.3	16228.7
959.0754	2308.8922	17056.7	16174.6
959.2077	2310.3299	16997.35	16113.25
959.3399	2311.7669	16897.65	16015.65
959.4721	2313.2031	16870.45	15988
959.6043	2314.6387	16815.4	15930.3
959.7365	2316.0735	16713.6	15831.55
959.8686	2317.5076	16722.1	15840.45
960.0006	2318.941	16682.65	15800.85
960.1327	2320.3737	16625.2	15741.35
960.2647	2321.8056	16558.25	15671.6
960.3967	2323.2369	16524.1	15639.3
960.5287	2324.6674	16464.6	15579.5
960.6606	2326.0972	16405.4	15519.85
960.7925	2327.5263	16360.4	15477.35
960.9244	2328.9547	16294.55	15410.3
961.0562	2330.3823	16238.45	15353.85
961.1881	2331.8092	16227.85	15341.25
961.3198	2333.2355	16140.75	15256.75
961.4516	2334.661	16130.5	15246.75
961.5833	2336.0858	16075.3	15188.65
961.715	2337.5098	16040.2	15158.35
961.8467	2338.9332	15975.7	15091.65
961.9783	2340.3558	15930.7	15043.3
962.1099	2341.7778	15870	14986.85
962.2415	2343.199	15820.15	14935.25
962.373	2344.6195	15767.35	14885.3
962.5045	2346.0393	15738.1	14856.1
962.636	2347.4583	15710.5	14824.85
962.7675	2348.8767	15630.25	14746.5
962.8989	2350.2943	15594.1	14709
963.0303	2351.7113	15587.9	14701.6
963.1617	2353.1275	15508.05	14625
963.293	2354.543	15419.1	14525.55
963.4243	2355.9578	15403.2	14518.9
963.5556	2357.3718	15286.6	14403.65
963.6868	2358.7852	15243.7	14355.3
963.818	2360.1978	15186.55	14301.4
963.9492	2361.6098	15171.6	14288.25
964.0803	2363.021	15134.15	14245.4
964.2114	2364.4315	15072.1	14188.65
964.3425	2365.8413	15038.2	14153.05
964.4736	2367.2504	14972.2	14090.6
964.6046	2368.6587	14911.05	14027.35
964.7356	2370.0664	14841.15	13957.35
964.8666	2371.4733	14819.7	13935.35
964.9975	2372.8795	14732.25	13851.05
965.1284	2374.285	14715.25	13831.1
965.2593	2375.6899	14612.05	13729.85
965.3901	2377.0939	14585.35	13701.15
965.5209	2378.4973	14508.9	13626.7
965.6517	2379.9	14454.6	13571.15
965.7825	2381.3019	14426.75	13544.35
965.9132	2382.7032	14399	13516.15
966.0439	2384.1037	14328.1	13444.25
966.1745	2385.5035	14287.95	13405.8
966.3051	2386.9027	14243.85	13360.3
966.4357	2388.3011	14205.2	13317.85
966.5663	2389.6987	14175.25	13291.95
966.6968	2391.0957	14116.7	13233.15
966.8273	2392.492	14067.7	13186.05
966.9578	2393.8876	13985.25	13101.95
967.0882	2395.2824	13925.45	13043.25
967.2186	2396.6765	13882.05	12999.4
967.349	2398.07	13820.7	12937.45
967.4793	2399.4627	13787.1	12904.25
967.6097	2400.8547	13748.35	12864.1
967.7399	2402.246	13709.1	12818.8
967.8702	2403.6366	13619.15	12736.6
968.0004	2405.0265	13566.65	12682.2
968.1306	2406.4156	13509.15	12624.45
968.2607	2407.8041	13441.3	12553.55
968.3909	2409.1918	13420.85	12533.8
968.521	2410.5789	13353.9	12469.45
968.651	2411.9652	13297.05	12411.7
968.781	2413.3508	13237.8	12355.9
968.911	2414.7358	13182.4	12299.25
969.041	2416.12	13101.55	12219.35
969.1709	2417.5035	13123.6	12243.05
969.3008	2418.8863	13038.65	12154.55
969.4307	2420.2684	13037.95	12156.65
969.5606	2421.6497	12969	12087.6
969.6904	2423.0304	12895.9	12013.9
969.8201	2424.4104	12861.2	11977.9
969.9499	2425.7896	12814.5	11928.65
970.0796	2427.1682	12795.55	11913.7
970.2093	2428.546	12750.4	11866.25
970.3389	2429.9232	12731.75	11846.3
970.4685	2431.2996	12701.45	11818.1
970.5981	2432.6753	12667.75	11785.4
970.7277	2434.0503	12625.1	11741
970.8572	2435.4246	12557.75	11675.2
970.9867	2436.7982	12511.35	11625.85
971.1161	2438.1711	12487.1	11607.55
971.2456	2439.5433	12448.2	11563.3
971.375	2440.9148	12365.45	11482.25
971.5043	2442.2856	12309.25	11428.1
971.6336	2443.6557	12276.6	11392.05
971.7629	2445.025	12235.05	11353.45
971.8922	2446.3937	12212.9	11329.55
972.0214	2447.7617	12180.75	11296.5
972.1506	2449.1289	12141.65	11259.3
972.2798	2450.4955	12102.8	11215.7
972.4089	2451.8613	12078.25	11196
972.538	2453.2265	12054.5	11170.6
972.6671	2454.5909	12009.9	11124.6
972.7961	2455.9546	11968.75	11085.25
972.9251	2457.3177	11937.7	11055.65
973.0541	2458.68	11898.65	11014.8
973.1831	2460.0416	11887	11004.2
973.312	2461.4025	11845.55	10961.05
973.4408	2462.7627	11808.65	10914.45
973.5697	2464.1222	11772.5	10889.1
973.6985	2465.4811	11728.45	10844.1
973.8273	2466.8392	11699.25	10817.35
973.956	2468.1966	11668.05	10783.2
974.0847	2469.5533	11649.25	10764.5
974.2134	2470.9093	11609	10725.35
974.3421	2472.2645	11555.9	10669.75
974.4707	2473.6191	11494.95	10611.85
974.5993	2474.973	11464.4	10582.7
974.7278	2476.3262	11442	10558.85
974.8563	2477.6787	11414.3	10529.7
974.9848	2479.0305	11334.6	10452.85
975.1132	2480.3816	11281.05	10397.6
975.2417	2481.7319	11266.65	10385.4
975.37	2483.0816	11225.15	10337.95
975.4984	2484.4306	11189.4	10304.25
975.6267	2485.7789	11156.15	10274.05
975.755	2487.1264	11097.25	10212.5
975.8833	2488.4733	11057.4	10172.75
976.0115	2489.8195	11021.3	10132.15
976.1397	2491.165	10972.8	10086.65
976.2678	2492.5097	10949.2	10063.9
976.3959	2493.8538	10896	10013.6
976.524	2495.1972	10837.45	9954.55
976.6521	2496.5398	10808.65	9924.5
976.7801	2497.8818	10748.1	9862.6
976.9081	2499.2231	10724	9839.6
977.036	2500.5637	10682.4	9798.85
977.164	2501.9035	10666.75	9781.25
977.2918	2503.2427	10622.7	9735.05
977.4197	2504.5812	10563.3	9680
977.5475	2505.919	10551.25	9666.1
977.6753	2507.256	10537.7	9655.05
977.8031	2508.5924	10478.35	9595
977.9308	2509.9281	10429.45	9541.45
978.0585	2511.2631	10409.1	9526.5
978.1861	2512.5974	10381.25	9498.15
978.3137	2513.9309	10343.7	9460.35
978.4413	2515.2638	10326.65	9415.05
978.5689	2516.596	10306.95	9425.15
978.6964	2517.9275	10205.85	9320.85
978.8239	2519.2583	10208	9323.7
978.9513	2520.5884	10148.6	9265.15
979.0788	2521.9178	10119.55	9235.4
979.2062	2523.2465	10090.25	9208.7
979.3335	2524.5745	10015.2	9131.55
979.4608	2525.9018	9995.9	9111.85
979.5881	2527.2284	9977.75	9096.75
979.7154	2528.5543	9959.7	9077.9
979.8426	2529.8796	9936.85	9053.8
979.9698	2531.2041	9893.95	9011.2
980.0969	2532.5279	9884.35	9001.15
980.224	2533.851	9858.7	8976.65
980.3511	2535.1735	9835.85	8952.6
980.4781	2536.4952	9792.05	8910.7
980.6052	2537.8163	9772.35	8889.6
980.7321	2539.1366	9739.45	8856.9
980.8591	2540.4562	9697.65	8813.95
980.986	2541.7752	9705.2	8819.5
981.1129	2543.0935	9668.25	8785.35
981.2397	2544.411	9665.55	8781.15
981.3665	2545.7279	9649.15	8768.45
981.4933	2547.0441	9611.4	8730.2
981.62	2548.3596	9619.15	8733.05
981.7467	2549.6744	9600.95	8719.55
981.8734	2550.9885	9571.45	8679.1
982.0001	2552.3019	9521.8	8639.6
982.1267	2553.6146	9514.75	8630.3
982.2532	2554.9266	9443.95	8558.6
982.3798	2556.2379	9429	8543.35
982.5063	2557.5485	9410.95	8529.05
982.6327	2558.8585	9392.9	8501.55
982.7592	2560.1677	9375.3	8488.3
982.8856	2561.4762	9334.15	8449.25
983.0119	2562.7841	9316.25	8429.95
983.1383	2564.0913	9276.95	8396.1
983.2646	2565.3977	9252.25	8368.85
983.3908	2566.7035	9229.8	8347.5
983.517	2568.0086	9219.65	8335.25
983.6432	2569.313	9207.7	8323.5
983.7694	2570.6167	9197.75	8312.2
983.8955	2571.9197	9174.5	8291.1
984.0216	2573.222	9159.65	8271.85
984.1476	2574.5236	9110.6	8227
984.2737	2575.8246	9072.05	8187.85
984.3996	2577.1248	9089.65	8204
984.5256	2578.4244	9067	8183.7
984.6515	2579.7232	9050.15	8165.7
984.7774	2581.0214	9040.15	8132.9
984.9032	2582.3189	9013.3	8131.85
985.029	2583.6157	8982.9	8095.7
985.1548	2584.9118	8962.55	8079.95
985.2806	2586.2072	8934.35	8052.3
985.4063	2587.5019	8894.45	8009.55
985.5319	2588.7959	8871.05	7986.55
985.6576	2590.0893	8877.75	7992.8
985.7832	2591.3819	8827.8	7947
985.9087	2592.6739	8795.25	7914.2
986.0343	2593.9652	8778.15	7893.6
986.1597	2595.2557	8739.1	7857.5
986.2852	2596.5456	8701.25	7816.9
986.4106	2597.8348	8691.45	7809.2
986.536	2599.1234	8635.1	7752.35
986.6614	2600.4112	8607.7	7724.05
986.7867	2601.6983	8594.8	7708.95
986.912	2602.9848	8555.7	7673.95
987.0372	2604.2705	8544.2	7655.6
987.1624	2605.5556	8515.75	7633.35
987.2876	2606.84	8469.6	7585.85
987.4128	2608.1237	8425.85	7542.4
987.5379	2609.4067	8408.85	7525.35
987.6629	2610.689	8388.05	7496.8
987.788	2611.9707	8338.1	7452.4
987.913	2613.2516	8327.45	7439.2
988.0379	2614.5319	8275.2	7392.15
988.1629	2615.8115	8217.65	7334.3
988.2878	2617.0903	8212.5	7328.4
988.4126	2618.3685	8169.1	7286.35
988.5375	2619.6461	8154.4	7272.05
988.6622	2620.9229	8102.4	7220.3
988.787	2622.199	8092.2	7209.05
988.9117	2623.4745	8081.15	7196.25
989.0364	2624.7493	8048.35	7165.15
989.161	2626.0234	8023.65	7139.75
989.2857	2627.2968	7988.85	7105.35
989.4102	2628.5695	7959.9	7075.7
989.5348	2629.8415	7916.45	7033.45
989.6593	2631.1128	7898.85	7014.85
989.7837	2632.3835	7884.85	7002.25
989.9082	2633.6535	7810.25	6926.15
990.0326	2634.9228	7778.55	6896.7
990.1569	2636.1914	7787.55	6905.8
990.2812	2637.4593	7778.45	6888.45
990.4055	2638.7265	7742.05	6859.4
990.5298	2639.9931	7721.55	6839.45
990.654	2641.259	7681.05	6798.7
990.7782	2642.5242	7671.05	6788.15
990.9023	2643.7887	7633.35	6748.95
991.0264	2645.0525	7609.95	6726.15
991.1505	2646.3156	7575.7	6691.95
991.2745	2647.5781	7568.55	6687.35
991.3985	2648.8398	7529.45	6646.8
991.5225	2650.1009	7533.45	6612.6
991.6464	2651.3613	7486.4	6602.35
991.7703	2652.6211	7482.4	6601.1
991.8942	2653.8801	7478.35	6594.8
992.018	2655.1385	7442.35	6557.75
992.1418	2656.3961	7402.7	6519.45
992.2655	2657.6531	7381.15	6499.65
992.3892	2658.9094	7345.1	6461.55
992.5129	2660.1651	7346.25	6464.7
992.6366	2661.42	7331.9	6450.05
992.7602	2662.6743	7311.8	6427.35
992.8837	2663.9279	7294.4	6412.15
993.0073	2665.1808	7279.35	6396.8
993.1307	2666.433	7242.85	6356.55
993.2542	2667.6846	7219.8	6338.95
993.3776	2668.9354	7200.7	6313.85
993.501	2670.1856	7179.45	6296.55
993.6244	2671.4351	7160.65	6279.1
993.7477	2672.6839	7129.55	6245.6
993.8709	2673.9321	7121.8	6238.8
993.9942	2675.1795	7114.45	6230.85
994.1174	2676.4263	7078.9	6195.3
994.2405	2677.6724	7045.85	6164.35
994.3637	2678.9179	7021.55	6139.15
994.4868	2680.1626	7029.4	6147.85
994.6098	2681.4067	6986.25	6103.25
994.7328	2682.6501	6971.1	6090.25
994.8558	2683.8928	6938.35	6054.15
994.9788	2685.1348	6902	6018.5
995.1017	2686.3761	6888.65	6004.95
995.2245	2687.6168	6867.45	5983.45
995.3474	2688.8568	6845.95	5965.35
995.4702	2690.0961	6808.1	5925.7
995.5929	2691.3348	6815.65	5931.05
995.7156	2692.5727	6804.5	5921.9
995.8383	2693.81	6776.65	5891.2
995.961	2695.0466	6750.8	5868.85
996.0836	2696.2826	6738.15	5853.15
996.2062	2697.5178	6722.65	5837.9
996.3287	2698.7524	6698.35	5816.5
996.4512	2699.9863	6670.05	5785.55
996.5737	2701.2195	6643.2	5762.75
996.6961	2702.452	6642.1	5757.45
996.8185	2703.6839	6614.9	5731.85
996.9408	2704.9151	6584.2	5703.35
997.0631	2706.1456	6570.95	5686.35
997.1854	2707.3755	6548.05	5664.9
997.3077	2708.6046	6543.05	5657.1
997.4299	2709.8331	6513.65	5630
997.552	2711.0609	6475.4	5590.6
997.6742	2712.2881	6478.4	5595.9
997.7963	2713.5145	6475.25	5590.6
997.9183	2714.7403	6454.35	5573.8
998.0403	2715.9654	6404.95	5521.3
998.1623	2717.1899	6399.05	5515.5
998.2842	2718.4136	6372.1	5490.85
998.4062	2719.6367	6366.9	5485.3
998.528	2720.8591	6343.25	5453.05
998.6498	2722.0809	6298.95	5414.35
998.7716	2723.3019	6270.2	5383.25
998.8934	2724.5223	6291.6	5407.45
999.0151	2725.7421	6257.5	5372.8
999.1368	2726.9611	6250.25	5364.25
999.2584	2728.1795	6222.8	5334.1
999.38	2729.3972	6192.35	5309.95
999.5016	2730.6142	6184.95	5294.35
999.6231	2731.8306	6137.9	5255.7
999.7446	2733.0462	6128.25	5244
999.8661	2734.2612	6085.5	5197.5
999.9875	2735.4756	6052.55	5168.75
1000.1089	2736.6892	6015.6	5133.7
1000.2302	2737.9022	5999.7	5117
1000.3515	2739.1145	5983.35	5101.1
1000.4728	2740.3262	5947.95	5056.35
1000.594	2741.5372	5906.65	5024.85
1000.7152	2742.7475	5890.3	5009.15
1000.8363	2743.9571	5866.45	4981.2
1000.9575	2745.1661	5850.7	4964
1001.0785	2746.3744	5826.6	4941.45
1001.1996	2747.582	5795.4	4913.1
1001.3206	2748.7889	5786.15	4900.05
1001.4415	2749.9952	5767.3	4883.65
1001.5625	2751.2008	5764.8	4881.9
1001.6833	2752.4057	5746.3	4861.75
1001.8042	2753.61	5699.3	4816.15
1001.925	2754.8136	5698.75	4813.85
1002.0458	2756.0165	5664.45	4782.1
1002.1665	2757.2188	5648.4	4767.45
1002.2872	2758.4204	5624.45	4740.35
1002.4078	2759.6213	5615.55	4731.95
1002.5285	2760.8215	5612.2	4724.5
1002.649	2762.0211	5562.3	4676.45
1002.7696	2763.22	5538.45	4653.5
1002.8901	2764.4182	5544.15	4659
1003.0106	2765.6158	5528.65	4646.7
1003.131	2766.8127	5505.45	4623
1003.2514	2768.009	5483.4	4599.6
1003.3717	2769.2045	5460.5	4575.4
1003.492	2770.3994	5457	4572.9
1003.6123	2771.5936	5448.75	4565.65
1003.7325	2772.7872	5426.95	4545.55
1003.8527	2773.9801	5395.75	4509.65
1003.9729	2775.1723	5373.5	4475.05
1004.093	2776.3639	5332.6	4451.15
1004.2131	2777.5548	5329.2	4443.65
1004.3331	2778.745	5337	4453.45
1004.4531	2779.9346	5308.55	4424.45
1004.5731	2781.1235	5292.55	4409.7
1004.693	2782.3117	5275.75	4393.5
1004.8129	2783.4992	5256.25	4371.25
1004.9328	2784.6861	5234.9	4353.3
1005.0526	2785.8723	5230.2	4345.2
1005.1723	2787.0579	5217.95	4335.45
1005.2921	2788.2428	5198.05	4314.25
1005.4118	2789.427	5175.45	4292.05
1005.5314	2790.6106	5157.35	4274.55
1005.651	2791.7935	5136.25	4251.35
1005.7706	2792.9757	5120.25	4238.75
1005.8902	2794.1573	5110.2	4225.5
1006.0097	2795.3382	5091.3	4207.95
1006.1291	2796.5184	5079.7	4199.95
1006.2485	2797.698	5064.3	4179.65
1006.3679	2798.8769	5054.9	4173.8
1006.4873	2800.0551	5052.75	4171.7
1006.6066	2801.2327	5042.15	4155.9
1006.7258	2802.4096	5030	4148.45
1006.8451	2803.5859	5011.65	4128.95
1006.9642	2804.7615	5019.35	4138.4
1007.0834	2805.9364	5015.8	4135
1007.2025	2807.1106	4980.45	4098.6
1007.3216	2808.2842	4997.1	4114.2
1007.4406	2809.4572	4983.25	4100.1
1007.5596	2810.6294	5005.7	4120.25
1007.6785	2811.801	5028.5	4148.7
1007.7975	2812.972	5017.45	4134.75
1007.9163	2814.1423	5014.45	4132.2
1008.0352	2815.3119	5043.2	4161.55
1008.154	2816.4808	5034.2	4153.4
1008.2727	2817.6491	5053.1	4170.35
1008.3914	2818.8167	5066.85	4185.45
1008.5101	2819.9837	5078.95	4191.3
1008.6288	2821.15	5107.55	4226.95
1008.7474	2822.3157	5106.05	4223.3
1008.8659	2823.4807	5132.85	4250.8
1008.9844	2824.645	5153	4269.25
1009.1029	2825.8086	5171.95	4289.9
1009.2214	2826.9716	5180.7	4299.75
1009.3398	2828.134	5199.15	4315.85
1009.4581	2829.2957	5232.5	4349.5
1009.5764	2830.4567	5237.05	4355.7
1009.6947	2831.617	5218.1	4335.4
1009.813	2832.7767	5213.4	4331.65
1009.9312	2833.9358	5210.35	4328.8
1010.0493	2835.0941	5186.3	4301.65
1010.1675	2836.2519	5180.6	4298.6
1010.2855	2837.4089	5164.8	4281.55
1010.4036	2838.5653	5162.65	4280.9
1010.5216	2839.7211	5127.5	4246.7
1010.6396	2840.8761	5103.2	4217.75
1010.7575	2842.0306	5113.6	4231.55
1010.8754	2843.1843	5117.1	4235.35
1010.9932	2844.3374	5124.65	4242.7
1011.111	2845.4899	5127.75	4244
1011.2288	2846.6417	5157.6	4276.45
1011.3465	2847.7928	5183.7	4301.15
1011.4642	2848.9433	5200.6	4318.65
1011.5818	2850.0931	5220.85	4340.1
1011.6995	2851.2422	5241.55	4356.55
1011.817	2852.3907	5273.85	4390.8
1011.9345	2853.5385	5295.95	4412.65
1012.052	2854.6857	5324.25	4430.15
1012.1695	2855.8323	5311.8	4430.25
1012.2869	2856.9781	5332.3	4449.8
1012.4042	2858.1233	5345.2	4463.2
1012.5216	2859.2679	5328.3	4447.8
1012.6389	2860.4118	5356.55	4472.6
1012.7561	2861.555	5376.95	4490.3
1012.8733	2862.6976	5378.6	4493.15
1012.9905	2863.8395	5374.6	4495.1
1013.1076	2864.9808	5393.6	4509.35
1013.2247	2866.1214	5367.75	4486
1013.3417	2867.2614	5380.25	4497.8
1013.4587	2868.4007	5378.55	4495.6
1013.5757	2869.5393	5371.5	4487.45
1013.6926	2870.6773	5366.15	4479.45
1013.8095	2871.8146	5369.85	4483.95
1013.9263	2872.9513	5344.45	4460.3
1014.0431	2874.0874	5306.9	4423.5
1014.1599	2875.2227	5293.7	4411.65
1014.2766	2876.3574	5264.35	4380.65
1014.3933	2877.4915	5251.7	4369.4
1014.51	2878.6249	5204.85	4324.2
1014.6266	2879.7577	5189.55	4305.2
1014.7431	2880.8898	5153.85	4261.85
1014.8596	2882.0212	5159.7	4278.05
1014.9761	2883.152	5128.8	4245.7
1015.0925	2884.2821	5120.75	4239.05
1015.2089	2885.4116	5089.75	4206.65
1015.3253	2886.5405	5097.6	4216.05
1015.4416	2887.6686	5077.3	4191.3
1015.5579	2888.7962	5050.35	4169.2
1015.6741	2889.923	5049	4167.7
1015.7903	2891.0493	5047.8	4166.65
1015.9065	2892.1748	5028.4	4145.5
1016.0226	2893.2997	5024.45	4141.5
1016.1387	2894.424	5015.2	4134.6
1016.2547	2895.5476	5012.5	4130.1
1016.3707	2896.6706	5001.3	4119.1
1016.4866	2897.7929	5006.5	4123.8
1016.6025	2898.9145	5005.8	4122.4
1016.7184	2900.0355	4998.25	4117.15
1016.8342	2901.1559	5001.8	4118.9
1016.95	2902.2756	5008.1	4126.8
1017.0658	2903.3946	5014.05	4132.25
1017.1815	2904.513	5012.15	4126.1
1017.2971	2905.6308	5027.5	4147.65
1017.4127	2906.7479	5017.45	4136.1
1017.5283	2907.8643	5021.9	4138
1017.6439	2908.9801	5005	4123.1
1017.7594	2910.0953	4989.6	4105.4
1017.8748	2911.2098	4975.65	4091.95
1017.9902	2912.3236	4966.35	4076.65
1018.1056	2913.4368	4950.05	4062.55
1018.2209	2914.5494	4932.85	4050.45
1018.3362	2915.6613	4881.75	3996.75
1018.4515	2916.7725	4875.8	3991.25
1018.5667	2917.8831	4864.4	3980.45
1018.6819	2918.9931	4829.6	3943.85
1018.797	2920.1024	4811.45	3927.6
1018.9121	2921.211	4789.65	3906.6
1019.0271	2922.319	4778.4	3895.8
1019.1421	2923.4264	4740.75	3857.05
1019.2571	2924.5331	4722.95	3841.85
1019.372	2925.6391	4709.3	3828.1
1019.4869	2926.7445	4702.85	3822.45
1019.6017	2927.8493	4680.6	3798.5
1019.7165	2928.9534	4688.6	3807.6
1019.8313	2930.0569	4684.95	3798.8
1019.946	2931.1597	4669.15	3784.65
1020.0606	2932.2619	4666.8	3784.7
1020.1753	2933.3634	4650.6	3767.05
1020.2899	2934.4643	4639.55	3750.55
1020.4044	2935.5645	4642.25	3752.85
1020.5189	2936.6641	4611.7	3727.1
1020.6334	2937.763	4581.6	3700.5
1020.7478	2938.8613	4556.55	3674.35
1020.8622	2939.959	4513.25	3626.55
1020.9765	2941.056	4471.35	3589.7
1021.0908	2942.1523	4409.95	3525.45
1021.2051	2943.248	4367.65	3485.3
1021.3193	2944.3431	4309.45	3425.6
1021.4334	2945.4375	4236.35	3354.45
1021.5476	2946.5313	4171.75	3288.65
1021.6617	2947.6244	4103.4	3218.85
1021.7757	2948.7169	4042.35	3161.3
1021.8897	2949.8087	3993.2	3111.5
1022.0037	2950.8999	3925.9	3044.15
1022.1176	2951.9904	3859.7	2977.65
1022.2315	2953.0803	3826	2943.05
1022.3453	2954.1696	3787.15	2905.4
1022.4591	2955.2582	3758.85	2877.55
1022.5728	2956.3462	3722.05	2839.85
1022.6865	2957.4335	3694.25	2812.7
1022.8002	2958.5202	3656.6	2770.95
1022.9138	2959.6062	3628.75	2746.9
1023.0274	2960.6916	3595.65	2714.3
1023.141	2961.7764	3591.75	2707.25
1023.2545	2962.8605	3574.6	2689.8
1023.3679	2963.9439	3560.5	2678.7
1023.4813	2965.0267	3532.5	2647.35
1023.5947	2966.1089	3536.95	2631.8
1023.708	2967.1905	3508.8	2627.25
1023.8213	2968.2714	3483.35	2602.25
1023.9346	2969.3516	3485.5	2603.9
1024.0478	2970.4312	3481.7	2592.75
1024.1609	2971.5102	3463.5	2583.15
1024.274	2972.5885	3458.75	2576.15
1024.3871	2973.6662	3463.2	2575
1024.5002	2974.7432	3453.75	2572.1
1024.6132	2975.8196	3432.4	2550.55
1024.7261	2976.8954	3419.65	2536.8
1024.839	2977.9705	3402.5	2519.75
1024.9519	2979.045	3388.3	2504.95
1025.0647	2980.1188	3371.8	2491.6
1025.1775	2981.192	3353.45	2473.5
1025.2902	2982.2645	3316.9	2433.1
1025.4029	2983.3364	3314.5	2432.8
1025.5156	2984.4077	3284.05	2403.05
1025.6282	2985.4783	3284	2396.2
1025.7407	2986.5483	3237.6	2357.6
1025.8532	2987.6177	3223.25	2342.25
1025.9657	2988.6864	3198.9	2315.6
1026.0782	2989.7545	3177.25	2295.8
1026.1906	2990.8219	3138.15	2254.9
1026.3029	2991.8887	3114.2	2229.15
1026.4152	2992.9548	3099.95	2217.6
1026.5275	2994.0204	3076.3	2195.65
1026.6397	2995.0852	3045.35	2164.5
1026.7519	2996.1495	3025.85	2141.85
1026.864	2997.2131	2988.65	2107.15
1026.9761	2998.276	2992.5	2109.8
1027.0882	2999.3383	2970.6	2089.95
1027.2002	3000.4	2940.2	2057.05
1027.3122	3001.4611	2932.15	2049.6
1027.4241	3002.5215	2924.95	2042.2
1027.536	3003.5812	2901	2019.5
1027.6478	3004.6404	2890.75	2009.1
1027.7596	3005.6989	2866.9	1983.65
1027.8714	3006.7567	2864.7	1983.05
1027.9831	3007.8139	2877.85	1967
1028.0947	3008.8705	2842.45	1959.4
1028.2064	3009.9264	2845	1958.4
1028.3179	3010.9818	2821.2	1941.35
1028.4295	3012.0364	2800.65	1918.2
1028.541	3013.0905	2790.4	1909.25
1028.6524	3014.1439	2790.8	1907.45
1028.7638	3015.1966	2757.9	1874.35
1028.8752	3016.2487	2766.4	1885.4
1028.9865	3017.3002	2752.9	1867.15
1029.0978	3018.3511	2750.6	1870.55
1029.209	3019.4013	2744.9	1864.15
1029.3202	3020.4509	2743.4	1862.3
1029.4314	3021.4998	2733.8	1851.85
1029.5425	3022.5481	2713.3	1833.15
1029.6535	3023.5958	2702.55	1820.25
1029.7645	3024.6428	2700.95	1818.5
1029.8755	3025.6892	2702.25	1821.4
1029.9864	3026.735	2693.5	1810.9
1030.0973	3027.7802	2680.6	1797.15
1030.2082	3028.8247	2666.85	1783.05
1030.319	3029.8685	2654	1772.3
1030.4297	3030.9118	2644.45	1761.2
1030.5404	3031.9544	2649.9	1767.95
1030.6511	3032.9963	2643.25	1762.4
1030.7617	3034.0376	2634.9	1753.2
1030.8723	3035.0783	2645.55	1760.95
1030.9829	3036.1184	2622.4	1737.6
1031.0934	3037.1578	2620.85	1740.05
1031.2038	3038.1966	2624.45	1741.95
1031.3142	3039.2348	2598.8	1718.1
1031.4246	3040.2723	2605.1	1714.5
1031.5349	3041.3092	2595.45	1713.65
1031.6452	3042.3455	2583.45	1701
1031.7554	3043.3811	2579.05	1696.1
1031.8656	3044.4161	2569.5	1685.6
1031.9758	3045.4505	2569.8	1689.05
1032.0859	3046.4842	2555.85	1672.2
1032.1959	3047.5173	2546.3	1665.2
1032.3059	3048.5498	2539.1	1656.6
1032.4159	3049.5816	2548.15	1664.8
1032.5258	3050.6128	2543.15	1659.45
1032.6357	3051.6434	2520.2	1636.95
1032.7455	3052.6734	2513.3	1629.95
1032.8553	3053.7027	2497.9	1616.45
1032.9651	3054.7314	2506.55	1625.25
1033.0748	3055.7594	2482.75	1602.8
1033.1845	3056.7868	2487.15	1602.85
1033.2941	3057.8136	2477.95	1598.1
1033.4037	3058.8398	2470.3	1590.45
1033.5132	3059.8653	2460.4	1578.4
1033.6227	3060.8902	2455.15	1573.1
1033.7321	3061.9145	2440.65	1558.5
1033.8415	3062.9381	2428.15	1547.5
1033.9509	3063.9612	2438.85	1539.9
1034.0602	3064.9835	2421	1538.65
1034.1694	3066.0053	2408.9	1525.85
1034.2787	3067.0264	2403.1	1521.75
1034.3878	3068.0469	2402.15	1516.75
1034.497	3069.0668	2391.15	1506.25
1034.6061	3070.086	2378.4	1496.35
1034.7151	3071.1046	2372.9	1488.95
1034.8241	3072.1226	2365.95	1482.05
1034.9331	3073.1399	2355.6	1472.65
1035.042	3074.1567	2343.3	1461.25
1035.1508	3075.1727	2338.7	1455.15
1035.2597	3076.1882	2325.9	1443.3
1035.3684	3077.203	2311.65	1428.4
1035.4772	3078.2173	2309.05	1426
1035.5859	3079.2308	2303	1418.05
1035.6945	3080.2438	2297.75	1414.75
1035.8031	3081.2561	2279.6	1397.3
1035.9117	3082.2678	2279.4	1399.6
1036.0202	3083.2789	2274.05	1392.95
1036.1286	3084.2893	2260	1377.9
1036.2371	3085.2991	2255.75	1374.7
1036.3454	3086.3083	2247.9	1360.05
1036.4538	3087.3169	2229	1346.55
1036.562	3088.3248	2238.75	1355.75
1036.6703	3089.3321	2220.95	1337.35
1036.7785	3090.3388	2209.45	1329.4
1036.8866	3091.3449	2204.6	1323.3
1036.9948	3092.3503	2199.6	1315.25
1037.1028	3093.3551	2183.15	1303.4
1037.2108	3094.3593	2182.45	1299.85
1037.3188	3095.3629	2175	1292.95
1037.4267	3096.3658	2176.45	1293.75
1037.5346	3097.3681	2166.25	1285.9
1037.6425	3098.3698	2163.65	1280.2
1037.7503	3099.3708	2155.4	1266.4
1037.858	3100.3713	2139.4	1258.05
1037.9657	3101.3711	2138.7	1255.6
1038.0734	3102.3702	2255.2	1234.25
1038.181	3103.3688	2134.55	1250.8
1038.2886	3104.3667	2106.35	1225.7
1038.3961	3105.364	2101.45	1220
1038.5036	3106.3607	2094.6	1211.65
1038.611	3107.3568	2084.15	1200.35
1038.7184	3108.3522	2079.3	1198.2
1038.8257	3109.347	2076	1193.6
1038.933	3110.3412	2062.85	1175.95
1039.0403	3111.3348	2059.35	1177.05
1039.1475	3112.3277	2047.2	1165.05
1039.2547	3113.32	2046.7	1164.1
1039.3618	3114.3117	2048.6	1168.25
1039.4689	3115.3028	2031.65	1147.85
1039.5759	3116.2932	2024.15	1139.65
1039.6829	3117.2831	2017.45	1129.15
1039.7898	3118.2723	2012.9	1131.65
1039.8967	3119.2608	2005.45	1122.65
1040.0035	3120.2488	2005.9	1122.85
1040.1103	3121.2361	1993.45	1112.35
1040.2171	3122.2229	1990.15	1108.7
1040.3238	3123.209	1975.4	1093.75
1040.4305	3124.1944	1973.65	1091.95
1040.5371	3125.1793	1976.1	1093.2
1040.6437	3126.1635	1960.05	1079.7
1040.7502	3127.1471	1956.45	1075.5
1040.8567	3128.1301	1949.25	1067.15
1040.9631	3129.1125	1948.55	1065.75
1041.0695	3130.0942	1943.2	1062.1
1041.1759	3131.0753	1952.9	1061.45
1041.2822	3132.0558	1939.1	1055.15
1041.3884	3133.0357	1917.4	1034.9
1041.4946	3134.015	1923.95	1041.15
1041.6008	3134.9936	1917.3	1033.75
1041.7069	3135.9716	1937.45	1035.35
1041.813	3136.949	1918.45	1036.4
1041.919	3137.9258	1912.3	1024.65
1042.025	3138.902	1892.05	1004.2
1042.1309	3139.8775	1893.6	1014.05
1042.2368	3140.8524	1892.45	1009.8
1042.3427	3141.8267	1883.1	997.85
1042.4485	3142.8004	1889.35	1006.5
1042.5542	3143.7735	1889.95	1001.15
1042.6599	3144.7459	1884.85	999.65
1042.7656	3145.7178	1872.35	988.8
1042.8712	3146.689	1860.45	980.25
1042.9768	3147.6596	1853.3	969.25
1043.0823	3148.6295	1852.45	970.1
1043.1878	3149.5989	1849.1	963.9
1043.2932	3150.5676	1841.55	961.1
1043.3986	3151.5357	1832.35	951.15
1043.5039	3152.5032	1825.5	944
1043.6092	3153.4701	1827.7	946.05
1043.7145	3154.4364	1818.45	933.2
1043.8197	3155.402	1815.55	937.3
1043.9248	3156.367	1808.35	922.7
1044.03	3157.3315	1839.5	920.9
1044.135	3158.2952	1799.6	919.05
1044.24	3159.2584	1801.85	920.1
1044.345	3160.221	1794.25	911.8
1044.4499	3161.1829	1787.75	905.5
1044.5548	3162.1442	1778.8	898.1
1044.6596	3163.105	1782.15	899.95
1044.7644	3164.065	1763.15	879.75
1044.8692	3165.0245	1775.25	891.75
1044.9739	3165.9834	1767.5	887.5
1045.0785	3166.9416	1756.85	875.7
1045.1831	3167.8993	1746.25	863.5
1045.2877	3168.8563	1745.95	863.85
1045.3922	3169.8127	1727.4	846
1045.4966	3170.7684	1740	858.75
1045.6011	3171.7236	1735.2	853.65
1045.7054	3172.6782	1726.6	845.1
1045.8098	3173.6321	1723.65	841.9
1045.914	3174.5854	1710.3	823.9
1046.0183	3175.5381	1708.5	826.8
1046.1224	3176.4902	1708.1	825.85
1046.2266	3177.4417	1704.7	824
1046.3307	3178.3926	1697.3	813.55
1046.4347	3179.3428	1693.4	813.1
1046.5387	3180.2924	1689.45	809.2
1046.6427	3181.2415	1687.25	803.55
1046.7466	3182.1899	1675.7	792.45
1046.8504	3183.1377	1673.05	792.1
1046.9542	3184.0848	1670.3	786.9
1047.058	3185.0314	1664.85	784
1047.1617	3185.9773	1667.95	785.15
1047.2654	3186.9227	1656.25	774.3
1047.369	3187.8674	1655.5	772.5
1047.4726	3188.8115	1647.9	759.9
1047.5761	3189.755	1645.1	762.6
1047.6796	3190.6979	1640.45	757.2
1047.783	3191.6402	1640.2	759.2
1047.8864	3192.5818	1631.9	750.75
1047.9898	3193.5229	1645.15	746
1048.0931	3194.4633	1632.6	751.2
1048.1963	3195.4031	1631.4	748
1048.2995	3196.3423	1618.95	737.4
1048.4027	3197.2809	1614.6	730.55
1048.5058	3198.2189	1610.6	728.55
1048.6089	3199.1563	1623.65	727.55
1048.7119	3200.0931	1603.05	722.65
1048.8148	3201.0292	1596.45	714.45
1048.9178	3201.9648	1596.55	716.95
1049.0206	3202.8997	1596.1	712.3
1049.1235	3203.834	1586.85	706.1
1049.2262	3204.7677	1587.35	706.1
1049.329	3205.7008	1582.05	698.4
1049.4317	3206.6333	1582	702.25
1049.5343	3207.5652	1573	688.55
1049.6369	3208.4964	1571.15	687.4
1049.7394	3209.4271	1571.75	692.5
1049.8419	3210.3571	1560.15	678.8
1049.9444	3211.2865	1567.35	684.8
1050.0468	3212.2154	1553.8	670.65
1050.1491	3213.1436	1560.1	675.3
1050.2514	3214.0712	1557.45	667.95
1050.3537	3214.9982	1547.85	664.25
1050.4559	3215.9246	1542.3	660.4
1050.5581	3216.8503	1540.4	659.75
1050.6602	3217.7755	1538.9	656.85
1050.7623	3218.7001	1536.95	655.35
1050.8643	3219.624	1533	651.1
1050.9663	3220.5473	1532.4	651.35
1051.0682	3221.4701	1534.8	651.6
1051.1701	3222.3922	1521.1	638.15
1051.2719	3223.3137	1519.75	640.45
1051.3737	3224.2346	1515.85	633.8
1051.4754	3225.1549	1514.85	633.65
1051.5771	3226.0746	1507.15	624.8
1051.6788	3226.9937	1497.15	615.55
1051.7804	3227.9121	1500.85	619.3
1051.8819	3228.83	1496.3	614.65
1051.9834	3229.7473	1499.85	618.1
1052.0849	3230.6639	1487.45	606.1
1052.1863	3231.5799	1493.45	612.35
1052.2876	3232.4954	1490.05	606.4
1052.3889	3233.4102	1477.4	596.3
1052.4902	3234.3244	1471.3	589.15
1052.5914	3235.238	1466.65	587.15
1052.6926	3236.151	1489.05	583.7
1052.7937	3237.0634	1464.05	582.3
1052.8948	3237.9752	1462.5	580.3
1052.9958	3238.8864	1462.85	579.5
1053.0968	3239.797	1457.2	575.2
1053.1977	3240.7069	1450.55	567.65
1053.2986	3241.6163	1454	570.65
1053.3994	3242.5251	1446.15	565.95
1053.5002	3243.4332	1441.9	560.25
1053.6009	3244.3408	1432.9	550.5
1053.7016	3245.2477	1435.4	552.05
1053.8022	3246.154	1435.7	554.6
1053.9028	3247.0598	1430.4	549.45
1054.0034	3247.9649	1421.05	540.6
1054.1039	3248.8694	1426.55	545.55
1054.2043	3249.7733	1418.25	536.2
1054.3047	3250.6766	1410.65	529.45
1054.4051	3251.5793	1413.95	531.1
1054.5054	3252.4814	1409.35	529.9
1054.6056	3253.3829	1402	522
1054.7058	3254.2838	1406	523.1
1054.806	3255.1841	1401.1	518.75
1054.9061	3256.0838	1395.25	514.55
1055.0061	3256.9829	1390.45	510.5
1055.1062	3257.8814	1392.1	509.3
1055.2061	3258.7792	1386.65	504
1055.306	3259.6765	1378.2	495.45
1055.4059	3260.5731	1368.05	487.7
1055.5057	3261.4692	1364.05	480.25
1055.6055	3262.3647	1359.45	475.55
1055.7052	3263.2595	1351.9	469.15
1055.8049	3264.1538	1347.75	465.65
1055.9045	3265.0474	1342.2	459.05
1056.0041	3265.9404	1332.25	450.45
1056.1036	3266.8329	1333.05	452.15
1056.2031	3267.7247	1331	440.1
1056.3025	3268.616	1305.9	423.55
1056.4019	3269.5066	1292.35	410.05
1056.5013	3270.3966	1287.3	402.05
1056.6005	3271.286	1266.5	386.1
