Software Version:	3.9.2.0
Unit SN:	10000200
Spectrometer SN:	6960
Date:	3/6/2024 10:45:29 AM
Data Line Index:	25
Spectral Points:	2048
Integration time (ms):	125
Averages:	20
Delay (ms):	30
Sequence Number:	1
Processing:	dark subtract
Laser Power (mW):	295
Laser Current (mA):	822
Laser Diode Temp (C):	25.1
Laser Case Temp (C):	27.3
System Temp (C):	27.1
Spectrometer Temp (C):	24.5
CCD Temp (C):	-0.005
Secondary Temp (C):	20.008
Heatsink Temp (C):	22.966
CCDPCB Temp (C):	36.651
SecondaryPCB Temp (C):	33.761

Wavelength	RamanShift	Raw Counts	Dark Subtracted
787.061	30.1047	1137.1	724.55
787.2016	32.3739	1172.4	762.85
787.3422	34.6426	1213.25	801.2
787.4828	36.9109	1265.2	849.7
787.6235	39.1787	1330.15	911.1
787.7642	41.4461	1387.25	965.4
787.9049	43.7131	1456.85	1030.5
788.0456	45.9796	1519.25	1089.3
788.1863	48.2456	1589.4	1155.4
788.3271	50.5112	1662.8	1225.85
788.4679	52.7764	1734.7	1294.35
788.6087	55.0411	1828	1383.6
788.7496	57.3054	1908.45	1458.85
788.8904	59.5692	1998.1	1545.65
789.0313	61.8326	2100.4	1644.5
789.1722	64.0955	2198.6	1739.25
789.3132	66.3579	2332.55	1868.7
789.4541	68.6199	2498.9	2032.2
789.5951	70.8815	2761.4	2291.35
789.7361	73.1426	3281.95	2805.85
789.8771	75.4032	4615.05	4136.65
790.0181	77.6634	8044.65	7561.25
790.1592	79.9231	17053.35	16566.05
790.3003	82.1824	55976.7	55474.95
790.4414	84.4412	65535	65015.75
790.5825	86.6995	65535	64991.45
790.7237	88.9574	65535	64967.25
790.8648	91.2148	65535	64948.8
791.006	93.4717	65535	64943.8
791.1472	95.7282	65535	64935.6
791.2885	97.9842	65535	64928.9
791.4297	100.2398	65535	64928.65
791.571	102.4949	65535	64927.15
791.7123	104.7495	65535	64918.35
791.8536	107.0036	65535	64919.9
791.9949	109.2573	65535	64922.2
792.1363	111.5105	65535	64921.25
792.2777	113.7632	65535	64915.65
792.4191	116.0154	65535	64904.9
792.5605	118.2672	65535	64913
792.7019	120.5185	65535	64910.45
792.8434	122.7693	65535	64909.8
792.9849	125.0197	65535	64906.2
793.1264	127.2696	65535	64900
793.2679	129.519	65535	64900.85
793.4094	131.7679	65535	64895.1
793.551	134.0163	65535	64893.2
793.6926	136.2642	65535	64891.3
793.8342	138.5117	65535	64879.6
793.9758	140.7587	65535	64885.65
794.1175	143.0052	65535	64882.95
794.2591	145.2512	65535	64881.35
794.4008	147.4967	65535	64879.45
794.5425	149.7417	65535	64880.3
794.6842	151.9863	65535	64874.55
794.826	154.2304	65535	64866.8
794.9677	156.4739	65535	64863.9
795.1095	158.717	65535	64867.1
795.2513	160.9596	65535	64861.05
795.3931	163.2017	65535	64863
795.535	165.4433	65535	64856.45
795.6768	167.6844	65535	64850.45
795.8187	169.925	65535	64853.55
795.9606	172.1651	65535	64851.45
796.1025	174.4047	65535	64844.15
796.2445	176.6439	65535	64841.25
796.3864	178.8825	65535	64840.8
796.5284	181.1206	65535	64838.9
796.6704	183.3582	65535	64833.35
796.8124	185.5954	65535	64832.05
796.9544	187.832	65535	64830.05
797.0965	190.0681	65535	64826.05
797.2386	192.3037	65535	64826.7
797.3806	194.5388	65535	64822.6
797.5228	196.7734	65535	64817.05
797.6649	199.0075	65535	64810.3
797.807	201.2411	65535	64812.7
797.9492	203.4742	65535	64814.35
798.0914	205.7068	65535	64812.45
798.2336	207.9389	65535	64807.8
798.3758	210.1704	65535	64807.35
798.518	212.4015	65535	64807.1
798.6603	214.632	65535	64813.6
798.8025	216.862	65535	64828.2
798.9448	219.0915	65535	64828.3
799.0871	221.3205	65535	64824.8
799.2294	223.549	65535	64825.65
799.3718	225.777	65535	64828.6
799.5141	228.0044	65535	64825.75
799.6565	230.2314	65535	64827.2
799.7989	232.4578	65535	64824.35
799.9413	234.6837	65535	64813.75
800.0837	236.909	65535	64813.95
800.2262	239.1339	65535	64789.1
800.3687	241.3582	65535	64799.6
800.5111	243.582	65535	64770.65
800.6536	245.8053	65535	64785.95
800.7961	248.0281	65535	64788.5
800.9387	250.2503	65535	64788.4
801.0812	252.472	65535	64782.75
801.2238	254.6932	65535	64780.05
801.3664	256.9139	65535	64775.95
801.509	259.134	65535	64775.15
801.6516	261.3536	65535	64777.2
801.7942	263.5727	65535	64776.85
801.9369	265.7912	65535	64780.5
802.0795	268.0092	65535	64775.8
802.2222	270.2267	65535	64775.3
802.3649	272.4436	65535	64777
802.5076	274.6601	65535	64767.15
802.6504	276.8759	65535	64765.5
802.7931	279.0913	65535	64766.35
802.9359	281.3061	65535	64766.35
803.0787	283.5204	65535	64766
803.2215	285.7341	65535	64758.75
803.3643	287.9473	65535	64745.8
803.5071	290.16	65535	64756.7
803.6499	292.3721	65535	64761.8
803.7928	294.5837	65535	64761.75
803.9357	296.7947	65535	64762.3
804.0786	299.0052	65535	64763.8
804.2215	301.2152	65535	64756.4
804.3644	303.4246	65535	64758.45
804.5074	305.6334	65535	64761.45
804.6503	307.8418	65535	64756.75
804.7933	310.0495	65535	64755.45
804.9363	312.2568	65535	64754.95
805.0793	314.4635	65535	64749.8
805.2223	316.6696	65535	64750.8
805.3653	318.8752	65535	64743.3
805.5084	321.0802	65535	64748
805.6514	323.2847	65535	64744.8
805.7945	325.4887	65535	64748.4
805.9376	327.692	65535	64748.65
806.0807	329.8949	65535	64747.3
806.2238	332.0972	65535	64741.95
806.367	334.2989	65535	64736.95
806.5101	336.5001	65535	64739.45
806.6533	338.7007	65535	64739.55
806.7965	340.9008	65535	64741.1
806.9397	343.1003	65535	64737.4
807.0829	345.2992	65535	64737.05
807.2261	347.4976	65535	64734.45
807.3693	349.6955	65535	64728.3
807.5126	351.8927	65535	64729.95
807.6559	354.0895	65535	64718.65
807.7991	356.2856	65535	64726.55
807.9424	358.4812	65535	64728.05
808.0857	360.6763	65535	64726.2
808.2291	362.8707	65535	64728.45
808.3724	365.0646	65535	64723.2
808.5158	367.258	65535	64720.15
808.6591	369.4508	65535	64715.55
808.8025	371.643	65535	64715.95
808.9459	373.8346	65535	64715.8
809.0893	376.0257	65535	64713.15
809.2327	378.2162	65535	64715.45
809.3762	380.4062	65535	64711.3
809.5196	382.5956	65535	64708.65
809.6631	384.7844	65535	64714.65
809.8066	386.9726	65535	64712.85
809.9501	389.1603	65535	64716.7
810.0936	391.3474	65535	64675.6
810.2371	393.5339	65535	64715.95
810.3806	395.7199	65535	64718.55
810.5241	397.9052	65535	64718.9
810.6677	400.09	65535	64718.25
810.8113	402.2743	65535	64718.65
810.9548	404.4579	65535	64717.8
811.0984	406.641	65535	64721.75
811.2421	408.8235	65535	64715.45
811.3857	411.0054	65535	64715.85
811.5293	413.1868	65535	64708.95
811.673	415.3675	65535	64709.45
811.8166	417.5477	65535	64711.85
811.9603	419.7273	65535	64702.6
812.104	421.9064	65535	64695.8
812.2477	424.0848	65535	64700.35
812.3914	426.2627	65535	64699.75
812.5351	428.4399	65535	64700.5
812.6788	430.6166	65535	64697.4
812.8226	432.7928	65535	64695.45
812.9663	434.9683	65535	64699
813.1101	437.1432	65535	64692.35
813.2539	439.3176	65535	64696.9
813.3977	441.4914	65535	64696.6
813.5415	443.6645	65535	64693.45
813.6853	445.8371	65535	64694.5
813.8291	448.0091	65535	64693.45
813.973	450.1806	65535	64693.6
814.1168	452.3514	65535	64694.45
814.2607	454.5216	65535	64685.85
814.4046	456.6913	65535	64690.35
814.5485	458.8603	65535	64693.85
814.6924	461.0288	65535	64692.3
814.8363	463.1967	65535	64695.45
814.9802	465.3639	65535	64689.4
815.1241	467.5306	65535	64687.55
815.2681	469.6967	65535	64690.5
815.412	471.8622	65535	64689.65
815.556	474.0271	65535	64692.75
815.7	476.1914	65535	64688.75
815.844	478.3551	65535	64689.6
815.988	480.5182	65535	64687.2
816.132	482.6807	65535	64686.85
816.276	484.8426	65535	64689.85
816.4201	487.0039	65535	64687.85
816.5641	489.1647	65535	64685.75
816.7082	491.3248	65535	64685.65
816.8522	493.4843	65535	64685.15
816.9963	495.6432	65535	64682.45
817.1404	497.8015	65535	64683.35
817.2845	499.9592	65535	64681.85
817.4286	502.1163	65535	64679.65
817.5727	504.2728	65535	64681.1
817.7168	506.4287	65535	64684.15
817.861	508.5839	65535	64682.55
818.0051	510.7386	65535	64680.85
818.1493	512.8927	65535	64679.5
818.2935	515.0461	65535	64678.25
818.4377	517.199	65535	64681.25
818.5818	519.3512	65535	64682.25
818.726	521.5029	65535	64670.05
818.8703	523.6539	65535	64675.35
819.0145	525.8043	65535	64674.4
819.1587	527.9541	65535	64673.3
819.303	530.1033	65535	64674.25
819.4472	532.2519	65535	64677.2
819.5915	534.3999	65535	64673.05
819.7357	536.5472	65535	64672.6
819.88	538.694	65535	64676.05
820.0243	540.8401	65535	64676.45
820.1686	542.9856	65535	64667.2
820.3129	545.1305	65535	64669.5
820.4572	547.2748	65535	64666.4
820.6016	549.4185	65535	64668.25
820.7459	551.5615	65535	64669.1
820.8902	553.704	65535	64669.6
821.0346	555.8458	65535	64672.3
821.1789	557.987	65535	64673.55
821.3233	560.1276	65535	64667.45
821.4677	562.2675	65535	64672.25
821.6121	564.4069	65535	64669.3
821.7565	566.5456	65535	64671.5
821.9009	568.6837	65535	64670.1
822.0453	570.8212	65535	64668.6
822.1897	572.958	65535	64666.9
822.3342	575.0942	65535	64670.25
822.4786	577.2299	65535	64667.1
822.6231	579.3648	65535	64670.3
822.7675	581.4992	65535	64668.55
822.912	583.6329	65535	64672.15
823.0565	585.766	65535	64670.7
823.201	587.8985	65535	64670.4
823.3454	590.0304	65535	64641.55
823.4899	592.1616	65535	64665.65
823.6345	594.2922	65535	64666.25
823.779	596.4222	65535	64661.6
823.9235	598.5515	65535	64660.05
824.068	600.6802	65535	64665.15
824.2126	602.8083	65535	64661.9
824.3571	604.9358	65535	64660.95
824.5017	607.0626	65535	64660.85
824.6462	609.1888	65535	64659
824.7908	611.3144	65535	64659.9
824.9354	613.4393	65535	64659.9
825.08	615.5636	65535	64660.25
825.2246	617.6873	65535	64661.25
825.3692	619.8103	65535	64660.8
825.5138	621.9327	65535	64659.65
825.6584	624.0544	65535	64661.25
825.803	626.1756	65535	64661.8
825.9477	628.2961	65535	64658.55
826.0923	630.4159	65535	64657.4
826.237	632.5351	65535	64659.15
826.3816	634.6537	65535	64658.9
826.5263	636.7716	65535	64658.15
826.6709	638.8889	65535	64657.5
826.8156	641.0056	65535	64657.55
826.9603	643.1216	65535	64652.7
827.105	645.237	65535	64657.7
827.2497	647.3518	65535	64657.35
827.3944	649.4659	65535	64658.65
827.5391	651.5793	65535	64659.25
827.6838	653.6922	65535	64656.65
827.8285	655.8043	65535	64657.7
827.9733	657.9159	65535	64656.4
828.118	660.0268	65535	64651.85
828.2627	662.137	65535	64653.75
828.4075	664.2466	65535	64651
828.5522	666.3556	65535	64655.2
828.697	668.4639	65535	64648.25
828.8418	670.5716	65535	64654.35
828.9865	672.6786	65535	64652.3
829.1313	674.785	65535	64650.8
829.2761	676.8907	65535	64650.4
829.4209	678.9958	65535	64653.5
829.5657	681.1002	65535	64652.1
829.7105	683.204	65535	64646.7
829.8553	685.3072	65535	64650.25
830.0001	687.4097	65535	64650.8
830.1449	689.5115	65535	64647.85
830.2898	691.6127	65535	64653.45
830.4346	693.7132	65535	64649.95
830.5794	695.8131	65535	64639.65
830.7243	697.9123	65535	64649.25
830.8691	700.0109	65535	64650.15
831.014	702.1089	65535	64650.9
831.1588	704.2061	65535	64650.7
831.3037	706.3028	65535	64648.75
831.4486	708.3987	65535	64647.65
831.5935	710.4941	65535	64650.75
831.7383	712.5887	65535	64646.7
831.8832	714.6827	65535	64644.95
832.0281	716.7761	65535	64649.25
832.173	718.8688	65535	64650.05
832.3179	720.9608	65535	64643.7
832.4628	723.0522	65535	64642.85
832.6077	725.1429	65535	64643.8
832.7527	727.233	65535	64645.2
832.8976	729.3224	65535	64645.45
833.0425	731.4112	65535	64644.55
833.1874	733.4993	65535	64642.65
833.3324	735.5867	65535	64646.25
833.4773	737.6735	65535	64642.5
833.6222	739.7596	65535	64644.9
833.7672	741.845	65535	64645.85
833.9122	743.9298	65535	64641.95
834.0571	746.014	65535	64644.75
834.2021	748.0974	65535	64643.2
834.347	750.1802	65535	64643.15
834.492	752.2624	65535	64642.55
834.637	754.3439	65535	64643.2
834.782	756.4247	65535	64636.2
834.9269	758.5048	65535	64646.25
835.0719	760.5843	65535	64643.3
835.2169	762.6631	65535	64642.7
835.3619	764.7413	65535	64643.45
835.5069	766.8188	65535	64643.3
835.6519	768.8956	65535	64638.2
835.7969	770.9718	65535	64645.55
835.9419	773.0473	65535	64642.65
836.0869	775.1221	65535	64644.35
836.232	777.1962	65535	64644.35
836.377	779.2697	65535	64637.95
836.522	781.3426	65535	64620.95
836.667	783.4147	65535	64640.05
836.8121	785.4862	65535	64644.75
836.9571	787.557	65535	64644.55
837.1021	789.6271	65535	64639.05
837.2472	791.6966	65535	64638.6
837.3922	793.7654	65535	64639.5
837.5373	795.8335	65535	64643.15
837.6823	797.901	65535	64640.25
837.8274	799.9678	65535	64638.85
837.9724	802.0339	65535	64639.2
838.1175	804.0993	65535	64631.8
838.2626	806.1641	65535	64640.1
838.4076	808.2282	65535	64642.05
838.5527	810.2916	65535	64637.95
838.6978	812.3544	65535	64641.5
838.8428	814.4164	65535	64643.4
838.9879	816.4778	65535	64642.8
839.133	818.5385	65535	64641.15
839.2781	820.5986	65535	64639.55
839.4232	822.658	65535	64637.1
839.5682	824.7166	65535	64640.8
839.7133	826.7747	65535	64639.9
839.8584	828.832	65535	64639.25
840.0035	830.8886	65535	64640.35
840.1486	832.9446	65535	64637.05
840.2937	834.9999	65535	64641.85
840.4388	837.0545	65535	64634.1
840.5839	839.1085	65535	64635.3
840.729	841.1618	65535	64634.8
840.8741	843.2143	65535	64636.2
841.0192	845.2662	65535	64639.5
841.1643	847.3175	65535	64641.85
841.3095	849.368	65535	64640.5
841.4546	851.4179	65535	64638.9
841.5997	853.467	65535	64637
841.7448	855.5155	65535	64639.2
841.8899	857.5633	65535	64639.4
842.0351	859.6105	65535	64637.75
842.1802	861.6569	65535	64636.35
842.3253	863.7027	65535	64636.75
842.4704	865.7478	65535	64637
842.6156	867.7922	65535	64638.25
842.7607	869.8359	65535	64635.6
842.9058	871.8789	65535	64635.7
843.0509	873.9212	65535	64606.7
843.1961	875.9629	65535	64635.6
843.3412	878.0039	65535	64638.45
843.4863	880.0441	65535	64637.15
843.6315	882.0837	65535	64635.5
843.7766	884.1226	65535	64633.25
843.9218	886.1609	65535	64634.75
844.0669	888.1984	65535	64637.65
844.212	890.2352	65535	64638.8
844.3572	892.2714	65535	64631.65
844.5023	894.3069	65535	64636.05
844.6475	896.3416	65535	64634.4
844.7926	898.3757	65535	64636.9
844.9377	900.4091	65535	64633.65
845.0829	902.4418	65535	64630.15
845.228	904.4739	65535	64633.7
845.3732	906.5052	65535	64636.3
845.5183	908.5358	65535	64635.55
845.6635	910.5658	65535	64633.85
845.8086	912.595	65535	64635.2
845.9538	914.6236	65535	64637
846.0989	916.6515	65535	64635.1
846.2441	918.6786	65535	64633.55
846.3892	920.7051	65535	64633.25
846.5344	922.7309	65535	64634.35
846.6795	924.756	65535	64634.6
846.8246	926.7804	65535	64633
846.9698	928.8041	65535	64632.9
847.1149	930.8272	65535	64633.85
847.2601	932.8495	65535	64633.3
847.4052	934.8711	65535	64634.9
847.5504	936.892	65535	64632.75
847.6955	938.9123	65535	64631.5
847.8407	940.9318	65535	64633.95
847.9858	942.9506	65535	64632.8
848.131	944.9688	65535	64634.95
848.2761	946.9862	65535	64634.2
848.4213	949.003	65535	64633.35
848.5664	951.019	65535	64632.2
848.7115	953.0344	65535	64633.05
848.8567	955.0491	65535	64632.8
849.0018	957.063	65535	64632.65
849.147	959.0763	65535	64634.45
849.2921	961.0888	65535	64631.35
849.4373	963.1007	65535	64632.9
849.5824	965.1119	65535	64633.9
849.7275	967.1223	65535	64636.25
849.8727	969.1321	65535	64635.85
850.0178	971.1412	65535	64636.3
850.1629	973.1495	65535	64633.45
850.3081	975.1572	65535	64597.9
850.4532	977.1641	65535	64634.55
850.5983	979.1704	65535	64632.3
850.7435	981.1759	65535	64629.6
850.8886	983.1808	65535	64629.7
851.0337	985.1849	65535	64621.3
851.1788	987.1884	65535	64632.6
851.324	989.1911	65535	64629.05
851.4691	991.1932	65535	64632.95
851.6142	993.1945	65535	64635.4
851.7593	995.1951	65535	64629.95
851.9045	997.1951	65535	64628.3
852.0496	999.1943	65535	64632.95
852.1947	1001.1928	65535	64635.65
852.3398	1003.1906	65535	64631.85
852.4849	1005.1877	65535	64632.8
852.63	1007.1841	65535	64630.35
852.7751	1009.1798	65535	64634.4
852.9202	1011.1748	65535	64633.2
853.0653	1013.1691	65535	64630.35
853.2104	1015.1627	65535	64633.1
853.3555	1017.1556	65535	64633.55
853.5006	1019.1477	65535	64630.9
853.6457	1021.1392	65535	64636.75
853.7908	1023.1299	65535	64636.5
853.9359	1025.12	65535	64633
854.081	1027.1093	65535	64636.85
854.2261	1029.0979	65535	64638.1
854.3712	1031.0859	65535	64636
854.5163	1033.0731	65535	64634.75
854.6613	1035.0596	65535	64634.95
854.8064	1037.0454	65535	64634.1
854.9515	1039.0304	65535	64630.9
855.0965	1041.0148	65535	64633.2
855.2416	1042.9985	65535	64632.45
855.3867	1044.9814	65535	64635.5
855.5317	1046.9636	65535	64629.95
855.6768	1048.9452	65535	64634.9
855.8219	1050.926	65535	64634.3
855.9669	1052.9061	65535	64633.8
856.112	1054.8855	65535	64631.9
856.257	1056.8642	65535	64632.45
856.4021	1058.8421	65535	64627.5
856.5471	1060.8194	65535	64634.65
856.6921	1062.7959	65535	64634.85
856.8372	1064.7717	65535	64630.8
856.9822	1066.7469	65535	64633.3
857.1272	1068.7213	65535	64633.05
857.2723	1070.695	65535	64631.85
857.4173	1072.6679	65535	64633.1
857.5623	1074.6402	65535	64631.1
857.7073	1076.6117	65535	64629.8
857.8523	1078.5826	65535	64630.15
857.9973	1080.5527	65535	64630.3
858.1423	1082.5221	65535	64634.6
858.2873	1084.4908	65535	64631.9
858.4323	1086.4587	65535	64630.25
858.5773	1088.426	65535	64631.05
858.7223	1090.3925	65535	64628.3
858.8673	1092.3584	65535	64634.8
859.0123	1094.3235	65535	64632.55
859.1573	1096.2879	65535	64632.35
859.3022	1098.2515	65535	64632.45
859.4472	1100.2145	65535	64632.8
859.5922	1102.1767	65535	64630.6
859.7371	1104.1382	65535	64631.55
859.8821	1106.099	65535	64629.05
860.027	1108.0591	65535	64632.45
860.172	1110.0185	65535	64630.65
860.3169	1111.9771	65535	64633.8
860.4619	1113.9351	65535	64631.5
860.6068	1115.8923	65535	64633.5
860.7517	1117.8488	65535	64631.85
860.8967	1119.8045	65535	64630.1
861.0416	1121.7596	65535	64632.4
861.1865	1123.7139	65535	64633.9
861.3314	1125.6675	65535	64633.5
861.4763	1127.6204	65535	64633
861.6212	1129.5726	65535	64629.25
861.7661	1131.524	65535	64633.8
861.911	1133.4748	65535	64632.4
862.0559	1135.4248	65535	64630.45
862.2008	1137.3741	65535	64632.9
862.3457	1139.3226	65535	64632.85
862.4905	1141.2705	65535	64632
862.6354	1143.2176	65535	64628.05
862.7803	1145.164	65535	64630
862.9251	1147.1097	65535	64633.6
863.07	1149.0546	65535	64631.6
863.2148	1150.9989	65535	64633.4
863.3597	1152.9424	65535	64633.25
863.5045	1154.8852	65535	64632.65
863.6493	1156.8272	65535	64636
863.7942	1158.7686	65535	64626.6
863.939	1160.7092	65535	64630.15
864.0838	1162.6491	65535	64628.7
864.2286	1164.5883	65535	64633.6
864.3734	1166.5267	65535	64634.15
864.5182	1168.4644	65535	64631.75
864.663	1170.4014	65535	64626.6
864.8078	1172.3377	65535	64633.2
864.9526	1174.2732	65535	64632.4
865.0974	1176.2081	65535	64632.85
865.2421	1178.1421	65535	64628.1
865.3869	1180.0755	65535	64632.45
865.5317	1182.0082	65535	64634.3
865.6764	1183.9401	65535	64632.6
865.8212	1185.8713	65535	64635.65
865.9659	1187.8017	65535	64634.35
866.1106	1189.7315	65535	64631.65
866.2554	1191.6605	65535	64604.65
866.4001	1193.5888	65535	64634.2
866.5448	1195.5163	65535	64633.8
866.6895	1197.4432	65535	64632.6
866.8342	1199.3693	65535	64633.75
866.9789	1201.2947	65535	64633.8
867.1236	1203.2193	65535	64632.75
867.2683	1205.1432	65535	64631.15
867.413	1207.0664	65535	64632.25
867.5576	1208.9889	65535	64629.1
867.7023	1210.9106	65535	64632.85
867.847	1212.8316	65535	64632.5
867.9916	1214.7519	65535	64623.3
868.1363	1216.6715	65535	64633.05
868.2809	1218.5903	65535	64632.1
868.4255	1220.5084	65535	64632.6
868.5701	1222.4257	65535	64632.7
868.7148	1224.3424	65535	64636.7
868.8594	1226.2583	65535	64630.4
869.004	1228.1735	65535	64632.6
869.1486	1230.0879	65535	64632.95
869.2932	1232.0016	65535	64635.15
869.4377	1233.9146	65535	64630.3
869.5823	1235.8269	65535	64633.05
869.7269	1237.7384	65535	64633
869.8715	1239.6492	65535	64633.45
870.016	1241.5592	65535	64634.85
870.1606	1243.4686	65535	64631.05
870.3051	1245.3772	65535	64632.5
870.4496	1247.285	65535	64631.4
870.5941	1249.1922	65535	64630.05
870.7387	1251.0986	65535	64634.05
870.8832	1253.0042	65535	64631.65
871.0277	1254.9092	65535	64632.25
871.1722	1256.8134	65535	64634.1
871.3167	1258.7169	65535	64632.45
871.4611	1260.6196	65535	64633.6
871.6056	1262.5216	65535	64631.15
871.7501	1264.4229	65535	64633.45
871.8945	1266.3234	65535	64633.85
872.039	1268.2232	65535	64632.3
872.1834	1270.1223	65535	64631.95
872.3278	1272.0207	65535	64633.4
872.4723	1273.9183	65535	64627.15
872.6167	1275.8151	65535	64633.6
872.7611	1277.7113	65535	64631.85
872.9055	1279.6067	65535	64634.45
873.0499	1281.5014	65535	64633
873.1943	1283.3953	65535	64632.2
873.3386	1285.2885	65535	64633.25
873.483	1287.181	65535	64631.85
873.6274	1289.0727	65535	64635.35
873.7717	1290.9637	65535	64631.5
873.9161	1292.854	65535	64633.9
874.0604	1294.7435	65535	64633
874.2047	1296.6323	65535	64633
874.349	1298.5204	65535	64629.35
874.4933	1300.4077	65535	64632.35
874.6376	1302.2943	65535	64634.6
874.7819	1304.1802	65535	64635.45
874.9262	1306.0653	65535	64635.2
875.0705	1307.9497	65535	64632.6
875.2147	1309.8333	65535	64634.55
875.359	1311.7162	65535	64633.95
875.5032	1313.5984	65535	64632.7
875.6475	1315.4798	65535	64621.7
875.7917	1317.3605	65535	64616.05
875.9359	1319.2405	65535	64633.3
876.0801	1321.1197	65535	64631.55
876.2243	1322.9982	65535	64627.4
876.3685	1324.876	65535	64633.55
876.5127	1326.753	65535	64632.75
876.6569	1328.6293	65535	64631.05
876.801	1330.5048	65535	64631.35
876.9452	1332.3796	65535	64632.75
877.0893	1334.2537	65535	64606.95
877.2335	1336.127	65535	64635
877.3776	1337.9996	65535	64632.45
877.5217	1339.8714	65535	64633.4
877.6658	1341.7426	65535	64589.5
877.8099	1343.6129	65535	64631.5
877.954	1345.4826	65535	64630.4
878.0981	1347.3515	65535	64629.15
878.2422	1349.2196	65535	64631.9
878.3862	1351.087	65535	64631.4
878.5303	1352.9537	65535	64631.3
878.6743	1354.8197	65535	64630.9
878.8184	1356.6849	65535	64631.5
878.9624	1358.5493	65535	64633.2
879.1064	1360.4131	65535	64632.4
879.2504	1362.276	65535	64632.8
879.3944	1364.1383	65535	64634.65
879.5384	1365.9998	65535	64626.6
879.6823	1367.8606	65535	64631.35
879.8263	1369.7206	65535	64631.55
879.9702	1371.5799	65535	64631.55
880.1142	1373.4384	65535	64632.9
880.2581	1375.2962	65535	64632.8
880.402	1377.1533	65535	64633.9
880.5459	1379.0096	65535	64632
880.6898	1380.8652	65535	64634.75
880.8337	1382.7201	65535	64630.75
880.9776	1384.5742	65535	64632.85
881.1215	1386.4275	65535	64630.05
881.2653	1388.2802	65535	64635.25
881.4092	1390.132	65535	64635.4
881.553	1391.9832	65535	64630.5
881.6968	1393.8336	65535	64632.1
881.8406	1395.6832	65535	64634
881.9844	1397.5322	65535	64630.9
882.1282	1399.3803	65535	64630.15
882.272	1401.2278	65535	64633.25
882.4158	1403.0745	65535	64634.5
882.5595	1404.9204	65535	64637.3
882.7033	1406.7656	65535	64632.4
882.847	1408.6101	65535	64633.4
882.9908	1410.4538	65535	64633.7
883.1345	1412.2968	65535	64631.7
883.2782	1414.139	65535	64634.65
883.4219	1415.9805	65535	64633
883.5656	1417.8213	65535	64627.25
883.7092	1419.6613	65535	64633.5
883.8529	1421.5006	65535	64634.45
883.9965	1423.3391	65535	64633.6
884.1402	1425.1769	65535	64631
884.2838	1427.0139	65535	64632.75
884.4274	1428.8502	65535	64630.4
884.571	1430.6858	65535	64633.2
884.7146	1432.5206	65535	64635.2
884.8582	1434.3547	65535	64633.2
885.0018	1436.188	65535	64633
885.1453	1438.0206	65535	64632.25
885.2889	1439.8524	65535	64634.15
885.4324	1441.6835	65535	64631
885.5759	1443.5139	65535	64630.3
885.7194	1445.3435	65535	64634.15
885.8629	1447.1724	65535	64634.4
886.0064	1449.0005	65535	64633.45
886.1499	1450.8279	65535	64632.2
886.2933	1452.6545	65535	64633.25
886.4368	1454.4804	65535	64634
886.5802	1456.3056	65535	64625.05
886.7237	1458.13	65535	64635.35
886.8671	1459.9536	65535	64632.4
887.0105	1461.7766	65535	64632.25
887.1539	1463.5987	65535	64632.45
887.2972	1465.4202	65535	64634.4
887.4406	1467.2409	65535	64635.3
887.584	1469.0608	65535	64633.1
887.7273	1470.88	65535	64634.05
887.8706	1472.6984	65535	64634.5
888.0139	1474.5161	65535	64629.8
888.1572	1476.3331	65535	64634
888.3005	1478.1493	65535	64632.7
888.4438	1479.9648	65535	64635.2
888.5871	1481.7795	65535	64634.95
888.7303	1483.5935	65535	64634.3
888.8736	1485.4067	65535	64633.75
889.0168	1487.2192	65535	64633.3
889.16	1489.031	65535	64633.9
889.3032	1490.842	65535	64634.25
889.4464	1492.6522	65535	64632.6
889.5896	1494.4618	65535	64631.5
889.7327	1496.2705	65535	64633.4
889.8759	1498.0785	65535	64635.45
890.019	1499.8858	65535	64633
890.1622	1501.6924	65535	64634.6
890.3053	1503.4981	65535	64633.15
890.4484	1505.3032	65535	64634.05
890.5914	1507.1075	65535	64633.6
890.7345	1508.911	65535	64634.75
890.8776	1510.7138	65535	64632.8
891.0206	1512.5159	65535	64634.7
891.1637	1514.3172	65535	64634.35
891.3067	1516.1178	65535	64635.55
891.4497	1517.9176	65535	64632.6
891.5927	1519.7166	65535	64635.25
891.7357	1521.515	65535	64628.4
891.8786	1523.3126	65535	64634.85
892.0216	1525.1094	65535	64633.4
892.1645	1526.9055	65535	64637.55
892.3074	1528.7008	65535	64634.6
892.4503	1530.4954	65535	64627.9
892.5932	1532.2893	65535	64635
892.7361	1534.0824	65535	64628.15
892.879	1535.8747	65535	64634.6
893.0218	1537.6663	65535	64634.45
893.1647	1539.4572	65535	64634.6
893.3075	1541.2473	65535	64635.25
893.4503	1543.0367	65535	64636.95
893.5931	1544.8253	65535	64630.45
893.7359	1546.6132	65535	64633
893.8787	1548.4003	65533.35	64624.1
894.0214	1550.1867	65534	64625.7
894.1642	1551.9723	65530.25	64624.6
894.3069	1553.7572	65529.25	64629.95
894.4496	1555.5414	65535	64633.55
894.5923	1557.3247	65477.3	64577.35
894.735	1559.1074	65531.25	64632.7
894.8777	1560.8893	65519.95	64620.05
895.0204	1562.6705	65527.4	64629.65
895.163	1564.4509	65505.85	64609.5
895.3056	1566.2305	65519.35	64621.8
895.4482	1568.0094	65528.7	64633.15
895.5908	1569.7876	65518.35	64619.65
895.7334	1571.565	65481.45	64581
895.876	1573.3417	65498.95	64601.75
896.0186	1575.1176	65489.4	64590.9
896.1611	1576.8928	65472.3	64573.1
896.3036	1578.6672	65440.15	64544.55
896.4461	1580.4409	65459.25	64562.75
896.5886	1582.2138	65417.5	64516.9
896.7311	1583.986	65430.5	64531.95
896.8736	1585.7575	65387.7	64488.35
897.0161	1587.5282	65391.55	64493.6
897.1585	1589.2981	65396.7	64501.1
897.3009	1591.0673	65350.8	64452.2
897.4433	1592.8358	65305.25	64408.8
897.5857	1594.6035	65355.4	64456.95
897.7281	1596.3704	65353.65	64456.65
897.8705	1598.1366	65237.7	64340.05
898.0128	1599.9021	65139.25	64244.35
898.1551	1601.6668	65285.35	64386.8
898.2975	1603.4308	65220.2	64320.3
898.4398	1605.194	65209.75	64307.75
898.5821	1606.9564	64914.05	64014.6
898.7243	1608.7182	65102.55	64200.9
898.8666	1610.4791	64934.9	64040.45
899.0088	1612.2394	65120.8	64227.9
899.1511	1613.9988	64828.25	63933.95
899.2933	1615.7576	65146.9	64250.45
899.4355	1617.5156	65126.05	64221.6
899.5776	1619.2728	65274.55	64375.95
899.7198	1621.0293	64946.75	64050.1
899.862	1622.785	64949.75	64049.25
900.0041	1624.54	65091.6	64190.8
900.1462	1626.2942	64829.75	63931.8
900.2883	1628.0477	64359.75	63460.9
900.4304	1629.8005	63623.65	62725.9
900.5725	1631.5525	64365.05	63466.15
900.7145	1633.3037	63201.1	62305.7
900.8566	1635.0542	63026.35	62131.35
900.9986	1636.804	63610.1	62713.75
901.1406	1638.553	62317.05	61339.9
901.2826	1640.3013	62748.9	61852.3
901.4245	1642.0488	62008.15	61111.15
901.5665	1643.7955	62533.45	61640.05
901.7085	1645.5416	61981.55	61085.35
901.8504	1647.2868	61422.3	60525.4
901.9923	1649.0313	62377.4	61480.6
902.1342	1650.7751	61885.05	60986.05
902.2761	1652.5181	61405.25	60509.3
902.4179	1654.2604	61532.8	60635.7
902.5598	1656.0019	61939.4	61044.85
902.7016	1657.7427	61730.95	60833.3
902.8434	1659.4828	62380.2	61483.75
902.9852	1661.222	61804.2	60905.95
903.127	1662.9606	62459.75	61564.5
903.2687	1664.6984	61446.25	60549.45
903.4105	1666.4354	61738.85	60841.5
903.5522	1668.1717	60512.9	59618.25
903.6939	1669.9072	59612.25	58716.05
903.8356	1671.642	59325.3	58425.2
903.9773	1673.3761	59043.7	58147.25
904.119	1675.1094	58783.05	57887.15
904.2606	1676.8419	58100.95	57205.2
904.4022	1678.5737	58052.05	57154.85
904.5439	1680.3048	57712.85	56815.3
904.6855	1682.0351	57394.6	56499.45
904.827	1683.7646	57072.65	56173.7
904.9686	1685.4934	57181.6	56287.7
905.1101	1687.2215	56112.85	55217.95
905.2517	1688.9488	56808.4	55913.5
905.3932	1690.6754	55272.1	54377.9
905.5347	1692.4012	55811.55	54916.35
905.6761	1694.1263	55717.8	54823.45
905.8176	1695.8506	55343.45	54447.3
905.9591	1697.5742	55207.35	54312.4
906.1005	1699.297	54947.85	54053.7
906.2419	1701.0191	54802.6	53907.6
906.3833	1702.7404	54213.15	53318.7
906.5246	1704.461	54000.05	53104.7
906.666	1706.1808	53945.2	53048.75
906.8073	1707.8999	53863.95	52967.1
906.9487	1709.6182	53581.4	52685.5
907.09	1711.3358	53458.05	52565.25
907.2313	1713.0527	53231.3	52338.1
907.3725	1714.7688	53123.9	52223.5
907.5138	1716.4841	52547.25	51652.1
907.655	1718.1987	52671	51770.7
907.7962	1719.9126	52417.85	51526.1
907.9374	1721.6257	52273.05	51376.4
908.0786	1723.338	52350.6	51456.25
908.2198	1725.0496	51602.15	50705.15
908.3609	1726.7605	51567.45	50672.45
908.502	1728.4706	51385.65	50490.65
908.6431	1730.18	51230.35	50334.35
908.7842	1731.8886	51034.65	50138.15
908.9253	1733.5964	50886.6	49971.45
909.0664	1735.3036	50838	49937.6
909.2074	1737.0099	50622.25	49730.1
909.3484	1738.7156	50387.05	49493.6
909.4894	1740.4204	50134.75	49238.4
909.6304	1742.1246	50117.35	49221.7
909.7714	1743.8279	50000.15	49107.05
909.9123	1745.5306	49921.95	49027.7
910.0532	1747.2325	49552.55	48657.7
910.1941	1748.9336	49455.5	48561.3
910.335	1750.634	49167.7	48272.4
910.4759	1752.3336	49164.05	48268.8
910.6168	1754.0325	48953.25	48061.1
910.7576	1755.7307	48968.35	48074.65
910.8984	1757.4281	48805.65	47912.4
911.0392	1759.1247	48714.15	47812.8
911.18	1760.8206	48465.65	47564.95
911.3208	1762.5158	48442.6	47541.95
911.4615	1764.2102	48214.55	47321.9
911.6022	1765.9039	47994.4	47098.6
911.7429	1767.5968	47930.1	47035.8
911.8836	1769.289	47757.55	46863.4
912.0243	1770.9804	47645.3	46750.85
912.1649	1772.6711	47529.2	46635.5
912.3056	1774.361	47307.65	46408.6
912.4462	1776.0502	47253.6	46358.2
912.5868	1777.7386	47143.5	46245.95
912.7274	1779.4263	46964.1	46069.85
912.8679	1781.1132	46910.6	46018.6
913.0084	1782.7994	46749.3	45855.55
913.149	1784.4849	46632.55	45740.55
913.2895	1786.1696	46394.2	45494.15
913.4299	1787.8535	46283.15	45390.35
913.5704	1789.5367	46166.65	45272.55
913.7108	1791.2192	46078.4	45183.65
913.8513	1792.9009	45845.05	44922.05
913.9917	1794.5818	45693.35	44797.85
914.132	1796.2621	45579.1	44687.45
914.2724	1797.9415	45447.9	44555.2
914.4128	1799.6202	45294.7	44401.05
914.5531	1801.2982	45208.55	44314.8
914.6934	1802.9755	45071.15	44177.05
914.8337	1804.6519	45009.9	44118.1
914.9739	1806.3277	44767.7	43873.85
915.1142	1808.0027	44550.95	43660.15
915.2544	1809.6769	44530.7	43636.75
915.3946	1811.3504	44393.4	43498.85
915.5348	1813.0231	44260.5	43364.2
915.675	1814.6951	44168.7	43272.9
915.8151	1816.3664	44160.5	43264.7
915.9553	1818.0369	44005.45	43112.3
916.0954	1819.7067	43900.55	43009.3
916.2355	1821.3757	43742.3	42847.75
916.3755	1823.044	43609.45	42715.9
916.5156	1824.7115	43489.2	42593.85
916.6556	1826.3783	43251.55	42361.2
916.7956	1828.0443	43134.85	42244.15
916.9356	1829.7096	43019.4	42124.3
917.0756	1831.3741	42975.6	42077.9
917.2155	1833.0379	42856.15	41963.05
917.3555	1834.701	42689.4	41793.95
917.4954	1836.3633	42516.1	41623.85
917.6353	1838.0248	42447.1	41551.25
917.7751	1839.6856	42352.7	41460.15
917.915	1841.3457	42282.65	41388.3
918.0548	1843.005	42084.45	41191.5
918.1946	1844.6636	42086	41192.9
918.3344	1846.3214	41929.65	41034.6
918.4742	1847.9785	41867.8	40974.85
918.6139	1849.6349	41770.3	40873.35
918.7537	1851.2904	41662.25	40760.25
918.8934	1852.9453	41479.15	40583.7
919.0331	1854.5994	41364.05	40468.05
919.1727	1856.2528	41350.6	40452
919.3124	1857.9054	41206.2	40311.7
919.452	1859.5572	41171.2	40278.8
919.5916	1861.2083	40981.65	40088.5
919.7312	1862.8587	40964.4	40070.9
919.8708	1864.5084	40820.2	39926.4
920.0103	1866.1572	40714.6	39821.6
920.1498	1867.8054	40479	39584.4
920.2893	1869.4528	40445.95	39552.4
920.4288	1871.0994	40251	39357.65
920.5683	1872.7453	40187.95	39294.7
920.7077	1874.3905	40109.75	39210.85
920.8471	1876.0349	39904.4	39008.15
920.9865	1877.6786	39893.1	38999.15
921.1259	1879.3215	39847.85	38954.25
921.2653	1880.9637	39674.4	38782.05
921.4046	1882.6051	39668.5	38775.4
921.5439	1884.2458	39477.25	38581.3
921.6832	1885.8858	39332.25	38439.1
921.8225	1887.525	39275.4	38382.3
921.9617	1889.1634	39056.3	38163.8
922.101	1890.8011	38899.5	38005.35
922.2402	1892.4381	38777.2	37885.1
922.3794	1894.0743	38752.8	37859.95
922.5185	1895.7098	38645.55	37752.55
922.6577	1897.3446	38538.45	37645.35
922.7968	1898.9786	38390.2	37491.25
922.9359	1900.6118	38333.2	37440.7
923.075	1902.2443	38106.75	37212.35
923.214	1903.8761	38026	37132.4
923.3531	1905.5071	37803.9	36910.7
923.4921	1907.1374	37672.7	36779
923.6311	1908.7669	37628.1	36734.65
923.77	1910.3957	37548.5	36656.5
923.909	1912.0237	37276.05	36382.2
924.0479	1913.651	37183.7	36290.05
924.1868	1915.2776	37097.15	36205.9
924.3257	1916.9034	36869.7	35975.1
924.4646	1918.5285	36732	35839.95
924.6034	1920.1528	36533.2	35641.05
924.7422	1921.7764	36505.3	35615.15
924.881	1923.3992	36330.75	35438.3
925.0198	1925.0213	36115.6	35221.95
925.1586	1926.6427	35953.15	35062.95
925.2973	1928.2633	36005.7	34994.85
925.436	1929.8832	35803.9	34908
925.5747	1931.5023	35593.8	34700.55
925.7134	1933.1207	35504.4	34610.5
925.852	1934.7383	35463.3	34568.9
925.9906	1936.3552	35242.5	34349.2
926.1292	1937.9714	35125.45	34232
926.2678	1939.5868	35009.05	34114.35
926.4064	1941.2015	34826.85	33935.25
926.5449	1942.8154	34705.05	33811.65
926.6834	1944.4286	34524.9	33630.85
926.8219	1946.041	34415	33503.95
926.9604	1947.6528	34174.65	33274.6
927.0988	1949.2637	34109.95	33217.25
927.2372	1950.8739	33991.35	33096.25
927.3756	1952.4834	33899.45	33007.45
927.514	1954.0921	33809.6	32916.65
927.6523	1955.7001	33686.85	32790.15
927.7907	1957.3074	33526.6	32633.35
927.929	1958.9139	33351.2	32459.1
928.0673	1960.5197	33318.7	32425.95
928.2055	1962.1247	33150.85	32258.85
928.3438	1963.729	32987.75	32097.1
928.482	1965.3325	32870.3	31955.2
928.6202	1966.9353	32726.2	31834.95
928.7584	1968.5374	32630.75	31736.85
928.8965	1970.1387	32571.45	31678.1
929.0346	1971.7393	32397	31504.8
929.1727	1973.3392	32247.4	31353
929.3108	1974.9383	32172.3	31280.55
929.4489	1976.5366	31987.65	31095.55
929.5869	1978.1342	31985.6	31090.55
929.7249	1979.7311	31827	30934.8
929.8629	1981.3273	31731.15	30837.7
930.0009	1982.9227	31624.3	30730.05
930.1388	1984.5173	31461.95	30569.6
930.2767	1986.1112	31362.6	30471.05
930.4146	1987.7044	31300.9	30410.1
930.5525	1989.2968	31195.3	30300.3
930.6904	1990.8885	31099.5	30203.6
930.8282	1992.4795	31011.75	30117.95
930.966	1994.0697	30806.8	29913.8
931.1038	1995.6592	30738.9	29847.5
931.2415	1997.2479	30624.8	29731.4
931.3793	1998.8359	30556.3	29663.4
931.517	2000.4232	30417.15	29526.5
931.6547	2002.0097	30342.4	29452.45
931.7923	2003.5955	30107.45	29216.8
931.93	2005.1805	30094	29200.25
932.0676	2006.7648	30020.8	29127.95
932.2052	2008.3484	29891.9	28998.3
932.3427	2009.9312	29925.95	29032.3
932.4803	2011.5133	29743.8	28852.85
932.6178	2013.0946	29620.35	28728.7
932.7553	2014.6752	29609.25	28717.9
932.8928	2016.2551	29516.85	28625.45
933.0302	2017.8342	29341.65	28449.85
933.1676	2019.4126	29237.25	28346.4
933.305	2020.9902	29089.25	28197.65
933.4424	2022.5672	29013.85	28119.5
933.5798	2024.1433	28947.55	28051.75
933.7171	2025.7188	28817.65	27925.95
933.8544	2027.2935	28771.2	27876.45
933.9917	2028.8674	28598.75	27707.3
934.129	2030.4406	28520.3	27629.8
934.2662	2032.0131	28406	27516.3
934.4034	2033.5849	28287.15	27386.4
934.5406	2035.1559	28255.7	27364
934.6778	2036.7261	28209.9	27317.95
934.8149	2038.2957	28067.05	27173.75
934.952	2039.8645	28023.65	27131.85
935.0891	2041.4325	27961.15	27065.9
935.2262	2042.9998	27805.4	26915.5
935.3632	2044.5664	27749.5	26855.05
935.5002	2046.1323	27655.8	26762.25
935.6372	2047.6974	27617.15	26726.3
935.7742	2049.2617	27480.45	26589.7
935.9111	2050.8254	27436.45	26522.6
936.048	2052.3883	27401.5	26507.85
936.1849	2053.9504	27307.4	26416.6
936.3218	2055.5118	27186.55	26294.55
936.4586	2057.0725	27041.6	26146.35
936.5955	2058.6325	26983.85	26089.85
936.7323	2060.1917	26878.25	25986.4
936.869	2061.7502	26782.7	25888.45
937.0058	2063.3079	26684.35	25793.35
937.1425	2064.8649	26603.55	25709.8
937.2792	2066.4212	26500.65	25609.5
937.4159	2067.9767	26428.25	25537.1
937.5525	2069.5315	26338.8	25448
937.6891	2071.0856	26226.9	25335.7
937.8257	2072.6389	26118.8	25226.35
937.9623	2074.1915	25985.45	25093.9
938.0989	2075.7433	25864.3	24969.6
938.2354	2077.2945	25804.25	24912.75
938.3719	2078.8448	25667	24775.3
938.5084	2080.3945	25603.25	24713.5
938.6448	2081.9434	25584.2	24689.25
938.7812	2083.4916	25446.6	24552.35
938.9176	2085.039	25327.6	24434.45
939.054	2086.5857	25279.05	24385.75
939.1903	2088.1317	25246.55	24355.05
939.3267	2089.677	25158.25	24265.55
939.463	2091.2215	25042.7	24152.25
939.5992	2092.7652	24976.75	24082.45
939.7355	2094.3083	24961.6	24070.1
939.8717	2095.8506	24888.65	23997.05
940.0079	2097.3921	24853.75	23962.85
940.1441	2098.933	24736.1	23845.75
940.2802	2100.4731	24678.6	23786.4
940.4163	2102.0124	24609.6	23712.2
940.5524	2103.5511	24540.5	23648.85
940.6885	2105.089	24517.9	23625.95
940.8245	2106.6261	24378.9	23487.05
940.9606	2108.1626	24343.35	23448.75
941.0965	2109.6983	24319.5	23398.4
941.2325	2111.2332	24177.1	23286.6
941.3684	2112.7675	24099.5	23206.55
941.5044	2114.301	24032.85	23140.3
941.6403	2115.8337	23990.2	23098.5
941.7761	2117.3657	23939.2	23045.7
941.912	2118.897	23862.55	22971
942.0478	2120.4276	23755.55	22857.5
942.1835	2121.9575	23650.45	22759.65
942.3193	2123.4866	23654.2	22746.65
942.455	2125.0149	23536.85	22641.1
942.5907	2126.5426	23386.9	22495.35
942.7264	2128.0695	23331.95	22436.45
942.8621	2129.5956	23283.6	22391.6
942.9977	2131.1211	23222.6	22326.8
943.1333	2132.6458	23163	22270.25
943.2689	2134.1698	23100.3	22207.75
943.4044	2135.693	23060.45	22165.7
943.54	2137.2155	22972.9	22079.2
943.6755	2138.7373	22939.95	22049.85
943.8109	2140.2584	22826.35	21935.9
943.9464	2141.7787	22745.8	21850.8
944.0818	2143.2983	22616.1	21723.1
944.2172	2144.8171	22502.35	21610.6
944.3526	2146.3353	22450.2	21554.85
944.4879	2147.8527	22360.15	21467.25
944.6232	2149.3693	22338.75	21445.15
944.7585	2150.8853	22223.65	21329.4
944.8938	2152.4005	22092.85	21201.8
945.029	2153.9149	22093.6	21200.75
945.1642	2155.4287	21985.2	21093.6
945.2994	2156.9417	21979.4	21087.05
945.4346	2158.454	21919.25	21022.5
945.5697	2159.9655	21849.6	20957.05
945.7048	2161.4764	21795.1	20904.6
945.8399	2162.9865	21690.6	20797.4
945.9749	2164.4958	21644.6	20750.45
946.1099	2166.0045	21516.1	20618.35
946.2449	2167.5124	21494	20599.95
946.3799	2169.0195	21424.4	20533.35
946.5148	2170.526	21423.35	20528.2
946.6498	2172.0317	21356.05	20463.85
946.7846	2173.5367	21248.75	20356.3
946.9195	2175.0409	21219.55	20326.25
947.0543	2176.5445	21192.35	20302.3
947.1891	2178.0473	21058.05	20163.7
947.3239	2179.5494	20996.25	20101.2
947.4587	2181.0507	20901.2	20008.4
947.5934	2182.5513	20830.95	19939.85
947.7281	2184.0512	20762.8	19872.15
947.8628	2185.5504	20704.35	19812.45
947.9974	2187.0488	20585.15	19692.55
948.132	2188.5465	20564.3	19671.75
948.2666	2190.0435	20458.95	19567.05
948.4012	2191.5397	20377.2	19485.45
948.5357	2193.0353	20307.15	19413.35
948.6702	2194.5301	20196.05	19303.55
948.8047	2196.0241	20106.7	19211.35
948.9392	2197.5175	20066.95	19174.7
949.0736	2199.0101	20017.2	19121.6
949.208	2200.502	19916.9	19027.35
949.3424	2201.9931	19817.9	18925
949.4767	2203.4835	19739.8	18850
949.611	2204.9733	19708.8	18811
949.7453	2206.4622	19631.25	18739.3
949.8796	2207.9505	19555.55	18660.8
950.0138	2209.438	19423.95	18530.45
950.148	2210.9248	19363.9	18470.65
950.2822	2212.4109	19308.85	18416.15
950.4164	2213.8962	19240.1	18345.7
950.5505	2215.3809	19207.95	18313.55
950.6846	2216.8648	19167.3	18275.55
950.8186	2218.3479	19089.8	18192.25
950.9527	2219.8304	18998.45	18101.55
951.0867	2221.3121	18937.95	18043.3
951.2207	2222.7931	18870.4	17977.65
951.3546	2224.2733	18826.15	17933.7
951.4886	2225.7529	18698.7	17805.65
951.6225	2227.2317	18640.45	17744.3
951.7563	2228.7098	18617.4	17726.95
951.8902	2230.1872	18505.95	17612.4
952.024	2231.6638	18486.9	17594.05
952.1578	2233.1397	18391.05	17492.65
952.2916	2234.6149	18357.05	17466.2
952.4253	2236.0894	18253.2	17360.9
952.559	2237.5632	18244.4	17343.2
952.6927	2239.0362	18156.05	17264.4
952.8263	2240.5085	18079	17187.9
952.9599	2241.9801	18002	17109.75
953.0935	2243.4509	17914.85	17024.5
953.2271	2244.921	17874.5	16982.4
953.3606	2246.3904	17785.7	16892.15
953.4941	2247.8591	17731.65	16840.2
953.6276	2249.3271	17676.35	16782.5
953.7611	2250.7943	17630.35	16737.65
953.8945	2252.2608	17579.5	16687.9
954.0279	2253.7266	17510	16616.4
954.1612	2255.1917	17463.95	16572.05
954.2946	2256.656	17404.95	16512.35
954.4279	2258.1197	17351.15	16459.4
954.5612	2259.5826	17322.9	16427.55
954.6944	2261.0447	17256.85	16363.35
954.8276	2262.5062	17167	16273.15
954.9608	2263.9669	17123.2	16227.2
955.094	2265.4269	17090.3	16198.7
955.2271	2266.8862	17013.1	16120.95
955.3602	2268.3448	17001.1	16108.25
955.4933	2269.8026	16955.45	16060.85
955.6264	2271.2598	16882.85	15990.75
955.7594	2272.7162	16837.7	15946.65
955.8924	2274.1719	16787.95	15895.55
956.0253	2275.6268	16687.85	15793.35
956.1583	2277.0811	16651.2	15758.35
956.2912	2278.5346	16619.15	15728.25
956.4241	2279.9874	16573.15	15680.75
956.5569	2281.4395	16528.95	15637.45
956.6897	2282.8908	16445.3	15546.55
956.8225	2284.3414	16443.4	15549.15
956.9553	2285.7914	16337.45	15447.3
957.088	2287.2406	16291.35	15398.1
957.2207	2288.689	16245	15351.9
957.3534	2290.1368	16173.2	15280
957.486	2291.5838	16158.35	15262.75
957.6186	2293.0302	16073.2	15178.15
957.7512	2294.4758	16014.65	15123.55
957.8838	2295.9206	15967.45	15071.55
958.0163	2297.3648	15899.15	15005.85
958.1488	2298.8082	15910.85	15015.9
958.2813	2300.251	15837.55	14945.15
958.4137	2301.693	15772.4	14877.95
958.5461	2303.1343	15801.3	14907.45
958.6785	2304.5748	15679.5	14786.05
958.8108	2306.0147	15607.55	14715.3
958.9432	2307.4538	15595.2	14702.2
959.0754	2308.8922	15507.35	14615.45
959.2077	2310.3299	15443.85	14553
959.3399	2311.7669	15415.95	14521.7
959.4721	2313.2031	15366.95	14475.35
959.6043	2314.6387	15309.1	14415.55
959.7365	2316.0735	15220.15	14327.9
959.8686	2317.5076	15208.35	14315.35
960.0006	2318.941	15146.15	14254.4
960.1327	2320.3737	15105.5	14212.7
960.2647	2321.8056	15041.85	14147
960.3967	2323.2369	15008.45	14115.65
960.5287	2324.6674	14936.4	14041.05
960.6606	2326.0972	14885.35	13990.45
960.7925	2327.5263	14860.3	13967.3
960.9244	2328.9547	14810.75	13916.5
961.0562	2330.3823	14769.1	13874.65
961.1881	2331.8092	14736.75	13842.05
961.3198	2333.2355	14642.55	13749
961.4516	2334.661	14641.5	13747.7
961.5833	2336.0858	14597.25	13701.05
961.715	2337.5098	14558.25	13664.6
961.8467	2338.9332	14511.9	13619.7
961.9783	2340.3558	14436.75	13539.5
962.1099	2341.7778	14392.3	13499.2
962.2415	2343.199	14356.25	13462.75
962.373	2344.6195	14307.7	13414.65
962.5045	2346.0393	14273.15	13381.65
962.636	2347.4583	14239.7	13347.4
962.7675	2348.8767	14142.25	13248.1
962.8989	2350.2943	14131.55	13238.05
963.0303	2351.7113	14095.35	13201.1
963.1617	2353.1275	14054.45	13162.95
963.293	2354.543	13992.15	13091.85
963.4243	2355.9578	13940.6	13047
963.5556	2357.3718	13892.85	13001.5
963.6868	2358.7852	13815	12920.2
963.818	2360.1978	13754.95	12862
963.9492	2361.6098	13697.9	12807.05
964.0803	2363.021	13674	12778.5
964.2114	2364.4315	13645.85	12753.95
964.3425	2365.8413	13570.75	12674.9
964.4736	2367.2504	13481.3	12591.5
964.6046	2368.6587	13465.2	12573.15
964.7356	2370.0664	13416.3	12524.8
964.8666	2371.4733	13345.95	12453.4
964.9975	2372.8795	13316.95	12422.9
965.1284	2374.285	13269.75	12377.65
965.2593	2375.6899	13169.35	12279.85
965.3901	2377.0939	13109.3	12218.2
965.5209	2378.4973	13085.7	12196.55
965.6517	2379.9	13045	12151.45
965.7825	2381.3019	12994.35	12100.6
965.9132	2382.7032	12964.15	12070.95
966.0439	2384.1037	12922.05	12032
966.1745	2385.5035	12841.2	11950.5
966.3051	2386.9027	12810.5	11918.5
966.4357	2388.3011	12784.5	11888.5
966.5663	2389.6987	12724.05	11831.6
966.6968	2391.0957	12660.9	11770.7
966.8273	2392.492	12596.85	11705.6
966.9578	2393.8876	12524.8	11633.6
967.0882	2395.2824	12468.7	11577.6
967.2186	2396.6765	12437.35	11548.5
967.349	2398.07	12363.45	11469.5
967.4793	2399.4627	12383.25	11490.3
967.6097	2400.8547	12329.2	11436.3
967.7399	2402.246	12272.6	11375.95
967.8702	2403.6366	12184.05	11293.1
968.0004	2405.0265	12139.45	11248.6
968.1306	2406.4156	12121.85	11226.65
968.2607	2407.8041	12068.4	11173.25
968.3909	2409.1918	12006.45	11112.25
968.521	2410.5789	11962.15	11069.85
968.651	2411.9652	11933.95	11039.25
968.781	2413.3508	11890.85	10997.7
968.911	2414.7358	11814.9	10922.3
969.041	2416.12	11773.1	10880.55
969.1709	2417.5035	11734.85	10843.75
969.3008	2418.8863	11713.85	10820.2
969.4307	2420.2684	11653.9	10762.6
969.5606	2421.6497	11611.4	10717
969.6904	2423.0304	11509.8	10618.9
969.8201	2424.4104	11482.35	10590.7
969.9499	2425.7896	11474.45	10579.7
970.0796	2427.1682	11431.2	10540.25
970.2093	2428.546	11386.35	10495.5
970.3389	2429.9232	11365.3	10472.95
970.4685	2431.2996	11344.3	10454.3
970.5981	2432.6753	11317.5	10425.2
970.7277	2434.0503	11279.35	10386.2
970.8572	2435.4246	11219.7	10326.8
970.9867	2436.7982	11154.5	10258.55
971.1161	2438.1711	11164	10274.25
971.2456	2439.5433	11120.1	10226.7
971.375	2440.9148	11049.8	10158.05
971.5043	2442.2856	10994.65	10104.85
971.6336	2443.6557	10996.6	10103.1
971.7629	2445.025	10938.4	10048.45
971.8922	2446.3937	10892.7	9999.1
972.0214	2447.7617	10857.55	9965.95
972.1506	2449.1289	10831.3	9938
972.2798	2450.4955	10825.85	9929.4
972.4089	2451.8613	10765.3	9874.9
972.538	2453.2265	10734.9	9844.6
972.6671	2454.5909	10718.15	9823.8
972.7961	2455.9546	10712.4	9822
972.9251	2457.3177	10637.1	9745.2
973.0541	2458.68	10607.45	9715.45
973.1831	2460.0416	10588.7	9695.95
973.312	2461.4025	10546.7	9652.25
973.4408	2462.7627	10530.2	9624.9
973.5697	2464.1222	10513.3	9619.85
973.6985	2465.4811	10467.6	9575.8
973.8273	2466.8392	10449.9	9558.55
973.956	2468.1966	10398.1	9503.2
974.0847	2469.5533	10385.3	9491.45
974.2134	2470.9093	10343.95	9452.2
974.3421	2472.2645	10312.55	9420.45
974.4707	2473.6191	10267.05	9375.3
974.5993	2474.973	10228.2	9335.85
974.7278	2476.3262	10201.55	9306.6
974.8563	2477.6787	10162.9	9271.15
974.9848	2479.0305	10116.6	9223.65
975.1132	2480.3816	10070.7	9175.85
975.2417	2481.7319	10020.55	9128.2
975.37	2483.0816	9995.3	9101.55
975.4984	2484.4306	9946.95	9054.3
975.6267	2485.7789	9924.35	9032.35
975.755	2487.1264	9877.55	8983.5
975.8833	2488.4733	9847.15	8955.45
976.0115	2489.8195	9806.5	8899.1
976.1397	2491.165	9768.75	8872.15
976.2678	2492.5097	9732.2	8839.25
976.3959	2493.8538	9673.25	8783.15
976.524	2495.1972	9637.65	8745.25
976.6521	2496.5398	9610.85	8718.45
976.7801	2497.8818	9586.85	8690.8
976.9081	2499.2231	9558.3	8665
977.036	2500.5637	9530.7	8637.95
977.164	2501.9035	9467.9	8574.3
977.2918	2503.2427	9451.95	8555.7
977.4197	2504.5812	9425.9	8534.1
977.5475	2505.919	9388.3	8493.75
977.6753	2507.256	9370.65	8479
977.8031	2508.5924	9331.35	8438.5
977.9308	2509.9281	9268.5	8372.9
978.0585	2511.2631	9248.6	8355.4
978.1861	2512.5974	9259.1	8368.05
978.3137	2513.9309	9191.7	8298.1
978.4413	2515.2638	9172.5	8247.45
978.5689	2516.596	9145.1	8254.2
978.6964	2517.9275	9080.9	8190
978.8239	2519.2583	9063.4	8169.4
978.9513	2520.5884	8996.05	8102.75
979.0788	2521.9178	8974.3	8079.85
979.2062	2523.2465	8955.15	8063.6
979.3335	2524.5745	8934.1	8043.4
979.4608	2525.9018	8885.55	7993.05
979.5881	2527.2284	8846.35	7956.7
979.7154	2528.5543	8847.65	7955.1
979.8426	2529.8796	8818.7	7926.6
979.9698	2531.2041	8802.75	7911
980.0969	2532.5279	8782.35	7890.8
980.224	2533.851	8754.85	7862.9
980.3511	2535.1735	8704.55	7811.15
980.4781	2536.4952	8709.8	7817.2
980.6052	2537.8163	8663	7770.4
980.7321	2539.1366	8636.95	7746.8
980.8591	2540.4562	8613.05	7720.6
980.986	2541.7752	8628.8	7737.25
981.1129	2543.0935	8557.8	7667.05
981.2397	2544.411	8559.45	7667.2
981.3665	2545.7279	8530.45	7639
981.4933	2547.0441	8518.5	7626.35
981.62	2548.3596	8502.35	7605.7
981.7467	2549.6744	8463.4	7571.7
981.8734	2550.9885	8468.05	7574.2
982.0001	2552.3019	8423.7	7532.65
982.1267	2553.6146	8390.15	7498.25
982.2532	2554.9266	8373.7	7481.25
982.3798	2556.2379	8331.8	7437.15
982.5063	2557.5485	8313.4	7423
982.6327	2558.8585	8305.5	7405
982.7592	2560.1677	8284.95	7388.6
982.8856	2561.4762	8267.95	7374.05
983.0119	2562.7841	8240.55	7344.15
983.1383	2564.0913	8214.55	7325.55
983.2646	2565.3977	8208.9	7315.35
983.3908	2566.7035	8173.8	7283.05
983.517	2568.0086	8184.65	7290.5
983.6432	2569.313	8159.25	7266.5
983.7694	2570.6167	8130.8	7236.6
983.8955	2571.9197	8117.6	7225.5
984.0216	2573.222	8092.8	7197.05
984.1476	2574.5236	8069.85	7175.85
984.2737	2575.8246	8023.85	7127.7
984.3996	2577.1248	8018.75	7123
984.5256	2578.4244	8013.35	7120.15
984.6515	2579.7232	7999.65	7109.3
984.7774	2581.0214	7995.95	7078.15
984.9032	2582.3189	7950.25	7057.1
985.029	2583.6157	7947.95	7052.85
985.1548	2584.9118	7932.95	7039.1
985.2806	2586.2072	7885.6	6995
985.4063	2587.5019	7872.2	6980.75
985.5319	2588.7959	7841.25	6947.95
985.6576	2590.0893	7834.2	6941.05
985.7832	2591.3819	7803.4	6909.25
985.9087	2592.6739	7770.3	6878.5
986.0343	2593.9652	7748.25	6853.95
986.1597	2595.2557	7732.45	6839.35
986.2852	2596.5456	7718.75	6823.1
986.4106	2597.8348	7677.95	6786.65
986.536	2599.1234	7645.3	6753.2
986.6614	2600.4112	7612	6719.7
986.7867	2601.6983	7608.75	6715.3
986.912	2602.9848	7572.7	6681.1
987.0372	2604.2705	7527.9	6628.75
987.1624	2605.5556	7529.6	6638.55
987.2876	2606.84	7494.25	6602.75
987.4128	2608.1237	7462.75	6568.55
987.5379	2609.4067	7436.3	6542.7
987.6629	2610.689	7410.15	6510.25
987.788	2611.9707	7382.85	6487.55
987.913	2613.2516	7388.15	6491.25
988.0379	2614.5319	7340	6448.55
988.1629	2615.8115	7297.85	6405.3
988.2878	2617.0903	7266.05	6369.8
988.4126	2618.3685	7249.15	6353.85
988.5375	2619.6461	7230.5	6337.5
988.6622	2620.9229	7208	6313.65
988.787	2622.199	7188.6	6297.1
988.9117	2623.4745	7156.9	6262.3
989.0364	2624.7493	7123.35	6230.4
989.161	2626.0234	7094.25	6203.4
989.2857	2627.2968	7080.25	6187.25
989.4102	2628.5695	7028.05	6135.4
989.5348	2629.8415	7015.7	6122
989.6593	2631.1128	6991	6095.8
989.7837	2632.3835	6960.15	6069.15
989.9082	2633.6535	6922.85	6031.2
990.0326	2634.9228	6927.55	6037.9
990.1569	2636.1914	6903.25	6010.1
990.2812	2637.4593	6879.6	5983.4
990.4055	2638.7265	6830.25	5937.8
990.5298	2639.9931	6805.15	5913.3
990.654	2641.259	6794.15	5902.1
990.7782	2642.5242	6779.4	5886.1
990.9023	2643.7887	6756.7	5861.85
991.0264	2645.0525	6769.9	5877.55
991.1505	2646.3156	6728.45	5833.95
991.2745	2647.5781	6695.1	5804.1
991.3985	2648.8398	6676.5	5785.25
991.5225	2650.1009	6657.1	5755.8
991.6464	2651.3613	6613.5	5719.5
991.7703	2652.6211	6612.05	5719.5
991.8942	2653.8801	6576.15	5685.05
992.018	2655.1385	6582.4	5688.6
992.1418	2656.3961	6571.7	5678.95
992.2655	2657.6531	6538.3	5647.2
992.3892	2658.9094	6521.5	5630.4
992.5129	2660.1651	6491.65	5600.1
992.6366	2661.42	6463.9	5571.15
992.7602	2662.6743	6493.3	5598.4
992.8837	2663.9279	6467.4	5575
993.0073	2665.1808	6453.7	5559.7
993.1307	2666.433	6422.65	5528.55
993.2542	2667.6846	6409.7	5517.75
993.3776	2668.9354	6400.4	5504.15
993.501	2670.1856	6371.1	5477.75
993.6244	2671.4351	6347.2	5453.95
993.7477	2672.6839	6349.1	5456.35
993.8709	2673.9321	6313.65	5421.8
993.9942	2675.1795	6303.25	5409.45
994.1174	2676.4263	6289.9	5400.35
994.2405	2677.6724	6269	5376.75
994.3637	2678.9179	6259.05	5365.85
994.4868	2680.1626	6244.2	5353.1
994.6098	2681.4067	6232.9	5339.2
994.7328	2682.6501	6210.8	5319.15
994.8558	2683.8928	6184.8	5292.6
994.9788	2685.1348	6145	5252.7
995.1017	2686.3761	6142.05	5250.2
995.2245	2687.6168	6109.85	5215.55
995.3474	2688.8568	6077.4	5185.6
995.4702	2690.0961	6067.75	5177.45
995.5929	2691.3348	6047.55	5153.35
995.7156	2692.5727	6045.75	5153.15
995.8383	2693.81	6012.35	5119.7
995.961	2695.0466	6001.8	5112
996.0836	2696.2826	5978.05	5086.85
996.2062	2697.5178	5973.05	5079.65
996.3287	2698.7524	5926.05	5033.8
996.4512	2699.9863	5934.25	5038.5
996.5737	2701.2195	5907.75	5014.65
996.6961	2702.452	5880.6	4987.7
996.8185	2703.6839	5881.75	4988.2
996.9408	2704.9151	5859.55	4967.9
997.0631	2706.1456	5830.55	4938.55
997.1854	2707.3755	5829.75	4935.7
997.3077	2708.6046	5812.25	4918.3
997.4299	2709.8331	5817.15	4923.3
997.552	2711.0609	5787.75	4895.55
997.6742	2712.2881	5770.25	4877.6
997.7963	2713.5145	5784.9	4888.3
997.9183	2714.7403	5760.05	4869.05
998.0403	2715.9654	5737.75	4845.25
998.1623	2717.1899	5743.15	4836.5
998.2842	2718.4136	5731.05	4839.25
998.4062	2719.6367	5725.7	4833.15
998.528	2720.8591	5718.05	4819.1
998.6498	2722.0809	5694.7	4800.7
998.7716	2723.3019	5685.05	4789.9
998.8934	2724.5223	5678	4785.75
999.0151	2725.7421	5675.55	4781.6
999.1368	2726.9611	5645.9	4750.65
999.2584	2728.1795	5632.5	4734.15
999.38	2729.3972	5607.75	4714.05
999.5016	2730.6142	5591.45	4691.45
999.6231	2731.8306	5530.1	4637.3
999.7446	2733.0462	5510.7	4618.4
999.8661	2734.2612	5488.7	4592.2
999.9875	2735.4756	5445.45	4551.7
1000.1089	2736.6892	5397.6	4505.05
1000.2302	2737.9022	5395.25	4505.05
1000.3515	2739.1145	5349.75	4458.65
1000.4728	2740.3262	5319.25	4419.3
1000.594	2741.5372	5292.9	4400.15
1000.7152	2742.7475	5254	4359.35
1000.8363	2743.9571	5227.75	4333.35
1000.9575	2745.1661	5208.5	4313.7
1001.0785	2746.3744	5192.45	4298.95
1001.1996	2747.582	5176.95	4285.75
1001.3206	2748.7889	5146.85	4252.2
1001.4415	2749.9952	5135.9	4244.15
1001.5625	2751.2008	5119.35	4226.35
1001.6833	2752.4057	5109.7	4213.45
1001.8042	2753.61	5075.3	4181.8
1001.925	2754.8136	5044.25	4149.7
1002.0458	2756.0165	5042.15	4149.85
1002.1665	2757.2188	5034.8	4145.6
1002.2872	2758.4204	5003	4109.75
1002.4078	2759.6213	4988.1	4094.9
1002.5285	2760.8215	4985.45	4088.55
1002.649	2762.0211	4969.15	4073.6
1002.7696	2763.22	4937.8	4041.15
1002.8901	2764.4182	4940	4047.9
1003.0106	2765.6158	4925	4033.65
1003.131	2766.8127	4912.95	4021.2
1003.2514	2768.009	4869.05	3977.6
1003.3717	2769.2045	4853.65	3960.1
1003.492	2770.3994	4850.7	3954.65
1003.6123	2771.5936	4824.75	3932.3
1003.7325	2772.7872	4821.7	3931
1003.8527	2773.9801	4792.35	3898.8
1003.9729	2775.1723	4799.2	3891.3
1004.093	2776.3639	4759.6	3866.2
1004.2131	2777.5548	4758.2	3863.25
1004.3331	2778.745	4752.15	3858
1004.4531	2779.9346	4728.35	3834.45
1004.5731	2781.1235	4718.35	3824.2
1004.693	2782.3117	4707	3814.45
1004.8129	2783.4992	4694.55	3802.85
1004.9328	2784.6861	4668.3	3777.55
1005.0526	2785.8723	4661.7	3766.6
1005.1723	2787.0579	4674.65	3782.6
1005.2921	2788.2428	4666.9	3774.65
1005.4118	2789.427	4648.95	3756.75
1005.5314	2790.6106	4656.35	3765.45
1005.651	2791.7935	4651.7	3757.75
1005.7706	2792.9757	4632.3	3741.65
1005.8902	2794.1573	4611.4	3717.95
1006.0097	2795.3382	4628.15	3733.65
1006.1291	2796.5184	4625.15	3736.5
1006.2485	2797.698	4624.95	3730.85
1006.3679	2798.8769	4633.2	3741.3
1006.4873	2800.0551	4620.35	3728
1006.6066	2801.2327	4626.85	3730.85
1006.7258	2802.4096	4640.65	3749.65
1006.8451	2803.5859	4652.55	3759.05
1006.9642	2804.7615	4642.35	3750.15
1007.0834	2805.9364	4657.25	3768.4
1007.2025	2807.1106	4671.1	3778.1
1007.3216	2808.2842	4699.9	3807.85
1007.4406	2809.4572	4705.15	3813.25
1007.5596	2810.6294	4723.9	3833.65
1007.6785	2811.801	4760.85	3870.8
1007.7975	2812.972	4782.8	3890.6
1007.9163	2814.1423	4807.25	3914.45
1008.0352	2815.3119	4859.25	3966.3
1008.154	2816.4808	4904.35	4012.6
1008.2727	2817.6491	4937	4044.05
1008.3914	2818.8167	4963.3	4071.15
1008.5101	2819.9837	5014.8	4118.15
1008.6288	2821.15	5023.2	4131.75
1008.7474	2822.3157	5085.95	4194.5
1008.8659	2823.4807	5107.75	4215.95
1008.9844	2824.645	5152.6	4262
1009.1029	2825.8086	5176.25	4286.15
1009.2214	2826.9716	5195.7	4305.1
1009.3398	2828.134	5231.8	4341
1009.4581	2829.2957	5263.6	4371.3
1009.5764	2830.4567	5293.8	4401.1
1009.6947	2831.617	5293.1	4398.75
1009.813	2832.7767	5291.9	4400.8
1009.9312	2833.9358	5287.6	4398.55
1010.0493	2835.0941	5271.55	4378.9
1010.1675	2836.2519	5263	4371.25
1010.2855	2837.4089	5221.5	4328.85
1010.4036	2838.5653	5209.1	4315.1
1010.5216	2839.7211	5209.8	4317.4
1010.6396	2840.8761	5200.45	4309
1010.7575	2842.0306	5231.4	4342.2
1010.8754	2843.1843	5255.1	4363.55
1010.9932	2844.3374	5283.45	4392.55
1011.111	2845.4899	5339.2	4447.8
1011.2288	2846.6417	5394.4	4503.15
1011.3465	2847.7928	5477	4585.15
1011.4642	2848.9433	5547.05	4656.9
1011.5818	2850.0931	5606.75	4715.55
1011.6995	2851.2422	5704.8	4810.05
1011.817	2852.3907	5764.8	4872.15
1011.9345	2853.5385	5819.55	4926.35
1012.052	2854.6857	5873.3	4954.75
1012.1695	2855.8323	5891.95	4999.5
1012.2869	2856.9781	5926.25	5035.85
1012.4042	2858.1233	5965.95	5074.65
1012.5216	2859.2679	6008.8	5117.6
1012.6389	2860.4118	6041.45	5148.45
1012.7561	2861.555	6060.2	5164.25
1012.8733	2862.6976	6093.1	5198.4
1012.9905	2863.8395	6102.4	5211.95
1013.1076	2864.9808	6122.5	5230.5
1013.2247	2866.1214	6127.75	5235.9
1013.3417	2867.2614	6133	5243.5
1013.4587	2868.4007	6134.65	5242.05
1013.5757	2869.5393	6117.3	5222.7
1013.6926	2870.6773	6117.85	5223.35
1013.8095	2871.8146	6109.95	5217.1
1013.9263	2872.9513	6123.75	5229.4
1014.0431	2874.0874	6080.9	5187.65
1014.1599	2875.2227	6104.25	5213.4
1014.2766	2876.3574	6062.4	5171.7
1014.3933	2877.4915	6036.3	5143.55
1014.51	2878.6249	5986.95	5094.75
1014.6266	2879.7577	5942.1	5048.15
1014.7431	2880.8898	5932.05	5030.5
1014.8596	2882.0212	5885.1	4993.85
1014.9761	2883.152	5869.35	4975.95
1015.0925	2884.2821	5840.6	4950.7
1015.2089	2885.4116	5814.5	4922.95
1015.3253	2886.5405	5814.8	4924.9
1015.4416	2887.6686	5825.7	4931.05
1015.5579	2888.7962	5790.8	4898.15
1015.6741	2889.923	5795.3	4904.15
1015.7903	2891.0493	5806.1	4915.25
1015.9065	2892.1748	5810.85	4920.1
1016.0226	2893.2997	5811.3	4921.3
1016.1387	2894.424	5815.65	4925
1016.2547	2895.5476	5822.4	4930.8
1016.3707	2896.6706	5826.8	4934
1016.4866	2897.7929	5834	4942.35
1016.6025	2898.9145	5851.5	4957.75
1016.7184	2900.0355	5885.85	4992.7
1016.8342	2901.1559	5903.25	5011.35
1016.95	2902.2756	5914.7	5023.25
1017.0658	2903.3946	5936.95	5045.5
1017.1815	2904.513	5957.95	5064
1017.2971	2905.6308	5978.4	5085.7
1017.4127	2906.7479	5981.4	5089.3
1017.5283	2907.8643	6017.6	5125.15
1017.6439	2908.9801	6017.3	5124.45
1017.7594	2910.0953	6005	5113.65
1017.8748	2911.2098	5980.5	5085.85
1017.9902	2912.3236	5986.05	5088.15
1018.1056	2913.4368	5957.75	5062.15
1018.2209	2914.5494	5940.85	5048.75
1018.3362	2915.6613	5911.05	5014.5
1018.4515	2916.7725	5869.85	4973.35
1018.5667	2917.8831	5829.55	4935
1018.6819	2918.9931	5792.25	4898.25
1018.797	2920.1024	5762.95	4872.8
1018.9121	2921.211	5714.55	4823.05
1019.0271	2922.319	5705.1	4812.9
1019.1421	2923.4264	5681.2	4792.1
1019.2571	2924.5331	5655.5	4765
1019.372	2925.6391	5621.75	4731.15
1019.4869	2926.7445	5599.9	4710.2
1019.6017	2927.8493	5606.6	4715.2
1019.7165	2928.9534	5585.65	4693.55
1019.8313	2930.0569	5585.65	4691.8
1019.946	2931.1597	5556.8	4662.5
1020.0606	2932.2619	5529.05	4636.7
1020.1753	2933.3634	5520.8	4629
1020.2899	2934.4643	5534.45	4635.5
1020.4044	2935.5645	5484.4	4586.8
1020.5189	2936.6641	5460.2	4562.95
1020.6334	2937.763	5381.75	4491.1
1020.7478	2938.8613	5307.95	4415.9
1020.8622	2939.959	5266.35	4369.05
1020.9765	2941.056	5183.8	4294.25
1021.0908	2942.1523	5102.5	4210.1
1021.2051	2943.248	4994	4101.75
1021.3193	2944.3431	4885.65	3996.05
1021.4334	2945.4375	4765	3872.3
1021.5476	2946.5313	4674.3	3784.25
1021.6617	2947.6244	4557.4	3666
1021.7757	2948.7169	4462.7	3571.25
1021.8897	2949.8087	4350.45	3460.35
1022.0037	2950.8999	4237.65	3345.55
1022.1176	2951.9904	4154.8	3262.75
1022.2315	2953.0803	4075.4	3183.2
1022.3453	2954.1696	3995.95	3103.45
1022.4591	2955.2582	3935.4	3045.3
1022.5728	2956.3462	3869.3	2977.95
1022.6865	2957.4335	3833.85	2942.25
1022.8002	2958.5202	3774.9	2881.1
1022.9138	2959.6062	3745.1	2854.3
1023.0274	2960.6916	3712	2821.55
1023.141	2961.7764	3690.8	2796.4
1023.2545	2962.8605	3665.3	2773.35
1023.3679	2963.9439	3648.55	2757.9
1023.4813	2965.0267	3622.8	2730.25
1023.5947	2966.1089	3639.6	2724.15
1023.708	2967.1905	3618.1	2727
1023.8213	2968.2714	3593.05	2703.6
1023.9346	2969.3516	3572.2	2680.2
1024.0478	2970.4312	3580.7	2684.05
1024.1609	2971.5102	3560.2	2668.9
1024.274	2972.5885	3565.75	2674.25
1024.3871	2973.6662	3574.45	2677.2
1024.5002	2974.7432	3542.85	2651.9
1024.6132	2975.8196	3540.8	2649.15
1024.7261	2976.8954	3512.65	2622.15
1024.839	2977.9705	3493.5	2602.5
1024.9519	2979.045	3484.5	2593.5
1025.0647	2980.1188	3466.95	2574.95
1025.1775	2981.192	3428.15	2538.4
1025.2902	2982.2645	3392.8	2501.05
1025.4029	2983.3364	3354.65	2462
1025.5156	2984.4077	3320.8	2428.8
1025.6282	2985.4783	3298	2399.35
1025.7407	2986.5483	3252	2360.3
1025.8532	2987.6177	3216.25	2326.45
1025.9657	2988.6864	3179.35	2287.35
1026.0782	2989.7545	3146.85	2252.85
1026.1906	2990.8219	3095.6	2203.5
1026.3029	2991.8887	3058.7	2163.7
1026.4152	2992.9548	3028	2134.6
1026.5275	2994.0204	2995.9	2106.8
1026.6397	2995.0852	2957.15	2067.65
1026.7519	2996.1495	2923.45	2031.55
1026.864	2997.2131	2895.95	2004.5
1026.9761	2998.276	2860.95	1969.75
1027.0882	2999.3383	2858.4	1965.35
1027.2002	3000.4	2812.9	1920.2
1027.3122	3001.4611	2802.2	1911.7
1027.4241	3002.5215	2776.3	1882.9
1027.536	3003.5812	2738.25	1848.55
1027.6478	3004.6404	2748.9	1857.45
1027.7596	3005.6989	2731.9	1837.35
1027.8714	3006.7567	2719.7	1828.35
1027.9831	3007.8139	2727.5	1812.9
1028.0947	3008.8705	2684.75	1795.05
1028.2064	3009.9264	2681.15	1785.85
1028.3179	3010.9818	2660.65	1770.05
1028.4295	3012.0364	2659.7	1768.65
1028.541	3013.0905	2653.65	1764
1028.6524	3014.1439	2650.1	1759.85
1028.7638	3015.1966	2638.8	1747.85
1028.8752	3016.2487	2621.85	1730
1028.9865	3017.3002	2623.6	1728.8
1029.0978	3018.3511	2619.05	1728.75
1029.209	3019.4013	2616.75	1728.4
1029.3202	3020.4509	2611.35	1720.3
1029.4314	3021.4998	2603.85	1712.55
1029.5425	3022.5481	2594.1	1703.35
1029.6535	3023.5958	2597.6	1705
1029.7645	3024.6428	2594.95	1701.6
1029.8755	3025.6892	2582.95	1692.55
1029.9864	3026.735	2580.35	1689.45
1030.0973	3027.7802	2586.75	1694.2
1030.2082	3028.8247	2573.05	1682.85
1030.319	3029.8685	2571	1679.6
1030.4297	3030.9118	2568.9	1675.05
1030.5404	3031.9544	2562.7	1672.05
1030.6511	3032.9963	2563.35	1671
1030.7617	3034.0376	2567.6	1677.85
1030.8723	3035.0783	2572.1	1679.95
1030.9829	3036.1184	2572.35	1680.55
1031.0934	3037.1578	2555.35	1663
1031.2038	3038.1966	2558.85	1665.8
1031.3142	3039.2348	2548.7	1657.3
1031.4246	3040.2723	2555.2	1655.45
1031.5349	3041.3092	2540.8	1649.65
1031.6452	3042.3455	2528.15	1634.95
1031.7554	3043.3811	2523.35	1631.85
1031.8656	3044.4161	2508.3	1617.05
1031.9758	3045.4505	2508.35	1619.75
1032.0859	3046.4842	2495.65	1604.5
1032.1959	3047.5173	2480.95	1590.9
1032.3059	3048.5498	2479.4	1588.2
1032.4159	3049.5816	2464.75	1575.35
1032.5258	3050.6128	2458.5	1566.4
1032.6357	3051.6434	2459.2	1565.85
1032.7455	3052.6734	2425.75	1533.35
1032.8553	3053.7027	2415.45	1526.85
1032.9651	3054.7314	2411.9	1521.1
1033.0748	3055.7594	2398.45	1509.7
1033.1845	3056.7868	2395.05	1502.95
1033.2941	3057.8136	2373.6	1483.1
1033.4037	3058.8398	2371.9	1482.05
1033.5132	3059.8653	2355.65	1464.9
1033.6227	3060.8902	2341	1450.9
1033.7321	3061.9145	2328.35	1436.95
1033.8415	3062.9381	2322.25	1429.3
1033.9509	3063.9612	2317.45	1411.2
1034.0602	3064.9835	2305.3	1413
1034.1694	3066.0053	2295.2	1403.65
1034.2787	3067.0264	2286.5	1398.5
1034.3878	3068.0469	2266.65	1375.1
1034.497	3069.0668	2257.85	1364.9
1034.6061	3070.086	2246.9	1355.5
1034.7151	3071.1046	2242.25	1350.15
1034.8241	3072.1226	2237.05	1345.1
1034.9331	3073.1399	2212	1320.5
1035.042	3074.1567	2191.9	1301.6
1035.1508	3075.1727	2191.05	1298.5
1035.2597	3076.1882	2166.4	1276
1035.3684	3077.203	2150.75	1258.85
1035.4772	3078.2173	2147.25	1254.2
1035.5859	3079.2308	2138.45	1244.15
1035.6945	3080.2438	2122	1227.8
1035.8031	3081.2561	2102.95	1212.1
1035.9117	3082.2678	2105.45	1212.75
1036.0202	3083.2789	2104.3	1211.2
1036.1286	3084.2893	2082.7	1194.5
1036.2371	3085.2991	2082.15	1192.45
1036.3454	3086.3083	2059.1	1164.5
1036.4538	3087.3169	2050.5	1159.3
1036.562	3088.3248	2042.45	1149.7
1036.6703	3089.3321	2036.85	1143.7
1036.7785	3090.3388	2020.85	1130.25
1036.8866	3091.3449	2014.95	1123.45
1036.9948	3092.3503	2008.4	1115.65
1037.1028	3093.3551	1994.15	1103
1037.2108	3094.3593	2000.3	1111.25
1037.3188	3095.3629	2000.55	1109.3
1037.4267	3096.3658	1986.65	1094.95
1037.5346	3097.3681	1981.55	1091.75
1037.6425	3098.3698	1973.35	1081.7
1037.7503	3099.3708	1964.9	1068.9
1037.858	3100.3713	1947.75	1057.6
1037.9657	3101.3711	1942.5	1051.45
1038.0734	3102.3702	2063.4	1041
1038.181	3103.3688	1946.55	1055.85
1038.2886	3104.3667	1925.9	1037.15
1038.3961	3105.364	1920.6	1029.4
1038.5036	3106.3607	1920	1027.95
1038.611	3107.3568	1909.55	1017.6
1038.7184	3108.3522	1890.8	999.55
1038.8257	3109.347	1883.9	991.5
1038.933	3110.3412	1882.6	989.85
1039.0403	3111.3348	1880.4	989.75
1039.1475	3112.3277	1879.2	988.6
1039.2547	3113.32	1867	977.75
1039.3618	3114.3117	1866.75	975.6
1039.4689	3115.3028	1857.2	967.2
1039.5759	3116.2932	1855.05	963.15
1039.6829	3117.2831	1855.9	960.95
1039.7898	3118.2723	1834.55	943.15
1039.8967	3119.2608	1832.3	943.15
1040.0035	3120.2488	1832.1	942.25
1040.1103	3121.2361	1829.4	938.65
1040.2171	3122.2229	1817.75	926.25
1040.3238	3123.209	1813.95	923.1
1040.4305	3124.1944	1809.45	918.9
1040.5371	3125.1793	1795.85	903.95
1040.6437	3126.1635	1796.5	907
1040.7502	3127.1471	1801	911.75
1040.8567	3128.1301	1784.3	891.7
1040.9631	3129.1125	1781.35	891.75
1041.0695	3130.0942	1771	881.45
1041.1759	3131.0753	1782.55	881.2
1041.2822	3132.0558	1771.2	878.85
1041.3884	3133.0357	1763.1	871.45
1041.4946	3134.015	1766.15	875.45
1041.6008	3134.9936	1760.7	869.4
1041.7069	3135.9716	1777.05	865.5
1041.813	3136.949	1753	861.85
1041.919	3137.9258	1751.9	855.5
1042.025	3138.902	1743.35	845.8
1042.1309	3139.8775	1744.65	853.95
1042.2368	3140.8524	1737.65	847.7
1042.3427	3141.8267	1732	839.6
1042.4485	3142.8004	1723.3	832.65
1042.5542	3143.7735	1729	831.75
1042.6599	3144.7459	1721.3	828.2
1042.7656	3145.7178	1716.95	826.95
1042.8712	3146.689	1707.05	817.65
1042.9768	3147.6596	1698.45	808.1
1043.0823	3148.6295	1697.4	806.7
1043.1878	3149.5989	1692.4	802.15
1043.2932	3150.5676	1690.7	800.95
1043.3986	3151.5357	1679.95	790
1043.5039	3152.5032	1682.1	792.45
1043.6092	3153.4701	1683.15	792.8
1043.7145	3154.4364	1676.4	783.35
1043.8197	3155.402	1679.25	787.1
1043.9248	3156.367	1657.05	764.7
1044.03	3157.3315	1694.5	760.65
1044.135	3158.2952	1654.35	764.3
1044.24	3159.2584	1659.65	771.35
1044.345	3160.221	1639.75	750.7
1044.4499	3161.1829	1634.05	743.05
1044.5548	3162.1442	1637.3	747.2
1044.6596	3163.105	1625.15	733.25
1044.7644	3164.065	1626.7	735.55
1044.8692	3165.0245	1622.85	727.75
1044.9739	3165.9834	1619.45	731.2
1045.0785	3166.9416	1615.65	727.1
1045.1831	3167.8993	1609.5	718.5
1045.2877	3168.8563	1602.35	711.9
1045.3922	3169.8127	1605.2	714.5
1045.4966	3170.7684	1602.15	712.65
1045.6011	3171.7236	1595.4	704.7
1045.7054	3172.6782	1588.9	697.85
1045.8098	3173.6321	1589.3	700.3
1045.914	3174.5854	1589	692.75
1046.0183	3175.5381	1576.7	685.3
1046.1224	3176.4902	1578.7	689.3
1046.2266	3177.4417	1570.75	680.45
1046.3307	3178.3926	1570.15	682.45
1046.4347	3179.3428	1566.3	677.65
1046.5387	3180.2924	1556.9	665.65
1046.6427	3181.2415	1558.05	666.4
1046.7466	3182.1899	1554.95	662.7
1046.8504	3183.1377	1554.65	664.05
1046.9542	3184.0848	1547.95	653.95
1047.058	3185.0314	1540.15	648.85
1047.1617	3185.9773	1538.05	646.85
1047.2654	3186.9227	1536.9	647.6
1047.369	3187.8674	1529.8	640.1
1047.4726	3188.8115	1530.2	637.55
1047.5761	3189.755	1527.05	637.55
1047.6796	3190.6979	1522.15	631.75
1047.783	3191.6402	1518.65	629.4
1047.8864	3192.5818	1509.25	619.25
1047.9898	3193.5229	1514.1	613.2
1048.0931	3194.4633	1512.35	620.15
1048.1963	3195.4031	1506.2	615.85
1048.2995	3196.3423	1506.45	617.05
1048.4027	3197.2809	1502.85	611.95
1048.5058	3198.2189	1498.35	606.85
1048.6089	3199.1563	1495.75	600.15
1048.7119	3200.0931	1486.5	597.95
1048.8148	3201.0292	1483.3	593.15
1048.9178	3201.9648	1492.8	600.85
1049.0206	3202.8997	1483.4	590.6
1049.1235	3203.834	1475.85	585.3
1049.2262	3204.7677	1477.25	586.75
1049.329	3205.7008	1476.95	584.25
1049.4317	3206.6333	1468.65	579.45
1049.5343	3207.5652	1470	576.45
1049.6369	3208.4964	1466.55	576.45
1049.7394	3209.4271	1454.95	565.85
1049.8419	3210.3571	1460.55	571.55
1049.9444	3211.2865	1457.4	566.8
1050.0468	3212.2154	1451.9	561.6
1050.1491	3213.1436	1459.55	566.65
1050.2514	3214.0712	1456.8	560.05
1050.3537	3214.9982	1445.55	555.4
1050.4559	3215.9246	1439.2	548.15
1050.5581	3216.8503	1438.7	550.7
1050.6602	3217.7755	1429	539.3
1050.7623	3218.7001	1431.1	540.35
1050.8643	3219.624	1432.65	541.9
1050.9663	3220.5473	1427.2	533.45
1051.0682	3221.4701	1430.1	539.7
1051.1701	3222.3922	1424.8	533.1
1051.2719	3223.3137	1418.25	527.3
1051.3737	3224.2346	1413.5	522.9
1051.4754	3225.1549	1411.7	522.45
1051.5771	3226.0746	1406.7	519.1
1051.6788	3226.9937	1407.9	517
1051.7804	3227.9121	1400.35	511.45
1051.8819	3228.83	1400.05	510
1051.9834	3229.7473	1404.25	514.2
1052.0849	3230.6639	1393.25	501.15
1052.1863	3231.5799	1387.65	497.35
1052.2876	3232.4954	1390.45	500
1052.3889	3233.4102	1389.35	499.75
1052.4902	3234.3244	1390.15	498.4
1052.5914	3235.238	1384	493.7
1052.6926	3236.151	1399.5	484.95
1052.7937	3237.0634	1376.5	487.55
1052.8948	3237.9752	1372.65	484.9
1052.9958	3238.8864	1368.85	478.7
1053.0968	3239.797	1368.7	479.6
1053.1977	3240.7069	1374.65	484.1
1053.2986	3241.6163	1363.75	471.1
1053.3994	3242.5251	1361.6	472
1053.5002	3243.4332	1354.95	464.5
1053.6009	3244.3408	1357.8	467.35
1053.7016	3245.2477	1353.05	462.65
1053.8022	3246.154	1344.6	453.25
1053.9028	3247.0598	1345.65	455.3
1054.0034	3247.9649	1341.15	450.65
1054.1039	3248.8694	1340.25	450.3
1054.2043	3249.7733	1334	444
1054.3047	3250.6766	1335.2	445.1
1054.4051	3251.5793	1329.1	439.1
1054.5054	3252.4814	1329	438.9
1054.6056	3253.3829	1324.7	436.15
1054.7058	3254.2838	1322.35	433.2
1054.806	3255.1841	1321.9	431.55
1054.9061	3256.0838	1318.35	427.8
1055.0061	3256.9829	1309.05	419.4
1055.1062	3257.8814	1308.3	416.5
1055.2061	3258.7792	1309.9	417.3
1055.306	3259.6765	1299.75	409.35
1055.4059	3260.5731	1296.85	407.95
1055.5057	3261.4692	1293.5	402.4
1055.6055	3262.3647	1288.9	398.7
1055.7052	3263.2595	1280.95	391.05
1055.8049	3264.1538	1278.7	389.55
1055.9045	3265.0474	1271.95	380.5
1056.0041	3265.9404	1268.95	378.8
1056.1036	3266.8329	1257.45	368.3
1056.2031	3267.7247	1265.5	365.25
1056.3025	3268.616	1242.45	351.65
1056.4019	3269.5066	1237.75	347.55
1056.5013	3270.3966	1222.4	330.85
1056.6005	3271.286	1213.2	324.8
