Software Version:	3.9.2.0
Unit SN:	10000200
Spectrometer SN:	6960
Date:	3/6/2024 10:55:43 AM
Data Line Index:	25
Spectral Points:	2048
Integration time (ms):	125
Averages:	20
Delay (ms):	30
Sequence Number:	1
Processing:	dark subtract
Laser Power (mW):	305
Laser Current (mA):	822
Laser Diode Temp (C):	25.1
Laser Case Temp (C):	27.9
System Temp (C):	27.7
Spectrometer Temp (C):	25.2
CCD Temp (C):	-0.002
Secondary Temp (C):	20
Heatsink Temp (C):	23.581
CCDPCB Temp (C):	37.041
SecondaryPCB Temp (C):	34.584

Wavelength	RamanShift	Raw Counts	Dark Subtracted
787.061	30.1047	1104.8	689.85
787.2016	32.3739	1130.65	717.45
787.3422	34.6426	1177.8	763.85
787.4828	36.9109	1220.7	805.85
787.6235	39.1787	1281.9	861.05
787.7642	41.4461	1344.95	921.4
787.9049	43.7131	1398.85	971.55
788.0456	45.9796	1469	1038.5
788.1863	48.2456	1521.6	1087.6
788.3271	50.5112	1602.2	1163.45
788.4679	52.7764	1658.8	1218.1
788.6087	55.0411	1736.3	1292.95
788.7496	57.3054	1820.15	1369.55
788.8904	59.5692	1910.65	1458.15
789.0313	61.8326	2008.95	1552.6
789.1722	64.0955	2109.9	1650.5
789.3132	66.3579	2239.5	1774.5
789.4541	68.6199	2386.3	1918.55
789.5951	70.8815	2622.7	2151.05
789.7361	73.1426	3112.85	2635.85
789.8771	75.4032	4370.65	3888.7
790.0181	77.6634	7526.05	7039.2
790.1592	79.9231	15689.95	15201.4
790.3003	82.1824	51132.2	50633
790.4414	84.4412	65535	65018.6
790.5825	86.6995	65535	64994.75
790.7237	88.9574	65535	64974.05
790.8648	91.2148	65535	64959.6
791.006	93.4717	65535	64945.55
791.1472	95.7282	65535	64940.95
791.2885	97.9842	65535	64940.3
791.4297	100.2398	65535	64936.6
791.571	102.4949	65535	64931.6
791.7123	104.7495	65535	64926.6
791.8536	107.0036	65535	64929.1
791.9949	109.2573	65535	64929.25
792.1363	111.5105	65535	64927.2
792.2777	113.7632	65535	64925.15
792.4191	116.0154	65535	64912.45
792.5605	118.2672	65535	64922.65
792.7019	120.5185	65535	64919.65
792.8434	122.7693	65535	64918.3
792.9849	125.0197	65535	64913.3
793.1264	127.2696	65535	64909.3
793.2679	129.519	65535	64907.05
793.4094	131.7679	65535	64902.95
793.551	134.0163	65535	64901.85
793.6926	136.2642	65535	64897.3
793.8342	138.5117	65535	64883.55
793.9758	140.7587	65535	64896.45
794.1175	143.0052	65535	64890.85
794.2591	145.2512	65535	64892.9
794.4008	147.4967	65535	64889.95
794.5425	149.7417	65535	64886.3
794.6842	151.9863	65535	64880
794.826	154.2304	65535	64878.15
794.9677	156.4739	65535	64872.1
795.1095	158.717	65535	64876.95
795.2513	160.9596	65535	64868.6
795.3931	163.2017	65535	64865.6
795.535	165.4433	65535	64865.15
795.6768	167.6844	65535	64861.95
795.8187	169.925	65535	64858.75
795.9606	172.1651	65535	64859.85
796.1025	174.4047	65535	64857.95
796.2445	176.6439	65535	64854.2
796.3864	178.8825	65535	64850.65
796.5284	181.1206	65535	64847.25
796.6704	183.3582	65535	64843.15
796.8124	185.5954	65535	64837.7
796.9544	187.832	65535	64836.9
797.0965	190.0681	65535	64834
797.2386	192.3037	65535	64827.3
797.3806	194.5388	65535	64829.55
797.5228	196.7734	65535	64825.45
797.6649	199.0075	65535	64824.95
797.807	201.2411	65535	64819.2
797.9492	203.4742	65535	64824.9
798.0914	205.7068	65535	64821.05
798.2336	207.9389	65535	64817.1
798.3758	210.1704	65535	64814.45
798.518	212.4015	65535	64815.55
798.6603	214.632	65535	64819.6
798.8025	216.862	65535	64829.65
798.9448	219.0915	65535	64835.25
799.0871	221.3205	65535	64832.8
799.2294	223.549	65535	64833.4
799.3718	225.777	65535	64832.75
799.5141	228.0044	65535	64831.25
799.6565	230.2314	65535	64834.4
799.7989	232.4578	65535	64832.05
799.9413	234.6837	65535	64821.4
800.0837	236.909	65535	64822.75
800.2262	239.1339	65535	64795.3
800.3687	241.3582	65535	64811.55
800.5111	243.582	65535	64778.5
800.6536	245.8053	65535	64790.35
800.7961	248.0281	65535	64796.7
800.9387	250.2503	65535	64793.3
801.0812	252.472	65535	64788.2
801.2238	254.6932	65535	64785
801.3664	256.9139	65535	64789.15
801.509	259.134	65535	64783.95
801.6516	261.3536	65535	64784.4
801.7942	263.5727	65535	64780.55
801.9369	265.7912	65535	64786.4
802.0795	268.0092	65535	64782.45
802.2222	270.2267	65535	64780.25
802.3649	272.4436	65535	64780.25
802.5076	274.6601	65535	64775.9
802.6504	276.8759	65535	64778.15
802.7931	279.0913	65535	64773.7
802.9359	281.3061	65535	64772.6
803.0787	283.5204	65535	64771.95
803.2215	285.7341	65535	64769.3
803.3643	287.9473	65535	64757.2
803.5071	290.16	65535	64758.6
803.6499	292.3721	65535	64769.55
803.7928	294.5837	65535	64767.55
803.9357	296.7947	65535	64769.05
804.0786	299.0052	65535	64764.85
804.2215	301.2152	65535	64764.4
804.3644	303.4246	65535	64768.05
804.5074	305.6334	65535	64767.15
804.6503	307.8418	65535	64763.75
804.7933	310.0495	65535	64761.4
804.9363	312.2568	65535	64765.75
805.0793	314.4635	65535	64762.2
805.2223	316.6696	65535	64758.7
805.3653	318.8752	65535	64751.2
805.5084	321.0802	65535	64759.55
805.6514	323.2847	65535	64753.6
805.7945	325.4887	65535	64755.9
805.9376	327.692	65535	64753.6
806.0807	329.8949	65535	64751.5
806.2238	332.0972	65535	64749.8
806.367	334.2989	65535	64748.7
806.5101	336.5001	65535	64749.5
806.6533	338.7007	65535	64745
806.7965	340.9008	65535	64747.9
806.9397	343.1003	65535	64741.2
807.0829	345.2992	65535	64743.4
807.2261	347.4976	65535	64742.85
807.3693	349.6955	65535	64738.15
807.5126	351.8927	65535	64735.05
807.6559	354.0895	65535	64726.15
807.7991	356.2856	65535	64734.3
807.9424	358.4812	65535	64736.55
808.0857	360.6763	65535	64736.2
808.2291	362.8707	65535	64734.6
808.3724	365.0646	65535	64730
808.5158	367.258	65535	64727.85
808.6591	369.4508	65535	64722.5
808.8025	371.643	65535	64724.85
808.9459	373.8346	65535	64723.5
809.0893	376.0257	65535	64717.8
809.2327	378.2162	65535	64716.65
809.3762	380.4062	65535	64714.8
809.5196	382.5956	65535	64714.75
809.6631	384.7844	65535	64719.2
809.8066	386.9726	65535	64717.65
809.9501	389.1603	65535	64719.2
810.0936	391.3474	65535	64680.5
810.2371	393.5339	65535	64724
810.3806	395.7199	65535	64726.6
810.5241	397.9052	65535	64726.25
810.6677	400.09	65535	64727.4
810.8113	402.2743	65535	64727.9
810.9548	404.4579	65535	64724.75
811.0984	406.641	65535	64724.25
811.2421	408.8235	65535	64722.3
811.3857	411.0054	65535	64721.4
811.5293	413.1868	65535	64719.85
811.673	415.3675	65535	64714.8
811.8166	417.5477	65535	64716
811.9603	419.7273	65535	64709.5
812.104	421.9064	65535	64705.05
812.2477	424.0848	65535	64711.55
812.3914	426.2627	65535	64707.65
812.5351	428.4399	65535	64706.55
812.6788	430.6166	65535	64704.6
812.8226	432.7928	65535	64702.7
812.9663	434.9683	65535	64704.2
813.1101	437.1432	65535	64698.3
813.2539	439.3176	65535	64701.4
813.3977	441.4914	65535	64701.85
813.5415	443.6645	65535	64699.2
813.6853	445.8371	65535	64700.7
813.8291	448.0091	65535	64698.95
813.973	450.1806	65535	64702.65
814.1168	452.3514	65535	64698.25
814.2607	454.5216	65535	64688.3
814.4046	456.6913	65535	64696.65
814.5485	458.8603	65535	64698.05
814.6924	461.0288	65535	64698.25
814.8363	463.1967	65535	64698.55
814.9802	465.3639	65535	64696.05
815.1241	467.5306	65535	64692.95
815.2681	469.6967	65535	64694.15
815.412	471.8622	65535	64695.75
815.556	474.0271	65535	64692.2
815.7	476.1914	65535	64690.75
815.844	478.3551	65535	64694.05
815.988	480.5182	65535	64694.85
816.132	482.6807	65535	64693.1
816.276	484.8426	65535	64693.35
816.4201	487.0039	65535	64693.6
816.5641	489.1647	65535	64689.85
816.7082	491.3248	65535	64689.7
816.8522	493.4843	65535	64690.35
816.9963	495.6432	65535	64687.9
817.1404	497.8015	65535	64690.15
817.2845	499.9592	65535	64689.7
817.4286	502.1163	65535	64686.1
817.5727	504.2728	65535	64685.65
817.7168	506.4287	65535	64687.4
817.861	508.5839	65535	64686.45
818.0051	510.7386	65535	64687.6
818.1493	512.8927	65535	64683.8
818.2935	515.0461	65535	64684.8
818.4377	517.199	65535	64685.35
818.5818	519.3512	65535	64684.2
818.726	521.5029	65535	64679.85
818.8703	523.6539	65535	64681.4
819.0145	525.8043	65535	64680.3
819.1587	527.9541	65535	64676.65
819.303	530.1033	65535	64679.2
819.4472	532.2519	65535	64679.45
819.5915	534.3999	65535	64676.85
819.7357	536.5472	65535	64676.8
819.88	538.694	65535	64682.5
820.0243	540.8401	65535	64679.1
820.1686	542.9856	65535	64672.8
820.3129	545.1305	65535	64671.75
820.4572	547.2748	65535	64675.5
820.6016	549.4185	65535	64675.55
820.7459	551.5615	65535	64673.75
820.8902	553.704	65535	64675.6
821.0346	555.8458	65535	64675.45
821.1789	557.987	65535	64676.35
821.3233	560.1276	65535	64674.85
821.4677	562.2675	65535	64674.65
821.6121	564.4069	65535	64675.3
821.7565	566.5456	65535	64676.4
821.9009	568.6837	65535	64675.35
822.0453	570.8212	65535	64675.6
822.1897	572.958	65535	64676.65
822.3342	575.0942	65535	64677.65
822.4786	577.2299	65535	64676.35
822.6231	579.3648	65535	64673.8
822.7675	581.4992	65535	64675.15
822.912	583.6329	65535	64675.75
823.0565	585.766	65535	64675.05
823.201	587.8985	65535	64675.8
823.3454	590.0304	65535	64648.75
823.4899	592.1616	65535	64667.65
823.6345	594.2922	65535	64671.35
823.779	596.4222	65535	64670.25
823.9235	598.5515	65535	64671.25
824.068	600.6802	65535	64666.6
824.2126	602.8083	65535	64668.4
824.3571	604.9358	65535	64669.25
824.5017	607.0626	65535	64667.6
824.6462	609.1888	65535	64665.4
824.7908	611.3144	65535	64663.6
824.9354	613.4393	65535	64664.45
825.08	615.5636	65535	64665.65
825.2246	617.6873	65535	64665.45
825.3692	619.8103	65535	64667.45
825.5138	621.9327	65535	64663.6
825.6584	624.0544	65535	64666.3
825.803	626.1756	65535	64664.55
825.9477	628.2961	65535	64666.35
826.0923	630.4159	65535	64663.85
826.237	632.5351	65535	64665.05
826.3816	634.6537	65535	64663.55
826.5263	636.7716	65535	64659.15
826.6709	638.8889	65535	64662.7
826.8156	641.0056	65535	64663.2
826.9603	643.1216	65535	64660.6
827.105	645.237	65535	64660.5
827.2497	647.3518	65535	64663.3
827.3944	649.4659	65535	64661.65
827.5391	651.5793	65535	64659.3
827.6838	653.6922	65535	64661.05
827.8285	655.8043	65535	64661.65
827.9733	657.9159	65535	64661
828.118	660.0268	65535	64655.9
828.2627	662.137	65535	64657.75
828.4075	664.2466	65535	64658.45
828.5522	666.3556	65535	64660.05
828.697	668.4639	65535	64654.9
828.8418	670.5716	65535	64659.2
828.9865	672.6786	65535	64657.5
829.1313	674.785	65535	64654.5
829.2761	676.8907	65535	64658.2
829.4209	678.9958	65535	64657.7
829.5657	681.1002	65535	64656.3
829.7105	683.204	65535	64654.3
829.8553	685.3072	65535	64654.9
830.0001	687.4097	65535	64655.2
830.1449	689.5115	65535	64656.85
830.2898	691.6127	65535	64658.65
830.4346	693.7132	65535	64655.1
830.5794	695.8131	65535	64641.55
830.7243	697.9123	65535	64652.8
830.8691	700.0109	65535	64652.15
831.014	702.1089	65535	64653.95
831.1588	704.2061	65535	64652.75
831.3037	706.3028	65535	64651.05
831.4486	708.3987	65535	64653.85
831.5935	710.4941	65535	64655.15
831.7383	712.5887	65535	64653.45
831.8832	714.6827	65535	64650.4
832.0281	716.7761	65535	64655.2
832.173	718.8688	65535	64649.35
832.3179	720.9608	65535	64647.8
832.4628	723.0522	65535	64643.5
832.6077	725.1429	65535	64649.3
832.7527	727.233	65535	64648.5
832.8976	729.3224	65535	64651.05
833.0425	731.4112	65535	64648.75
833.1874	733.4993	65535	64647.95
833.3324	735.5867	65535	64647.5
833.4773	737.6735	65535	64646.6
833.6222	739.7596	65535	64649
833.7672	741.845	65535	64652.2
833.9122	743.9298	65535	64646.7
834.0571	746.014	65535	64647.9
834.2021	748.0974	65535	64646.65
834.347	750.1802	65535	64646.45
834.492	752.2624	65535	64647.85
834.637	754.3439	65535	64646.85
834.782	756.4247	65535	64639.1
834.9269	758.5048	65535	64646.25
835.0719	760.5843	65535	64645.5
835.2169	762.6631	65535	64647.45
835.3619	764.7413	65535	64648.05
835.5069	766.8188	65535	64645.55
835.6519	768.8956	65535	64648.35
835.7969	770.9718	65535	64649.75
835.9419	773.0473	65535	64647.95
836.0869	775.1221	65535	64646.75
836.232	777.1962	65535	64646.9
836.377	779.2697	65535	64644.55
836.522	781.3426	65535	64626.75
836.667	783.4147	65535	64645.9
836.8121	785.4862	65535	64649.1
836.9571	787.557	65535	64645.6
837.1021	789.6271	65535	64646.15
837.2472	791.6966	65535	64644.6
837.3922	793.7654	65535	64644.05
837.5373	795.8335	65535	64644.25
837.6823	797.901	65535	64646.65
837.8274	799.9678	65535	64645.45
837.9724	802.0339	65535	64645.65
838.1175	804.0993	65535	64634.6
838.2626	806.1641	65535	64643.8
838.4076	808.2282	65535	64645.5
838.5527	810.2916	65535	64642.25
838.6978	812.3544	65535	64646.85
838.8428	814.4164	65535	64645.9
838.9879	816.4778	65535	64641.35
839.133	818.5385	65535	64646.3
839.2781	820.5986	65535	64644.25
839.4232	822.658	65535	64644.5
839.5682	824.7166	65535	64644
839.7133	826.7747	65535	64642.1
839.8584	828.832	65535	64642.65
840.0035	830.8886	65535	64642.05
840.1486	832.9446	65535	64643
840.2937	834.9999	65535	64643.05
840.4388	837.0545	65535	64639.95
840.5839	839.1085	65535	64642.7
840.729	841.1618	65535	64638.6
840.8741	843.2143	65535	64641.25
841.0192	845.2662	65535	64643.75
841.1643	847.3175	65535	64643.85
841.3095	849.368	65535	64643.95
841.4546	851.4179	65535	64642.1
841.5997	853.467	65535	64641.45
841.7448	855.5155	65535	64644
841.8899	857.5633	65535	64642.65
842.0351	859.6105	65535	64642.35
842.1802	861.6569	65535	64642.5
842.3253	863.7027	65535	64639.35
842.4704	865.7478	65535	64640.35
842.6156	867.7922	65535	64641.55
842.7607	869.8359	65535	64639.5
842.9058	871.8789	65535	64640.55
843.0509	873.9212	65535	64607.35
843.1961	875.9629	65535	64639.65
843.3412	878.0039	65535	64641.5
843.4863	880.0441	65535	64643.4
843.6315	882.0837	65535	64640.65
843.7766	884.1226	65535	64638.1
843.9218	886.1609	65535	64641
844.0669	888.1984	65535	64640.45
844.212	890.2352	65535	64641.4
844.3572	892.2714	65535	64635.85
844.5023	894.3069	65535	64638.25
844.6475	896.3416	65535	64639.25
844.7926	898.3757	65535	64637.25
844.9377	900.4091	65535	64640.35
845.0829	902.4418	65535	64634.95
845.228	904.4739	65535	64637.6
845.3732	906.5052	65535	64638.8
845.5183	908.5358	65535	64639.5
845.6635	910.5658	65535	64638.45
845.8086	912.595	65535	64638.1
845.9538	914.6236	65535	64640.4
846.0989	916.6515	65535	64638.95
846.2441	918.6786	65535	64634.95
846.3892	920.7051	65535	64635.65
846.5344	922.7309	65535	64638.5
846.6795	924.756	65535	64640.4
846.8246	926.7804	65535	64638.05
846.9698	928.8041	65535	64631.45
847.1149	930.8272	65535	64639.6
847.2601	932.8495	65535	64636.2
847.4052	934.8711	65535	64635.85
847.5504	936.892	65535	64639.15
847.6955	938.9123	65535	64635
847.8407	940.9318	65535	64637.95
847.9858	942.9506	65535	64639.2
848.131	944.9688	65535	64638.75
848.2761	946.9862	65535	64637.85
848.4213	949.003	65535	64638
848.5664	951.019	65535	64634.8
848.7115	953.0344	65535	64636
848.8567	955.0491	65535	64636.5
849.0018	957.063	65535	64635.25
849.147	959.0763	65535	64636.9
849.2921	961.0888	65535	64633.4
849.4373	963.1007	65535	64638.4
849.5824	965.1119	65535	64640.7
849.7275	967.1223	65535	64637.7
849.8727	969.1321	65535	64636.55
850.0178	971.1412	65535	64636.55
850.1629	973.1495	65535	64637.95
850.3081	975.1572	65535	64602.5
850.4532	977.1641	65535	64635.4
850.5983	979.1704	65535	64639.2
850.7435	981.1759	65535	64633.65
850.8886	983.1808	65535	64635.15
851.0337	985.1849	65535	64626.8
851.1788	987.1884	65535	64633.55
851.324	989.1911	65535	64636.5
851.4691	991.1932	65535	64636.35
851.6142	993.1945	65535	64638
851.7593	995.1951	65535	64638.6
851.9045	997.1951	65535	64629.4
852.0496	999.1943	65535	64637.8
852.1947	1001.1928	65535	64636.65
852.3398	1003.1906	65535	64636.65
852.4849	1005.1877	65535	64636.55
852.63	1007.1841	65535	64637.3
852.7751	1009.1798	65535	64640.85
852.9202	1011.1748	65535	64635.85
853.0653	1013.1691	65535	64636.3
853.2104	1015.1627	65535	64638
853.3555	1017.1556	65535	64634.6
853.5006	1019.1477	65535	64635.1
853.6457	1021.1392	65535	64639.65
853.7908	1023.1299	65535	64639.15
853.9359	1025.12	65535	64637.7
854.081	1027.1093	65535	64639.8
854.2261	1029.0979	65535	64641.2
854.3712	1031.0859	65535	64639.7
854.5163	1033.0731	65535	64635.6
854.6613	1035.0596	65535	64639.95
854.8064	1037.0454	65535	64637.45
854.9515	1039.0304	65535	64635.95
855.0965	1041.0148	65535	64637.15
855.2416	1042.9985	65535	64634.95
855.3867	1044.9814	65535	64637.65
855.5317	1046.9636	65535	64634.65
855.6768	1048.9452	65535	64636.3
855.8219	1050.926	65535	64637.25
855.9669	1052.9061	65535	64635.9
856.112	1054.8855	65535	64634.85
856.257	1056.8642	65535	64636
856.4021	1058.8421	65535	64632.95
856.5471	1060.8194	65535	64636.9
856.6921	1062.7959	65535	64635.5
856.8372	1064.7717	65535	64634.7
856.9822	1066.7469	65535	64633.5
857.1272	1068.7213	65535	64633.75
857.2723	1070.695	65535	64635.9
857.4173	1072.6679	65535	64635.35
857.5623	1074.6402	65535	64635.4
857.7073	1076.6117	65535	64632.25
857.8523	1078.5826	65535	64635.7
857.9973	1080.5527	65535	64633.35
858.1423	1082.5221	65535	64634.7
858.2873	1084.4908	65535	64636.5
858.4323	1086.4587	65535	64634.25
858.5773	1088.426	65535	64632.85
858.7223	1090.3925	65535	64628.85
858.8673	1092.3584	65535	64637
859.0123	1094.3235	65535	64636.2
859.1573	1096.2879	65535	64635.4
859.3022	1098.2515	65535	64633.35
859.4472	1100.2145	65535	64636.5
859.5922	1102.1767	65535	64634.4
859.7371	1104.1382	65535	64637.7
859.8821	1106.099	65535	64633.85
860.027	1108.0591	65535	64636.6
860.172	1110.0185	65535	64634.85
860.3169	1111.9771	65535	64637
860.4619	1113.9351	65535	64636.15
860.6068	1115.8923	65535	64634.2
860.7517	1117.8488	65535	64631
860.8967	1119.8045	65535	64636.25
861.0416	1121.7596	65535	64637.3
861.1865	1123.7139	65535	64637.1
861.3314	1125.6675	65535	64635.1
861.4763	1127.6204	65535	64636.3
861.6212	1129.5726	65535	64633.7
861.7661	1131.524	65535	64637.15
861.911	1133.4748	65535	64636.15
862.0559	1135.4248	65535	64634.15
862.2008	1137.3741	65535	64633.25
862.3457	1139.3226	65535	64634.4
862.4905	1141.2705	65535	64635.35
862.6354	1143.2176	65535	64628.65
862.7803	1145.164	65535	64632.65
862.9251	1147.1097	65535	64636.95
863.07	1149.0546	65535	64631.7
863.2148	1150.9989	65535	64635.85
863.3597	1152.9424	65535	64638.65
863.5045	1154.8852	65535	64634.95
863.6493	1156.8272	65535	64635.15
863.7942	1158.7686	65535	64625.65
863.939	1160.7092	65535	64634.05
864.0838	1162.6491	65535	64634.65
864.2286	1164.5883	65535	64635.05
864.3734	1166.5267	65535	64633.2
864.5182	1168.4644	65535	64634.45
864.663	1170.4014	65535	64632.25
864.8078	1172.3377	65535	64637.15
864.9526	1174.2732	65535	64635.35
865.0974	1176.2081	65535	64636.25
865.2421	1178.1421	65535	64630
865.3869	1180.0755	65535	64633.7
865.5317	1182.0082	65535	64636.5
865.6764	1183.9401	65535	64632.25
865.8212	1185.8713	65535	64637.95
865.9659	1187.8017	65535	64638.75
866.1106	1189.7315	65535	64637.85
866.2554	1191.6605	65535	64610.85
866.4001	1193.5888	65535	64638.7
866.5448	1195.5163	65535	64636.6
866.6895	1197.4432	65535	64634.2
866.8342	1199.3693	65535	64636.85
866.9789	1201.2947	65535	64631.8
867.1236	1203.2193	65535	64635.4
867.2683	1205.1432	65535	64634.8
867.413	1207.0664	65535	64635.05
867.5576	1208.9889	65535	64633.1
867.7023	1210.9106	65535	64635.15
867.847	1212.8316	65535	64635.4
867.9916	1214.7519	65535	64625.35
868.1363	1216.6715	65535	64635.2
868.2809	1218.5903	65535	64636.5
868.4255	1220.5084	65535	64635.05
868.5701	1222.4257	65535	64634.55
868.7148	1224.3424	65535	64639.2
868.8594	1226.2583	65535	64633.5
869.004	1228.1735	65535	64634.4
869.1486	1230.0879	65535	64634.65
869.2932	1232.0016	65535	64634.95
869.4377	1233.9146	65535	64633.5
869.5823	1235.8269	65535	64637.45
869.7269	1237.7384	65535	64637.6
869.8715	1239.6492	65535	64636.8
870.016	1241.5592	65535	64633.35
870.1606	1243.4686	65535	64637.3
870.3051	1245.3772	65535	64634.45
870.4496	1247.285	65535	64634.5
870.5941	1249.1922	65535	64637.05
870.7387	1251.0986	65535	64636
870.8832	1253.0042	65535	64633.35
871.0277	1254.9092	65535	64635.4
871.1722	1256.8134	65535	64636.35
871.3167	1258.7169	65535	64634.45
871.4611	1260.6196	65535	64637.35
871.6056	1262.5216	65535	64635.45
871.7501	1264.4229	65535	64636.85
871.8945	1266.3234	65535	64635.2
872.039	1268.2232	65535	64633.85
872.1834	1270.1223	65535	64635.55
872.3278	1272.0207	65535	64632.7
872.4723	1273.9183	65535	64630.35
872.6167	1275.8151	65535	64636.45
872.7611	1277.7113	65535	64635.5
872.9055	1279.6067	65535	64636.85
873.0499	1281.5014	65535	64634.2
873.1943	1283.3953	65535	64636.85
873.3386	1285.2885	65535	64635.1
873.483	1287.181	65535	64635.1
873.6274	1289.0727	65535	64636.75
873.7717	1290.9637	65535	64634
873.9161	1292.854	65535	64634.05
874.0604	1294.7435	65535	64635.65
874.2047	1296.6323	65535	64632.7
874.349	1298.5204	65535	64631.55
874.4933	1300.4077	65535	64634.65
874.6376	1302.2943	65535	64635.75
874.7819	1304.1802	65535	64636.75
874.9262	1306.0653	65535	64632.7
875.0705	1307.9497	65535	64634.45
875.2147	1309.8333	65535	64636.4
875.359	1311.7162	65535	64636.9
875.5032	1313.5984	65535	64633.7
875.6475	1315.4798	65535	64632.8
875.7917	1317.3605	65535	64617.95
875.9359	1319.2405	65535	64632.15
876.0801	1321.1197	65535	64633.45
876.2243	1322.9982	65535	64631.25
876.3685	1324.876	65535	64633.25
876.5127	1326.753	65535	64635.15
876.6569	1328.6293	65535	64633.15
876.801	1330.5048	65535	64634.55
876.9452	1332.3796	65535	64637.9
877.0893	1334.2537	65535	64610.55
877.2335	1336.127	65535	64635.15
877.3776	1337.9996	65535	64633.2
877.5217	1339.8714	65535	64633.55
877.6658	1341.7426	65535	64591.15
877.8099	1343.6129	65535	64634.45
877.954	1345.4826	65535	64633.3
878.0981	1347.3515	65535	64634.1
878.2422	1349.2196	65535	64634.75
878.3862	1351.087	65535	64637
878.5303	1352.9537	65535	64633.6
878.6743	1354.8197	65535	64635
878.8184	1356.6849	65535	64636.55
878.9624	1358.5493	65535	64635.95
879.1064	1360.4131	65535	64633.6
879.2504	1362.276	65535	64635.15
879.3944	1364.1383	65535	64634.6
879.5384	1365.9998	65535	64627.7
879.6823	1367.8606	65535	64634.6
879.8263	1369.7206	65535	64632.65
879.9702	1371.5799	65535	64634.75
880.1142	1373.4384	65535	64636.45
880.2581	1375.2962	65535	64633.05
880.402	1377.1533	65535	64635.5
880.5459	1379.0096	65535	64634.2
880.6898	1380.8652	65535	64633.7
880.8337	1382.7201	65535	64637.1
880.9776	1384.5742	65535	64635.85
881.1215	1386.4275	65535	64632.75
881.2653	1388.2802	65535	64636.55
881.4092	1390.132	65535	64634.1
881.553	1391.9832	65535	64632.65
881.6968	1393.8336	65535	64634.95
881.8406	1395.6832	65535	64632.3
881.9844	1397.5322	65535	64634.15
882.1282	1399.3803	65535	64629.35
882.272	1401.2278	65535	64635.2
882.4158	1403.0745	65535	64635.7
882.5595	1404.9204	65535	64635.3
882.7033	1406.7656	65535	64634.15
882.847	1408.6101	65535	64634.1
882.9908	1410.4538	65535	64634.1
883.1345	1412.2968	65535	64635.35
883.2782	1414.139	65535	64633.6
883.4219	1415.9805	65535	64634.2
883.5656	1417.8213	65535	64629.95
883.7092	1419.6613	65535	64636.5
883.8529	1421.5006	65535	64636.8
883.9965	1423.3391	65535	64636.2
884.1402	1425.1769	65535	64635.55
884.2838	1427.0139	65535	64634.9
884.4274	1428.8502	65535	64634.95
884.571	1430.6858	65535	64635.1
884.7146	1432.5206	65535	64635.3
884.8582	1434.3547	65535	64634.55
885.0018	1436.188	65535	64634.8
885.1453	1438.0206	65535	64635.15
885.2889	1439.8524	65535	64634.1
885.4324	1441.6835	65535	64635.7
885.5759	1443.5139	65535	64630.05
885.7194	1445.3435	65535	64637.35
885.8629	1447.1724	65535	64635.55
886.0064	1449.0005	65535	64634.65
886.1499	1450.8279	65535	64632.95
886.2933	1452.6545	65535	64635.5
886.4368	1454.4804	65535	64636.8
886.5802	1456.3056	65535	64629.3
886.7237	1458.13	65535	64635.25
886.8671	1459.9536	65535	64633.4
887.0105	1461.7766	65535	64634.45
887.1539	1463.5987	65535	64632.8
887.2972	1465.4202	65535	64635.8
887.4406	1467.2409	65535	64636.3
887.584	1469.0608	65535	64635.65
887.7273	1470.88	65535	64634.2
887.8706	1472.6984	65535	64637.2
888.0139	1474.5161	65535	64632.05
888.1572	1476.3331	65535	64636.7
888.3005	1478.1493	65535	64635.3
888.4438	1479.9648	65535	64637.5
888.5871	1481.7795	65535	64634.5
888.7303	1483.5935	65535	64636.75
888.8736	1485.4067	65535	64636.45
889.0168	1487.2192	65535	64636.8
889.16	1489.031	65535	64633.6
889.3032	1490.842	65535	64637
889.4464	1492.6522	65535	64635
889.5896	1494.4618	65535	64635.6
889.7327	1496.2705	65535	64637.9
889.8759	1498.0785	65535	64634.55
890.019	1499.8858	65535	64636
890.1622	1501.6924	65535	64639
890.3053	1503.4981	65535	64635.85
890.4484	1505.3032	65535	64635.95
890.5914	1507.1075	65535	64634.4
890.7345	1508.911	65535	64636.4
890.8776	1510.7138	65535	64634.9
891.0206	1512.5159	65535	64636.05
891.1637	1514.3172	65535	64635.35
891.3067	1516.1178	65535	64636.25
891.4497	1517.9176	65535	64633.15
891.5927	1519.7166	65535	64637.25
891.7357	1521.515	65535	64629.25
891.8786	1523.3126	65535	64634.9
892.0216	1525.1094	65535	64633.2
892.1645	1526.9055	65535	64637.45
892.3074	1528.7008	65535	64637.8
892.4503	1530.4954	65535	64631.65
892.5932	1532.2893	65535	64639.3
892.7361	1534.0824	65535	64628.9
892.879	1535.8747	65533.8	64632.75
893.0218	1537.6663	65535	64634.05
893.1647	1539.4572	65509.45	64606.95
893.3075	1541.2473	65533.55	64635.9
893.4503	1543.0367	65532.8	64637.95
893.5931	1544.8253	65522.45	64619.5
893.7359	1546.6132	65530.35	64630.2
893.8787	1548.4003	65508.35	64600.65
894.0214	1550.1867	65494.6	64588.25
894.1642	1551.9723	65466.3	64561.65
894.3069	1553.7572	65483.95	64584.5
894.4496	1555.5414	65517.75	64620.95
894.5923	1557.3247	65007.25	64109.6
894.735	1559.1074	65492.1	64594.55
894.8777	1560.8893	65343.95	64446.5
895.0204	1562.6705	65440	64542.5
895.163	1564.4509	65065.3	64167.6
895.3056	1566.2305	65270	64373.55
895.4482	1568.0094	65428.85	64532.85
895.5908	1569.7876	65303.95	64405.25
895.7334	1571.565	64999.8	64102.65
895.876	1573.3417	65190.55	64293.05
896.0186	1575.1176	65119.7	64223.1
896.1611	1576.8928	64997.65	64100.7
896.3036	1578.6672	64556.25	63662.7
896.4461	1580.4409	64831.35	63935.3
896.5886	1582.2138	64191.55	63291.6
896.7311	1583.986	64354.35	63455.65
896.8736	1585.7575	63781.55	62887.2
897.0161	1587.5282	63951.7	63056.55
897.1585	1589.2981	63931.4	63034.15
897.3009	1591.0673	63329.6	62434.3
897.4433	1592.8358	62943.2	62046.65
897.5857	1594.6035	63385.2	62485.3
897.7281	1596.3704	63458	62562.1
897.8705	1598.1366	62551.95	61656.75
898.0128	1599.9021	62078	61183
898.1551	1601.6668	62786.7	61887.4
898.2975	1603.4308	62371.2	61473.45
898.4398	1605.194	62514.7	61611.6
898.5821	1606.9564	61421.85	60525.2
898.7243	1608.7182	62011.4	61112.95
898.8666	1610.4791	61416.7	60523.95
899.0088	1612.2394	61952.65	61059.5
899.1511	1613.9988	61332.2	60435.75
899.2933	1615.7576	62050.95	61156.6
899.4355	1617.5156	62069.25	61168.9
899.5776	1619.2728	62819.75	61926.35
899.7198	1621.0293	61639.35	60743.6
899.862	1622.785	61623.2	60725.8
900.0041	1624.54	62040.55	61141.7
900.1462	1626.2942	61347.6	60450.5
900.2883	1628.0477	60326.95	59428.55
900.4304	1629.8005	59679.7	58781.2
900.5725	1631.5525	60280.65	59385.95
900.7145	1633.3037	59105.15	58209.15
900.8566	1635.0542	59083.9	58189.1
900.9986	1636.804	59295.4	58399.95
901.1406	1638.553	58380.55	57379.5
901.2826	1640.3013	58567.1	57670.25
901.4245	1642.0488	57943.8	57047.25
901.5665	1643.7955	58339.7	57446.85
901.7085	1645.5416	57835.45	56940.85
901.8504	1647.2868	57474.45	56580.05
901.9923	1649.0313	58064.6	57168.6
902.1342	1650.7751	57693.35	56793.9
902.2761	1652.5181	57349.3	56453.8
902.4179	1654.2604	57422.8	56528.4
902.5598	1656.0019	57945.15	57049.95
902.7016	1657.7427	57781.4	56885.15
902.8434	1659.4828	58269.2	57374.85
902.9852	1661.222	57969.1	57074.5
903.127	1662.9606	58264	57368.15
903.2687	1664.6984	57610.1	56717.4
903.4105	1666.4354	57623.7	56727.7
903.5522	1668.1717	56551.4	55656.6
903.6939	1669.9072	55831.2	54934.6
903.8356	1671.642	55511.5	54614
903.9773	1673.3761	55150.1	54255.85
904.119	1675.1094	54760.6	53867
904.2606	1676.8419	54362.25	53465.7
904.4022	1678.5737	54060.8	53164.2
904.5439	1680.3048	53792.45	52896.25
904.6855	1682.0351	53435.55	52538.3
904.827	1683.7646	53172.35	52275.25
904.9686	1685.4934	53156.5	52262.1
905.1101	1687.2215	52494.45	51599.75
905.2517	1688.9488	52674.1	51779.8
905.3932	1690.6754	51727.25	50833.95
905.5347	1692.4012	51993	51099.8
905.6761	1694.1263	51795.45	50901.3
905.8176	1695.8506	51596.6	50701.05
905.9591	1697.5742	51400.1	50505.7
906.1005	1699.297	51164.25	50269.9
906.2419	1701.0191	50945.35	50052.25
906.3833	1702.7404	50633.05	49739.6
906.5246	1704.461	50442.25	49546.05
906.666	1706.1808	50253.8	49356.75
906.8073	1707.8999	50094	49200.1
906.9487	1709.6182	49887.95	48991.85
907.09	1711.3358	49746.2	48852.5
907.2313	1713.0527	49572.55	48678.85
907.3725	1714.7688	49433.4	48535.1
907.5138	1716.4841	49088.35	48192.1
907.655	1718.1987	49077.7	48179.6
907.7962	1719.9126	48811.35	47919
907.9374	1721.6257	48638.35	47741.7
908.0786	1723.338	48598.1	47705.6
908.2198	1725.0496	48107.85	47212.8
908.3609	1726.7605	48083.6	47190.95
908.502	1728.4706	47906.55	47011.6
908.6431	1730.18	47680.7	46784.85
908.7842	1731.8886	47521.1	46626.65
908.9253	1733.5964	47432.65	46518.45
909.0664	1735.3036	47321.25	46424.95
909.2074	1737.0099	47169.4	46277.8
909.3484	1738.7156	47002.65	46109.25
909.4894	1740.4204	46716.85	45819.75
909.6304	1742.1246	46678.65	45783.7
909.7714	1743.8279	46525.15	45632.1
909.9123	1745.5306	46445.6	45551.15
910.0532	1747.2325	46177.7	45284.85
910.1941	1748.9336	46072.4	45181.55
910.335	1750.634	45850.5	44954.55
910.4759	1752.3336	45759.4	44867.3
910.6168	1754.0325	45686.1	44794.2
910.7576	1755.7307	45461.6	44566.85
910.8984	1757.4281	45441.9	44549.75
911.0392	1759.1247	45371.55	44470
911.18	1760.8206	45204.4	44307.55
911.3208	1762.5158	45092.15	44195.2
911.4615	1764.2102	44922.9	44029.9
911.6022	1765.9039	44739	43847.7
911.7429	1767.5968	44595.55	43702.45
911.8836	1769.289	44433.15	43539.05
912.0243	1770.9804	44290.6	43396.75
912.1649	1772.6711	44296.35	43403.3
912.3056	1774.361	44132.45	43240.05
912.4462	1776.0502	43984.65	43090.8
912.5868	1777.7386	43935.6	43038.75
912.7274	1779.4263	43784.15	42888.85
912.8679	1781.1132	43703.65	42811.75
913.0084	1782.7994	43501.35	42608.95
913.149	1784.4849	43395.6	42503
913.2895	1786.1696	43235.3	42336.2
913.4299	1787.8535	43120.2	42227.4
913.5704	1789.5367	42964.1	42070.45
913.7108	1791.2192	42950.15	42058.05
913.8513	1792.9009	42752	41828.9
913.9917	1794.5818	42540.6	41645.8
914.132	1796.2621	42475.1	41584.65
914.2724	1797.9415	42375.5	41481.95
914.4128	1799.6202	42224.55	41332.3
914.5531	1801.2982	42166.3	41273.2
914.6934	1802.9755	41997.05	41102.55
914.8337	1804.6519	41927.7	41033.5
914.9739	1806.3277	41668.3	40775.95
915.1142	1808.0027	41501.35	40609.7
915.2544	1809.6769	41433.4	40538.75
915.3946	1811.3504	41353.6	40459.55
915.5348	1813.0231	41262.75	40368.2
915.675	1814.6951	41165.4	40272.3
915.8151	1816.3664	41119.35	40225.25
915.9553	1818.0369	40986.1	40091.35
916.0954	1819.7067	40817.3	39926.25
916.2355	1821.3757	40705.05	39810.95
916.3755	1823.044	40619.1	39725.65
916.5156	1824.7115	40525.75	39633.25
916.6556	1826.3783	40305.55	39414.55
916.7956	1828.0443	40164.15	39271.6
916.9356	1829.7096	40084.75	39191.8
917.0756	1831.3741	40037.85	39139.75
917.2155	1833.0379	39953.35	39061.5
917.3555	1834.701	39792.2	38897.3
917.4954	1836.3633	39715.35	38822.1
917.6353	1838.0248	39511.65	38617.55
917.7751	1839.6856	39432.2	38540.8
917.915	1841.3457	39353.9	38462.2
918.0548	1843.005	39245.55	38353.3
918.1946	1844.6636	39212.15	38319.3
918.3344	1846.3214	39008.4	38117
918.4742	1847.9785	38975.75	38083.9
918.6139	1849.6349	38885.75	37991.25
918.7537	1851.2904	38722.35	37820.35
918.8934	1852.9453	38599.65	37706.2
919.0331	1854.5994	38470.75	37576.55
919.1727	1856.2528	38507.05	37607.95
919.3124	1857.9054	38332.8	37438.65
919.452	1859.5572	38251.65	37358.7
919.5916	1861.2083	38194.75	37301.5
919.7312	1862.8587	38101.95	37210.15
919.8708	1864.5084	38033.6	37139.75
920.0103	1866.1572	37846	36954.2
920.1498	1867.8054	37760.75	36867.9
920.2893	1869.4528	37649.9	36756.1
920.4288	1871.0994	37545.3	36653.4
920.5683	1872.7453	37441.5	36548.8
920.7077	1874.3905	37390.15	36491.3
920.8471	1876.0349	37179.55	36288.1
920.9865	1877.6786	37184.25	36289.05
921.1259	1879.3215	37106.3	36213.8
921.2653	1880.9637	36994.55	36099.05
921.4046	1882.6051	36908.8	36017.5
921.5439	1884.2458	36809.35	35913.8
921.6832	1885.8858	36633.65	35739.95
921.8225	1887.525	36519.25	35626.3
921.9617	1889.1634	36375.75	35483.7
922.101	1890.8011	36245.85	35353.35
922.2402	1892.4381	36160.15	35267.8
922.3794	1894.0743	36122.7	35229.25
922.5185	1895.7098	36032.4	35140.15
922.6577	1897.3446	35916.35	35021.55
922.7968	1898.9786	35788.35	34888.95
922.9359	1900.6118	35715.6	34823.9
923.075	1902.2443	35497.15	34600
923.214	1903.8761	35435.15	34543.55
923.3531	1905.5071	35207.5	34312.65
923.4921	1907.1374	35114.1	34220.45
923.6311	1908.7669	35072.85	34179.65
923.77	1910.3957	34981.4	34088.7
923.909	1912.0237	34755.55	33863.2
924.0479	1913.651	34640.75	33745.75
924.1868	1915.2776	34609.25	33716.9
924.3257	1916.9034	34379.45	33489
924.4646	1918.5285	34176.25	33285.35
924.6034	1920.1528	34057.65	33164.8
924.7422	1921.7764	34022.45	33129.8
924.881	1923.3992	33883	32991
925.0198	1925.0213	33644	32751.95
925.1586	1926.6427	33508.3	32615.75
925.2973	1928.2633	33516.9	32515.1
925.436	1929.8832	33330	32433.8
925.5747	1931.5023	33182.4	32288.45
925.7134	1933.1207	33086.75	32193.6
925.852	1934.7383	32986.7	32094.85
925.9906	1936.3552	32844.6	31952.4
926.1292	1937.9714	32772.35	31880.05
926.2678	1939.5868	32652.3	31758.45
926.4064	1941.2015	32470.7	31576.45
926.5449	1942.8154	32349.7	31458
926.6834	1944.4286	32136.05	31242.85
926.8219	1946.041	32026.85	31113.85
926.9604	1947.6528	31857.15	30960.15
927.0988	1949.2637	31793.7	30900.7
927.2372	1950.8739	31651.25	30758.45
927.3756	1952.4834	31590.85	30699.85
927.514	1954.0921	31485.2	30592.75
927.6523	1955.7001	31381.4	30486.75
927.7907	1957.3074	31294.1	30401.6
927.929	1958.9139	31142	30250.6
928.0673	1960.5197	31026.45	30132.35
928.2055	1962.1247	30882.55	29992
928.3438	1963.729	30765.8	29874.35
928.482	1965.3325	30591.25	29677.3
928.6202	1966.9353	30498.1	29605.65
928.7584	1968.5374	30411.4	29518.7
928.8965	1970.1387	30282.85	29389.35
929.0346	1971.7393	30157.85	29266.1
929.1727	1973.3392	30098.2	29205.45
929.3108	1974.9383	30000	29108.75
929.4489	1976.5366	29793.7	28901.65
929.5869	1978.1342	29786.4	28892.85
929.7249	1979.7311	29728.15	28834.45
929.8629	1981.3273	29628.65	28736.85
930.0009	1982.9227	29500.45	28606.6
930.1388	1984.5173	29340.35	28448.25
930.2767	1986.1112	29202.2	28310.5
930.4146	1987.7044	29153.25	28261.65
930.5525	1989.2968	29019.45	28127.15
930.6904	1990.8885	28998.45	28103.7
930.8282	1992.4795	28937.4	28042.15
930.966	1994.0697	28774.65	27884.2
931.1038	1995.6592	28685.6	27792.95
931.2415	1997.2479	28555.2	27662.9
931.3793	1998.8359	28496.1	27604.45
931.517	2000.4232	28326.2	27434.3
931.6547	2002.0097	28198.75	27307.2
931.7923	2003.5955	28065.8	27173.1
931.93	2005.1805	28031.55	27136.4
932.0676	2006.7648	27921.35	27029.65
932.2052	2008.3484	27852.7	26958.6
932.3427	2009.9312	27885	26992.5
932.4803	2011.5133	27726.2	26835.55
932.6178	2013.0946	27650.1	26757.55
932.7553	2014.6752	27540.45	26649.4
932.8928	2016.2551	27476.1	26584
933.0302	2017.8342	27336.5	26443.95
933.1676	2019.4126	27239.05	26349.4
933.305	2020.9902	27094.65	26202.65
933.4424	2022.5672	27083	26190.05
933.5798	2024.1433	26978.25	26081.55
933.7171	2025.7188	26869.65	25979.75
933.8544	2027.2935	26809.2	25915.6
933.9917	2028.8674	26679.9	25788.7
934.129	2030.4406	26586.85	25697.05
934.2662	2032.0131	26419.8	25529.2
934.4034	2033.5849	26362.55	25466.4
934.5406	2035.1559	26324.1	25433
934.6778	2036.7261	26270.3	25377.8
934.8149	2038.2957	26160.9	25268.4
934.952	2039.8645	26090.8	25198.8
935.0891	2041.4325	26105.35	25211.1
935.2262	2042.9998	25916.1	25025.5
935.3632	2044.5664	25846.25	24954.05
935.5002	2046.1323	25781.1	24890.05
935.6372	2047.6974	25667.4	24775.05
935.7742	2049.2617	25609.1	24718.35
935.9111	2050.8254	25587.35	24673.1
936.048	2052.3883	25564.2	24670.4
936.1849	2053.9504	25469.35	24576.9
936.3218	2055.5118	25336.1	24441.85
936.4586	2057.0725	25211.15	24315.5
936.5955	2058.6325	25123.95	24233.05
936.7323	2060.1917	25040.85	24149.95
936.869	2061.7502	25004.1	24109
937.0058	2063.3079	24888.15	23996.65
937.1425	2064.8649	24854.2	23961.55
937.2792	2066.4212	24768.4	23875.9
937.4159	2067.9767	24669.1	23778
937.5525	2069.5315	24574.15	23682.3
937.6891	2071.0856	24431.8	23539.95
937.8257	2072.6389	24342.9	23449.6
937.9623	2074.1915	24224.1	23333.9
938.0989	2075.7433	24085.6	23192.85
938.2354	2077.2945	24074.55	23184.2
938.3719	2078.8448	23953.4	23061.2
938.5084	2080.3945	23869.9	22978.6
938.6448	2081.9434	23850.35	22959.15
938.7812	2083.4916	23755.75	22863.35
938.9176	2085.039	23664.35	22771.75
939.054	2086.5857	23595.6	22704.75
939.1903	2088.1317	23600	22707.75
939.3267	2089.677	23490.05	22598.7
939.463	2091.2215	23399.35	22508.2
939.5992	2092.7652	23339.3	22445.95
939.7355	2094.3083	23239.3	22348.85
939.8717	2095.8506	23214.1	22323.35
940.0079	2097.3921	23197.55	22307
940.1441	2098.933	23072.45	22179.2
940.2802	2100.4731	23008.7	22116.55
940.4163	2102.0124	22973	22072.6
940.5524	2103.5511	22874.6	21983.05
940.6885	2105.089	22870.6	21980.2
940.8245	2106.6261	22769.15	21876.4
940.9606	2108.1626	22690.45	21798.3
941.0965	2109.6983	22643.2	21722.65
941.2325	2111.2332	22582.1	21689.35
941.3684	2112.7675	22483.2	21590.35
941.5044	2114.301	22428.4	21534.05
941.6403	2115.8337	22369.6	21475.95
941.7761	2117.3657	22307.15	21415.7
941.912	2118.897	22267	21374.15
942.0478	2120.4276	22159.15	21261.35
942.1835	2121.9575	22043.55	21149.55
942.3193	2123.4866	22063.4	21156.8
942.455	2125.0149	21946.3	21050.5
942.5907	2126.5426	21844.9	20950.45
942.7264	2128.0695	21781.75	20884.55
942.8621	2129.5956	21767.7	20876.2
942.9977	2131.1211	21680.75	20783.7
943.1333	2132.6458	21598.65	20709.15
943.2689	2134.1698	21545	20651.3
943.4044	2135.693	21513.45	20621.7
943.54	2137.2155	21457.35	20560.75
943.6755	2138.7373	21376.25	20483.3
943.8109	2140.2584	21290.65	20399.55
943.9464	2141.7787	21196.35	20298.25
944.0818	2143.2983	21088.55	20197.1
944.2172	2144.8171	20986	20096.35
944.3526	2146.3353	20942.65	20050.55
944.4879	2147.8527	20856.7	19966.65
944.6232	2149.3693	20865.3	19971.45
944.7585	2150.8853	20775.4	19883.35
944.8938	2152.4005	20669.55	19775.85
945.029	2153.9149	20655.75	19763.2
945.1642	2155.4287	20553.1	19660.05
945.2994	2156.9417	20503.75	19610.3
945.4346	2158.454	20432.6	19537.4
945.5697	2159.9655	20395.9	19504.35
945.7048	2161.4764	20368.1	19476.9
945.8399	2162.9865	20271.75	19380.9
945.9749	2164.4958	20232.45	19337.1
946.1099	2166.0045	20131.9	19236.1
946.2449	2167.5124	20110.75	19217.4
946.3799	2169.0195	20022.45	19128.65
946.5148	2170.526	20015.55	19122.2
946.6498	2172.0317	19934.45	19043.2
946.7846	2173.5367	19842.45	18950.2
946.9195	2175.0409	19760.4	18867.25
947.0543	2176.5445	19759.7	18866.7
947.1891	2178.0473	19689.8	18797.3
947.3239	2179.5494	19599.35	18703.55
947.4587	2181.0507	19517.05	18625.2
947.5934	2182.5513	19451.6	18559.1
947.7281	2184.0512	19409.15	18517.6
947.8628	2185.5504	19319.15	18426.7
947.9974	2187.0488	19226.85	18333.75
948.132	2188.5465	19155.6	18263.45
948.2666	2190.0435	19109.95	18217.3
948.4012	2191.5397	19011.8	18119.3
948.5357	2193.0353	18950.35	18057.05
948.6702	2194.5301	18872	17979
948.8047	2196.0241	18777.75	17883.55
948.9392	2197.5175	18721.45	17828.4
949.0736	2199.0101	18646.7	17750.35
949.208	2200.502	18550.15	17658.25
949.3424	2201.9931	18482.75	17589.75
949.4767	2203.4835	18418.5	17524.05
949.611	2204.9733	18415.3	17518.9
949.7453	2206.4622	18362.8	17472.15
949.8796	2207.9505	18264.4	17369.6
950.0138	2209.438	18127.2	17237.15
950.148	2210.9248	18082	17189.25
950.2822	2212.4109	18043.35	17151.35
950.4164	2213.8962	17983.5	17089.2
950.5505	2215.3809	17931.3	17037.45
950.6846	2216.8648	17892.15	16996.55
950.8186	2218.3479	17818.8	16922.15
950.9527	2219.8304	17765.85	16870.35
951.0867	2221.3121	17647.85	16754
951.2207	2222.7931	17604.25	16710.8
951.3546	2224.2733	17575.9	16685.35
951.4886	2225.7529	17470.85	16579.8
951.6225	2227.2317	17412.65	16516.9
951.7563	2228.7098	17378.75	16486.85
951.8902	2230.1872	17289.55	16397.2
952.024	2231.6638	17263.55	16372.15
952.1578	2233.1397	17181.55	16283.15
952.2916	2234.6149	17141.25	16249.55
952.4253	2236.0894	17072.65	16180.75
952.559	2237.5632	17025.35	16123.75
952.6927	2239.0362	16966	16074.55
952.8263	2240.5085	16926.45	16035.95
952.9599	2241.9801	16834.5	15943.2
953.0935	2243.4509	16791.9	15899.65
953.2271	2244.921	16705.75	15814
953.3606	2246.3904	16621.2	15728.3
953.4941	2247.8591	16595	15702.35
953.6276	2249.3271	16534.7	15643.45
953.7611	2250.7943	16451.1	15558.75
953.8945	2252.2608	16412.9	15520.35
954.0279	2253.7266	16421.4	15529.85
954.1612	2255.1917	16347.65	15456.9
954.2946	2256.656	16212.75	15317.6
954.4279	2258.1197	16194	15301.65
954.5612	2259.5826	16156.75	15262.85
954.6944	2261.0447	16130.65	15238
954.8276	2262.5062	16028.4	15135.05
954.9608	2263.9669	16016.15	15122.1
955.094	2265.4269	15949.95	15058.7
955.2271	2266.8862	15904.25	15012.85
955.3602	2268.3448	15904	15009.9
955.4933	2269.8026	15833.05	14940
955.6264	2271.2598	15716.9	14822.15
955.7594	2272.7162	15703.65	14813
955.8924	2274.1719	15662.4	14768.25
956.0253	2275.6268	15611.15	14718.1
956.1583	2277.0811	15592.25	14697.55
956.2912	2278.5346	15520.2	14628.05
956.4241	2279.9874	15476.2	14584.35
956.5569	2281.4395	15451.85	14560.5
956.6897	2282.8908	15360.25	14463.55
956.8225	2284.3414	15345.9	14452.9
956.9553	2285.7914	15265.35	14373.15
957.088	2287.2406	15235	14341.25
957.2207	2288.689	15220.2	14327.2
957.3534	2290.1368	15138.05	14245.55
957.486	2291.5838	15086.45	14192.75
957.6186	2293.0302	15040.5	14148
957.7512	2294.4758	14972	14079.9
957.8838	2295.9206	14908.8	14012.25
958.0163	2297.3648	14889.2	13997.15
958.1488	2298.8082	14838.35	13943.75
958.2813	2300.251	14780.4	13886.2
958.4137	2301.693	14733.35	13840.3
958.5461	2303.1343	14733	13839.85
958.6785	2304.5748	14657.5	13765.25
958.8108	2306.0147	14604.65	13712.05
958.9432	2307.4538	14554.8	13661.6
959.0754	2308.8922	14519.95	13630.5
959.2077	2310.3299	14437.3	13548.05
959.3399	2311.7669	14411.3	13518.15
959.4721	2313.2031	14352.55	13460.9
959.6043	2314.6387	14310.95	13418.4
959.7365	2316.0735	14268.6	13376
959.8686	2317.5076	14198.4	13305.8
960.0006	2318.941	14186.2	13294.15
960.1327	2320.3737	14132.35	13239.5
960.2647	2321.8056	14094.3	13200.5
960.3967	2323.2369	14021.2	13129.2
960.5287	2324.6674	14010.8	13116.9
960.6606	2326.0972	13949.25	13056.2
960.7925	2327.5263	13881.8	12988.05
960.9244	2328.9547	13826.55	12931.65
961.0562	2330.3823	13805.9	12911.3
961.1881	2331.8092	13794.1	12898.8
961.3198	2333.2355	13726.3	12833.6
961.4516	2334.661	13658.2	12764.9
961.5833	2336.0858	13619.05	12725.5
961.715	2337.5098	13627.8	12734.4
961.8467	2338.9332	13547.1	12654.8
961.9783	2340.3558	13520.2	12624.6
962.1099	2341.7778	13470.2	12577.65
962.2415	2343.199	13389.45	12494.7
962.373	2344.6195	13370.6	12480.85
962.5045	2346.0393	13356.1	12464.2
962.636	2347.4583	13305.85	12415.4
962.7675	2348.8767	13260.6	12366.9
962.8989	2350.2943	13190.95	12296.85
963.0303	2351.7113	13188.35	12294.6
963.1617	2353.1275	13122.85	12230.9
963.293	2354.543	13136.05	12219.65
963.4243	2355.9578	13057.3	12164.3
963.5556	2357.3718	12962.95	12072.05
963.6868	2358.7852	12914.35	12019.1
963.818	2360.1978	12867.15	11972.1
963.9492	2361.6098	12841.6	11948.4
964.0803	2363.021	12797.5	11901.75
964.2114	2364.4315	12742.6	11850.8
964.3425	2365.8413	12704.15	11806.75
964.4736	2367.2504	12629.6	11739.4
964.6046	2368.6587	12580.9	11689.25
964.7356	2370.0664	12498.45	11606.45
964.8666	2371.4733	12466.65	11573.2
964.9975	2372.8795	12458.85	11568.4
965.1284	2374.285	12393.3	11500.75
965.2593	2375.6899	12331.7	11442
965.3901	2377.0939	12275.15	11383.05
965.5209	2378.4973	12211.75	11319.4
965.6517	2379.9	12174	11282.4
965.7825	2381.3019	12137	11244.25
965.9132	2382.7032	12101.65	11210.5
966.0439	2384.1037	12086.35	11197.4
966.1745	2385.5035	12022.15	11130.05
966.3051	2386.9027	11980.75	11090.5
966.4357	2388.3011	11951.1	11056.05
966.5663	2389.6987	11904.8	11012.4
966.6968	2391.0957	11874.8	10984.7
966.8273	2392.492	11818.7	10928.15
966.9578	2393.8876	11731.2	10839.65
967.0882	2395.2824	11684.65	10792.6
967.2186	2396.6765	11631	10740.55
967.349	2398.07	11579.8	10690
967.4793	2399.4627	11558.1	10666.5
967.6097	2400.8547	11556.1	10664.6
967.7399	2402.246	11471.2	10574.5
967.8702	2403.6366	11424.8	10532.95
968.0004	2405.0265	11366.9	10476.35
968.1306	2406.4156	11327.2	10430.1
968.2607	2407.8041	11307.3	10412
968.3909	2409.1918	11230.7	10337.45
968.521	2410.5789	11199.65	10307.65
968.651	2411.9652	11142.65	10247.3
968.781	2413.3508	11103.25	10211.35
968.911	2414.7358	11053.6	10162.3
969.041	2416.12	10997.8	10108.75
969.1709	2417.5035	11009.8	10118.85
969.3008	2418.8863	10959.75	10066
969.4307	2420.2684	10935.05	10044.1
969.5606	2421.6497	10860.9	9967.85
969.6904	2423.0304	10796.15	9905.65
969.8201	2424.4104	10775.15	9883.05
969.9499	2425.7896	10743.8	9845.9
970.0796	2427.1682	10719.55	9825.6
970.2093	2428.546	10690.1	9798
970.3389	2429.9232	10651	9756.2
970.4685	2431.2996	10632.9	9741.85
970.5981	2432.6753	10623.15	9733.1
970.7277	2434.0503	10589.25	9697.2
970.8572	2435.4246	10511.75	9618.75
970.9867	2436.7982	10471.9	9577.5
971.1161	2438.1711	10469.3	9579.1
971.2456	2439.5433	10411.3	9519.55
971.375	2440.9148	10367.8	9473.9
971.5043	2442.2856	10328.25	9437.8
971.6336	2443.6557	10286.85	9393.95
971.7629	2445.025	10251.05	9360.95
971.8922	2446.3937	10250.8	9357.75
972.0214	2447.7617	10188.55	9297.55
972.1506	2449.1289	10144.55	9254.2
972.2798	2450.4955	10129.65	9234.75
972.4089	2451.8613	10104.7	9213.35
972.538	2453.2265	10069.1	9179
972.6671	2454.5909	10038.8	9144.85
972.7961	2455.9546	10014.85	9124.05
972.9251	2457.3177	9966.1	9074.5
973.0541	2458.68	9939.35	9044.7
973.1831	2460.0416	9949.25	9056.5
973.312	2461.4025	9923.5	9030.3
973.4408	2462.7627	9877.8	8973.3
973.5697	2464.1222	9851.25	8961.05
973.6985	2465.4811	9820.75	8928.9
973.8273	2466.8392	9797.6	8905.75
973.956	2468.1966	9752.1	8858.35
974.0847	2469.5533	9757.9	8864.9
974.2134	2470.9093	9720.65	8827.35
974.3421	2472.2645	9657.3	8762.85
974.4707	2473.6191	9641.85	8751.6
974.5993	2474.973	9601.4	8709.15
974.7278	2476.3262	9567.9	8674.2
974.8563	2477.6787	9543.95	8653.6
974.9848	2479.0305	9476.55	8586.5
975.1132	2480.3816	9437.55	8545.65
975.2417	2481.7319	9423.9	8530.9
975.37	2483.0816	9360.3	8467.3
975.4984	2484.4306	9326.7	8433
975.6267	2485.7789	9315.3	8422.6
975.755	2487.1264	9257.6	8364.35
975.8833	2488.4733	9231.75	8340
976.0115	2489.8195	9205.9	8306.2
976.1397	2491.165	9159.35	8263.65
976.2678	2492.5097	9114.35	8219.95
976.3959	2493.8538	9098.35	8207.65
976.524	2495.1972	9052.35	8160.5
976.6521	2496.5398	9027.15	8134.15
976.7801	2497.8818	8987.2	8091.55
976.9081	2499.2231	8951.1	8059.35
977.036	2500.5637	8928.45	8034.05
977.164	2501.9035	8890.95	7998.15
977.2918	2503.2427	8854.35	7954.9
977.4197	2504.5812	8831.2	7938
977.5475	2505.919	8837.3	7940.4
977.6753	2507.256	8785.65	7893.9
977.8031	2508.5924	8752	7858.9
977.9308	2509.9281	8720.85	7822.95
978.0585	2511.2631	8685.85	7794.55
978.1861	2512.5974	8659.25	7767.4
978.3137	2513.9309	8617.75	7726.3
978.4413	2515.2638	8633.8	7705.8
978.5689	2516.596	8592.5	7699.45
978.6964	2517.9275	8525	7631.3
978.8239	2519.2583	8475.7	7584.75
978.9513	2520.5884	8443.7	7549.05
979.0788	2521.9178	8427.8	7535.75
979.2062	2523.2465	8405.8	7514.95
979.3335	2524.5745	8354.3	7463.75
979.4608	2525.9018	8340.5	7447.3
979.5881	2527.2284	8332.65	7441.15
979.7154	2528.5543	8295.65	7404.05
979.8426	2529.8796	8285.85	7394.8
979.9698	2531.2041	8237.65	7345
980.0969	2532.5279	8234.5	7343.9
980.224	2533.851	8232.75	7340
980.3511	2535.1735	8187.55	7296.45
980.4781	2536.4952	8156.4	7263.55
980.6052	2537.8163	8131.25	7237.95
980.7321	2539.1366	8102.4	7211.95
980.8591	2540.4562	8075.1	7181
980.986	2541.7752	8072.05	7180.65
981.1129	2543.0935	8057.8	7166.05
981.2397	2544.411	8037.75	7142.55
981.3665	2545.7279	8032.8	7140.9
981.4933	2547.0441	7999.8	7107.65
981.62	2548.3596	7983.45	7088.15
981.7467	2549.6744	7963.3	7072.05
981.8734	2550.9885	7923.55	7028.2
982.0001	2552.3019	7901.65	7009.15
982.1267	2553.6146	7876.9	6983.25
982.2532	2554.9266	7853.15	6959.05
982.3798	2556.2379	7827.05	6934.55
982.5063	2557.5485	7831.15	6941.55
982.6327	2558.8585	7796.25	6896.25
982.7592	2560.1677	7792.45	6896.9
982.8856	2561.4762	7762.9	6870.2
983.0119	2562.7841	7757.7	6864.1
983.1383	2564.0913	7740.65	6847.8
983.2646	2565.3977	7720.45	6828.45
983.3908	2566.7035	7675.7	6783.85
983.517	2568.0086	7686	6791.7
983.6432	2569.313	7660.1	6765.5
983.7694	2570.6167	7641.2	6746.65
983.8955	2571.9197	7629	6737.8
984.0216	2573.222	7611.5	6717.8
984.1476	2574.5236	7581.65	6688.5
984.2737	2575.8246	7555.85	6660.35
984.3996	2577.1248	7550.55	6655.9
984.5256	2578.4244	7555.1	6663
984.6515	2579.7232	7521.95	6631.4
984.7774	2581.0214	7513.3	6595.3
984.9032	2582.3189	7482.35	6590.3
985.029	2583.6157	7472.8	6576.65
985.1548	2584.9118	7435.6	6543.3
985.2806	2586.2072	7427.15	6533.1
985.4063	2587.5019	7375.65	6483.95
985.5319	2588.7959	7389.85	6496.85
985.6576	2590.0893	7374.65	6481.95
985.7832	2591.3819	7341.3	6450.7
985.9087	2592.6739	7327.85	6435.4
986.0343	2593.9652	7307.15	6414.4
986.1597	2595.2557	7277.35	6385.2
986.2852	2596.5456	7251.35	6357.25
986.4106	2597.8348	7233.8	6340.7
986.536	2599.1234	7208.65	6315.7
986.6614	2600.4112	7175.75	6283.9
986.7867	2601.6983	7167.55	6271.7
986.912	2602.9848	7124.75	6232.05
987.0372	2604.2705	7096	6197.15
987.1624	2605.5556	7098.45	6206.3
987.2876	2606.84	7047.65	6154.7
987.4128	2608.1237	7031.25	6139.2
987.5379	2609.4067	7014	6121.8
987.6629	2610.689	6986.7	6085.45
987.788	2611.9707	6966.65	6070.15
987.913	2613.2516	6930.4	6034
988.0379	2614.5319	6891.2	6001.7
988.1629	2615.8115	6897.75	6004.5
988.2878	2617.0903	6866.35	5972.45
988.4126	2618.3685	6817.1	5923.05
988.5375	2619.6461	6787.45	5895.85
988.6622	2620.9229	6769.7	5876.85
988.787	2622.199	6763.8	5870.25
988.9117	2623.4745	6750.65	5856.85
989.0364	2624.7493	6703	5812.45
989.161	2626.0234	6693.4	5799.7
989.2857	2627.2968	6671.95	5780.15
989.4102	2628.5695	6638.35	5744.05
989.5348	2629.8415	6596.75	5705.2
989.6593	2631.1128	6609.5	5714.9
989.7837	2632.3835	6558.4	5666.8
989.9082	2633.6535	6538.7	5646.35
990.0326	2634.9228	6530	5636.95
990.1569	2636.1914	6502.7	5609.25
990.2812	2637.4593	6479.4	5579.9
990.4055	2638.7265	6436.25	5542.55
990.5298	2639.9931	6431.25	5539.15
990.654	2641.259	6419.7	5524.6
990.7782	2642.5242	6399.55	5506.55
990.9023	2643.7887	6380.7	5485.8
991.0264	2645.0525	6365.7	5473.9
991.1505	2646.3156	6341.55	5448.85
991.2745	2647.5781	6310.45	5418.6
991.3985	2648.8398	6292.1	5402.05
991.5225	2650.1009	6276.8	5376.6
991.6464	2651.3613	6277.8	5384.7
991.7703	2652.6211	6234.5	5342.4
991.8942	2653.8801	6223.25	5329.8
992.018	2655.1385	6220.75	5325.2
992.1418	2656.3961	6193.75	5301.75
992.2655	2657.6531	6175.25	5282.6
992.3892	2658.9094	6154.35	5260.65
992.5129	2660.1651	6141.1	5250.25
992.6366	2661.42	6115.9	5223.45
992.7602	2662.6743	6117.8	5224.75
992.8837	2663.9279	6092.3	5199.7
993.0073	2665.1808	6084.85	5191.2
993.1307	2666.433	6077.5	5184.2
993.2542	2667.6846	6045.95	5150.55
993.3776	2668.9354	6052.75	5156.8
993.501	2670.1856	6007.6	5112.25
993.6244	2671.4351	5997.8	5106.2
993.7477	2672.6839	5993.65	5099.2
993.8709	2673.9321	5962.25	5070.3
993.9942	2675.1795	5954.35	5059.85
994.1174	2676.4263	5919.95	5028.35
994.2405	2677.6724	5914	5022.5
994.3637	2678.9179	5900.3	5007.35
994.4868	2680.1626	5892.65	5002
994.6098	2681.4067	5874.25	4982.4
994.7328	2682.6501	5864	4970.35
994.8558	2683.8928	5831.25	4938.15
994.9788	2685.1348	5822	4929.95
995.1017	2686.3761	5783.3	4891.65
995.2245	2687.6168	5760.85	4868.95
995.3474	2688.8568	5755.4	4863.9
995.4702	2690.0961	5726.75	4836.15
995.5929	2691.3348	5707.3	4812.4
995.7156	2692.5727	5697.3	4802.45
995.8383	2693.81	5683.15	4791.95
995.961	2695.0466	5651.5	4759.25
996.0836	2696.2826	5633.05	4740
996.2062	2697.5178	5620.1	4725.45
996.3287	2698.7524	5609.85	4717.95
996.4512	2699.9863	5594.35	4701.15
996.5737	2701.2195	5571.85	4680.35
996.6961	2702.452	5556.6	4663.2
996.8185	2703.6839	5559.25	4666.85
996.9408	2704.9151	5552.2	4660.25
997.0631	2706.1456	5533.4	4640.75
997.1854	2707.3755	5502.45	4609.1
997.3077	2708.6046	5504.55	4610.55
997.4299	2709.8331	5491.7	4598.95
997.552	2711.0609	5469.65	4580.75
997.6742	2712.2881	5490.45	4597.9
997.7963	2713.5145	5463.25	4568.3
997.9183	2714.7403	5449.95	4556.15
998.0403	2715.9654	5435.35	4541.4
998.1623	2717.1899	5445.65	4537.8
998.2842	2718.4136	5436.55	4542.85
998.4062	2719.6367	5416.4	4524.75
998.528	2720.8591	5412.4	4516.45
998.6498	2722.0809	5395.25	4500.7
998.7716	2723.3019	5396.1	4499.8
998.8934	2724.5223	5385.8	4493.6
999.0151	2725.7421	5360.4	4467.1
999.1368	2726.9611	5343.35	4448.5
999.2584	2728.1795	5345.5	4448.15
999.38	2729.3972	5321	4428.6
999.5016	2730.6142	5293.3	4391.45
999.6231	2731.8306	5257.25	4363.2
999.7446	2733.0462	5209.05	4314.1
999.8661	2734.2612	5184.6	4288.8
999.9875	2735.4756	5153.3	4260
1000.1089	2736.6892	5122.05	4229.1
1000.2302	2737.9022	5098.75	4207.75
1000.3515	2739.1145	5057.75	4165.7
1000.4728	2740.3262	5029.65	4128.55
1000.594	2741.5372	5008.6	4115.75
1000.7152	2742.7475	4984.85	4090.65
1000.8363	2743.9571	4958.4	4064.75
1000.9575	2745.1661	4937.4	4039.8
1001.0785	2746.3744	4921.4	4027.1
1001.1996	2747.582	4889.05	3997.3
1001.3206	2748.7889	4866.1	3970.45
1001.4415	2749.9952	4861.65	3970.85
1001.5625	2751.2008	4844.25	3952.85
1001.6833	2752.4057	4822.8	3929
1001.8042	2753.61	4798.3	3905.2
1001.925	2754.8136	4791.9	3895.95
1002.0458	2756.0165	4780.15	3888.1
1002.1665	2757.2188	4751.4	3860.85
1002.2872	2758.4204	4745.45	3854.4
1002.4078	2759.6213	4709.9	3818.1
1002.5285	2760.8215	4723	3826.35
1002.649	2762.0211	4711.2	3815.5
1002.7696	2763.22	4680.85	3785.95
1002.8901	2764.4182	4661.4	3768.4
1003.0106	2765.6158	4657.85	3764.6
1003.131	2766.8127	4628.55	3735.4
1003.2514	2768.009	4618.55	3726.55
1003.3717	2769.2045	4601.4	3708.05
1003.492	2770.3994	4588.7	3695.1
1003.6123	2771.5936	4576.1	3681.4
1003.7325	2772.7872	4563.8	3671.15
1003.8527	2773.9801	4544.5	3649.15
1003.9729	2775.1723	4563.25	3655.25
1004.093	2776.3639	4509.5	3617.75
1004.2131	2777.5548	4499.5	3606.15
1004.3331	2778.745	4506.7	3612.75
1004.4531	2779.9346	4481.2	3590.35
1004.5731	2781.1235	4480.3	3586.7
1004.693	2782.3117	4480.9	3591.75
1004.8129	2783.4992	4441.55	3550.65
1004.9328	2784.6861	4425.3	3533.75
1005.0526	2785.8723	4440.05	3546.3
1005.1723	2787.0579	4415.55	3523.25
1005.2921	2788.2428	4403.9	3510.4
1005.4118	2789.427	4414.8	3523.4
1005.5314	2790.6106	4404.5	3514.05
1005.651	2791.7935	4391.3	3496.95
1005.7706	2792.9757	4395.75	3504.1
1005.8902	2794.1573	4396.35	3502.7
1006.0097	2795.3382	4389.8	3497
1006.1291	2796.5184	4393.15	3503
1006.2485	2797.698	4392.3	3499.35
1006.3679	2798.8769	4403.6	3511.2
1006.4873	2800.0551	4402.85	3510.6
1006.6066	2801.2327	4418.2	3525
1006.7258	2802.4096	4416.75	3526.3
1006.8451	2803.5859	4433.15	3541.5
1006.9642	2804.7615	4421.2	3528.55
1007.0834	2805.9364	4438.45	3549.1
1007.2025	2807.1106	4467.95	3577
1007.3216	2808.2842	4476.95	3584.3
1007.4406	2809.4572	4497.95	3604.05
1007.5596	2810.6294	4524.6	3630.55
1007.6785	2811.801	4555.25	3664.7
1007.7975	2812.972	4583.7	3691.5
1007.9163	2814.1423	4615.05	3722.05
1008.0352	2815.3119	4664.45	3772
1008.154	2816.4808	4668.35	3776
1008.2727	2817.6491	4737.05	3845.75
1008.3914	2818.8167	4761.05	3868.1
1008.5101	2819.9837	4802.4	3906.2
1008.6288	2821.15	4832.45	3939.2
1008.7474	2822.3157	4866.85	3975.4
1008.8659	2823.4807	4893.05	4000.1
1008.9844	2824.645	4945.8	4053.25
1009.1029	2825.8086	4956.85	4066.7
1009.2214	2826.9716	5001.1	4110.15
1009.3398	2828.134	5035.95	4145
1009.4581	2829.2957	5055.3	4162.15
1009.5764	2830.4567	5082.5	4190.5
1009.6947	2831.617	5081.45	4188.65
1009.813	2832.7767	5093.3	4201.35
1009.9312	2833.9358	5086.75	4196.35
1010.0493	2835.0941	5072.4	4179.3
1010.1675	2836.2519	5039.15	4148
1010.2855	2837.4089	5030	4138.9
1010.4036	2838.5653	5007.7	4115.7
1010.5216	2839.7211	5017.55	4126.5
1010.6396	2840.8761	5017.3	4123.7
1010.7575	2842.0306	5027	4135.05
1010.8754	2843.1843	5058.1	4166.6
1010.9932	2844.3374	5096.8	4204.55
1011.111	2845.4899	5152.1	4259.7
1011.2288	2846.6417	5204.15	4311.65
1011.3465	2847.7928	5286.05	4394.8
1011.4642	2848.9433	5354.05	4462.65
1011.5818	2850.0931	5430.4	4539.35
1011.6995	2851.2422	5500.95	4608.35
1011.817	2852.3907	5565.9	4673.25
1011.9345	2853.5385	5609.45	4714.75
1012.052	2854.6857	5666.65	4745.4
1012.1695	2855.8323	5703.4	4814.05
1012.2869	2856.9781	5751.8	4860.4
1012.4042	2858.1233	5789.15	4897.25
1012.5216	2859.2679	5826.35	4935.05
1012.6389	2860.4118	5848.35	4956
1012.7561	2861.555	5895.65	4998.15
1012.8733	2862.6976	5911.85	5017.75
1012.9905	2863.8395	5930.9	5040.5
1013.1076	2864.9808	5945.9	5055.3
1013.2247	2866.1214	5927.9	5036.45
1013.3417	2867.2614	5949.6	5059.65
1013.4587	2868.4007	5954.8	5062.4
1013.5757	2869.5393	5950.05	5055.35
1013.6926	2870.6773	5952.55	5058.35
1013.8095	2871.8146	5968.05	5072.6
1013.9263	2872.9513	5945.7	5051.9
1014.0431	2874.0874	5925.4	5035.1
1014.1599	2875.2227	5915.2	5022.9
1014.2766	2876.3574	5881.45	4989.7
1014.3933	2877.4915	5845.95	4954
1014.51	2878.6249	5805.9	4915.1
1014.6266	2879.7577	5769.9	4878.25
1014.7431	2880.8898	5764.6	4862.85
1014.8596	2882.0212	5731.35	4837.6
1014.9761	2883.152	5717.75	4825.9
1015.0925	2884.2821	5695.9	4804.55
1015.2089	2885.4116	5655.9	4766.75
1015.3253	2886.5405	5632.85	4740.85
1015.4416	2887.6686	5657	4762.4
1015.5579	2888.7962	5655.1	4764.25
1015.6741	2889.923	5651.6	4759.3
1015.7903	2891.0493	5652.05	4760.8
1015.9065	2892.1748	5653.25	4760.6
1016.0226	2893.2997	5642.55	4750.7
1016.1387	2894.424	5661.05	4769.35
1016.2547	2895.5476	5671.15	4780.75
1016.3707	2896.6706	5664.75	4774.25
1016.4866	2897.7929	5707.8	4817.15
1016.6025	2898.9145	5717.6	4826.3
1016.7184	2900.0355	5731.55	4839.95
1016.8342	2901.1559	5756.7	4862.85
1016.95	2902.2756	5781.95	4886.9
1017.0658	2903.3946	5805.65	4914.55
1017.1815	2904.513	5829.75	4934.6
1017.2971	2905.6308	5854.25	4962.5
1017.4127	2906.7479	5851.65	4958.55
1017.5283	2907.8643	5874.2	4981.9
1017.6439	2908.9801	5878.75	4986.2
1017.7594	2910.0953	5870.7	4978.05
1017.8748	2911.2098	5865.45	4971.4
1017.9902	2912.3236	5845.65	4946.35
1018.1056	2913.4368	5839.85	4944.5
1018.2209	2914.5494	5807.7	4913.65
1018.3362	2915.6613	5773.35	4877.5
1018.4515	2916.7725	5734.65	4840.7
1018.5667	2917.8831	5690.8	4799.75
1018.6819	2918.9931	5661.9	4767.25
1018.797	2920.1024	5637.5	4744.55
1018.9121	2921.211	5608.1	4715.35
1019.0271	2922.319	5562.6	4671.05
1019.1421	2923.4264	5542	4651.1
1019.2571	2924.5331	5524.9	4633.65
1019.372	2925.6391	5502.35	4611.3
1019.4869	2926.7445	5471.7	4582.35
1019.6017	2927.8493	5470.8	4580.3
1019.7165	2928.9534	5457.8	4563.9
1019.8313	2930.0569	5439.75	4544.4
1019.946	2931.1597	5432.3	4539
1020.0606	2932.2619	5411.6	4520
1020.1753	2933.3634	5419.35	4529.3
1020.2899	2934.4643	5383.2	4485.5
1020.4044	2935.5645	5361	4463.8
1020.5189	2936.6641	5318.7	4422.85
1020.6334	2937.763	5257.95	4367.5
1020.7478	2938.8613	5183.1	4292.7
1020.8622	2939.959	5131.25	4233.65
1020.9765	2941.056	5067.55	4176.5
1021.0908	2942.1523	4951.35	4059.35
1021.2051	2943.248	4857.5	3963.35
1021.3193	2944.3431	4758.45	3868.65
1021.4334	2945.4375	4645.65	3752.25
1021.5476	2946.5313	4539.35	3648.4
1021.6617	2947.6244	4430.45	3538.95
1021.7757	2948.7169	4319.35	3427.5
1021.8897	2949.8087	4216.25	3325.95
1022.0037	2950.8999	4122.3	3231.05
1022.1176	2951.9904	4014.4	3125.2
1022.2315	2953.0803	3947.85	3057.4
1022.3453	2954.1696	3877.1	2984.55
1022.4591	2955.2582	3813.95	2922.95
1022.5728	2956.3462	3758.2	2866.4
1022.6865	2957.4335	3710.95	2817.05
1022.8002	2958.5202	3664.9	2771.5
1022.9138	2959.6062	3621.1	2729.4
1023.0274	2960.6916	3604.55	2712.2
1023.141	2961.7764	3572.75	2681.8
1023.2545	2962.8605	3554.15	2660.05
1023.3679	2963.9439	3542.1	2652.35
1023.4813	2965.0267	3519.2	2628.3
1023.5947	2966.1089	3524.4	2610.65
1023.708	2967.1905	3495.4	2604.45
1023.8213	2968.2714	3463.25	2574.2
1023.9346	2969.3516	3457.3	2566.4
1024.0478	2970.4312	3466.25	2567.95
1024.1609	2971.5102	3456.1	2564.2
1024.274	2972.5885	3445.65	2555.8
1024.3871	2973.6662	3442.75	2545.8
1024.5002	2974.7432	3432.05	2544.7
1024.6132	2975.8196	3429.1	2539.3
1024.7261	2976.8954	3396.95	2505.3
1024.839	2977.9705	3380.8	2489.85
1024.9519	2979.045	3364.95	2472.2
1025.0647	2980.1188	3340.95	2451.3
1025.1775	2981.192	3315.25	2424.3
1025.2902	2982.2645	3288.5	2397.2
1025.4029	2983.3364	3256	2365.65
1025.5156	2984.4077	3207.5	2316.7
1025.6282	2985.4783	3175.1	2279.8
1025.7407	2986.5483	3133.95	2244.1
1025.8532	2987.6177	3118.7	2229.15
1025.9657	2988.6864	3065.75	2173.9
1026.0782	2989.7545	3029.6	2137.55
1026.1906	2990.8219	2999.8	2109.55
1026.3029	2991.8887	2954.55	2062.15
1026.4152	2992.9548	2924	2031
1026.5275	2994.0204	2881.25	1990.45
1026.6397	2995.0852	2845.3	1955.5
1026.7519	2996.1495	2824.4	1932.75
1026.864	2997.2131	2789.3	1900.35
1026.9761	2998.276	2760.1	1867.95
1027.0882	2999.3383	2756.05	1865.1
1027.2002	3000.4	2726.6	1834.4
1027.3122	3001.4611	2702.25	1811.2
1027.4241	3002.5215	2675.9	1783.85
1027.536	3003.5812	2651.85	1760.9
1027.6478	3004.6404	2637.8	1746.25
1027.7596	3005.6989	2618.6	1728.1
1027.8714	3006.7567	2611.35	1720.3
1027.9831	3007.8139	2622.25	1708.1
1028.0947	3008.8705	2597.1	1704.85
1028.2064	3009.9264	2589.95	1696.7
1028.3179	3010.9818	2562.45	1671.6
1028.4295	3012.0364	2547.05	1654.45
1028.541	3013.0905	2546.7	1656.1
1028.6524	3014.1439	2553.1	1658.5
1028.7638	3015.1966	2537.9	1646.35
1028.8752	3016.2487	2527.7	1637.2
1028.9865	3017.3002	2528.15	1628.35
1029.0978	3018.3511	2526.4	1635.9
1029.209	3019.4013	2511	1618.6
1029.3202	3020.4509	2512.1	1621.65
1029.4314	3021.4998	2515.15	1623.75
1029.5425	3022.5481	2500.45	1608
1029.6535	3023.5958	2506.8	1617.25
1029.7645	3024.6428	2494.3	1601.9
1029.8755	3025.6892	2499.95	1609.8
1029.9864	3026.735	2487.45	1597.45
1030.0973	3027.7802	2496.35	1605.65
1030.2082	3028.8247	2469.5	1579.9
1030.319	3029.8685	2464.2	1572
1030.4297	3030.9118	2465	1572.6
1030.5404	3031.9544	2471.75	1580.75
1030.6511	3032.9963	2473.7	1581.4
1030.7617	3034.0376	2481.85	1590.9
1030.8723	3035.0783	2471.4	1576.8
1030.9829	3036.1184	2479.8	1588.1
1031.0934	3037.1578	2478.15	1588.1
1031.2038	3038.1966	2474.25	1582.3
1031.3142	3039.2348	2455.45	1565.95
1031.4246	3040.2723	2475.8	1576.15
1031.5349	3041.3092	2464.65	1571.55
1031.6452	3042.3455	2444.3	1553.15
1031.7554	3043.3811	2438.65	1547.65
1031.8656	3044.4161	2434.15	1542.75
1031.9758	3045.4505	2423.9	1534
1032.0859	3046.4842	2410.85	1520.2
1032.1959	3047.5173	2393.75	1504.25
1032.3059	3048.5498	2398.9	1508
1032.4159	3049.5816	2384.45	1494.65
1032.5258	3050.6128	2365.95	1471.05
1032.6357	3051.6434	2357.65	1464.3
1032.7455	3052.6734	2354.1	1461.3
1032.8553	3053.7027	2343.4	1453.3
1032.9651	3054.7314	2329.1	1437.45
1033.0748	3055.7594	2313.55	1425
1033.1845	3056.7868	2308.5	1415.85
1033.2941	3057.8136	2300.6	1409.05
1033.4037	3058.8398	2276.85	1385.85
1033.5132	3059.8653	2275.4	1383.45
1033.6227	3060.8902	2268.35	1376.3
1033.7321	3061.9145	2265.35	1373
1033.8415	3062.9381	2248.15	1358.1
1033.9509	3063.9612	2246.55	1336.8
1034.0602	3064.9835	2219.35	1328.15
1034.1694	3066.0053	2225.75	1332.15
1034.2787	3067.0264	2199.45	1308.15
1034.3878	3068.0469	2205.05	1311.3
1034.497	3069.0668	2187.5	1294.55
1034.6061	3070.086	2170.15	1281
1034.7151	3071.1046	2167.4	1277.45
1034.8241	3072.1226	2156.95	1263.2
1034.9331	3073.1399	2136	1244.85
1035.042	3074.1567	2122.3	1231.7
1035.1508	3075.1727	2113.5	1219.7
1035.2597	3076.1882	2088.85	1197.3
1035.3684	3077.203	2085.85	1195.9
1035.4772	3078.2173	2078.3	1185.6
1035.5859	3079.2308	2068.65	1175.45
1035.6945	3080.2438	2057.75	1165.9
1035.8031	3081.2561	2034.95	1146.2
1035.9117	3082.2678	2023.85	1133.6
1036.0202	3083.2789	2012.55	1122.9
1036.1286	3084.2893	2001.1	1111.15
1036.2371	3085.2991	2004.25	1111.6
1036.3454	3086.3083	1987.95	1093.3
1036.4538	3087.3169	1987.5	1093.85
1036.562	3088.3248	1973.25	1081.3
1036.6703	3089.3321	1968.15	1076.3
1036.7785	3090.3388	1949.2	1059.8
1036.8866	3091.3449	1940.5	1048.55
1036.9948	3092.3503	1946.5	1053.15
1037.1028	3093.3551	1936.8	1048.05
1037.2108	3094.3593	1927.6	1038.9
1037.3188	3095.3629	1920	1028.55
1037.4267	3096.3658	1918.7	1027.15
1037.5346	3097.3681	1901.45	1009.75
1037.6425	3098.3698	1894.45	1003.15
1037.7503	3099.3708	1890.5	994.75
1037.858	3100.3713	1878.2	987.6
1037.9657	3101.3711	1872.9	982.05
1038.0734	3102.3702	1975.2	968.55
1038.181	3103.3688	1873.4	981.3
1038.2886	3104.3667	1861.6	970.75
1038.3961	3105.364	1855.9	965.45
1038.5036	3106.3607	1854.75	963.2
1038.611	3107.3568	1833.2	941.15
1038.7184	3108.3522	1828.15	940.05
1038.8257	3109.347	1826.35	933.85
1038.933	3110.3412	1830.55	935.1
1039.0403	3111.3348	1815.8	925.45
1039.1475	3112.3277	1805.05	913.1
1039.2547	3113.32	1806.55	915.55
1039.3618	3114.3117	1803.8	913.2
1039.4689	3115.3028	1781.4	889.85
1039.5759	3116.2932	1785.15	892.3
1039.6829	3117.2831	1787.5	890.95
1039.7898	3118.2723	1778.4	887.45
1039.8967	3119.2608	1773.15	882.5
1040.0035	3120.2488	1764.3	872.75
1040.1103	3121.2361	1758.35	867.25
1040.2171	3122.2229	1765.3	874.05
1040.3238	3123.209	1755.55	862.8
1040.4305	3124.1944	1740.75	849.55
1040.5371	3125.1793	1745.3	853.05
1040.6437	3126.1635	1742.7	851.5
1040.7502	3127.1471	1727.8	835.75
1040.8567	3128.1301	1722.2	833.45
1040.9631	3129.1125	1729.9	841.15
1041.0695	3130.0942	1714.7	825.65
1041.1759	3131.0753	1726.4	827.6
1041.2822	3132.0558	1718.3	824.1
1041.3884	3133.0357	1710.2	816.55
1041.4946	3134.015	1699.5	806.25
1041.6008	3134.9936	1705.45	813.5
1041.7069	3135.9716	1717.4	807.25
1041.813	3136.949	1694.7	803.5
1041.919	3137.9258	1692	795.3
1042.025	3138.902	1694.85	799.35
1042.1309	3139.8775	1682.5	792.3
1042.2368	3140.8524	1679.3	788.55
1042.3427	3141.8267	1670.4	777.3
1042.4485	3142.8004	1669.55	780.05
1042.5542	3143.7735	1662.6	766
1042.6599	3144.7459	1664.3	770.2
1042.7656	3145.7178	1660.35	769.25
1042.8712	3146.689	1652.8	762.1
1042.9768	3147.6596	1649.65	756.5
1043.0823	3148.6295	1649.45	757.2
1043.1878	3149.5989	1642.15	751.55
1043.2932	3150.5676	1633.3	743.25
1043.3986	3151.5357	1634.7	744.55
1043.5039	3152.5032	1627.9	739.05
1043.6092	3153.4701	1629.55	738.45
1043.7145	3154.4364	1625	730.3
1043.8197	3155.402	1616.45	726.25
1043.9248	3156.367	1622.4	731.65
1044.03	3157.3315	1654.75	720.15
1044.135	3158.2952	1603.7	711.4
1044.24	3159.2584	1598.05	707.6
1044.345	3160.221	1594.2	702.6
1044.4499	3161.1829	1590.9	700.85
1044.5548	3162.1442	1585.7	693.85
1044.6596	3163.105	1587.75	697.15
1044.7644	3164.065	1582.6	691.85
1044.8692	3165.0245	1580.35	687.9
1044.9739	3165.9834	1568.2	679.4
1045.0785	3166.9416	1566.65	675.6
1045.1831	3167.8993	1558.95	670
1045.2877	3168.8563	1559.05	668
1045.3922	3169.8127	1554.85	664.5
1045.4966	3170.7684	1557.8	666.25
1045.6011	3171.7236	1547.7	656.05
1045.7054	3172.6782	1542.25	652.1
1045.8098	3173.6321	1541.8	650
1045.914	3174.5854	1543.45	648.95
1046.0183	3175.5381	1529.1	638.7
1046.1224	3176.4902	1527.35	636.85
1046.2266	3177.4417	1523.4	633.1
1046.3307	3178.3926	1519.05	627.65
1046.4347	3179.3428	1523.9	634.45
1046.5387	3180.2924	1513.55	623.95
1046.6427	3181.2415	1505.75	614.4
1046.7466	3182.1899	1512.75	621.75
1046.8504	3183.1377	1503.5	615.1
1046.9542	3184.0848	1506.25	613.4
1047.058	3185.0314	1492.15	602.15
1047.1617	3185.9773	1497.1	605
1047.2654	3186.9227	1484.65	594.2
1047.369	3187.8674	1483.4	594.1
1047.4726	3188.8115	1482.55	587.2
1047.5761	3189.755	1476.8	586.2
1047.6796	3190.6979	1475.05	584.7
1047.783	3191.6402	1481.45	591.1
1047.8864	3192.5818	1473.3	582.6
1047.9898	3193.5229	1496.4	581
1048.0931	3194.4633	1463.7	571.95
1048.1963	3195.4031	1467.1	576.15
1048.2995	3196.3423	1458.75	568.65
1048.4027	3197.2809	1458.2	567.05
1048.5058	3198.2189	1453.1	561.25
1048.6089	3199.1563	1461.5	566.3
1048.7119	3200.0931	1443.65	554.9
1048.8148	3201.0292	1446.25	558.7
1048.9178	3201.9648	1435.1	543.55
1049.0206	3202.8997	1447.9	555.65
1049.1235	3203.834	1437.95	547.55
1049.2262	3204.7677	1433.45	543.65
1049.329	3205.7008	1437.5	545.2
1049.4317	3206.6333	1429.6	539.45
1049.5343	3207.5652	1429.25	535.65
1049.6369	3208.4964	1418.6	528.9
1049.7394	3209.4271	1417.35	527.1
1049.8419	3210.3571	1417.25	528.5
1049.9444	3211.2865	1415.15	524.25
1050.0468	3212.2154	1415.05	523.1
1050.1491	3213.1436	1415.85	523.15
1050.2514	3214.0712	1410.75	512.95
1050.3537	3214.9982	1410.45	520.05
1050.4559	3215.9246	1404.7	512.85
1050.5581	3216.8503	1400.9	512.05
1050.6602	3217.7755	1401.1	512.6
1050.7623	3218.7001	1395	503.45
1050.8643	3219.624	1392.85	503.25
1050.9663	3220.5473	1392.3	502.1
1051.0682	3221.4701	1393.4	501.8
1051.1701	3222.3922	1390.9	498.7
1051.2719	3223.3137	1386.75	497.2
1051.3737	3224.2346	1384.4	495.15
1051.4754	3225.1549	1384.5	494.1
1051.5771	3226.0746	1368.1	478.85
1051.6788	3226.9937	1375.1	485.7
1051.7804	3227.9121	1369.95	480.15
1051.8819	3228.83	1366.65	475.25
1051.9834	3229.7473	1365.4	474.15
1052.0849	3230.6639	1367.25	477.45
1052.1863	3231.5799	1363	472.45
1052.2876	3232.4954	1362.05	471
1052.3889	3233.4102	1352.45	462.15
1052.4902	3234.3244	1353.7	462.25
1052.5914	3235.238	1346.85	457.65
1052.6926	3236.151	1371.6	458.35
1052.7937	3237.0634	1341.25	451.3
1052.8948	3237.9752	1340.9	449.2
1052.9958	3238.8864	1332.4	441.85
1053.0968	3239.797	1334.6	444.75
1053.1977	3240.7069	1335	442.35
1053.2986	3241.6163	1334.2	442.05
1053.3994	3242.5251	1324.75	435.55
1053.5002	3243.4332	1325.3	437.45
1053.6009	3244.3408	1326.7	437.85
1053.7016	3245.2477	1319.7	429.65
1053.8022	3246.154	1323.5	431.95
1053.9028	3247.0598	1314.75	424.05
1054.0034	3247.9649	1306.05	417.7
1054.1039	3248.8694	1311	420.9
1054.2043	3249.7733	1306.95	417.55
1054.3047	3250.6766	1310.15	420.5
1054.4051	3251.5793	1307.9	416.7
1054.5054	3252.4814	1293.1	404.8
1054.6056	3253.3829	1291.65	401.3
1054.7058	3254.2838	1288.5	398.2
1054.806	3255.1841	1289.25	400.5
1054.9061	3256.0838	1289	400.25
1055.0061	3256.9829	1283.05	393.7
1055.1062	3257.8814	1279.05	387.65
1055.2061	3258.7792	1278.5	385.75
1055.306	3259.6765	1271.35	383.1
1055.4059	3260.5731	1266.85	373.5
1055.5057	3261.4692	1265.45	374.45
1055.6055	3262.3647	1263.4	371.7
1055.7052	3263.2595	1253.6	363.8
1055.8049	3264.1538	1251.4	362
1055.9045	3265.0474	1248.6	357.9
1056.0041	3265.9404	1238.8	350.9
1056.1036	3266.8329	1236.1	348.85
1056.2031	3267.7247	1241.2	340.35
1056.3025	3268.616	1215.55	327.45
1056.4019	3269.5066	1212.45	322.55
1056.5013	3270.3966	1210.2	319.5
1056.6005	3271.286	1191.75	304.25
