Software Version:	3.9.2.0
Unit SN:	10000200
Spectrometer SN:	6960
Date:	3/6/2024 11:06:20 AM
Data Line Index:	25
Spectral Points:	2048
Integration time (ms):	125
Averages:	20
Delay (ms):	30
Sequence Number:	1
Processing:	dark subtract
Laser Power (mW):	300
Laser Current (mA):	821
Laser Diode Temp (C):	25.1
Laser Case Temp (C):	28.4
System Temp (C):	28.3
Spectrometer Temp (C):	25.7
CCD Temp (C):	-0.006
Secondary Temp (C):	20.006
Heatsink Temp (C):	24.021
CCDPCB Temp (C):	37.396
SecondaryPCB Temp (C):	35.062

Wavelength	RamanShift	Raw Counts	Dark Subtracted
787.061	30.1047	1071.75	658.15
787.2016	32.3739	1099	687.15
787.3422	34.6426	1138.1	725.5
787.4828	36.9109	1184.6	769.45
787.6235	39.1787	1238.1	819.8
787.7642	41.4461	1293.7	872.5
787.9049	43.7131	1355.15	927.45
788.0456	45.9796	1414.8	984.7
788.1863	48.2456	1469.15	1034.95
788.3271	50.5112	1539.4	1101.2
788.4679	52.7764	1598.1	1159.2
788.6087	55.0411	1673.45	1230.3
788.7496	57.3054	1758.1	1309.45
788.8904	59.5692	1837.7	1385.15
789.0313	61.8326	1925.5	1468.9
789.1722	64.0955	2032.45	1572.15
789.3132	66.3579	2147	1681.2
789.4541	68.6199	2289	1821.5
789.5951	70.8815	2519.8	2049.45
789.7361	73.1426	2975.55	2499.05
789.8771	75.4032	4153.2	3670.9
790.0181	77.6634	7156.1	6671.7
790.1592	79.9231	14782.2	14292.2
790.3003	82.1824	47251.95	46753.05
790.4414	84.4412	65535	65017.75
790.5825	86.6995	65535	64996.6
790.7237	88.9574	65535	64977.3
790.8648	91.2148	65535	64957.5
791.006	93.4717	65535	64951.55
791.1472	95.7282	65535	64949.9
791.2885	97.9842	65535	64944.2
791.4297	100.2398	65535	64939.8
791.571	102.4949	65535	64934.85
791.7123	104.7495	65535	64933.3
791.8536	107.0036	65535	64930.25
791.9949	109.2573	65535	64932.4
792.1363	111.5105	65535	64932.7
792.2777	113.7632	65535	64926.75
792.4191	116.0154	65535	64917.95
792.5605	118.2672	65535	64926.65
792.7019	120.5185	65535	64923.3
792.8434	122.7693	65535	64919.2
792.9849	125.0197	65535	64919.35
793.1264	127.2696	65535	64915.5
793.2679	129.519	65535	64907.8
793.4094	131.7679	65535	64910.3
793.551	134.0163	65535	64901.6
793.6926	136.2642	65535	64899.4
793.8342	138.5117	65535	64892.3
793.9758	140.7587	65535	64896.1
794.1175	143.0052	65535	64894.5
794.2591	145.2512	65535	64893.5
794.4008	147.4967	65535	64891.55
794.5425	149.7417	65535	64890.65
794.6842	151.9863	65535	64887.4
794.826	154.2304	65535	64883.1
794.9677	156.4739	65535	64875.45
795.1095	158.717	65535	64878.05
795.2513	160.9596	65535	64873.2
795.3931	163.2017	65535	64873.3
795.535	165.4433	65535	64868.65
795.6768	167.6844	65535	64866.15
795.8187	169.925	65535	64864.2
795.9606	172.1651	65535	64862.45
796.1025	174.4047	65535	64857.7
796.2445	176.6439	65535	64855.35
796.3864	178.8825	65535	64855.15
796.5284	181.1206	65535	64848.6
796.6704	183.3582	65535	64844.15
796.8124	185.5954	65535	64845.55
796.9544	187.832	65535	64843.15
797.0965	190.0681	65535	64836.85
797.2386	192.3037	65535	64836.7
797.3806	194.5388	65535	64835.4
797.5228	196.7734	65535	64827.35
797.6649	199.0075	65535	64824.75
797.807	201.2411	65535	64822.5
797.9492	203.4742	65535	64824.1
798.0914	205.7068	65535	64820.3
798.2336	207.9389	65535	64822.75
798.3758	210.1704	65535	64816.85
798.518	212.4015	65535	64814.95
798.6603	214.632	65535	64822.6
798.8025	216.862	65535	64830.3
798.9448	219.0915	65535	64834.65
799.0871	221.3205	65535	64834.05
799.2294	223.549	65535	64838.55
799.3718	225.777	65535	64841.75
799.5141	228.0044	65535	64836.8
799.6565	230.2314	65535	64838.5
799.7989	232.4578	65535	64833.1
799.9413	234.6837	65535	64826.55
800.0837	236.909	65535	64825.55
800.2262	239.1339	65535	64798.9
800.3687	241.3582	65535	64814.55
800.5111	243.582	65535	64786
800.6536	245.8053	65535	64799.85
800.7961	248.0281	65535	64802.25
800.9387	250.2503	65535	64799.45
801.0812	252.472	65535	64791.3
801.2238	254.6932	65535	64790.65
801.3664	256.9139	65535	64787.6
801.509	259.134	65535	64785.85
801.6516	261.3536	65535	64790.5
801.7942	263.5727	65535	64785.9
801.9369	265.7912	65535	64787.45
802.0795	268.0092	65535	64787.8
802.2222	270.2267	65535	64783.1
802.3649	272.4436	65535	64782.1
802.5076	274.6601	65535	64775.5
802.6504	276.8759	65535	64781.85
802.7931	279.0913	65535	64782.6
802.9359	281.3061	65535	64775.05
803.0787	283.5204	65535	64774.3
803.2215	285.7341	65535	64771.2
803.3643	287.9473	65535	64758.6
803.5071	290.16	65535	64763.25
803.6499	292.3721	65535	64769.45
803.7928	294.5837	65535	64768
803.9357	296.7947	65535	64770.1
804.0786	299.0052	65535	64770.05
804.2215	301.2152	65535	64768.05
804.3644	303.4246	65535	64769.95
804.5074	305.6334	65535	64770.75
804.6503	307.8418	65535	64764.8
804.7933	310.0495	65535	64762.2
804.9363	312.2568	65535	64769.15
805.0793	314.4635	65535	64762.25
805.2223	316.6696	65535	64760.5
805.3653	318.8752	65535	64753.55
805.5084	321.0802	65535	64760.5
805.6514	323.2847	65535	64759.2
805.7945	325.4887	65535	64755.5
805.9376	327.692	65535	64755.1
806.0807	329.8949	65535	64756.85
806.2238	332.0972	65535	64755.75
806.367	334.2989	65535	64751.2
806.5101	336.5001	65535	64751.2
806.6533	338.7007	65535	64753.45
806.7965	340.9008	65535	64749.35
806.9397	343.1003	65535	64745.55
807.0829	345.2992	65535	64748.6
807.2261	347.4976	65535	64745.15
807.3693	349.6955	65535	64742.6
807.5126	351.8927	65535	64739.6
807.6559	354.0895	65535	64726.1
807.7991	356.2856	65535	64739.55
807.9424	358.4812	65535	64739.8
808.0857	360.6763	65535	64738.85
808.2291	362.8707	65535	64736.85
808.3724	365.0646	65535	64732.2
808.5158	367.258	65535	64734.95
808.6591	369.4508	65535	64728.25
808.8025	371.643	65535	64730.6
808.9459	373.8346	65535	64724.95
809.0893	376.0257	65535	64722.8
809.2327	378.2162	65535	64724.55
809.3762	380.4062	65535	64719
809.5196	382.5956	65535	64719.75
809.6631	384.7844	65535	64722.55
809.8066	386.9726	65535	64718.8
809.9501	389.1603	65535	64726.3
810.0936	391.3474	65535	64691.05
810.2371	393.5339	65535	64724.35
810.3806	395.7199	65535	64729.8
810.5241	397.9052	65535	64725.75
810.6677	400.09	65535	64729
810.8113	402.2743	65535	64728.45
810.9548	404.4579	65535	64731.6
811.0984	406.641	65535	64729.95
811.2421	408.8235	65535	64726.75
811.3857	411.0054	65535	64723.95
811.5293	413.1868	65535	64725.9
811.673	415.3675	65535	64721.15
811.8166	417.5477	65535	64724.05
811.9603	419.7273	65535	64718.6
812.104	421.9064	65535	64712.05
812.2477	424.0848	65535	64713.95
812.3914	426.2627	65535	64709.95
812.5351	428.4399	65535	64709.45
812.6788	430.6166	65535	64708.05
812.8226	432.7928	65535	64705.65
812.9663	434.9683	65535	64707.4
813.1101	437.1432	65535	64705.3
813.2539	439.3176	65535	64708.15
813.3977	441.4914	65535	64704.45
813.5415	443.6645	65535	64702.65
813.6853	445.8371	65535	64701.65
813.8291	448.0091	65535	64705.1
813.973	450.1806	65535	64702.95
814.1168	452.3514	65535	64699.35
814.2607	454.5216	65535	64692.75
814.4046	456.6913	65535	64699.6
814.5485	458.8603	65535	64703.85
814.6924	461.0288	65535	64700.5
814.8363	463.1967	65535	64700.85
814.9802	465.3639	65535	64698.8
815.1241	467.5306	65535	64697.2
815.2681	469.6967	65535	64699.85
815.412	471.8622	65535	64698.75
815.556	474.0271	65535	64699.15
815.7	476.1914	65535	64698.1
815.844	478.3551	65535	64697.35
815.988	480.5182	65535	64696.75
816.132	482.6807	65535	64696.5
816.276	484.8426	65535	64699.6
816.4201	487.0039	65535	64696.7
816.5641	489.1647	65535	64694.1
816.7082	491.3248	65535	64693.95
816.8522	493.4843	65535	64697.05
816.9963	495.6432	65535	64692.6
817.1404	497.8015	65535	64690.25
817.2845	499.9592	65535	64691.3
817.4286	502.1163	65535	64691.5
817.5727	504.2728	65535	64687.1
817.7168	506.4287	65535	64694.6
817.861	508.5839	65535	64692.2
818.0051	510.7386	65535	64688.55
818.1493	512.8927	65535	64689.7
818.2935	515.0461	65535	64687.95
818.4377	517.199	65535	64687.8
818.5818	519.3512	65535	64686.3
818.726	521.5029	65535	64681.7
818.8703	523.6539	65535	64684.35
819.0145	525.8043	65535	64687.65
819.1587	527.9541	65535	64684.85
819.303	530.1033	65535	64683.75
819.4472	532.2519	65535	64684.65
819.5915	534.3999	65535	64680.25
819.7357	536.5472	65535	64680
819.88	538.694	65535	64683.9
820.0243	540.8401	65535	64682.4
820.1686	542.9856	65535	64681.25
820.3129	545.1305	65535	64677.4
820.4572	547.2748	65535	64680.1
820.6016	549.4185	65535	64677.9
820.7459	551.5615	65535	64677.7
820.8902	553.704	65535	64678.75
821.0346	555.8458	65535	64682.1
821.1789	557.987	65535	64680.75
821.3233	560.1276	65535	64680.8
821.4677	562.2675	65535	64680
821.6121	564.4069	65535	64678.65
821.7565	566.5456	65535	64677.95
821.9009	568.6837	65535	64678.75
822.0453	570.8212	65535	64678.9
822.1897	572.958	65535	64678.9
822.3342	575.0942	65535	64676.55
822.4786	577.2299	65535	64678.05
822.6231	579.3648	65535	64675.35
822.7675	581.4992	65535	64678.95
822.912	583.6329	65535	64677.8
823.0565	585.766	65535	64676.45
823.201	587.8985	65535	64676.9
823.3454	590.0304	65535	64661.5
823.4899	592.1616	65535	64673.5
823.6345	594.2922	65535	64673.15
823.779	596.4222	65535	64671.65
823.9235	598.5515	65535	64670.65
824.068	600.6802	65535	64674.9
824.2126	602.8083	65535	64670.95
824.3571	604.9358	65535	64672.05
824.5017	607.0626	65535	64672
824.6462	609.1888	65535	64671.9
824.7908	611.3144	65535	64668.4
824.9354	613.4393	65535	64671.9
825.08	615.5636	65535	64670.75
825.2246	617.6873	65535	64667.7
825.3692	619.8103	65535	64667.5
825.5138	621.9327	65535	64667.9
825.6584	624.0544	65535	64669.15
825.803	626.1756	65535	64669.95
825.9477	628.2961	65535	64668.15
826.0923	630.4159	65535	64667.5
826.237	632.5351	65535	64670.5
826.3816	634.6537	65535	64667.2
826.5263	636.7716	65535	64668.45
826.6709	638.8889	65535	64663.65
826.8156	641.0056	65535	64667.65
826.9603	643.1216	65535	64665.4
827.105	645.237	65535	64665.25
827.2497	647.3518	65535	64667.1
827.3944	649.4659	65535	64663.05
827.5391	651.5793	65535	64666.5
827.6838	653.6922	65535	64663.95
827.8285	655.8043	65535	64663.35
827.9733	657.9159	65535	64661.5
828.118	660.0268	65535	64663.3
828.2627	662.137	65535	64661.9
828.4075	664.2466	65535	64661.9
828.5522	666.3556	65535	64662.25
828.697	668.4639	65535	64659.2
828.8418	670.5716	65535	64662
828.9865	672.6786	65535	64659.7
829.1313	674.785	65535	64657.8
829.2761	676.8907	65535	64661.05
829.4209	678.9958	65535	64661.25
829.5657	681.1002	65535	64661.9
829.7105	683.204	65535	64656.6
829.8553	685.3072	65535	64656.1
830.0001	687.4097	65535	64662.15
830.1449	689.5115	65535	64657.25
830.2898	691.6127	65535	64660.35
830.4346	693.7132	65535	64656.55
830.5794	695.8131	65535	64645.75
830.7243	697.9123	65535	64659.4
830.8691	700.0109	65535	64658.75
831.014	702.1089	65535	64659.35
831.1588	704.2061	65535	64657.45
831.3037	706.3028	65535	64652.75
831.4486	708.3987	65535	64657.4
831.5935	710.4941	65535	64655.65
831.7383	712.5887	65535	64658.4
831.8832	714.6827	65535	64653.2
832.0281	716.7761	65535	64655.6
832.173	718.8688	65535	64658.25
832.3179	720.9608	65535	64650.9
832.4628	723.0522	65535	64651.1
832.6077	725.1429	65535	64657.7
832.7527	727.233	65535	64652.9
832.8976	729.3224	65535	64651.5
833.0425	731.4112	65535	64654.2
833.1874	733.4993	65535	64653.55
833.3324	735.5867	65535	64649.95
833.4773	737.6735	65535	64653.3
833.6222	739.7596	65535	64651.9
833.7672	741.845	65535	64653.85
833.9122	743.9298	65535	64649.75
834.0571	746.014	65535	64656.1
834.2021	748.0974	65535	64651.55
834.347	750.1802	65535	64650.3
834.492	752.2624	65535	64651.95
834.637	754.3439	65535	64649.75
834.782	756.4247	65535	64642.55
834.9269	758.5048	65535	64651.2
835.0719	760.5843	65535	64650.6
835.2169	762.6631	65535	64651.9
835.3619	764.7413	65535	64653.05
835.5069	766.8188	65535	64649.25
835.6519	768.8956	65535	64649.3
835.7969	770.9718	65535	64651.3
835.9419	773.0473	65535	64651.9
836.0869	775.1221	65535	64651.65
836.232	777.1962	65535	64652.75
836.377	779.2697	65535	64652.05
836.522	781.3426	65535	64633.85
836.667	783.4147	65535	64649.6
836.8121	785.4862	65535	64649.85
836.9571	787.557	65535	64649.5
837.1021	789.6271	65535	64650.45
837.2472	791.6966	65535	64648.75
837.3922	793.7654	65535	64649.9
837.5373	795.8335	65535	64649.05
837.6823	797.901	65535	64648.5
837.8274	799.9678	65535	64648.3
837.9724	802.0339	65535	64652.05
838.1175	804.0993	65535	64637.05
838.2626	806.1641	65535	64646
838.4076	808.2282	65535	64651.3
838.5527	810.2916	65535	64648.3
838.6978	812.3544	65535	64650.65
838.8428	814.4164	65535	64652
838.9879	816.4778	65535	64645.05
839.133	818.5385	65535	64650.2
839.2781	820.5986	65535	64650.6
839.4232	822.658	65535	64648.2
839.5682	824.7166	65535	64647.15
839.7133	826.7747	65535	64646.85
839.8584	828.832	65535	64647.85
840.0035	830.8886	65535	64645.9
840.1486	832.9446	65535	64645.6
840.2937	834.9999	65535	64650.05
840.4388	837.0545	65535	64646.2
840.5839	839.1085	65535	64643.85
840.729	841.1618	65535	64643.15
840.8741	843.2143	65535	64645.1
841.0192	845.2662	65535	64647.15
841.1643	847.3175	65535	64647.4
841.3095	849.368	65535	64645.1
841.4546	851.4179	65535	64646.15
841.5997	853.467	65535	64645.95
841.7448	855.5155	65535	64647.5
841.8899	857.5633	65535	64646.9
842.0351	859.6105	65535	64647.25
842.1802	861.6569	65535	64647.8
842.3253	863.7027	65535	64645.1
842.4704	865.7478	65535	64644.4
842.6156	867.7922	65535	64646.15
842.7607	869.8359	65535	64642.75
842.9058	871.8789	65535	64646.9
843.0509	873.9212	65535	64610.85
843.1961	875.9629	65535	64646.8
843.3412	878.0039	65535	64644.9
843.4863	880.0441	65535	64646.7
843.6315	882.0837	65535	64645.5
843.7766	884.1226	65535	64642.7
843.9218	886.1609	65535	64645.5
844.0669	888.1984	65535	64647.4
844.212	890.2352	65535	64644.95
844.3572	892.2714	65535	64639.1
844.5023	894.3069	65535	64641.5
844.6475	896.3416	65535	64641.95
844.7926	898.3757	65535	64645.8
844.9377	900.4091	65535	64643.1
845.0829	902.4418	65535	64640.1
845.228	904.4739	65535	64642.3
845.3732	906.5052	65535	64642.25
845.5183	908.5358	65535	64644.35
845.6635	910.5658	65535	64638.15
845.8086	912.595	65535	64643.05
845.9538	914.6236	65535	64643.55
846.0989	916.6515	65535	64644.2
846.2441	918.6786	65535	64642.55
846.3892	920.7051	65535	64639.7
846.5344	922.7309	65535	64644.8
846.6795	924.756	65535	64642.8
846.8246	926.7804	65535	64639.1
846.9698	928.8041	65535	64638.7
847.1149	930.8272	65535	64642.05
847.2601	932.8495	65535	64640.05
847.4052	934.8711	65535	64639.95
847.5504	936.892	65535	64641.25
847.6955	938.9123	65535	64641.75
847.8407	940.9318	65535	64641.65
847.9858	942.9506	65535	64640.6
848.131	944.9688	65535	64643
848.2761	946.9862	65535	64641.2
848.4213	949.003	65535	64642.35
848.5664	951.019	65535	64639.4
848.7115	953.0344	65535	64641.2
848.8567	955.0491	65535	64640.15
849.0018	957.063	65535	64639.55
849.147	959.0763	65535	64643.6
849.2921	961.0888	65535	64643.4
849.4373	963.1007	65535	64641.3
849.5824	965.1119	65535	64642.85
849.7275	967.1223	65535	64643.1
849.8727	969.1321	65535	64642.1
850.0178	971.1412	65535	64641.25
850.1629	973.1495	65535	64641.85
850.3081	975.1572	65535	64608.6
850.4532	977.1641	65535	64641.35
850.5983	979.1704	65535	64641.4
850.7435	981.1759	65535	64636.45
850.8886	983.1808	65535	64638.35
851.0337	985.1849	65535	64633
851.1788	987.1884	65535	64635.85
851.324	989.1911	65535	64636.95
851.4691	991.1932	65535	64638.65
851.6142	993.1945	65535	64638.9
851.7593	995.1951	65535	64638.55
851.9045	997.1951	65535	64631.4
852.0496	999.1943	65535	64640.95
852.1947	1001.1928	65535	64641.35
852.3398	1003.1906	65535	64639.3
852.4849	1005.1877	65535	64638.4
852.63	1007.1841	65535	64638.55
852.7751	1009.1798	65535	64641.75
852.9202	1011.1748	65535	64640.4
853.0653	1013.1691	65535	64638.4
853.2104	1015.1627	65535	64639.8
853.3555	1017.1556	65535	64640.45
853.5006	1019.1477	65535	64639.15
853.6457	1021.1392	65535	64639.95
853.7908	1023.1299	65535	64639.8
853.9359	1025.12	65535	64641.55
854.081	1027.1093	65535	64642
854.2261	1029.0979	65535	64644.9
854.3712	1031.0859	65535	64643
854.5163	1033.0731	65535	64640.15
854.6613	1035.0596	65535	64638.9
854.8064	1037.0454	65535	64639.5
854.9515	1039.0304	65535	64639.9
855.0965	1041.0148	65535	64640.7
855.2416	1042.9985	65535	64639.8
855.3867	1044.9814	65535	64639.45
855.5317	1046.9636	65535	64636.9
855.6768	1048.9452	65535	64643.45
855.8219	1050.926	65535	64641.7
855.9669	1052.9061	65535	64642.15
856.112	1054.8855	65535	64639.65
856.257	1056.8642	65535	64641.85
856.4021	1058.8421	65535	64633.85
856.5471	1060.8194	65535	64639.95
856.6921	1062.7959	65535	64639.8
856.8372	1064.7717	65535	64638.05
856.9822	1066.7469	65535	64637.45
857.1272	1068.7213	65535	64634.65
857.2723	1070.695	65535	64642
857.4173	1072.6679	65535	64640.1
857.5623	1074.6402	65535	64641.95
857.7073	1076.6117	65535	64634.85
857.8523	1078.5826	65535	64635.3
857.9973	1080.5527	65535	64636.65
858.1423	1082.5221	65535	64637.45
858.2873	1084.4908	65535	64640.85
858.4323	1086.4587	65535	64637.95
858.5773	1088.426	65535	64641.65
858.7223	1090.3925	65535	64634.35
858.8673	1092.3584	65535	64638.2
859.0123	1094.3235	65535	64639.35
859.1573	1096.2879	65535	64639.75
859.3022	1098.2515	65535	64637.85
859.4472	1100.2145	65535	64639.05
859.5922	1102.1767	65535	64635.3
859.7371	1104.1382	65535	64641
859.8821	1106.099	65535	64636.05
860.027	1108.0591	65535	64637.55
860.172	1110.0185	65535	64639.15
860.3169	1111.9771	65535	64638.05
860.4619	1113.9351	65535	64635.95
860.6068	1115.8923	65535	64639.4
860.7517	1117.8488	65535	64636.7
860.8967	1119.8045	65535	64639.7
861.0416	1121.7596	65535	64637.2
861.1865	1123.7139	65535	64640.7
861.3314	1125.6675	65535	64642.7
861.4763	1127.6204	65535	64642.95
861.6212	1129.5726	65535	64635.1
861.7661	1131.524	65535	64638.45
861.911	1133.4748	65535	64639.6
862.0559	1135.4248	65535	64637.05
862.2008	1137.3741	65535	64637.9
862.3457	1139.3226	65535	64638.3
862.4905	1141.2705	65535	64640
862.6354	1143.2176	65535	64631.6
862.7803	1145.164	65535	64635.6
862.9251	1147.1097	65535	64638.45
863.07	1149.0546	65535	64635.75
863.2148	1150.9989	65535	64639.2
863.3597	1152.9424	65535	64639.6
863.5045	1154.8852	65535	64635.75
863.6493	1156.8272	65535	64640.65
863.7942	1158.7686	65535	64633.65
863.939	1160.7092	65535	64638.1
864.0838	1162.6491	65535	64635.65
864.2286	1164.5883	65535	64638.3
864.3734	1166.5267	65535	64639.55
864.5182	1168.4644	65535	64637.7
864.663	1170.4014	65535	64632.85
864.8078	1172.3377	65535	64636.1
864.9526	1174.2732	65535	64639.2
865.0974	1176.2081	65535	64639.25
865.2421	1178.1421	65535	64634.7
865.3869	1180.0755	65535	64639.4
865.5317	1182.0082	65535	64640.1
865.6764	1183.9401	65535	64638.5
865.8212	1185.8713	65535	64639.6
865.9659	1187.8017	65535	64639.3
866.1106	1189.7315	65535	64640.95
866.2554	1191.6605	65535	64611.35
866.4001	1193.5888	65535	64638.95
866.5448	1195.5163	65535	64641.4
866.6895	1197.4432	65535	64635.7
866.8342	1199.3693	65535	64638.1
866.9789	1201.2947	65535	64636.8
867.1236	1203.2193	65535	64638.25
867.2683	1205.1432	65535	64637.8
867.413	1207.0664	65535	64637.35
867.5576	1208.9889	65535	64637.75
867.7023	1210.9106	65535	64640.35
867.847	1212.8316	65535	64638.95
867.9916	1214.7519	65535	64628.6
868.1363	1216.6715	65535	64639.3
868.2809	1218.5903	65535	64639.8
868.4255	1220.5084	65535	64639.1
868.5701	1222.4257	65535	64636.85
868.7148	1224.3424	65535	64639.7
868.8594	1226.2583	65535	64629.5
869.004	1228.1735	65535	64637.15
869.1486	1230.0879	65535	64637.55
869.2932	1232.0016	65535	64638.15
869.4377	1233.9146	65535	64636.2
869.5823	1235.8269	65535	64638.3
869.7269	1237.7384	65535	64636.9
869.8715	1239.6492	65535	64639.45
870.016	1241.5592	65535	64636.55
870.1606	1243.4686	65535	64638.75
870.3051	1245.3772	65535	64640.25
870.4496	1247.285	65535	64639.35
870.5941	1249.1922	65535	64638.5
870.7387	1251.0986	65535	64637.5
870.8832	1253.0042	65535	64637.55
871.0277	1254.9092	65535	64639.25
871.1722	1256.8134	65535	64640.75
871.3167	1258.7169	65535	64635.25
871.4611	1260.6196	65535	64641.1
871.6056	1262.5216	65535	64635.65
871.7501	1264.4229	65535	64638.8
871.8945	1266.3234	65535	64638.55
872.039	1268.2232	65535	64636.45
872.1834	1270.1223	65535	64636.6
872.3278	1272.0207	65535	64639.55
872.4723	1273.9183	65535	64635.5
872.6167	1275.8151	65535	64640.25
872.7611	1277.7113	65535	64635.95
872.9055	1279.6067	65535	64636.4
873.0499	1281.5014	65535	64636.7
873.1943	1283.3953	65535	64633
873.3386	1285.2885	65535	64638.5
873.483	1287.181	65535	64636.5
873.6274	1289.0727	65535	64638.15
873.7717	1290.9637	65535	64639.3
873.9161	1292.854	65535	64637.15
874.0604	1294.7435	65535	64639.45
874.2047	1296.6323	65535	64638.55
874.349	1298.5204	65535	64633.1
874.4933	1300.4077	65535	64637.95
874.6376	1302.2943	65535	64637.3
874.7819	1304.1802	65535	64641.3
874.9262	1306.0653	65535	64635.1
875.0705	1307.9497	65535	64638.7
875.2147	1309.8333	65535	64639.9
875.359	1311.7162	65535	64638.5
875.5032	1313.5984	65535	64636.85
875.6475	1315.4798	65535	64629
875.7917	1317.3605	65535	64621.7
875.9359	1319.2405	65535	64636.5
876.0801	1321.1197	65535	64637.9
876.2243	1322.9982	65535	64633.6
876.3685	1324.876	65535	64638.75
876.5127	1326.753	65535	64635.25
876.6569	1328.6293	65535	64639.25
876.801	1330.5048	65535	64635.3
876.9452	1332.3796	65535	64638.4
877.0893	1334.2537	65535	64613.65
877.2335	1336.127	65535	64636.1
877.3776	1337.9996	65535	64637.3
877.5217	1339.8714	65535	64636.05
877.6658	1341.7426	65535	64593.9
877.8099	1343.6129	65535	64637
877.954	1345.4826	65535	64638.8
878.0981	1347.3515	65535	64635.5
878.2422	1349.2196	65535	64637.9
878.3862	1351.087	65535	64638.85
878.5303	1352.9537	65535	64635.8
878.6743	1354.8197	65535	64639.25
878.8184	1356.6849	65535	64636.7
878.9624	1358.5493	65535	64637.65
879.1064	1360.4131	65535	64637.4
879.2504	1362.276	65535	64639
879.3944	1364.1383	65535	64636.95
879.5384	1365.9998	65535	64632.75
879.6823	1367.8606	65535	64638.15
879.8263	1369.7206	65535	64638.1
879.9702	1371.5799	65535	64635.85
880.1142	1373.4384	65535	64637.75
880.2581	1375.2962	65535	64635.95
880.402	1377.1533	65535	64638.15
880.5459	1379.0096	65535	64636.75
880.6898	1380.8652	65535	64638.45
880.8337	1382.7201	65535	64638.8
880.9776	1384.5742	65535	64637.15
881.1215	1386.4275	65535	64636.05
881.2653	1388.2802	65535	64637.6
881.4092	1390.132	65535	64637.65
881.553	1391.9832	65535	64636.85
881.6968	1393.8336	65535	64636.5
881.8406	1395.6832	65535	64636.75
881.9844	1397.5322	65535	64637.65
882.1282	1399.3803	65535	64635.7
882.272	1401.2278	65535	64636.75
882.4158	1403.0745	65535	64638.2
882.5595	1404.9204	65535	64638.6
882.7033	1406.7656	65535	64639.2
882.847	1408.6101	65535	64638.95
882.9908	1410.4538	65535	64637.15
883.1345	1412.2968	65535	64638.15
883.2782	1414.139	65535	64638.65
883.4219	1415.9805	65535	64639.15
883.5656	1417.8213	65535	64633.1
883.7092	1419.6613	65535	64637.65
883.8529	1421.5006	65535	64638.25
883.9965	1423.3391	65535	64635.95
884.1402	1425.1769	65535	64637.95
884.2838	1427.0139	65535	64638.15
884.4274	1428.8502	65535	64637.8
884.571	1430.6858	65535	64637.25
884.7146	1432.5206	65535	64636.2
884.8582	1434.3547	65535	64637.4
885.0018	1436.188	65535	64638.15
885.1453	1438.0206	65535	64637.45
885.2889	1439.8524	65535	64637
885.4324	1441.6835	65535	64636.8
885.5759	1443.5139	65535	64636
885.7194	1445.3435	65535	64637.7
885.8629	1447.1724	65535	64640.4
886.0064	1449.0005	65535	64639.55
886.1499	1450.8279	65535	64636.9
886.2933	1452.6545	65535	64639.6
886.4368	1454.4804	65535	64638.1
886.5802	1456.3056	65535	64633.3
886.7237	1458.13	65535	64637.2
886.8671	1459.9536	65535	64637.6
887.0105	1461.7766	65535	64639.15
887.1539	1463.5987	65535	64638.2
887.2972	1465.4202	65535	64638.45
887.4406	1467.2409	65535	64637.25
887.584	1469.0608	65535	64637.1
887.7273	1470.88	65535	64638.25
887.8706	1472.6984	65535	64639.35
888.0139	1474.5161	65535	64635.4
888.1572	1476.3331	65535	64637.75
888.3005	1478.1493	65535	64635.7
888.4438	1479.9648	65535	64640.05
888.5871	1481.7795	65535	64637.4
888.7303	1483.5935	65535	64639.15
888.8736	1485.4067	65535	64637.35
889.0168	1487.2192	65535	64639
889.16	1489.031	65535	64637.65
889.3032	1490.842	65535	64640.3
889.4464	1492.6522	65535	64638.8
889.5896	1494.4618	65535	64635.9
889.7327	1496.2705	65535	64640.8
889.8759	1498.0785	65535	64639.55
890.019	1499.8858	65535	64636.75
890.1622	1501.6924	65535	64639.9
890.3053	1503.4981	65535	64641.35
890.4484	1505.3032	65535	64640.2
890.5914	1507.1075	65535	64638.2
890.7345	1508.911	65535	64640.55
890.8776	1510.7138	65535	64637.65
891.0206	1512.5159	65535	64636.45
891.1637	1514.3172	65535	64639.1
891.3067	1516.1178	65535	64639.6
891.4497	1517.9176	65535	64635.05
891.5927	1519.7166	65535	64641
891.7357	1521.515	65535	64632.4
891.8786	1523.3126	65490.3	64592.55
892.0216	1525.1094	65535	64635.55
892.1645	1526.9055	65526.3	64632
892.3074	1528.7008	65529.05	64634.65
892.4503	1530.4954	65432.9	64531.55
892.5932	1532.2893	65530.55	64636.2
892.7361	1534.0824	65392.65	64492.95
892.879	1535.8747	65217.65	64321.1
893.0218	1537.6663	65529.25	64633.15
893.1647	1539.4572	64690.55	63793.95
893.3075	1541.2473	65177.25	64279.9
893.4503	1543.0367	65055.75	64161.8
893.5931	1544.8253	64902.75	64003.95
893.7359	1546.6132	65036.65	64140.6
893.8787	1548.4003	64636.5	63732.45
894.0214	1550.1867	64512.9	63607.15
894.1642	1551.9723	64368.4	63466.35
894.3069	1553.7572	64485.25	63586.7
894.4496	1555.5414	64784.35	63889.6
894.5923	1557.3247	62997.15	62103.5
894.735	1559.1074	64456.75	63562.3
894.8777	1560.8893	63748.2	62853.9
895.0204	1562.6705	64051.5	63155.75
895.163	1564.4509	62973.7	62079.35
895.3056	1566.2305	63497.25	62602.6
895.4482	1568.0094	64164.1	63269
895.5908	1569.7876	63620.4	62724.5
895.7334	1571.565	62919.6	62023.4
895.876	1573.3417	63332.1	62436.95
896.0186	1575.1176	63096.25	62203.6
896.1611	1576.8928	62726.45	61831.9
896.3036	1578.6672	62051.95	61158.5
896.4461	1580.4409	62428.35	61535.4
896.5886	1582.2138	61543.1	60646.15
896.7311	1583.986	61697.8	60803.15
896.8736	1585.7575	60927.3	60033
897.0161	1587.5282	61053.9	60160.95
897.1585	1589.2981	61161.05	60269.05
897.3009	1591.0673	60444.6	59549.45
897.4433	1592.8358	59996.35	59102.9
897.5857	1594.6035	60384.2	59487.95
897.7281	1596.3704	60458.65	59561.6
897.8705	1598.1366	59533.3	58637.25
898.0128	1599.9021	59051.15	58157.55
898.1551	1601.6668	59693.95	58796.75
898.2975	1603.4308	59357.2	58461.8
898.4398	1605.194	59598.1	58698.35
898.5821	1606.9564	58468.95	57576.05
898.7243	1608.7182	59031.65	58133.45
898.8666	1610.4791	58432.8	57541.1
899.0088	1612.2394	58896.3	58004.25
899.1511	1613.9988	58463.35	57571.05
899.2933	1615.7576	59062.25	58168.95
899.4355	1617.5156	58985.15	58085.8
899.5776	1619.2728	59815.6	58922
899.7198	1621.0293	58722.8	57829.9
899.862	1622.785	58659.95	57764.85
900.0041	1624.54	59024.25	58127.8
900.1462	1626.2942	58413.6	57518.9
900.2883	1628.0477	57439.3	56540.15
900.4304	1629.8005	56954.35	56059
900.5725	1631.5525	57284.35	56391.6
900.7145	1633.3037	56324.2	55430.2
900.8566	1635.0542	56231.75	55338.2
900.9986	1636.804	56318.05	55425.3
901.1406	1638.553	55728.25	54714.8
901.2826	1640.3013	55658.4	54765
901.4245	1642.0488	55147.2	54251.75
901.5665	1643.7955	55327.45	54435.85
901.7085	1645.5416	54980.55	54086.25
901.8504	1647.2868	54805.55	53912.4
901.9923	1649.0313	55101.6	54208.95
902.1342	1650.7751	54878.8	53983.4
902.2761	1652.5181	54607.75	53715.5
902.4179	1654.2604	54668.2	53774.8
902.5598	1656.0019	55114.25	54223.3
902.7016	1657.7427	55003.25	54110.25
902.8434	1659.4828	55415.4	54524.75
902.9852	1661.222	55307.7	54412.55
903.127	1662.9606	55391.9	54500.25
903.2687	1664.6984	54959.75	54066.2
903.4105	1666.4354	54773.8	53878.5
903.5522	1668.1717	53857.25	52964.7
903.6939	1669.9072	53246.15	52352.5
903.8356	1671.642	52877.85	51982.35
903.9773	1673.3761	52537.55	51645.1
904.119	1675.1094	52108.3	51216.05
904.2606	1676.8419	51755.95	50864.05
904.4022	1678.5737	51409.05	50514.05
904.5439	1680.3048	51173.15	50279.95
904.6855	1682.0351	50842.4	49950.1
904.827	1683.7646	50562.35	49665.8
904.9686	1685.4934	50503.65	49611.05
905.1101	1687.2215	49994.4	49100.7
905.2517	1688.9488	49965.05	49074.15
905.3932	1690.6754	49421.05	48528.15
905.5347	1692.4012	49415.35	48524.65
905.6761	1694.1263	49254.75	48361.7
905.8176	1695.8506	49089.1	48197.2
905.9591	1697.5742	48958.25	48066.75
906.1005	1699.297	48732.35	47841.1
906.2419	1701.0191	48430.5	47537.75
906.3833	1702.7404	48242.05	47351.1
906.5246	1704.461	47919.65	47028.3
906.666	1706.1808	47739.1	46846.3
906.8073	1707.8999	47627	46734.55
906.9487	1709.6182	47451.7	46561.2
907.09	1711.3358	47340.65	46447.35
907.2313	1713.0527	47116.85	46226.55
907.3725	1714.7688	47000.05	46100.65
907.5138	1716.4841	46737.75	45845.2
907.655	1718.1987	46681.95	45784.25
907.7962	1719.9126	46507.5	45616.2
907.9374	1721.6257	46322.05	45425.95
908.0786	1723.338	46239.7	45346.2
908.2198	1725.0496	45854.5	44961.95
908.3609	1726.7605	45782.6	44887.45
908.502	1728.4706	45584.8	44691.8
908.6431	1730.18	45417.75	44521.3
908.7842	1731.8886	45273.6	44382.35
908.9253	1733.5964	45172.65	44260.4
909.0664	1735.3036	44957.65	44065.9
909.2074	1737.0099	44855.35	43965.3
909.3484	1738.7156	44750	43861.7
909.4894	1740.4204	44488.4	43593.15
909.6304	1742.1246	44398.15	43504.7
909.7714	1743.8279	44245.8	43353.65
909.9123	1745.5306	44145	43253.2
910.0532	1747.2325	44010.5	43118.2
910.1941	1748.9336	43886.9	42996.1
910.335	1750.634	43686.75	42792.95
910.4759	1752.3336	43577.75	42686.35
910.6168	1754.0325	43515.1	42623.65
910.7576	1755.7307	43327.8	42435.95
910.8984	1757.4281	43268.75	42376.7
911.0392	1759.1247	43185.7	42284.5
911.18	1760.8206	43074.1	42176.45
911.3208	1762.5158	43003.5	42107.35
911.4615	1764.2102	42731.1	41841.75
911.6022	1765.9039	42581.85	41690.9
911.7429	1767.5968	42524.75	41634.3
911.8836	1769.289	42368.25	41476.25
912.0243	1770.9804	42225.05	41332.7
912.1649	1772.6711	42184.05	41292.8
912.3056	1774.361	42004.65	41111.45
912.4462	1776.0502	41896.45	41004.95
912.5868	1777.7386	41853.35	40960.1
912.7274	1779.4263	41666.85	40776.35
912.8679	1781.1132	41616.7	40725.6
913.0084	1782.7994	41454.3	40561.2
913.149	1784.4849	41352.5	40461.2
913.2895	1786.1696	41179.4	40282.4
913.4299	1787.8535	41042.05	40150.35
913.5704	1789.5367	40910.95	40018.1
913.7108	1791.2192	40890.65	39997.9
913.8513	1792.9009	40682.85	39761.65
913.9917	1794.5818	40609.8	39718.4
914.132	1796.2621	40457.65	39568.6
914.2724	1797.9415	40333.25	39440.95
914.4128	1799.6202	40228.1	39334.6
914.5531	1801.2982	40114.75	39222.6
914.6934	1802.9755	40009.65	39117.55
914.8337	1804.6519	39915.75	39023.4
914.9739	1806.3277	39716.2	38824.1
915.1142	1808.0027	39556.25	38666.1
915.2544	1809.6769	39534	38641.4
915.3946	1811.3504	39366.45	38472.55
915.5348	1813.0231	39306.1	38412.2
915.675	1814.6951	39215	38323.4
915.8151	1816.3664	39173.85	38278.75
915.9553	1818.0369	39036.1	38145.55
916.0954	1819.7067	38860.15	37969.25
916.2355	1821.3757	38782.3	37889.55
916.3755	1823.044	38670.55	37779.45
916.5156	1824.7115	38549	37658.35
916.6556	1826.3783	38381.55	37491.6
916.7956	1828.0443	38307.95	37417.1
916.9356	1829.7096	38223.35	37330.3
917.0756	1831.3741	38167.8	37272.55
917.2155	1833.0379	38047.55	37156.8
917.3555	1834.701	37847.7	36955.65
917.4954	1836.3633	37758.2	36867.45
917.6353	1838.0248	37645.75	36749.5
917.7751	1839.6856	37640.1	36750.5
917.915	1841.3457	37566.45	36676.65
918.0548	1843.005	37439.65	36548.4
918.1946	1844.6636	37330.8	36440.9
918.3344	1846.3214	37247.05	36356.7
918.4742	1847.9785	37177.9	36287.3
918.6139	1849.6349	37039.6	36146.5
918.7537	1851.2904	36964.95	36066.55
918.8934	1852.9453	36821.2	35930.3
919.0331	1854.5994	36697.35	35802.05
919.1727	1856.2528	36661.5	35767.6
919.3124	1857.9054	36534.35	35640.85
919.452	1859.5572	36497.05	35606.45
919.5916	1861.2083	36417.3	35525.8
919.7312	1862.8587	36382.9	35492.7
919.8708	1864.5084	36275	35383.55
920.0103	1866.1572	36094.95	35203
920.1498	1867.8054	35937.1	35046.45
920.2893	1869.4528	35885.45	34992.55
920.4288	1871.0994	35772.5	34880.45
920.5683	1872.7453	35710.85	34817.25
920.7077	1874.3905	35575.6	34679.55
920.8471	1876.0349	35509.4	34618.8
920.9865	1877.6786	35460.3	34568.5
921.1259	1879.3215	35378	34488
921.2653	1880.9637	35275.05	34382.6
921.4046	1882.6051	35172.85	34283.7
921.5439	1884.2458	35118.15	34226.75
921.6832	1885.8858	34892.25	34002.4
921.8225	1887.525	34850.1	33957.15
921.9617	1889.1634	34702.95	33812.05
922.101	1890.8011	34551.85	33658.5
922.2402	1892.4381	34478.1	33587.35
922.3794	1894.0743	34467.25	33578
922.5185	1895.7098	34368.4	33476.85
922.6577	1897.3446	34231.55	33339.2
922.7968	1898.9786	34142.5	33247.9
922.9359	1900.6118	34034.85	33143.5
923.075	1902.2443	33892.05	32997.45
923.214	1903.8761	33778.95	32886.35
923.3531	1905.5071	33579.3	32684.55
923.4921	1907.1374	33477.1	32584.4
923.6311	1908.7669	33441.95	32549.9
923.77	1910.3957	33379.45	32489.55
923.909	1912.0237	33201.15	32308.9
924.0479	1913.651	33104.75	32212.75
924.1868	1915.2776	33019.35	32130.1
924.3257	1916.9034	32836.4	31946.15
924.4646	1918.5285	32658.55	31768.8
924.6034	1920.1528	32486.9	31594.85
924.7422	1921.7764	32467.85	31577.4
924.881	1923.3992	32363.3	31474.15
925.0198	1925.0213	32117.05	31225.8
925.1586	1926.6427	32042.9	31154.2
925.2973	1928.2633	32017.75	31019.45
925.436	1929.8832	31862.2	30969.15
925.5747	1931.5023	31698.4	30806.85
925.7134	1933.1207	31588.65	30697.6
925.852	1934.7383	31531.7	30640.45
925.9906	1936.3552	31361.7	30472.15
926.1292	1937.9714	31248.4	30357.65
926.2678	1939.5868	31191.2	30298.75
926.4064	1941.2015	30967	30075
926.5449	1942.8154	30867.8	29977.2
926.6834	1944.4286	30727.85	29837.1
926.8219	1946.041	30603.15	29693.25
926.9604	1947.6528	30432.45	29537.05
927.0988	1949.2637	30334.5	29442.8
927.2372	1950.8739	30245.25	29352.95
927.3756	1952.4834	30172	29280.55
927.514	1954.0921	30124.05	29233.65
927.6523	1955.7001	29960	29065.35
927.7907	1957.3074	29882.45	28990.7
927.929	1958.9139	29707.7	28818.5
928.0673	1960.5197	29655	28764.05
928.2055	1962.1247	29509.55	28619.15
928.3438	1963.729	29360.2	28470.85
928.482	1965.3325	29272.95	28357.5
928.6202	1966.9353	29162.05	28271.4
928.7584	1968.5374	29054.3	28161.55
928.8965	1970.1387	28966.2	28075.45
929.0346	1971.7393	28772.25	27881.05
929.1727	1973.3392	28697.8	27806.8
929.3108	1974.9383	28576.75	27686.5
929.4489	1976.5366	28491.55	27603
929.5869	1978.1342	28434.7	27545.55
929.7249	1979.7311	28356.6	27465.95
929.8629	1981.3273	28240.9	27348.3
930.0009	1982.9227	28155.2	27262.6
930.1388	1984.5173	27992.65	27102.5
930.2767	1986.1112	27912.9	27020.3
930.4146	1987.7044	27833.25	26944.15
930.5525	1989.2968	27780.4	26889.65
930.6904	1990.8885	27651.05	26755
930.8282	1992.4795	27591.25	26697.65
930.966	1994.0697	27539.1	26648.7
931.1038	1995.6592	27371.1	26481.2
931.2415	1997.2479	27319.8	26428.5
931.3793	1998.8359	27206.4	26316.65
931.517	2000.4232	27067.75	26175.7
931.6547	2002.0097	26971	26081.25
931.7923	2003.5955	26841.3	25950.35
931.93	2005.1805	26851.7	25959.75
932.0676	2006.7648	26712.45	25821.95
932.2052	2008.3484	26622.2	25730.9
932.3427	2009.9312	26635.55	25743.15
932.4803	2011.5133	26509.65	25621.05
932.6178	2013.0946	26404.15	25513.35
932.7553	2014.6752	26320.6	25428.9
932.8928	2016.2551	26254.45	25362.1
933.0302	2017.8342	26147.15	25257.6
933.1676	2019.4126	26018.25	25128.8
933.305	2020.9902	25918.75	25029.5
933.4424	2022.5672	25849.3	24958.7
933.5798	2024.1433	25810.35	24915.25
933.7171	2025.7188	25704.15	24815.45
933.8544	2027.2935	25638.15	24746.15
933.9917	2028.8674	25535.1	24644.75
934.129	2030.4406	25437.3	24547.55
934.2662	2032.0131	25332.9	24444.15
934.4034	2033.5849	25193.55	24296.75
934.5406	2035.1559	25138.1	24246.25
934.6778	2036.7261	25118.95	24229.05
934.8149	2038.2957	25034.15	24145.15
934.952	2039.8645	24984.85	24094.7
935.0891	2041.4325	24947.65	24054.6
935.2262	2042.9998	24800.2	23908.2
935.3632	2044.5664	24801.2	23909.8
935.5002	2046.1323	24693	23801.25
935.6372	2047.6974	24583.95	23694.45
935.7742	2049.2617	24524.75	23634.9
935.9111	2050.8254	24507.5	23595.15
936.048	2052.3883	24415.2	23522.35
936.1849	2053.9504	24324.1	23434.3
936.3218	2055.5118	24216.6	23324.3
936.4586	2057.0725	24113.85	23221.45
936.5955	2058.6325	24063.2	23173.7
936.7323	2060.1917	23989	23099
936.869	2061.7502	23907.65	23015.55
937.0058	2063.3079	23783.05	22892.9
937.1425	2064.8649	23740.5	22846.85
937.2792	2066.4212	23687.65	22796.05
937.4159	2067.9767	23589.1	22698.45
937.5525	2069.5315	23452.85	22564.15
937.6891	2071.0856	23381.3	22490.75
937.8257	2072.6389	23323.65	22432.2
937.9623	2074.1915	23174.4	22281.9
938.0989	2075.7433	23058.95	22168.75
938.2354	2077.2945	22998.95	22110.4
938.3719	2078.8448	22920.9	22031.45
938.5084	2080.3945	22838.75	21949.85
938.6448	2081.9434	22826.45	21935.3
938.7812	2083.4916	22716.7	21827.1
938.9176	2085.039	22614.3	21721.8
939.054	2086.5857	22584.8	21691.65
939.1903	2088.1317	22528.95	21638.15
939.3267	2089.677	22472.9	21581.5
939.463	2091.2215	22389	21500.6
939.5992	2092.7652	22314.65	21421.35
939.7355	2094.3083	22287.7	21397.15
939.8717	2095.8506	22252.35	21361.85
940.0079	2097.3921	22210.95	21320
940.1441	2098.933	22117.6	21226.8
940.2802	2100.4731	22023.7	21132.7
940.4163	2102.0124	21993.25	21095.6
940.5524	2103.5511	21922.9	21032.2
940.6885	2105.089	21842.6	20950.65
940.8245	2106.6261	21789.05	20899.65
940.9606	2108.1626	21721.85	20830.05
941.0965	2109.6983	21726.8	20808.75
941.2325	2111.2332	21652.6	20761.3
941.3684	2112.7675	21552.95	20659.15
941.5044	2114.301	21455.8	20561.9
941.6403	2115.8337	21411.95	20518.65
941.7761	2117.3657	21365.95	20475.9
941.912	2118.897	21329.35	20436.8
942.0478	2120.4276	21212.95	20316.7
942.1835	2121.9575	21118.1	20227.05
942.3193	2123.4866	21104.3	20201.2
942.455	2125.0149	21048.65	20156
942.5907	2126.5426	20918.6	20028.55
942.7264	2128.0695	20878	19983.65
942.8621	2129.5956	20824.8	19935
942.9977	2131.1211	20787.9	19892.8
943.1333	2132.6458	20743.35	19853.15
943.2689	2134.1698	20651.35	19759.65
943.4044	2135.693	20582.4	19692.2
943.54	2137.2155	20537.7	19645.95
943.6755	2138.7373	20489.4	19598.2
943.8109	2140.2584	20396.95	19506.45
943.9464	2141.7787	20292.75	19397.3
944.0818	2143.2983	20221.1	19330.45
944.2172	2144.8171	20104.55	19215.6
944.3526	2146.3353	20084.25	19190.45
944.4879	2147.8527	19990.95	19101.35
944.6232	2149.3693	19957.95	19066.95
944.7585	2150.8853	19905.95	19012.95
944.8938	2152.4005	19785.75	18896.25
945.029	2153.9149	19744.55	18854.1
945.1642	2155.4287	19710.05	18819.95
945.2994	2156.9417	19635.75	18742.95
945.4346	2158.454	19586.7	18693.2
945.5697	2159.9655	19536.75	18645.65
945.7048	2161.4764	19529.35	18641
945.8399	2162.9865	19429.4	18539.95
945.9749	2164.4958	19376.4	18484.9
946.1099	2166.0045	19290.5	18395.8
946.2449	2167.5124	19291.7	18400.1
946.3799	2169.0195	19220	18328.5
946.5148	2170.526	19189.5	18300.15
946.6498	2172.0317	19097.2	18207.1
946.7846	2173.5367	19023.75	18130.9
946.9195	2175.0409	19001.15	18110.4
947.0543	2176.5445	18999.8	18110.9
947.1891	2178.0473	18861.05	17969.85
947.3239	2179.5494	18803.25	17909.25
947.4587	2181.0507	18756.25	17863.15
947.5934	2182.5513	18691.8	17799.5
947.7281	2184.0512	18615.05	17723.65
947.8628	2185.5504	18569.7	17678.8
947.9974	2187.0488	18440	17549.7
948.132	2188.5465	18395.1	17504.5
948.2666	2190.0435	18278.75	17386.4
948.4012	2191.5397	18268.55	17379.05
948.5357	2193.0353	18210	17321.25
948.6702	2194.5301	18109.2	17215.5
948.8047	2196.0241	18054.05	17161.05
948.9392	2197.5175	18012.6	17119.6
949.0736	2199.0101	17928.35	17034.45
949.208	2200.502	17806.95	16916.55
949.3424	2201.9931	17751.5	16862.4
949.4767	2203.4835	17702.3	16810.15
949.611	2204.9733	17632.5	16734
949.7453	2206.4622	17598.9	16709.4
949.8796	2207.9505	17523.75	16630.1
950.0138	2209.438	17407	16517.45
950.148	2210.9248	17347.2	16454.95
950.2822	2212.4109	17294.2	16401.95
950.4164	2213.8962	17247.5	16353.45
950.5505	2215.3809	17178.95	16285.95
950.6846	2216.8648	17148.6	16257.35
950.8186	2218.3479	17123	16227.85
950.9527	2219.8304	17039.35	16146.3
951.0867	2221.3121	16957.85	16064.85
951.2207	2222.7931	16885.7	15994.6
951.3546	2224.2733	16837.2	15948.15
951.4886	2225.7529	16801	15909.15
951.6225	2227.2317	16700.2	15803.8
951.7563	2228.7098	16694.35	15804.3
951.8902	2230.1872	16616.8	15727.55
952.024	2231.6638	16602.85	15711.75
952.1578	2233.1397	16510.1	15614
952.2916	2234.6149	16457.75	15566.75
952.4253	2236.0894	16402.55	15511.15
952.559	2237.5632	16372.3	15472.15
952.6927	2239.0362	16281.6	15388.6
952.8263	2240.5085	16250.1	15360.35
952.9599	2241.9801	16164.7	15271.95
953.0935	2243.4509	16110.8	15222.45
953.2271	2244.921	16050.6	15158.45
953.3606	2246.3904	15996.5	15103.25
953.4941	2247.8591	15948.45	15056.95
953.6276	2249.3271	15896.85	15004.8
953.7611	2250.7943	15829.2	14938.15
953.8945	2252.2608	15752.65	14859.75
954.0279	2253.7266	15729.75	14837.1
954.1612	2255.1917	15681.4	14790.1
954.2946	2256.656	15633.1	14740.55
954.4279	2258.1197	15589.3	14698.7
954.5612	2259.5826	15531.7	14638.3
954.6944	2261.0447	15469.85	14578.85
954.8276	2262.5062	15419.25	14526.9
954.9608	2263.9669	15407.25	14515.35
955.094	2265.4269	15358.7	14468.9
955.2271	2266.8862	15298.15	14405.8
955.3602	2268.3448	15263.4	14371.55
955.4933	2269.8026	15195.65	14303.65
955.6264	2271.2598	15160.6	14269.55
955.7594	2272.7162	15107.15	14215.5
955.8924	2274.1719	15056.65	14165.6
956.0253	2275.6268	15014.5	14121.75
956.1583	2277.0811	14957.2	14066.65
956.2912	2278.5346	14893	14002.55
956.4241	2279.9874	14868.65	13979.8
956.5569	2281.4395	14880.3	13991.25
956.6897	2282.8908	14768.3	13871.05
956.8225	2284.3414	14734.75	13840.25
956.9553	2285.7914	14676.7	13786.15
957.088	2287.2406	14599.55	13705
957.2207	2288.689	14619.35	13728.6
957.3534	2290.1368	14552.25	13660
957.486	2291.5838	14496.95	13605.25
957.6186	2293.0302	14487.1	13594.5
957.7512	2294.4758	14411.3	13520.8
957.8838	2295.9206	14323.75	13430.7
958.0163	2297.3648	14299.45	13406.45
958.1488	2298.8082	14276.65	13384.85
958.2813	2300.251	14230.6	13340.25
958.4137	2301.693	14166.05	13272.55
958.5461	2303.1343	14124.35	13233.05
958.6785	2304.5748	14139.85	13249.7
958.8108	2306.0147	14087.35	13194.85
958.9432	2307.4538	14021.05	13128.7
959.0754	2308.8922	13944.1	13053.7
959.2077	2310.3299	13916.45	13025.5
959.3399	2311.7669	13880.8	12989.2
959.4721	2313.2031	13822.85	12931.4
959.6043	2314.6387	13773	12881.7
959.7365	2316.0735	13723.95	12832.35
959.8686	2317.5076	13704.8	12810.9
960.0006	2318.941	13649.35	12758.6
960.1327	2320.3737	13586.3	12694.4
960.2647	2321.8056	13535.15	12642.2
960.3967	2323.2369	13511.85	12620.6
960.5287	2324.6674	13480.3	12586.1
960.6606	2326.0972	13410.85	12519.05
960.7925	2327.5263	13382.8	12491.9
960.9244	2328.9547	13328.45	12436.5
961.0562	2330.3823	13277.1	12386.7
961.1881	2331.8092	13285.25	12390.55
961.3198	2333.2355	13209.75	12318.7
961.4516	2334.661	13194.5	12303.3
961.5833	2336.0858	13144.95	12252.95
961.715	2337.5098	13093.85	12203.4
961.8467	2338.9332	13090	12197.95
961.9783	2340.3558	12975.95	12080.15
962.1099	2341.7778	12966.25	12074.25
962.2415	2343.199	12911.8	12019.05
962.373	2344.6195	12854.2	11962.9
962.5045	2346.0393	12860.25	11970.5
962.636	2347.4583	12819.7	11928.5
962.7675	2348.8767	12746.6	11853.4
962.8989	2350.2943	12739	11847.5
963.0303	2351.7113	12718	11825.25
963.1617	2353.1275	12644.7	11752.75
963.293	2354.543	12641.7	11724.4
963.4243	2355.9578	12570.4	11679.85
963.5556	2357.3718	12489.3	11598.85
963.6868	2358.7852	12433.8	11538.6
963.818	2360.1978	12408.8	11518.05
963.9492	2361.6098	12346.5	11456.7
964.0803	2363.021	12328.9	11435.5
964.2114	2364.4315	12290.55	11400.85
964.3425	2365.8413	12224.25	11331.9
964.4736	2367.2504	12183.6	11293.95
964.6046	2368.6587	12118.05	11228.55
964.7356	2370.0664	12063.15	11171.65
964.8666	2371.4733	12005.95	11115.05
964.9975	2372.8795	11991.75	11101.15
965.1284	2374.285	11931.9	11040.85
965.2593	2375.6899	11872.3	10983.1
965.3901	2377.0939	11827.05	10937.35
965.5209	2378.4973	11769.85	10878
965.6517	2379.9	11731.9	10840.8
965.7825	2381.3019	11698.65	10808.75
965.9132	2382.7032	11676.3	10787.55
966.0439	2384.1037	11631.5	10741.5
966.1745	2385.5035	11558.4	10668.15
966.3051	2386.9027	11527.65	10636.85
966.4357	2388.3011	11526.65	10633.85
966.5663	2389.6987	11485	10594.3
966.6968	2391.0957	11407.8	10517.45
966.8273	2392.492	11381.75	10490.05
966.9578	2393.8876	11318.85	10429.45
967.0882	2395.2824	11265.2	10375.15
967.2186	2396.6765	11226.5	10338.15
967.349	2398.07	11174.65	10284.4
967.4793	2399.4627	11157.25	10265.95
967.6097	2400.8547	11134.7	10243.85
967.7399	2402.246	11098.5	10201.35
967.8702	2403.6366	11036.3	10144.8
968.0004	2405.0265	10950.75	10060.2
968.1306	2406.4156	10944.85	10051.55
968.2607	2407.8041	10884.15	9991.7
968.3909	2409.1918	10852.65	9959.9
968.521	2410.5789	10799.05	9909.35
968.651	2411.9652	10752.05	9859.05
968.781	2413.3508	10713.3	9824.15
968.911	2414.7358	10645.95	9755.4
969.041	2416.12	10643.95	9754.2
969.1709	2417.5035	10620.5	9730.05
969.3008	2418.8863	10570.9	9680
969.4307	2420.2684	10541.4	9649.3
969.5606	2421.6497	10504.55	9614.6
969.6904	2423.0304	10419.55	9532
969.8201	2424.4104	10402.05	9512.05
969.9499	2425.7896	10366.6	9475.05
970.0796	2427.1682	10343.65	9453.95
970.2093	2428.546	10297.1	9405.3
970.3389	2429.9232	10280.35	9386.9
970.4685	2431.2996	10261.5	9370.35
970.5981	2432.6753	10227.1	9337.2
970.7277	2434.0503	10208.9	9318.4
970.8572	2435.4246	10133.05	9243.05
970.9867	2436.7982	10104.75	9209.65
971.1161	2438.1711	10072.5	9182.8
971.2456	2439.5433	10044.7	9155.05
971.375	2440.9148	10008.5	9116.3
971.5043	2442.2856	9942.3	9051.6
971.6336	2443.6557	9930.3	9036.7
971.7629	2445.025	9897.4	9007.6
971.8922	2446.3937	9870.45	8980.7
972.0214	2447.7617	9843.3	8951.15
972.1506	2449.1289	9813.6	8922.85
972.2798	2450.4955	9781.6	8888.75
972.4089	2451.8613	9734.15	8845.15
972.538	2453.2265	9703.1	8810.85
972.6671	2454.5909	9687.5	8795.85
972.7961	2455.9546	9652.85	8762.6
972.9251	2457.3177	9633.65	8744.4
973.0541	2458.68	9579.05	8686.5
973.1831	2460.0416	9583.9	8693.8
973.312	2461.4025	9577.55	8684.75
973.4408	2462.7627	9533	8631.1
973.5697	2464.1222	9504	8613
973.6985	2465.4811	9485.05	8591.85
973.8273	2466.8392	9445.5	8555.75
973.956	2468.1966	9413.65	8520.6
974.0847	2469.5533	9402.35	8509.75
974.2134	2470.9093	9367.5	8478.05
974.3421	2472.2645	9333.55	8441.55
974.4707	2473.6191	9297.35	8407.65
974.5993	2474.973	9253.9	8362.25
974.7278	2476.3262	9252.55	8361.9
974.8563	2477.6787	9209.35	8319.15
974.9848	2479.0305	9148	8256.55
975.1132	2480.3816	9133	8240.05
975.2417	2481.7319	9097.45	8206.8
975.37	2483.0816	9078.75	8186.5
975.4984	2484.4306	9026.2	8136.55
975.6267	2485.7789	8980.75	8090.6
975.755	2487.1264	8955	8063.35
975.8833	2488.4733	8912.1	8021.45
976.0115	2489.8195	8875.45	7977.9
976.1397	2491.165	8861.3	7966.15
976.2678	2492.5097	8814.7	7922.35
976.3959	2493.8538	8777.5	7889.1
976.524	2495.1972	8712.05	7820.75
976.6521	2496.5398	8688.9	7794.6
976.7801	2497.8818	8695.7	7803.15
976.9081	2499.2231	8649.9	7757
977.036	2500.5637	8609.8	7716.75
977.164	2501.9035	8580.25	7688.2
977.2918	2503.2427	8567.25	7672.05
977.4197	2504.5812	8534.3	7644.05
977.5475	2505.919	8527.3	7634.8
977.6753	2507.256	8508.55	7616.95
977.8031	2508.5924	8463.45	7573.85
977.9308	2509.9281	8420.6	7524.4
978.0585	2511.2631	8398.1	7505.15
978.1861	2512.5974	8351.3	7461.05
978.3137	2513.9309	8333.3	7443.35
978.4413	2515.2638	8332.3	7407.25
978.5689	2516.596	8289.4	7399
978.6964	2517.9275	8241.2	7348.85
978.8239	2519.2583	8218.7	7328.05
978.9513	2520.5884	8174.9	7282.1
979.0788	2521.9178	8160.4	7269.75
979.2062	2523.2465	8140.3	7250.9
979.3335	2524.5745	8097.6	7207.45
979.4608	2525.9018	8070.6	7179
979.5881	2527.2284	8054.8	7165
979.7154	2528.5543	8027.8	7139.05
979.8426	2529.8796	7998.25	7107.95
979.9698	2531.2041	7970.5	7081.75
980.0969	2532.5279	7968.25	7076.5
980.224	2533.851	7945.7	7055.5
980.3511	2535.1735	7927.3	7037.15
980.4781	2536.4952	7868.45	6976.65
980.6052	2537.8163	7883.95	6993.55
980.7321	2539.1366	7852.1	6962.6
980.8591	2540.4562	7827.85	6935.35
980.986	2541.7752	7812.45	6919.85
981.1129	2543.0935	7827	6936.3
981.2397	2544.411	7790.55	6897.35
981.3665	2545.7279	7755.9	6865.15
981.4933	2547.0441	7743.3	6852.1
981.62	2548.3596	7737.65	6842.6
981.7467	2549.6744	7700.3	6810.6
981.8734	2550.9885	7693.7	6800.75
982.0001	2552.3019	7652.85	6760.65
982.1267	2553.6146	7649.95	6758.7
982.2532	2554.9266	7607.2	6716.25
982.3798	2556.2379	7572.15	6680.15
982.5063	2557.5485	7583.65	6694.8
982.6327	2558.8585	7539.3	6640.15
982.7592	2560.1677	7533.75	6637.8
982.8856	2561.4762	7527.5	6636.3
983.0119	2562.7841	7498.55	6604
983.1383	2564.0913	7486.35	6595.75
983.2646	2565.3977	7480.95	6591.15
983.3908	2566.7035	7416.75	6523.4
983.517	2568.0086	7422	6531
983.6432	2569.313	7416.7	6525.25
983.7694	2570.6167	7397.3	6503.1
983.8955	2571.9197	7359.2	6467.9
984.0216	2573.222	7357.25	6463.35
984.1476	2574.5236	7366.4	6473.4
984.2737	2575.8246	7325.85	6434.5
984.3996	2577.1248	7298.1	6404.5
984.5256	2578.4244	7278.2	6386.3
984.6515	2579.7232	7297.2	6405.9
984.7774	2581.0214	7284.9	6369.55
984.9032	2582.3189	7257.3	6367
985.029	2583.6157	7231.65	6336.35
985.1548	2584.9118	7213.7	6322.25
985.2806	2586.2072	7201.4	6310.4
985.4063	2587.5019	7172.4	6282.85
985.5319	2588.7959	7153.85	6264.25
985.6576	2590.0893	7154.95	6262.55
985.7832	2591.3819	7121.65	6229.8
985.9087	2592.6739	7098.9	6208.4
986.0343	2593.9652	7051.25	6159.6
986.1597	2595.2557	7062.6	6170.45
986.2852	2596.5456	7022.6	6131.75
986.4106	2597.8348	6996.8	6106.25
986.536	2599.1234	6973.2	6082.9
986.6614	2600.4112	6961.85	6070.9
986.7867	2601.6983	6934.8	6040.6
986.912	2602.9848	6909.95	6017.9
987.0372	2604.2705	6888.65	5989.1
987.1624	2605.5556	6877.85	5986.6
987.2876	2606.84	6855	5963.8
987.4128	2608.1237	6827.25	5934.45
987.5379	2609.4067	6784.4	5893.1
987.6629	2610.689	6774.75	5874.2
987.788	2611.9707	6758.1	5862
987.913	2613.2516	6726.7	5831.2
988.0379	2614.5319	6679.45	5786.85
988.1629	2615.8115	6645.15	5752.15
988.2878	2617.0903	6650.3	5756.85
988.4126	2618.3685	6584.95	5693.25
988.5375	2619.6461	6595.2	5704.3
988.6622	2620.9229	6573.15	5679.8
988.787	2622.199	6552	5661.1
988.9117	2623.4745	6538.35	5645.1
989.0364	2624.7493	6515.3	5624.65
989.161	2626.0234	6471.3	5580.1
989.2857	2627.2968	6444.85	5552.35
989.4102	2628.5695	6433.85	5540.2
989.5348	2629.8415	6420.7	5530.45
989.6593	2631.1128	6393.55	5499.55
989.7837	2632.3835	6366.55	5475.85
989.9082	2633.6535	6340.95	5450.45
990.0326	2634.9228	6337.4	5445.45
990.1569	2636.1914	6294.75	5404.45
990.2812	2637.4593	6278.5	5381
990.4055	2638.7265	6264.3	5372.7
990.5298	2639.9931	6255.4	5363.75
990.654	2641.259	6218.25	5326.45
990.7782	2642.5242	6213.45	5320.65
990.9023	2643.7887	6196.35	5304.8
991.0264	2645.0525	6182.3	5289.25
991.1505	2646.3156	6149.9	5256.6
991.2745	2647.5781	6124.6	5234.7
991.3985	2648.8398	6121.1	5231.15
991.5225	2650.1009	6101.75	5202.45
991.6464	2651.3613	6085.45	5195.1
991.7703	2652.6211	6067.55	5174.7
991.8942	2653.8801	6031.2	5141
992.018	2655.1385	6041.95	5148.8
992.1418	2656.3961	6011.5	5119
992.2655	2657.6531	5994.6	5102.75
992.3892	2658.9094	5975.3	5083.85
992.5129	2660.1651	5969.15	5078.7
992.6366	2661.42	5957.5	5066.3
992.7602	2662.6743	5948.75	5055.8
992.8837	2663.9279	5935.85	5044.55
993.0073	2665.1808	5912.8	5020.6
993.1307	2666.433	5886.4	4993.1
993.2542	2667.6846	5896.7	5006.8
993.3776	2668.9354	5858.15	4963.75
993.501	2670.1856	5834.95	4941.65
993.6244	2671.4351	5831.9	4940.8
993.7477	2672.6839	5822.7	4929.25
993.8709	2673.9321	5793.7	4901.85
993.9942	2675.1795	5797.55	4906.85
994.1174	2676.4263	5780.9	4889.05
994.2405	2677.6724	5765.85	4874.45
994.3637	2678.9179	5741.25	4849
994.4868	2680.1626	5710.6	4819.6
994.6098	2681.4067	5718.8	4827.1
994.7328	2682.6501	5692.7	4801.25
994.8558	2683.8928	5669.35	4778.35
994.9788	2685.1348	5643.85	4753.7
995.1017	2686.3761	5626.85	4736.55
995.2245	2687.6168	5610.3	4718.6
995.3474	2688.8568	5590.5	4698
995.4702	2690.0961	5573.1	4683.45
995.5929	2691.3348	5558.5	4667.85
995.7156	2692.5727	5547.15	4654.8
995.8383	2693.81	5518.7	4629.25
995.961	2695.0466	5513	4623
996.0836	2696.2826	5489.1	4597.85
996.2062	2697.5178	5487.35	4594.9
996.3287	2698.7524	5455.45	4564.7
996.4512	2699.9863	5461.45	4568.85
996.5737	2701.2195	5427.25	4535.9
996.6961	2702.452	5432.2	4538.1
996.8185	2703.6839	5404.9	4512.2
996.9408	2704.9151	5395	4503.8
997.0631	2706.1456	5364.65	4474.9
997.1854	2707.3755	5371	4479.25
997.3077	2708.6046	5340.05	4446.1
997.4299	2709.8331	5342.55	4452.55
997.552	2711.0609	5312.75	4422.3
997.6742	2712.2881	5314.45	4423.75
997.7963	2713.5145	5300.4	4407.25
997.9183	2714.7403	5301.65	4411.05
998.0403	2715.9654	5267.05	4374.95
998.1623	2717.1899	5287.9	4381.9
998.2842	2718.4136	5272.5	4381.7
998.4062	2719.6367	5277.8	4386.65
998.528	2720.8591	5258.25	4360.85
998.6498	2722.0809	5241.85	4352.05
998.7716	2723.3019	5250.2	4353.85
998.8934	2724.5223	5220.75	4329.05
999.0151	2725.7421	5235.7	4341.5
999.1368	2726.9611	5199.9	4307.1
999.2584	2728.1795	5201.6	4307.25
999.38	2729.3972	5165.3	4273.4
999.5016	2730.6142	5152.35	4253.85
999.6231	2731.8306	5122.6	4228.8
999.7446	2733.0462	5092	4198.2
999.8661	2734.2612	5048.9	4153.5
999.9875	2735.4756	5014.45	4121.2
1000.1089	2736.6892	4975.15	4081.95
1000.2302	2737.9022	4943.95	4052.25
1000.3515	2739.1145	4920.1	4028.3
1000.4728	2740.3262	4901.6	4002.3
1000.594	2741.5372	4867.75	3976.55
1000.7152	2742.7475	4842.75	3950.7
1000.8363	2743.9571	4828.2	3935.25
1000.9575	2745.1661	4805.5	3910.65
1001.0785	2746.3744	4798.6	3905.95
1001.1996	2747.582	4780.75	3890.9
1001.3206	2748.7889	4753.95	3860.75
1001.4415	2749.9952	4719.65	3826.75
1001.5625	2751.2008	4698.35	3805.45
1001.6833	2752.4057	4699.8	3806.85
1001.8042	2753.61	4672.3	3779.2
1001.925	2754.8136	4678.5	3785.35
1002.0458	2756.0165	4643.2	3752.4
1002.1665	2757.2188	4628.5	3738.2
1002.2872	2758.4204	4623.25	3731.6
1002.4078	2759.6213	4608.9	3715.05
1002.5285	2760.8215	4589.5	3695.5
1002.649	2762.0211	4564.35	3671.9
1002.7696	2763.22	4550.2	3655.75
1002.8901	2764.4182	4554.55	3662.6
1003.0106	2765.6158	4545	3653.6
1003.131	2766.8127	4519.9	3628.45
1003.2514	2768.009	4504.35	3613.7
1003.3717	2769.2045	4484.65	3594.15
1003.492	2770.3994	4485.45	3591.4
1003.6123	2771.5936	4467.8	3575.05
1003.7325	2772.7872	4450.5	3558.45
1003.8527	2773.9801	4415.35	3523
1003.9729	2775.1723	4436.4	3528.9
1004.093	2776.3639	4394.7	3502.25
1004.2131	2777.5548	4388.1	3494.7
1004.3331	2778.745	4377.35	3485.4
1004.4531	2779.9346	4361.05	3470.3
1004.5731	2781.1235	4348.25	3454.2
1004.693	2782.3117	4330.7	3439.2
1004.8129	2783.4992	4349.9	3459.15
1004.9328	2784.6861	4331	3439.35
1005.0526	2785.8723	4334.85	3442
1005.1723	2787.0579	4327.25	3434
1005.2921	2788.2428	4314.15	3424.8
1005.4118	2789.427	4301.65	3411.25
1005.5314	2790.6106	4289.1	3397.65
1005.651	2791.7935	4295.7	3404.7
1005.7706	2792.9757	4301.95	3411.2
1005.8902	2794.1573	4286.05	3392.15
1006.0097	2795.3382	4274.65	3384.95
1006.1291	2796.5184	4277	3387.5
1006.2485	2797.698	4294.15	3401.85
1006.3679	2798.8769	4301.55	3410.05
1006.4873	2800.0551	4302.15	3410.8
1006.6066	2801.2327	4299.3	3407.15
1006.7258	2802.4096	4302.55	3412
1006.8451	2803.5859	4309.25	3417.5
1006.9642	2804.7615	4319.9	3426.3
1007.0834	2805.9364	4342.1	3452.05
1007.2025	2807.1106	4357.1	3467.4
1007.3216	2808.2842	4356.1	3464.4
1007.4406	2809.4572	4389.1	3500.55
1007.5596	2810.6294	4409	3515.3
1007.6785	2811.801	4460.05	3570
1007.7975	2812.972	4482.2	3589.9
1007.9163	2814.1423	4517.3	3626.25
1008.0352	2815.3119	4547.6	3656.3
1008.154	2816.4808	4595.75	3705.3
1008.2727	2817.6491	4623.45	3730.8
1008.3914	2818.8167	4658.4	3768
1008.5101	2819.9837	4706.9	3810.55
1008.6288	2821.15	4730.05	3837.85
1008.7474	2822.3157	4771.65	3881.7
1008.8659	2823.4807	4793.05	3902.55
1008.9844	2824.645	4857.25	3964.8
1009.1029	2825.8086	4878.2	3987.95
1009.2214	2826.9716	4907.85	4016.65
1009.3398	2828.134	4934.3	4043.55
1009.4581	2829.2957	4954.55	4063.65
1009.5764	2830.4567	4986.7	4097.35
1009.6947	2831.617	4990.35	4099.7
1009.813	2832.7767	5021.55	4130.75
1009.9312	2833.9358	4985.6	4095.5
1010.0493	2835.0941	4981.25	4087.95
1010.1675	2836.2519	4960.9	4071.05
1010.2855	2837.4089	4936.95	4044.45
1010.4036	2838.5653	4922.1	4029.8
1010.5216	2839.7211	4916.05	4026.9
1010.6396	2840.8761	4921.2	4029.75
1010.7575	2842.0306	4938.9	4051.4
1010.8754	2843.1843	4963.4	4071.6
1010.9932	2844.3374	4990.2	4100.25
1011.111	2845.4899	5055.9	4163.05
1011.2288	2846.6417	5115.85	4223.65
1011.3465	2847.7928	5178.9	4288.65
1011.4642	2848.9433	5257	4364.75
1011.5818	2850.0931	5339.35	4448.5
1011.6995	2851.2422	5395.05	4501.35
1011.817	2852.3907	5466.2	4575.75
1011.9345	2853.5385	5524.9	4632.9
1012.052	2854.6857	5598.15	4681.7
1012.1695	2855.8323	5612.2	4722.05
1012.2869	2856.9781	5654.45	4762.95
1012.4042	2858.1233	5701	4810.15
1012.5216	2859.2679	5716.9	4825.45
1012.6389	2860.4118	5763.95	4872.75
1012.7561	2861.555	5779.25	4884.95
1012.8733	2862.6976	5827.6	4935.5
1012.9905	2863.8395	5838.2	4948.1
1013.1076	2864.9808	5841.3	4950.5
1013.2247	2866.1214	5858.45	4968.05
1013.3417	2867.2614	5859.65	4967.45
1013.4587	2868.4007	5874.75	4983.25
1013.5757	2869.5393	5849.1	4956.05
1013.6926	2870.6773	5868.2	4974.65
1013.8095	2871.8146	5868.25	4973.35
1013.9263	2872.9513	5891.05	4996.8
1014.0431	2874.0874	5855.3	4963.25
1014.1599	2875.2227	5831.55	4938.55
1014.2766	2876.3574	5796.35	4906.8
1014.3933	2877.4915	5774.75	4884.2
1014.51	2878.6249	5739.15	4850.4
1014.6266	2879.7577	5699.4	4804.75
1014.7431	2880.8898	5695.9	4794.4
1014.8596	2882.0212	5656	4764.15
1014.9761	2883.152	5632.65	4741.1
1015.0925	2884.2821	5595.8	4706.45
1015.2089	2885.4116	5591.45	4699.85
1015.3253	2886.5405	5576.45	4686.75
1015.4416	2887.6686	5592.6	4699.55
1015.5579	2888.7962	5571.3	4682.5
1015.6741	2889.923	5588.8	4699.1
1015.7903	2891.0493	5583.4	4693.75
1015.9065	2892.1748	5585.15	4693.1
1016.0226	2893.2997	5566.9	4675.95
1016.1387	2894.424	5588.15	4699.05
1016.2547	2895.5476	5578.65	4687.15
1016.3707	2896.6706	5614.55	4725.5
1016.4866	2897.7929	5622	4731.95
1016.6025	2898.9145	5632.45	4742.85
1016.7184	2900.0355	5653.8	4764.55
1016.8342	2901.1559	5685.5	4794.55
1016.95	2902.2756	5707.3	4815.9
1017.0658	2903.3946	5728.9	4839.4
1017.1815	2904.513	5742.2	4849.35
1017.2971	2905.6308	5767.8	4876.2
1017.4127	2906.7479	5771.25	4881.3
1017.5283	2907.8643	5793.4	4903.65
1017.6439	2908.9801	5807.15	4916
1017.7594	2910.0953	5797.55	4905.6
1017.8748	2911.2098	5793.15	4899.3
1017.9902	2912.3236	5778.95	4877.35
1018.1056	2913.4368	5752.7	4858.85
1018.2209	2914.5494	5732.6	4840.9
1018.3362	2915.6613	5699.75	4802.8
1018.4515	2916.7725	5661.45	4767.8
1018.5667	2917.8831	5637.35	4746
1018.6819	2918.9931	5591.7	4699.15
1018.797	2920.1024	5547.7	4655.95
1018.9121	2921.211	5524.2	4633.6
1019.0271	2922.319	5498.25	4609
1019.1421	2923.4264	5484.8	4595.6
1019.2571	2924.5331	5455.05	4565.3
1019.372	2925.6391	5426.9	4535.95
1019.4869	2926.7445	5426.6	4536.4
1019.6017	2927.8493	5411.2	4518
1019.7165	2928.9534	5390	4498.7
1019.8313	2930.0569	5390.9	4497.55
1019.946	2931.1597	5369.2	4476.4
1020.0606	2932.2619	5335.75	4445.8
1020.1753	2933.3634	5332.25	4440.35
1020.2899	2934.4643	5328.75	4432.8
1020.4044	2935.5645	5293.6	4395.35
1020.5189	2936.6641	5237.05	4342.25
1020.6334	2937.763	5179.7	4290.55
1020.7478	2938.8613	5129.7	4238.8
1020.8622	2939.959	5061.45	4165.2
1020.9765	2941.056	4996.3	4105.95
1021.0908	2942.1523	4880.85	3987.35
1021.2051	2943.248	4798.2	3905.95
1021.3193	2944.3431	4701.55	3811.6
1021.4334	2945.4375	4595.25	3702.05
1021.5476	2946.5313	4486.85	3597.2
1021.6617	2947.6244	4369.65	3477.9
1021.7757	2948.7169	4249.9	3357.75
1021.8897	2949.8087	4171.7	3281.1
1022.0037	2950.8999	4051.35	3162.35
1022.1176	2951.9904	3959.05	3070.75
1022.2315	2953.0803	3882.15	2991.35
1022.3453	2954.1696	3814	2923.25
1022.4591	2955.2582	3761.2	2871.4
1022.5728	2956.3462	3696.3	2804.8
1022.6865	2957.4335	3651.55	2759.8
1022.8002	2958.5202	3615.55	2721.75
1022.9138	2959.6062	3581.85	2690.35
1023.0274	2960.6916	3549.05	2659.5
1023.141	2961.7764	3517.35	2626.2
1023.2545	2962.8605	3504	2613.9
1023.3679	2963.9439	3481.15	2592.45
1023.4813	2965.0267	3474.1	2584.15
1023.5947	2966.1089	3460.7	2547.1
1023.708	2967.1905	3429.95	2539.7
1023.8213	2968.2714	3419.15	2530.6
1023.9346	2969.3516	3418.1	2527.2
1024.0478	2970.4312	3428.05	2530.5
1024.1609	2971.5102	3395.4	2505.75
1024.274	2972.5885	3386.45	2494.9
1024.3871	2973.6662	3402.65	2508.75
1024.5002	2974.7432	3371.8	2481.8
1024.6132	2975.8196	3363.4	2473.75
1024.7261	2976.8954	3352.4	2462.85
1024.839	2977.9705	3327.65	2438.2
1024.9519	2979.045	3310.3	2419.9
1025.0647	2980.1188	3286.5	2395.95
1025.1775	2981.192	3266.4	2376.8
1025.2902	2982.2645	3223.8	2333.6
1025.4029	2983.3364	3204.35	2315.4
1025.5156	2984.4077	3166.8	2277.65
1025.6282	2985.4783	3141.55	2244.5
1025.7407	2986.5483	3100.7	2209.75
1025.8532	2987.6177	3068.45	2179.85
1025.9657	2988.6864	3033.05	2141.6
1026.0782	2989.7545	2978.9	2084.8
1026.1906	2990.8219	2937	2046.6
1026.3029	2991.8887	2911.95	2018.3
1026.4152	2992.9548	2864.05	1973.8
1026.5275	2994.0204	2845.45	1956.2
1026.6397	2995.0852	2798.7	1910.15
1026.7519	2996.1495	2782.2	1890.3
1026.864	2997.2131	2751.6	1861.2
1026.9761	2998.276	2720.4	1829.65
1027.0882	2999.3383	2688.7	1797
1027.2002	3000.4	2676.6	1785
1027.3122	3001.4611	2647.4	1756.85
1027.4241	3002.5215	2627.25	1736.15
1027.536	3003.5812	2617.35	1728.2
1027.6478	3004.6404	2596.3	1705.3
1027.7596	3005.6989	2577.5	1684.65
1027.8714	3006.7567	2562.15	1672.15
1027.9831	3007.8139	2573.45	1661.5
1028.0947	3008.8705	2556.6	1664.25
1028.2064	3009.9264	2564.45	1657.25
1028.3179	3010.9818	2532.05	1640.25
1028.4295	3012.0364	2509.9	1617.4
1028.541	3013.0905	2508.6	1619.6
1028.6524	3014.1439	2504.9	1615.25
1028.7638	3015.1966	2493.2	1602.6
1028.8752	3016.2487	2486.65	1597
1028.9865	3017.3002	2476.05	1578.65
1029.0978	3018.3511	2478.85	1589.6
1029.209	3019.4013	2480	1587.9
1029.3202	3020.4509	2470.35	1579.65
1029.4314	3021.4998	2477.55	1588.6
1029.5425	3022.5481	2462.5	1572.75
1029.6535	3023.5958	2467.65	1578.3
1029.7645	3024.6428	2452.2	1559.85
1029.8755	3025.6892	2451.65	1562.4
1029.9864	3026.735	2464.4	1573.3
1030.0973	3027.7802	2439.5	1550.3
1030.2082	3028.8247	2447.75	1557
1030.319	3029.8685	2437.8	1547.5
1030.4297	3030.9118	2444.25	1553.7
1030.5404	3031.9544	2436.85	1547.35
1030.6511	3032.9963	2441.6	1552.45
1030.7617	3034.0376	2445.15	1554.05
1030.8723	3035.0783	2433.05	1539.5
1030.9829	3036.1184	2443.5	1553.7
1031.0934	3037.1578	2432.05	1541.35
1031.2038	3038.1966	2429.05	1538.4
1031.3142	3039.2348	2435.8	1545.7
1031.4246	3040.2723	2446.6	1546.7
1031.5349	3041.3092	2417.95	1525.85
1031.6452	3042.3455	2403.35	1512.1
1031.7554	3043.3811	2401.95	1511.6
1031.8656	3044.4161	2387.3	1497.25
1031.9758	3045.4505	2378.9	1491.85
1032.0859	3046.4842	2373.45	1483.25
1032.1959	3047.5173	2360.15	1471.8
1032.3059	3048.5498	2351.85	1461.25
1032.4159	3049.5816	2344.8	1454.15
1032.5258	3050.6128	2319.6	1429.35
1032.6357	3051.6434	2322.55	1431.6
1032.7455	3052.6734	2315.05	1425.95
1032.8553	3053.7027	2305.3	1415.85
1032.9651	3054.7314	2286.85	1399.8
1033.0748	3055.7594	2269.35	1378.75
1033.1845	3056.7868	2264.75	1373.7
1033.2941	3057.8136	2257.5	1368.15
1033.4037	3058.8398	2252.75	1362.9
1033.5132	3059.8653	2229.45	1340.4
1033.6227	3060.8902	2219.25	1329.85
1033.7321	3061.9145	2208.4	1318.7
1033.8415	3062.9381	2209.15	1317.75
1033.9509	3063.9612	2219.85	1315.75
1034.0602	3064.9835	2196.25	1304.9
1034.1694	3066.0053	2182.7	1292.25
1034.2787	3067.0264	2174	1285.65
1034.3878	3068.0469	2168.8	1277.1
1034.497	3069.0668	2161.55	1267.5
1034.6061	3070.086	2140.7	1251.85
1034.7151	3071.1046	2129.5	1240.85
1034.8241	3072.1226	2108.95	1219.3
1034.9331	3073.1399	2102.05	1211.7
1035.042	3074.1567	2087.55	1196.5
1035.1508	3075.1727	2078.75	1186.45
1035.2597	3076.1882	2067.45	1176.65
1035.3684	3077.203	2051.4	1161
1035.4772	3078.2173	2042.8	1148.4
1035.5859	3079.2308	2034.5	1140
1035.6945	3080.2438	2021.1	1129.25
1035.8031	3081.2561	2007.9	1120.5
1035.9117	3082.2678	1999	1111.45
1036.0202	3083.2789	1985.1	1093.35
1036.1286	3084.2893	1979.95	1091.55
1036.2371	3085.2991	1960.75	1069.25
1036.3454	3086.3083	1966.7	1073.1
1036.4538	3087.3169	1947.4	1056.55
1036.562	3088.3248	1950.7	1059.25
1036.6703	3089.3321	1934.15	1040.5
1036.7785	3090.3388	1919.9	1029.8
1036.8866	3091.3449	1907.55	1016.65
1036.9948	3092.3503	1911	1020.15
1037.1028	3093.3551	1896.5	1009.1
1037.2108	3094.3593	1895.4	1006.9
1037.3188	3095.3629	1884.45	993.2
1037.4267	3096.3658	1891	998.75
1037.5346	3097.3681	1882.6	992
1037.6425	3098.3698	1867.4	976
1037.7503	3099.3708	1865.5	968.3
1037.858	3100.3713	1851.1	960.15
1037.9657	3101.3711	1844.8	955.1
1038.0734	3102.3702	1949.55	942.8
1038.181	3103.3688	1839.25	948.55
1038.2886	3104.3667	1836.5	948.95
1038.3961	3105.364	1825.05	935.15
1038.5036	3106.3607	1827.4	934.45
1038.611	3107.3568	1816.6	925.15
1038.7184	3108.3522	1802.25	912.8
1038.8257	3109.347	1798	908.35
1038.933	3110.3412	1793.25	900.25
1039.0403	3111.3348	1785.05	893.55
1039.1475	3112.3277	1784.55	895.1
1039.2547	3113.32	1778	889.15
1039.3618	3114.3117	1767.15	878.25
1039.4689	3115.3028	1768	880.1
1039.5759	3116.2932	1766.75	876.15
1039.6829	3117.2831	1762.8	866.1
1039.7898	3118.2723	1746.45	855.4
1039.8967	3119.2608	1742.9	852.1
1040.0035	3120.2488	1745.55	855.8
1040.1103	3121.2361	1745	857.5
1040.2171	3122.2229	1737.05	849.3
1040.3238	3123.209	1733.8	845.1
1040.4305	3124.1944	1728.2	838.25
1040.5371	3125.1793	1717.75	826.6
1040.6437	3126.1635	1721.05	829.5
1040.7502	3127.1471	1710.4	819.7
1040.8567	3128.1301	1701.7	812.7
1040.9631	3129.1125	1700.6	811.45
1041.0695	3130.0942	1706.45	817.15
1041.1759	3131.0753	1704.55	805.75
1041.2822	3132.0558	1691.6	797.05
1041.3884	3133.0357	1687.85	796
1041.4946	3134.015	1677.15	788.3
1041.6008	3134.9936	1677.9	785.3
1041.7069	3135.9716	1701.95	789.25
1041.813	3136.949	1673.5	784.05
1041.919	3137.9258	1676.75	781.35
1042.025	3138.902	1657.2	763.15
1042.1309	3139.8775	1658.2	768.8
1042.2368	3140.8524	1660.9	771.45
1042.3427	3141.8267	1653.6	762.45
1042.4485	3142.8004	1652.15	761.1
1042.5542	3143.7735	1656.45	758.35
1042.6599	3144.7459	1644.85	750.95
1042.7656	3145.7178	1639.15	751.1
1042.8712	3146.689	1631.5	743.3
1042.9768	3147.6596	1626.5	734.85
1043.0823	3148.6295	1625.2	736.85
1043.1878	3149.5989	1620.6	732.9
1043.2932	3150.5676	1604.95	716.15
1043.3986	3151.5357	1602.6	714.3
1043.5039	3152.5032	1608.2	718.9
1043.6092	3153.4701	1599.55	710
1043.7145	3154.4364	1597.15	703.25
1043.8197	3155.402	1597.6	708.05
1043.9248	3156.367	1589.95	697.5
1044.03	3157.3315	1615.7	688.6
1044.135	3158.2952	1579.75	689.85
1044.24	3159.2584	1578	689.45
1044.345	3160.221	1576.85	685.9
1044.4499	3161.1829	1564.2	674.95
1044.5548	3162.1442	1563.45	675.4
1044.6596	3163.105	1564.45	677.25
1044.7644	3164.065	1560.1	671.2
1044.8692	3165.0245	1560	667.8
1044.9739	3165.9834	1544.3	655.65
1045.0785	3166.9416	1544.25	655.9
1045.1831	3167.8993	1545.35	654.6
1045.2877	3168.8563	1536.2	646.5
1045.3922	3169.8127	1529.95	640.55
1045.4966	3170.7684	1532.45	642.8
1045.6011	3171.7236	1530.3	640.1
1045.7054	3172.6782	1525.05	635.05
1045.8098	3173.6321	1522.25	631.75
1045.914	3174.5854	1518	625.2
1046.0183	3175.5381	1517.45	625.2
1046.1224	3176.4902	1506.4	616.65
1046.2266	3177.4417	1512.95	621.35
1046.3307	3178.3926	1510.45	619.75
1046.4347	3179.3428	1498.6	609.65
1046.5387	3180.2924	1496.4	606.55
1046.6427	3181.2415	1493.1	602.55
1046.7466	3182.1899	1485.65	594
1046.8504	3183.1377	1485.35	595.6
1046.9542	3184.0848	1484.65	591.1
1047.058	3185.0314	1476.6	586
1047.1617	3185.9773	1472.65	583.15
1047.2654	3186.9227	1474.1	586.8
1047.369	3187.8674	1464.65	575.9
1047.4726	3188.8115	1470.45	577.45
1047.5761	3189.755	1462.75	572.2
1047.6796	3190.6979	1457.5	567.7
1047.783	3191.6402	1461.9	572.85
1047.8864	3192.5818	1455.3	566.15
1047.9898	3193.5229	1481.45	568.9
1048.0931	3194.4633	1448.5	559.55
1048.1963	3195.4031	1447.9	559.85
1048.2995	3196.3423	1445.75	557.05
1048.4027	3197.2809	1439.8	550.8
1048.5058	3198.2189	1439.95	549.4
1048.6089	3199.1563	1448.7	542.8
1048.7119	3200.0931	1434.9	546.4
1048.8148	3201.0292	1425.8	539.1
1048.9178	3201.9648	1428.95	540.1
1049.0206	3202.8997	1423.65	531.5
1049.1235	3203.834	1419.9	529.85
1049.2262	3204.7677	1421.15	532.45
1049.329	3205.7008	1424.95	533.8
1049.4317	3206.6333	1408.65	518.9
1049.5343	3207.5652	1410.8	521.1
1049.6369	3208.4964	1413.05	523.85
1049.7394	3209.4271	1403.7	515.55
1049.8419	3210.3571	1401.6	513.05
1049.9444	3211.2865	1403.45	513
1050.0468	3212.2154	1402.3	512.5
1050.1491	3213.1436	1399.4	506.55
1050.2514	3214.0712	1403.9	508.6
1050.3537	3214.9982	1390.1	500.95
1050.4559	3215.9246	1382.65	492.1
1050.5581	3216.8503	1381.75	493.85
1050.6602	3217.7755	1391.7	502.85
1050.7623	3218.7001	1380	490.95
1050.8643	3219.624	1377.4	487.65
1050.9663	3220.5473	1371.45	482.2
1051.0682	3221.4701	1374.5	483.6
1051.1701	3222.3922	1369.85	480
1051.2719	3223.3137	1365.45	476.65
1051.3737	3224.2346	1373.5	484.9
1051.4754	3225.1549	1364.55	476.6
1051.5771	3226.0746	1362.1	472.45
1051.6788	3226.9937	1358.2	469.1
1051.7804	3227.9121	1354.35	464
1051.8819	3228.83	1350.8	462.4
1051.9834	3229.7473	1349.55	458.65
1052.0849	3230.6639	1345.45	455.6
1052.1863	3231.5799	1347	460
1052.2876	3232.4954	1342.9	453.55
1052.3889	3233.4102	1342.75	454.9
1052.4902	3234.3244	1337.4	446.7
1052.5914	3235.238	1330	442.2
1052.6926	3236.151	1353.2	440.6
1052.7937	3237.0634	1324.25	436.95
1052.8948	3237.9752	1328.8	440.85
1052.9958	3238.8864	1323.95	432.6
1053.0968	3239.797	1322.2	432.65
1053.1977	3240.7069	1317.15	427.6
1053.2986	3241.6163	1326.9	435.3
1053.3994	3242.5251	1311.35	422.8
1053.5002	3243.4332	1311.15	424.15
1053.6009	3244.3408	1311.65	422.95
1053.7016	3245.2477	1308.2	419.6
1053.8022	3246.154	1302.8	410.2
1053.9028	3247.0598	1305.65	415.8
1054.0034	3247.9649	1297	406.8
1054.1039	3248.8694	1300.7	411.65
1054.2043	3249.7733	1293.65	405.5
1054.3047	3250.6766	1292.2	403.7
1054.4051	3251.5793	1288.35	399.15
1054.5054	3252.4814	1282.55	393.55
1054.6056	3253.3829	1281	391.95
1054.7058	3254.2838	1285.1	396.15
1054.806	3255.1841	1278.7	391.75
1054.9061	3256.0838	1277.45	387.7
1055.0061	3256.9829	1271	384.55
1055.1062	3257.8814	1272.4	380.65
1055.2061	3258.7792	1267.15	375.85
1055.306	3259.6765	1267.35	378
1055.4059	3260.5731	1259.75	371.35
1055.5057	3261.4692	1252.15	362.95
1055.6055	3262.3647	1251.4	362.55
1055.7052	3263.2595	1243.45	355.9
1055.8049	3264.1538	1237.3	349
1055.9045	3265.0474	1233.65	345.05
1056.0041	3265.9404	1224.6	335.9
1056.1036	3266.8329	1218.35	328.95
1056.2031	3267.7247	1220.55	320.8
1056.3025	3268.616	1207.6	317.45
1056.4019	3269.5066	1203.85	314.6
1056.5013	3270.3966	1194	302.75
1056.6005	3271.286	1187.9	300.1
