Software Version:	3.9.2.0
Unit SN:	10000200
Spectrometer SN:	6960
Date:	3/6/2024 10:44:20 AM
Data Line Index:	25
Spectral Points:	2048
Integration time (ms):	125
Averages:	20
Delay (ms):	30
Sequence Number:	1
Processing:	dark subtract
Laser Power (mW):	300
Laser Current (mA):	821
Laser Diode Temp (C):	25.1
Laser Case Temp (C):	27.2
System Temp (C):	27
Spectrometer Temp (C):	24.4
CCD Temp (C):	0.007
Secondary Temp (C):	20.007
Heatsink Temp (C):	22.809
CCDPCB Temp (C):	36.563
SecondaryPCB Temp (C):	34.061

Wavelength	RamanShift	Raw Counts	Dark Subtracted
787.061	30.1047	1120.55	708.1
787.2016	32.3739	1142.8	731.95
787.3422	34.6426	1191.1	777.2
787.4828	36.9109	1238.85	823.45
787.6235	39.1787	1289.8	870.9
787.7642	41.4461	1358.6	936.3
787.9049	43.7131	1410.8	983.7
788.0456	45.9796	1479.05	1050.35
788.1863	48.2456	1542.75	1109.35
788.3271	50.5112	1626.85	1188
788.4679	52.7764	1692.4	1253.55
788.6087	55.0411	1762.65	1321
788.7496	57.3054	1847.4	1399.3
788.8904	59.5692	1939.65	1487.1
789.0313	61.8326	2043.2	1588.4
789.1722	64.0955	2138.5	1678.85
789.3132	66.3579	2269.35	1805.65
789.4541	68.6199	2428.6	1961.6
789.5951	70.8815	2673.25	2204.85
789.7361	73.1426	3184.75	2710.15
789.8771	75.4032	4488	4007.4
790.0181	77.6634	7790	7306.1
790.1592	79.9231	16341	15851.1
790.3003	82.1824	53487.05	52988.9
790.4414	84.4412	65535	65018.35
790.5825	86.6995	65535	64988.6
790.7237	88.9574	65535	64968.1
790.8648	91.2148	65535	64947.9
791.006	93.4717	65535	64937.3
791.1472	95.7282	65535	64930.15
791.2885	97.9842	65535	64926.35
791.4297	100.2398	65535	64924.1
791.571	102.4949	65535	64920.65
791.7123	104.7495	65535	64921.55
791.8536	107.0036	65535	64918.75
791.9949	109.2573	65535	64918.35
792.1363	111.5105	65535	64917.5
792.2777	113.7632	65535	64913.8
792.4191	116.0154	65535	64902.5
792.5605	118.2672	65535	64910.2
792.7019	120.5185	65535	64911.8
792.8434	122.7693	65535	64907.05
792.9849	125.0197	65535	64903.7
793.1264	127.2696	65535	64902.45
793.2679	129.519	65535	64896.35
793.4094	131.7679	65535	64892.45
793.551	134.0163	65535	64890.5
793.6926	136.2642	65535	64886.35
793.8342	138.5117	65535	64875.7
793.9758	140.7587	65535	64885.6
794.1175	143.0052	65535	64878.5
794.2591	145.2512	65535	64880.35
794.4008	147.4967	65535	64881.55
794.5425	149.7417	65535	64877.9
794.6842	151.9863	65535	64874.25
794.826	154.2304	65535	64870.5
794.9677	156.4739	65535	64864.4
795.1095	158.717	65535	64863.3
795.2513	160.9596	65535	64856.65
795.3931	163.2017	65535	64855.85
795.535	165.4433	65535	64857.05
795.6768	167.6844	65535	64850.55
795.8187	169.925	65535	64848.05
795.9606	172.1651	65535	64851.3
796.1025	174.4047	65535	64846.65
796.2445	176.6439	65535	64842.75
796.3864	178.8825	65535	64838.65
796.5284	181.1206	65535	64836.8
796.6704	183.3582	65535	64831.25
796.8124	185.5954	65535	64829.15
796.9544	187.832	65535	64828.2
797.0965	190.0681	65535	64824.35
797.2386	192.3037	65535	64819.65
797.3806	194.5388	65535	64820.15
797.5228	196.7734	65535	64817.7
797.6649	199.0075	65535	64813.2
797.807	201.2411	65535	64811.75
797.9492	203.4742	65535	64812.2
798.0914	205.7068	65535	64810.35
798.2336	207.9389	65535	64806.95
798.3758	210.1704	65535	64803.85
798.518	212.4015	65535	64811.15
798.6603	214.632	65535	64813.5
798.8025	216.862	65535	64823.15
798.9448	219.0915	65535	64825.25
799.0871	221.3205	65535	64824.35
799.2294	223.549	65535	64827.65
799.3718	225.777	65535	64825.55
799.5141	228.0044	65535	64823.7
799.6565	230.2314	65535	64824.65
799.7989	232.4578	65535	64818.5
799.9413	234.6837	65535	64810.65
800.0837	236.909	65535	64812.85
800.2262	239.1339	65535	64783.9
800.3687	241.3582	65535	64800.3
800.5111	243.582	65535	64768.2
800.6536	245.8053	65535	64779.65
800.7961	248.0281	65535	64786.65
800.9387	250.2503	65535	64782.15
801.0812	252.472	65535	64779.35
801.2238	254.6932	65535	64774.8
801.3664	256.9139	65535	64779.65
801.509	259.134	65535	64777.75
801.6516	261.3536	65535	64774.4
801.7942	263.5727	65535	64775.05
801.9369	265.7912	65535	64772.65
802.0795	268.0092	65535	64771.7
802.2222	270.2267	65535	64770.55
802.3649	272.4436	65535	64772.05
802.5076	274.6601	65535	64763.6
802.6504	276.8759	65535	64764.8
802.7931	279.0913	65535	64764.65
802.9359	281.3061	65535	64764.85
803.0787	283.5204	65535	64761.3
803.2215	285.7341	65535	64757.8
803.3643	287.9473	65535	64744.3
803.5071	290.16	65535	64749.2
803.6499	292.3721	65535	64760.35
803.7928	294.5837	65535	64759.45
803.9357	296.7947	65535	64757.15
804.0786	299.0052	65535	64756.55
804.2215	301.2152	65535	64756.25
804.3644	303.4246	65535	64758.55
804.5074	305.6334	65535	64756.7
804.6503	307.8418	65535	64754.15
804.7933	310.0495	65535	64753.1
804.9363	312.2568	65535	64757.3
805.0793	314.4635	65535	64749
805.2223	316.6696	65535	64746.3
805.3653	318.8752	65535	64742.7
805.5084	321.0802	65535	64752.55
805.6514	323.2847	65535	64744.25
805.7945	325.4887	65535	64745.5
805.9376	327.692	65535	64745.8
806.0807	329.8949	65535	64743.35
806.2238	332.0972	65535	64740
806.367	334.2989	65535	64738.65
806.5101	336.5001	65535	64740.1
806.6533	338.7007	65535	64737.3
806.7965	340.9008	65535	64735.9
806.9397	343.1003	65535	64735.05
807.0829	345.2992	65535	64732.5
807.2261	347.4976	65535	64732.1
807.3693	349.6955	65535	64726.65
807.5126	351.8927	65535	64727.15
807.6559	354.0895	65535	64718.1
807.7991	356.2856	65535	64727.65
807.9424	358.4812	65535	64728.45
808.0857	360.6763	65535	64728.15
808.2291	362.8707	65535	64719.75
808.3724	365.0646	65535	64719.65
808.5158	367.258	65535	64719.85
808.6591	369.4508	65535	64715.25
808.8025	371.643	65535	64716.2
808.9459	373.8346	65535	64712.45
809.0893	376.0257	65535	64706.7
809.2327	378.2162	65535	64711.45
809.3762	380.4062	65535	64707.95
809.5196	382.5956	65535	64708.55
809.6631	384.7844	65535	64713.2
809.8066	386.9726	65535	64712.2
809.9501	389.1603	65535	64714.65
810.0936	391.3474	65535	64677.1
810.2371	393.5339	65535	64714.4
810.3806	395.7199	65535	64721
810.5241	397.9052	65535	64717.6
810.6677	400.09	65535	64718.75
810.8113	402.2743	65535	64716.5
810.9548	404.4579	65535	64717.35
811.0984	406.641	65535	64716.2
811.2421	408.8235	65535	64712.2
811.3857	411.0054	65535	64714.95
811.5293	413.1868	65535	64709.1
811.673	415.3675	65535	64707.75
811.8166	417.5477	65535	64706.55
811.9603	419.7273	65535	64703
812.104	421.9064	65535	64696.85
812.2477	424.0848	65535	64701.85
812.3914	426.2627	65535	64697.3
812.5351	428.4399	65535	64700.25
812.6788	430.6166	65535	64694.3
812.8226	432.7928	65535	64693.2
812.9663	434.9683	65535	64694.7
813.1101	437.1432	65535	64692.15
813.2539	439.3176	65535	64696.6
813.3977	441.4914	65535	64689.35
813.5415	443.6645	65535	64689.9
813.6853	445.8371	65535	64696.3
813.8291	448.0091	65535	64692.9
813.973	450.1806	65535	64694.85
814.1168	452.3514	65535	64690
814.2607	454.5216	65535	64681.05
814.4046	456.6913	65535	64688.5
814.5485	458.8603	65535	64689.9
814.6924	461.0288	65535	64692.15
814.8363	463.1967	65535	64690.3
814.9802	465.3639	65535	64687.45
815.1241	467.5306	65535	64686.45
815.2681	469.6967	65535	64688.2
815.412	471.8622	65535	64686.8
815.556	474.0271	65535	64689.85
815.7	476.1914	65535	64684.15
815.844	478.3551	65535	64687.55
815.988	480.5182	65535	64686
816.132	482.6807	65535	64684.45
816.276	484.8426	65535	64686.95
816.4201	487.0039	65535	64686
816.5641	489.1647	65535	64684.95
816.7082	491.3248	65535	64687.5
816.8522	493.4843	65535	64683.15
816.9963	495.6432	65535	64682.05
817.1404	497.8015	65535	64676.5
817.2845	499.9592	65535	64682.6
817.4286	502.1163	65535	64683.65
817.5727	504.2728	65535	64680.5
817.7168	506.4287	65535	64684.6
817.861	508.5839	65535	64680.3
818.0051	510.7386	65535	64680.65
818.1493	512.8927	65535	64679.1
818.2935	515.0461	65535	64678.65
818.4377	517.199	65535	64678.1
818.5818	519.3512	65535	64674.85
818.726	521.5029	65535	64669.3
818.8703	523.6539	65535	64673.9
819.0145	525.8043	65535	64672.7
819.1587	527.9541	65535	64672.1
819.303	530.1033	65535	64674.5
819.4472	532.2519	65535	64673.15
819.5915	534.3999	65535	64670.5
819.7357	536.5472	65535	64670.95
819.88	538.694	65535	64673.55
820.0243	540.8401	65535	64673.15
820.1686	542.9856	65535	64668.1
820.3129	545.1305	65535	64666.9
820.4572	547.2748	65535	64669.65
820.6016	549.4185	65535	64665.5
820.7459	551.5615	65535	64668.1
820.8902	553.704	65535	64667.5
821.0346	555.8458	65535	64668
821.1789	557.987	65535	64669.9
821.3233	560.1276	65535	64667.6
821.4677	562.2675	65535	64665.8
821.6121	564.4069	65535	64671.05
821.7565	566.5456	65535	64672.1
821.9009	568.6837	65535	64667.8
822.0453	570.8212	65535	64668.7
822.1897	572.958	65535	64664.75
822.3342	575.0942	65535	64670.5
822.4786	577.2299	65535	64666
822.6231	579.3648	65535	64666.55
822.7675	581.4992	65535	64671.85
822.912	583.6329	65535	64671.3
823.0565	585.766	65535	64667.75
823.201	587.8985	65535	64669.8
823.3454	590.0304	65535	64643.6
823.4899	592.1616	65535	64662.75
823.6345	594.2922	65535	64667
823.779	596.4222	65535	64661.7
823.9235	598.5515	65535	64662
824.068	600.6802	65535	64663.4
824.2126	602.8083	65535	64663.6
824.3571	604.9358	65535	64661.45
824.5017	607.0626	65535	64660
824.6462	609.1888	65535	64661.05
824.7908	611.3144	65535	64661.05
824.9354	613.4393	65535	64659.1
825.08	615.5636	65535	64659.8
825.2246	617.6873	65535	64658.35
825.3692	619.8103	65535	64658.2
825.5138	621.9327	65535	64655.7
825.6584	624.0544	65535	64661.45
825.803	626.1756	65535	64661
825.9477	628.2961	65535	64657.95
826.0923	630.4159	65535	64657.85
826.237	632.5351	65535	64656.55
826.3816	634.6537	65535	64657.85
826.5263	636.7716	65535	64655.05
826.6709	638.8889	65535	64655.85
826.8156	641.0056	65535	64655.8
826.9603	643.1216	65535	64652.15
827.105	645.237	65535	64651.35
827.2497	647.3518	65535	64656.5
827.3944	649.4659	65535	64655.55
827.5391	651.5793	65535	64656.15
827.6838	653.6922	65535	64657.05
827.8285	655.8043	65535	64656.8
827.9733	657.9159	65535	64654.65
828.118	660.0268	65535	64649.75
828.2627	662.137	65535	64653.2
828.4075	664.2466	65535	64653.3
828.5522	666.3556	65535	64649.9
828.697	668.4639	65535	64653.7
828.8418	670.5716	65535	64652.4
828.9865	672.6786	65535	64651.15
829.1313	674.785	65535	64648.4
829.2761	676.8907	65535	64648.05
829.4209	678.9958	65535	64652.65
829.5657	681.1002	65535	64649.05
829.7105	683.204	65535	64646.05
829.8553	685.3072	65535	64646.8
830.0001	687.4097	65535	64650.4
830.1449	689.5115	65535	64647.35
830.2898	691.6127	65535	64649.9
830.4346	693.7132	65535	64647.7
830.5794	695.8131	65535	64634.45
830.7243	697.9123	65535	64645.45
830.8691	700.0109	65535	64646.9
831.014	702.1089	65535	64651.1
831.1588	704.2061	65535	64651.15
831.3037	706.3028	65535	64645.8
831.4486	708.3987	65535	64644.85
831.5935	710.4941	65535	64649.4
831.7383	712.5887	65535	64647.2
831.8832	714.6827	65535	64644
832.0281	716.7761	65535	64646.9
832.173	718.8688	65535	64646.95
832.3179	720.9608	65535	64641.1
832.4628	723.0522	65535	64641.45
832.6077	725.1429	65535	64645.7
832.7527	727.233	65535	64644.1
832.8976	729.3224	65535	64644.85
833.0425	731.4112	65535	64644.45
833.1874	733.4993	65535	64643.15
833.3324	735.5867	65535	64640.9
833.4773	737.6735	65535	64643.85
833.6222	739.7596	65535	64642.6
833.7672	741.845	65535	64644.35
833.9122	743.9298	65535	64640.4
834.0571	746.014	65535	64644.25
834.2021	748.0974	65535	64638.15
834.347	750.1802	65535	64640.65
834.492	752.2624	65535	64643.1
834.637	754.3439	65535	64642.4
834.782	756.4247	65535	64635.25
834.9269	758.5048	65535	64640.65
835.0719	760.5843	65535	64643.85
835.2169	762.6631	65535	64641.05
835.3619	764.7413	65535	64639.95
835.5069	766.8188	65535	64639.1
835.6519	768.8956	65535	64638.05
835.7969	770.9718	65535	64639.25
835.9419	773.0473	65535	64641.25
836.0869	775.1221	65535	64643.6
836.232	777.1962	65535	64642.25
836.377	779.2697	65535	64639.9
836.522	781.3426	65535	64620.95
836.667	783.4147	65535	64636.75
836.8121	785.4862	65535	64642.4
836.9571	787.557	65535	64641.45
837.1021	789.6271	65535	64641.3
837.2472	791.6966	65535	64639.25
837.3922	793.7654	65535	64639.45
837.5373	795.8335	65535	64637.65
837.6823	797.901	65535	64640
837.8274	799.9678	65535	64637.4
837.9724	802.0339	65535	64639.9
838.1175	804.0993	65535	64631.15
838.2626	806.1641	65535	64637.8
838.4076	808.2282	65535	64639.55
838.5527	810.2916	65535	64637.95
838.6978	812.3544	65535	64641.5
838.8428	814.4164	65535	64640.15
838.9879	816.4778	65535	64639.9
839.133	818.5385	65535	64636.7
839.2781	820.5986	65535	64641
839.4232	822.658	65535	64635.55
839.5682	824.7166	65535	64636.65
839.7133	826.7747	65535	64638.8
839.8584	828.832	65535	64638.15
840.0035	830.8886	65535	64636.25
840.1486	832.9446	65535	64636
840.2937	834.9999	65535	64639.3
840.4388	837.0545	65535	64634.65
840.5839	839.1085	65535	64638.2
840.729	841.1618	65535	64636.65
840.8741	843.2143	65535	64638.85
841.0192	845.2662	65535	64636.65
841.1643	847.3175	65535	64637.1
841.3095	849.368	65535	64636.2
841.4546	851.4179	65535	64638.3
841.5997	853.467	65535	64638.05
841.7448	855.5155	65535	64637.6
841.8899	857.5633	65535	64636.1
842.0351	859.6105	65535	64634.8
842.1802	861.6569	65535	64638.95
842.3253	863.7027	65535	64636.15
842.4704	865.7478	65535	64637.6
842.6156	867.7922	65535	64636.15
842.7607	869.8359	65535	64636.75
842.9058	871.8789	65535	64635.25
843.0509	873.9212	65535	64605.7
843.1961	875.9629	65535	64635.05
843.3412	878.0039	65535	64635.55
843.4863	880.0441	65535	64637.3
843.6315	882.0837	65535	64632.9
843.7766	884.1226	65535	64634.4
843.9218	886.1609	65535	64634.05
844.0669	888.1984	65535	64636.55
844.212	890.2352	65535	64636.35
844.3572	892.2714	65535	64630.8
844.5023	894.3069	65535	64635.2
844.6475	896.3416	65535	64635.2
844.7926	898.3757	65535	64634.3
844.9377	900.4091	65535	64635.7
845.0829	902.4418	65535	64632.75
845.228	904.4739	65535	64630.35
845.3732	906.5052	65535	64633.35
845.5183	908.5358	65535	64632.3
845.6635	910.5658	65535	64632.3
845.8086	912.595	65535	64634.05
845.9538	914.6236	65535	64634.5
846.0989	916.6515	65535	64632.2
846.2441	918.6786	65535	64630.6
846.3892	920.7051	65535	64630.65
846.5344	922.7309	65535	64631.7
846.6795	924.756	65535	64633.95
846.8246	926.7804	65535	64629.75
846.9698	928.8041	65535	64630.05
847.1149	930.8272	65535	64631.1
847.2601	932.8495	65535	64632.05
847.4052	934.8711	65535	64632.45
847.5504	936.892	65535	64633.55
847.6955	938.9123	65535	64632.05
847.8407	940.9318	65535	64629
847.9858	942.9506	65535	64633
848.131	944.9688	65535	64633.5
848.2761	946.9862	65535	64631.65
848.4213	949.003	65535	64632.5
848.5664	951.019	65535	64633.4
848.7115	953.0344	65535	64632.5
848.8567	955.0491	65535	64632.05
849.0018	957.063	65535	64630.85
849.147	959.0763	65535	64633.25
849.2921	961.0888	65535	64632.5
849.4373	963.1007	65535	64633.6
849.5824	965.1119	65535	64633
849.7275	967.1223	65535	64633.15
849.8727	969.1321	65535	64636.4
850.0178	971.1412	65535	64632.6
850.1629	973.1495	65535	64631.6
850.3081	975.1572	65535	64583.6
850.4532	977.1641	65535	64631.8
850.5983	979.1704	65535	64635.2
850.7435	981.1759	65535	64628.3
850.8886	983.1808	65535	64629.75
851.0337	985.1849	65535	64620.1
851.1788	987.1884	65535	64629.3
851.324	989.1911	65535	64625.8
851.4691	991.1932	65535	64633.45
851.6142	993.1945	65535	64633.4
851.7593	995.1951	65535	64630.5
851.9045	997.1951	65535	64626.2
852.0496	999.1943	65535	64634.85
852.1947	1001.1928	65535	64631.5
852.3398	1003.1906	65535	64631.95
852.4849	1005.1877	65535	64630.95
852.63	1007.1841	65535	64632.4
852.7751	1009.1798	65535	64632.95
852.9202	1011.1748	65535	64633.7
853.0653	1013.1691	65535	64630.1
853.2104	1015.1627	65535	64631.6
853.3555	1017.1556	65535	64632.6
853.5006	1019.1477	65535	64630.8
853.6457	1021.1392	65535	64636.55
853.7908	1023.1299	65535	64633.75
853.9359	1025.12	65535	64631.3
854.081	1027.1093	65535	64636.35
854.2261	1029.0979	65535	64636.95
854.3712	1031.0859	65535	64638.25
854.5163	1033.0731	65535	64632.3
854.6613	1035.0596	65535	64632.75
854.8064	1037.0454	65535	64631.2
854.9515	1039.0304	65535	64632.05
855.0965	1041.0148	65535	64633.2
855.2416	1042.9985	65535	64630.6
855.3867	1044.9814	65535	64631.4
855.5317	1046.9636	65535	64630.65
855.6768	1048.9452	65535	64635.55
855.8219	1050.926	65535	64633.95
855.9669	1052.9061	65535	64633.85
856.112	1054.8855	65535	64634.15
856.257	1056.8642	65535	64631.7
856.4021	1058.8421	65535	64628.2
856.5471	1060.8194	65535	64632.5
856.6921	1062.7959	65535	64630.15
856.8372	1064.7717	65535	64630.15
856.9822	1066.7469	65535	64630.65
857.1272	1068.7213	65535	64628.1
857.2723	1070.695	65535	64635.1
857.4173	1072.6679	65535	64630.55
857.5623	1074.6402	65535	64631.1
857.7073	1076.6117	65535	64628.55
857.8523	1078.5826	65535	64627.95
857.9973	1080.5527	65535	64627.85
858.1423	1082.5221	65535	64630.45
858.2873	1084.4908	65535	64632.1
858.4323	1086.4587	65535	64632.15
858.5773	1088.426	65535	64630.5
858.7223	1090.3925	65535	64628.55
858.8673	1092.3584	65535	64629.55
859.0123	1094.3235	65535	64633.1
859.1573	1096.2879	65535	64632.15
859.3022	1098.2515	65535	64631.05
859.4472	1100.2145	65535	64631.05
859.5922	1102.1767	65535	64631
859.7371	1104.1382	65535	64632.2
859.8821	1106.099	65535	64629.4
860.027	1108.0591	65535	64632.4
860.172	1110.0185	65535	64629.85
860.3169	1111.9771	65535	64633.9
860.4619	1113.9351	65535	64630.1
860.6068	1115.8923	65535	64633.45
860.7517	1117.8488	65535	64629.55
860.8967	1119.8045	65535	64631.85
861.0416	1121.7596	65535	64630.2
861.1865	1123.7139	65535	64632.55
861.3314	1125.6675	65535	64630.65
861.4763	1127.6204	65535	64630.2
861.6212	1129.5726	65535	64628.7
861.7661	1131.524	65535	64634.3
861.911	1133.4748	65535	64631.5
862.0559	1135.4248	65535	64631.85
862.2008	1137.3741	65535	64630.3
862.3457	1139.3226	65535	64632.25
862.4905	1141.2705	65535	64630.9
862.6354	1143.2176	65535	64625.8
862.7803	1145.164	65535	64632.5
862.9251	1147.1097	65535	64632.15
863.07	1149.0546	65535	64630.65
863.2148	1150.9989	65535	64630.5
863.3597	1152.9424	65535	64629.1
863.5045	1154.8852	65535	64630.6
863.6493	1156.8272	65535	64631.5
863.7942	1158.7686	65535	64625.75
863.939	1160.7092	65535	64631.55
864.0838	1162.6491	65535	64629.55
864.2286	1164.5883	65535	64634.45
864.3734	1166.5267	65535	64630.65
864.5182	1168.4644	65535	64632.15
864.663	1170.4014	65535	64627.35
864.8078	1172.3377	65535	64632.4
864.9526	1174.2732	65535	64631.6
865.0974	1176.2081	65535	64630.8
865.2421	1178.1421	65535	64628.5
865.3869	1180.0755	65535	64634.95
865.5317	1182.0082	65535	64632.55
865.6764	1183.9401	65535	64632
865.8212	1185.8713	65535	64633.5
865.9659	1187.8017	65535	64635.9
866.1106	1189.7315	65535	64634.3
866.2554	1191.6605	65535	64605.85
866.4001	1193.5888	65535	64635.3
866.5448	1195.5163	65535	64634.05
866.6895	1197.4432	65535	64630.3
866.8342	1199.3693	65535	64631.95
866.9789	1201.2947	65535	64629.75
867.1236	1203.2193	65535	64632.6
867.2683	1205.1432	65535	64633.6
867.413	1207.0664	65535	64632.75
867.5576	1208.9889	65535	64629.35
867.7023	1210.9106	65535	64632.6
867.847	1212.8316	65535	64633.7
867.9916	1214.7519	65535	64621.95
868.1363	1216.6715	65535	64632.9
868.2809	1218.5903	65535	64633.4
868.4255	1220.5084	65535	64632.65
868.5701	1222.4257	65535	64633.25
868.7148	1224.3424	65535	64631.95
868.8594	1226.2583	65535	64625.6
869.004	1228.1735	65535	64632.1
869.1486	1230.0879	65535	64632.2
869.2932	1232.0016	65535	64635
869.4377	1233.9146	65535	64631.4
869.5823	1235.8269	65535	64632.3
869.7269	1237.7384	65535	64632.05
869.8715	1239.6492	65535	64632.55
870.016	1241.5592	65535	64631.3
870.1606	1243.4686	65535	64630.3
870.3051	1245.3772	65535	64631.4
870.4496	1247.285	65535	64633.9
870.5941	1249.1922	65535	64632.55
870.7387	1251.0986	65535	64632.45
870.8832	1253.0042	65535	64634.9
871.0277	1254.9092	65535	64632.05
871.1722	1256.8134	65535	64634.25
871.3167	1258.7169	65535	64630.5
871.4611	1260.6196	65535	64632.25
871.6056	1262.5216	65535	64632.75
871.7501	1264.4229	65535	64632.15
871.8945	1266.3234	65535	64633.85
872.039	1268.2232	65535	64631
872.1834	1270.1223	65535	64631.9
872.3278	1272.0207	65535	64633.35
872.4723	1273.9183	65535	64628.7
872.6167	1275.8151	65535	64632.3
872.7611	1277.7113	65535	64630.7
872.9055	1279.6067	65535	64632.8
873.0499	1281.5014	65535	64629.75
873.1943	1283.3953	65535	64631.5
873.3386	1285.2885	65535	64635.45
873.483	1287.181	65535	64632.6
873.6274	1289.0727	65535	64634.6
873.7717	1290.9637	65535	64629.8
873.9161	1292.854	65535	64633.3
874.0604	1294.7435	65535	64632.4
874.2047	1296.6323	65535	64631.45
874.349	1298.5204	65535	64629.4
874.4933	1300.4077	65535	64631.35
874.6376	1302.2943	65535	64632.05
874.7819	1304.1802	65535	64632.15
874.9262	1306.0653	65535	64630.65
875.0705	1307.9497	65535	64632.45
875.2147	1309.8333	65535	64633.15
875.359	1311.7162	65535	64633.35
875.5032	1313.5984	65535	64626.8
875.6475	1315.4798	65535	64618.5
875.7917	1317.3605	65535	64615.75
875.9359	1319.2405	65535	64632.2
876.0801	1321.1197	65535	64630.95
876.2243	1322.9982	65535	64625.9
876.3685	1324.876	65535	64632.95
876.5127	1326.753	65535	64631.85
876.6569	1328.6293	65535	64630.4
876.801	1330.5048	65535	64631.6
876.9452	1332.3796	65535	64634.4
877.0893	1334.2537	65535	64606.5
877.2335	1336.127	65535	64633.95
877.3776	1337.9996	65535	64632.7
877.5217	1339.8714	65535	64631.9
877.6658	1341.7426	65535	64586.4
877.8099	1343.6129	65535	64631.95
877.954	1345.4826	65535	64633.5
878.0981	1347.3515	65535	64630.05
878.2422	1349.2196	65535	64630.75
878.3862	1351.087	65535	64632.55
878.5303	1352.9537	65535	64633.65
878.6743	1354.8197	65535	64632.05
878.8184	1356.6849	65535	64633.95
878.9624	1358.5493	65535	64632.35
879.1064	1360.4131	65535	64632.4
879.2504	1362.276	65535	64635.15
879.3944	1364.1383	65535	64632.6
879.5384	1365.9998	65535	64628.15
879.6823	1367.8606	65535	64631.6
879.8263	1369.7206	65535	64631.15
879.9702	1371.5799	65535	64631.95
880.1142	1373.4384	65535	64634.55
880.2581	1375.2962	65535	64632.6
880.402	1377.1533	65535	64633.45
880.5459	1379.0096	65535	64631.25
880.6898	1380.8652	65535	64633
880.8337	1382.7201	65535	64635.1
880.9776	1384.5742	65535	64632.95
881.1215	1386.4275	65535	64628.5
881.2653	1388.2802	65535	64633.15
881.4092	1390.132	65535	64634.65
881.553	1391.9832	65535	64631.85
881.6968	1393.8336	65535	64632.25
881.8406	1395.6832	65535	64630.1
881.9844	1397.5322	65535	64631.1
882.1282	1399.3803	65535	64629.4
882.272	1401.2278	65535	64632.05
882.4158	1403.0745	65535	64632.65
882.5595	1404.9204	65535	64636.55
882.7033	1406.7656	65535	64632.5
882.847	1408.6101	65535	64632.4
882.9908	1410.4538	65535	64631.8
883.1345	1412.2968	65535	64631.7
883.2782	1414.139	65535	64632.75
883.4219	1415.9805	65535	64632.9
883.5656	1417.8213	65535	64626.55
883.7092	1419.6613	65535	64633.05
883.8529	1421.5006	65535	64632.45
883.9965	1423.3391	65535	64631.6
884.1402	1425.1769	65535	64631.25
884.2838	1427.0139	65535	64633.45
884.4274	1428.8502	65535	64631.05
884.571	1430.6858	65535	64632.15
884.7146	1432.5206	65535	64634.25
884.8582	1434.3547	65535	64632.95
885.0018	1436.188	65535	64634.8
885.1453	1438.0206	65535	64632.9
885.2889	1439.8524	65535	64633
885.4324	1441.6835	65535	64633.1
885.5759	1443.5139	65535	64629.8
885.7194	1445.3435	65535	64630.45
885.8629	1447.1724	65535	64635.05
886.0064	1449.0005	65535	64633.6
886.1499	1450.8279	65535	64630.55
886.2933	1452.6545	65535	64633.95
886.4368	1454.4804	65535	64634.15
886.5802	1456.3056	65535	64626.35
886.7237	1458.13	65535	64634.65
886.8671	1459.9536	65535	64633.9
887.0105	1461.7766	65535	64635.05
887.1539	1463.5987	65535	64633.15
887.2972	1465.4202	65535	64632.55
887.4406	1467.2409	65535	64632.05
887.584	1469.0608	65535	64632.55
887.7273	1470.88	65535	64632.65
887.8706	1472.6984	65535	64634.2
888.0139	1474.5161	65535	64629.25
888.1572	1476.3331	65535	64635.15
888.3005	1478.1493	65535	64633.75
888.4438	1479.9648	65535	64632.25
888.5871	1481.7795	65535	64632.5
888.7303	1483.5935	65535	64632.9
888.8736	1485.4067	65535	64633.55
889.0168	1487.2192	65535	64633.8
889.16	1489.031	65535	64629.45
889.3032	1490.842	65535	64634.2
889.4464	1492.6522	65535	64634.6
889.5896	1494.4618	65535	64631.95
889.7327	1496.2705	65535	64634.1
889.8759	1498.0785	65535	64632.2
890.019	1499.8858	65535	64632.85
890.1622	1501.6924	65535	64635.5
890.3053	1503.4981	65535	64635.05
890.4484	1505.3032	65535	64636.2
890.5914	1507.1075	65535	64633.45
890.7345	1508.911	65535	64633.55
890.8776	1510.7138	65535	64631.6
891.0206	1512.5159	65535	64629.2
891.1637	1514.3172	65535	64635.2
891.3067	1516.1178	65535	64633.55
891.4497	1517.9176	65535	64632
891.5927	1519.7166	65535	64637.45
891.7357	1521.515	65535	64627.8
891.8786	1523.3126	65535	64630.85
892.0216	1525.1094	65535	64630.75
892.1645	1526.9055	65535	64635.25
892.3074	1528.7008	65535	64634.25
892.4503	1530.4954	65535	64628.55
892.5932	1532.2893	65535	64634.55
892.7361	1534.0824	65535	64633.2
892.879	1535.8747	65535	64635.35
893.0218	1537.6663	65535	64635.75
893.1647	1539.4572	65535	64633.55
893.3075	1541.2473	65535	64635.85
893.4503	1543.0367	65535	64637.3
893.5931	1544.8253	65535	64631.05
893.7359	1546.6132	65535	64632.3
893.8787	1548.4003	65535	64623.95
894.0214	1550.1867	65535	64625.8
894.1642	1551.9723	65535	64629.65
894.3069	1553.7572	65535	64632.35
894.4496	1555.5414	65535	64634.65
894.5923	1557.3247	65521.35	64619.9
894.735	1559.1074	65535	64637.55
894.8777	1560.8893	65535	64634.8
895.0204	1562.6705	65535	64634.9
895.163	1564.4509	65526.65	64629.1
895.3056	1566.2305	65535	64636.95
895.4482	1568.0094	65535	64637.4
895.5908	1569.7876	65535	64636.45
895.7334	1571.565	65527	64628.3
895.876	1573.3417	65532.95	64635
896.0186	1575.1176	65529	64632.35
896.1611	1576.8928	65526.8	64627.4
896.3036	1578.6672	65495.35	64601.4
896.4461	1580.4409	65518.9	64622.45
896.5886	1582.2138	65440.25	64539.95
896.7311	1583.986	65478.35	64578.55
896.8736	1585.7575	65341.15	64444.65
897.0161	1587.5282	65405.4	64510.1
897.1585	1589.2981	65407.1	64510.1
897.3009	1591.0673	65249.2	64351.1
897.4433	1592.8358	65053.5	64157.05
897.5857	1594.6035	65264.25	64361.65
897.7281	1596.3704	65275.45	64376.65
897.8705	1598.1366	64864.2	63966.75
898.0128	1599.9021	64575.6	63679.5
898.1551	1601.6668	65043.05	64144.9
898.2975	1603.4308	64803.05	63905.95
898.4398	1605.194	64792.15	63888.5
898.5821	1606.9564	64088.95	63193.7
898.7243	1608.7182	64515.05	63614.9
898.8666	1610.4791	64084.1	63188.65
899.0088	1612.2394	64502.3	63607
899.1511	1613.9988	63862.35	62966.15
899.2933	1615.7576	64536.6	63640.7
899.4355	1617.5156	64529.45	63625.35
899.5776	1619.2728	65017.1	64118.7
899.7198	1621.0293	64158.9	63261.5
899.862	1622.785	64186.75	63287.45
900.0041	1624.54	64549.6	63649.75
900.1462	1626.2942	63996	63096.95
900.2883	1628.0477	63128.15	62229.85
900.4304	1629.8005	62354.15	61452.3
900.5725	1631.5525	63194.65	62300.8
900.7145	1633.3037	61951.75	61054.9
900.8566	1635.0542	61783.2	60886.85
900.9986	1636.804	62262.2	61365.05
901.1406	1638.553	61087.5	60110.15
901.2826	1640.3013	61501.65	60604
901.4245	1642.0488	60706.6	59809.4
901.5665	1643.7955	61215.4	60321
901.7085	1645.5416	60667.3	59773.55
901.8504	1647.2868	60174	59279
901.9923	1649.0313	61065.45	60170.05
902.1342	1650.7751	60538.65	59638.4
902.2761	1652.5181	60141.7	59247
902.4179	1654.2604	60207.65	59310.25
902.5598	1656.0019	60653.6	59758.7
902.7016	1657.7427	60460.5	59564.75
902.8434	1659.4828	61024.5	60128.95
902.9852	1661.222	60599.75	59700.35
903.127	1662.9606	61205.15	60311.4
903.2687	1664.6984	60266.75	59370.25
903.4105	1666.4354	60460.05	59563.1
903.5522	1668.1717	59263.95	58368.1
903.6939	1669.9072	58451.5	57557.3
903.8356	1671.642	58236.25	57337.75
903.9773	1673.3761	57910.5	57017.5
904.119	1675.1094	57615.35	56717.1
904.2606	1676.8419	56971.65	56076.75
904.4022	1678.5737	56822.35	55924.15
904.5439	1680.3048	56583.2	55686.45
904.6855	1682.0351	56221.1	55324.3
904.827	1683.7646	55897.25	54996.8
904.9686	1685.4934	56013.4	55118.8
905.1101	1687.2215	54989.45	54094.85
905.2517	1688.9488	55500.45	54605.25
905.3932	1690.6754	54182.75	53287.1
905.5347	1692.4012	54665.05	53768.8
905.6761	1694.1263	54544.45	53649.05
905.8176	1695.8506	54204.65	53307.15
905.9591	1697.5742	54056.65	53160.55
906.1005	1699.297	53843.45	52950.3
906.2419	1701.0191	53697.1	52800.85
906.3833	1702.7404	53209.35	52313.65
906.5246	1704.461	52947.85	52051.05
906.666	1706.1808	52847.4	51949.9
906.8073	1707.8999	52735.1	51840.4
906.9487	1709.6182	52460.65	51565.95
907.09	1711.3358	52354.6	51460.6
907.2313	1713.0527	52172.95	51280.6
907.3725	1714.7688	52032.65	51130.55
907.5138	1716.4841	51543.9	50647.95
907.655	1718.1987	51634.15	50730.7
907.7962	1719.9126	51338.75	50445.05
907.9374	1721.6257	51227.25	50330.65
908.0786	1723.338	51225.1	50330.35
908.2198	1725.0496	50653.3	49757.6
908.3609	1726.7605	50582.85	49686.65
908.502	1728.4706	50390.25	49493.1
908.6431	1730.18	50175.95	49277.1
908.7842	1731.8886	50028.75	49134.25
908.9253	1733.5964	49855.35	48942.4
909.0664	1735.3036	49835.2	48938.3
909.2074	1737.0099	49665.15	48770.4
909.3484	1738.7156	49400.3	48506.9
909.4894	1740.4204	49145.4	48248.25
909.6304	1742.1246	49133	48236.6
909.7714	1743.8279	48989.15	48095.55
909.9123	1745.5306	48922.4	48027.85
910.0532	1747.2325	48629.05	47736
910.1941	1748.9336	48443.9	47548.55
910.335	1750.634	48244.75	47348.1
910.4759	1752.3336	48173.95	47280.3
910.6168	1754.0325	48064.4	47171.4
910.7576	1755.7307	47956.9	47063.65
910.8984	1757.4281	47824.05	46928
911.0392	1759.1247	47739.9	46837.95
911.18	1760.8206	47557.2	46658.15
911.3208	1762.5158	47478.4	46579.6
911.4615	1764.2102	47278.15	46385.2
911.6022	1765.9039	47120	46227.15
911.7429	1767.5968	47088.45	46196.6
911.8836	1769.289	46841.6	45945.85
912.0243	1770.9804	46737.45	45841.9
912.1649	1772.6711	46675.95	45784.8
912.3056	1774.361	46486.65	45588.3
912.4462	1776.0502	46439.1	45545.25
912.5868	1777.7386	46241	45344.3
912.7274	1779.4263	46042.45	45150.3
912.8679	1781.1132	46068.3	45175.75
913.0084	1782.7994	45825.2	44931.65
913.149	1784.4849	45768.65	44875.7
913.2895	1786.1696	45524.4	44624.75
913.4299	1787.8535	45436.1	44543.35
913.5704	1789.5367	45347.6	44454.15
913.7108	1791.2192	45197	44305.75
913.8513	1792.9009	45024.25	44098.85
913.9917	1794.5818	44871.1	43977.7
914.132	1796.2621	44732.05	43838.65
914.2724	1797.9415	44686.6	43794.1
914.4128	1799.6202	44475.8	43582.85
914.5531	1801.2982	44423.15	43529.5
914.6934	1802.9755	44279.2	43384.85
914.8337	1804.6519	44221.75	43328.6
914.9739	1806.3277	44033.8	43141.15
915.1142	1808.0027	43785.25	42892.7
915.2544	1809.6769	43716.4	42822.2
915.3946	1811.3504	43596	42703.5
915.5348	1813.0231	43421.95	42527.45
915.675	1814.6951	43383.7	42489.3
915.8151	1816.3664	43408.05	42513.55
915.9553	1818.0369	43231.15	42335.45
916.0954	1819.7067	43088.75	42198.35
916.2355	1821.3757	42941.5	42045.95
916.3755	1823.044	42821.5	41927.35
916.5156	1824.7115	42765.15	41872.75
916.6556	1826.3783	42518.2	41626.8
916.7956	1828.0443	42348.7	41455.85
916.9356	1829.7096	42234.2	41338.3
917.0756	1831.3741	42220.7	41323.35
917.2155	1833.0379	42060.1	41168.2
917.3555	1834.701	41918.8	41022.3
917.4954	1836.3633	41788.6	40893.95
917.6353	1838.0248	41683	40788.4
917.7751	1839.6856	41577.6	40682.3
917.915	1841.3457	41567.05	40675.15
918.0548	1843.005	41424	40531.9
918.1946	1844.6636	41325.5	40433.7
918.3344	1846.3214	41174.2	40281.3
918.4742	1847.9785	41102.65	40210.25
918.6139	1849.6349	41013.25	40117.85
918.7537	1851.2904	40889.45	39986.25
918.8934	1852.9453	40731.9	39836.95
919.0331	1854.5994	40610.3	39714.45
919.1727	1856.2528	40665.65	39767.9
919.3124	1857.9054	40495.35	39602.4
919.452	1859.5572	40420.7	39527.35
919.5916	1861.2083	40341.75	39446.6
919.7312	1862.8587	40277.5	39384.15
919.8708	1864.5084	40144.05	39249.1
920.0103	1866.1572	39984.3	39091.65
920.1498	1867.8054	39755.4	38861.8
920.2893	1869.4528	39788.45	38895.35
920.4288	1871.0994	39608.9	38713.95
920.5683	1872.7453	39536	38641.05
920.7077	1874.3905	39471.55	38571.65
920.8471	1876.0349	39298.1	38404.15
920.9865	1877.6786	39232.15	38337.05
921.1259	1879.3215	39189.8	38296.6
921.2653	1880.9637	39059.85	38165.1
921.4046	1882.6051	38980.5	38086.95
921.5439	1884.2458	38851.5	37955.3
921.6832	1885.8858	38669.6	37776.55
921.8225	1887.525	38617.3	37721.35
921.9617	1889.1634	38406.25	37509.7
922.101	1890.8011	38243.25	37349.25
922.2402	1892.4381	38184.35	37291.8
922.3794	1894.0743	38123.05	37230.75
922.5185	1895.7098	37989.9	37099.45
922.6577	1897.3446	37863.45	36967.85
922.7968	1898.9786	37776.15	36878
922.9359	1900.6118	37649.1	36755.95
923.075	1902.2443	37403.15	36509.2
923.214	1903.8761	37405.75	36514.8
923.3531	1905.5071	37206.9	36313.15
923.4921	1907.1374	37032.95	36138.45
923.6311	1908.7669	37004.2	36110.2
923.77	1910.3957	36867.8	35975.7
923.909	1912.0237	36643.3	35749.9
924.0479	1913.651	36610.1	35715.35
924.1868	1915.2776	36494.75	35602.15
924.3257	1916.9034	36290.25	35397.95
924.4646	1918.5285	36123.2	35229.6
924.6034	1920.1528	35964.35	35071.5
924.7422	1921.7764	35965.35	35073.5
924.881	1923.3992	35728.8	34839.35
925.0198	1925.0213	35514.7	34623.4
925.1586	1926.6427	35402	34509.7
925.2973	1928.2633	35338.4	34327.65
925.436	1929.8832	35183	34287.05
925.5747	1931.5023	35032.45	34139.4
925.7134	1933.1207	34981.05	34086.15
925.852	1934.7383	34875.65	33981.9
925.9906	1936.3552	34719.8	33826.75
926.1292	1937.9714	34601.05	33708.65
926.2678	1939.5868	34444.75	33548.75
926.4064	1941.2015	34275.6	33380.7
926.5449	1942.8154	34143.25	33249.25
926.6834	1944.4286	34003.7	33111
926.8219	1946.041	33876.55	32965.35
926.9604	1947.6528	33664.5	32765.4
927.0988	1949.2637	33607.75	32715.1
927.2372	1950.8739	33490.15	32598.05
927.3756	1952.4834	33414.05	32521
927.514	1954.0921	33302	32407.6
927.6523	1955.7001	33182.05	32286.7
927.7907	1957.3074	33049.15	32157.35
927.929	1958.9139	32856.3	31963.3
928.0673	1960.5197	32815.9	31924.15
928.2055	1962.1247	32600.2	31708.65
928.3438	1963.729	32491.25	31598.2
928.482	1965.3325	32350.85	31434.75
928.6202	1966.9353	32241.9	31349.65
928.7584	1968.5374	32146	31252.85
928.8965	1970.1387	32065.1	31173.35
929.0346	1971.7393	31854.45	30960.45
929.1727	1973.3392	31817.9	30925.15
929.3108	1974.9383	31646.6	30754.1
929.4489	1976.5366	31501.65	30608.9
929.5869	1978.1342	31488.45	30595.9
929.7249	1979.7311	31422.35	30529.15
929.8629	1981.3273	31306.8	30413.6
930.0009	1982.9227	31175.15	30282.15
930.1388	1984.5173	31037.7	30145.15
930.2767	1986.1112	30927.5	30034.5
930.4146	1987.7044	30829.45	29937.3
930.5525	1989.2968	30722.25	29829.05
930.6904	1990.8885	30616.45	29718.25
930.8282	1992.4795	30580.45	29687.15
930.966	1994.0697	30389.15	29498.3
931.1038	1995.6592	30315.6	29424.4
931.2415	1997.2479	30206.55	29313.55
931.3793	1998.8359	30080.85	29190.4
931.517	2000.4232	29936.1	29045.95
931.6547	2002.0097	29842.6	28952.7
931.7923	2003.5955	29697.05	28804.9
931.93	2005.1805	29644.4	28750.7
932.0676	2006.7648	29562.35	28670.6
932.2052	2008.3484	29444.55	28551.75
932.3427	2009.9312	29465.75	28571.4
932.4803	2011.5133	29330.85	28438.8
932.6178	2013.0946	29195.2	28303.95
932.7553	2014.6752	29106.9	28216.8
932.8928	2016.2551	29044.35	28153.45
933.0302	2017.8342	28910.45	28017
933.1676	2019.4126	28798.75	27907.4
933.305	2020.9902	28671.15	27779.9
933.4424	2022.5672	28619.05	27727
933.5798	2024.1433	28538.3	27641.3
933.7171	2025.7188	28421.95	27530.6
933.8544	2027.2935	28328.4	27435.75
933.9917	2028.8674	28238.2	27344.6
934.129	2030.4406	28133.85	27243.9
934.2662	2032.0131	28007.55	27117.05
934.4034	2033.5849	27898.2	27000.65
934.5406	2035.1559	27808.45	26915.8
934.6778	2036.7261	27817.8	26924.9
934.8149	2038.2957	27660.8	26769.5
934.952	2039.8645	27616.8	26724.95
935.0891	2041.4325	27626.75	26731.1
935.2262	2042.9998	27455.15	26564.5
935.3632	2044.5664	27347	26455.1
935.5002	2046.1323	27272.25	26380.9
935.6372	2047.6974	27178.7	26289.65
935.7742	2049.2617	27113.1	26223.8
935.9111	2050.8254	27045.85	26133.5
936.048	2052.3883	27026.45	26134.05
936.1849	2053.9504	26890.7	25998.25
936.3218	2055.5118	26785.8	25891.4
936.4586	2057.0725	26667.5	25771.75
936.5955	2058.6325	26607.7	25717.15
936.7323	2060.1917	26532.7	25643.05
936.869	2061.7502	26460.1	25565.2
937.0058	2063.3079	26297.95	25407.75
937.1425	2064.8649	26233.1	25336.4
937.2792	2066.4212	26188.25	25296.8
937.4159	2067.9767	26088.8	25197.05
937.5525	2069.5315	25992.25	25099.45
937.6891	2071.0856	25850.65	24960.5
937.8257	2072.6389	25768.85	24875.2
937.9623	2074.1915	25640.65	24749.2
938.0989	2075.7433	25490.95	24597.5
938.2354	2077.2945	25471.85	24581.15
938.3719	2078.8448	25363.4	24474
938.5084	2080.3945	25262.1	24369.4
938.6448	2081.9434	25217.5	24320.85
938.7812	2083.4916	25144.05	24251
938.9176	2085.039	25032	24134.9
939.054	2086.5857	24984.9	24090.55
939.1903	2088.1317	24927.2	24034.45
939.3267	2089.677	24852.6	23960.4
939.463	2091.2215	24765.9	23873.95
939.5992	2092.7652	24629.8	23735.1
939.7355	2094.3083	24608.95	23714.6
939.8717	2095.8506	24586.85	23695.2
940.0079	2097.3921	24552	23659.55
940.1441	2098.933	24415.4	23524.9
940.2802	2100.4731	24316.35	23424.45
940.4163	2102.0124	24298.05	23397.2
940.5524	2103.5511	24244.15	23352.95
940.6885	2105.089	24172.25	23279
940.8245	2106.6261	24095.05	23203.4
940.9606	2108.1626	24032.35	23139.75
941.0965	2109.6983	23973.55	23052.65
941.2325	2111.2332	23895.75	23002.35
941.3684	2112.7675	23793.55	22898.7
941.5044	2114.301	23688.55	22793.9
941.6403	2115.8337	23703.45	22810.3
941.7761	2117.3657	23597.3	22705.45
941.912	2118.897	23521.8	22629.15
942.0478	2120.4276	23471.1	22574.15
942.1835	2121.9575	23315.15	22421.2
942.3193	2123.4866	23333.35	22437.55
942.455	2125.0149	23240.8	22345.35
942.5907	2126.5426	23110.35	22220.15
942.7264	2128.0695	23022.65	22128.4
942.8621	2129.5956	23016.95	22126.8
942.9977	2131.1211	22969.6	22072.4
943.1333	2132.6458	22888.1	21994.05
943.2689	2134.1698	22797.75	21905.05
943.4044	2135.693	22709.95	21815.25
943.54	2137.2155	22702.8	21807.6
943.6755	2138.7373	22655.65	21763.9
943.8109	2140.2584	22522.35	21631.55
943.9464	2141.7787	22437.8	21540.8
944.0818	2143.2983	22323.35	21431.9
944.2172	2144.8171	22201.95	21310.7
944.3526	2146.3353	22168.55	21276.5
944.4879	2147.8527	22072.65	21181.15
944.6232	2149.3693	22063.55	21170.75
944.7585	2150.8853	21959.5	21066.2
944.8938	2152.4005	21879.5	20985.6
945.029	2153.9149	21848.45	20957.75
945.1642	2155.4287	21749.8	20855.5
945.2994	2156.9417	21718.85	20827.3
945.4346	2158.454	21639.95	20744.9
945.5697	2159.9655	21604.15	20711.25
945.7048	2161.4764	21558.55	20666.65
945.8399	2162.9865	21462.8	20572
945.9749	2164.4958	21383.95	20490.95
946.1099	2166.0045	21263.85	20368.7
946.2449	2167.5124	21270.75	20378.95
946.3799	2169.0195	21199.9	20308.4
946.5148	2170.526	21143.95	20250.95
946.6498	2172.0317	21046.95	20153.35
946.7846	2173.5367	20960.3	20068.15
946.9195	2175.0409	20919.95	20027.95
947.0543	2176.5445	20916.8	20024.9
947.1891	2178.0473	20833.75	19940.9
947.3239	2179.5494	20719.7	19823.25
947.4587	2181.0507	20660.05	19766.2
947.5934	2182.5513	20621.1	19728.75
947.7281	2184.0512	20560.1	19668.7
947.8628	2185.5504	20468.3	19577.35
947.9974	2187.0488	20341.7	19449
948.132	2188.5465	20284.05	19392.9
948.2666	2190.0435	20228.7	19334.95
948.4012	2191.5397	20166.65	19275.4
948.5357	2193.0353	20093.2	19200.45
948.6702	2194.5301	19982.35	19088.1
948.8047	2196.0241	19918.65	19024.5
948.9392	2197.5175	19872.75	18980.7
949.0736	2199.0101	19776.15	18881.85
949.208	2200.502	19659.15	18768.05
949.3424	2201.9931	19589.5	18698.5
949.4767	2203.4835	19510.35	18616.85
949.611	2204.9733	19463.05	18565.6
949.7453	2206.4622	19405.55	18511.75
949.8796	2207.9505	19320.35	18425.8
950.0138	2209.438	19241.25	18350.2
950.148	2210.9248	19183	18290.35
950.2822	2212.4109	19094.25	18203.6
950.4164	2213.8962	19057.4	18164.2
950.5505	2215.3809	18972.05	18077.45
950.6846	2216.8648	18920.2	18026.95
950.8186	2218.3479	18878.15	17980.1
950.9527	2219.8304	18812.8	17917.35
951.0867	2221.3121	18733.15	17837.65
951.2207	2222.7931	18662.25	17769.6
951.3546	2224.2733	18602.55	17709.65
951.4886	2225.7529	18503.8	17610.4
951.6225	2227.2317	18422.7	17527.9
951.7563	2228.7098	18443.8	17551.7
951.8902	2230.1872	18352.7	17461.2
952.024	2231.6638	18321.95	17428.9
952.1578	2233.1397	18192.45	17294.6
952.2916	2234.6149	18157.9	17265.15
952.4253	2236.0894	18063.85	17170.75
952.559	2237.5632	18033.75	17133.2
952.6927	2239.0362	17940.85	17048.25
952.8263	2240.5085	17888.7	16996.5
952.9599	2241.9801	17827.1	16933.9
953.0935	2243.4509	17804.15	16912.3
953.2271	2244.921	17710.55	16817.05
953.3606	2246.3904	17622.7	16727.1
953.4941	2247.8591	17569.6	16676.35
953.6276	2249.3271	17508.35	16614.5
953.7611	2250.7943	17452	16557.55
953.8945	2252.2608	17424.2	16531.8
954.0279	2253.7266	17353.15	16460.6
954.1612	2255.1917	17268.35	16374.75
954.2946	2256.656	17222	16329.8
954.4279	2258.1197	17160.55	16267.2
954.5612	2259.5826	17101.35	16207.2
954.6944	2261.0447	17091.65	16199.25
954.8276	2262.5062	17018.7	16123.05
954.9608	2263.9669	16965.8	16071.3
955.094	2265.4269	16937.25	16045.65
955.2271	2266.8862	16849.2	15956.05
955.3602	2268.3448	16799.45	15905.85
955.4933	2269.8026	16790.25	15897.3
955.6264	2271.2598	16693.9	15803.05
955.7594	2272.7162	16668.1	15777.25
955.8924	2274.1719	16600.1	15706.5
956.0253	2275.6268	16561.2	15668.95
956.1583	2277.0811	16498.8	15605.6
956.2912	2278.5346	16475.6	15583.8
956.4241	2279.9874	16402.1	15509.55
956.5569	2281.4395	16377.25	15487.55
956.6897	2282.8908	16303	15406.05
956.8225	2284.3414	16240.7	15347.25
956.9553	2285.7914	16186.7	15295.5
957.088	2287.2406	16132.95	15239.1
957.2207	2288.689	16084	15192.45
957.3534	2290.1368	16055.95	15162.55
957.486	2291.5838	15990.55	15094.65
957.6186	2293.0302	15945.25	15051.95
957.7512	2294.4758	15846.25	14953.7
957.8838	2295.9206	15787.6	14893.15
958.0163	2297.3648	15762.5	14870.65
958.1488	2298.8082	15731.3	14838.75
958.2813	2300.251	15691.5	14800.3
958.4137	2301.693	15600.7	14705.65
958.5461	2303.1343	15605	14710.35
958.6785	2304.5748	15535.1	14643.55
958.8108	2306.0147	15464.5	14571.2
958.9432	2307.4538	15441.6	14547.55
959.0754	2308.8922	15380.1	14490.45
959.2077	2310.3299	15304.65	14413.6
959.3399	2311.7669	15243.2	14353.35
959.4721	2313.2031	15234.15	14342.55
959.6043	2314.6387	15144.95	14250.9
959.7365	2316.0735	15119.45	14225.5
959.8686	2317.5076	15090.7	14196.7
960.0006	2318.941	15008.9	14117.9
960.1327	2320.3737	14978.2	14085.3
960.2647	2321.8056	14967.95	14074.3
960.3967	2323.2369	14857.85	13963.85
960.5287	2324.6674	14840.2	13944.7
960.6606	2326.0972	14763	13867.35
960.7925	2327.5263	14724.35	13831.1
960.9244	2328.9547	14647.25	13754.9
961.0562	2330.3823	14617.7	13725.7
961.1881	2331.8092	14588.15	13691.5
961.3198	2333.2355	14511.8	13618.4
961.4516	2334.661	14503.6	13610.85
961.5833	2336.0858	14452.25	13557.8
961.715	2337.5098	14413.55	13521.7
961.8467	2338.9332	14368.95	13475.95
961.9783	2340.3558	14306.4	13410.2
962.1099	2341.7778	14255.1	13363.15
962.2415	2343.199	14194.25	13299.05
962.373	2344.6195	14178.05	13283.95
962.5045	2346.0393	14135.15	13242.15
962.636	2347.4583	14106.65	13215.35
962.7675	2348.8767	14065.8	13173.2
962.8989	2350.2943	14015.7	13122.4
963.0303	2351.7113	13987.65	13094.6
963.1617	2353.1275	13915	13021.35
963.293	2354.543	13884.75	12986
963.4243	2355.9578	13855.35	12963.6
963.5556	2357.3718	13745.35	12853.85
963.6868	2358.7852	13679.2	12785.3
963.818	2360.1978	13644.4	12750.75
963.9492	2361.6098	13570.45	12678.55
964.0803	2363.021	13557	12659.65
964.2114	2364.4315	13504.25	12609.25
964.3425	2365.8413	13464.65	12570.75
964.4736	2367.2504	13406.05	12514.6
964.6046	2368.6587	13334.05	12441.45
964.7356	2370.0664	13290.2	12399.35
964.8666	2371.4733	13218.75	12324.8
964.9975	2372.8795	13186	12292.25
965.1284	2374.285	13159.8	12268.2
965.2593	2375.6899	13067.95	12175.55
965.3901	2377.0939	13006.65	12114.2
965.5209	2378.4973	12984.1	12093.05
965.6517	2379.9	12942.65	12052.2
965.7825	2381.3019	12861.15	11970.15
965.9132	2382.7032	12812.55	11921.4
966.0439	2384.1037	12789.75	11899
966.1745	2385.5035	12754.1	11862.55
966.3051	2386.9027	12675.65	11783.85
966.4357	2388.3011	12662.1	11766.6
966.5663	2389.6987	12634.3	11741.8
966.6968	2391.0957	12584.8	11693.45
966.8273	2392.492	12507.65	11615.5
966.9578	2393.8876	12429.95	11540.1
967.0882	2395.2824	12393.3	11504.3
967.2186	2396.6765	12341.35	11450.1
967.349	2398.07	12275.8	11385.95
967.4793	2399.4627	12245.35	11351.85
967.6097	2400.8547	12242.75	11349.65
967.7399	2402.246	12189.2	11292
967.8702	2403.6366	12116.95	11225
968.0004	2405.0265	12045.95	11154.2
968.1306	2406.4156	12007.45	11112.55
968.2607	2407.8041	11957.75	11061.25
968.3909	2409.1918	11890.25	10997.7
968.521	2410.5789	11850.35	10959.4
968.651	2411.9652	11815.25	10920
968.781	2413.3508	11746.9	10854.7
968.911	2414.7358	11709.25	10817.4
969.041	2416.12	11683.45	10791.75
969.1709	2417.5035	11646.45	10755.15
969.3008	2418.8863	11609.15	10715.25
969.4307	2420.2684	11573.05	10681.95
969.5606	2421.6497	11516.05	10625.15
969.6904	2423.0304	11455	10564.55
969.8201	2424.4104	11445.65	10554
969.9499	2425.7896	11382.95	10490.7
970.0796	2427.1682	11344.35	10453.1
970.2093	2428.546	11320.75	10425.75
970.3389	2429.9232	11321.5	10429.95
970.4685	2431.2996	11261.6	10370.7
970.5981	2432.6753	11233.35	10343.75
970.7277	2434.0503	11217.95	10325.55
970.8572	2435.4246	11137.6	10245.55
970.9867	2436.7982	11099.5	10204.4
971.1161	2438.1711	11057.1	10166.9
971.2456	2439.5433	11018.4	10124.85
971.375	2440.9148	10958.95	10065.35
971.5043	2442.2856	10926.35	10033.8
971.6336	2443.6557	10916.1	10023.15
971.7629	2445.025	10852.25	9960.65
971.8922	2446.3937	10823.9	9930.5
972.0214	2447.7617	10798	9907.3
972.1506	2449.1289	10790.7	9898.75
972.2798	2450.4955	10728	9833.05
972.4089	2451.8613	10699.65	9808.95
972.538	2453.2265	10672.55	9780.3
972.6671	2454.5909	10634.5	9742.6
972.7961	2455.9546	10593.4	9700.7
972.9251	2457.3177	10559.5	9666.2
973.0541	2458.68	10541.8	9646.8
973.1831	2460.0416	10514.15	9621
973.312	2461.4025	10494.7	9601.6
973.4408	2462.7627	10460.55	9557.15
973.5697	2464.1222	10437.6	9547.2
973.6985	2465.4811	10395.2	9502.8
973.8273	2466.8392	10349.7	9456.55
973.956	2468.1966	10331.6	9437.05
974.0847	2469.5533	10319.4	9425.95
974.2134	2470.9093	10264.45	9370.85
974.3421	2472.2645	10238.75	9345.95
974.4707	2473.6191	10215.95	9324.85
974.5993	2474.973	10149.05	9257.6
974.7278	2476.3262	10142.1	9246.45
974.8563	2477.6787	10075.7	9185.3
974.9848	2479.0305	10020.65	9128.8
975.1132	2480.3816	10006.8	9111.9
975.2417	2481.7319	9967.55	9078.1
975.37	2483.0816	9927.65	9033
975.4984	2484.4306	9889.55	8994.9
975.6267	2485.7789	9851.95	8961.8
975.755	2487.1264	9798.15	8905.15
975.8833	2488.4733	9756.25	8865.7
976.0115	2489.8195	9737.95	8830.25
976.1397	2491.165	9697.8	8802.45
976.2678	2492.5097	9672	8777.65
976.3959	2493.8538	9623.85	8733.6
976.524	2495.1972	9581.85	8690.9
976.6521	2496.5398	9526.3	8633.75
976.7801	2497.8818	9514.35	8617.45
976.9081	2499.2231	9479.95	8588.45
977.036	2500.5637	9426.4	8531.4
977.164	2501.9035	9402	8509.7
977.2918	2503.2427	9407.5	8511
977.4197	2504.5812	9345.1	8453.4
977.5475	2505.919	9322.3	8428.45
977.6753	2507.256	9317.4	8425
977.8031	2508.5924	9264.85	8374.1
977.9308	2509.9281	9242.55	8345.95
978.0585	2511.2631	9197.5	8304
978.1861	2512.5974	9183.55	8292.85
978.3137	2513.9309	9158.85	8267.85
978.4413	2515.2638	9123.1	8205.05
978.5689	2516.596	9092.2	8201.45
978.6964	2517.9275	9029.55	8135.75
978.8239	2519.2583	8999	8107.45
978.9513	2520.5884	8956.7	8063
979.0788	2521.9178	8919.5	8027.1
979.2062	2523.2465	8884.95	7993.8
979.3335	2524.5745	8872.7	7979.75
979.4608	2525.9018	8865.7	7974.15
979.5881	2527.2284	8809.3	7918.9
979.7154	2528.5543	8776.35	7884.6
979.8426	2529.8796	8734.25	7842.95
979.9698	2531.2041	8735.65	7843.95
980.0969	2532.5279	8703.45	7812.85
980.224	2533.851	8685.95	7793.3
980.3511	2535.1735	8670.9	7777.65
980.4781	2536.4952	8636.6	7745.65
980.6052	2537.8163	8648.55	7754.95
980.7321	2539.1366	8588.95	7697.3
980.8591	2540.4562	8581.35	7688.85
980.986	2541.7752	8545.9	7653.35
981.1129	2543.0935	8542.7	7651.2
981.2397	2544.411	8520	7626.8
981.3665	2545.7279	8489.35	7599.05
981.4933	2547.0441	8483.5	7590.85
981.62	2548.3596	8461.05	7564.8
981.7467	2549.6744	8422.2	7528.6
981.8734	2550.9885	8413.55	7519.2
982.0001	2552.3019	8368.4	7476.5
982.1267	2553.6146	8358.05	7465.8
982.2532	2554.9266	8309.75	7416.4
982.3798	2556.2379	8267	7375.6
982.5063	2557.5485	8266.9	7375.6
982.6327	2558.8585	8257.75	7357.35
982.7592	2560.1677	8232.6	7337.3
982.8856	2561.4762	8216.15	7322.5
983.0119	2562.7841	8215.25	7318.6
983.1383	2564.0913	8191.1	7299.8
983.2646	2565.3977	8183	7291.05
983.3908	2566.7035	8135.95	7241.9
983.517	2568.0086	8147.65	7253.75
983.6432	2569.313	8102.95	7210.05
983.7694	2570.6167	8091.1	7194.5
983.8955	2571.9197	8053.4	7163.25
984.0216	2573.222	8031.45	7136.1
984.1476	2574.5236	7993.6	7100.35
984.2737	2575.8246	7987.55	7094
984.3996	2577.1248	8002.4	7105.65
984.5256	2578.4244	7970.2	7079.85
984.6515	2579.7232	7946.45	7054.85
984.7774	2581.0214	7972.85	7057.35
984.9032	2582.3189	7912.3	7021
985.029	2583.6157	7899.25	7003.05
985.1548	2584.9118	7878.9	6983.65
985.2806	2586.2072	7855.15	6964.1
985.4063	2587.5019	7830	6936.6
985.5319	2588.7959	7813.05	6922
985.6576	2590.0893	7788.8	6894.1
985.7832	2591.3819	7773.05	6881.15
985.9087	2592.6739	7756.3	6866.1
986.0343	2593.9652	7723.05	6829.15
986.1597	2595.2557	7727.05	6834.45
986.2852	2596.5456	7667.95	6772.8
986.4106	2597.8348	7653.5	6761.5
986.536	2599.1234	7610.3	6718
986.6614	2600.4112	7576.95	6685.4
986.7867	2601.6983	7555.95	6660.85
986.912	2602.9848	7537.7	6643.75
987.0372	2604.2705	7510.85	6612.15
987.1624	2605.5556	7485.1	6590.75
987.2876	2606.84	7462.55	6568.9
987.4128	2608.1237	7431.1	6538.55
987.5379	2609.4067	7426.8	6532.5
987.6629	2610.689	7384.45	6483.9
987.788	2611.9707	7364.2	6466.3
987.913	2613.2516	7341.3	6445.7
988.0379	2614.5319	7303	6410.35
988.1629	2615.8115	7268.9	6377.15
988.2878	2617.0903	7235.8	6344.15
988.4126	2618.3685	7218.05	6325.6
988.5375	2619.6461	7178	6285.8
988.6622	2620.9229	7174.6	6282.2
988.787	2622.199	7155.6	6261.7
988.9117	2623.4745	7148.75	6255
989.0364	2624.7493	7101.95	6208.6
989.161	2626.0234	7079.2	6188.05
989.2857	2627.2968	7063	6171.35
989.4102	2628.5695	7012.8	6119.55
989.5348	2629.8415	6986.3	6094.15
989.6593	2631.1128	6969.7	6077.05
989.7837	2632.3835	6941.7	6051.4
989.9082	2633.6535	6891.2	5998.15
990.0326	2634.9228	6883.95	5991.25
990.1569	2636.1914	6870.1	5976.75
990.2812	2637.4593	6852.15	5953.65
990.4055	2638.7265	6808.65	5914.5
990.5298	2639.9931	6800.7	5907.7
990.654	2641.259	6779.05	5885.4
990.7782	2642.5242	6751.85	5857.7
990.9023	2643.7887	6741.65	5849.15
991.0264	2645.0525	6724.15	5832.5
991.1505	2646.3156	6682.1	5788.05
991.2745	2647.5781	6665.45	5775.15
991.3985	2648.8398	6640.8	5749.05
991.5225	2650.1009	6619.6	5717.6
991.6464	2651.3613	6620.95	5728
991.7703	2652.6211	6598.15	5705.55
991.8942	2653.8801	6565.25	5676.6
992.018	2655.1385	6547.8	5653
992.1418	2656.3961	6530.6	5637.55
992.2655	2657.6531	6521.5	5628.5
992.3892	2658.9094	6494.5	5601.1
992.5129	2660.1651	6483.05	5592.55
992.6366	2661.42	6470.2	5577.05
992.7602	2662.6743	6441.6	5547.15
992.8837	2663.9279	6451.25	5558.95
993.0073	2665.1808	6416.45	5523.4
993.1307	2666.433	6393.75	5500.6
993.2542	2667.6846	6390.3	5497.9
993.3776	2668.9354	6372.45	5476.75
993.501	2670.1856	6356.35	5464.25
993.6244	2671.4351	6348.6	5456.8
993.7477	2672.6839	6318.9	5426.45
993.8709	2673.9321	6281.3	5389.15
993.9942	2675.1795	6282.3	5388.7
994.1174	2676.4263	6277.25	5384.4
994.2405	2677.6724	6239	5347.2
994.3637	2678.9179	6245.3	5352.85
994.4868	2680.1626	6221.8	5330.95
994.6098	2681.4067	6197.6	5307.75
994.7328	2682.6501	6174.8	5283.55
994.8558	2683.8928	6161.35	5269.8
994.9788	2685.1348	6126.6	5235.75
995.1017	2686.3761	6099.4	5206.6
995.2245	2687.6168	6091.85	5199.95
995.3474	2688.8568	6052.4	5161.15
995.4702	2690.0961	6033.7	5141.95
995.5929	2691.3348	6039.05	5146.6
995.7156	2692.5727	6012.8	5118.8
995.8383	2693.81	5978.85	5086.4
995.961	2695.0466	5972.55	5082.8
996.0836	2696.2826	5977.4	5082.45
996.2062	2697.5178	5951.05	5056.1
996.3287	2698.7524	5913.1	5022.15
996.4512	2699.9863	5884	4990.05
996.5737	2701.2195	5884.35	4994.2
996.6961	2702.452	5874.9	4981.7
996.8185	2703.6839	5855.95	4963.25
996.9408	2704.9151	5838.9	4947.5
997.0631	2706.1456	5816.35	4925.6
997.1854	2707.3755	5802.7	4907.5
997.3077	2708.6046	5806.75	4913.05
997.4299	2709.8331	5793.65	4900.5
997.552	2711.0609	5778.1	4885.8
997.6742	2712.2881	5752.95	4860.85
997.7963	2713.5145	5743.8	4850.85
997.9183	2714.7403	5749.95	4860.5
998.0403	2715.9654	5728.15	4835.45
998.1623	2717.1899	5744.4	4835.95
998.2842	2718.4136	5712.45	4821.05
998.4062	2719.6367	5698.55	4806.7
998.528	2720.8591	5694.7	4795.3
998.6498	2722.0809	5684.8	4792.35
998.7716	2723.3019	5666.15	4771.3
998.8934	2724.5223	5644.05	4750.05
999.0151	2725.7421	5639.8	4747.7
999.1368	2726.9611	5629.45	4735.35
999.2584	2728.1795	5619.85	4722.6
999.38	2729.3972	5576.95	4684.1
999.5016	2730.6142	5568.45	4664.35
999.6231	2731.8306	5538.1	4642.95
999.7446	2733.0462	5492.25	4598
999.8661	2734.2612	5461.55	4565.35
999.9875	2735.4756	5434.75	4541.45
1000.1089	2736.6892	5392.8	4499.5
1000.2302	2737.9022	5362.25	4473.85
1000.3515	2739.1145	5330.35	4439.7
1000.4728	2740.3262	5317.05	4420.15
1000.594	2741.5372	5270.25	4377.95
1000.7152	2742.7475	5247	4351.8
1000.8363	2743.9571	5230.25	4336.05
1000.9575	2745.1661	5214	4315.8
1001.0785	2746.3744	5181.35	4288.2
1001.1996	2747.582	5166.95	4274.2
1001.3206	2748.7889	5144.65	4252.05
1001.4415	2749.9952	5112.65	4220.65
1001.5625	2751.2008	5087.7	4196.75
1001.6833	2752.4057	5093.6	4199.45
1001.8042	2753.61	5061.7	4167.05
1001.925	2754.8136	5039.5	4144.9
1002.0458	2756.0165	5019.8	4126.3
1002.1665	2757.2188	5016.4	4125.1
1002.2872	2758.4204	4992.5	4102
1002.4078	2759.6213	4976.4	4083.8
1002.5285	2760.8215	4967.2	4071.2
1002.649	2762.0211	4956.8	4062.75
1002.7696	2763.22	4928.25	4032.3
1002.8901	2764.4182	4924.65	4031.7
1003.0106	2765.6158	4900.45	4008.95
1003.131	2766.8127	4881.8	3989.45
1003.2514	2768.009	4860.8	3967.85
1003.3717	2769.2045	4846.75	3955.65
1003.492	2770.3994	4834.7	3941.85
1003.6123	2771.5936	4826.45	3934.7
1003.7325	2772.7872	4786.25	3895.55
1003.8527	2773.9801	4784.6	3890.9
1003.9729	2775.1723	4781.9	3873.1
1004.093	2776.3639	4752.65	3860.65
1004.2131	2777.5548	4739.65	3845.2
1004.3331	2778.745	4715.65	3823.3
1004.4531	2779.9346	4715.7	3824.4
1004.5731	2781.1235	4720.55	3828.75
1004.693	2782.3117	4701.1	3810.2
1004.8129	2783.4992	4674.7	3783.35
1004.9328	2784.6861	4660.85	3769.35
1005.0526	2785.8723	4663.4	3770.35
1005.1723	2787.0579	4663.55	3769.8
1005.2921	2788.2428	4662.1	3767.8
1005.4118	2789.427	4638.5	3747.4
1005.5314	2790.6106	4639.75	3747.25
1005.651	2791.7935	4629.9	3736.95
1005.7706	2792.9757	4619.95	3730.8
1005.8902	2794.1573	4614.85	3721.05
1006.0097	2795.3382	4601	3710.65
1006.1291	2796.5184	4622.95	3731.95
1006.2485	2797.698	4632.8	3737.85
1006.3679	2798.8769	4619.7	3727
1006.4873	2800.0551	4634.85	3742.45
1006.6066	2801.2327	4622.25	3728.15
1006.7258	2802.4096	4633.35	3741.35
1006.8451	2803.5859	4620.6	3728.8
1006.9642	2804.7615	4643.65	3753
1007.0834	2805.9364	4656.85	3765.35
1007.2025	2807.1106	4659.4	3767.4
1007.3216	2808.2842	4662.75	3771.95
1007.4406	2809.4572	4693.4	3802.7
1007.5596	2810.6294	4713.75	3821.05
1007.6785	2811.801	4753.95	3862.1
1007.7975	2812.972	4769.65	3877.7
1007.9163	2814.1423	4803.2	3909.55
1008.0352	2815.3119	4827.2	3934.45
1008.154	2816.4808	4887	3996.05
1008.2727	2817.6491	4917.35	4025.35
1008.3914	2818.8167	4958.2	4068.3
1008.5101	2819.9837	4992.25	4097.1
1008.6288	2821.15	5028.55	4135.05
1008.7474	2822.3157	5057.45	4167.95
1008.8659	2823.4807	5088.25	4196.35
1008.9844	2824.645	5126.65	4231.7
1009.1029	2825.8086	5163.5	4273.55
1009.2214	2826.9716	5204.9	4314.55
1009.3398	2828.134	5212.75	4322.45
1009.4581	2829.2957	5252.7	4360.5
1009.5764	2830.4567	5275.6	4382.9
1009.6947	2831.617	5274.3	4382.2
1009.813	2832.7767	5276.45	4382.55
1009.9312	2833.9358	5263.6	4373.7
1010.0493	2835.0941	5261.75	4369.1
1010.1675	2836.2519	5237.2	4345.95
1010.2855	2837.4089	5241.35	4350.45
1010.4036	2838.5653	5212.3	4320.9
1010.5216	2839.7211	5203.4	4311.75
1010.6396	2840.8761	5197.85	4304.25
1010.7575	2842.0306	5234.75	4342.6
1010.8754	2843.1843	5245.95	4356.4
1010.9932	2844.3374	5265.8	4373.45
1011.111	2845.4899	5312.1	4419.55
1011.2288	2846.6417	5397.6	4505.7
1011.3465	2847.7928	5460.4	4570.5
1011.4642	2848.9433	5525.1	4633.8
1011.5818	2850.0931	5605.75	4713.95
1011.6995	2851.2422	5663.9	4770.35
1011.817	2852.3907	5732.4	4840.6
1011.9345	2853.5385	5796.55	4901.7
1012.052	2854.6857	5866.45	4948.35
1012.1695	2855.8323	5879.95	4988.25
1012.2869	2856.9781	5928.3	5037.15
1012.4042	2858.1233	5960.65	5070.4
1012.5216	2859.2679	5983.5	5090.6
1012.6389	2860.4118	6035.45	5143.1
1012.7561	2861.555	6062.05	5164.65
1012.8733	2862.6976	6079.1	5184.6
1012.9905	2863.8395	6080.3	5190.35
1013.1076	2864.9808	6092.95	5201.55
1013.2247	2866.1214	6097.65	5206.7
1013.3417	2867.2614	6127.9	5236.35
1013.4587	2868.4007	6112.2	5218.7
1013.5757	2869.5393	6095	5201.8
1013.6926	2870.6773	6112	5217.95
1013.8095	2871.8146	6121.3	5226
1013.9263	2872.9513	6105.3	5212.5
1014.0431	2874.0874	6085.3	5193.6
1014.1599	2875.2227	6082.65	5191.65
1014.2766	2876.3574	6042.15	5151.25
1014.3933	2877.4915	6011.75	5123.05
1014.51	2878.6249	5978	5086.15
1014.6266	2879.7577	5929.05	5034.75
1014.7431	2880.8898	5909.95	5007.5
1014.8596	2882.0212	5875.4	4983.55
1014.9761	2883.152	5855.25	4963.15
1015.0925	2884.2821	5836.6	4947.3
1015.2089	2885.4116	5835.15	4944
1015.3253	2886.5405	5794.85	4905.65
1015.4416	2887.6686	5809	4914.5
1015.5579	2888.7962	5778	4888.35
1015.6741	2889.923	5781.2	4890.35
1015.7903	2891.0493	5801.55	4910.95
1015.9065	2892.1748	5799.4	4908.25
1016.0226	2893.2997	5782.45	4889.95
1016.1387	2894.424	5797.1	4906.1
1016.2547	2895.5476	5799.2	4907.95
1016.3707	2896.6706	5825.75	4935.85
1016.4866	2897.7929	5838.2	4945.6
1016.6025	2898.9145	5850.5	4960.5
1016.7184	2900.0355	5872.1	4980.8
1016.8342	2901.1559	5902.2	5011.15
1016.95	2902.2756	5923	5033.05
1017.0658	2903.3946	5935.5	5046.25
1017.1815	2904.513	5967.6	5072.6
1017.2971	2905.6308	5964.5	5074.5
1017.4127	2906.7479	5998.6	5106.4
1017.5283	2907.8643	6007.1	5112.55
1017.6439	2908.9801	6007.8	5115.7
1017.7594	2910.0953	6022.1	5131.1
1017.8748	2911.2098	6001.15	5106.95
1017.9902	2912.3236	5989.2	5090.5
1018.1056	2913.4368	5956.3	5061.55
1018.2209	2914.5494	5918.9	5027.65
1018.3362	2915.6613	5892.75	4995.85
1018.4515	2916.7725	5863.35	4968.75
1018.5667	2917.8831	5814.15	4922.35
1018.6819	2918.9931	5778.15	4885.2
1018.797	2920.1024	5733.65	4841.45
1018.9121	2921.211	5714.35	4822.8
1019.0271	2922.319	5687.25	4793.75
1019.1421	2923.4264	5660.75	4768.45
1019.2571	2924.5331	5631.4	4742.05
1019.372	2925.6391	5602.85	4712.35
1019.4869	2926.7445	5599.65	4711.75
1019.6017	2927.8493	5582.9	4691.15
1019.7165	2928.9534	5578.9	4686.8
1019.8313	2930.0569	5546.45	4651.1
1019.946	2931.1597	5556.6	4663.1
1020.0606	2932.2619	5525.8	4634
1020.1753	2933.3634	5507.4	4614.75
1020.2899	2934.4643	5506.35	4606.75
1020.4044	2935.5645	5461.6	4563.9
1020.5189	2936.6641	5433.3	4537.6
1020.6334	2937.763	5356.1	4466.15
1020.7478	2938.8613	5303	4410
1020.8622	2939.959	5255	4359.3
1020.9765	2941.056	5159.4	4268.95
1021.0908	2942.1523	5077	4184.8
1021.2051	2943.248	4975.8	4085.2
1021.3193	2944.3431	4877.6	3986.3
1021.4334	2945.4375	4779.1	3887.25
1021.5476	2946.5313	4637.2	3747.9
1021.6617	2947.6244	4531.55	3639.6
1021.7757	2948.7169	4438	3543.7
1021.8897	2949.8087	4334.9	3442.65
1022.0037	2950.8999	4233.75	3341.75
1022.1176	2951.9904	4158.05	3267.45
1022.2315	2953.0803	4061	3171.2
1022.3453	2954.1696	3994.15	3104
1022.4591	2955.2582	3938.6	3048.45
1022.5728	2956.3462	3884.05	2991.05
1022.6865	2957.4335	3824.65	2932.1
1022.8002	2958.5202	3785.1	2890.2
1022.9138	2959.6062	3743.35	2853.65
1023.0274	2960.6916	3706.5	2817.4
1023.141	2961.7764	3687.6	2793.8
1023.2545	2962.8605	3666.95	2774.55
1023.3679	2963.9439	3656.3	2765.4
1023.4813	2965.0267	3636.05	2742.9
1023.5947	2966.1089	3631.3	2716.55
1023.708	2967.1905	3588.05	2696.3
1023.8213	2968.2714	3589.5	2700.05
1023.9346	2969.3516	3580.25	2688
1024.0478	2970.4312	3578.4	2681.15
1024.1609	2971.5102	3554.7	2663.4
1024.274	2972.5885	3559.8	2668.6
1024.3871	2973.6662	3541.95	2645.65
1024.5002	2974.7432	3537.7	2646.2
1024.6132	2975.8196	3524.35	2632.3
1024.7261	2976.8954	3503.95	2613.45
1024.839	2977.9705	3488	2596.85
1024.9519	2979.045	3467	2578.55
1025.0647	2980.1188	3440.8	2548.8
1025.1775	2981.192	3417.2	2528.3
1025.2902	2982.2645	3393.25	2500.05
1025.4029	2983.3364	3359.15	2468.3
1025.5156	2984.4077	3315.45	2424.8
1025.6282	2985.4783	3292.1	2393.65
1025.7407	2986.5483	3252.95	2361.2
1025.8532	2987.6177	3222.05	2332.25
1025.9657	2988.6864	3175.2	2283.25
1026.0782	2989.7545	3125.1	2232.95
1026.1906	2990.8219	3083.9	2194.8
1026.3029	2991.8887	3044.25	2150.2
1026.4152	2992.9548	3031.35	2139.8
1026.5275	2994.0204	2996.7	2107.95
1026.6397	2995.0852	2954.75	2065
1026.7519	2996.1495	2921.8	2030.5
1026.864	2997.2131	2894.05	2004.6
1026.9761	2998.276	2865.8	1976
1027.0882	2999.3383	2845	1952.05
1027.2002	3000.4	2812.95	1921.45
1027.3122	3001.4611	2795.55	1903.5
1027.4241	3002.5215	2788.65	1897.9
1027.536	3003.5812	2760.25	1868.1
1027.6478	3004.6404	2742.1	1853.75
1027.7596	3005.6989	2727.4	1834.65
1027.8714	3006.7567	2713.95	1823.1
1027.9831	3007.8139	2722.85	1809.35
1028.0947	3008.8705	2679.5	1788.75
1028.2064	3009.9264	2674.1	1779.65
1028.3179	3010.9818	2673.65	1780.3
1028.4295	3012.0364	2647.8	1757.95
1028.541	3013.0905	2654.3	1763.6
1028.6524	3014.1439	2641.85	1751.05
1028.7638	3015.1966	2636.15	1746.9
1028.8752	3016.2487	2633.2	1742.45
1028.9865	3017.3002	2617.95	1724.75
1029.0978	3018.3511	2610.85	1720.05
1029.209	3019.4013	2611	1720
1029.3202	3020.4509	2605.3	1717.7
1029.4314	3021.4998	2597.8	1706.1
1029.5425	3022.5481	2607.05	1717.25
1029.6535	3023.5958	2587.15	1696.4
1029.7645	3024.6428	2589.6	1697.55
1029.8755	3025.6892	2581.75	1690.8
1029.9864	3026.735	2581.25	1688.15
1030.0973	3027.7802	2573.7	1681.55
1030.2082	3028.8247	2574.15	1682.75
1030.319	3029.8685	2566.85	1673.4
1030.4297	3030.9118	2555.1	1662.25
1030.5404	3031.9544	2565.65	1675.4
1030.6511	3032.9963	2569.6	1681.2
1030.7617	3034.0376	2563.6	1671.8
1030.8723	3035.0783	2561.6	1670.35
1030.9829	3036.1184	2563.8	1671.25
1031.0934	3037.1578	2564.4	1676.25
1031.2038	3038.1966	2555.5	1662.45
1031.3142	3039.2348	2554.4	1663.45
1031.4246	3040.2723	2549.9	1651.25
1031.5349	3041.3092	2542.05	1651.4
1031.6452	3042.3455	2526.7	1635.9
1031.7554	3043.3811	2520.5	1631.1
1031.8656	3044.4161	2507.2	1615.05
1031.9758	3045.4505	2495.4	1606.05
1032.0859	3046.4842	2495.55	1605.2
1032.1959	3047.5173	2468.65	1577.1
1032.3059	3048.5498	2473	1582.3
1032.4159	3049.5816	2456.65	1565.7
1032.5258	3050.6128	2439.75	1547.3
1032.6357	3051.6434	2435.8	1542.95
1032.7455	3052.6734	2433.1	1540.8
1032.8553	3053.7027	2416.85	1526.75
1032.9651	3054.7314	2404.7	1513.25
1033.0748	3055.7594	2396.8	1507.2
1033.1845	3056.7868	2391.45	1501.9
1033.2941	3057.8136	2380.7	1489.15
1033.4037	3058.8398	2363.95	1473.2
1033.5132	3059.8653	2353.05	1462.8
1033.6227	3060.8902	2339.55	1448.1
1033.7321	3061.9145	2337	1446.45
1033.8415	3062.9381	2321.8	1432.05
1033.9509	3063.9612	2328.85	1421.55
1034.0602	3064.9835	2310.45	1417.85
1034.1694	3066.0053	2293.65	1400.9
1034.2787	3067.0264	2289.15	1398.85
1034.3878	3068.0469	2276.3	1384.1
1034.497	3069.0668	2272.7	1379.65
1034.6061	3070.086	2252.75	1363.4
1034.7151	3071.1046	2240.25	1350.2
1034.8241	3072.1226	2219.95	1329.2
1034.9331	3073.1399	2220.15	1331.05
1035.042	3074.1567	2200.4	1310.45
1035.1508	3075.1727	2188.45	1295.75
1035.2597	3076.1882	2174.6	1283.4
1035.3684	3077.203	2159.1	1269.25
1035.4772	3078.2173	2151.1	1260.9
1035.5859	3079.2308	2142	1248.15
1035.6945	3080.2438	2125.5	1232.65
1035.8031	3081.2561	2117.8	1226.45
1035.9117	3082.2678	2100.4	1209.45
1036.0202	3083.2789	2095.5	1205.6
1036.1286	3084.2893	2077.95	1187
1036.2371	3085.2991	2063.65	1174.65
1036.3454	3086.3083	2066.6	1171.4
1036.4538	3087.3169	2059.85	1168.65
1036.562	3088.3248	2041.25	1147.95
1036.6703	3089.3321	2043.25	1148.95
1036.7785	3090.3388	2021.85	1134.3
1036.8866	3091.3449	2020.7	1128
1036.9948	3092.3503	2022.35	1131.1
1037.1028	3093.3551	2005.25	1118.25
1037.2108	3094.3593	1997	1107
1037.3188	3095.3629	1983.3	1092.05
1037.4267	3096.3658	1974.15	1081.4
1037.5346	3097.3681	1977.55	1084.6
1037.6425	3098.3698	1968.5	1074.95
1037.7503	3099.3708	1963.3	1066.2
1037.858	3100.3713	1949.45	1060
1037.9657	3101.3711	1940.65	1050.05
1038.0734	3102.3702	2065.6	1033.2
1038.181	3103.3688	1946.2	1055.05
1038.2886	3104.3667	1921.1	1033.35
1038.3961	3105.364	1912.5	1022.9
1038.5036	3106.3607	1911.75	1018
1038.611	3107.3568	1907.1	1013.25
1038.7184	3108.3522	1898.15	1010.95
1038.8257	3109.347	1895.3	1004.6
1038.933	3110.3412	1884.1	991
1039.0403	3111.3348	1889.65	1000.25
1039.1475	3112.3277	1870.4	978.55
1039.2547	3113.32	1867	978.05
1039.3618	3114.3117	1864.75	972.2
1039.4689	3115.3028	1854.85	966.1
1039.5759	3116.2932	1851.3	958.15
1039.6829	3117.2831	1857.15	962.05
1039.7898	3118.2723	1840.7	949.65
1039.8967	3119.2608	1837.9	947
1040.0035	3120.2488	1832.45	940.8
1040.1103	3121.2361	1821.8	929.95
1040.2171	3122.2229	1817.4	926.35
1040.3238	3123.209	1817.55	925.7
1040.4305	3124.1944	1798.45	908.95
1040.5371	3125.1793	1808.05	915.3
1040.6437	3126.1635	1793.25	902.75
1040.7502	3127.1471	1784.1	894.15
1040.8567	3128.1301	1786.8	897.2
1040.9631	3129.1125	1780.8	890.9
1041.0695	3130.0942	1780.8	890.6
1041.1759	3131.0753	1777.5	880.05
1041.2822	3132.0558	1769.35	876
1041.3884	3133.0357	1765.4	874.45
1041.4946	3134.015	1762.55	870.85
1041.6008	3134.9936	1757.45	868.2
1041.7069	3135.9716	1782.55	873.45
1041.813	3136.949	1750.7	860.95
1041.919	3137.9258	1756	859.6
1042.025	3138.902	1750	855.95
1042.1309	3139.8775	1738.15	848.1
1042.2368	3140.8524	1733.75	843.45
1042.3427	3141.8267	1741.15	851.2
1042.4485	3142.8004	1725.75	835.55
1042.5542	3143.7735	1723.3	826.1
1042.6599	3144.7459	1717.6	825.9
1042.7656	3145.7178	1727.3	834.05
1042.8712	3146.689	1709.8	821.2
1042.9768	3147.6596	1705.65	813.95
1043.0823	3148.6295	1699	809.45
1043.1878	3149.5989	1689.65	799.9
1043.2932	3150.5676	1683.25	793.4
1043.3986	3151.5357	1682.4	793.65
1043.5039	3152.5032	1682	791.8
1043.6092	3153.4701	1667.85	776.85
1043.7145	3154.4364	1674.15	780.9
1043.8197	3155.402	1663.15	774.4
1043.9248	3156.367	1662.7	770.5
1044.03	3157.3315	1704.4	769.9
1044.135	3158.2952	1653.3	760.1
1044.24	3159.2584	1653.45	765.05
1044.345	3160.221	1644.25	752.25
1044.4499	3161.1829	1636.4	747.3
1044.5548	3162.1442	1638.85	749.6
1044.6596	3163.105	1623.35	733.55
1044.7644	3164.065	1622.5	731.05
1044.8692	3165.0245	1632.85	741.15
1044.9739	3165.9834	1617.6	727.25
1045.0785	3166.9416	1612.55	722.6
1045.1831	3167.8993	1611.4	721.7
1045.2877	3168.8563	1612.35	720.3
1045.3922	3169.8127	1606.2	715.9
1045.4966	3170.7684	1594.95	704.3
1045.6011	3171.7236	1600	710.2
1045.7054	3172.6782	1590.15	700.8
1045.8098	3173.6321	1591.1	700.4
1045.914	3174.5854	1588.95	693.3
1046.0183	3175.5381	1583.65	692.85
1046.1224	3176.4902	1579.45	689.85
1046.2266	3177.4417	1566.6	678.05
1046.3307	3178.3926	1567.85	677.1
1046.4347	3179.3428	1566.95	677.3
1046.5387	3180.2924	1566.25	675.4
1046.6427	3181.2415	1554.95	664.35
1046.7466	3182.1899	1550.7	657.85
1046.8504	3183.1377	1551.15	660.3
1046.9542	3184.0848	1546.55	652.15
1047.058	3185.0314	1542.05	651.4
1047.1617	3185.9773	1533.7	643.4
1047.2654	3186.9227	1534.35	643.4
1047.369	3187.8674	1530.05	640.8
1047.4726	3188.8115	1540.85	648.5
1047.5761	3189.755	1527.6	637.45
1047.6796	3190.6979	1530	639.7
1047.783	3191.6402	1523.4	634.4
1047.8864	3192.5818	1506.15	615.85
1047.9898	3193.5229	1524.7	622
1048.0931	3194.4633	1511.95	620.85
1048.1963	3195.4031	1507.95	617.6
1048.2995	3196.3423	1498.35	606.95
1048.4027	3197.2809	1502.25	611
1048.5058	3198.2189	1499.5	609.75
1048.6089	3199.1563	1504.4	607.35
1048.7119	3200.0931	1484.6	595.55
1048.8148	3201.0292	1486.05	598.3
1048.9178	3201.9648	1478.3	590.15
1049.0206	3202.8997	1480.15	587.3
1049.1235	3203.834	1472.8	584.65
1049.2262	3204.7677	1476.05	586.8
1049.329	3205.7008	1471.4	577.3
1049.4317	3206.6333	1465.8	578.35
1049.5343	3207.5652	1468.6	575.8
1049.6369	3208.4964	1467.85	578.35
1049.7394	3209.4271	1458	570.05
1049.8419	3210.3571	1457.1	566.75
1049.9444	3211.2865	1452.55	562.35
1050.0468	3212.2154	1456.65	568.4
1050.1491	3213.1436	1450.5	556.15
1050.2514	3214.0712	1450.85	554.05
1050.3537	3214.9982	1440.8	549.25
1050.4559	3215.9246	1442.5	552.15
1050.5581	3216.8503	1434	545.35
1050.6602	3217.7755	1435	545.6
1050.7623	3218.7001	1428.85	540.6
1050.8643	3219.624	1431.6	541.25
1050.9663	3220.5473	1422.85	532
1051.0682	3221.4701	1420.1	527.95
1051.1701	3222.3922	1423.8	532.45
1051.2719	3223.3137	1424.1	534.5
1051.3737	3224.2346	1421.35	530.95
1051.4754	3225.1549	1411.6	523.4
1051.5771	3226.0746	1404.5	515.25
1051.6788	3226.9937	1408.5	516.7
1051.7804	3227.9121	1401.45	512
1051.8819	3228.83	1400.2	511.85
1051.9834	3229.7473	1401.75	512.95
1052.0849	3230.6639	1394.05	505.55
1052.1863	3231.5799	1395.4	506.5
1052.2876	3232.4954	1391.8	499.7
1052.3889	3233.4102	1389.15	500.4
1052.4902	3234.3244	1384.65	493.95
1052.5914	3235.238	1375.25	487.15
1052.6926	3236.151	1405.8	492.05
1052.7937	3237.0634	1379.35	488.8
1052.8948	3237.9752	1370.35	480.65
1052.9958	3238.8864	1364.9	473.75
1053.0968	3239.797	1372.45	483.55
1053.1977	3240.7069	1366.85	477.4
1053.2986	3241.6163	1359.05	467.55
1053.3994	3242.5251	1359.7	469.6
1053.5002	3243.4332	1353.85	465.65
1053.6009	3244.3408	1348.25	457.7
1053.7016	3245.2477	1346.5	456.9
1053.8022	3246.154	1344.1	453.2
1053.9028	3247.0598	1348.65	457.5
1054.0034	3247.9649	1339.85	450.15
1054.1039	3248.8694	1338.25	449.1
1054.2043	3249.7733	1333.7	443.65
1054.3047	3250.6766	1340.55	450.65
1054.4051	3251.5793	1329.25	439.45
1054.5054	3252.4814	1327.45	439.2
1054.6056	3253.3829	1331.45	442.1
1054.7058	3254.2838	1320.6	429.65
1054.806	3255.1841	1317	427.2
1054.9061	3256.0838	1314.55	424
1055.0061	3256.9829	1312.6	424.05
1055.1062	3257.8814	1310.75	420.1
1055.2061	3258.7792	1308	417.2
1055.306	3259.6765	1297.9	405.05
1055.4059	3260.5731	1296.8	407.35
1055.5057	3261.4692	1289.35	399.1
1055.6055	3262.3647	1290.05	398.35
1055.7052	3263.2595	1279.2	390.55
1055.8049	3264.1538	1276.7	386.8
1055.9045	3265.0474	1269.45	380.35
1056.0041	3265.9404	1264.65	375.5
1056.1036	3266.8329	1251.75	363.3
1056.2031	3267.7247	1260	359.75
1056.3025	3268.616	1243	353.5
1056.4019	3269.5066	1232.1	342.4
1056.5013	3270.3966	1225.7	335.2
1056.6005	3271.286	1216.7	328.65
