Software Version:	3.9.2.0
Unit SN:	10000200
Spectrometer SN:	6960
Date:	3/6/2024 10:08:26 AM
Data Line Index:	25
Spectral Points:	2048
Integration time (ms):	125
Averages:	20
Delay (ms):	30
Sequence Number:	1
Processing:	dark subtract
Laser Power (mW):	300
Laser Current (mA):	825
Laser Diode Temp (C):	25
Laser Case Temp (C):	24.9
System Temp (C):	24.6
Spectrometer Temp (C):	22.2
CCD Temp (C):	-0.002
Secondary Temp (C):	20.011
Heatsink Temp (C):	18.614
CCDPCB Temp (C):	31.36
SecondaryPCB Temp (C):	26.014

Wavelength	RamanShift	Raw Counts	Dark Subtracted
787.061	30.1047	867.7	460.85
787.2016	32.3739	884.45	477.7
787.3422	34.6426	906.2	499.05
787.4828	36.9109	940.4	532.05
787.6235	39.1787	974.55	562.05
787.7642	41.4461	1017.9	600.9
787.9049	43.7131	1060.35	639.95
788.0456	45.9796	1095.5	671.55
788.1863	48.2456	1142.15	715.35
788.3271	50.5112	1194.45	763
788.4679	52.7764	1233.8	800.1
788.6087	55.0411	1287.6	849.9
788.7496	57.3054	1342.45	898.55
788.8904	59.5692	1395.55	949.85
789.0313	61.8326	1465.5	1018.25
789.1722	64.0955	1527.95	1075.6
789.3132	66.3579	1611.25	1155.45
789.4541	68.6199	1717	1258.3
789.5951	70.8815	1871.8	1408.3
789.7361	73.1426	2275.5	1807.85
789.8771	75.4032	3250.55	2778.05
790.0181	77.6634	5747.95	5272.05
790.1592	79.9231	12053.8	11571.35
790.3003	82.1824	32933.1	32440.5
790.4414	84.4412	58775.85	58260.55
790.5825	86.6995	64467.75	63927.65
790.7237	88.9574	65124.75	64560
790.8648	91.2148	65499.55	64923.3
791.006	93.4717	65533.05	64947.75
791.1472	95.7282	65535	64944.95
791.2885	97.9842	65535	64941.7
791.4297	100.2398	65535	64939.85
791.571	102.4949	65535	64932.6
791.7123	104.7495	65535	64931.5
791.8536	107.0036	65535	64925.9
791.9949	109.2573	65535	64933.3
792.1363	111.5105	65535	64928.95
792.2777	113.7632	65535	64926.9
792.4191	116.0154	65535	64917.2
792.5605	118.2672	65535	64920.5
792.7019	120.5185	65535	64919.1
792.8434	122.7693	65535	64920.55
792.9849	125.0197	65535	64908.15
793.1264	127.2696	65535	64911.15
793.2679	129.519	65535	64903.55
793.4094	131.7679	65535	64901.5
793.551	134.0163	65535	64899.4
793.6926	136.2642	65535	64894.7
793.8342	138.5117	65535	64894.5
793.9758	140.7587	65535	64890.1
794.1175	143.0052	65535	64887.6
794.2591	145.2512	65535	64887.25
794.4008	147.4967	65535	64889.3
794.5425	149.7417	65535	64886.25
794.6842	151.9863	65535	64878.55
794.826	154.2304	65535	64876.2
794.9677	156.4739	65535	64870.9
795.1095	158.717	65535	64869.5
795.2513	160.9596	65535	64864.1
795.3931	163.2017	65535	64865.3
795.535	165.4433	65535	64863.15
795.6768	167.6844	65535	64859.65
795.8187	169.925	65535	64856.05
795.9606	172.1651	65535	64853.2
796.1025	174.4047	65535	64851.85
796.2445	176.6439	65535	64851.9
796.3864	178.8825	65535	64849.85
796.5284	181.1206	65535	64839.1
796.6704	183.3582	65535	64835.6
796.8124	185.5954	65535	64837.75
796.9544	187.832	65535	64831.9
797.0965	190.0681	65535	64831.65
797.2386	192.3037	65535	64824.25
797.3806	194.5388	65535	64824.55
797.5228	196.7734	65535	64820.85
797.6649	199.0075	65535	64819.45
797.807	201.2411	65535	64816.5
797.9492	203.4742	65535	64818
798.0914	205.7068	65535	64814.5
798.2336	207.9389	65535	64813.6
798.3758	210.1704	65535	64819.9
798.518	212.4015	65535	64828.9
798.6603	214.632	65535	64834.75
798.8025	216.862	65535	64835.85
798.9448	219.0915	65535	64832.45
799.0871	221.3205	65535	64828.75
799.2294	223.549	65535	64833.1
799.3718	225.777	65535	64832.35
799.5141	228.0044	65535	64827.3
799.6565	230.2314	65535	64823.8
799.7989	232.4578	65535	64823.75
799.9413	234.6837	65535	64814.35
800.0837	236.909	65535	64810.75
800.2262	239.1339	65535	64786.2
800.3687	241.3582	65535	64801.5
800.5111	243.582	65535	64771.3
800.6536	245.8053	65535	64785.2
800.7961	248.0281	65535	64788.9
800.9387	250.2503	65535	64784
801.0812	252.472	65535	64781.55
801.2238	254.6932	65535	64786.3
801.3664	256.9139	65535	64786.45
801.509	259.134	65535	64776.5
801.6516	261.3536	65535	64775.85
801.7942	263.5727	65535	64776.75
801.9369	265.7912	65535	64778.05
802.0795	268.0092	65535	64780.45
802.2222	270.2267	65535	64778.3
802.3649	272.4436	65535	64779.7
802.5076	274.6601	65535	64762.95
802.6504	276.8759	65535	64767.5
802.7931	279.0913	65535	64771.4
802.9359	281.3061	65535	64767.7
803.0787	283.5204	65535	64760.75
803.2215	285.7341	65535	64761
803.3643	287.9473	65535	64750.1
803.5071	290.16	65535	64757.8
803.6499	292.3721	65535	64762.55
803.7928	294.5837	65535	64764.25
803.9357	296.7947	65535	64763.5
804.0786	299.0052	65535	64764.55
804.2215	301.2152	65535	64759.5
804.3644	303.4246	65535	64763.2
804.5074	305.6334	65535	64762.7
804.6503	307.8418	65535	64756
804.7933	310.0495	65535	64754.35
804.9363	312.2568	65535	64757.4
805.0793	314.4635	65535	64753
805.2223	316.6696	65535	64749.85
805.3653	318.8752	65535	64741.15
805.5084	321.0802	65535	64747.55
805.6514	323.2847	65535	64745.1
805.7945	325.4887	65535	64745.05
805.9376	327.692	65535	64744.95
806.0807	329.8949	65535	64740.85
806.2238	332.0972	65535	64740.8
806.367	334.2989	65535	64735.25
806.5101	336.5001	65535	64741.15
806.6533	338.7007	65535	64736.2
806.7965	340.9008	65535	64735.8
806.9397	343.1003	65535	64734.5
807.0829	345.2992	65535	64736.3
807.2261	347.4976	65535	64734.85
807.3693	349.6955	65535	64726.95
807.5126	351.8927	65535	64728.9
807.6559	354.0895	65535	64719.75
807.7991	356.2856	65535	64725.8
807.9424	358.4812	65535	64727.8
808.0857	360.6763	65535	64720.7
808.2291	362.8707	65535	64719.95
808.3724	365.0646	65535	64716
808.5158	367.258	65535	64719.45
808.6591	369.4508	65535	64715.45
808.8025	371.643	65535	64713.5
808.9459	373.8346	65535	64715.85
809.0893	376.0257	65535	64710.6
809.2327	378.2162	65535	64711.85
809.3762	380.4062	65535	64713.6
809.5196	382.5956	65535	64714
809.6631	384.7844	65535	64718.1
809.8066	386.9726	65535	64720.7
809.9501	389.1603	65535	64723.95
810.0936	391.3474	65535	64681.35
810.2371	393.5339	65535	64719.8
810.3806	395.7199	65535	64722.2
810.5241	397.9052	65535	64716.25
810.6677	400.09	65535	64719.75
810.8113	402.2743	65535	64716
810.9548	404.4579	65535	64714.85
811.0984	406.641	65535	64714.65
811.2421	408.8235	65535	64712.55
811.3857	411.0054	65535	64710.75
811.5293	413.1868	65535	64704.8
811.673	415.3675	65535	64703.95
811.8166	417.5477	65535	64702.8
811.9603	419.7273	65535	64702.65
812.104	421.9064	65535	64697.55
812.2477	424.0848	65535	64700.7
812.3914	426.2627	65535	64703.65
812.5351	428.4399	65535	64702.1
812.6788	430.6166	65535	64698.2
812.8226	432.7928	65535	64693.3
812.9663	434.9683	65535	64693.95
813.1101	437.1432	65535	64695.1
813.2539	439.3176	65535	64700
813.3977	441.4914	65535	64700.95
813.5415	443.6645	65535	64698.6
813.6853	445.8371	65535	64698.1
813.8291	448.0091	65535	64695.25
813.973	450.1806	65535	64696.5
814.1168	452.3514	65535	64692.9
814.2607	454.5216	65535	64685.5
814.4046	456.6913	65535	64691.35
814.5485	458.8603	65535	64691
814.6924	461.0288	65535	64695.05
814.8363	463.1967	65535	64698.3
814.9802	465.3639	65535	64694.7
815.1241	467.5306	65535	64692.75
815.2681	469.6967	65535	64695.6
815.412	471.8622	65535	64696.25
815.556	474.0271	65535	64694.2
815.7	476.1914	65535	64686.9
815.844	478.3551	65535	64687.5
815.988	480.5182	65535	64691.3
816.132	482.6807	65535	64694.85
816.276	484.8426	65535	64695.75
816.4201	487.0039	65535	64694.85
816.5641	489.1647	65535	64686.25
816.7082	491.3248	65535	64687.9
816.8522	493.4843	65535	64688.6
816.9963	495.6432	65535	64686.6
817.1404	497.8015	65535	64682.25
817.2845	499.9592	65535	64678.35
817.4286	502.1163	65535	64681
817.5727	504.2728	65535	64682.3
817.7168	506.4287	65535	64688.2
817.861	508.5839	65535	64688.9
818.0051	510.7386	65535	64684.25
818.1493	512.8927	65535	64679.45
818.2935	515.0461	65535	64679.25
818.4377	517.199	65535	64678.55
818.5818	519.3512	65535	64680.25
818.726	521.5029	65535	64673.9
818.8703	523.6539	65535	64677.15
819.0145	525.8043	65535	64675.15
819.1587	527.9541	65535	64672.8
819.303	530.1033	65535	64674.95
819.4472	532.2519	65535	64675.25
819.5915	534.3999	65535	64672.85
819.7357	536.5472	65535	64673.15
819.88	538.694	65535	64676.8
820.0243	540.8401	65535	64671.25
820.1686	542.9856	65535	64669.2
820.3129	545.1305	65535	64667
820.4572	547.2748	65535	64665.95
820.6016	549.4185	65535	64661.4
820.7459	551.5615	65535	64664.65
820.8902	553.704	65535	64663.15
821.0346	555.8458	65535	64671.15
821.1789	557.987	65535	64670.3
821.3233	560.1276	65535	64666.65
821.4677	562.2675	65535	64666.7
821.6121	564.4069	65535	64667.5
821.7565	566.5456	65535	64668.25
821.9009	568.6837	65535	64666.4
822.0453	570.8212	65535	64667.8
822.1897	572.958	65535	64666.25
822.3342	575.0942	65535	64668.2
822.4786	577.2299	65535	64668.2
822.6231	579.3648	65535	64673.6
822.7675	581.4992	65535	64678.4
822.912	583.6329	65535	64680.15
823.0565	585.766	65535	64676.75
823.201	587.8985	65535	64671.6
823.3454	590.0304	65535	64642.45
823.4899	592.1616	65535	64664.55
823.6345	594.2922	65535	64664.55
823.779	596.4222	65535	64662
823.9235	598.5515	65535	64662.7
824.068	600.6802	65535	64656.5
824.2126	602.8083	65535	64660.65
824.3571	604.9358	65535	64659.95
824.5017	607.0626	65535	64658.75
824.6462	609.1888	65535	64657.1
824.7908	611.3144	65535	64653.85
824.9354	613.4393	65535	64658.75
825.08	615.5636	65535	64658.15
825.2246	617.6873	65535	64656.1
825.3692	619.8103	65535	64651.75
825.5138	621.9327	65535	64654
825.6584	624.0544	65535	64658.2
825.803	626.1756	65535	64661.25
825.9477	628.2961	65535	64653.95
826.0923	630.4159	65535	64656.8
826.237	632.5351	65535	64655.35
826.3816	634.6537	65535	64654
826.5263	636.7716	65535	64650.55
826.6709	638.8889	65535	64643.9
826.8156	641.0056	65535	64649.6
826.9603	643.1216	65535	64647.25
827.105	645.237	65535	64648.65
827.2497	647.3518	65535	64655.05
827.3944	649.4659	65535	64660
827.5391	651.5793	65535	64657.7
827.6838	653.6922	65535	64655.9
827.8285	655.8043	65535	64653.6
827.9733	657.9159	65535	64651.9
828.118	660.0268	65535	64650.8
828.2627	662.137	65535	64648.35
828.4075	664.2466	65535	64648.05
828.5522	666.3556	65535	64648.6
828.697	668.4639	65535	64650.65
828.8418	670.5716	65535	64650.85
828.9865	672.6786	65535	64649.25
829.1313	674.785	65535	64647.45
829.2761	676.8907	65535	64648.9
829.4209	678.9958	65535	64650.5
829.5657	681.1002	65535	64649.5
829.7105	683.204	65535	64641.35
829.8553	685.3072	65535	64642.25
830.0001	687.4097	65535	64648.05
830.1449	689.5115	65535	64644.5
830.2898	691.6127	65535	64646.55
830.4346	693.7132	65535	64649
830.5794	695.8131	65535	64626.7
830.7243	697.9123	65535	64642.45
830.8691	700.0109	65535	64638.95
831.014	702.1089	65535	64645.3
831.1588	704.2061	65535	64644.1
831.3037	706.3028	65535	64643.1
831.4486	708.3987	65535	64640.85
831.5935	710.4941	65535	64644.3
831.7383	712.5887	65535	64643.55
831.8832	714.6827	65535	64640.8
832.0281	716.7761	65535	64645.35
832.173	718.8688	65535	64644
832.3179	720.9608	65535	64637.25
832.4628	723.0522	65535	64634.1
832.6077	725.1429	65535	64638.55
832.7527	727.233	65535	64638.45
832.8976	729.3224	65535	64640.55
833.0425	731.4112	65535	64639.2
833.1874	733.4993	65535	64638.55
833.3324	735.5867	65535	64640.7
833.4773	737.6735	65535	64636.6
833.6222	739.7596	65535	64635.75
833.7672	741.845	65535	64637.25
833.9122	743.9298	65535	64637.2
834.0571	746.014	65535	64639.8
834.2021	748.0974	65534.65	64631.6
834.347	750.1802	65535	64635.25
834.492	752.2624	65533.6	64632.75
834.637	754.3439	65535	64633
834.782	756.4247	65535	64627.9
834.9269	758.5048	65530.8	64630.85
835.0719	760.5843	65533.55	64630.7
835.2169	762.6631	65535	64633.8
835.3619	764.7413	65527.7	64629.5
835.5069	766.8188	65526.55	64625.1
835.6519	768.8956	65535	64634.15
835.7969	770.9718	65531.95	64627.8
835.9419	773.0473	65532.25	64634.85
836.0869	775.1221	65522.3	64620
836.232	777.1962	65525.1	64624.8
836.377	779.2697	65489.8	64585.8
836.522	781.3426	65518.1	64597.5
836.667	783.4147	65519	64620.3
836.8121	785.4862	65518.95	64616.35
836.9571	787.557	65461.75	64559.7
837.1021	789.6271	65519.75	64616.3
837.2472	791.6966	65495.2	64588.65
837.3922	793.7654	65449.5	64546.9
837.5373	795.8335	65467.2	64563.7
837.6823	797.901	65489.45	64587.25
837.8274	799.9678	65464.35	64559.95
837.9724	802.0339	65445.95	64543.75
838.1175	804.0993	65448.9	64534.7
838.2626	806.1641	65426.9	64523.6
838.4076	808.2282	65427.9	64522.8
838.5527	810.2916	65426.25	64520.1
838.6978	812.3544	65455.1	64553.55
838.8428	814.4164	65395.2	64490.9
838.9879	816.4778	65400.8	64498.85
839.133	818.5385	65409.25	64502.55
839.2781	820.5986	65409.55	64503.8
839.4232	822.658	65416.8	64505.1
839.5682	824.7166	65423.25	64516.65
839.7133	826.7747	65368.7	64465.05
839.8584	828.832	65390.9	64487.05
840.0035	830.8886	65422.85	64516.85
840.1486	832.9446	65409.65	64502.8
840.2937	834.9999	65333.55	64429.45
840.4388	837.0545	65369.7	64459.2
840.5839	839.1085	65392.55	64483.15
840.729	841.1618	65374.75	64464
840.8741	843.2143	65316	64405.25
841.0192	845.2662	65323.75	64421.35
841.1643	847.3175	65348.15	64442.6
841.3095	849.368	65282.6	64374.9
841.4546	851.4179	65336	64427.35
841.5997	853.467	65302	64393.95
841.7448	855.5155	65330.95	64423
841.8899	857.5633	65286.15	64378.05
842.0351	859.6105	65281.55	64373.5
842.1802	861.6569	65305.65	64394.25
842.3253	863.7027	65261.65	64352.75
842.4704	865.7478	65275.15	64365.1
842.6156	867.7922	65257.1	64349.8
842.7607	869.8359	65279.1	64366.3
842.9058	871.8789	65214.1	64300.65
843.0509	873.9212	65252.35	64309.25
843.1961	875.9629	65259.25	64350.15
843.3412	878.0039	65248.2	64340.4
843.4863	880.0441	65230.25	64322
843.6315	882.0837	65231.7	64323.1
843.7766	884.1226	65238.4	64327.55
843.9218	886.1609	65239.15	64328.6
844.0669	888.1984	65221.05	64312.85
844.212	890.2352	65259.1	64349.7
844.3572	892.2714	65215.6	64302
844.5023	894.3069	65230.1	64321.95
844.6475	896.3416	65211.75	64301.25
844.7926	898.3757	65204.25	64292.9
844.9377	900.4091	65165.55	64254.25
845.0829	902.4418	65224.55	64308.35
845.228	904.4739	65172.85	64258.75
845.3732	906.5052	65192.25	64278.1
845.5183	908.5358	65167.05	64255.9
845.6635	910.5658	65157.35	64244.6
845.8086	912.595	65166.55	64253
845.9538	914.6236	65113.9	64202.6
846.0989	916.6515	65180.4	64267.9
846.2441	918.6786	65115.8	64202.45
846.3892	920.7051	65126.7	64214.1
846.5344	922.7309	65116.8	64204.5
846.6795	924.756	65137.5	64223.85
846.8246	926.7804	65108.6	64193.65
846.9698	928.8041	65066.7	64150.85
847.1149	930.8272	65084	64167.6
847.2601	932.8495	65098.2	64184.45
847.4052	934.8711	65067.9	64155.8
847.5504	936.892	65064.7	64150.9
847.6955	938.9123	65074.75	64159.1
847.8407	940.9318	65053.45	64137.15
847.9858	942.9506	65038.3	64124.4
848.131	944.9688	65046.95	64130.35
848.2761	946.9862	65001.75	64089.8
848.4213	949.003	65013.05	64100.05
848.5664	951.019	64985.75	64072.7
848.7115	953.0344	64980.7	64066
848.8567	955.0491	64987.55	64074.1
849.0018	957.063	64991.4	64078.95
849.147	959.0763	64987.75	64077.85
849.2921	961.0888	64973.9	64059.4
849.4373	963.1007	64976.4	64063.9
849.5824	965.1119	64971.75	64062.85
849.7275	967.1223	64965.35	64058.9
849.8727	969.1321	64978.65	64071.4
850.0178	971.1412	64953.25	64044.8
850.1629	973.1495	64941.95	64030.3
850.3081	975.1572	64941.3	63991.4
850.4532	977.1641	64944.5	64033.45
850.5983	979.1704	64919.75	64004.8
850.7435	981.1759	64921.6	64005.5
850.8886	983.1808	64908.75	63994.15
851.0337	985.1849	64904.55	63978.15
851.1788	987.1884	64905.45	63988.6
851.324	989.1911	64904.85	63990.35
851.4691	991.1932	64883.95	63970.4
851.6142	993.1945	64871.3	63958.45
851.7593	995.1951	64875.45	63961.35
851.9045	997.1951	64859.25	63937
852.0496	999.1943	64856.45	63942.55
852.1947	1001.1928	64833.35	63918.15
852.3398	1003.1906	64826.2	63912.2
852.4849	1005.1877	64817.6	63903.95
852.63	1007.1841	64803.95	63889.05
852.7751	1009.1798	64812.5	63895.75
852.9202	1011.1748	64790.35	63875.75
853.0653	1013.1691	64785.05	63869.2
853.2104	1015.1627	64772.1	63858.6
853.3555	1017.1556	64766.25	63854.15
853.5006	1019.1477	64766.25	63853.15
853.6457	1021.1392	64736.7	63826.2
853.7908	1023.1299	64729.25	63820
853.9359	1025.12	64718.4	63810.65
854.081	1027.1093	64705.05	63803.85
854.2261	1029.0979	64695.1	63795.2
854.3712	1031.0859	64705.7	63803.6
854.5163	1033.0731	64686.9	63777.95
854.6613	1035.0596	64674.55	63763
854.8064	1037.0454	64663.2	63749.65
854.9515	1039.0304	64652.6	63740.1
855.0965	1041.0148	64641.95	63729.55
855.2416	1042.9985	64629.3	63715.75
855.3867	1044.9814	64632.6	63718
855.5317	1046.9636	64619.8	63704.6
855.6768	1048.9452	64605.8	63695.3
855.8219	1050.926	64601.6	63690.35
855.9669	1052.9061	64599.1	63684.75
856.112	1054.8855	64598.5	63685.5
856.257	1056.8642	64591	63678.55
856.4021	1058.8421	64582.7	63665.55
856.5471	1060.8194	64583.9	63669.45
856.6921	1062.7959	64566.05	63652.8
856.8372	1064.7717	64566.2	63653.35
856.9822	1066.7469	64546.85	63632.35
857.1272	1068.7213	64560.25	63644.4
857.2723	1070.695	64557	63645.05
857.4173	1072.6679	64542.85	63629.45
857.5623	1074.6402	64533.85	63617.2
857.7073	1076.6117	64538.4	63618.15
857.8523	1078.5826	64534.3	63618.15
857.9973	1080.5527	64525.4	63610.2
858.1423	1082.5221	64519.35	63609.65
858.2873	1084.4908	64513	63598.9
858.4323	1086.4587	64505.05	63591.55
858.5773	1088.426	64496.85	63581.4
858.7223	1090.3925	64496.9	63580.2
858.8673	1092.3584	64490.15	63577.6
859.0123	1094.3235	64482.15	63566.8
859.1573	1096.2879	64462.8	63548
859.3022	1098.2515	64467.4	63554
859.4472	1100.2145	64468.85	63556.05
859.5922	1102.1767	64454	63540.3
859.7371	1104.1382	64454.3	63540.1
859.8821	1106.099	64443.5	63531.35
860.027	1108.0591	64439.6	63526.55
860.172	1110.0185	64429.85	63514.9
860.3169	1111.9771	64432.95	63519.45
860.4619	1113.9351	64421.35	63507.45
860.6068	1115.8923	64406.65	63491.15
860.7517	1117.8488	64413.3	63499.05
860.8967	1119.8045	64399.95	63485.45
861.0416	1121.7596	64399.55	63484.55
861.1865	1123.7139	64383.7	63471.6
861.3314	1125.6675	64376.65	63463.8
861.4763	1127.6204	64367.95	63455.85
861.6212	1129.5726	64371.05	63455.35
861.7661	1131.524	64368	63454.9
861.911	1133.4748	64360.4	63444.8
862.0559	1135.4248	64344.1	63430.15
862.2008	1137.3741	64334.3	63423.4
862.3457	1139.3226	64334.1	63418.95
862.4905	1141.2705	64321.65	63407.45
862.6354	1143.2176	64318.2	63399.45
862.7803	1145.164	64224.45	63311
862.9251	1147.1097	64296.5	63381.5
863.07	1149.0546	64305	63388.25
863.2148	1150.9989	64317.25	63401.25
863.3597	1152.9424	64172.35	63256.95
863.5045	1154.8852	64300.6	63385.75
863.6493	1156.8272	64211.15	63294.5
863.7942	1158.7686	64283.45	63362.65
863.939	1160.7092	64167.4	63252.45
864.0838	1162.6491	64217.55	63303.4
864.2286	1164.5883	64223.6	63312.25
864.3734	1166.5267	64118.3	63205.4
864.5182	1168.4644	64196.1	63280.5
864.663	1170.4014	64180.55	63261.55
864.8078	1172.3377	64194	63281.7
864.9526	1174.2732	64215.35	63302.35
865.0974	1176.2081	64170.05	63256.3
865.2421	1178.1421	64105.95	63191.4
865.3869	1180.0755	64207.2	63294.75
865.5317	1182.0082	64181.65	63269.6
865.6764	1183.9401	64177.65	63268.05
865.8212	1185.8713	64029.45	63121.65
865.9659	1187.8017	64056.3	63147.85
866.1106	1189.7315	64037.2	63134.8
866.2554	1191.6605	64029.55	63098.65
866.4001	1193.5888	63953.65	63047.25
866.5448	1195.5163	63796.2	62890.05
866.6895	1197.4432	63801.45	62890.45
866.8342	1199.3693	63830.2	62921.2
866.9789	1201.2947	63779.6	62867.35
867.1236	1203.2193	63839.55	62931.65
867.2683	1205.1432	63653.1	62741.35
867.413	1207.0664	63660.25	62746.9
867.5576	1208.9889	63615	62701.5
867.7023	1210.9106	63641.8	62734.65
867.847	1212.8316	63559.95	62650.7
867.9916	1214.7519	63569.55	62647.7
868.1363	1216.6715	63511.45	62602.05
868.2809	1218.5903	63495.2	62588.15
868.4255	1220.5084	63456.3	62542.7
868.5701	1222.4257	63478	62566.45
868.7148	1224.3424	63426.85	62517.65
868.8594	1226.2583	63329.95	62413.85
869.004	1228.1735	63440.05	62529.6
869.1486	1230.0879	63292.95	62380.8
869.2932	1232.0016	63399.1	62487.95
869.4377	1233.9146	63251.8	62340.6
869.5823	1235.8269	63315.95	62404.55
869.7269	1237.7384	63254.1	62344.5
869.8715	1239.6492	63225.55	62315.55
870.016	1241.5592	63125.65	62214.1
870.1606	1243.4686	63187	62276
870.3051	1245.3772	63086	62171.85
870.4496	1247.285	63168.35	62256.1
870.5941	1249.1922	63021.65	62111.6
870.7387	1251.0986	63110.85	62200.15
870.8832	1253.0042	63024.65	62115.05
871.0277	1254.9092	63073.2	62160.75
871.1722	1256.8134	62900.95	61993.2
871.3167	1258.7169	63057.35	62147.05
871.4611	1260.6196	62922	62014.2
871.6056	1262.5216	62937.15	62026.1
871.7501	1264.4229	62959.2	62049.1
871.8945	1266.3234	63019.05	62108.15
872.039	1268.2232	62989.85	62077.25
872.1834	1270.1223	62894.15	61980.75
872.3278	1272.0207	62858.25	61947.35
872.4723	1273.9183	62856.5	61938.65
872.6167	1275.8151	62866.2	61954.85
872.7611	1277.7113	62851.2	61939.75
872.9055	1279.6067	62782.5	61871.55
873.0499	1281.5014	62741.6	61830.45
873.1943	1283.3953	62846.25	61933.9
873.3386	1285.2885	62780.9	61873.15
873.483	1287.181	62792	61879.85
873.6274	1289.0727	62834.15	61925.6
873.7717	1290.9637	62692.75	61781.3
873.9161	1292.854	62830.5	61918.95
874.0604	1294.7435	62782.5	61872.7
874.2047	1296.6323	62782.85	61871.8
874.349	1298.5204	62737.5	61822.8
874.4933	1300.4077	62773.3	61860.65
874.6376	1302.2943	62682.5	61769.5
874.7819	1304.1802	62654	61745.4
874.9262	1306.0653	62582.9	61671.5
875.0705	1307.9497	62570.2	61659.1
875.2147	1309.8333	62550.5	61641.3
875.359	1311.7162	62515.05	61604.95
875.5032	1313.5984	62522.6	61606.65
875.6475	1315.4798	62453.6	61533.65
875.7917	1317.3605	62441.25	61514.45
875.9359	1319.2405	62456.65	61541
876.0801	1321.1197	62337.95	61424.8
876.2243	1322.9982	62351.8	61439.1
876.3685	1324.876	62305.5	61394.45
876.5127	1326.753	62286.2	61373.8
876.6569	1328.6293	62341.4	61430.15
876.801	1330.5048	62286.25	61369.1
876.9452	1332.3796	62239.1	61330.8
877.0893	1334.2537	62215.55	61281.9
877.2335	1336.127	62247.35	61336.6
877.3776	1337.9996	62175.4	61264.3
877.5217	1339.8714	62205.95	61295.6
877.6658	1341.7426	62091.45	61136.7
877.8099	1343.6129	62132.35	61220.3
877.954	1345.4826	62133.95	61222.9
878.0981	1347.3515	62081.3	61168.35
878.2422	1349.2196	62092.65	61179.7
878.3862	1351.087	62096.4	61181.7
878.5303	1352.9537	62069.1	61156.6
878.6743	1354.8197	62077.55	61164.55
878.8184	1356.6849	62061.35	61152.4
878.9624	1358.5493	62054.95	61144.25
879.1064	1360.4131	62022.15	61110.45
879.2504	1362.276	62060.75	61150.35
879.3944	1364.1383	61955.55	61044.85
879.5384	1365.9998	61902.45	60988.7
879.6823	1367.8606	61911.05	60999
879.8263	1369.7206	61865.1	60953.35
879.9702	1371.5799	61833.55	60921.15
880.1142	1373.4384	61752.95	60840.5
880.2581	1375.2962	61755.9	60845.4
880.402	1377.1533	61601.5	60690.65
880.5459	1379.0096	61577.7	60669.2
880.6898	1380.8652	61548.15	60637.85
880.8337	1382.7201	61478.35	60570.9
880.9776	1384.5742	61477.15	60567.3
881.1215	1386.4275	61303.75	60392.9
881.2653	1388.2802	61317.6	60407.55
881.4092	1390.132	61317.55	60408.9
881.553	1391.9832	61207.3	60295.05
881.6968	1393.8336	61137.2	60223.75
881.8406	1395.6832	61141.45	60229.45
881.9844	1397.5322	61140.2	60229.05
882.1282	1399.3803	61012.35	60098.5
882.272	1401.2278	60972.25	60060.55
882.4158	1403.0745	60919.9	60013.75
882.5595	1404.9204	60904.45	59995.3
882.7033	1406.7656	60907.05	59995.8
882.847	1408.6101	60812.45	59902.75
882.9908	1410.4538	60815.75	59906.35
883.1345	1412.2968	60782.9	59872.25
883.2782	1414.139	60697.95	59790.3
883.4219	1415.9805	60712.85	59802.15
883.5656	1417.8213	60643.45	59730.85
883.7092	1419.6613	60674.4	59769.25
883.8529	1421.5006	60608.75	59697.55
883.9965	1423.3391	60567.95	59656.9
884.1402	1425.1769	60608.3	59699.3
884.2838	1427.0139	60696.25	59787.25
884.4274	1428.8502	60651.1	59738.75
884.571	1430.6858	60628.95	59718.6
884.7146	1432.5206	60712.95	59804.1
884.8582	1434.3547	60631.9	59718.2
885.0018	1436.188	60550.95	59643
885.1453	1438.0206	60592.5	59681.55
885.2889	1439.8524	60525.25	59614.75
885.4324	1441.6835	60504.05	59594.75
885.5759	1443.5139	60513.25	59602.8
885.7194	1445.3435	60411.8	59502.45
885.8629	1447.1724	60446.9	59537.35
886.0064	1449.0005	60270.25	59361.1
886.1499	1450.8279	60380.55	59471.05
886.2933	1452.6545	60335.25	59426.6
886.4368	1454.4804	60332.15	59425.05
886.5802	1456.3056	60205.85	59293.45
886.7237	1458.13	60245.95	59338.85
886.8671	1459.9536	60300.25	59392.75
887.0105	1461.7766	60104.55	59194.5
887.1539	1463.5987	59954.65	59046.25
887.2972	1465.4202	59977.1	59070.55
887.4406	1467.2409	59900.55	58991.9
887.584	1469.0608	59710.85	58802.1
887.7273	1470.88	59761.65	58851.45
887.8706	1472.6984	59740.55	58831.2
888.0139	1474.5161	59495.2	58584.25
888.1572	1476.3331	59595.65	58687.25
888.3005	1478.1493	59403.9	58496.55
888.4438	1479.9648	59338.8	58430.95
888.5871	1481.7795	59438.85	58528.4
888.7303	1483.5935	59437.7	58530.25
888.8736	1485.4067	59212.9	58303.2
889.0168	1487.2192	59315.95	58408
889.16	1489.031	59164.75	58254.75
889.3032	1490.842	59211.8	58306.25
889.4464	1492.6522	59219.25	58311.85
889.5896	1494.4618	59071.75	58163.7
889.7327	1496.2705	59152.05	58247.6
889.8759	1498.0785	58851	57941.05
890.019	1499.8858	58987.45	58079.05
890.1622	1501.6924	59092.9	58186.35
890.3053	1503.4981	58863.75	57956.3
890.4484	1505.3032	58923.75	58017
890.5914	1507.1075	58722.5	57814.4
890.7345	1508.911	58741.75	57835.2
890.8776	1510.7138	58741.4	57833.5
891.0206	1512.5159	58784.8	57878.45
891.1637	1514.3172	58402.45	57495.5
891.3067	1516.1178	58439	57534.6
891.4497	1517.9176	58563.15	57651.65
891.5927	1519.7166	58416.1	57511.45
891.7357	1521.515	58326.35	57416.25
891.8786	1523.3126	58127.3	57219.2
892.0216	1525.1094	58301.55	57396.1
892.1645	1526.9055	58167.8	57263.7
892.3074	1528.7008	58143.7	57238.35
892.4503	1530.4954	57865.6	56959.35
892.5932	1532.2893	58065.1	57162
892.7361	1534.0824	57773.55	56867.3
892.879	1535.8747	57635.4	56733.45
893.0218	1537.6663	58030.3	57129.1
893.1647	1539.4572	57381.55	56477.9
893.3075	1541.2473	57594.6	56689.9
893.4503	1543.0367	57436.15	56532.1
893.5931	1544.8253	57347	56438.05
893.7359	1546.6132	57469.65	56563.45
893.8787	1548.4003	57241.1	56328.45
894.0214	1550.1867	57224.6	56312.1
894.1642	1551.9723	57159.35	56253.15
894.3069	1553.7572	57163.9	56263.3
894.4496	1555.5414	57246.15	56345.35
894.5923	1557.3247	56858.75	55959.8
894.735	1559.1074	57138.85	56238.1
894.8777	1560.8893	56987.3	56088.3
895.0204	1562.6705	57018.35	56117.9
895.163	1564.4509	56826.45	55928.25
895.3056	1566.2305	56886.35	55991.05
895.4482	1568.0094	57044.8	56146.8
895.5908	1569.7876	56888.35	55989.35
895.7334	1571.565	56710.8	55811.95
895.876	1573.3417	56764	55865
896.0186	1575.1176	56681.6	55780.9
896.1611	1576.8928	56626.75	55728.75
896.3036	1578.6672	56479.35	55584.1
896.4461	1580.4409	56476.05	55581.45
896.5886	1582.2138	56332.5	55434.5
896.7311	1583.986	56370.2	55473.8
896.8736	1585.7575	56285.5	55387.8
897.0161	1587.5282	56248.05	55354.55
897.1585	1589.2981	56271.1	55377.35
897.3009	1591.0673	56116.5	55223.1
897.4433	1592.8358	56052.3	55157.35
897.5857	1594.6035	56152.4	55254
897.7281	1596.3704	56113.15	55215.45
897.8705	1598.1366	55950.1	55052.05
898.0128	1599.9021	55787	54889.85
898.1551	1601.6668	55898.75	54999.7
898.2975	1603.4308	55809.5	54910.25
898.4398	1605.194	55920.1	55018.25
898.5821	1606.9564	55618.35	54725.45
898.7243	1608.7182	55784.5	54891.85
898.8666	1610.4791	55647.3	54757.1
899.0088	1612.2394	55757.95	54869.5
899.1511	1613.9988	55631.95	54741.9
899.2933	1615.7576	55808.65	54915.15
899.4355	1617.5156	55747.3	54844.45
899.5776	1619.2728	55894.2	54996.8
899.7198	1621.0293	55589.8	54694.35
899.862	1622.785	55515.1	54619.5
900.0041	1624.54	55528	54635.9
900.1462	1626.2942	55305.55	54411.75
900.2883	1628.0477	54910.9	54017.25
900.4304	1629.8005	54702.9	53805.8
900.5725	1631.5525	54852.85	53958.95
900.7145	1633.3037	54428.95	53537.8
900.8566	1635.0542	54348.45	53455.15
900.9986	1636.804	54429.25	53539.3
901.1406	1638.553	54155.05	53216.2
901.2826	1640.3013	54163.3	53269.25
901.4245	1642.0488	53931.15	53036.25
901.5665	1643.7955	54044.4	53151.85
901.7085	1645.5416	53882.45	52991.75
901.8504	1647.2868	53764.45	52872.05
901.9923	1649.0313	53931.7	53038.85
902.1342	1650.7751	53805.15	52908.7
902.2761	1652.5181	53654.35	52764.1
902.4179	1654.2604	53667.35	52775.75
902.5598	1656.0019	53780.5	52889.9
902.7016	1657.7427	53643.55	52749.9
902.8434	1659.4828	53802.15	52908.55
902.9852	1661.222	53599.6	52705.5
903.127	1662.9606	53740.3	52848.2
903.2687	1664.6984	53451.35	52558.45
903.4105	1666.4354	53441	52546
903.5522	1668.1717	52976.75	52081.3
903.6939	1669.9072	52565.45	51670.25
903.8356	1671.642	52422.85	51525.55
903.9773	1673.3761	52251.9	51358.7
904.119	1675.1094	52113	51219.6
904.2606	1676.8419	51791.2	50899.35
904.4022	1678.5737	51759.9	50865.6
904.5439	1680.3048	51564.45	50669.1
904.6855	1682.0351	51396.4	50502.15
904.827	1683.7646	51111.5	50216.3
904.9686	1685.4934	51165.8	50273.35
905.1101	1687.2215	50727.3	49834.2
905.2517	1688.9488	50899.1	50008.8
905.3932	1690.6754	50238.8	49346
905.5347	1692.4012	50502.7	49608.65
905.6761	1694.1263	50420.4	49528.85
905.8176	1695.8506	50225.95	49333.4
905.9591	1697.5742	50191.35	49298.95
906.1005	1699.297	49999.75	49108.55
906.2419	1701.0191	49927.45	49038.85
906.3833	1702.7404	49703.9	48815.2
906.5246	1704.461	49545.85	48655.7
906.666	1706.1808	49536.5	48642.2
906.8073	1707.8999	49440.95	48548.75
906.9487	1709.6182	49315.6	48425.5
907.09	1711.3358	49259.7	48370.45
907.2313	1713.0527	49088.85	48203.75
907.3725	1714.7688	49067.6	48173.55
907.5138	1716.4841	48769.95	47878.2
907.655	1718.1987	48787.4	47890.9
907.7962	1719.9126	48708.75	47818.85
907.9374	1721.6257	48630.45	47738.05
908.0786	1723.338	48625.05	47738
908.2198	1725.0496	48293.7	47402.95
908.3609	1726.7605	48267.1	47375.95
908.502	1728.4706	48142.75	47254.15
908.6431	1730.18	48112.95	47222.65
908.7842	1731.8886	47980.2	47093.35
908.9253	1733.5964	47855.95	46964.05
909.0664	1735.3036	47847.15	46954.8
909.2074	1737.0099	47751.85	46862.8
909.3484	1738.7156	47636	46748.55
909.4894	1740.4204	47540.05	46651.25
909.6304	1742.1246	47530.95	46640.25
909.7714	1743.8279	47465.05	46575.75
909.9123	1745.5306	47431.65	46543.4
910.0532	1747.2325	47196.35	46309.65
910.1941	1748.9336	47122.6	46230.9
910.335	1750.634	47045.05	46154.7
910.4759	1752.3336	47024.55	46135.05
910.6168	1754.0325	46872.1	45987.25
910.7576	1755.7307	46922.15	46035.55
910.8984	1757.4281	46829.5	45940.7
911.0392	1759.1247	46845.5	45947.9
911.18	1760.8206	46709.1	45814.65
911.3208	1762.5158	46627.65	45735.55
911.4615	1764.2102	46541.45	45652.9
911.6022	1765.9039	46427.55	45538.55
911.7429	1767.5968	46381.25	45495.1
911.8836	1769.289	46293	45403.7
912.0243	1770.9804	46229.05	45342.6
912.1649	1772.6711	46199.8	45310.95
912.3056	1774.361	46069.1	45177.85
912.4462	1776.0502	46018.4	45127.35
912.5868	1777.7386	45816.15	44925.95
912.7274	1779.4263	45799.4	44910.6
912.8679	1781.1132	45828.9	44943.7
913.0084	1782.7994	45696.05	44809.35
913.149	1784.4849	45658.95	44773.6
913.2895	1786.1696	45344.7	44451.75
913.4299	1787.8535	45444.75	44559.4
913.5704	1789.5367	45435.5	44549.1
913.7108	1791.2192	45195.45	44308.85
913.8513	1792.9009	44940.85	44023.3
913.9917	1794.5818	45151.9	44262.5
914.132	1796.2621	44878.95	43992.3
914.2724	1797.9415	44864.9	43977.95
914.4128	1799.6202	44769.95	43882.35
914.5531	1801.2982	44707.45	43817.8
914.6934	1802.9755	44461.75	43571.05
914.8337	1804.6519	44358.95	43469.75
914.9739	1806.3277	44501.1	43615.6
915.1142	1808.0027	44019.1	43132.35
915.2544	1809.6769	44178.85	43294.25
915.3946	1811.3504	44127.45	43239.65
915.5348	1813.0231	43767.9	42881.9
915.675	1814.6951	43948.15	43061.55
915.8151	1816.3664	43822.15	42932.15
915.9553	1818.0369	43702.95	42814
916.0954	1819.7067	43547.05	42657.3
916.2355	1821.3757	43705.65	42815.7
916.3755	1823.044	43461.15	42572.45
916.5156	1824.7115	43201.95	42312.3
916.6556	1826.3783	43200.15	42313.7
916.7956	1828.0443	43166.4	42281.05
916.9356	1829.7096	43032.35	42143.55
917.0756	1831.3741	42740.95	41851.15
917.2155	1833.0379	42841.05	41955
917.3555	1834.701	42754.95	41867.7
917.4954	1836.3633	42546	41659.85
917.6353	1838.0248	42597.65	41709.75
917.7751	1839.6856	42487.95	41601.5
917.915	1841.3457	42219.9	41334.35
918.0548	1843.005	42376.5	41489.75
918.1946	1844.6636	42262.25	41374.75
918.3344	1846.3214	41885.5	40995.5
918.4742	1847.9785	41955.85	41069.15
918.6139	1849.6349	41856.1	40966.5
918.7537	1851.2904	42051.85	41154.9
918.8934	1852.9453	41642.35	40750.95
919.0331	1854.5994	41726.3	40835.25
919.1727	1856.2528	41691.45	40799.75
919.3124	1857.9054	41473.55	40585.5
919.452	1859.5572	41384.2	40499.35
919.5916	1861.2083	41447.4	40558.5
919.7312	1862.8587	41546.85	40658.7
919.8708	1864.5084	41021.3	40131.2
920.0103	1866.1572	41170.1	40282.65
920.1498	1867.8054	40834.75	39945.7
920.2893	1869.4528	40982.5	40095.2
920.4288	1871.0994	40725.95	39837.45
920.5683	1872.7453	40612.25	39722.95
920.7077	1874.3905	40651.5	39758.05
920.8471	1876.0349	40376.05	39486.85
920.9865	1877.6786	40532.4	39643.95
921.1259	1879.3215	40349.95	39463.8
921.2653	1880.9637	40451.65	39562.6
921.4046	1882.6051	40227.55	39340.7
921.5439	1884.2458	40088.1	39197.4
921.6832	1885.8858	39876.35	38988.7
921.8225	1887.525	39919.1	39030.55
921.9617	1889.1634	39751.55	38861.45
922.101	1890.8011	39667.1	38780.1
922.2402	1892.4381	39393.45	38505.9
922.3794	1894.0743	39590.4	38704
922.5185	1895.7098	39422.75	38536.5
922.6577	1897.3446	39215.85	38326.05
922.7968	1898.9786	39228.7	38337.2
922.9359	1900.6118	39088.55	38201.4
923.075	1902.2443	38861.95	37970.05
923.214	1903.8761	38936.05	38048.25
923.3531	1905.5071	38678.5	37790.35
923.4921	1907.1374	38394.7	37506.15
923.6311	1908.7669	38459.1	37571.6
923.77	1910.3957	38532.8	37644.9
923.909	1912.0237	38191.2	37305.55
924.0479	1913.651	38083.15	37194.95
924.1868	1915.2776	37985.55	37101.8
924.3257	1916.9034	37889.9	37004
924.4646	1918.5285	37725.05	36838.85
924.6034	1920.1528	37545.75	36658.4
924.7422	1921.7764	37532.65	36645.75
924.881	1923.3992	37387.75	36501.6
925.0198	1925.0213	37148.2	36261.55
925.1586	1926.6427	36930.55	36045.1
925.2973	1928.2633	37095.25	35992.85
925.436	1929.8832	36931.55	36040.3
925.5747	1931.5023	36744.35	35857.1
925.7134	1933.1207	36535.7	35649.5
925.852	1934.7383	36531.95	35645.15
925.9906	1936.3552	36331.35	35444.2
926.1292	1937.9714	36317	35431
926.2678	1939.5868	36232.8	35342.8
926.4064	1941.2015	35907.7	35017.95
926.5449	1942.8154	35772.95	34884.15
926.6834	1944.4286	35721.3	34833.15
926.8219	1946.041	35649.4	34737.75
926.9604	1947.6528	35421.9	34531.05
927.0988	1949.2637	35375.25	34487.95
927.2372	1950.8739	35209	34321.1
927.3756	1952.4834	35178.4	34291.8
927.514	1954.0921	35090.55	34204.8
927.6523	1955.7001	34938.65	34049.6
927.7907	1957.3074	34853.55	33970.5
927.929	1958.9139	34694.95	33812
928.0673	1960.5197	34607.05	33722.25
928.2055	1962.1247	34489.35	33605.5
928.3438	1963.729	34296.35	33412.25
928.482	1965.3325	34176.7	33269.25
928.6202	1966.9353	34075.55	33192.45
928.7584	1968.5374	33902.4	33017.05
928.8965	1970.1387	33818.4	32933.25
929.0346	1971.7393	33723.8	32838.4
929.1727	1973.3392	33681.55	32796.6
929.3108	1974.9383	33467.65	32584.15
929.4489	1976.5366	33372.6	32487.1
929.5869	1978.1342	33320.85	32437.6
929.7249	1979.7311	33248.65	32364.85
929.8629	1981.3273	33162.6	32279
930.0009	1982.9227	33031.45	32146.8
930.1388	1984.5173	32898.35	32016.5
930.2767	1986.1112	32783.65	31901.85
930.4146	1987.7044	32763.5	31882.95
930.5525	1989.2968	32590.1	31705.55
930.6904	1990.8885	32567.3	31679.7
930.8282	1992.4795	32495.4	31609.25
930.966	1994.0697	32339.6	31457.2
931.1038	1995.6592	32199.7	31315.8
931.2415	1997.2479	32132.1	31249.3
931.3793	1998.8359	32083.35	31200.65
931.517	2000.4232	31941.35	31060.9
931.6547	2002.0097	31850.35	30969.6
931.7923	2003.5955	31681.55	30801
931.93	2005.1805	31657.2	30774.95
932.0676	2006.7648	31548.95	30667.6
932.2052	2008.3484	31454.05	30569.7
932.3427	2009.9312	31451.7	30568.45
932.4803	2011.5133	31335.75	30454.95
932.6178	2013.0946	31232.3	30352.5
932.7553	2014.6752	31151.4	30268.55
932.8928	2016.2551	31058.95	30176.35
933.0302	2017.8342	30940	30058.8
933.1676	2019.4126	30813.8	29934
933.305	2020.9902	30722.25	29841.75
933.4424	2022.5672	30664.95	29782.25
933.5798	2024.1433	30591.3	29706
933.7171	2025.7188	30505.85	29626.55
933.8544	2027.2935	30408.9	29528
933.9917	2028.8674	30254	29373.55
934.129	2030.4406	30209	29329.4
934.2662	2032.0131	30018.75	29139.45
934.4034	2033.5849	29946.4	29061.45
934.5406	2035.1559	29901	29023.45
934.6778	2036.7261	29841.05	28961.35
934.8149	2038.2957	29784.1	28901.15
934.952	2039.8645	29717.65	28837.35
935.0891	2041.4325	29703.95	28818.45
935.2262	2042.9998	29538.5	28656.15
935.3632	2044.5664	29501.55	28618.4
935.5002	2046.1323	29439.9	28559.2
935.6372	2047.6974	29318.5	28439.6
935.7742	2049.2617	29218.4	28338.75
935.9111	2050.8254	29195.1	28309.4
936.048	2052.3883	29122.95	28242.9
936.1849	2053.9504	29003.45	28120.4
936.3218	2055.5118	28921.3	28039.35
936.4586	2057.0725	28745.55	27859.5
936.5955	2058.6325	28737.55	27854.7
936.7323	2060.1917	28611.25	27730.7
936.869	2061.7502	28574.45	27690.25
937.0058	2063.3079	28502.1	27622.4
937.1425	2064.8649	28342.1	27457.1
937.2792	2066.4212	28345.45	27464.8
937.4159	2067.9767	28225.65	27346.85
937.5525	2069.5315	28160.65	27278.25
937.6891	2071.0856	28015.85	27136.3
937.8257	2072.6389	27875.55	26993.5
937.9623	2074.1915	27745.7	26870
938.0989	2075.7433	27635.9	26751.7
938.2354	2077.2945	27580.4	26700.5
938.3719	2078.8448	27482.55	26600
938.5084	2080.3945	27375.4	26492.8
938.6448	2081.9434	27346.15	26464.45
938.7812	2083.4916	27332.5	26449.75
938.9176	2085.039	27217.7	26331.6
939.054	2086.5857	27156.7	26271.15
939.1903	2088.1317	27126.2	26242.9
939.3267	2089.677	26969.85	26085.95
939.463	2091.2215	26925.65	26039.95
939.5992	2092.7652	26829.95	25943.25
939.7355	2094.3083	26769	25883.55
939.8717	2095.8506	26769.35	25884.2
940.0079	2097.3921	26668.35	25786.1
940.1441	2098.933	26560.85	25679.2
940.2802	2100.4731	26559.35	25676.7
940.4163	2102.0124	26501.9	25601.25
940.5524	2103.5511	26466.1	25586.1
940.6885	2105.089	26406.15	25522.8
940.8245	2106.6261	26298.05	25416.35
940.9606	2108.1626	26279.25	25395.3
941.0965	2109.6983	26213.25	25304.7
941.2325	2111.2332	26108.7	25224.35
941.3684	2112.7675	25995.75	25111.75
941.5044	2114.301	26000.7	25113.65
941.6403	2115.8337	25960.65	25074.85
941.7761	2117.3657	25804.6	24921.75
941.912	2118.897	25752.55	24868.65
942.0478	2120.4276	25661.1	24770.3
942.1835	2121.9575	25545.35	24661.65
942.3193	2123.4866	25580.55	24682.1
942.455	2125.0149	25509.9	24622.8
942.5907	2126.5426	25374.8	24493.85
942.7264	2128.0695	25287.2	24402.45
942.8621	2129.5956	25229.05	24348.55
942.9977	2131.1211	25204.1	24319.45
943.1333	2132.6458	25140	24257.2
943.2689	2134.1698	25052.55	24168.8
943.4044	2135.693	25017.05	24128.8
943.54	2137.2155	24920.95	24035.75
943.6755	2138.7373	24866.9	23984.25
943.8109	2140.2584	24759.45	23877.3
943.9464	2141.7787	24714.55	23828.55
944.0818	2143.2983	24598.75	23720.65
944.2172	2144.8171	24427.7	23547.9
944.3526	2146.3353	24405.5	23520.5
944.4879	2147.8527	24325.85	23446.45
944.6232	2149.3693	24305.7	23423.1
944.7585	2150.8853	24216.05	23331.6
944.8938	2152.4005	24127	23243.2
945.029	2153.9149	24073.5	23190.45
945.1642	2155.4287	23997.85	23112.95
945.2994	2156.9417	23942.1	23055.95
945.4346	2158.454	23889.1	23004.9
945.5697	2159.9655	23805.95	22924.1
945.7048	2161.4764	23754.3	22872.5
945.8399	2162.9865	23678.3	22798
945.9749	2164.4958	23604.9	22721.85
946.1099	2166.0045	23517.55	22634.2
946.2449	2167.5124	23539.65	22656.95
946.3799	2169.0195	23438.8	22555.85
946.5148	2170.526	23379.65	22494.05
946.6498	2172.0317	23310.65	22426.25
946.7846	2173.5367	23244.05	22361.95
946.9195	2175.0409	23180.05	22295.95
947.0543	2176.5445	23185.95	22304.55
947.1891	2178.0473	23067.7	22183.05
947.3239	2179.5494	22965.75	22078.85
947.4587	2181.0507	22899.35	22018.6
947.5934	2182.5513	22789.9	21907.95
947.7281	2184.0512	22779.7	21895.15
947.8628	2185.5504	22716.7	21832.55
947.9974	2187.0488	22587.6	21705.2
948.132	2188.5465	22489.15	21607.9
948.2666	2190.0435	22444.25	21560.7
948.4012	2191.5397	22388.3	21505.95
948.5357	2193.0353	22302.75	21416.85
948.6702	2194.5301	22168.5	21285.85
948.8047	2196.0241	22129.3	21243.5
948.9392	2197.5175	22057.8	21172.45
949.0736	2199.0101	21949.35	21057.45
949.208	2200.502	21838.85	20955.3
949.3424	2201.9931	21793.45	20907.9
949.4767	2203.4835	21719.75	20834.15
949.611	2204.9733	21689.35	20802
949.7453	2206.4622	21612.8	20732.7
949.8796	2207.9505	21549.6	20666.6
950.0138	2209.438	21443.55	20564.5
950.148	2210.9248	21376.35	20492.45
950.2822	2212.4109	21308.45	20424.65
950.4164	2213.8962	21271.15	20382
950.5505	2215.3809	21223.65	20337.7
950.6846	2216.8648	21149.6	20263.05
950.8186	2218.3479	21068.4	20179.4
950.9527	2219.8304	20964	20073.35
951.0867	2221.3121	20902.9	20015.45
951.2207	2222.7931	20835.75	19950.95
951.3546	2224.2733	20741.15	19855.95
951.4886	2225.7529	20708.2	19824.15
951.6225	2227.2317	20609.7	19725.25
951.7563	2228.7098	20600.8	19720.35
951.8902	2230.1872	20500.55	19618.6
952.024	2231.6638	20480.9	19599.45
952.1578	2233.1397	20373.85	19486.4
952.2916	2234.6149	20297.65	19415.8
952.4253	2236.0894	20210.05	19327.7
952.559	2237.5632	20192.45	19300.55
952.6927	2239.0362	20093.3	19211.3
952.8263	2240.5085	20041.3	19156.8
952.9599	2241.9801	19943.95	19058.9
953.0935	2243.4509	19877.35	18993.2
953.2271	2244.921	19840.4	18954.2
953.3606	2246.3904	19757.65	18872.15
953.4941	2247.8591	19699.45	18815
953.6276	2249.3271	19654.75	18770.65
953.7611	2250.7943	19540.2	18652.55
953.8945	2252.2608	19519.35	18633.15
954.0279	2253.7266	19482.6	18598.85
954.1612	2255.1917	19408.55	18525.05
954.2946	2256.656	19327.5	18447.45
954.4279	2258.1197	19252.4	18368.5
954.5612	2259.5826	19243.55	18359.45
954.6944	2261.0447	19193.1	18308.65
954.8276	2262.5062	19112.2	18226.1
954.9608	2263.9669	19044.5	18157.15
955.094	2265.4269	19009.25	18125.35
955.2271	2266.8862	18944.55	18058.05
955.3602	2268.3448	18916.15	18032.9
955.4933	2269.8026	18875.6	17994.35
955.6264	2271.2598	18832.65	17949.75
955.7594	2272.7162	18745.85	17863.5
955.8924	2274.1719	18680.6	17795.65
956.0253	2275.6268	18636.95	17752.8
956.1583	2277.0811	18603.35	17717.55
956.2912	2278.5346	18559.4	17674.8
956.4241	2279.9874	18517.8	17635
956.5569	2281.4395	18484.35	17601.2
956.6897	2282.8908	18392.3	17504.35
956.8225	2284.3414	18348.35	17461.3
956.9553	2285.7914	18277.8	17395.25
957.088	2287.2406	18233.05	17348.45
957.2207	2288.689	18172.55	17285.75
957.3534	2290.1368	18129.85	17243.1
957.486	2291.5838	18055.15	17166.3
957.6186	2293.0302	18031.15	17142.1
957.7512	2294.4758	17919.9	17033.75
957.8838	2295.9206	17872.95	16985.75
958.0163	2297.3648	17819.55	16933.85
958.1488	2298.8082	17808.6	16925
958.2813	2300.251	17733.8	16847.45
958.4137	2301.693	17675.35	16789.85
958.5461	2303.1343	17690.75	16805.85
958.6785	2304.5748	17589.35	16706.4
958.8108	2306.0147	17529	16645.85
958.9432	2307.4538	17473.6	16589.9
959.0754	2308.8922	17459.25	16578.8
959.2077	2310.3299	17363.45	16481.1
959.3399	2311.7669	17302.7	16420.35
959.4721	2313.2031	17268.15	16383.25
959.6043	2314.6387	17179.65	16294.3
959.7365	2316.0735	17129.8	16245.95
959.8686	2317.5076	17106.05	16222.7
960.0006	2318.941	17105.95	16221.55
960.1327	2320.3737	17016.25	16129.85
960.2647	2321.8056	16962.05	16073.55
960.3967	2323.2369	16908.5	16021.25
960.5287	2324.6674	16863.3	15977.45
960.6606	2326.0972	16788.65	15903.6
960.7925	2327.5263	16747.45	15863.25
960.9244	2328.9547	16705.6	15819.95
961.0562	2330.3823	16619.15	15733.95
961.1881	2331.8092	16603.25	15714.1
961.3198	2333.2355	16517.6	15632.25
961.4516	2334.661	16493.75	15611.1
961.5833	2336.0858	16499.6	15614.25
961.715	2337.5098	16448.85	15562.6
961.8467	2338.9332	16405.25	15519.9
961.9783	2340.3558	16340.95	15454.25
962.1099	2341.7778	16256.25	15373.1
962.2415	2343.199	16221.65	15335.8
962.373	2344.6195	16190.9	15307.5
962.5045	2346.0393	16157.55	15274.95
962.636	2347.4583	16099.55	15213.35
962.7675	2348.8767	16066.35	15180.1
962.8989	2350.2943	16002.65	15116.9
963.0303	2351.7113	15956.9	15069.1
963.1617	2353.1275	15937.3	15049.75
963.293	2354.543	15889.5	14995.05
963.4243	2355.9578	15846.5	14959.15
963.5556	2357.3718	15717.5	14834.45
963.6868	2358.7852	15671.2	14785.6
963.818	2360.1978	15616.85	14732.8
963.9492	2361.6098	15590.05	14703.1
964.0803	2363.021	15500	14612.5
964.2114	2364.4315	15490.7	14607.6
964.3425	2365.8413	15438.25	14547.15
964.4736	2367.2504	15395.65	14513.7
964.6046	2368.6587	15321.2	14438.05
964.7356	2370.0664	15240.05	14357.6
964.8666	2371.4733	15205.25	14320.85
964.9975	2372.8795	15170.45	14286.25
965.1284	2374.285	15091.55	14205.7
965.2593	2375.6899	15019	14134.85
965.3901	2377.0939	14938.25	14053.75
965.5209	2378.4973	14918.8	14034.8
965.6517	2379.9	14846.7	13961.3
965.7825	2381.3019	14827.05	13944.1
965.9132	2382.7032	14788.65	13905.35
966.0439	2384.1037	14771.25	13889.7
966.1745	2385.5035	14693.45	13811.25
966.3051	2386.9027	14641.05	13760.5
966.4357	2388.3011	14627.9	13743.25
966.5663	2389.6987	14575	13694.05
966.6968	2391.0957	14506.65	13624.65
966.8273	2392.492	14480.15	13597.3
966.9578	2393.8876	14383.3	13498.65
967.0882	2395.2824	14345.25	13463.15
967.2186	2396.6765	14253.6	13371.4
967.349	2398.07	14189.65	13304.35
967.4793	2399.4627	14151.8	13265.6
967.6097	2400.8547	14121.35	13234.95
967.7399	2402.246	14096.55	13205.05
967.8702	2403.6366	13993.4	13108.95
968.0004	2405.0265	13916.35	13031.7
968.1306	2406.4156	13895.85	13010.15
968.2607	2407.8041	13858.55	12970.75
968.3909	2409.1918	13784.5	12898.45
968.521	2410.5789	13750.8	12866.95
968.651	2411.9652	13692.75	12803.9
968.781	2413.3508	13653.75	12769.6
968.911	2414.7358	13583.05	12697.45
969.041	2416.12	13540.35	12657.65
969.1709	2417.5035	13499.1	12615.2
969.3008	2418.8863	13455.45	12568.65
969.4307	2420.2684	13439.05	12556.3
969.5606	2421.6497	13339.3	12453.15
969.6904	2423.0304	13273.05	12391.75
969.8201	2424.4104	13274.7	12390.65
969.9499	2425.7896	13199.6	12312.15
970.0796	2427.1682	13189.7	12305.9
970.2093	2428.546	13135.9	12249.2
970.3389	2429.9232	13098.6	12213.4
970.4685	2431.2996	13080.7	12198.65
970.5981	2432.6753	13058.85	12172.85
970.7277	2434.0503	13014.85	12129.15
970.8572	2435.4246	12927.45	12043.95
970.9867	2436.7982	12897	12009.35
971.1161	2438.1711	12865.7	11981.85
971.2456	2439.5433	12811.8	11925.3
971.375	2440.9148	12717.95	11834.25
971.5043	2442.2856	12695.3	11812.05
971.6336	2443.6557	12675.3	11788.05
971.7629	2445.025	12623.45	11738.85
971.8922	2446.3937	12604.05	11719.6
972.0214	2447.7617	12558	11670.95
972.1506	2449.1289	12545.6	11661
972.2798	2450.4955	12490.6	11604.2
972.4089	2451.8613	12461.9	11579.65
972.538	2453.2265	12406.95	11523.55
972.6671	2454.5909	12376.8	11490
972.7961	2455.9546	12336.15	11453.6
972.9251	2457.3177	12308.25	11425.3
973.0541	2458.68	12273.5	11388.25
973.1831	2460.0416	12248.15	11362.2
973.312	2461.4025	12236.85	11350.75
973.4408	2462.7627	12183.9	11287.65
973.5697	2464.1222	12151	11267.15
973.6985	2465.4811	12108.3	11221.4
973.8273	2466.8392	12057.4	11171.35
973.956	2468.1966	12021.1	11134.55
974.0847	2469.5533	11999.45	11114.65
974.2134	2470.9093	11974.9	11089.75
974.3421	2472.2645	11905.75	11018.5
974.4707	2473.6191	11913.5	11030.8
974.5993	2474.973	11856.4	10973
974.7278	2476.3262	11833.8	10948
974.8563	2477.6787	11762.4	10878
974.9848	2479.0305	11710.2	10827.5
975.1132	2480.3816	11670.85	10784.45
975.2417	2481.7319	11626.85	10742.25
975.37	2483.0816	11577	10691.3
975.4984	2484.4306	11549.9	10664.15
975.6267	2485.7789	11517.35	10634.15
975.755	2487.1264	11454.65	10571.3
975.8833	2488.4733	11402.3	10519.45
976.0115	2489.8195	11388.05	10500.15
976.1397	2491.165	11323.35	10434.75
976.2678	2492.5097	11290.1	10405.85
976.3959	2493.8538	11237.55	10353.3
976.524	2495.1972	11183.95	10299.15
976.6521	2496.5398	11159.8	10274.3
976.7801	2497.8818	11142.2	10256.7
976.9081	2499.2231	11091.95	10206.1
977.036	2500.5637	11052.8	10164.8
977.164	2501.9035	11040.85	10154.15
977.2918	2503.2427	10995.55	10109.25
977.4197	2504.5812	10977.7	10093.35
977.5475	2505.919	10922.8	10036.4
977.6753	2507.256	10907.25	10021.3
977.8031	2508.5924	10844.15	9960.6
977.9308	2509.9281	10805	9914.5
978.0585	2511.2631	10801.55	9919.3
978.1861	2512.5974	10749.9	9864.75
978.3137	2513.9309	10725.5	9842.15
978.4413	2515.2638	10672.7	9759.75
978.5689	2516.596	10620.1	9737.8
978.6964	2517.9275	10591.95	9706.2
978.8239	2519.2583	10562.85	9676.4
978.9513	2520.5884	10514.6	9629.65
979.0788	2521.9178	10471.75	9587.5
979.2062	2523.2465	10450.85	9567.6
979.3335	2524.5745	10400.8	9516
979.4608	2525.9018	10359.45	9474.85
979.5881	2527.2284	10351.3	9467.6
979.7154	2528.5543	10326	9442.9
979.8426	2529.8796	10276	9391.95
979.9698	2531.2041	10241.3	9355.75
980.0969	2532.5279	10225.05	9341.85
980.224	2533.851	10203.05	9319.55
980.3511	2535.1735	10178.4	9292.55
980.4781	2536.4952	10136.8	9253.5
980.6052	2537.8163	10129.05	9243.7
980.7321	2539.1366	10096.1	9213.9
980.8591	2540.4562	10055.6	9169.7
980.986	2541.7752	10033.85	9148
981.1129	2543.0935	9997.15	9114.8
981.2397	2544.411	10006.55	9119.75
981.3665	2545.7279	9964.95	9081
981.4933	2547.0441	9973.15	9091.15
981.62	2548.3596	9946.3	9057
981.7467	2549.6744	9913.9	9029.65
981.8734	2550.9885	9880.6	8988.8
982.0001	2552.3019	9843.75	8962.1
982.1267	2553.6146	9844.75	8959.75
982.2532	2554.9266	9781.8	8895.35
982.3798	2556.2379	9755.7	8870.7
982.5063	2557.5485	9754.75	8872.05
982.6327	2558.8585	9735.2	8844.05
982.7592	2560.1677	9709.75	8822.95
982.8856	2561.4762	9687.6	8803
983.0119	2562.7841	9673.75	8785.8
983.1383	2564.0913	9637.3	8753.7
983.2646	2565.3977	9644.7	8759.35
983.3908	2566.7035	9600.5	8716
983.517	2568.0086	9590.45	8703.75
983.6432	2569.313	9556.55	8669.45
983.7694	2570.6167	9538.5	8649.55
983.8955	2571.9197	9497.25	8612.8
984.0216	2573.222	9501.2	8613.45
984.1476	2574.5236	9461.65	8576.05
984.2737	2575.8246	9462	8575
984.3996	2577.1248	9432.5	8545.35
984.5256	2578.4244	9386.05	8500.8
984.6515	2579.7232	9401.7	8516.8
984.7774	2581.0214	9384.15	8475.65
984.9032	2582.3189	9356.05	8473.3
985.029	2583.6157	9312.9	8422.05
985.1548	2584.9118	9298.5	8413.2
985.2806	2586.2072	9265.7	8384.7
985.4063	2587.5019	9249.25	8366.9
985.5319	2588.7959	9209.55	8325.25
985.6576	2590.0893	9206.7	8321.3
985.7832	2591.3819	9159.8	8275.15
985.9087	2592.6739	9144.3	8259.8
986.0343	2593.9652	9138.35	8252.3
986.1597	2595.2557	9079.35	8196.3
986.2852	2596.5456	9045.95	8161.25
986.4106	2597.8348	9008.9	8124
986.536	2599.1234	8983.7	8099.15
986.6614	2600.4112	8948.4	8062
986.7867	2601.6983	8910.7	8022.35
986.912	2602.9848	8886.65	8002.45
987.0372	2604.2705	8835.6	7945.6
987.1624	2605.5556	8850.2	7966.45
987.2876	2606.84	8781.15	7895.9
987.4128	2608.1237	8780.05	7895.45
987.5379	2609.4067	8720.85	7836.5
987.6629	2610.689	8691.75	7799.65
987.788	2611.9707	8646.1	7757.55
987.913	2613.2516	8626.25	7736.7
988.0379	2614.5319	8599.55	7718.25
988.1629	2615.8115	8576.45	7691.8
988.2878	2617.0903	8526.85	7641
988.4126	2618.3685	8498.85	7615.4
988.5375	2619.6461	8470.5	7584.3
988.6622	2620.9229	8438.1	7553.15
988.787	2622.199	8431.15	7545.8
988.9117	2623.4745	8401.3	7516.55
989.0364	2624.7493	8367.15	7483.95
989.161	2626.0234	8335.25	7451.1
989.2857	2627.2968	8303.45	7418.1
989.4102	2628.5695	8265.7	7379.55
989.5348	2629.8415	8233	7350.15
989.6593	2631.1128	8208.4	7323.45
989.7837	2632.3835	8185	7301.55
989.9082	2633.6535	8142.95	7259.65
990.0326	2634.9228	8125.4	7242.05
990.1569	2636.1914	8101.35	7218.15
990.2812	2637.4593	8087.95	7198.65
990.4055	2638.7265	8045.6	7161.55
990.5298	2639.9931	8036.95	7153.5
990.654	2641.259	7987.75	7103.05
990.7782	2642.5242	7962.65	7080.85
990.9023	2643.7887	7956.6	7074.15
991.0264	2645.0525	7949.45	7064.3
991.1505	2646.3156	7888.8	7004.75
991.2745	2647.5781	7873.85	6990.65
991.3985	2648.8398	7848.7	6966.1
991.5225	2650.1009	7807.4	6914.1
991.6464	2651.3613	7814.2	6932.05
991.7703	2652.6211	7769.05	6882.7
991.8942	2653.8801	7755.05	6872.35
992.018	2655.1385	7728.3	6842.65
992.1418	2656.3961	7719.7	6837.5
992.2655	2657.6531	7724.95	6841.3
992.3892	2658.9094	7693.85	6807.8
992.5129	2660.1651	7646.7	6763.95
992.6366	2661.42	7641.7	6758.15
992.7602	2662.6743	7615.7	6729.85
992.8837	2663.9279	7613.45	6731.55
993.0073	2665.1808	7555.65	6670.85
993.1307	2666.433	7542.85	6658.85
993.2542	2667.6846	7540	6655.7
993.3776	2668.9354	7531.6	6644.5
993.501	2670.1856	7490.8	6603.7
993.6244	2671.4351	7471.75	6588.7
993.7477	2672.6839	7451.45	6567.8
993.8709	2673.9321	7435.95	6553.7
993.9942	2675.1795	7413.7	6529.95
994.1174	2676.4263	7389.8	6506.85
994.2405	2677.6724	7358.15	6474.25
994.3637	2678.9179	7343.4	6460.2
994.4868	2680.1626	7321.15	6437.85
994.6098	2681.4067	7296.75	6414
994.7328	2682.6501	7291.35	6409.7
994.8558	2683.8928	7251.05	6366.7
994.9788	2685.1348	7220.2	6336.65
995.1017	2686.3761	7187.8	6304.9
995.2245	2687.6168	7152.4	6269.45
995.3474	2688.8568	7152.85	6270.2
995.4702	2690.0961	7135.55	6254.15
995.5929	2691.3348	7115.55	6231.35
995.7156	2692.5727	7092.6	6208.65
995.8383	2693.81	7070.45	6188.05
995.961	2695.0466	7036	6154.45
996.0836	2696.2826	7006.15	6121.9
996.2062	2697.5178	6988.6	6102.4
996.3287	2698.7524	6984.25	6100.8
996.4512	2699.9863	6978.85	6093.45
996.5737	2701.2195	6933.9	6051.8
996.6961	2702.452	6918.35	6031.75
996.8185	2703.6839	6912.9	6026
996.9408	2704.9151	6884.3	6002.8
997.0631	2706.1456	6852.4	5967.55
997.1854	2707.3755	6822.55	5941
997.3077	2708.6046	6845.65	5960.8
997.4299	2709.8331	6818.4	5934.75
997.552	2711.0609	6783.45	5899.05
997.6742	2712.2881	6765.15	5882.8
997.7963	2713.5145	6754	5868.25
997.9183	2714.7403	6737	5853.35
998.0403	2715.9654	6704.45	5818.6
998.1623	2717.1899	6705	5822.1
998.2842	2718.4136	6682.4	5799.6
998.4062	2719.6367	6660.05	5777.4
998.528	2720.8591	6645.65	5757.15
998.6498	2722.0809	6608.4	5724.8
998.7716	2723.3019	6605.2	5718.6
998.8934	2724.5223	6598.2	5713.9
999.0151	2725.7421	6572.25	5689.3
999.1368	2726.9611	6540.4	5654.85
999.2584	2728.1795	6521.6	5632.25
999.38	2729.3972	6474.3	5590.2
999.5016	2730.6142	6463.9	5573.65
999.6231	2731.8306	6439.4	5555.65
999.7446	2733.0462	6421.35	5536.7
999.8661	2734.2612	6368.25	5483.75
999.9875	2735.4756	6331.3	5448.45
1000.1089	2736.6892	6309.7	5427.4
1000.2302	2737.9022	6266.2	5384.5
1000.3515	2739.1145	6243.95	5361.25
1000.4728	2740.3262	6221.75	5331.5
1000.594	2741.5372	6189.8	5307.25
1000.7152	2742.7475	6170.85	5288.4
1000.8363	2743.9571	6155.3	5270.85
1000.9575	2745.1661	6137.7	5249.25
1001.0785	2746.3744	6102.3	5219.7
1001.1996	2747.582	6053.55	5170.6
1001.3206	2748.7889	6053.45	5169.45
1001.4415	2749.9952	6037.75	5156.05
1001.5625	2751.2008	6012.3	5128.25
1001.6833	2752.4057	5990.45	5107.65
1001.8042	2753.61	5955.3	5071.05
1001.925	2754.8136	5952.1	5068.75
1002.0458	2756.0165	5924.7	5042.15
1002.1665	2757.2188	5906.15	5024.9
1002.2872	2758.4204	5882.9	5001.3
1002.4078	2759.6213	5849.45	4965.25
1002.5285	2760.8215	5859.05	4971.9
1002.649	2762.0211	5840.05	4956.05
1002.7696	2763.22	5805.65	4919.95
1002.8901	2764.4182	5800	4915.3
1003.0106	2765.6158	5776.55	4892.95
1003.131	2766.8127	5747.3	4864.35
1003.2514	2768.009	5731	4847.05
1003.3717	2769.2045	5729	4845.75
1003.492	2770.3994	5719.35	4833.8
1003.6123	2771.5936	5675.05	4791.6
1003.7325	2772.7872	5659.5	4778.2
1003.8527	2773.9801	5629.35	4744.65
1003.9729	2775.1723	5626.4	4728.2
1004.093	2776.3639	5577	4694.75
1004.2131	2777.5548	5595.65	4711.95
1004.3331	2778.745	5558.95	4674.55
1004.4531	2779.9346	5555.8	4674.1
1004.5731	2781.1235	5548.1	4665
1004.693	2782.3117	5522.2	4641.15
1004.8129	2783.4992	5498.4	4617.45
1004.9328	2784.6861	5478.85	4597.35
1005.0526	2785.8723	5470.6	4588.4
1005.1723	2787.0579	5462.95	4581.05
1005.2921	2788.2428	5436.3	4550.4
1005.4118	2789.427	5412.95	4530.9
1005.5314	2790.6106	5397.35	4516.05
1005.651	2791.7935	5396.5	4512.3
1005.7706	2792.9757	5383.1	4501.2
1005.8902	2794.1573	5358.7	4473.2
1006.0097	2795.3382	5345.45	4464.3
1006.1291	2796.5184	5319	4438.35
1006.2485	2797.698	5343.6	4459.15
1006.3679	2798.8769	5306.1	4426.2
1006.4873	2800.0551	5305.75	4422.7
1006.6066	2801.2327	5285.25	4400.65
1006.7258	2802.4096	5290.9	4409.3
1006.8451	2803.5859	5248.75	4366.25
1006.9642	2804.7615	5276.45	4393.8
1007.0834	2805.9364	5255.35	4373.65
1007.2025	2807.1106	5261.3	4380.55
1007.3216	2808.2842	5267.85	4386.05
1007.4406	2809.4572	5273.75	4392.45
1007.5596	2810.6294	5260.5	4378.45
1007.6785	2811.801	5285.1	4402.5
1007.7975	2812.972	5277.65	4398.1
1007.9163	2814.1423	5302.8	4419.85
1008.0352	2815.3119	5330.1	4446.85
1008.154	2816.4808	5345	4462
1008.2727	2817.6491	5339.6	4456.45
1008.3914	2818.8167	5343.75	4463.15
1008.5101	2819.9837	5390.55	4503.45
1008.6288	2821.15	5402.2	4522.4
1008.7474	2822.3157	5436.1	4556.15
1008.8659	2823.4807	5461.25	4580.05
1008.9844	2824.645	5496.6	4613.05
1009.1029	2825.8086	5501.8	4619.85
1009.2214	2826.9716	5519.2	4638
1009.3398	2828.134	5553.2	4670.5
1009.4581	2829.2957	5606.3	4723.9
1009.5764	2830.4567	5596.85	4717.05
1009.6947	2831.617	5591.2	4710.95
1009.813	2832.7767	5574.15	4693.35
1009.9312	2833.9358	5580.6	4698.55
1010.0493	2835.0941	5578.35	4695.7
1010.1675	2836.2519	5543.45	4661.9
1010.2855	2837.4089	5521.75	4640.3
1010.4036	2838.5653	5500.45	4617.5
1010.5216	2839.7211	5489	4610.5
1010.6396	2840.8761	5479.2	4595.85
1010.7575	2842.0306	5471.6	4591.1
1010.8754	2843.1843	5495.3	4614.95
1010.9932	2844.3374	5483.85	4602.45
1011.111	2845.4899	5491.25	4610.05
1011.2288	2846.6417	5524.3	4644.8
1011.3465	2847.7928	5555.65	4677.85
1011.4642	2848.9433	5584.6	4703.2
1011.5818	2850.0931	5619.75	4739.8
1011.6995	2851.2422	5648.25	4764.35
1011.817	2852.3907	5668.8	4785.55
1011.9345	2853.5385	5712.25	4828.9
1012.052	2854.6857	5748.6	4858.75
1012.1695	2855.8323	5732.6	4851.3
1012.2869	2856.9781	5761.35	4880.1
1012.4042	2858.1233	5780.3	4899.85
1012.5216	2859.2679	5816.55	4935.95
1012.6389	2860.4118	5830.7	4951
1012.7561	2861.555	5838.7	4952.15
1012.8733	2862.6976	5864.55	4982.2
1012.9905	2863.8395	5880.6	4999.6
1013.1076	2864.9808	5864.9	4983.85
1013.2247	2866.1214	5873.2	4993.35
1013.3417	2867.2614	5865.25	4982.6
1013.4587	2868.4007	5867.15	4984.8
1013.5757	2869.5393	5846.55	4962.95
1013.6926	2870.6773	5847.5	4963.65
1013.8095	2871.8146	5851.7	4970
1013.9263	2872.9513	5820.4	4937.3
1014.0431	2874.0874	5810.6	4929.25
1014.1599	2875.2227	5792.05	4912.65
1014.2766	2876.3574	5765.15	4883.4
1014.3933	2877.4915	5714.2	4831.45
1014.51	2878.6249	5718.8	4839.15
1014.6266	2879.7577	5659.45	4776
1014.7431	2880.8898	5642.95	4752.05
1014.8596	2882.0212	5610.55	4729.85
1014.9761	2883.152	5601.55	4719.8
1015.0925	2884.2821	5574.15	4695.1
1015.2089	2885.4116	5553.35	4674.2
1015.3253	2886.5405	5527.9	4647.25
1015.4416	2887.6686	5541.3	4657.35
1015.5579	2888.7962	5515.8	4637.4
1015.6741	2889.923	5515.1	4636.3
1015.7903	2891.0493	5498.55	4620.3
1015.9065	2892.1748	5464.2	4583.65
1016.0226	2893.2997	5484.5	4602.6
1016.1387	2894.424	5484.5	4604.45
1016.2547	2895.5476	5472.15	4590.95
1016.3707	2896.6706	5467.5	4586.55
1016.4866	2897.7929	5478.35	4598.15
1016.6025	2898.9145	5481.3	4601.3
1016.7184	2900.0355	5479.05	4601.05
1016.8342	2901.1559	5495.45	4613.55
1016.95	2902.2756	5505.55	4625.95
1017.0658	2903.3946	5507.35	4629.2
1017.1815	2904.513	5510.5	4625.5
1017.2971	2905.6308	5517.45	4639.25
1017.4127	2906.7479	5498.9	4616.85
1017.5283	2907.8643	5497.1	4617.9
1017.6439	2908.9801	5510.35	4629.9
1017.7594	2910.0953	5498.1	4618.05
1017.8748	2911.2098	5471.55	4587.2
1017.9902	2912.3236	5472.05	4581.75
1018.1056	2913.4368	5444.25	4560.75
1018.2209	2914.5494	5427.9	4546.3
1018.3362	2915.6613	5385.45	4500.7
1018.4515	2916.7725	5376.35	4493.85
1018.5667	2917.8831	5335.9	4453.6
1018.6819	2918.9931	5324.6	4442.65
1018.797	2920.1024	5277.55	4395.6
1018.9121	2921.211	5249.7	4368.75
1019.0271	2922.319	5221.6	4341.55
1019.1421	2923.4264	5201.6	4320.65
1019.2571	2924.5331	5201.6	4321.85
1019.372	2925.6391	5163.4	4283.75
1019.4869	2926.7445	5173	4292.15
1019.6017	2927.8493	5174.8	4294.25
1019.7165	2928.9534	5161.35	4279.4
1019.8313	2930.0569	5134.65	4248.9
1019.946	2931.1597	5128	4247.3
1020.0606	2932.2619	5136.15	4254.65
1020.1753	2933.3634	5117.6	4237.8
1020.2899	2934.4643	5109.85	4222.95
1020.4044	2935.5645	5097.95	4210.1
1020.5189	2936.6641	5079.45	4194.85
1020.6334	2937.763	5036.05	4157.6
1020.7478	2938.8613	5012.5	4131.55
1020.8622	2939.959	4956.55	4071.4
1020.9765	2941.056	4889.35	4008.6
1021.0908	2942.1523	4840.65	3957.85
1021.2051	2943.248	4777.15	3895.35
1021.3193	2944.3431	4708.75	3828.95
1021.4334	2945.4375	4635.95	3754.9
1021.5476	2946.5313	4554.35	3675.25
1021.6617	2947.6244	4469.5	3589.65
1021.7757	2948.7169	4400.1	3520.1
1021.8897	2949.8087	4335.2	3454.15
1022.0037	2950.8999	4256.15	3375.9
1022.1176	2951.9904	4187.5	3308.75
1022.2315	2953.0803	4127.65	3245.4
1022.3453	2954.1696	4072.05	3192.4
1022.4591	2955.2582	4032.65	3152.55
1022.5728	2956.3462	4003.6	3122.6
1022.6865	2957.4335	3957.95	3075.2
1022.8002	2958.5202	3923.4	3039.6
1022.9138	2959.6062	3888.15	3008.05
1023.0274	2960.6916	3876.6	2997.05
1023.141	2961.7764	3839.15	2959.65
1023.2545	2962.8605	3817.3	2935.9
1023.3679	2963.9439	3799.05	2920.35
1023.4813	2965.0267	3781.65	2902
1023.5947	2966.1089	3798.9	2895.35
1023.708	2967.1905	3754.45	2875.05
1023.8213	2968.2714	3749.1	2868.6
1023.9346	2969.3516	3725.25	2845.95
1024.0478	2970.4312	3718.45	2833.5
1024.1609	2971.5102	3713.35	2833.55
1024.274	2972.5885	3702	2822.4
1024.3871	2973.6662	3685.15	2798
1024.5002	2974.7432	3681.7	2802.55
1024.6132	2975.8196	3672.8	2794.4
1024.7261	2976.8954	3653.1	2774.55
1024.839	2977.9705	3656.05	2775.95
1024.9519	2979.045	3627.35	2749.45
1025.0647	2980.1188	3602.05	2724.2
1025.1775	2981.192	3586.6	2708.8
1025.2902	2982.2645	3565.65	2684.65
1025.4029	2983.3364	3541.4	2659.2
1025.5156	2984.4077	3522.45	2642
1025.6282	2985.4783	3488.3	2601.55
1025.7407	2986.5483	3458.7	2580.6
1025.8532	2987.6177	3439.1	2558.65
1025.9657	2988.6864	3404.25	2522.5
1026.0782	2989.7545	3376.35	2495.25
1026.1906	2990.8219	3359.9	2479.05
1026.3029	2991.8887	3311.05	2429.4
1026.4152	2992.9548	3287.5	2407.05
1026.5275	2994.0204	3258.1	2378.85
1026.6397	2995.0852	3220.05	2342.1
1026.7519	2996.1495	3204.05	2321.85
1026.864	2997.2131	3179.3	2299.55
1026.9761	2998.276	3152.05	2272.9
1027.0882	2999.3383	3125.3	2244.9
1027.2002	3000.4	3115.7	2236.35
1027.3122	3001.4611	3102.25	2221.55
1027.4241	3002.5215	3062.8	2183.15
1027.536	3003.5812	3048.45	2167.8
1027.6478	3004.6404	3041.25	2161.85
1027.7596	3005.6989	3034.5	2152
1027.8714	3006.7567	3010.5	2129.4
1027.9831	3007.8139	3026.45	2117.1
1028.0947	3008.8705	2994.2	2116.15
1028.2064	3009.9264	2967.4	2082.55
1028.3179	3010.9818	2958.7	2078.5
1028.4295	3012.0364	2945.05	2066.1
1028.541	3013.0905	2940.45	2061.1
1028.6524	3014.1439	2925.85	2044.55
1028.7638	3015.1966	2918.75	2039.75
1028.8752	3016.2487	2904.65	2023.4
1028.9865	3017.3002	2898.55	2015.7
1029.0978	3018.3511	2882.1	2003.5
1029.209	3019.4013	2875.45	1994.9
1029.3202	3020.4509	2882.55	2003.6
1029.4314	3021.4998	2864.4	1983.75
1029.5425	3022.5481	2847.1	1966.8
1029.6535	3023.5958	2838.6	1960.25
1029.7645	3024.6428	2822.9	1943.3
1029.8755	3025.6892	2822.55	1942.65
1029.9864	3026.735	2821.85	1941.95
1030.0973	3027.7802	2805.75	1926.05
1030.2082	3028.8247	2811.8	1934.8
1030.319	3029.8685	2791.4	1910.6
1030.4297	3030.9118	2773.9	1892.25
1030.5404	3031.9544	2777.2	1899
1030.6511	3032.9963	2776.4	1898.15
1030.7617	3034.0376	2766.8	1888.5
1030.8723	3035.0783	2756.35	1876
1030.9829	3036.1184	2762.85	1883.1
1031.0934	3037.1578	2760.3	1883.15
1031.2038	3038.1966	2759.9	1879.3
1031.3142	3039.2348	2752.55	1875.15
1031.4246	3040.2723	2748.9	1860.5
1031.5349	3041.3092	2726.75	1847.25
1031.6452	3042.3455	2725.4	1846.5
1031.7554	3043.3811	2716.05	1836.85
1031.8656	3044.4161	2695.5	1814.05
1031.9758	3045.4505	2692.55	1814.85
1032.0859	3046.4842	2698.35	1818.9
1032.1959	3047.5173	2678.75	1800.1
1032.3059	3048.5498	2665.25	1784.35
1032.4159	3049.5816	2659	1779.4
1032.5258	3050.6128	2658.2	1776.55
1032.6357	3051.6434	2649.65	1767.8
1032.7455	3052.6734	2649.7	1769.85
1032.8553	3053.7027	2647.55	1767.95
1032.9651	3054.7314	2625.6	1744.75
1033.0748	3055.7594	2605.3	1727.6
1033.1845	3056.7868	2605.55	1723.15
1033.2941	3057.8136	2594.05	1717.4
1033.4037	3058.8398	2584.95	1707.3
1033.5132	3059.8653	2575.95	1697.1
1033.6227	3060.8902	2566.5	1687.45
1033.7321	3061.9145	2560.3	1681.75
1033.8415	3062.9381	2559.3	1679.5
1033.9509	3063.9612	2545.75	1651.3
1034.0602	3064.9835	2531.3	1651.85
1034.1694	3066.0053	2525.45	1644
1034.2787	3067.0264	2522.5	1642.9
1034.3878	3068.0469	2515.4	1635.4
1034.497	3069.0668	2507.2	1624.95
1034.6061	3070.086	2492.8	1615.25
1034.7151	3071.1046	2495.05	1617.4
1034.8241	3072.1226	2480.75	1599.2
1034.9331	3073.1399	2471.6	1594.3
1035.042	3074.1567	2462.55	1581.9
1035.1508	3075.1727	2439.45	1558.1
1035.2597	3076.1882	2429.35	1552.15
1035.3684	3077.203	2424.05	1545.7
1035.4772	3078.2173	2411.9	1532.25
1035.5859	3079.2308	2410.65	1526.95
1035.6945	3080.2438	2386.45	1505.25
1035.8031	3081.2561	2387.15	1509.1
1035.9117	3082.2678	2365.7	1486.65
1036.0202	3083.2789	2367.05	1488.55
1036.1286	3084.2893	2361.85	1482.4
1036.2371	3085.2991	2344.55	1464.75
1036.3454	3086.3083	2337.8	1455.85
1036.4538	3087.3169	2323.35	1442.25
1036.562	3088.3248	2329.95	1448.4
1036.6703	3089.3321	2306.35	1425.55
1036.7785	3090.3388	2296.25	1416.3
1036.8866	3091.3449	2303.2	1423.25
1036.9948	3092.3503	2298.2	1416.6
1037.1028	3093.3551	2278.6	1400.25
1037.2108	3094.3593	2272.8	1395.2
1037.3188	3095.3629	2275.6	1397.3
1037.4267	3096.3658	2253.75	1375
1037.5346	3097.3681	2252.05	1371.4
1037.6425	3098.3698	2249.2	1369
1037.7503	3099.3708	2229.55	1345.05
1037.858	3100.3713	2224.1	1346.95
1037.9657	3101.3711	2207.55	1327.65
1038.0734	3102.3702	2330.2	1315.5
1038.181	3103.3688	2206.55	1325.7
1038.2886	3104.3667	2185.1	1305.65
1038.3961	3105.364	2184.6	1307.35
1038.5036	3106.3607	2171.45	1290.5
1038.611	3107.3568	2165.75	1287.05
1038.7184	3108.3522	2155.65	1277.25
1038.8257	3109.347	2160.25	1280.7
1038.933	3110.3412	2144	1258.5
1039.0403	3111.3348	2137.95	1258.9
1039.1475	3112.3277	2126.65	1246.6
1039.2547	3113.32	2118.05	1239.9
1039.3618	3114.3117	2127.45	1247.85
1039.4689	3115.3028	2106.4	1226.65
1039.5759	3116.2932	2099.45	1219.1
1039.6829	3117.2831	2101.2	1217.65
1039.7898	3118.2723	2080.35	1201.25
1039.8967	3119.2608	2080.5	1201
1040.0035	3120.2488	2069.95	1189.65
1040.1103	3121.2361	2062.15	1181
1040.2171	3122.2229	2061.25	1183.45
1040.3238	3123.209	2046.55	1167.3
1040.4305	3124.1944	2045.2	1166.75
1040.5371	3125.1793	2046.4	1165.15
1040.6437	3126.1635	2033.3	1155.85
1040.7502	3127.1471	2033.1	1154.95
1040.8567	3128.1301	2009.9	1131.25
1040.9631	3129.1125	2017.15	1137.9
1041.0695	3130.0942	2007.95	1129.8
1041.1759	3131.0753	2017.75	1130.55
1041.2822	3132.0558	2010.75	1130.65
1041.3884	3133.0357	1987.95	1107.15
1041.4946	3134.015	1985.1	1105.4
1041.6008	3134.9936	1988.3	1107.95
1041.7069	3135.9716	2001.5	1102.6
1041.813	3136.949	1980.25	1102.95
1041.919	3137.9258	1972.15	1088.55
1042.025	3138.902	1970.8	1086.85
1042.1309	3139.8775	1956.75	1076.05
1042.2368	3140.8524	1949.95	1071.9
1042.3427	3141.8267	1944.95	1065.25
1042.4485	3142.8004	1942.75	1061.5
1042.5542	3143.7735	1945.9	1062.6
1042.6599	3144.7459	1941.15	1061.6
1042.7656	3145.7178	1936.2	1057.25
1042.8712	3146.689	1928.6	1050.9
1042.9768	3147.6596	1922.55	1041.7
1043.0823	3148.6295	1914.7	1034.5
1043.1878	3149.5989	1898.35	1018.5
1043.2932	3150.5676	1885.9	1006.5
1043.3986	3151.5357	1897.15	1017.9
1043.5039	3152.5032	1886.2	1006.95
1043.6092	3153.4701	1887.65	1008.85
1043.7145	3154.4364	1887.05	1005.3
1043.8197	3155.402	1865.95	989.1
1043.9248	3156.367	1858.8	978.7
1044.03	3157.3315	1892.4	976.65
1044.135	3158.2952	1853	973.25
1044.24	3159.2584	1846.3	968.2
1044.345	3160.221	1844.8	964.65
1044.4499	3161.1829	1842.55	963.1
1044.5548	3162.1442	1845.05	964.1
1044.6596	3163.105	1829.35	953.4
1044.7644	3164.065	1822.45	941.95
1044.8692	3165.0245	1820.65	940.95
1044.9739	3165.9834	1818.35	940.15
1045.0785	3166.9416	1804	925.6
1045.1831	3167.8993	1806.8	927.95
1045.2877	3168.8563	1803.2	922.75
1045.3922	3169.8127	1790.6	913.05
1045.4966	3170.7684	1792.95	914.8
1045.6011	3171.7236	1786.95	907.75
1045.7054	3172.6782	1774.25	894.5
1045.8098	3173.6321	1777.35	897.65
1045.914	3174.5854	1766.25	884.75
1046.0183	3175.5381	1764.85	886.5
1046.1224	3176.4902	1758.75	881.65
1046.2266	3177.4417	1762.85	886
1046.3307	3178.3926	1757.45	878.75
1046.4347	3179.3428	1735.7	856.75
1046.5387	3180.2924	1731.75	852.2
1046.6427	3181.2415	1735.55	855.75
1046.7466	3182.1899	1727.1	847.1
1046.8504	3183.1377	1718.1	838.1
1046.9542	3184.0848	1715.8	834.2
1047.058	3185.0314	1718.1	839.45
1047.1617	3185.9773	1709.25	831.65
1047.2654	3186.9227	1706.1	827.75
1047.369	3187.8674	1690.1	811.65
1047.4726	3188.8115	1701.8	820.95
1047.5761	3189.755	1690.7	812.3
1047.6796	3190.6979	1683.3	805.2
1047.783	3191.6402	1682.4	804.65
1047.8864	3192.5818	1683.05	805
1047.9898	3193.5229	1694.6	800.1
1048.0931	3194.4633	1677.3	800.85
1048.1963	3195.4031	1666.5	786.6
1048.2995	3196.3423	1658.2	780.35
1048.4027	3197.2809	1656.8	775.9
1048.5058	3198.2189	1660.35	782.75
1048.6089	3199.1563	1675.5	778.65
1048.7119	3200.0931	1650.7	773.1
1048.8148	3201.0292	1640.85	760.6
1048.9178	3201.9648	1639.5	763.65
1049.0206	3202.8997	1640.55	757.85
1049.1235	3203.834	1628.65	751.15
1049.2262	3204.7677	1626.65	746.65
1049.329	3205.7008	1625	746.25
1049.4317	3206.6333	1617.8	742.1
1049.5343	3207.5652	1622.95	739.8
1049.6369	3208.4964	1606.15	727.65
1049.7394	3209.4271	1607.7	730
1049.8419	3210.3571	1599.15	720.65
1049.9444	3211.2865	1606	726.65
1050.0468	3212.2154	1598.2	718.2
1050.1491	3213.1436	1597.15	715.1
1050.2514	3214.0712	1602.4	718.6
1050.3537	3214.9982	1584.85	707.5
1050.4559	3215.9246	1581.35	702.4
1050.5581	3216.8503	1579.45	700.95
1050.6602	3217.7755	1579.7	701.25
1050.7623	3218.7001	1572.6	695.55
1050.8643	3219.624	1573.15	694.85
1050.9663	3220.5473	1565.6	687.4
1051.0682	3221.4701	1562.45	680.1
1051.1701	3222.3922	1551.25	668.2
1051.2719	3223.3137	1557.5	679.75
1051.3737	3224.2346	1556.65	676.15
1051.4754	3225.1549	1556.65	679.15
1051.5771	3226.0746	1543.75	665.95
1051.6788	3226.9937	1537.6	658.9
1051.7804	3227.9121	1534.05	656.45
1051.8819	3228.83	1535.25	658.7
1051.9834	3229.7473	1530.75	652.6
1052.0849	3230.6639	1527.8	649.35
1052.1863	3231.5799	1525.05	645.45
1052.2876	3232.4954	1520	638.65
1052.3889	3233.4102	1518.2	638.05
1052.4902	3234.3244	1508.4	630.15
1052.5914	3235.238	1503.9	625.45
1052.6926	3236.151	1526.75	625.65
1052.7937	3237.0634	1500.85	623.3
1052.8948	3237.9752	1501	623
1052.9958	3238.8864	1491.3	612.9
1053.0968	3239.797	1494.95	617.45
1053.1977	3240.7069	1488.7	610.75
1053.2986	3241.6163	1485.3	606.5
1053.3994	3242.5251	1477.2	598.5
1053.5002	3243.4332	1472.4	595.5
1053.6009	3244.3408	1472.65	594.4
1053.7016	3245.2477	1471.3	594.5
1053.8022	3246.154	1470.65	590.95
1053.9028	3247.0598	1463.7	583.7
1054.0034	3247.9649	1451.15	573.65
1054.1039	3248.8694	1456.7	579.85
1054.2043	3249.7733	1450.2	572.4
1054.3047	3250.6766	1448.75	572.55
1054.4051	3251.5793	1451.75	572
1054.5054	3252.4814	1440.1	562.45
1054.6056	3253.3829	1429.4	551.9
1054.7058	3254.2838	1427.85	549.35
1054.806	3255.1841	1430.35	552.1
1054.9061	3256.0838	1427.3	550.1
1055.0061	3256.9829	1415.65	540.1
1055.1062	3257.8814	1411.7	532.4
1055.2061	3258.7792	1418.9	538.25
1055.306	3259.6765	1412.5	533.55
1055.4059	3260.5731	1401.95	522.7
1055.5057	3261.4692	1391.6	512.35
1055.6055	3262.3647	1391.4	514.25
1055.7052	3263.2595	1384.85	505.25
1055.8049	3264.1538	1371.1	493.65
1055.9045	3265.0474	1365.1	487.65
1056.0041	3265.9404	1361.65	486.6
1056.1036	3266.8329	1350.65	473.85
1056.2031	3267.7247	1350.15	462.5
1056.3025	3268.616	1329.75	452.45
1056.4019	3269.5066	1325.45	445.3
1056.5013	3270.3966	1310.1	429.7
1056.6005	3271.286	1301.1	423.75
