Software Version:	3.9.2.0
Unit SN:	10000200
Spectrometer SN:	6960
Date:	3/6/2024 10:48:09 AM
Data Line Index:	25
Spectral Points:	2048
Integration time (ms):	125
Averages:	20
Delay (ms):	30
Sequence Number:	1
Processing:	dark subtract
Laser Power (mW):	305
Laser Current (mA):	822
Laser Diode Temp (C):	25.1
Laser Case Temp (C):	27.4
System Temp (C):	27.3
Spectrometer Temp (C):	24.7
CCD Temp (C):	-0.003
Secondary Temp (C):	20.01
Heatsink Temp (C):	22.923
CCDPCB Temp (C):	36.763
SecondaryPCB Temp (C):	34.273

Wavelength	RamanShift	Raw Counts	Dark Subtracted
787.061	30.1047	1233.85	821.45
787.2016	32.3739	1266.35	855.1
787.3422	34.6426	1319.85	907.45
787.4828	36.9109	1373.65	958.3
787.6235	39.1787	1438.3	1021.15
787.7642	41.4461	1503.85	1081.55
787.9049	43.7131	1579.05	1153.85
788.0456	45.9796	1658.1	1227.85
788.1863	48.2456	1725.9	1291.9
788.3271	50.5112	1811.15	1372.3
788.4679	52.7764	1897.2	1459.15
788.6087	55.0411	1981.1	1537.8
788.7496	57.3054	2080.7	1630.6
788.8904	59.5692	2184.65	1731.85
789.0313	61.8326	2291.7	1834.8
789.1722	64.0955	2414.5	1955.15
789.3132	66.3579	2556.65	2092.15
789.4541	68.6199	2738.3	2271.25
789.5951	70.8815	3015.45	2547.7
789.7361	73.1426	3596.5	3121.3
789.8771	75.4032	5088.45	4609.1
790.0181	77.6634	8886.5	8401.55
790.1592	79.9231	19683.45	19194.3
790.3003	82.1824	63158.05	62660.05
790.4414	84.4412	65535	65021.85
790.5825	86.6995	65535	64999.9
790.7237	88.9574	65535	64982.25
790.8648	91.2148	65535	64966.55
791.006	93.4717	65535	64954.3
791.1472	95.7282	65535	64948.7
791.2885	97.9842	65535	64952.65
791.4297	100.2398	65535	64945.25
791.571	102.4949	65535	64941.3
791.7123	104.7495	65535	64939.9
791.8536	107.0036	65535	64937.9
791.9949	109.2573	65535	64937.9
792.1363	111.5105	65535	64935.15
792.2777	113.7632	65535	64936.4
792.4191	116.0154	65535	64921.95
792.5605	118.2672	65535	64928.1
792.7019	120.5185	65535	64935.05
792.8434	122.7693	65535	64925.1
792.9849	125.0197	65535	64923.15
793.1264	127.2696	65535	64918.25
793.2679	129.519	65535	64913.65
793.4094	131.7679	65535	64914
793.551	134.0163	65535	64909.75
793.6926	136.2642	65535	64905.1
793.8342	138.5117	65535	64897.9
793.9758	140.7587	65535	64903.2
794.1175	143.0052	65535	64899.2
794.2591	145.2512	65535	64901.2
794.4008	147.4967	65535	64900.9
794.5425	149.7417	65535	64896.6
794.6842	151.9863	65535	64890.9
794.826	154.2304	65535	64888.7
794.9677	156.4739	65535	64885.3
795.1095	158.717	65535	64884.6
795.2513	160.9596	65535	64877.35
795.3931	163.2017	65535	64876.95
795.535	165.4433	65535	64876.65
795.6768	167.6844	65535	64873.35
795.8187	169.925	65535	64870.6
795.9606	172.1651	65535	64869.75
796.1025	174.4047	65535	64864.3
796.2445	176.6439	65535	64861.85
796.3864	178.8825	65535	64860.1
796.5284	181.1206	65535	64856.95
796.6704	183.3582	65535	64851.25
796.8124	185.5954	65535	64851.2
796.9544	187.832	65535	64845.95
797.0965	190.0681	65535	64845.25
797.2386	192.3037	65535	64840.7
797.3806	194.5388	65535	64839.6
797.5228	196.7734	65535	64834.1
797.6649	199.0075	65535	64832.3
797.807	201.2411	65535	64828.65
797.9492	203.4742	65535	64831.8
798.0914	205.7068	65535	64830.5
798.2336	207.9389	65535	64826.05
798.3758	210.1704	65535	64823.5
798.518	212.4015	65535	64822.75
798.6603	214.632	65535	64828.55
798.8025	216.862	65535	64838.8
798.9448	219.0915	65535	64843.8
799.0871	221.3205	65535	64843.8
799.2294	223.549	65535	64846.85
799.3718	225.777	65535	64844.55
799.5141	228.0044	65535	64842.65
799.6565	230.2314	65535	64845.3
799.7989	232.4578	65535	64837.45
799.9413	234.6837	65535	64828.4
800.0837	236.909	65535	64828.25
800.2262	239.1339	65535	64803.6
800.3687	241.3582	65535	64819.5
800.5111	243.582	65535	64792.05
800.6536	245.8053	65535	64804.5
800.7961	248.0281	65535	64808.8
800.9387	250.2503	65535	64802.05
801.0812	252.472	65535	64798.9
801.2238	254.6932	65535	64794.1
801.3664	256.9139	65535	64795.4
801.509	259.134	65535	64793.8
801.6516	261.3536	65535	64796.55
801.7942	263.5727	65535	64795.2
801.9369	265.7912	65535	64795.9
802.0795	268.0092	65535	64796.25
802.2222	270.2267	65535	64791.6
802.3649	272.4436	65535	64793
802.5076	274.6601	65535	64784
802.6504	276.8759	65535	64785.7
802.7931	279.0913	65535	64784.8
802.9359	281.3061	65535	64784.15
803.0787	283.5204	65535	64783.05
803.2215	285.7341	65535	64778.9
803.3643	287.9473	65535	64761.65
803.5071	290.16	65535	64770.1
803.6499	292.3721	65535	64778.9
803.7928	294.5837	65535	64777.45
803.9357	296.7947	65535	64779.55
804.0786	299.0052	65535	64776
804.2215	301.2152	65535	64773.05
804.3644	303.4246	65535	64779
804.5074	305.6334	65535	64776.35
804.6503	307.8418	65535	64774.45
804.7933	310.0495	65535	64773.05
804.9363	312.2568	65535	64771.65
805.0793	314.4635	65535	64774.05
805.2223	316.6696	65535	64766.45
805.3653	318.8752	65535	64760.95
805.5084	321.0802	65535	64765.35
805.6514	323.2847	65535	64761.05
805.7945	325.4887	65535	64761.6
805.9376	327.692	65535	64762.85
806.0807	329.8949	65535	64765.3
806.2238	332.0972	65535	64760.15
806.367	334.2989	65535	64755.75
806.5101	336.5001	65535	64754.25
806.6533	338.7007	65535	64753.9
806.7965	340.9008	65535	64755
806.9397	343.1003	65535	64753.1
807.0829	345.2992	65535	64752.6
807.2261	347.4976	65535	64752.95
807.3693	349.6955	65535	64743.65
807.5126	351.8927	65535	64744.7
807.6559	354.0895	65535	64734.2
807.7991	356.2856	65535	64744.95
807.9424	358.4812	65535	64744.3
808.0857	360.6763	65535	64742.9
808.2291	362.8707	65535	64740
808.3724	365.0646	65535	64737.95
808.5158	367.258	65535	64737.75
808.6591	369.4508	65535	64735.3
808.8025	371.643	65535	64733.75
808.9459	373.8346	65535	64729.65
809.0893	376.0257	65535	64727.1
809.2327	378.2162	65535	64727.3
809.3762	380.4062	65535	64725
809.5196	382.5956	65535	64724.6
809.6631	384.7844	65535	64728.5
809.8066	386.9726	65535	64728.35
809.9501	389.1603	65535	64733.2
810.0936	391.3474	65535	64691.3
810.2371	393.5339	65535	64734.6
810.3806	395.7199	65535	64736.8
810.5241	397.9052	65535	64737.15
810.6677	400.09	65535	64736.35
810.8113	402.2743	65535	64734.05
810.9548	404.4579	65535	64737.45
811.0984	406.641	65535	64732.9
811.2421	408.8235	65535	64729.7
811.3857	411.0054	65535	64729.2
811.5293	413.1868	65535	64726.45
811.673	415.3675	65535	64724.85
811.8166	417.5477	65535	64724.55
811.9603	419.7273	65535	64724.3
812.104	421.9064	65535	64712.55
812.2477	424.0848	65535	64717.75
812.3914	426.2627	65535	64714.65
812.5351	428.4399	65535	64716.9
812.6788	430.6166	65535	64711.5
812.8226	432.7928	65535	64708.25
812.9663	434.9683	65535	64711.9
813.1101	437.1432	65535	64706.15
813.2539	439.3176	65535	64709.5
813.3977	441.4914	65535	64707.5
813.5415	443.6645	65535	64707.05
813.6853	445.8371	65535	64707.95
813.8291	448.0091	65535	64708.15
813.973	450.1806	65535	64709.95
814.1168	452.3514	65535	64702.65
814.2607	454.5216	65535	64697.9
814.4046	456.6913	65535	64705.4
814.5485	458.8603	65535	64705.35
814.6924	461.0288	65535	64709.45
814.8363	463.1967	65535	64707.9
814.9802	465.3639	65535	64700.75
815.1241	467.5306	65535	64703
815.2681	469.6967	65535	64704.95
815.412	471.8622	65535	64705.2
815.556	474.0271	65535	64701.8
815.7	476.1914	65535	64703.05
815.844	478.3551	65535	64701.95
815.988	480.5182	65535	64703.3
816.132	482.6807	65535	64701.7
816.276	484.8426	65535	64700.45
816.4201	487.0039	65535	64699.7
816.5641	489.1647	65535	64697.75
816.7082	491.3248	65535	64698.85
816.8522	493.4843	65535	64697.95
816.9963	495.6432	65535	64698.35
817.1404	497.8015	65535	64696.15
817.2845	499.9592	65535	64695.85
817.4286	502.1163	65535	64696.55
817.5727	504.2728	65535	64694.65
817.7168	506.4287	65535	64696.75
817.861	508.5839	65535	64695.15
818.0051	510.7386	65535	64694.15
818.1493	512.8927	65535	64693.2
818.2935	515.0461	65535	64692.75
818.4377	517.199	65535	64692.55
818.5818	519.3512	65535	64690.05
818.726	521.5029	65535	64685.8
818.8703	523.6539	65535	64689.1
819.0145	525.8043	65535	64688.75
819.1587	527.9541	65535	64687.1
819.303	530.1033	65535	64687.75
819.4472	532.2519	65535	64688.95
819.5915	534.3999	65535	64683.75
819.7357	536.5472	65535	64684.6
819.88	538.694	65535	64685.2
820.0243	540.8401	65535	64684.1
820.1686	542.9856	65535	64682.4
820.3129	545.1305	65535	64683.15
820.4572	547.2748	65535	64681.25
820.6016	549.4185	65535	64678.8
820.7459	551.5615	65535	64678.25
820.8902	553.704	65535	64680.2
821.0346	555.8458	65535	64684.35
821.1789	557.987	65535	64680.25
821.3233	560.1276	65535	64681
821.4677	562.2675	65535	64686.3
821.6121	564.4069	65535	64684.1
821.7565	566.5456	65535	64684.2
821.9009	568.6837	65535	64684.6
822.0453	570.8212	65535	64682.35
822.1897	572.958	65535	64681.65
822.3342	575.0942	65535	64683.75
822.4786	577.2299	65535	64683.8
822.6231	579.3648	65535	64684.9
822.7675	581.4992	65535	64681.45
822.912	583.6329	65535	64679.9
823.0565	585.766	65535	64682.35
823.201	587.8985	65535	64682.4
823.3454	590.0304	65535	64656.05
823.4899	592.1616	65535	64679.25
823.6345	594.2922	65535	64678.6
823.779	596.4222	65535	64675.2
823.9235	598.5515	65535	64676.5
824.068	600.6802	65535	64676.05
824.2126	602.8083	65535	64674.95
824.3571	604.9358	65535	64673.3
824.5017	607.0626	65535	64675.25
824.6462	609.1888	65535	64675.85
824.7908	611.3144	65535	64672.9
824.9354	613.4393	65535	64674.55
825.08	615.5636	65535	64676.2
825.2246	617.6873	65535	64676.5
825.3692	619.8103	65535	64673.75
825.5138	621.9327	65535	64669.4
825.6584	624.0544	65535	64673.8
825.803	626.1756	65535	64672.5
825.9477	628.2961	65535	64669.6
826.0923	630.4159	65535	64672.75
826.237	632.5351	65535	64668.7
826.3816	634.6537	65535	64669.35
826.5263	636.7716	65535	64669.2
826.6709	638.8889	65535	64667.25
826.8156	641.0056	65535	64669.65
826.9603	643.1216	65535	64668.9
827.105	645.237	65535	64667.7
827.2497	647.3518	65535	64669.15
827.3944	649.4659	65535	64668.55
827.5391	651.5793	65535	64668.25
827.6838	653.6922	65535	64669.65
827.8285	655.8043	65535	64666.1
827.9733	657.9159	65535	64667.45
828.118	660.0268	65535	64666.1
828.2627	662.137	65535	64666.05
828.4075	664.2466	65535	64666
828.5522	666.3556	65535	64665.8
828.697	668.4639	65535	64663.15
828.8418	670.5716	65535	64666.2
828.9865	672.6786	65535	64662.95
829.1313	674.785	65535	64661.25
829.2761	676.8907	65535	64665.55
829.4209	678.9958	65535	64665.75
829.5657	681.1002	65535	64661.9
829.7105	683.204	65535	64659.1
829.8553	685.3072	65535	64662.15
830.0001	687.4097	65535	64663.45
830.1449	689.5115	65535	64661.55
830.2898	691.6127	65535	64664.7
830.4346	693.7132	65535	64660.1
830.5794	695.8131	65535	64644.9
830.7243	697.9123	65535	64660.45
830.8691	700.0109	65535	64659.4
831.014	702.1089	65535	64662.15
831.1588	704.2061	65535	64662.3
831.3037	706.3028	65535	64658.15
831.4486	708.3987	65535	64658.35
831.5935	710.4941	65535	64661.6
831.7383	712.5887	65535	64662.8
831.8832	714.6827	65535	64653.55
832.0281	716.7761	65535	64657.45
832.173	718.8688	65535	64654.05
832.3179	720.9608	65535	64654.6
832.4628	723.0522	65535	64654
832.6077	725.1429	65535	64658.2
832.7527	727.233	65535	64660.9
832.8976	729.3224	65535	64656.25
833.0425	731.4112	65535	64653.25
833.1874	733.4993	65535	64654.9
833.3324	735.5867	65535	64654.95
833.4773	737.6735	65535	64657.75
833.6222	739.7596	65535	64654.65
833.7672	741.845	65535	64656.85
833.9122	743.9298	65535	64652.8
834.0571	746.014	65535	64655.35
834.2021	748.0974	65535	64652.75
834.347	750.1802	65535	64652.85
834.492	752.2624	65535	64653.7
834.637	754.3439	65535	64655.2
834.782	756.4247	65535	64645.05
834.9269	758.5048	65535	64652.4
835.0719	760.5843	65535	64652.95
835.2169	762.6631	65535	64650.25
835.3619	764.7413	65535	64655.25
835.5069	766.8188	65535	64650.55
835.6519	768.8956	65535	64653.6
835.7969	770.9718	65535	64654.9
835.9419	773.0473	65535	64655.15
836.0869	775.1221	65535	64655.2
836.232	777.1962	65535	64653.8
836.377	779.2697	65535	64653.45
836.522	781.3426	65535	64631
836.667	783.4147	65535	64651.5
836.8121	785.4862	65535	64652.5
836.9571	787.557	65535	64653.05
837.1021	789.6271	65535	64653.5
837.2472	791.6966	65535	64651.55
837.3922	793.7654	65535	64651.95
837.5373	795.8335	65535	64653.25
837.6823	797.901	65535	64652.2
837.8274	799.9678	65535	64650.05
837.9724	802.0339	65535	64652.5
838.1175	804.0993	65535	64638.3
838.2626	806.1641	65535	64651.75
838.4076	808.2282	65535	64649.35
838.5527	810.2916	65535	64647.45
838.6978	812.3544	65535	64652.5
838.8428	814.4164	65535	64652.6
838.9879	816.4778	65535	64648.75
839.133	818.5385	65535	64650.4
839.2781	820.5986	65535	64650.95
839.4232	822.658	65535	64650
839.5682	824.7166	65535	64651.95
839.7133	826.7747	65535	64651.4
839.8584	828.832	65535	64648.35
840.0035	830.8886	65535	64647.35
840.1486	832.9446	65535	64649.3
840.2937	834.9999	65535	64649.7
840.4388	837.0545	65535	64647.45
840.5839	839.1085	65535	64650.75
840.729	841.1618	65535	64644.3
840.8741	843.2143	65535	64649.75
841.0192	845.2662	65535	64649.5
841.1643	847.3175	65535	64651.85
841.3095	849.368	65535	64649.55
841.4546	851.4179	65535	64649.85
841.5997	853.467	65535	64648.1
841.7448	855.5155	65535	64651.55
841.8899	857.5633	65535	64646.25
842.0351	859.6105	65535	64649.15
842.1802	861.6569	65535	64650.85
842.3253	863.7027	65535	64645.8
842.4704	865.7478	65535	64648.75
842.6156	867.7922	65535	64649.7
842.7607	869.8359	65535	64644.5
842.9058	871.8789	65535	64646.85
843.0509	873.9212	65535	64613.8
843.1961	875.9629	65535	64646.45
843.3412	878.0039	65535	64647.15
843.4863	880.0441	65535	64646.5
843.6315	882.0837	65535	64646.85
843.7766	884.1226	65535	64644.9
843.9218	886.1609	65535	64647.35
844.0669	888.1984	65535	64644.65
844.212	890.2352	65535	64649.25
844.3572	892.2714	65535	64639.7
844.5023	894.3069	65535	64645.05
844.6475	896.3416	65535	64641.7
844.7926	898.3757	65535	64646.1
844.9377	900.4091	65535	64646.1
845.0829	902.4418	65535	64639.15
845.228	904.4739	65535	64644.3
845.3732	906.5052	65535	64645.35
845.5183	908.5358	65535	64646.9
845.6635	910.5658	65535	64645.65
845.8086	912.595	65535	64644.15
845.9538	914.6236	65535	64647.2
846.0989	916.6515	65535	64643
846.2441	918.6786	65535	64644.75
846.3892	920.7051	65535	64642
846.5344	922.7309	65535	64645.4
846.6795	924.756	65535	64644.4
846.8246	926.7804	65535	64644.05
846.9698	928.8041	65535	64642.2
847.1149	930.8272	65535	64644.2
847.2601	932.8495	65535	64643.75
847.4052	934.8711	65535	64643.35
847.5504	936.892	65535	64643.2
847.6955	938.9123	65535	64642.25
847.8407	940.9318	65535	64643.6
847.9858	942.9506	65535	64641.7
848.131	944.9688	65535	64646.45
848.2761	946.9862	65535	64645.55
848.4213	949.003	65535	64640.6
848.5664	951.019	65535	64643.5
848.7115	953.0344	65535	64643.5
848.8567	955.0491	65535	64645.15
849.0018	957.063	65535	64645.5
849.147	959.0763	65535	64642.25
849.2921	961.0888	65535	64642.7
849.4373	963.1007	65535	64643.45
849.5824	965.1119	65535	64642.8
849.7275	967.1223	65535	64643.25
849.8727	969.1321	65535	64644.75
850.0178	971.1412	65535	64644.1
850.1629	973.1495	65535	64643.65
850.3081	975.1572	65535	64609.1
850.4532	977.1641	65535	64642.05
850.5983	979.1704	65535	64643.75
850.7435	981.1759	65535	64640.7
850.8886	983.1808	65535	64641.75
851.0337	985.1849	65535	64633.4
851.1788	987.1884	65535	64638.8
851.324	989.1911	65535	64639.6
851.4691	991.1932	65535	64643.7
851.6142	993.1945	65535	64642.95
851.7593	995.1951	65535	64640.95
851.9045	997.1951	65535	64636.8
852.0496	999.1943	65535	64643.95
852.1947	1001.1928	65535	64641.65
852.3398	1003.1906	65535	64644.3
852.4849	1005.1877	65535	64643.05
852.63	1007.1841	65535	64646.1
852.7751	1009.1798	65535	64642.6
852.9202	1011.1748	65535	64641.55
853.0653	1013.1691	65535	64639.45
853.2104	1015.1627	65535	64641.85
853.3555	1017.1556	65535	64642.85
853.5006	1019.1477	65535	64642.8
853.6457	1021.1392	65535	64642.85
853.7908	1023.1299	65535	64642.35
853.9359	1025.12	65535	64639.6
854.081	1027.1093	65535	64645
854.2261	1029.0979	65535	64644.2
854.3712	1031.0859	65535	64644.65
854.5163	1033.0731	65535	64642.35
854.6613	1035.0596	65535	64643.95
854.8064	1037.0454	65535	64640.8
854.9515	1039.0304	65535	64639.7
855.0965	1041.0148	65535	64642.25
855.2416	1042.9985	65535	64640.7
855.3867	1044.9814	65535	64641.8
855.5317	1046.9636	65535	64640
855.6768	1048.9452	65535	64644.1
855.8219	1050.926	65535	64644.8
855.9669	1052.9061	65535	64642.45
856.112	1054.8855	65535	64641.55
856.257	1056.8642	65535	64639.8
856.4021	1058.8421	65535	64636.6
856.5471	1060.8194	65535	64640.8
856.6921	1062.7959	65535	64642.95
856.8372	1064.7717	65535	64641.55
856.9822	1066.7469	65535	64639.15
857.1272	1068.7213	65535	64639.25
857.2723	1070.695	65535	64641.2
857.4173	1072.6679	65535	64640.55
857.5623	1074.6402	65535	64641.4
857.7073	1076.6117	65535	64637.15
857.8523	1078.5826	65535	64641.75
857.9973	1080.5527	65535	64638.25
858.1423	1082.5221	65535	64640.95
858.2873	1084.4908	65535	64640.35
858.4323	1086.4587	65535	64641.6
858.5773	1088.426	65535	64639.8
858.7223	1090.3925	65535	64636.15
858.8673	1092.3584	65535	64640.3
859.0123	1094.3235	65535	64643.15
859.1573	1096.2879	65535	64640.15
859.3022	1098.2515	65535	64638.4
859.4472	1100.2145	65535	64640.95
859.5922	1102.1767	65535	64640.5
859.7371	1104.1382	65535	64642.2
859.8821	1106.099	65535	64637.25
860.027	1108.0591	65535	64640.7
860.172	1110.0185	65535	64636.8
860.3169	1111.9771	65535	64641.3
860.4619	1113.9351	65535	64641.4
860.6068	1115.8923	65535	64639.9
860.7517	1117.8488	65535	64638.5
860.8967	1119.8045	65535	64640.55
861.0416	1121.7596	65535	64641.45
861.1865	1123.7139	65535	64640.15
861.3314	1125.6675	65535	64639.65
861.4763	1127.6204	65535	64640.75
861.6212	1129.5726	65535	64638.45
861.7661	1131.524	65535	64640.35
861.911	1133.4748	65535	64638.45
862.0559	1135.4248	65535	64640.55
862.2008	1137.3741	65535	64640.6
862.3457	1139.3226	65535	64639.4
862.4905	1141.2705	65535	64642
862.6354	1143.2176	65535	64634.6
862.7803	1145.164	65535	64638.25
862.9251	1147.1097	65535	64640.5
863.07	1149.0546	65535	64638.4
863.2148	1150.9989	65535	64639.95
863.3597	1152.9424	65535	64640.6
863.5045	1154.8852	65535	64639.35
863.6493	1156.8272	65535	64642.8
863.7942	1158.7686	65535	64630.85
863.939	1160.7092	65535	64639.35
864.0838	1162.6491	65535	64638.05
864.2286	1164.5883	65535	64643.2
864.3734	1166.5267	65535	64638.9
864.5182	1168.4644	65535	64639.85
864.663	1170.4014	65535	64636.6
864.8078	1172.3377	65535	64640.65
864.9526	1174.2732	65535	64640.95
865.0974	1176.2081	65535	64642.65
865.2421	1178.1421	65535	64636.45
865.3869	1180.0755	65535	64640.35
865.5317	1182.0082	65535	64640.2
865.6764	1183.9401	65535	64637.45
865.8212	1185.8713	65535	64639.1
865.9659	1187.8017	65535	64639.2
866.1106	1189.7315	65535	64642.8
866.2554	1191.6605	65535	64613.3
866.4001	1193.5888	65535	64639.4
866.5448	1195.5163	65535	64639.65
866.6895	1197.4432	65535	64637.5
866.8342	1199.3693	65535	64638.75
866.9789	1201.2947	65535	64636.7
867.1236	1203.2193	65535	64638.4
867.2683	1205.1432	65535	64640.75
867.413	1207.0664	65535	64639.6
867.5576	1208.9889	65535	64636.3
867.7023	1210.9106	65535	64641.9
867.847	1212.8316	65535	64642.65
867.9916	1214.7519	65535	64630.4
868.1363	1216.6715	65535	64640.6
868.2809	1218.5903	65535	64641.1
868.4255	1220.5084	65535	64640.45
868.5701	1222.4257	65535	64641.65
868.7148	1224.3424	65535	64640.6
868.8594	1226.2583	65535	64637.5
869.004	1228.1735	65535	64636.3
869.1486	1230.0879	65535	64638.15
869.2932	1232.0016	65535	64639.6
869.4377	1233.9146	65535	64637.65
869.5823	1235.8269	65535	64640.5
869.7269	1237.7384	65535	64642.45
869.8715	1239.6492	65535	64640.6
870.016	1241.5592	65535	64641.05
870.1606	1243.4686	65535	64638.6
870.3051	1245.3772	65535	64642.5
870.4496	1247.285	65535	64638.2
870.5941	1249.1922	65535	64642.9
870.7387	1251.0986	65535	64640.5
870.8832	1253.0042	65535	64640.75
871.0277	1254.9092	65535	64640.45
871.1722	1256.8134	65535	64639.1
871.3167	1258.7169	65535	64641
871.4611	1260.6196	65535	64639.1
871.6056	1262.5216	65535	64640.3
871.7501	1264.4229	65535	64639.75
871.8945	1266.3234	65535	64638.1
872.039	1268.2232	65535	64639.6
872.1834	1270.1223	65535	64638.55
872.3278	1272.0207	65535	64640.25
872.4723	1273.9183	65535	64633.8
872.6167	1275.8151	65535	64641.2
872.7611	1277.7113	65535	64640.3
872.9055	1279.6067	65535	64639.4
873.0499	1281.5014	65535	64637
873.1943	1283.3953	65535	64639.35
873.3386	1285.2885	65535	64640
873.483	1287.181	65535	64637.6
873.6274	1289.0727	65535	64639.7
873.7717	1290.9637	65535	64639.55
873.9161	1292.854	65535	64639.4
874.0604	1294.7435	65535	64638.65
874.2047	1296.6323	65535	64638.15
874.349	1298.5204	65535	64634.5
874.4933	1300.4077	65535	64638.1
874.6376	1302.2943	65535	64639.05
874.7819	1304.1802	65535	64640.15
874.9262	1306.0653	65535	64635.7
875.0705	1307.9497	65535	64639.15
875.2147	1309.8333	65535	64639.5
875.359	1311.7162	65535	64640.4
875.5032	1313.5984	65535	64635.45
875.6475	1315.4798	65535	64622.6
875.7917	1317.3605	65535	64622.05
875.9359	1319.2405	65535	64636.5
876.0801	1321.1197	65535	64636.45
876.2243	1322.9982	65535	64637.3
876.3685	1324.876	65535	64639.15
876.5127	1326.753	65535	64641.2
876.6569	1328.6293	65535	64638.95
876.801	1330.5048	65535	64637.7
876.9452	1332.3796	65535	64638.95
877.0893	1334.2537	65535	64614.9
877.2335	1336.127	65535	64639.35
877.3776	1337.9996	65535	64638.1
877.5217	1339.8714	65535	64639
877.6658	1341.7426	65535	64595.7
877.8099	1343.6129	65535	64639.15
877.954	1345.4826	65535	64640.4
878.0981	1347.3515	65535	64636.6
878.2422	1349.2196	65535	64639.75
878.3862	1351.087	65535	64637.25
878.5303	1352.9537	65535	64636.35
878.6743	1354.8197	65535	64638.55
878.8184	1356.6849	65535	64637.75
878.9624	1358.5493	65535	64638.9
879.1064	1360.4131	65535	64637.75
879.2504	1362.276	65535	64640.55
879.3944	1364.1383	65535	64640.15
879.5384	1365.9998	65535	64635.9
879.6823	1367.8606	65535	64639.05
879.8263	1369.7206	65535	64638.6
879.9702	1371.5799	65535	64636.6
880.1142	1373.4384	65535	64640.4
880.2581	1375.2962	65535	64636.15
880.402	1377.1533	65535	64639.15
880.5459	1379.0096	65535	64639.2
880.6898	1380.8652	65535	64638.1
880.8337	1382.7201	65535	64640.4
880.9776	1384.5742	65535	64639.55
881.1215	1386.4275	65535	64638.65
881.2653	1388.2802	65535	64639.65
881.4092	1390.132	65535	64637.9
881.553	1391.9832	65535	64638.6
881.6968	1393.8336	65535	64637.8
881.8406	1395.6832	65535	64636.9
881.9844	1397.5322	65535	64637.45
882.1282	1399.3803	65535	64633.75
882.272	1401.2278	65535	64640.1
882.4158	1403.0745	65535	64638.5
882.5595	1404.9204	65535	64639.65
882.7033	1406.7656	65535	64640.05
882.847	1408.6101	65535	64641.25
882.9908	1410.4538	65535	64639.65
883.1345	1412.2968	65535	64637.95
883.2782	1414.139	65535	64637.85
883.4219	1415.9805	65535	64636.6
883.5656	1417.8213	65535	64632.05
883.7092	1419.6613	65535	64638.6
883.8529	1421.5006	65535	64638.15
883.9965	1423.3391	65535	64637.95
884.1402	1425.1769	65535	64640.4
884.2838	1427.0139	65535	64638.25
884.4274	1428.8502	65535	64637.8
884.571	1430.6858	65535	64638.7
884.7146	1432.5206	65535	64637.4
884.8582	1434.3547	65535	64636.65
885.0018	1436.188	65535	64639.2
885.1453	1438.0206	65535	64637.75
885.2889	1439.8524	65535	64640.2
885.4324	1441.6835	65535	64637.75
885.5759	1443.5139	65535	64635.2
885.7194	1445.3435	65535	64637.8
885.8629	1447.1724	65535	64639.85
886.0064	1449.0005	65535	64641.8
886.1499	1450.8279	65535	64636.4
886.2933	1452.6545	65535	64639.6
886.4368	1454.4804	65535	64638.5
886.5802	1456.3056	65535	64633.35
886.7237	1458.13	65535	64639.2
886.8671	1459.9536	65535	64637.75
887.0105	1461.7766	65535	64638.15
887.1539	1463.5987	65535	64638.55
887.2972	1465.4202	65535	64639.2
887.4406	1467.2409	65535	64639.35
887.584	1469.0608	65535	64638.95
887.7273	1470.88	65535	64638.8
887.8706	1472.6984	65535	64639.5
888.0139	1474.5161	65535	64636.4
888.1572	1476.3331	65535	64639.7
888.3005	1478.1493	65535	64638.7
888.4438	1479.9648	65535	64639.5
888.5871	1481.7795	65535	64638.9
888.7303	1483.5935	65535	64639.25
888.8736	1485.4067	65535	64640.15
889.0168	1487.2192	65535	64638.7
889.16	1489.031	65535	64634.5
889.3032	1490.842	65535	64640.15
889.4464	1492.6522	65535	64639.45
889.5896	1494.4618	65535	64638.45
889.7327	1496.2705	65535	64640.3
889.8759	1498.0785	65535	64640.7
890.019	1499.8858	65535	64639.65
890.1622	1501.6924	65535	64639.7
890.3053	1503.4981	65535	64639.9
890.4484	1505.3032	65535	64638.25
890.5914	1507.1075	65535	64638.2
890.7345	1508.911	65535	64638.85
890.8776	1510.7138	65535	64638.5
891.0206	1512.5159	65535	64638.9
891.1637	1514.3172	65535	64640.05
891.3067	1516.1178	65535	64640.65
891.4497	1517.9176	65535	64638.35
891.5927	1519.7166	65535	64639.35
891.7357	1521.515	65535	64634.15
891.8786	1523.3126	65535	64639.95
892.0216	1525.1094	65535	64637.9
892.1645	1526.9055	65535	64641.35
892.3074	1528.7008	65535	64639.6
892.4503	1530.4954	65535	64631.65
892.5932	1532.2893	65535	64640.05
892.7361	1534.0824	65535	64635.25
892.879	1535.8747	65535	64641.6
893.0218	1537.6663	65535	64641.1
893.1647	1539.4572	65535	64638.5
893.3075	1541.2473	65535	64641.2
893.4503	1543.0367	65535	64641.2
893.5931	1544.8253	65535	64638.25
893.7359	1546.6132	65535	64636.7
893.8787	1548.4003	65535	64627.95
894.0214	1550.1867	65535	64630
894.1642	1551.9723	65535	64633.9
894.3069	1553.7572	65535	64638.4
894.4496	1555.5414	65535	64640.45
894.5923	1557.3247	65535	64639.2
894.735	1559.1074	65535	64641.45
894.8777	1560.8893	65535	64640.8
895.0204	1562.6705	65535	64639.9
895.163	1564.4509	65535	64640.2
895.3056	1566.2305	65535	64641.4
895.4482	1568.0094	65535	64640.55
895.5908	1569.7876	65535	64640.7
895.7334	1571.565	65535	64639.1
895.876	1573.3417	65535	64641.5
896.0186	1575.1176	65535	64641.75
896.1611	1576.8928	65535	64641.15
896.3036	1578.6672	65535	64642.45
896.4461	1580.4409	65535	64642.15
896.5886	1582.2138	65535	64638.4
896.7311	1583.986	65535	64641.3
896.8736	1585.7575	65535	64640.8
897.0161	1587.5282	65535	64642.7
897.1585	1589.2981	65535	64641.15
897.3009	1591.0673	65535	64641.3
897.4433	1592.8358	65535	64641.35
897.5857	1594.6035	65535	64640.1
897.7281	1596.3704	65535	64641.4
897.8705	1598.1366	65535	64642.35
898.0128	1599.9021	65535	64643.4
898.1551	1601.6668	65535	64639.45
898.2975	1603.4308	65535	64639.65
898.4398	1605.194	65535	64634.1
898.5821	1606.9564	65535	64641.5
898.7243	1608.7182	65535	64638
898.8666	1610.4791	65535	64643.4
899.0088	1612.2394	65535	64643.3
899.1511	1613.9988	65535	64642.5
899.2933	1615.7576	65535	64641.35
899.4355	1617.5156	65535	64635.2
899.5776	1619.2728	65535	64641.85
899.7198	1621.0293	65535	64643.9
899.862	1622.785	65535	64637.55
900.0041	1624.54	65535	64638.35
900.1462	1626.2942	65535	64640.8
900.2883	1628.0477	65535	64638.05
900.4304	1629.8005	65496.85	64597.2
900.5725	1631.5525	65535	64641.7
900.7145	1633.3037	65471.6	64579.95
900.8566	1635.0542	65444.45	64552.8
900.9986	1636.804	65506.45	64610.35
901.1406	1638.553	65292.25	64316.45
901.2826	1640.3013	65404.35	64512.3
901.4245	1642.0488	65190.4	64296.55
901.5665	1643.7955	65406.15	64515.4
901.7085	1645.5416	65228.95	64336.4
901.8504	1647.2868	64958.3	64067.9
901.9923	1649.0313	65328.8	64435.7
902.1342	1650.7751	65112.4	64215.85
902.2761	1652.5181	64928	64037.5
902.4179	1654.2604	64994.35	64102.25
902.5598	1656.0019	65117.55	64225.15
902.7016	1657.7427	65048.95	64157.3
902.8434	1659.4828	65306.85	64414.1
902.9852	1661.222	64988.4	64096.45
903.127	1662.9606	65329.75	64438.45
903.2687	1664.6984	64880.85	63988.25
903.4105	1666.4354	65076.65	64184.5
903.5522	1668.1717	64444.05	63550.55
903.6939	1669.9072	63717.3	62826.1
903.8356	1671.642	63726.35	62831.65
903.9773	1673.3761	63472.7	62579.15
904.119	1675.1094	63302.2	62409.45
904.2606	1676.8419	62414.85	61521.15
904.4022	1678.5737	62697.85	61806.65
904.5439	1680.3048	62292.7	61401.4
904.6855	1682.0351	61934.1	61042.15
904.827	1683.7646	61584.05	60686.4
904.9686	1685.4934	61877.05	60985.95
905.1101	1687.2215	60390.65	59497.15
905.2517	1688.9488	61494.3	60600.4
905.3932	1690.6754	59219.95	58328.3
905.5347	1692.4012	60276.05	59384.05
905.6761	1694.1263	60336.95	59442.5
905.8176	1695.8506	59500.35	58606.85
905.9591	1697.5742	59472.95	58582.55
906.1005	1699.297	59253.3	58362.15
906.2419	1701.0191	59299.55	58408
906.3833	1702.7404	58336.5	57445.45
906.5246	1704.461	58057.15	57163.4
906.666	1706.1808	58362.65	57469.6
906.8073	1707.8999	58079.2	57185.8
906.9487	1709.6182	57718.55	56825.05
907.09	1711.3358	57632.55	56740.7
907.2313	1713.0527	57430.1	56540.2
907.3725	1714.7688	57409.5	56511.1
907.5138	1716.4841	56440.05	55547.95
907.655	1718.1987	56765.2	55866.65
907.7962	1719.9126	56494.45	55603.05
907.9374	1721.6257	56477.95	55585.1
908.0786	1723.338	56584.85	55693.65
908.2198	1725.0496	55552.15	54659.25
908.3609	1726.7605	55569	54676.35
908.502	1728.4706	55236.6	54343.55
908.6431	1730.18	55342	54445.7
908.7842	1731.8886	55031.2	54139.95
908.9253	1733.5964	54710.3	53797.3
909.0664	1735.3036	54903.85	54007.9
909.2074	1737.0099	54618.95	53727.45
909.3484	1738.7156	54160.6	53268.85
909.4894	1740.4204	53991.35	53097.6
909.6304	1742.1246	54037.75	53144
909.7714	1743.8279	53947	53054.3
909.9123	1745.5306	53914.3	53019.95
910.0532	1747.2325	53146.3	52255.95
910.1941	1748.9336	53138.35	52246.3
910.335	1750.634	52976.65	52083.6
910.4759	1752.3336	53088.75	52197.35
910.6168	1754.0325	52631.55	51741.95
910.7576	1755.7307	52878.45	51988.8
910.8984	1757.4281	52446.65	51555.75
911.0392	1759.1247	52595.9	51696.1
911.18	1760.8206	52129.5	51234.2
911.3208	1762.5158	52117.65	51221.65
911.4615	1764.2102	51930	51041.15
911.6022	1765.9039	51727.8	50836.4
911.7429	1767.5968	51573.8	50680.55
911.8836	1769.289	51422.25	50531.65
912.0243	1770.9804	51303.65	50410.35
912.1649	1772.6711	51209.35	50317.05
912.3056	1774.361	51024.95	50134.4
912.4462	1776.0502	50897.75	50005.4
912.5868	1777.7386	50647.7	49753.45
912.7274	1779.4263	50512.3	49619.85
912.8679	1781.1132	50484.95	49592.25
913.0084	1782.7994	50181.85	49288.15
913.149	1784.4849	50209.25	49317.6
913.2895	1786.1696	49833.8	48937.4
913.4299	1787.8535	49750.25	48857.1
913.5704	1789.5367	49642.4	48750.45
913.7108	1791.2192	49544.15	48653.45
913.8513	1792.9009	49308	48384.55
913.9917	1794.5818	49197.25	48303.15
914.132	1796.2621	49003.9	48114.5
914.2724	1797.9415	48878	47986.05
914.4128	1799.6202	48714.7	47824.75
914.5531	1801.2982	48622.95	47730.6
914.6934	1802.9755	48459.9	47566.3
914.8337	1804.6519	48378.95	47485.7
914.9739	1806.3277	48204.05	47312.95
915.1142	1808.0027	47881	46990.95
915.2544	1809.6769	47867.9	46977.05
915.3946	1811.3504	47761.6	46868.25
915.5348	1813.0231	47530.65	46638.5
915.675	1814.6951	47502.7	46612.55
915.8151	1816.3664	47426.15	46534.3
915.9553	1818.0369	47293.75	46400.95
916.0954	1819.7067	47043.35	46152.15
916.2355	1821.3757	47022.05	46129.2
916.3755	1823.044	46787.8	45896.8
916.5156	1824.7115	46722.85	45831.05
916.6556	1826.3783	46431.85	45542
916.7956	1828.0443	46311.4	45420.55
916.9356	1829.7096	46187.6	45295.65
917.0756	1831.3741	46117.45	45223.4
917.2155	1833.0379	46026.75	45135.35
917.3555	1834.701	45823.05	44930.9
917.4954	1836.3633	45650.2	44758.05
917.6353	1838.0248	45561.15	44669.45
917.7751	1839.6856	45477.15	44585.85
917.915	1841.3457	45415.25	44524.55
918.0548	1843.005	45232.95	44343.25
918.1946	1844.6636	45142.3	44252.65
918.3344	1846.3214	44989	44098.6
918.4742	1847.9785	44954.05	44064.75
918.6139	1849.6349	44758.95	43866.3
918.7537	1851.2904	44674.6	43774.85
918.8934	1852.9453	44521.25	43631.1
919.0331	1854.5994	44292.8	43399.45
919.1727	1856.2528	44431.8	43535.15
919.3124	1857.9054	44242.25	43351.75
919.452	1859.5572	44100.55	43208
919.5916	1861.2083	43986.75	43094.1
919.7312	1862.8587	43970.55	43079.35
919.8708	1864.5084	43746.35	42852.3
920.0103	1866.1572	43613.5	42723.7
920.1498	1867.8054	43352.2	42459.6
920.2893	1869.4528	43310.05	42419.4
920.4288	1871.0994	43142.05	42250.4
920.5683	1872.7453	43052.45	42159.75
920.7077	1874.3905	42954.05	42055.65
920.8471	1876.0349	42772.45	41882.45
920.9865	1877.6786	42754.95	41862.3
921.1259	1879.3215	42719.95	41828.35
921.2653	1880.9637	42561.95	41671.85
921.4046	1882.6051	42448.9	41558.6
921.5439	1884.2458	42303.8	41410.4
921.6832	1885.8858	42191	41299.7
921.8225	1887.525	42038.45	41147.3
921.9617	1889.1634	41839.65	40948.05
922.101	1890.8011	41679.3	40788.05
922.2402	1892.4381	41559.3	40670.45
922.3794	1894.0743	41557.95	40668.35
922.5185	1895.7098	41445.25	40555.4
922.6577	1897.3446	41268.75	40379
922.7968	1898.9786	41175.2	40279.3
922.9359	1900.6118	41015.45	40125.4
923.075	1902.2443	40786.25	39891.45
923.214	1903.8761	40668.7	39776.25
923.3531	1905.5071	40450.15	39558.15
923.4921	1907.1374	40336.2	39444.25
923.6311	1908.7669	40257.2	39366.7
923.77	1910.3957	40159.75	39268.5
923.909	1912.0237	39845.7	38956.65
924.0479	1913.651	39828.5	38937.25
924.1868	1915.2776	39720.15	38830.95
924.3257	1916.9034	39499.25	38608.75
924.4646	1918.5285	39329.9	38438.55
924.6034	1920.1528	39106.7	38213.15
924.7422	1921.7764	39072.3	38182.2
924.881	1923.3992	38909.5	38018.95
925.0198	1925.0213	38637.3	37745.1
925.1586	1926.6427	38469.25	37580
925.2973	1928.2633	38511.4	37506.6
925.436	1929.8832	38297.6	37405.55
925.5747	1931.5023	38112.1	37221.8
925.7134	1933.1207	37957.15	37066.2
925.852	1934.7383	37929.6	37035.55
925.9906	1936.3552	37733.65	36843.6
926.1292	1937.9714	37597.5	36703.7
926.2678	1939.5868	37443.2	36551.6
926.4064	1941.2015	37237.65	36345.6
926.5449	1942.8154	37082.6	36189.7
926.6834	1944.4286	36887.85	35995.3
926.8219	1946.041	36760.95	35852.15
926.9604	1947.6528	36522.65	35626.7
927.0988	1949.2637	36453.6	35562.5
927.2372	1950.8739	36277.15	35387.4
927.3756	1952.4834	36221.45	35330
927.514	1954.0921	36144.35	35252.9
927.6523	1955.7001	35949.4	35053.15
927.7907	1957.3074	35863.75	34971.75
927.929	1958.9139	35661.1	34770.65
928.0673	1960.5197	35578.05	34684.25
928.2055	1962.1247	35415.65	34526.15
928.3438	1963.729	35223.2	34334.7
928.482	1965.3325	35104.1	34187
928.6202	1966.9353	34970.35	34079.85
928.7584	1968.5374	34841.35	33950.05
928.8965	1970.1387	34719.75	33829.6
929.0346	1971.7393	34548.3	33656.1
929.1727	1973.3392	34441.45	33551.15
929.3108	1974.9383	34336.35	33446.5
929.4489	1976.5366	34190.4	33299.55
929.5869	1978.1342	34109.3	33216.9
929.7249	1979.7311	34014.15	33121.65
929.8629	1981.3273	33872.2	32980.6
930.0009	1982.9227	33751.8	32859.15
930.1388	1984.5173	33605.5	32715.45
930.2767	1986.1112	33441.8	32551.45
930.4146	1987.7044	33377.45	32488.05
930.5525	1989.2968	33263.5	32371.65
930.6904	1990.8885	33159.3	32264.4
930.8282	1992.4795	33111.25	32215
930.966	1994.0697	32902.65	32010.25
931.1038	1995.6592	32830.15	31937.1
931.2415	1997.2479	32681.75	31792.55
931.3793	1998.8359	32598.9	31709.35
931.517	2000.4232	32403.45	31514.05
931.6547	2002.0097	32291.3	31401.8
931.7923	2003.5955	32166.2	31274.6
931.93	2005.1805	32129.7	31238.2
932.0676	2006.7648	32040.55	31148.85
932.2052	2008.3484	31895.95	31003.05
932.3427	2009.9312	31915.95	31022.9
932.4803	2011.5133	31737.5	30848.85
932.6178	2013.0946	31668.2	30778.1
932.7553	2014.6752	31551.55	30661.55
932.8928	2016.2551	31387.85	30498.7
933.0302	2017.8342	31282.55	30390.8
933.1676	2019.4126	31179.3	30287.6
933.305	2020.9902	31065.05	30174.5
933.4424	2022.5672	30913.6	30021.5
933.5798	2024.1433	30849.7	29955.65
933.7171	2025.7188	30734.6	29846.7
933.8544	2027.2935	30610.9	29720.2
933.9917	2028.8674	30459	29570.05
934.129	2030.4406	30388.5	29499.95
934.2662	2032.0131	30218.55	29329.4
934.4034	2033.5849	30120.25	29221.85
934.5406	2035.1559	30068.7	29177.4
934.6778	2036.7261	30040.15	29149.65
934.8149	2038.2957	29912	29021.8
934.952	2039.8645	29852.3	28961.7
935.0891	2041.4325	29831.8	28938
935.2262	2042.9998	29640.45	28750.5
935.3632	2044.5664	29572.6	28679.25
935.5002	2046.1323	29448.75	28559.15
935.6372	2047.6974	29335.8	28444.45
935.7742	2049.2617	29295.15	28405.7
935.9111	2050.8254	29233.4	28319.15
936.048	2052.3883	29165.9	28274.25
936.1849	2053.9504	29047.15	28156.95
936.3218	2055.5118	28952.05	28061.2
936.4586	2057.0725	28751.3	27857.2
936.5955	2058.6325	28727.5	27835.15
936.7323	2060.1917	28579	27688.55
936.869	2061.7502	28534.65	27640.5
937.0058	2063.3079	28412.95	27522.35
937.1425	2064.8649	28285.2	27392.4
937.2792	2066.4212	28247.05	27354.75
937.4159	2067.9767	28187.4	27298.2
937.5525	2069.5315	28028.1	27137.05
937.6891	2071.0856	27898.95	27007.95
937.8257	2072.6389	27787	26893.15
937.9623	2074.1915	27636.4	26746
938.0989	2075.7433	27474.4	26584.55
938.2354	2077.2945	27464.4	26575.45
938.3719	2078.8448	27366.35	26475.95
938.5084	2080.3945	27258.6	26367.95
938.6448	2081.9434	27194.9	26302.85
938.7812	2083.4916	27114.55	26223.7
938.9176	2085.039	26952.55	26059.55
939.054	2086.5857	26907.15	26015.7
939.1903	2088.1317	26866.2	25975
939.3267	2089.677	26773.25	25881.35
939.463	2091.2215	26667.85	25775.25
939.5992	2092.7652	26603.3	25712.35
939.7355	2094.3083	26501.25	25607.25
939.8717	2095.8506	26467.65	25576.25
940.0079	2097.3921	26426.55	25537.1
940.1441	2098.933	26326.55	25437
940.2802	2100.4731	26213.7	25324.3
940.4163	2102.0124	26189.3	25292.85
940.5524	2103.5511	26070.8	25181.15
940.6885	2105.089	26070.25	25178.7
940.8245	2106.6261	25954.05	25062.6
940.9606	2108.1626	25834.55	24943.1
941.0965	2109.6983	25782.25	24864.95
941.2325	2111.2332	25683.8	24791.1
941.3684	2112.7675	25564.35	24673.35
941.5044	2114.301	25502.1	24609.7
941.6403	2115.8337	25460.6	24567.85
941.7761	2117.3657	25395.7	24505.05
941.912	2118.897	25319.15	24427.9
942.0478	2120.4276	25232.65	24336.2
942.1835	2121.9575	25091.75	24200.25
942.3193	2123.4866	25085.85	24182.85
942.455	2125.0149	25049.6	24157.5
942.5907	2126.5426	24817.2	23926.55
942.7264	2128.0695	24777.85	23884.5
942.8621	2129.5956	24748.4	23858.25
942.9977	2131.1211	24712.5	23818.15
943.1333	2132.6458	24605.8	23714.2
943.2689	2134.1698	24542.7	23652.4
943.4044	2135.693	24483.85	23591.1
943.54	2137.2155	24395.3	23501.7
943.6755	2138.7373	24323.35	23431.95
943.8109	2140.2584	24207.4	23316.45
943.9464	2141.7787	24134.25	23239.1
944.0818	2143.2983	23962.2	23072
944.2172	2144.8171	23820.7	22931.05
944.3526	2146.3353	23804.15	22910.7
944.4879	2147.8527	23701.25	22811.25
944.6232	2149.3693	23716	22825.25
944.7585	2150.8853	23565.55	22675.6
944.8938	2152.4005	23454.05	22563.9
945.029	2153.9149	23417.6	22525.65
945.1642	2155.4287	23332.85	22441.6
945.2994	2156.9417	23233.95	22342.05
945.4346	2158.454	23174.45	22279.5
945.5697	2159.9655	23134.75	22244.35
945.7048	2161.4764	23127.55	22236.25
945.8399	2162.9865	23010	22118.7
945.9749	2164.4958	22953.1	22060.75
946.1099	2166.0045	22870.7	21976.1
946.2449	2167.5124	22842.3	21949.6
946.3799	2169.0195	22754.6	21863.75
946.5148	2170.526	22716.6	21823.8
946.6498	2172.0317	22677	21786.05
946.7846	2173.5367	22556.2	21665.8
946.9195	2175.0409	22439.15	21550.8
947.0543	2176.5445	22431.3	21541.55
947.1891	2178.0473	22342	21452.75
947.3239	2179.5494	22243	21347.5
947.4587	2181.0507	22163.9	21273
947.5934	2182.5513	22098.4	21208.55
947.7281	2184.0512	22024.45	21133.1
947.8628	2185.5504	21956.25	21065.45
947.9974	2187.0488	21808.65	20918.7
948.132	2188.5465	21703.35	20813.2
948.2666	2190.0435	21687.85	20798.25
948.4012	2191.5397	21616.3	20724.75
948.5357	2193.0353	21505.7	20616.15
948.6702	2194.5301	21423.3	20531.7
948.8047	2196.0241	21341.65	20451.05
948.9392	2197.5175	21295.1	20403.2
949.0736	2199.0101	21140.55	20245.95
949.208	2200.502	21016.9	20126.75
949.3424	2201.9931	20988.55	20097.65
949.4767	2203.4835	20900.9	20007.25
949.611	2204.9733	20841.9	19944.4
949.7453	2206.4622	20802.45	19911.9
949.8796	2207.9505	20666.1	19772.85
950.0138	2209.438	20562.35	19672.05
950.148	2210.9248	20516.4	19625.25
950.2822	2212.4109	20451.1	19560.75
950.4164	2213.8962	20364	19473.65
950.5505	2215.3809	20330.35	19437.15
950.6846	2216.8648	20245.45	19353.4
950.8186	2218.3479	20182.2	19285.2
950.9527	2219.8304	20118.2	19224.6
951.0867	2221.3121	20027.55	19133.9
951.2207	2222.7931	19953.5	19063.9
951.3546	2224.2733	19876.75	18986.7
951.4886	2225.7529	19792.7	18902.3
951.6225	2227.2317	19731.5	18836.85
951.7563	2228.7098	19701.15	18811.3
951.8902	2230.1872	19591.3	18701.2
952.024	2231.6638	19510.5	18619.35
952.1578	2233.1397	19458.6	18561
952.2916	2234.6149	19406.3	18514.55
952.4253	2236.0894	19325.2	18432.85
952.559	2237.5632	19293.35	18391.9
952.6927	2239.0362	19187.1	18296.75
952.8263	2240.5085	19124.35	18233.7
952.9599	2241.9801	19053.95	18163.25
953.0935	2243.4509	18997.75	18107.05
953.2271	2244.921	18886.05	17995.65
953.3606	2246.3904	18840.9	17948.15
953.4941	2247.8591	18736.05	17847.15
953.6276	2249.3271	18750	17858.5
953.7611	2250.7943	18659.4	17769.55
953.8945	2252.2608	18554.9	17662.3
954.0279	2253.7266	18533.45	17641.75
954.1612	2255.1917	18470	17578.4
954.2946	2256.656	18391.7	17498.8
954.4279	2258.1197	18310.65	17420.15
954.5612	2259.5826	18283.6	17390.45
954.6944	2261.0447	18252.8	17360.35
954.8276	2262.5062	18135.7	17242.1
954.9608	2263.9669	18095.3	17200.8
955.094	2265.4269	18042.95	17152.4
955.2271	2266.8862	17999.8	17108.25
955.3602	2268.3448	17927.5	17034.95
955.4933	2269.8026	17885.75	16994.95
955.6264	2271.2598	17804.05	16912.1
955.7594	2272.7162	17763.5	16872.1
955.8924	2274.1719	17709.65	16818.8
956.0253	2275.6268	17625.8	16733.1
956.1583	2277.0811	17582.85	16690
956.2912	2278.5346	17540.6	16649.95
956.4241	2279.9874	17475.95	16583.85
956.5569	2281.4395	17472.55	16581.25
956.6897	2282.8908	17368.9	16474.15
956.8225	2284.3414	17315.05	16421.5
956.9553	2285.7914	17264.1	16374.1
957.088	2287.2406	17226	16333.4
957.2207	2288.689	17171.15	16280.8
957.3534	2290.1368	17066.45	16175.3
957.486	2291.5838	17034	16140.3
957.6186	2293.0302	17008.35	16115.05
957.7512	2294.4758	16912.45	16021.95
957.8838	2295.9206	16846.1	15953.5
958.0163	2297.3648	16796.2	15906.5
958.1488	2298.8082	16750.2	15858.75
958.2813	2300.251	16695.05	15805
958.4137	2301.693	16657.9	15765.25
958.5461	2303.1343	16643.25	15752.05
958.6785	2304.5748	16575.35	15685.2
958.8108	2306.0147	16479.25	15588.4
958.9432	2307.4538	16460.65	15566.8
959.0754	2308.8922	16378.8	15488.95
959.2077	2310.3299	16281.4	15390.15
959.3399	2311.7669	16252.95	15362.95
959.4721	2313.2031	16219.8	15327.85
959.6043	2314.6387	16122.45	15230.95
959.7365	2316.0735	16054.05	15165.2
959.8686	2317.5076	16055.75	15163.2
960.0006	2318.941	15981.95	15091.55
960.1327	2320.3737	15920.75	15031.5
960.2647	2321.8056	15876.85	14984.5
960.3967	2323.2369	15818.9	14925.4
960.5287	2324.6674	15775.3	14880.25
960.6606	2326.0972	15704.75	14812.1
960.7925	2327.5263	15631	14739.55
960.9244	2328.9547	15590.9	14699
961.0562	2330.3823	15569.05	14676.6
961.1881	2331.8092	15543.05	14648.35
961.3198	2333.2355	15435.9	14545.45
961.4516	2334.661	15406.5	14516.7
961.5833	2336.0858	15384.2	14489.9
961.715	2337.5098	15307.7	14415.4
961.8467	2338.9332	15303.25	14411.45
961.9783	2340.3558	15215.7	14321
962.1099	2341.7778	15200.5	14307.85
962.2415	2343.199	15103.75	14211.7
962.373	2344.6195	15050.1	14159.55
962.5045	2346.0393	15024.9	14133.4
962.636	2347.4583	14989.65	14097.85
962.7675	2348.8767	14927.8	14036.3
962.8989	2350.2943	14876.2	13985.2
963.0303	2351.7113	14829.55	13937.4
963.1617	2353.1275	14779.2	13887.4
963.293	2354.543	14749.35	13849.95
963.4243	2355.9578	14737.45	13845.25
963.5556	2357.3718	14588.35	13697.75
963.6868	2358.7852	14521.4	13627.3
963.818	2360.1978	14488.75	13598.35
963.9492	2361.6098	14474.4	13583.55
964.0803	2363.021	14398.85	13504.9
964.2114	2364.4315	14384.9	13494.7
964.3425	2365.8413	14293	13401.15
964.4736	2367.2504	14260.55	13369.55
964.6046	2368.6587	14159.8	13270.2
964.7356	2370.0664	14085.05	13194.7
964.8666	2371.4733	14046.45	13157.55
964.9975	2372.8795	14016.4	13125.75
965.1284	2374.285	13954.15	13063.85
965.2593	2375.6899	13890.95	13003.05
965.3901	2377.0939	13812.95	12923.5
965.5209	2378.4973	13734.3	12845.15
965.6517	2379.9	13727	12836.15
965.7825	2381.3019	13663.8	12774.1
965.9132	2382.7032	13602.25	12711.7
966.0439	2384.1037	13562.75	12673.25
966.1745	2385.5035	13517.05	12626.9
966.3051	2386.9027	13466.9	12577.45
966.4357	2388.3011	13424.45	12532
966.5663	2389.6987	13381.5	12491.35
966.6968	2391.0957	13331.75	12442.7
966.8273	2392.492	13253.15	12363.95
966.9578	2393.8876	13206.2	12316.7
967.0882	2395.2824	13151.6	12259.9
967.2186	2396.6765	13097.5	12207.55
967.349	2398.07	13039.55	12150.8
967.4793	2399.4627	13008.85	12117.45
967.6097	2400.8547	12960.6	12070.45
967.7399	2402.246	12878.55	11982.65
967.8702	2403.6366	12817.4	11925.4
968.0004	2405.0265	12758.35	11869.8
968.1306	2406.4156	12715.3	11822.2
968.2607	2407.8041	12674.3	11782.45
968.3909	2409.1918	12646.25	11753.35
968.521	2410.5789	12563.55	11673
968.651	2411.9652	12507.65	11613.95
968.781	2413.3508	12467.3	11579.15
968.911	2414.7358	12406.95	11516.95
969.041	2416.12	12361	11471.45
969.1709	2417.5035	12354.8	11464.25
969.3008	2418.8863	12295.6	11404.05
969.4307	2420.2684	12233.55	11342.45
969.5606	2421.6497	12189.6	11298.3
969.6904	2423.0304	12114.1	11224.15
969.8201	2424.4104	12095.6	11204.7
969.9499	2425.7896	12068.8	11174.85
970.0796	2427.1682	12027.3	11137.25
970.2093	2428.546	11968.25	11078.05
970.3389	2429.9232	11957.4	11066
970.4685	2431.2996	11910.2	11020.55
970.5981	2432.6753	11868.35	10976.6
970.7277	2434.0503	11845.4	10953.35
970.8572	2435.4246	11793.75	10903.1
970.9867	2436.7982	11757.35	10864
971.1161	2438.1711	11710.9	10822.15
971.2456	2439.5433	11661.3	10770.6
971.375	2440.9148	11590.25	10697.25
971.5043	2442.2856	11547.9	10657.35
971.6336	2443.6557	11505.55	10614.85
971.7629	2445.025	11466.05	10575.95
971.8922	2446.3937	11481.9	10591.5
972.0214	2447.7617	11421.55	10530.15
972.1506	2449.1289	11415.95	10525.3
972.2798	2450.4955	11349.55	10454.3
972.4089	2451.8613	11304.65	10412.35
972.538	2453.2265	11259.8	10370.55
972.6671	2454.5909	11272.6	10382.3
972.7961	2455.9546	11192.55	10302.45
972.9251	2457.3177	11142.55	10252.95
973.0541	2458.68	11121.75	10228.6
973.1831	2460.0416	11118.2	10226.7
973.312	2461.4025	11100.65	10209.25
973.4408	2462.7627	11064.25	10161.8
973.5697	2464.1222	11006.5	10116.55
973.6985	2465.4811	10981.45	10089.3
973.8273	2466.8392	10934.1	10042.1
973.956	2468.1966	10892.5	9999.2
974.0847	2469.5533	10907.75	10015.35
974.2134	2470.9093	10878.35	9985.85
974.3421	2472.2645	10825.8	9934.65
974.4707	2473.6191	10793.8	9903.9
974.5993	2474.973	10751	9859.8
974.7278	2476.3262	10701.6	9808.25
974.8563	2477.6787	10653.15	9762
974.9848	2479.0305	10612.15	9722
975.1132	2480.3816	10564.75	9673.15
975.2417	2481.7319	10539.35	9648.15
975.37	2483.0816	10498.7	9607.1
975.4984	2484.4306	10443.75	9554.3
975.6267	2485.7789	10415.6	9525.8
975.755	2487.1264	10345.65	9452.4
975.8833	2488.4733	10297.75	9406.7
976.0115	2489.8195	10277.8	9370.35
976.1397	2491.165	10255.25	9362.4
976.2678	2492.5097	10216.65	9325.05
976.3959	2493.8538	10147.6	9254.25
976.524	2495.1972	10098.9	9207.1
976.6521	2496.5398	10067.55	9175.35
976.7801	2497.8818	10027.1	9135.95
976.9081	2499.2231	9991.4	9101.55
977.036	2500.5637	9958.55	9067.85
977.164	2501.9035	9939.1	9048.15
977.2918	2503.2427	9905.4	9010.45
977.4197	2504.5812	9853.45	8963.25
977.5475	2505.919	9821.45	8929.55
977.6753	2507.256	9802.25	8910.85
977.8031	2508.5924	9773.6	8883.6
977.9308	2509.9281	9721.7	8826.2
978.0585	2511.2631	9677.85	8787.3
978.1861	2512.5974	9662.4	8771.85
978.3137	2513.9309	9606.4	8714.2
978.4413	2515.2638	9603.35	8679.35
978.5689	2516.596	9576.05	8684.4
978.6964	2517.9275	9494	8601.85
978.8239	2519.2583	9485.65	8592.95
978.9513	2520.5884	9453.5	8560.15
979.0788	2521.9178	9418.6	8527.55
979.2062	2523.2465	9360.15	8471.35
979.3335	2524.5745	9322.95	8433.2
979.4608	2525.9018	9327.45	8437
979.5881	2527.2284	9287.2	8398.05
979.7154	2528.5543	9262.1	8374.45
979.8426	2529.8796	9218.15	8327.25
979.9698	2531.2041	9198.95	8308.15
980.0969	2532.5279	9162.85	8273.45
980.224	2533.851	9142	8251.75
980.3511	2535.1735	9105.65	8215
980.4781	2536.4952	9096.4	8206.8
980.6052	2537.8163	9070.65	8181.85
980.7321	2539.1366	9041.85	8151.7
980.8591	2540.4562	9025.25	8133.15
980.986	2541.7752	8989	8097.65
981.1129	2543.0935	8998.75	8108.45
981.2397	2544.411	8974.8	8085.6
981.3665	2545.7279	8937.25	8047.2
981.4933	2547.0441	8894.8	8004.9
981.62	2548.3596	8890.6	7997.75
981.7467	2549.6744	8861.15	7969.35
981.8734	2550.9885	8835.75	7941.25
982.0001	2552.3019	8804.65	7915
982.1267	2553.6146	8789.55	7899.4
982.2532	2554.9266	8771.85	7881.8
982.3798	2556.2379	8742.15	7849.65
982.5063	2557.5485	8709.15	7817.85
982.6327	2558.8585	8676.35	7779.25
982.7592	2560.1677	8688.9	7791.85
982.8856	2561.4762	8642.1	7750.95
983.0119	2562.7841	8626.2	7734.05
983.1383	2564.0913	8603.05	7712.75
983.2646	2565.3977	8574.15	7681.6
983.3908	2566.7035	8537.45	7646.25
983.517	2568.0086	8534.85	7641.4
983.6432	2569.313	8521.4	7629.9
983.7694	2570.6167	8484.75	7589.95
983.8955	2571.9197	8483.5	7594.6
984.0216	2573.222	8460.65	7567.45
984.1476	2574.5236	8409.45	7519.05
984.2737	2575.8246	8402.75	7508.35
984.3996	2577.1248	8391.75	7498.1
984.5256	2578.4244	8373.35	7482.5
984.6515	2579.7232	8331.6	7442.1
984.7774	2581.0214	8331.8	7417.65
984.9032	2582.3189	8308.15	7418.45
985.029	2583.6157	8304.75	7410.7
985.1548	2584.9118	8272.95	7382.5
985.2806	2586.2072	8248.7	7357.75
985.4063	2587.5019	8212.85	7322.7
985.5319	2588.7959	8187.55	7296.8
985.6576	2590.0893	8194.15	7303.75
985.7832	2591.3819	8179.1	7287.45
985.9087	2592.6739	8120.9	7230.85
986.0343	2593.9652	8087.8	7194.65
986.1597	2595.2557	8080.15	7187.95
986.2852	2596.5456	8030.05	7138.75
986.4106	2597.8348	7985.4	7095.4
986.536	2599.1234	7953.45	7065.5
986.6614	2600.4112	7961.3	7069.85
986.7867	2601.6983	7917.8	7023.75
986.912	2602.9848	7913.65	7022.1
987.0372	2604.2705	7881.15	6981.8
987.1624	2605.5556	7861.9	6972.15
987.2876	2606.84	7842.3	6951.3
987.4128	2608.1237	7798.65	6907.75
987.5379	2609.4067	7773.45	6884.8
987.6629	2610.689	7752.45	6853.35
987.788	2611.9707	7711.65	6817.3
987.913	2613.2516	7683.75	6790.25
988.0379	2614.5319	7639.05	6747.7
988.1629	2615.8115	7617	6727.8
988.2878	2617.0903	7572.8	6678.7
988.4126	2618.3685	7549.6	6657.65
988.5375	2619.6461	7536.15	6646
988.6622	2620.9229	7495.1	6605.85
988.787	2622.199	7473.95	6581.85
988.9117	2623.4745	7458.9	6566.45
989.0364	2624.7493	7435.25	6545.5
989.161	2626.0234	7428.8	6538.3
989.2857	2627.2968	7398.65	6507.8
989.4102	2628.5695	7348.45	6456.15
989.5348	2629.8415	7327.45	6437.45
989.6593	2631.1128	7285.85	6391.9
989.7837	2632.3835	7247.5	6355.85
989.9082	2633.6535	7234.95	6343.5
990.0326	2634.9228	7220.05	6329.55
990.1569	2636.1914	7185.7	6295.3
990.2812	2637.4593	7174.85	6278
990.4055	2638.7265	7137.8	6245.65
990.5298	2639.9931	7101.3	6210.45
990.654	2641.259	7110.15	6217.05
990.7782	2642.5242	7090.15	6198.65
990.9023	2643.7887	7035.6	6145.35
991.0264	2645.0525	7020.8	6128.55
991.1505	2646.3156	6997	6103.85
991.2745	2647.5781	6974.55	6085.75
991.3985	2648.8398	6941.35	6051.5
991.5225	2650.1009	6925.7	6025.5
991.6464	2651.3613	6911.25	6019.05
991.7703	2652.6211	6878	5987.6
991.8942	2653.8801	6853.75	5963.65
992.018	2655.1385	6849.3	5955.15
992.1418	2656.3961	6842.6	5952.9
992.2655	2657.6531	6830.1	5941.25
992.3892	2658.9094	6801.1	5908.85
992.5129	2660.1651	6775.55	5883.1
992.6366	2661.42	6756.6	5864.65
992.7602	2662.6743	6749.9	5853.75
992.8837	2663.9279	6727.35	5837.85
993.0073	2665.1808	6700.95	5810.3
993.1307	2666.433	6704.25	5811.9
993.2542	2667.6846	6662.95	5771.05
993.3776	2668.9354	6653.45	5757.1
993.501	2670.1856	6611.95	5720
993.6244	2671.4351	6632.1	5740.65
993.7477	2672.6839	6611.85	5721.3
993.8709	2673.9321	6572.65	5682.35
993.9942	2675.1795	6554.2	5661.6
994.1174	2676.4263	6544.4	5653.15
994.2405	2677.6724	6517.6	5625.4
994.3637	2678.9179	6520.75	5629.4
994.4868	2680.1626	6485	5595.2
994.6098	2681.4067	6465.4	5573.9
994.7328	2682.6501	6450.75	5561.1
994.8558	2683.8928	6413.85	5522.9
994.9788	2685.1348	6391.5	5501.65
995.1017	2686.3761	6392.3	5502.3
995.2245	2687.6168	6358.4	5467.25
995.3474	2688.8568	6339.65	5451.05
995.4702	2690.0961	6300.1	5411.2
995.5929	2691.3348	6283.2	5388.8
995.7156	2692.5727	6270.8	5378.75
995.8383	2693.81	6246	5355
995.961	2695.0466	6234.65	5345.15
996.0836	2696.2826	6214.55	5321.15
996.2062	2697.5178	6192.3	5299.3
996.3287	2698.7524	6166.75	5275.5
996.4512	2699.9863	6173.2	5278.25
996.5737	2701.2195	6143.55	5252.5
996.6961	2702.452	6110.15	5218.95
996.8185	2703.6839	6102.25	5207.9
996.9408	2704.9151	6083.4	5193.75
997.0631	2706.1456	6067.35	5173.8
997.1854	2707.3755	6050.6	5159.6
997.3077	2708.6046	6048.15	5153.65
997.4299	2709.8331	6013.75	5121.4
997.552	2711.0609	6012.9	5120.7
997.6742	2712.2881	6008.45	5119.15
997.7963	2713.5145	5976.6	5083.2
997.9183	2714.7403	5976.05	5085
998.0403	2715.9654	5957.95	5065.95
998.1623	2717.1899	5958	5051.9
998.2842	2718.4136	5941.3	5050.7
998.4062	2719.6367	5936.6	5045.45
998.528	2720.8591	5921.3	5023.95
998.6498	2722.0809	5899.35	5007.95
998.7716	2723.3019	5900.45	5008.2
998.8934	2724.5223	5863.3	4969.8
999.0151	2725.7421	5850.05	4957.45
999.1368	2726.9611	5857.7	4966.25
999.2584	2728.1795	5845.65	4950
999.38	2729.3972	5793.1	4902.15
999.5016	2730.6142	5777.7	4879.4
999.6231	2731.8306	5746.65	4856.25
999.7446	2733.0462	5712.7	4818.5
999.8661	2734.2612	5683.35	4788.15
999.9875	2735.4756	5631.65	4741.1
1000.1089	2736.6892	5592.45	4700.5
1000.2302	2737.9022	5583.5	4693.55
1000.3515	2739.1145	5538.95	4648.6
1000.4728	2740.3262	5514.7	4615.05
1000.594	2741.5372	5468.05	4577.75
1000.7152	2742.7475	5450.05	4558.65
1000.8363	2743.9571	5430.2	4537.7
1000.9575	2745.1661	5397.75	4501.7
1001.0785	2746.3744	5385.1	4494.5
1001.1996	2747.582	5349.45	4458.3
1001.3206	2748.7889	5327.2	4435.45
1001.4415	2749.9952	5323.85	4433.05
1001.5625	2751.2008	5281.1	4388.55
1001.6833	2752.4057	5298.95	4403.7
1001.8042	2753.61	5255.15	4362.55
1001.925	2754.8136	5242.5	4348.55
1002.0458	2756.0165	5214.7	4325
1002.1665	2757.2188	5209.45	4320.75
1002.2872	2758.4204	5186.7	4295.9
1002.4078	2759.6213	5166.45	4274.4
1002.5285	2760.8215	5148.05	4251.45
1002.649	2762.0211	5141.7	4247.6
1002.7696	2763.22	5133.1	4238.25
1002.8901	2764.4182	5113.05	4220.3
1003.0106	2765.6158	5086.35	4194.9
1003.131	2766.8127	5080.85	4192
1003.2514	2768.009	5052.45	4162.8
1003.3717	2769.2045	5045.05	4154.85
1003.492	2770.3994	5040.4	4146.2
1003.6123	2771.5936	5003	4108.65
1003.7325	2772.7872	4978.15	4089.45
1003.8527	2773.9801	4962.45	4069.95
1003.9729	2775.1723	4966.75	4057.6
1004.093	2776.3639	4931.75	4041.75
1004.2131	2777.5548	4900	4005.8
1004.3331	2778.745	4883.6	3992.6
1004.4531	2779.9346	4888.55	3996.45
1004.5731	2781.1235	4879.25	3987.3
1004.693	2782.3117	4861.6	3970.8
1004.8129	2783.4992	4852	3960.4
1004.9328	2784.6861	4851.9	3961.5
1005.0526	2785.8723	4846.45	3952.65
1005.1723	2787.0579	4842.35	3950.55
1005.2921	2788.2428	4826	3935.15
1005.4118	2789.427	4819.4	3929.95
1005.5314	2790.6106	4809.95	3920.35
1005.651	2791.7935	4798.3	3904.7
1005.7706	2792.9757	4789.9	3899.45
1005.8902	2794.1573	4772.8	3880.65
1006.0097	2795.3382	4784.2	3893.4
1006.1291	2796.5184	4787.55	3899.6
1006.2485	2797.698	4781.55	3888.25
1006.3679	2798.8769	4791.25	3901.35
1006.4873	2800.0551	4785.7	3893.55
1006.6066	2801.2327	4782.35	3889.6
1006.7258	2802.4096	4775.4	3884.95
1006.8451	2803.5859	4781.3	3889.4
1006.9642	2804.7615	4802.75	3910.4
1007.0834	2805.9364	4812.55	3922.85
1007.2025	2807.1106	4819.6	3929.25
1007.3216	2808.2842	4843.1	3951.65
1007.4406	2809.4572	4871.2	3979.75
1007.5596	2810.6294	4857.5	3965.45
1007.6785	2811.801	4911.7	4020
1007.7975	2812.972	4937.8	4046.2
1007.9163	2814.1423	4962.35	4072.05
1008.0352	2815.3119	4998.2	4107.35
1008.154	2816.4808	5041.55	4151.4
1008.2727	2817.6491	5074.65	4184.15
1008.3914	2818.8167	5091.75	4202.2
1008.5101	2819.9837	5134.45	4237.55
1008.6288	2821.15	5179.25	4287.45
1008.7474	2822.3157	5195.25	4305.1
1008.8659	2823.4807	5243.5	4353.1
1008.9844	2824.645	5280.45	4386.4
1009.1029	2825.8086	5302.85	4415
1009.2214	2826.9716	5337.15	4449.8
1009.3398	2828.134	5359.5	4469.45
1009.4581	2829.2957	5395.25	4503.45
1009.5764	2830.4567	5402.35	4512
1009.6947	2831.617	5413.9	4520.8
1009.813	2832.7767	5422	4531.6
1009.9312	2833.9358	5427.6	4537.85
1010.0493	2835.0941	5407.75	4516.05
1010.1675	2836.2519	5390.55	4497.95
1010.2855	2837.4089	5375.35	4485.15
1010.4036	2838.5653	5337.45	4447.95
1010.5216	2839.7211	5332	4441.6
1010.6396	2840.8761	5332.75	4441.55
1010.7575	2842.0306	5349.25	4458.6
1010.8754	2843.1843	5391	4500.8
1010.9932	2844.3374	5418.2	4527.85
1011.111	2845.4899	5457.25	4565.25
1011.2288	2846.6417	5535.9	4645.3
1011.3465	2847.7928	5611.65	4721.3
1011.4642	2848.9433	5680.8	4790.05
1011.5818	2850.0931	5741.55	4851.05
1011.6995	2851.2422	5809.45	4915.8
1011.817	2852.3907	5858.75	4967.1
1011.9345	2853.5385	5922.85	5031.5
1012.052	2854.6857	6007.15	5088.8
1012.1695	2855.8323	6006.05	5115.4
1012.2869	2856.9781	6047.15	5156.3
1012.4042	2858.1233	6087.15	5198.2
1012.5216	2859.2679	6117.6	5225.6
1012.6389	2860.4118	6168.25	5276.75
1012.7561	2861.555	6180.55	5284.8
1012.8733	2862.6976	6184.75	5292.25
1012.9905	2863.8395	6211.45	5321.65
1013.1076	2864.9808	6241.6	5350.5
1013.2247	2866.1214	6232.8	5344.95
1013.3417	2867.2614	6260.45	5371.2
1013.4587	2868.4007	6250.9	5358
1013.5757	2869.5393	6232.75	5340
1013.6926	2870.6773	6229.95	5337.25
1013.8095	2871.8146	6248.85	5352.7
1013.9263	2872.9513	6237.2	5344.8
1014.0431	2874.0874	6214.15	5322.95
1014.1599	2875.2227	6195.6	5306.05
1014.2766	2876.3574	6172.8	5280.95
1014.3933	2877.4915	6130.85	5241.3
1014.51	2878.6249	6097.5	5207.6
1014.6266	2879.7577	6062.8	5169.05
1014.7431	2880.8898	6025.5	5123.4
1014.8596	2882.0212	5998.5	5107.15
1014.9761	2883.152	5971.5	5079.6
1015.0925	2884.2821	5946.45	5058.15
1015.2089	2885.4116	5921.1	5030.7
1015.3253	2886.5405	5909.6	5020
1015.4416	2887.6686	5919.3	5024.9
1015.5579	2888.7962	5903.2	5014.95
1015.6741	2889.923	5900.9	5011.85
1015.7903	2891.0493	5898.4	5010.05
1015.9065	2892.1748	5902.05	5012.5
1016.0226	2893.2997	5903.5	5011.45
1016.1387	2894.424	5899.15	5007.6
1016.2547	2895.5476	5924.05	5034.5
1016.3707	2896.6706	5948.6	5059
1016.4866	2897.7929	5954.5	5064.55
1016.6025	2898.9145	5959.1	5067
1016.7184	2900.0355	5992.35	5099.6
1016.8342	2901.1559	5996.25	5105.3
1016.95	2902.2756	6040.5	5151.8
1017.0658	2903.3946	6056.6	5166.05
1017.1815	2904.513	6085.7	5193.45
1017.2971	2905.6308	6089.95	5200.5
1017.4127	2906.7479	6106.3	5215.55
1017.5283	2907.8643	6111.25	5218.85
1017.6439	2908.9801	6118.9	5228.65
1017.7594	2910.0953	6105.9	5214.8
1017.8748	2911.2098	6093.15	5197.55
1017.9902	2912.3236	6100.7	5201.95
1018.1056	2913.4368	6064.1	5173.3
1018.2209	2914.5494	6028.35	5136.95
1018.3362	2915.6613	5978.85	5083.25
1018.4515	2916.7725	5944.7	5051.4
1018.5667	2917.8831	5916.25	5024.7
1018.6819	2918.9931	5890.1	4996.75
1018.797	2920.1024	5838.9	4944.35
1018.9121	2921.211	5816.15	4925.75
1019.0271	2922.319	5807.35	4915.15
1019.1421	2923.4264	5777.85	4886.85
1019.2571	2924.5331	5749.65	4860.05
1019.372	2925.6391	5713	4821.5
1019.4869	2926.7445	5720.8	4832
1019.6017	2927.8493	5676.8	4786.95
1019.7165	2928.9534	5683.25	4793.5
1019.8313	2930.0569	5663	4769.8
1019.946	2931.1597	5640.4	4748.1
1020.0606	2932.2619	5622.05	4733.35
1020.1753	2933.3634	5622.55	4732.2
1020.2899	2934.4643	5572.05	4674.9
1020.4044	2935.5645	5565.55	4668.9
1020.5189	2936.6641	5531.85	4636.05
1020.6334	2937.763	5461	4573.2
1020.7478	2938.8613	5402.9	4511.8
1020.8622	2939.959	5328.5	4434.1
1020.9765	2941.056	5261.2	4372
1021.0908	2942.1523	5148.05	4255.55
1021.2051	2943.248	5072.2	4182.65
1021.3193	2944.3431	4954.95	4062.9
1021.4334	2945.4375	4863.1	3970.7
1021.5476	2946.5313	4749.4	3861.15
1021.6617	2947.6244	4633.35	3743.35
1021.7757	2948.7169	4524	3634.3
1021.8897	2949.8087	4411.05	3519.15
1022.0037	2950.8999	4317.95	3426.65
1022.1176	2951.9904	4219.9	3329.2
1022.2315	2953.0803	4138.6	3246.15
1022.3453	2954.1696	4072.95	3182.35
1022.4591	2955.2582	4010	3119.05
1022.5728	2956.3462	3970.15	3079.3
1022.6865	2957.4335	3917.15	3026.9
1022.8002	2958.5202	3857.4	2963.7
1022.9138	2959.6062	3817.6	2927.6
1023.0274	2960.6916	3799.8	2909.25
1023.141	2961.7764	3771	2879.55
1023.2545	2962.8605	3742.7	2851
1023.3679	2963.9439	3729	2836.55
1023.4813	2965.0267	3703.85	2811.2
1023.5947	2966.1089	3712.1	2796.6
1023.708	2967.1905	3676.95	2782.65
1023.8213	2968.2714	3668.1	2778.95
1023.9346	2969.3516	3660.55	2769.15
1024.0478	2970.4312	3646.65	2750.45
1024.1609	2971.5102	3649.85	2758.95
1024.274	2972.5885	3624.35	2734.65
1024.3871	2973.6662	3632.45	2738.7
1024.5002	2974.7432	3623.25	2731.95
1024.6132	2975.8196	3596.55	2705.5
1024.7261	2976.8954	3579.4	2688.85
1024.839	2977.9705	3564.8	2674.4
1024.9519	2979.045	3528.55	2639.15
1025.0647	2980.1188	3516.95	2627.55
1025.1775	2981.192	3482.05	2592.15
1025.2902	2982.2645	3464.15	2572.4
1025.4029	2983.3364	3425.2	2533.6
1025.5156	2984.4077	3395.8	2505.3
1025.6282	2985.4783	3354.7	2458.15
1025.7407	2986.5483	3326.25	2437.75
1025.8532	2987.6177	3296.55	2408.65
1025.9657	2988.6864	3242.35	2352.25
1026.0782	2989.7545	3208.75	2317.75
1026.1906	2990.8219	3165	2277.2
1026.3029	2991.8887	3128.3	2235.75
1026.4152	2992.9548	3094.55	2204.25
1026.5275	2994.0204	3048.25	2158.75
1026.6397	2995.0852	3021.15	2132.4
1026.7519	2996.1495	2986.35	2094.55
1026.864	2997.2131	2954.6	2063.45
1026.9761	2998.276	2927.2	2039.05
1027.0882	2999.3383	2918.35	2028.2
1027.2002	3000.4	2885.5	1994.85
1027.3122	3001.4611	2858.8	1967.75
1027.4241	3002.5215	2843.45	1951.85
1027.536	3003.5812	2809.8	1919.4
1027.6478	3004.6404	2812.2	1922.25
1027.7596	3005.6989	2787	1895.6
1027.8714	3006.7567	2776.8	1885.9
1027.9831	3007.8139	2780.95	1868.65
1028.0947	3008.8705	2749.45	1858.7
1028.2064	3009.9264	2730.35	1837.9
1028.3179	3010.9818	2728.5	1838.6
1028.4295	3012.0364	2723.2	1832.9
1028.541	3013.0905	2720.2	1828.25
1028.6524	3014.1439	2705.25	1816.45
1028.7638	3015.1966	2687	1796.9
1028.8752	3016.2487	2689.75	1799.8
1028.9865	3017.3002	2688.7	1789.95
1029.0978	3018.3511	2672.85	1783.8
1029.209	3019.4013	2668.15	1778.65
1029.3202	3020.4509	2674.4	1784.4
1029.4314	3021.4998	2667.15	1776.8
1029.5425	3022.5481	2655.65	1764.9
1029.6535	3023.5958	2651.55	1762.4
1029.7645	3024.6428	2636.4	1744.5
1029.8755	3025.6892	2647.8	1756
1029.9864	3026.735	2639.75	1750.85
1030.0973	3027.7802	2637.9	1746.25
1030.2082	3028.8247	2628.25	1737.1
1030.319	3029.8685	2631	1737.6
1030.4297	3030.9118	2631.2	1741
1030.5404	3031.9544	2629.75	1740.9
1030.6511	3032.9963	2627.6	1737.85
1030.7617	3034.0376	2610.3	1719.4
1030.8723	3035.0783	2620.75	1729.15
1030.9829	3036.1184	2615.25	1724.4
1031.0934	3037.1578	2606.5	1715.85
1031.2038	3038.1966	2606.6	1715.1
1031.3142	3039.2348	2599.95	1708.8
1031.4246	3040.2723	2609.05	1708.9
1031.5349	3041.3092	2589.1	1698.95
1031.6452	3042.3455	2593.9	1703.65
1031.7554	3043.3811	2579.25	1688.3
1031.8656	3044.4161	2560.65	1672.1
1031.9758	3045.4505	2562.1	1673.9
1032.0859	3046.4842	2545.7	1655.95
1032.1959	3047.5173	2534.2	1644.7
1032.3059	3048.5498	2522.65	1630.3
1032.4159	3049.5816	2504.75	1614.45
1032.5258	3050.6128	2511.45	1619.7
1032.6357	3051.6434	2500.75	1608.95
1032.7455	3052.6734	2488.75	1597.9
1032.8553	3053.7027	2474.95	1584.85
1032.9651	3054.7314	2465.8	1578.7
1033.0748	3055.7594	2448.25	1559.2
1033.1845	3056.7868	2447.85	1556.35
1033.2941	3057.8136	2432.85	1542.85
1033.4037	3058.8398	2409.1	1518.6
1033.5132	3059.8653	2408.6	1518.9
1033.6227	3060.8902	2401	1511.35
1033.7321	3061.9145	2388.55	1498.75
1033.8415	3062.9381	2374.35	1483.6
1033.9509	3063.9612	2381.05	1474.75
1034.0602	3064.9835	2370.65	1479.3
1034.1694	3066.0053	2344.9	1452.15
1034.2787	3067.0264	2331.65	1442.4
1034.3878	3068.0469	2315.55	1426.55
1034.497	3069.0668	2312.85	1420.95
1034.6061	3070.086	2296.05	1406.45
1034.7151	3071.1046	2283.95	1394.15
1034.8241	3072.1226	2273.35	1382.6
1034.9331	3073.1399	2258.35	1369.05
1035.042	3074.1567	2249.35	1359.3
1035.1508	3075.1727	2230.55	1338.1
1035.2597	3076.1882	2220.4	1331.7
1035.3684	3077.203	2200.3	1310.35
1035.4772	3078.2173	2189.3	1297.95
1035.5859	3079.2308	2185.15	1291.6
1035.6945	3080.2438	2158.3	1265.25
1035.8031	3081.2561	2147.85	1258.7
1035.9117	3082.2678	2144.65	1257.05
1036.0202	3083.2789	2138.7	1248.4
1036.1286	3084.2893	2131.95	1240.9
1036.2371	3085.2991	2112.4	1220
1036.3454	3086.3083	2109.7	1213.35
1036.4538	3087.3169	2092.7	1200
1036.562	3088.3248	2085.75	1193.9
1036.6703	3089.3321	2083.2	1191.2
1036.7785	3090.3388	2078.55	1187.8
1036.8866	3091.3449	2065.05	1174.7
1036.9948	3092.3503	2064.8	1174.15
1037.1028	3093.3551	2041.75	1152.9
1037.2108	3094.3593	2048.35	1159.95
1037.3188	3095.3629	2036.2	1147.55
1037.4267	3096.3658	2015.9	1124.75
1037.5346	3097.3681	2012.4	1121.1
1037.6425	3098.3698	2022.85	1130.9
1037.7503	3099.3708	2008.8	1111.35
1037.858	3100.3713	1996.7	1107.85
1037.9657	3101.3711	1979.35	1090.6
1038.0734	3102.3702	2082.55	1080.4
1038.181	3103.3688	1982.9	1091.3
1038.2886	3104.3667	1963.2	1074.95
1038.3961	3105.364	1957.8	1067.95
1038.5036	3106.3607	1952.05	1061.1
1038.611	3107.3568	1934.1	1043.85
1038.7184	3108.3522	1932.2	1042
1038.8257	3109.347	1935.35	1044.55
1038.933	3110.3412	1933.1	1040.9
1039.0403	3111.3348	1921.45	1031.55
1039.1475	3112.3277	1909.5	1020.45
1039.2547	3113.32	1909.6	1019.7
1039.3618	3114.3117	1906.6	1015.75
1039.4689	3115.3028	1897	1008.6
1039.5759	3116.2932	1889.45	996.5
1039.6829	3117.2831	1897.1	1004.65
1039.7898	3118.2723	1869.35	979.25
1039.8967	3119.2608	1868.95	980.2
1040.0035	3120.2488	1869.1	980.6
1040.1103	3121.2361	1858.45	967.45
1040.2171	3122.2229	1858.05	969.55
1040.3238	3123.209	1854	963.6
1040.4305	3124.1944	1845.25	955.45
1040.5371	3125.1793	1843.55	953.1
1040.6437	3126.1635	1834.55	942.8
1040.7502	3127.1471	1829.15	938.3
1040.8567	3128.1301	1823.45	933.4
1040.9631	3129.1125	1813.6	924.6
1041.0695	3130.0942	1815	925.95
1041.1759	3131.0753	1823	924.2
1041.2822	3132.0558	1803.8	912.25
1041.3884	3133.0357	1804.25	913.65
1041.4946	3134.015	1806.25	914.65
1041.6008	3134.9936	1793.65	904
1041.7069	3135.9716	1797.8	888.4
1041.813	3136.949	1782.05	892.1
1041.919	3137.9258	1785.7	888.25
1042.025	3138.902	1782.55	887.55
1042.1309	3139.8775	1769.3	881
1042.2368	3140.8524	1763.3	872.7
1042.3427	3141.8267	1762.5	873.05
1042.4485	3142.8004	1760.75	870.65
1042.5542	3143.7735	1752.8	857
1042.6599	3144.7459	1756.1	863.55
1042.7656	3145.7178	1750.9	857.7
1042.8712	3146.689	1739.2	849.95
1042.9768	3147.6596	1737.75	847.25
1043.0823	3148.6295	1729.25	839.95
1043.1878	3149.5989	1720.1	830.5
1043.2932	3150.5676	1718.35	828.55
1043.3986	3151.5357	1722.15	833.85
1043.5039	3152.5032	1706.3	818.85
1043.6092	3153.4701	1704.35	814.35
1043.7145	3154.4364	1711.45	817.35
1043.8197	3155.402	1697	807.8
1043.9248	3156.367	1693.1	802.9
1044.03	3157.3315	1724.9	792.1
1044.135	3158.2952	1687.8	796.5
1044.24	3159.2584	1673.25	785.75
1044.345	3160.221	1678.75	788.85
1044.4499	3161.1829	1672.1	781.6
1044.5548	3162.1442	1658.2	768.3
1044.6596	3163.105	1664.4	774.6
1044.7644	3164.065	1662.3	772.3
1044.8692	3165.0245	1650.9	757.55
1044.9739	3165.9834	1647.85	760.1
1045.0785	3166.9416	1641.1	752.15
1045.1831	3167.8993	1641.25	750.25
1045.2877	3168.8563	1627.9	737.1
1045.3922	3169.8127	1628.3	738.3
1045.4966	3170.7684	1619	729.95
1045.6011	3171.7236	1624.95	734.2
1045.7054	3172.6782	1622.85	732.55
1045.8098	3173.6321	1617.95	727.4
1045.914	3174.5854	1608.35	712.3
1046.0183	3175.5381	1598.95	707.15
1046.1224	3176.4902	1597.4	708.9
1046.2266	3177.4417	1594.85	704.8
1046.3307	3178.3926	1584.65	695.55
1046.4347	3179.3428	1588.55	699.2
1046.5387	3180.2924	1584.5	694.5
1046.6427	3181.2415	1581.3	690.25
1046.7466	3182.1899	1581.7	690.7
1046.8504	3183.1377	1575.7	686.2
1046.9542	3184.0848	1576.1	684.1
1047.058	3185.0314	1569.55	679.5
1047.1617	3185.9773	1560.05	669.5
1047.2654	3186.9227	1562.7	673.5
1047.369	3187.8674	1557.4	667.45
1047.4726	3188.8115	1557.45	663.55
1047.5761	3189.755	1548.95	659
1047.6796	3190.6979	1542	652.4
1047.783	3191.6402	1535.05	648.05
1047.8864	3192.5818	1526.5	638.35
1047.9898	3193.5229	1550.55	648.9
1048.0931	3194.4633	1537.45	647.7
1048.1963	3195.4031	1525	635.4
1048.2995	3196.3423	1527.5	637.6
1048.4027	3197.2809	1518.85	628.55
1048.5058	3198.2189	1520	629.9
1048.6089	3199.1563	1527.6	631.5
1048.7119	3200.0931	1510.4	621.35
1048.8148	3201.0292	1506.4	617.85
1048.9178	3201.9648	1497.7	607.7
1049.0206	3202.8997	1503.3	612
1049.1235	3203.834	1495.45	605.05
1049.2262	3204.7677	1497.5	609
1049.329	3205.7008	1493.7	601.6
1049.4317	3206.6333	1488.25	599.15
1049.5343	3207.5652	1497.8	605.45
1049.6369	3208.4964	1483.6	594.9
1049.7394	3209.4271	1488.05	600.95
1049.8419	3210.3571	1480.4	591.1
1049.9444	3211.2865	1470.35	580.45
1050.0468	3212.2154	1475.9	585.3
1050.1491	3213.1436	1476	583.45
1050.2514	3214.0712	1482.4	585.2
1050.3537	3214.9982	1469.5	581.15
1050.4559	3215.9246	1460	570.35
1050.5581	3216.8503	1460.4	572.05
1050.6602	3217.7755	1453.1	562.35
1050.7623	3218.7001	1453.1	564
1050.8643	3219.624	1449.5	561
1050.9663	3220.5473	1445.85	556.45
1051.0682	3221.4701	1444.15	553.15
1051.1701	3222.3922	1447.15	555.65
1051.2719	3223.3137	1438.75	549.15
1051.3737	3224.2346	1434.8	546.3
1051.4754	3225.1549	1428.7	539.1
1051.5771	3226.0746	1433.5	544.15
1051.6788	3226.9937	1425.25	533.95
1051.7804	3227.9121	1422.2	533.2
1051.8819	3228.83	1423.5	535.45
1051.9834	3229.7473	1419.75	531.7
1052.0849	3230.6639	1415.15	525.4
1052.1863	3231.5799	1408.65	519.65
1052.2876	3232.4954	1412.1	519.8
1052.3889	3233.4102	1404.2	515.3
1052.4902	3234.3244	1404.15	513.25
1052.5914	3235.238	1402.6	515.05
1052.6926	3236.151	1423.3	512.15
1052.7937	3237.0634	1394.2	504.65
1052.8948	3237.9752	1390	501.25
1052.9958	3238.8864	1388.95	498.9
1053.0968	3239.797	1387.25	498.65
1053.1977	3240.7069	1385.3	494.25
1053.2986	3241.6163	1377.8	487.55
1053.3994	3242.5251	1381.5	493.2
1053.5002	3243.4332	1366.9	477.75
1053.6009	3244.3408	1372.3	481.95
1053.7016	3245.2477	1373.4	483.5
1053.8022	3246.154	1370.2	481.45
1053.9028	3247.0598	1357.1	466.75
1054.0034	3247.9649	1355.45	467.6
1054.1039	3248.8694	1354.9	467.4
1054.2043	3249.7733	1363.65	475.2
1054.3047	3250.6766	1358.65	467.4
1054.4051	3251.5793	1346.15	455.9
1054.5054	3252.4814	1351.3	462.3
1054.6056	3253.3829	1338.1	447.8
1054.7058	3254.2838	1338.75	450.55
1054.806	3255.1841	1335.1	445.8
1054.9061	3256.0838	1334.6	445.5
1055.0061	3256.9829	1329.85	440.45
1055.1062	3257.8814	1327.85	436.95
1055.2061	3258.7792	1323.9	432.25
1055.306	3259.6765	1312.35	421.05
1055.4059	3260.5731	1312.8	424.6
1055.5057	3261.4692	1307.7	417.8
1055.6055	3262.3647	1302.45	411.6
1055.7052	3263.2595	1289.15	399.9
1055.8049	3264.1538	1292.25	402.9
1055.9045	3265.0474	1291.35	401.1
1056.0041	3265.9404	1279.25	390.45
1056.1036	3266.8329	1267.9	379.45
1056.2031	3267.7247	1271.25	372.5
1056.3025	3268.616	1257.75	369
1056.4019	3269.5066	1243.5	354.85
1056.5013	3270.3966	1241.6	349.8
1056.6005	3271.286	1227.75	340.1
