Software Version:	3.9.2.0
Unit SN:	10000200
Spectrometer SN:	6960
Date:	3/6/2024 11:05:10 AM
Data Line Index:	25
Spectral Points:	2048
Integration time (ms):	125
Averages:	20
Delay (ms):	30
Sequence Number:	1
Processing:	dark subtract
Laser Power (mW):	305
Laser Current (mA):	821
Laser Diode Temp (C):	25.1
Laser Case Temp (C):	28.4
System Temp (C):	28.2
Spectrometer Temp (C):	25.7
CCD Temp (C):	0.007
Secondary Temp (C):	20.003
Heatsink Temp (C):	24.007
CCDPCB Temp (C):	37.407
SecondaryPCB Temp (C):	34.995

Wavelength	RamanShift	Raw Counts	Dark Subtracted
787.061	30.1047	1167.25	753.55
787.2016	32.3739	1197.3	785.95
787.3422	34.6426	1245.65	832.7
787.4828	36.9109	1297.75	881.45
787.6235	39.1787	1355.55	936.9
787.7642	41.4461	1413.95	990.6
787.9049	43.7131	1486.8	1060.8
788.0456	45.9796	1560.55	1127.7
788.1863	48.2456	1619	1184.35
788.3271	50.5112	1696.8	1258.35
788.4679	52.7764	1777.75	1338.35
788.6087	55.0411	1863.35	1417.95
788.7496	57.3054	1948.05	1498.35
788.8904	59.5692	2040.1	1585.7
789.0313	61.8326	2145.4	1688.55
789.1722	64.0955	2265.95	1805
789.3132	66.3579	2395.1	1929.25
789.4541	68.6199	2561.85	2094.75
789.5951	70.8815	2818.35	2347.4
789.7361	73.1426	3344.95	2868.6
789.8771	75.4032	4691.35	4210.35
790.0181	77.6634	8105.95	7620.15
790.1592	79.9231	17260.8	16770.75
790.3003	82.1824	57033.5	56535.3
790.4414	84.4412	65535	65021.25
790.5825	86.6995	65535	65000.65
790.7237	88.9574	65535	64982.4
790.8648	91.2148	65535	64967.9
791.006	93.4717	65535	64958.25
791.1472	95.7282	65535	64950.95
791.2885	97.9842	65535	64950.2
791.4297	100.2398	65535	64948.5
791.571	102.4949	65535	64944.95
791.7123	104.7495	65535	64939.65
791.8536	107.0036	65535	64937.35
791.9949	109.2573	65535	64941.7
792.1363	111.5105	65535	64936
792.2777	113.7632	65535	64935.5
792.4191	116.0154	65535	64927.1
792.5605	118.2672	65535	64934.5
792.7019	120.5185	65535	64932.5
792.8434	122.7693	65535	64928.7
792.9849	125.0197	65535	64924.3
793.1264	127.2696	65535	64922.35
793.2679	129.519	65535	64919.15
793.4094	131.7679	65535	64915.6
793.551	134.0163	65535	64909.95
793.6926	136.2642	65535	64906.05
793.8342	138.5117	65535	64900.1
793.9758	140.7587	65535	64906.35
794.1175	143.0052	65535	64901.65
794.2591	145.2512	65535	64902.5
794.4008	147.4967	65535	64902.05
794.5425	149.7417	65535	64898.6
794.6842	151.9863	65535	64897
794.826	154.2304	65535	64893.75
794.9677	156.4739	65535	64886.2
795.1095	158.717	65535	64886.7
795.2513	160.9596	65535	64880.85
795.3931	163.2017	65535	64879.65
795.535	165.4433	65535	64877.7
795.6768	167.6844	65535	64874.9
795.8187	169.925	65535	64871.4
795.9606	172.1651	65535	64870.95
796.1025	174.4047	65535	64865.55
796.2445	176.6439	65535	64862.45
796.3864	178.8825	65535	64860.7
796.5284	181.1206	65535	64856.05
796.6704	183.3582	65535	64856.2
796.8124	185.5954	65535	64854.3
796.9544	187.832	65535	64847.8
797.0965	190.0681	65535	64846.3
797.2386	192.3037	65535	64843.5
797.3806	194.5388	65535	64841
797.5228	196.7734	65535	64838.45
797.6649	199.0075	65535	64836.9
797.807	201.2411	65535	64830.5
797.9492	203.4742	65535	64830.05
798.0914	205.7068	65535	64832
798.2336	207.9389	65535	64825.45
798.3758	210.1704	65535	64827.2
798.518	212.4015	65535	64827.05
798.6603	214.632	65535	64827.9
798.8025	216.862	65535	64836.6
798.9448	219.0915	65535	64842.5
799.0871	221.3205	65535	64845.15
799.2294	223.549	65535	64849.2
799.3718	225.777	65535	64846.1
799.5141	228.0044	65535	64841.05
799.6565	230.2314	65535	64844.2
799.7989	232.4578	65535	64841.1
799.9413	234.6837	65535	64832.8
800.0837	236.909	65535	64833.6
800.2262	239.1339	65535	64812.45
800.3687	241.3582	65535	64820.1
800.5111	243.582	65535	64794.45
800.6536	245.8053	65535	64806.6
800.7961	248.0281	65535	64808.9
800.9387	250.2503	65535	64807.1
801.0812	252.472	65535	64801.5
801.2238	254.6932	65535	64798.55
801.3664	256.9139	65535	64797.85
801.509	259.134	65535	64793.75
801.6516	261.3536	65535	64797.9
801.7942	263.5727	65535	64792.7
801.9369	265.7912	65535	64797.4
802.0795	268.0092	65535	64795.1
802.2222	270.2267	65535	64792.4
802.3649	272.4436	65535	64792.05
802.5076	274.6601	65535	64783.4
802.6504	276.8759	65535	64790.65
802.7931	279.0913	65535	64785.15
802.9359	281.3061	65535	64787.9
803.0787	283.5204	65535	64783.2
803.2215	285.7341	65535	64778.35
803.3643	287.9473	65535	64767.95
803.5071	290.16	65535	64773
803.6499	292.3721	65535	64782.25
803.7928	294.5837	65535	64777.15
803.9357	296.7947	65535	64776.45
804.0786	299.0052	65535	64778.15
804.2215	301.2152	65535	64776.85
804.3644	303.4246	65535	64779.1
804.5074	305.6334	65535	64777.85
804.6503	307.8418	65535	64774.8
804.7933	310.0495	65535	64775.2
804.9363	312.2568	65535	64774.25
805.0793	314.4635	65535	64770.7
805.2223	316.6696	65535	64770.5
805.3653	318.8752	65535	64765
805.5084	321.0802	65535	64769.2
805.6514	323.2847	65535	64763.9
805.7945	325.4887	65535	64763.8
805.9376	327.692	65535	64766.65
806.0807	329.8949	65535	64765.2
806.2238	332.0972	65535	64762.7
806.367	334.2989	65535	64758.45
806.5101	336.5001	65535	64756.1
806.6533	338.7007	65535	64757.9
806.7965	340.9008	65535	64755.25
806.9397	343.1003	65535	64755
807.0829	345.2992	65535	64755.7
807.2261	347.4976	65535	64749.9
807.3693	349.6955	65535	64749.95
807.5126	351.8927	65535	64750.25
807.6559	354.0895	65535	64739.6
807.7991	356.2856	65535	64744.65
807.9424	358.4812	65535	64746.95
808.0857	360.6763	65535	64744.8
808.2291	362.8707	65535	64740.7
808.3724	365.0646	65535	64742.45
808.5158	367.258	65535	64740.15
808.6591	369.4508	65535	64738.2
808.8025	371.643	65535	64739.05
808.9459	373.8346	65535	64734
809.0893	376.0257	65535	64731.6
809.2327	378.2162	65535	64728.85
809.3762	380.4062	65535	64728.7
809.5196	382.5956	65535	64725.75
809.6631	384.7844	65535	64730.5
809.8066	386.9726	65535	64726.95
809.9501	389.1603	65535	64731.75
810.0936	391.3474	65535	64697.9
810.2371	393.5339	65535	64730.9
810.3806	395.7199	65535	64735.9
810.5241	397.9052	65535	64735.85
810.6677	400.09	65535	64738.4
810.8113	402.2743	65535	64736.1
810.9548	404.4579	65535	64739
811.0984	406.641	65535	64736.1
811.2421	408.8235	65535	64737.05
811.3857	411.0054	65535	64733.85
811.5293	413.1868	65535	64731.65
811.673	415.3675	65535	64729.3
811.8166	417.5477	65535	64728.25
811.9603	419.7273	65535	64725.5
812.104	421.9064	65535	64718.7
812.2477	424.0848	65535	64723.95
812.3914	426.2627	65535	64716.35
812.5351	428.4399	65535	64719.4
812.6788	430.6166	65535	64713.65
812.8226	432.7928	65535	64712.75
812.9663	434.9683	65535	64712.2
813.1101	437.1432	65535	64708.45
813.2539	439.3176	65535	64707.95
813.3977	441.4914	65535	64711.05
813.5415	443.6645	65535	64709.35
813.6853	445.8371	65535	64706.9
813.8291	448.0091	65535	64711.3
813.973	450.1806	65535	64708.4
814.1168	452.3514	65535	64705.5
814.2607	454.5216	65535	64699.8
814.4046	456.6913	65535	64704.25
814.5485	458.8603	65535	64704.7
814.6924	461.0288	65535	64707.7
814.8363	463.1967	65535	64705.1
814.9802	465.3639	65535	64705.95
815.1241	467.5306	65535	64704.95
815.2681	469.6967	65535	64703.9
815.412	471.8622	65535	64704.6
815.556	474.0271	65535	64704.45
815.7	476.1914	65535	64700.75
815.844	478.3551	65535	64702.65
815.988	480.5182	65535	64701.5
816.132	482.6807	65535	64701.8
816.276	484.8426	65535	64701.65
816.4201	487.0039	65535	64702.45
816.5641	489.1647	65535	64699.5
816.7082	491.3248	65535	64699.55
816.8522	493.4843	65535	64697.45
816.9963	495.6432	65535	64698.45
817.1404	497.8015	65535	64699.6
817.2845	499.9592	65535	64699.65
817.4286	502.1163	65535	64697.2
817.5727	504.2728	65535	64695.8
817.7168	506.4287	65535	64699.1
817.861	508.5839	65535	64695.55
818.0051	510.7386	65535	64699.75
818.1493	512.8927	65535	64693.45
818.2935	515.0461	65535	64693.35
818.4377	517.199	65535	64693.35
818.5818	519.3512	65535	64689.2
818.726	521.5029	65535	64684.95
818.8703	523.6539	65535	64690.75
819.0145	525.8043	65535	64691.05
819.1587	527.9541	65535	64689.05
819.303	530.1033	65535	64688.95
819.4472	532.2519	65535	64691.8
819.5915	534.3999	65535	64685.65
819.7357	536.5472	65535	64687.9
819.88	538.694	65535	64687.05
820.0243	540.8401	65535	64686.35
820.1686	542.9856	65535	64689.9
820.3129	545.1305	65535	64683.95
820.4572	547.2748	65535	64684.2
820.6016	549.4185	65535	64684.05
820.7459	551.5615	65535	64681.8
820.8902	553.704	65535	64684.05
821.0346	555.8458	65535	64685.65
821.1789	557.987	65535	64686.35
821.3233	560.1276	65535	64684.1
821.4677	562.2675	65535	64684.35
821.6121	564.4069	65535	64683.25
821.7565	566.5456	65535	64683.05
821.9009	568.6837	65535	64686.15
822.0453	570.8212	65535	64686.2
822.1897	572.958	65535	64682.85
822.3342	575.0942	65535	64684.55
822.4786	577.2299	65535	64685.65
822.6231	579.3648	65535	64686.5
822.7675	581.4992	65535	64681.95
822.912	583.6329	65535	64681.75
823.0565	585.766	65535	64684.15
823.201	587.8985	65535	64678.4
823.3454	590.0304	65535	64669.7
823.4899	592.1616	65535	64678.9
823.6345	594.2922	65535	64677.7
823.779	596.4222	65535	64680.3
823.9235	598.5515	65535	64678
824.068	600.6802	65535	64679.85
824.2126	602.8083	65535	64679.6
824.3571	604.9358	65535	64676.1
824.5017	607.0626	65535	64674.85
824.6462	609.1888	65535	64673.2
824.7908	611.3144	65535	64673
824.9354	613.4393	65535	64674.55
825.08	615.5636	65535	64676.35
825.2246	617.6873	65535	64677.25
825.3692	619.8103	65535	64676.25
825.5138	621.9327	65535	64674.25
825.6584	624.0544	65535	64673.9
825.803	626.1756	65535	64672.9
825.9477	628.2961	65535	64674.3
826.0923	630.4159	65535	64671
826.237	632.5351	65535	64668.55
826.3816	634.6537	65535	64671.4
826.5263	636.7716	65535	64669.9
826.6709	638.8889	65535	64671.35
826.8156	641.0056	65535	64670.65
826.9603	643.1216	65535	64667.75
827.105	645.237	65535	64668.95
827.2497	647.3518	65535	64671.25
827.3944	649.4659	65535	64672
827.5391	651.5793	65535	64671.85
827.6838	653.6922	65535	64669.15
827.8285	655.8043	65535	64671.05
827.9733	657.9159	65535	64666.7
828.118	660.0268	65535	64668.9
828.2627	662.137	65535	64670.15
828.4075	664.2466	65535	64664.85
828.5522	666.3556	65535	64668.35
828.697	668.4639	65535	64663
828.8418	670.5716	65535	64667.7
828.9865	672.6786	65535	64666.95
829.1313	674.785	65535	64663.85
829.2761	676.8907	65535	64668.3
829.4209	678.9958	65535	64668.9
829.5657	681.1002	65535	64664.6
829.7105	683.204	65535	64660.85
829.8553	685.3072	65535	64662.35
830.0001	687.4097	65535	64664.15
830.1449	689.5115	65535	64659.2
830.2898	691.6127	65535	64664.05
830.4346	693.7132	65535	64664
830.5794	695.8131	65535	64649.55
830.7243	697.9123	65535	64663.45
830.8691	700.0109	65535	64663.85
831.014	702.1089	65535	64663.05
831.1588	704.2061	65535	64660.65
831.3037	706.3028	65535	64661.7
831.4486	708.3987	65535	64661.05
831.5935	710.4941	65535	64661.95
831.7383	712.5887	65535	64660.4
831.8832	714.6827	65535	64655.8
832.0281	716.7761	65535	64659.7
832.173	718.8688	65535	64659.95
832.3179	720.9608	65535	64657
832.4628	723.0522	65535	64654.15
832.6077	725.1429	65535	64660.75
832.7527	727.233	65535	64658.4
832.8976	729.3224	65535	64660.9
833.0425	731.4112	65535	64660.85
833.1874	733.4993	65535	64654.25
833.3324	735.5867	65535	64658.25
833.4773	737.6735	65535	64655.25
833.6222	739.7596	65535	64656.45
833.7672	741.845	65535	64657.65
833.9122	743.9298	65535	64652.15
834.0571	746.014	65535	64657.4
834.2021	748.0974	65535	64655.1
834.347	750.1802	65535	64655.15
834.492	752.2624	65535	64657.4
834.637	754.3439	65535	64655.15
834.782	756.4247	65535	64650.4
834.9269	758.5048	65535	64657.2
835.0719	760.5843	65535	64655.25
835.2169	762.6631	65535	64656.7
835.3619	764.7413	65535	64656.15
835.5069	766.8188	65535	64655.1
835.6519	768.8956	65535	64652.4
835.7969	770.9718	65535	64654.9
835.9419	773.0473	65535	64656.15
836.0869	775.1221	65535	64653.6
836.232	777.1962	65535	64653.85
836.377	779.2697	65535	64654.75
836.522	781.3426	65535	64634.4
836.667	783.4147	65535	64655.9
836.8121	785.4862	65535	64654.95
836.9571	787.557	65535	64655.35
837.1021	789.6271	65535	64654.1
837.2472	791.6966	65535	64651.15
837.3922	793.7654	65535	64654.25
837.5373	795.8335	65535	64653.35
837.6823	797.901	65535	64655.15
837.8274	799.9678	65535	64650.75
837.9724	802.0339	65535	64653.15
838.1175	804.0993	65535	64642.6
838.2626	806.1641	65535	64653.15
838.4076	808.2282	65535	64655.3
838.5527	810.2916	65535	64650.8
838.6978	812.3544	65535	64655.2
838.8428	814.4164	65535	64654.1
838.9879	816.4778	65535	64648.7
839.133	818.5385	65535	64652.05
839.2781	820.5986	65535	64654.45
839.4232	822.658	65535	64649
839.5682	824.7166	65535	64652.45
839.7133	826.7747	65535	64653.95
839.8584	828.832	65535	64652.6
840.0035	830.8886	65535	64651.95
840.1486	832.9446	65535	64650.2
840.2937	834.9999	65535	64654
840.4388	837.0545	65535	64648.35
840.5839	839.1085	65535	64651
840.729	841.1618	65535	64645
840.8741	843.2143	65535	64651.6
841.0192	845.2662	65535	64650.45
841.1643	847.3175	65535	64652.4
841.3095	849.368	65535	64649.8
841.4546	851.4179	65535	64652.25
841.5997	853.467	65535	64648.05
841.7448	855.5155	65535	64649.65
841.8899	857.5633	65535	64648.8
842.0351	859.6105	65535	64650.25
842.1802	861.6569	65535	64651.15
842.3253	863.7027	65535	64648.2
842.4704	865.7478	65535	64649.75
842.6156	867.7922	65535	64651.75
842.7607	869.8359	65535	64647.2
842.9058	871.8789	65535	64647.35
843.0509	873.9212	65535	64618.05
843.1961	875.9629	65535	64649.75
843.3412	878.0039	65535	64648.3
843.4863	880.0441	65535	64649.3
843.6315	882.0837	65535	64647.5
843.7766	884.1226	65535	64643.2
843.9218	886.1609	65535	64649.45
844.0669	888.1984	65535	64650.5
844.212	890.2352	65535	64648.55
844.3572	892.2714	65535	64643.7
844.5023	894.3069	65535	64648.1
844.6475	896.3416	65535	64646.1
844.7926	898.3757	65535	64648
844.9377	900.4091	65535	64647.8
845.0829	902.4418	65535	64641.45
845.228	904.4739	65535	64645.65
845.3732	906.5052	65535	64645.15
845.5183	908.5358	65535	64647.35
845.6635	910.5658	65535	64648.35
845.8086	912.595	65535	64646.1
845.9538	914.6236	65535	64647.3
846.0989	916.6515	65535	64648.05
846.2441	918.6786	65535	64643.55
846.3892	920.7051	65535	64642.45
846.5344	922.7309	65535	64647.6
846.6795	924.756	65535	64646.25
846.8246	926.7804	65535	64643.6
846.9698	928.8041	65535	64643.15
847.1149	930.8272	65535	64645.95
847.2601	932.8495	65535	64643.9
847.4052	934.8711	65535	64643.9
847.5504	936.892	65535	64645.4
847.6955	938.9123	65535	64644.65
847.8407	940.9318	65535	64645.2
847.9858	942.9506	65535	64644.85
848.131	944.9688	65535	64645.65
848.2761	946.9862	65535	64644.85
848.4213	949.003	65535	64643.45
848.5664	951.019	65535	64649.7
848.7115	953.0344	65535	64644.45
848.8567	955.0491	65535	64643.6
849.0018	957.063	65535	64644.9
849.147	959.0763	65535	64647.1
849.2921	961.0888	65535	64640.8
849.4373	963.1007	65535	64644.35
849.5824	965.1119	65535	64645.7
849.7275	967.1223	65535	64645.7
849.8727	969.1321	65535	64646.6
850.0178	971.1412	65535	64646.2
850.1629	973.1495	65535	64646.5
850.3081	975.1572	65535	64608.95
850.4532	977.1641	65535	64645.15
850.5983	979.1704	65535	64642.35
850.7435	981.1759	65535	64641.55
850.8886	983.1808	65535	64643.35
851.0337	985.1849	65535	64635.45
851.1788	987.1884	65535	64640.8
851.324	989.1911	65535	64640.85
851.4691	991.1932	65535	64643.15
851.6142	993.1945	65535	64643.15
851.7593	995.1951	65535	64643.05
851.9045	997.1951	65535	64637.3
852.0496	999.1943	65535	64642.1
852.1947	1001.1928	65535	64642.25
852.3398	1003.1906	65535	64643.45
852.4849	1005.1877	65535	64643.8
852.63	1007.1841	65535	64641.55
852.7751	1009.1798	65535	64643.15
852.9202	1011.1748	65535	64644
853.0653	1013.1691	65535	64644.35
853.2104	1015.1627	65535	64644.4
853.3555	1017.1556	65535	64646.15
853.5006	1019.1477	65535	64642.95
853.6457	1021.1392	65535	64646.35
853.7908	1023.1299	65535	64641.5
853.9359	1025.12	65535	64640.7
854.081	1027.1093	65535	64643.75
854.2261	1029.0979	65535	64645.3
854.3712	1031.0859	65535	64645.9
854.5163	1033.0731	65535	64643.9
854.6613	1035.0596	65535	64645.45
854.8064	1037.0454	65535	64642.4
854.9515	1039.0304	65535	64640.95
855.0965	1041.0148	65535	64645.05
855.2416	1042.9985	65535	64640.8
855.3867	1044.9814	65535	64641.7
855.5317	1046.9636	65535	64641.1
855.6768	1048.9452	65535	64643.4
855.8219	1050.926	65535	64644.45
855.9669	1052.9061	65535	64644.1
856.112	1054.8855	65535	64641.6
856.257	1056.8642	65535	64641.85
856.4021	1058.8421	65535	64637.7
856.5471	1060.8194	65535	64642.95
856.6921	1062.7959	65535	64641.95
856.8372	1064.7717	65535	64641.9
856.9822	1066.7469	65535	64640.3
857.1272	1068.7213	65535	64639.15
857.2723	1070.695	65535	64643.8
857.4173	1072.6679	65535	64640.45
857.5623	1074.6402	65535	64643.25
857.7073	1076.6117	65535	64640.05
857.8523	1078.5826	65535	64642.25
857.9973	1080.5527	65535	64641.35
858.1423	1082.5221	65535	64639.35
858.2873	1084.4908	65535	64640.7
858.4323	1086.4587	65535	64641.9
858.5773	1088.426	65535	64641.7
858.7223	1090.3925	65535	64636.35
858.8673	1092.3584	65535	64641.1
859.0123	1094.3235	65535	64644.1
859.1573	1096.2879	65535	64640.55
859.3022	1098.2515	65535	64640.45
859.4472	1100.2145	65535	64644.7
859.5922	1102.1767	65535	64639.7
859.7371	1104.1382	65535	64642.1
859.8821	1106.099	65535	64637.8
860.027	1108.0591	65535	64640.65
860.172	1110.0185	65535	64642.1
860.3169	1111.9771	65535	64641.55
860.4619	1113.9351	65535	64641.55
860.6068	1115.8923	65535	64641.1
860.7517	1117.8488	65535	64638.25
860.8967	1119.8045	65535	64643.75
861.0416	1121.7596	65535	64640.8
861.1865	1123.7139	65535	64641.2
861.3314	1125.6675	65535	64643.7
861.4763	1127.6204	65535	64641.75
861.6212	1129.5726	65535	64638.7
861.7661	1131.524	65535	64642
861.911	1133.4748	65535	64641.5
862.0559	1135.4248	65535	64641.65
862.2008	1137.3741	65535	64642.3
862.3457	1139.3226	65535	64641.5
862.4905	1141.2705	65535	64641.05
862.6354	1143.2176	65535	64635.25
862.7803	1145.164	65535	64638.65
862.9251	1147.1097	65535	64640.95
863.07	1149.0546	65535	64642.05
863.2148	1150.9989	65535	64640.05
863.3597	1152.9424	65535	64640.45
863.5045	1154.8852	65535	64638.7
863.6493	1156.8272	65535	64642.5
863.7942	1158.7686	65535	64633.15
863.939	1160.7092	65535	64639.9
864.0838	1162.6491	65535	64640.65
864.2286	1164.5883	65535	64644.75
864.3734	1166.5267	65535	64641.05
864.5182	1168.4644	65535	64642.9
864.663	1170.4014	65535	64635.85
864.8078	1172.3377	65535	64639.8
864.9526	1174.2732	65535	64643.65
865.0974	1176.2081	65535	64640.15
865.2421	1178.1421	65535	64636.35
865.3869	1180.0755	65535	64642.9
865.5317	1182.0082	65535	64641
865.6764	1183.9401	65535	64638.8
865.8212	1185.8713	65535	64641.25
865.9659	1187.8017	65535	64640.7
866.1106	1189.7315	65535	64643.55
866.2554	1191.6605	65535	64615.6
866.4001	1193.5888	65535	64640.8
866.5448	1195.5163	65535	64640.6
866.6895	1197.4432	65535	64639.7
866.8342	1199.3693	65535	64640.9
866.9789	1201.2947	65535	64635.6
867.1236	1203.2193	65535	64644.2
867.2683	1205.1432	65535	64640.55
867.413	1207.0664	65535	64641.65
867.5576	1208.9889	65535	64639.25
867.7023	1210.9106	65535	64638.85
867.847	1212.8316	65535	64639.8
867.9916	1214.7519	65535	64631.5
868.1363	1216.6715	65535	64641.3
868.2809	1218.5903	65535	64640.95
868.4255	1220.5084	65535	64640.3
868.5701	1222.4257	65535	64642.35
868.7148	1224.3424	65535	64640.65
868.8594	1226.2583	65535	64635.35
869.004	1228.1735	65535	64639
869.1486	1230.0879	65535	64639.05
869.2932	1232.0016	65535	64641.9
869.4377	1233.9146	65535	64639.15
869.5823	1235.8269	65535	64639.65
869.7269	1237.7384	65535	64640.4
869.8715	1239.6492	65535	64639.4
870.016	1241.5592	65535	64640.25
870.1606	1243.4686	65535	64640.7
870.3051	1245.3772	65535	64640.25
870.4496	1247.285	65535	64640.2
870.5941	1249.1922	65535	64639.1
870.7387	1251.0986	65535	64641.55
870.8832	1253.0042	65535	64640.75
871.0277	1254.9092	65535	64641.65
871.1722	1256.8134	65535	64643.5
871.3167	1258.7169	65535	64640.85
871.4611	1260.6196	65535	64640.4
871.6056	1262.5216	65535	64640.65
871.7501	1264.4229	65535	64639.7
871.8945	1266.3234	65535	64640.2
872.039	1268.2232	65535	64638.2
872.1834	1270.1223	65535	64639.65
872.3278	1272.0207	65535	64638.4
872.4723	1273.9183	65535	64635.4
872.6167	1275.8151	65535	64642.55
872.7611	1277.7113	65535	64640.7
872.9055	1279.6067	65535	64640.8
873.0499	1281.5014	65535	64637.35
873.1943	1283.3953	65535	64638.15
873.3386	1285.2885	65535	64640.8
873.483	1287.181	65535	64639.05
873.6274	1289.0727	65535	64642
873.7717	1290.9637	65535	64640.9
873.9161	1292.854	65535	64639.8
874.0604	1294.7435	65535	64641.25
874.2047	1296.6323	65535	64639.95
874.349	1298.5204	65535	64635.95
874.4933	1300.4077	65535	64639.15
874.6376	1302.2943	65535	64637.75
874.7819	1304.1802	65535	64641.75
874.9262	1306.0653	65535	64637.15
875.0705	1307.9497	65535	64641.6
875.2147	1309.8333	65535	64642.15
875.359	1311.7162	65535	64639.85
875.5032	1313.5984	65535	64638.65
875.6475	1315.4798	65535	64628.65
875.7917	1317.3605	65535	64621.35
875.9359	1319.2405	65535	64639.9
876.0801	1321.1197	65535	64638.5
876.2243	1322.9982	65535	64637.85
876.3685	1324.876	65535	64639.7
876.5127	1326.753	65535	64639.1
876.6569	1328.6293	65535	64641.1
876.801	1330.5048	65535	64638.9
876.9452	1332.3796	65535	64639.45
877.0893	1334.2537	65535	64614
877.2335	1336.127	65535	64637.3
877.3776	1337.9996	65535	64639.45
877.5217	1339.8714	65535	64640.05
877.6658	1341.7426	65535	64598.8
877.8099	1343.6129	65535	64640.5
877.954	1345.4826	65535	64640.25
878.0981	1347.3515	65535	64639.7
878.2422	1349.2196	65535	64638.85
878.3862	1351.087	65535	64639.5
878.5303	1352.9537	65535	64638.5
878.6743	1354.8197	65535	64638.2
878.8184	1356.6849	65535	64640.3
878.9624	1358.5493	65535	64640
879.1064	1360.4131	65535	64641.25
879.2504	1362.276	65535	64642.1
879.3944	1364.1383	65535	64638.75
879.5384	1365.9998	65535	64635
879.6823	1367.8606	65535	64639.4
879.8263	1369.7206	65535	64638.35
879.9702	1371.5799	65535	64636.1
880.1142	1373.4384	65535	64637.9
880.2581	1375.2962	65535	64638.55
880.402	1377.1533	65535	64641.05
880.5459	1379.0096	65535	64640.65
880.6898	1380.8652	65535	64639.85
880.8337	1382.7201	65535	64638.85
880.9776	1384.5742	65535	64639.85
881.1215	1386.4275	65535	64639.65
881.2653	1388.2802	65535	64639.5
881.4092	1390.132	65535	64639
881.553	1391.9832	65535	64637.25
881.6968	1393.8336	65535	64640.45
881.8406	1395.6832	65535	64639
881.9844	1397.5322	65535	64638.4
882.1282	1399.3803	65535	64635.45
882.272	1401.2278	65535	64636.5
882.4158	1403.0745	65535	64639.5
882.5595	1404.9204	65535	64643.3
882.7033	1406.7656	65535	64639.2
882.847	1408.6101	65535	64639.1
882.9908	1410.4538	65535	64639.4
883.1345	1412.2968	65535	64641.5
883.2782	1414.139	65535	64638.9
883.4219	1415.9805	65535	64638.75
883.5656	1417.8213	65535	64632.6
883.7092	1419.6613	65535	64641.85
883.8529	1421.5006	65535	64639
883.9965	1423.3391	65535	64638.75
884.1402	1425.1769	65535	64638.5
884.2838	1427.0139	65535	64640.35
884.4274	1428.8502	65535	64638.1
884.571	1430.6858	65535	64638.85
884.7146	1432.5206	65535	64639.1
884.8582	1434.3547	65535	64637.15
885.0018	1436.188	65535	64641.25
885.1453	1438.0206	65535	64638.8
885.2889	1439.8524	65535	64639.25
885.4324	1441.6835	65535	64638.9
885.5759	1443.5139	65535	64633.15
885.7194	1445.3435	65535	64638.55
885.8629	1447.1724	65535	64639.85
886.0064	1449.0005	65535	64637.75
886.1499	1450.8279	65535	64637.6
886.2933	1452.6545	65535	64638.55
886.4368	1454.4804	65535	64641.7
886.5802	1456.3056	65535	64630.9
886.7237	1458.13	65535	64640.9
886.8671	1459.9536	65535	64640.15
887.0105	1461.7766	65535	64638.75
887.1539	1463.5987	65535	64638.35
887.2972	1465.4202	65535	64637.7
887.4406	1467.2409	65535	64637.55
887.584	1469.0608	65535	64642.2
887.7273	1470.88	65535	64639.1
887.8706	1472.6984	65535	64639.5
888.0139	1474.5161	65535	64639.7
888.1572	1476.3331	65535	64639.3
888.3005	1478.1493	65535	64641.3
888.4438	1479.9648	65535	64639.25
888.5871	1481.7795	65535	64641.1
888.7303	1483.5935	65535	64642.35
888.8736	1485.4067	65535	64639.2
889.0168	1487.2192	65535	64639.2
889.16	1489.031	65535	64638.2
889.3032	1490.842	65535	64641
889.4464	1492.6522	65535	64640.6
889.5896	1494.4618	65535	64636.95
889.7327	1496.2705	65535	64640.9
889.8759	1498.0785	65535	64640.45
890.019	1499.8858	65535	64640.15
890.1622	1501.6924	65535	64641.65
890.3053	1503.4981	65535	64639.25
890.4484	1505.3032	65535	64639.9
890.5914	1507.1075	65535	64639.05
890.7345	1508.911	65535	64637.95
890.8776	1510.7138	65535	64640.05
891.0206	1512.5159	65535	64641.5
891.1637	1514.3172	65535	64641.8
891.3067	1516.1178	65535	64641.85
891.4497	1517.9176	65535	64636.05
891.5927	1519.7166	65535	64640.1
891.7357	1521.515	65535	64636.5
891.8786	1523.3126	65535	64640.75
892.0216	1525.1094	65535	64639.9
892.1645	1526.9055	65535	64640.3
892.3074	1528.7008	65535	64640.15
892.4503	1530.4954	65535	64635.35
892.5932	1532.2893	65535	64643.7
892.7361	1534.0824	65535	64637.9
892.879	1535.8747	65535	64638.6
893.0218	1537.6663	65535	64641.35
893.1647	1539.4572	65535	64638.9
893.3075	1541.2473	65535	64639.35
893.4503	1543.0367	65535	64642.7
893.5931	1544.8253	65535	64635.8
893.7359	1546.6132	65535	64637.65
893.8787	1548.4003	65535	64630
894.0214	1550.1867	65535	64632.05
894.1642	1551.9723	65535	64635.75
894.3069	1553.7572	65535	64638.15
894.4496	1555.5414	65535	64640.4
894.5923	1557.3247	65531.4	64635.6
894.735	1559.1074	65535	64641.6
894.8777	1560.8893	65535	64640.1
895.0204	1562.6705	65535	64639.6
895.163	1564.4509	65533.75	64639.65
895.3056	1566.2305	65535	64642.35
895.4482	1568.0094	65535	64641.55
895.5908	1569.7876	65535	64641.3
895.7334	1571.565	65531.5	64636.85
895.876	1573.3417	65535	64641.75
896.0186	1575.1176	65533.45	64640.25
896.1611	1576.8928	65532	64637.5
896.3036	1578.6672	65516.55	64623.75
896.4461	1580.4409	65529.1	64636.4
896.5886	1582.2138	65487.45	64590.75
896.7311	1583.986	65509.2	64614.85
896.8736	1585.7575	65440.85	64547.4
897.0161	1587.5282	65470.7	64578.55
897.1585	1589.2981	65469.4	64577.05
897.3009	1591.0673	65358.9	64466.3
897.4433	1592.8358	65217.65	64325.45
897.5857	1594.6035	65356.35	64458
897.7281	1596.3704	65384.2	64491.1
897.8705	1598.1366	65043.45	64149.65
898.0128	1599.9021	64793.8	63901.45
898.1551	1601.6668	65223.5	64329.25
898.2975	1603.4308	64981.25	64086.75
898.4398	1605.194	64969.5	64070.95
898.5821	1606.9564	64290.8	63397.95
898.7243	1608.7182	64725.1	63828.9
898.8666	1610.4791	64297.4	63405.05
899.0088	1612.2394	64708.3	63815.05
899.1511	1613.9988	64155.15	63263.1
899.2933	1615.7576	64756.65	63863
899.4355	1617.5156	64728.45	63829.35
899.5776	1619.2728	65154.75	64261.25
899.7198	1621.0293	64342	63446.85
899.862	1622.785	64362.45	63466.6
900.0041	1624.54	64686.3	63790.25
900.1462	1626.2942	64069.2	63175.45
900.2883	1628.0477	63194.8	62300.4
900.4304	1629.8005	62423.8	61526.7
900.5725	1631.5525	63207.95	62314.5
900.7145	1633.3037	61965.95	61071.3
900.8566	1635.0542	61833.65	60941.4
900.9986	1636.804	62348.5	61455.25
901.1406	1638.553	61137.7	60132.3
901.2826	1640.3013	61482.1	60588.35
901.4245	1642.0488	60745.3	59852.45
901.5665	1643.7955	61247.5	60356.1
901.7085	1645.5416	60656.8	59765.75
901.8504	1647.2868	60203.3	59311.65
901.9923	1649.0313	61014.5	60123.55
902.1342	1650.7751	60549.65	59652.2
902.2761	1652.5181	60105.25	59211.05
902.4179	1654.2604	60190	59295.4
902.5598	1656.0019	60640.55	59748.8
902.7016	1657.7427	60435.1	59544.25
902.8434	1659.4828	61027.5	60133.45
902.9852	1661.222	60490.6	59598.1
903.127	1662.9606	61051.3	60160.2
903.2687	1664.6984	60199.35	59307.1
903.4105	1666.4354	60331.9	59438.9
903.5522	1668.1717	59162.3	58268
903.6939	1669.9072	58362	57468.55
903.8356	1671.642	58105.05	57211.6
903.9773	1673.3761	57718.05	56824.05
904.119	1675.1094	57403.35	56512.5
904.2606	1676.8419	56850.85	55957.4
904.4022	1678.5737	56669.65	55775.55
904.5439	1680.3048	56418.9	55526.4
904.6855	1682.0351	56035.1	55143.2
904.827	1683.7646	55745.55	54850.75
904.9686	1685.4934	55834.5	54943.25
905.1101	1687.2215	54808.8	53915.7
905.2517	1688.9488	55305.7	54415.5
905.3932	1690.6754	54097.85	53206.9
905.5347	1692.4012	54496.55	53605.15
905.6761	1694.1263	54354.8	53459.45
905.8176	1695.8506	53996.25	53103.7
905.9591	1697.5742	53836.6	52943.4
906.1005	1699.297	53600.7	52707.8
906.2419	1701.0191	53413.3	52521.95
906.3833	1702.7404	53038.35	52148.85
906.5246	1704.461	52677.2	51782.5
906.666	1706.1808	52632.9	51742.55
906.8073	1707.8999	52510.85	51618.9
906.9487	1709.6182	52254.6	51363.15
907.09	1711.3358	52173.55	51282.95
907.2313	1713.0527	51962.55	51071.5
907.3725	1714.7688	51780.6	50883.1
907.5138	1716.4841	51336.55	50441
907.655	1718.1987	51404.35	50506.55
907.7962	1719.9126	51177.7	50285.75
907.9374	1721.6257	50954.85	50059.75
908.0786	1723.338	51005.1	50112.6
908.2198	1725.0496	50444.35	49552.2
908.3609	1726.7605	50336.6	49445.05
908.502	1728.4706	50202.15	49310
908.6431	1730.18	49953.75	49058.55
908.7842	1731.8886	49745.75	48854.8
908.9253	1733.5964	49645.05	48731.65
909.0664	1735.3036	49531.55	48637.55
909.2074	1737.0099	49363.4	48473.1
909.3484	1738.7156	49185.85	48292.6
909.4894	1740.4204	48918.1	48022.65
909.6304	1742.1246	48857.65	47965.8
909.7714	1743.8279	48680.85	47788.6
909.9123	1745.5306	48578.9	47688.25
910.0532	1747.2325	48293.35	47402.4
910.1941	1748.9336	48166.4	47274.5
910.335	1750.634	47904.8	47010.95
910.4759	1752.3336	47893.85	47002.3
910.6168	1754.0325	47765.25	46876.05
910.7576	1755.7307	47645.9	46755.9
910.8984	1757.4281	47537.45	46643.35
911.0392	1759.1247	47483.15	46583
911.18	1760.8206	47277.5	46379.8
911.3208	1762.5158	47267.4	46372.35
911.4615	1764.2102	46953.65	46063.2
911.6022	1765.9039	46739.7	45849.45
911.7429	1767.5968	46638.05	45746.55
911.8836	1769.289	46498.6	45605.85
912.0243	1770.9804	46405.9	45511.7
912.1649	1772.6711	46298	45405.65
912.3056	1774.361	46158.15	45264.75
912.4462	1776.0502	45949.3	45057
912.5868	1777.7386	45875.2	44979.1
912.7274	1779.4263	45730.25	44840.2
912.8679	1781.1132	45672.25	44780.5
913.0084	1782.7994	45508.3	44615.65
913.149	1784.4849	45380.5	44489.2
913.2895	1786.1696	45136.25	44237.35
913.4299	1787.8535	45023.05	44130.3
913.5704	1789.5367	44896.95	44004.3
913.7108	1791.2192	44771.95	43880.2
913.8513	1792.9009	44652.95	43733.7
913.9917	1794.5818	44504.55	43611.65
914.132	1796.2621	44397	43507.75
914.2724	1797.9415	44258.95	43366.1
914.4128	1799.6202	44116.7	43223.55
914.5531	1801.2982	43979.4	43087.95
914.6934	1802.9755	43848.1	42955.9
914.8337	1804.6519	43768.4	42877.3
914.9739	1806.3277	43568	42677.7
915.1142	1808.0027	43370.7	42480.95
915.2544	1809.6769	43308.45	42419.3
915.3946	1811.3504	43115	42222.05
915.5348	1813.0231	43025.55	42133.6
915.675	1814.6951	42950.55	42057.25
915.8151	1816.3664	42970.2	42076.75
915.9553	1818.0369	42826.75	41934.7
916.0954	1819.7067	42686.45	41797.05
916.2355	1821.3757	42479.55	41588.1
916.3755	1823.044	42407.5	41516.65
916.5156	1824.7115	42368.05	41477.05
916.6556	1826.3783	42049.7	41162.3
916.7956	1828.0443	41955	41065
916.9356	1829.7096	41800.05	40905.45
917.0756	1831.3741	41816	40922.1
917.2155	1833.0379	41669.55	40778.8
917.3555	1834.701	41470.25	40576.85
917.4954	1836.3633	41387.45	40494.55
917.6353	1838.0248	41237.5	40343.65
917.7751	1839.6856	41124.9	40236.3
917.915	1841.3457	41084.95	40194.15
918.0548	1843.005	40976.8	40088.8
918.1946	1844.6636	40882.6	39990.7
918.3344	1846.3214	40715.05	39822.55
918.4742	1847.9785	40675.95	39785.95
918.6139	1849.6349	40550.05	39655.75
918.7537	1851.2904	40403.15	39502.5
918.8934	1852.9453	40287.25	39394.5
919.0331	1854.5994	40137.7	39246.65
919.1727	1856.2528	40134.15	39237.9
919.3124	1857.9054	39967.8	39076.95
919.452	1859.5572	39914.9	39024.4
919.5916	1861.2083	39817.4	38925.95
919.7312	1862.8587	39763.65	38871.45
919.8708	1864.5084	39652.2	38759.9
920.0103	1866.1572	39548.65	38658.45
920.1498	1867.8054	39306.35	38415.2
920.2893	1869.4528	39242.95	38350
920.4288	1871.0994	39103.35	38211.05
920.5683	1872.7453	38978.95	38086.2
920.7077	1874.3905	38900.75	38000.5
920.8471	1876.0349	38806.3	37913.55
920.9865	1877.6786	38754.05	37861.15
921.1259	1879.3215	38667.6	37774.85
921.2653	1880.9637	38555.8	37663
921.4046	1882.6051	38498.45	37607.65
921.5439	1884.2458	38366.3	37473.05
921.6832	1885.8858	38200.4	37308.3
921.8225	1887.525	38106.95	37214.4
921.9617	1889.1634	37853.85	36964.45
922.101	1890.8011	37761.45	36869.7
922.2402	1892.4381	37698	36806.9
922.3794	1894.0743	37645.95	36754.1
922.5185	1895.7098	37535.85	36646.15
922.6577	1897.3446	37416.3	36524.35
922.7968	1898.9786	37290.1	36392.2
922.9359	1900.6118	37172	36280.35
923.075	1902.2443	36989.6	36095.1
923.214	1903.8761	36845.3	35953.55
923.3531	1905.5071	36678.9	35786.1
923.4921	1907.1374	36534.75	35643.7
923.6311	1908.7669	36502.35	35611.5
923.77	1910.3957	36427.6	35537.45
923.909	1912.0237	36176.55	35284.85
924.0479	1913.651	36058.65	35165.65
924.1868	1915.2776	35996.4	35106.5
924.3257	1916.9034	35808.15	34918
924.4646	1918.5285	35640.6	34750.6
924.6034	1920.1528	35460.8	34568.9
924.7422	1921.7764	35452.65	34560.95
924.881	1923.3992	35276.95	34385.7
925.0198	1925.0213	35015.6	34125.2
925.1586	1926.6427	34887.1	33997.25
925.2973	1928.2633	34871.9	33873.3
925.436	1929.8832	34692	33798.75
925.5747	1931.5023	34506.4	33615.2
925.7134	1933.1207	34454.95	33563.6
925.852	1934.7383	34340.85	33451.05
925.9906	1936.3552	34190.6	33300.95
926.1292	1937.9714	34133.15	33241.4
926.2678	1939.5868	33997.05	33104.6
926.4064	1941.2015	33734.25	32839.7
926.5449	1942.8154	33600.45	32710.65
926.6834	1944.4286	33458.75	32568.65
926.8219	1946.041	33340.25	32430.25
926.9604	1947.6528	33153.65	32257.35
927.0988	1949.2637	33092.15	32200.8
927.2372	1950.8739	32962.75	32071.6
927.3756	1952.4834	32861.25	31969.7
927.514	1954.0921	32802	31910.3
927.6523	1955.7001	32650.15	31755.45
927.7907	1957.3074	32557.5	31666.2
927.929	1958.9139	32351.45	31461.15
928.0673	1960.5197	32274.15	31381.3
928.2055	1962.1247	32119.3	31227.5
928.3438	1963.729	31960.4	31071.6
928.482	1965.3325	31833.8	30919.15
928.6202	1966.9353	31659.75	30770
928.7584	1968.5374	31579.2	30687.1
928.8965	1970.1387	31476.55	30584.2
929.0346	1971.7393	31374.2	30483.7
929.1727	1973.3392	31227.65	30335.05
929.3108	1974.9383	31139.85	30250.9
929.4489	1976.5366	30968.4	30077.35
929.5869	1978.1342	30969.35	30079.5
929.7249	1979.7311	30875.3	29984.5
929.8629	1981.3273	30735.1	29843.75
930.0009	1982.9227	30596.9	29702.35
930.1388	1984.5173	30465.55	29577.25
930.2767	1986.1112	30352.65	29461.9
930.4146	1987.7044	30261.95	29373.3
930.5525	1989.2968	30127.25	29235.3
930.6904	1990.8885	30067.55	29172.25
930.8282	1992.4795	29999.9	29106.7
930.966	1994.0697	29866.45	28976.95
931.1038	1995.6592	29753.25	28864.4
931.2415	1997.2479	29674.95	28783.95
931.3793	1998.8359	29555.95	28666.45
931.517	2000.4232	29440.2	28551.85
931.6547	2002.0097	29314.55	28425.95
931.7923	2003.5955	29164.65	28274.2
931.93	2005.1805	29138.55	28245.25
932.0676	2006.7648	29053.85	28161.6
932.2052	2008.3484	28933.4	28043.75
932.3427	2009.9312	28912.15	28016.75
932.4803	2011.5133	28760.7	27871.65
932.6178	2013.0946	28705.35	27813.75
932.7553	2014.6752	28637.85	27748.45
932.8928	2016.2551	28497.4	27607.25
933.0302	2017.8342	28359.75	27468.15
933.1676	2019.4126	28241.05	27350.7
933.305	2020.9902	28162.45	27271.05
933.4424	2022.5672	28082.7	27190.25
933.5798	2024.1433	27975.4	27078
933.7171	2025.7188	27878.5	26989.7
933.8544	2027.2935	27791.4	26898.95
933.9917	2028.8674	27677	26786.8
934.129	2030.4406	27606.75	26716.9
934.2662	2032.0131	27436.1	26545.75
934.4034	2033.5849	27359.6	26459.45
934.5406	2035.1559	27277.35	26386.05
934.6778	2036.7261	27262.5	26372.55
934.8149	2038.2957	27180.05	26289.5
934.952	2039.8645	27076.55	26184.9
935.0891	2041.4325	27041.45	26149
935.2262	2042.9998	26916.8	26027.3
935.3632	2044.5664	26838.8	25945.9
935.5002	2046.1323	26787.1	25896.3
935.6372	2047.6974	26707.85	25819.25
935.7742	2049.2617	26592.7	25702.45
935.9111	2050.8254	26517.25	25602.2
936.048	2052.3883	26492.7	25600.1
936.1849	2053.9504	26338.35	25446.65
936.3218	2055.5118	26261.6	25370.05
936.4586	2057.0725	26174	25279.35
936.5955	2058.6325	26095.45	25202.95
936.7323	2060.1917	25981.15	25090.9
936.869	2061.7502	25955.2	25060.95
937.0058	2063.3079	25796.05	24905.65
937.1425	2064.8649	25736	24840.9
937.2792	2066.4212	25654.7	24763.25
937.4159	2067.9767	25575.35	24685
937.5525	2069.5315	25492.75	24600.1
937.6891	2071.0856	25324.05	24432.05
937.8257	2072.6389	25242.4	24350
937.9623	2074.1915	25127.7	24237.45
938.0989	2075.7433	24931.9	24039.05
938.2354	2077.2945	24901.75	24010.95
938.3719	2078.8448	24858	23967.55
938.5084	2080.3945	24745.6	23855.75
938.6448	2081.9434	24745.1	23856.15
938.7812	2083.4916	24613.7	23723.85
938.9176	2085.039	24545.85	23653.4
939.054	2086.5857	24455	23562.3
939.1903	2088.1317	24359	23466.9
939.3267	2089.677	24298.5	23407.55
939.463	2091.2215	24273.05	23382.4
939.5992	2092.7652	24182.25	23288.9
939.7355	2094.3083	24088.35	23197.75
939.8717	2095.8506	24040.05	23149.75
940.0079	2097.3921	24016.4	23126.85
940.1441	2098.933	23886.55	22998.4
940.2802	2100.4731	23866.95	22974.5
940.4163	2102.0124	23814.75	22917.55
940.5524	2103.5511	23719.15	22829.1
940.6885	2105.089	23640.8	22746.95
940.8245	2106.6261	23570	22680.45
940.9606	2108.1626	23499	22606.15
941.0965	2109.6983	23461.05	22542.05
941.2325	2111.2332	23373.2	22482.25
941.3684	2112.7675	23283.7	22389.75
941.5044	2114.301	23194.9	22303.75
941.6403	2115.8337	23210.5	22319.7
941.7761	2117.3657	23071.7	22181.15
941.912	2118.897	22994.15	22100
942.0478	2120.4276	22921.25	22025.25
942.1835	2121.9575	22841.3	21948.4
942.3193	2123.4866	22838	21931.6
942.455	2125.0149	22747.45	21853.9
942.5907	2126.5426	22613.85	21724.1
942.7264	2128.0695	22572.25	21676.85
942.8621	2129.5956	22488.95	21599
942.9977	2131.1211	22470.3	21575.1
943.1333	2132.6458	22405.25	21514.3
943.2689	2134.1698	22286.65	21396.55
943.4044	2135.693	22251.1	21357.2
943.54	2137.2155	22189.6	21297.1
943.6755	2138.7373	22103.45	21211.2
943.8109	2140.2584	22026.95	21136.5
943.9464	2141.7787	21931.6	21036.65
944.0818	2143.2983	21822.35	20930.45
944.2172	2144.8171	21733.55	20843.45
944.3526	2146.3353	21664.9	20771.45
944.4879	2147.8527	21572.25	20681
944.6232	2149.3693	21592.35	20700.9
944.7585	2150.8853	21465.1	20571.85
944.8938	2152.4005	21345.95	20454.05
945.029	2153.9149	21319.85	20428.35
945.1642	2155.4287	21278.75	20387.25
945.2994	2156.9417	21204.35	20312.8
945.4346	2158.454	21143.3	20249.85
945.5697	2159.9655	21047.35	20156.15
945.7048	2161.4764	21044.6	20151.6
945.8399	2162.9865	20926.65	20035.6
945.9749	2164.4958	20879.55	19987.1
946.1099	2166.0045	20801.05	19906.65
946.2449	2167.5124	20795.5	19904.6
946.3799	2169.0195	20705	19813.5
946.5148	2170.526	20685.2	19794.9
946.6498	2172.0317	20595	19704.2
946.7846	2173.5367	20492.05	19599.1
946.9195	2175.0409	20427.95	19538.35
947.0543	2176.5445	20411.7	19521
947.1891	2178.0473	20356	19464.75
947.3239	2179.5494	20231.4	19336.5
947.4587	2181.0507	20160.75	19267.15
947.5934	2182.5513	20108.85	19218.55
947.7281	2184.0512	20042.1	19151.4
947.8628	2185.5504	19980.85	19088.8
947.9974	2187.0488	19807.25	18918.3
948.132	2188.5465	19783.85	18891.75
948.2666	2190.0435	19721.05	18827.4
948.4012	2191.5397	19642.45	18751.5
948.5357	2193.0353	19589.4	18698.4
948.6702	2194.5301	19489.9	18598.3
948.8047	2196.0241	19414.95	18522.2
948.9392	2197.5175	19368	18477.4
949.0736	2199.0101	19239.25	18344.3
949.208	2200.502	19190.4	18300.45
949.3424	2201.9931	19126.4	18235.7
949.4767	2203.4835	19050.1	18157.6
949.611	2204.9733	18995	18099.1
949.7453	2206.4622	18918.35	18027.2
949.8796	2207.9505	18847.1	17953.6
950.0138	2209.438	18754.8	17864.6
950.148	2210.9248	18700.15	17807.5
950.2822	2212.4109	18626.85	17735.4
950.4164	2213.8962	18590.1	17696.15
950.5505	2215.3809	18545.45	17651.4
950.6846	2216.8648	18461.9	17571.1
950.8186	2218.3479	18410.65	17514.95
950.9527	2219.8304	18364.05	17470.4
951.0867	2221.3121	18284.75	17391.75
951.2207	2222.7931	18192.15	17301.15
951.3546	2224.2733	18108.8	17218.55
951.4886	2225.7529	18029.95	17137.15
951.6225	2227.2317	17978.75	17083.6
951.7563	2228.7098	17936.5	17045.5
951.8902	2230.1872	17835.15	16944.05
952.024	2231.6638	17836.95	16944.3
952.1578	2233.1397	17721.95	16822.8
952.2916	2234.6149	17712.55	16820.75
952.4253	2236.0894	17609.8	16718.75
952.559	2237.5632	17598.55	16696.3
952.6927	2239.0362	17500.3	16608.65
952.8263	2240.5085	17457.4	16566.3
952.9599	2241.9801	17338.5	16447.65
953.0935	2243.4509	17323.55	16432.65
953.2271	2244.921	17238.2	16346.45
953.3606	2246.3904	17182.65	16287.75
953.4941	2247.8591	17136.55	16244.1
953.6276	2249.3271	17089.55	16197.8
953.7611	2250.7943	16998.3	16107.75
953.8945	2252.2608	16946.05	16054.6
954.0279	2253.7266	16901.7	16010.6
954.1612	2255.1917	16867.55	15975.4
954.2946	2256.656	16790.1	15896.95
954.4279	2258.1197	16707.9	15817.5
954.5612	2259.5826	16685.55	15793.8
954.6944	2261.0447	16624.1	15731.35
954.8276	2262.5062	16557.15	15664.85
954.9608	2263.9669	16551.85	15655.1
955.094	2265.4269	16471	15581.5
955.2271	2266.8862	16397.45	15505.25
955.3602	2268.3448	16399.7	15508.85
955.4933	2269.8026	16315.65	15424.8
955.6264	2271.2598	16250.8	15359.05
955.7594	2272.7162	16178.75	15288.1
955.8924	2274.1719	16132	15240.55
956.0253	2275.6268	16087.1	15195.9
956.1583	2277.0811	16068	15176.05
956.2912	2278.5346	16026.75	15135.3
956.4241	2279.9874	15986.8	15095.6
956.5569	2281.4395	15957.6	15067.8
956.6897	2282.8908	15859.15	14962.6
956.8225	2284.3414	15838.9	14945.55
956.9553	2285.7914	15746.6	14856.45
957.088	2287.2406	15702.7	14810.25
957.2207	2288.689	15659.55	14766.75
957.3534	2290.1368	15599	14706.8
957.486	2291.5838	15549.8	14657.35
957.6186	2293.0302	15530.8	14635.3
957.7512	2294.4758	15428.2	14536.25
957.8838	2295.9206	15367.05	14474.8
958.0163	2297.3648	15287.05	14395.4
958.1488	2298.8082	15313.7	14420.2
958.2813	2300.251	15266.3	14373.2
958.4137	2301.693	15192.65	14299
958.5461	2303.1343	15193	14301
958.6785	2304.5748	15109.1	14218.65
958.8108	2306.0147	15052.1	14160.85
958.9432	2307.4538	15027.9	14134.6
959.0754	2308.8922	14946.2	14055.6
959.2077	2310.3299	14883.25	13991.5
959.3399	2311.7669	14825.35	13935.75
959.4721	2313.2031	14780.3	13888.4
959.6043	2314.6387	14751.6	13859
959.7365	2316.0735	14676.8	13785.2
959.8686	2317.5076	14670.45	13777.8
960.0006	2318.941	14615.45	13723.65
960.1327	2320.3737	14590.9	13699.4
960.2647	2321.8056	14525.25	13631.55
960.3967	2323.2369	14463.9	13570.05
960.5287	2324.6674	14430.5	13538.05
960.6606	2326.0972	14360.5	13467.95
960.7925	2327.5263	14285.7	13393.95
960.9244	2328.9547	14264.75	13371.85
961.0562	2330.3823	14216.1	13323.95
961.1881	2331.8092	14219.6	13325.55
961.3198	2333.2355	14135.8	13244.45
961.4516	2334.661	14113.65	13221.25
961.5833	2336.0858	14071.85	13177.2
961.715	2337.5098	14006.6	13116.8
961.8467	2338.9332	13991.9	13100.65
961.9783	2340.3558	13935.05	13038.95
962.1099	2341.7778	13837.6	12949.1
962.2415	2343.199	13823.05	12930.6
962.373	2344.6195	13752.2	12861.7
962.5045	2346.0393	13743.05	12854.45
962.636	2347.4583	13692.4	12798.85
962.7675	2348.8767	13648.35	12756.2
962.8989	2350.2943	13609.65	12717.8
963.0303	2351.7113	13583.2	12688.65
963.1617	2353.1275	13523.95	12633.1
963.293	2354.543	13488.1	12572.6
963.4243	2355.9578	13434.35	12543.1
963.5556	2357.3718	13363.3	12471.45
963.6868	2358.7852	13287	12392.35
963.818	2360.1978	13227.9	12336.4
963.9492	2361.6098	13200.25	12309.9
964.0803	2363.021	13161.8	12267.65
964.2114	2364.4315	13113.7	12222.9
964.3425	2365.8413	13064.5	12170.25
964.4736	2367.2504	13027.35	12136.8
964.6046	2368.6587	12961.45	12071.2
964.7356	2370.0664	12907.65	12015
964.8666	2371.4733	12847.9	11954.8
964.9975	2372.8795	12810.85	11919.95
965.1284	2374.285	12757.6	11865.75
965.2593	2375.6899	12687.8	11799.45
965.3901	2377.0939	12643.25	11751.2
965.5209	2378.4973	12594.1	11705.15
965.6517	2379.9	12550.35	11659.7
965.7825	2381.3019	12494.1	11603.1
965.9132	2382.7032	12451.7	11561.2
966.0439	2384.1037	12413.75	11526.1
966.1745	2385.5035	12360.55	11469.4
966.3051	2386.9027	12328.2	11437.55
966.4357	2388.3011	12305.05	11410
966.5663	2389.6987	12236.25	11343.8
966.6968	2391.0957	12209.1	11318.5
966.8273	2392.492	12131.2	11240.2
966.9578	2393.8876	12084.85	11193.1
967.0882	2395.2824	12027.35	11137.35
967.2186	2396.6765	11945.5	11055.9
967.349	2398.07	11902.65	11012.85
967.4793	2399.4627	11887	10995.9
967.6097	2400.8547	11861.3	10971.9
967.7399	2402.246	11808.25	10913.45
967.8702	2403.6366	11747.15	10854.9
968.0004	2405.0265	11701.75	10812.15
968.1306	2406.4156	11658.8	10763.55
968.2607	2407.8041	11610.35	10715.45
968.3909	2409.1918	11554	10661.15
968.521	2410.5789	11529.3	10638.55
968.651	2411.9652	11473.55	10577.8
968.781	2413.3508	11428.55	10539.95
968.911	2414.7358	11388.55	10498.05
969.041	2416.12	11341.75	10453.05
969.1709	2417.5035	11306.75	10416.7
969.3008	2418.8863	11256.25	10362.5
969.4307	2420.2684	11225.25	10334.3
969.5606	2421.6497	11187.75	10295.85
969.6904	2423.0304	11120.5	10229.55
969.8201	2424.4104	11076.55	10185.2
969.9499	2425.7896	11014.05	10120.55
970.0796	2427.1682	11023.35	10133.6
970.2093	2428.546	10977.4	10083.45
970.3389	2429.9232	10957.85	10065.2
970.4685	2431.2996	10931.55	10040.75
970.5981	2432.6753	10900.2	10008.05
970.7277	2434.0503	10864.95	9973.45
970.8572	2435.4246	10806	9915.6
970.9867	2436.7982	10752.75	9859.1
971.1161	2438.1711	10738.1	9848.35
971.2456	2439.5433	10714.4	9822.75
971.375	2440.9148	10650.55	9758.9
971.5043	2442.2856	10617.35	9726.8
971.6336	2443.6557	10595.8	9703.35
971.7629	2445.025	10561.1	9670.45
971.8922	2446.3937	10520.3	9627.45
972.0214	2447.7617	10473.3	9582.2
972.1506	2449.1289	10434.9	9545.75
972.2798	2450.4955	10417.15	9521.55
972.4089	2451.8613	10343.3	9454.25
972.538	2453.2265	10347.45	9454.75
972.6671	2454.5909	10303.85	9411.8
972.7961	2455.9546	10299.35	9409.7
972.9251	2457.3177	10249.15	9358.95
973.0541	2458.68	10233.65	9341.8
973.1831	2460.0416	10206.95	9315.8
973.312	2461.4025	10166.75	9273.6
973.4408	2462.7627	10161.15	9259.15
973.5697	2464.1222	10104.3	9211.2
973.6985	2465.4811	10064.55	9172.85
973.8273	2466.8392	10045.2	9152.3
973.956	2468.1966	10037.65	9143.45
974.0847	2469.5533	9998.25	9105.25
974.2134	2470.9093	9979.6	9086.3
974.3421	2472.2645	9926.95	9034.95
974.4707	2473.6191	9900.6	9009.4
974.5993	2474.973	9861.85	8971.6
974.7278	2476.3262	9815.15	8922.6
974.8563	2477.6787	9771.15	8881.6
974.9848	2479.0305	9726	8836
975.1132	2480.3816	9704.1	8810.85
975.2417	2481.7319	9651.2	8761.55
975.37	2483.0816	9616.1	8723.7
975.4984	2484.4306	9596	8703.35
975.6267	2485.7789	9560.15	8670.05
975.755	2487.1264	9519.05	8627.3
975.8833	2488.4733	9480.35	8590.15
976.0115	2489.8195	9463.7	8564.3
976.1397	2491.165	9399.75	8505.4
976.2678	2492.5097	9378.6	8484.2
976.3959	2493.8538	9310.05	8420.7
976.524	2495.1972	9279.2	8386.9
976.6521	2496.5398	9243.6	8351.6
976.7801	2497.8818	9225.9	8332.75
976.9081	2499.2231	9194.95	8301.3
977.036	2500.5637	9139.8	8245.8
977.164	2501.9035	9095.65	8203.95
977.2918	2503.2427	9083.55	8189.9
977.4197	2504.5812	9036.3	8145.05
977.5475	2505.919	9044.65	8151.75
977.6753	2507.256	9021.75	8128.55
977.8031	2508.5924	8996	8103.35
977.9308	2509.9281	8923.15	8026.3
978.0585	2511.2631	8878.15	7985.3
978.1861	2512.5974	8886.45	7995.05
978.3137	2513.9309	8825.6	7935.45
978.4413	2515.2638	8818.45	7893.1
978.5689	2516.596	8800.8	7910.3
978.6964	2517.9275	8765.35	7872.5
978.8239	2519.2583	8747.9	7855.85
978.9513	2520.5884	8706.3	7816.1
979.0788	2521.9178	8677.6	7787.05
979.2062	2523.2465	8596.75	7705.4
979.3335	2524.5745	8558	7666.7
979.4608	2525.9018	8551.8	7660.4
979.5881	2527.2284	8521.15	7630.95
979.7154	2528.5543	8502	7611.15
979.8426	2529.8796	8490.4	7598.45
979.9698	2531.2041	8469.05	7577.75
980.0969	2532.5279	8458.05	7568
980.224	2533.851	8423.95	7533.1
980.3511	2535.1735	8389.75	7498.5
980.4781	2536.4952	8368.15	7476.75
980.6052	2537.8163	8348.35	7456.8
980.7321	2539.1366	8338.4	7448.45
980.8591	2540.4562	8293.5	7401.4
980.986	2541.7752	8278.4	7386.4
981.1129	2543.0935	8245.9	7353.25
981.2397	2544.411	8239.8	7347.7
981.3665	2545.7279	8210.5	7318.95
981.4933	2547.0441	8175.55	7286.1
981.62	2548.3596	8174.7	7280.95
981.7467	2549.6744	8183.35	7291.9
981.8734	2550.9885	8123.05	7231
982.0001	2552.3019	8113.35	7221.05
982.1267	2553.6146	8084.15	7192.2
982.2532	2554.9266	8040.7	7147.6
982.3798	2556.2379	8027.7	7136.1
982.5063	2557.5485	8006.75	7115.95
982.6327	2558.8585	7986.3	7086.85
982.7592	2560.1677	7987.3	7091.65
982.8856	2561.4762	7974	7081.8
983.0119	2562.7841	7939.45	7044.9
983.1383	2564.0913	7930.2	7040.3
983.2646	2565.3977	7903.75	7011.3
983.3908	2566.7035	7855.1	6963.8
983.517	2568.0086	7854.85	6960.15
983.6432	2569.313	7856.1	6962.75
983.7694	2570.6167	7817.45	6923.05
983.8955	2571.9197	7795.25	6903.6
984.0216	2573.222	7806.6	6912.65
984.1476	2574.5236	7760	6866.8
984.2737	2575.8246	7730.6	6836.95
984.3996	2577.1248	7733.65	6840.2
984.5256	2578.4244	7711.35	6818.3
984.6515	2579.7232	7691.4	6802.7
984.7774	2581.0214	7694.6	6780.75
984.9032	2582.3189	7662.05	6770.45
985.029	2583.6157	7636.85	6741.7
985.1548	2584.9118	7622.5	6730.95
985.2806	2586.2072	7619.1	6729.15
985.4063	2587.5019	7578.1	6686.2
985.5319	2588.7959	7558.9	6666.65
985.6576	2590.0893	7555.1	6663.15
985.7832	2591.3819	7510.3	6618.9
985.9087	2592.6739	7474.9	6585.55
986.0343	2593.9652	7467.55	6575.55
986.1597	2595.2557	7448.7	6558.95
986.2852	2596.5456	7423.4	6530.35
986.4106	2597.8348	7372.7	6481.8
986.536	2599.1234	7353.8	6463.9
986.6614	2600.4112	7343.5	6451.15
986.7867	2601.6983	7306.1	6410.8
986.912	2602.9848	7299.45	6407.7
987.0372	2604.2705	7251.15	6352.65
987.1624	2605.5556	7253.4	6360.7
987.2876	2606.84	7209.6	6316.7
987.4128	2608.1237	7177.45	6283.65
987.5379	2609.4067	7177.35	6286.9
987.6629	2610.689	7137.55	6237.7
987.788	2611.9707	7135.4	6241.15
987.913	2613.2516	7093	6196.65
988.0379	2614.5319	7050.05	6159.15
988.1629	2615.8115	7013	6119.6
988.2878	2617.0903	7005.35	6110.8
988.4126	2618.3685	6968.1	6075.5
988.5375	2619.6461	6940.8	6051.3
988.6622	2620.9229	6933.85	6041.6
988.787	2622.199	6906.55	6013.05
988.9117	2623.4745	6904.9	6011.85
989.0364	2624.7493	6881.45	5992.05
989.161	2626.0234	6856.5	5967.3
989.2857	2627.2968	6846.65	5955.8
989.4102	2628.5695	6793.9	5901.7
989.5348	2629.8415	6763.75	5870.85
989.6593	2631.1128	6728.4	5835.35
989.7837	2632.3835	6714.95	5821.75
989.9082	2633.6535	6664.2	5773.15
990.0326	2634.9228	6661.65	5770.3
990.1569	2636.1914	6646.15	5753.95
990.2812	2637.4593	6612.6	5713.3
990.4055	2638.7265	6599.25	5708.05
990.5298	2639.9931	6590.2	5697.35
990.654	2641.259	6555.2	5662.8
990.7782	2642.5242	6544.35	5651.95
990.9023	2643.7887	6520.3	5628.15
991.0264	2645.0525	6493.8	5603.6
991.1505	2646.3156	6476.05	5582.3
991.2745	2647.5781	6443	5553.6
991.3985	2648.8398	6425.15	5532.5
991.5225	2650.1009	6425.95	5525.4
991.6464	2651.3613	6384.65	5493.65
991.7703	2652.6211	6372.75	5481.15
991.8942	2653.8801	6353.55	5462.1
992.018	2655.1385	6334.55	5440.15
992.1418	2656.3961	6317.35	5425.85
992.2655	2657.6531	6298.95	5406.85
992.3892	2658.9094	6265.35	5373.2
992.5129	2660.1651	6254.05	5363.5
992.6366	2661.42	6272.2	5382.7
992.7602	2662.6743	6250.1	5356.5
992.8837	2663.9279	6232.95	5341.9
993.0073	2665.1808	6206.05	5313.35
993.1307	2666.433	6204.95	5313.05
993.2542	2667.6846	6151.1	5261.15
993.3776	2668.9354	6157.75	5263.35
993.501	2670.1856	6158.1	5263.45
993.6244	2671.4351	6133.3	5241.3
993.7477	2672.6839	6113.05	5219.55
993.8709	2673.9321	6085.85	5193.65
993.9942	2675.1795	6065.2	5173
994.1174	2676.4263	6053.25	5161.35
994.2405	2677.6724	6029.25	5138.25
994.3637	2678.9179	6026.45	5136.15
994.4868	2680.1626	6020.15	5130.4
994.6098	2681.4067	5991.75	5097.9
994.7328	2682.6501	5975.35	5084.1
994.8558	2683.8928	5944.35	5051.9
994.9788	2685.1348	5933.1	5042.65
995.1017	2686.3761	5910.25	5018.15
995.2245	2687.6168	5889.4	4998.25
995.3474	2688.8568	5872.3	4980.35
995.4702	2690.0961	5847.75	4956.15
995.5929	2691.3348	5832.55	4939.75
995.7156	2692.5727	5819	4926.85
995.8383	2693.81	5788.4	4897.7
995.961	2695.0466	5764.8	4875.7
996.0836	2696.2826	5760.2	4866.4
996.2062	2697.5178	5750.95	4858.65
996.3287	2698.7524	5734.7	4843.25
996.4512	2699.9863	5707.2	4812.8
996.5737	2701.2195	5696.85	4807.25
996.6961	2702.452	5703.3	4811.15
996.8185	2703.6839	5670.95	4778.8
996.9408	2704.9151	5649.95	4760.4
997.0631	2706.1456	5623.8	4731.4
997.1854	2707.3755	5615.65	4722
997.3077	2708.6046	5614.7	4719.55
997.4299	2709.8331	5599.55	4705.6
997.552	2711.0609	5588.65	4697.5
997.6742	2712.2881	5576.8	4683.8
997.7963	2713.5145	5571.85	4679.2
997.9183	2714.7403	5549.05	4658.55
998.0403	2715.9654	5543.1	4652.25
998.1623	2717.1899	5550.15	4644.45
998.2842	2718.4136	5520.2	4628.45
998.4062	2719.6367	5518	4626.65
998.528	2720.8591	5496.8	4596.85
998.6498	2722.0809	5495.2	4603.5
998.7716	2723.3019	5476.85	4581.95
998.8934	2724.5223	5489	4596.25
999.0151	2725.7421	5455.05	4562.75
999.1368	2726.9611	5449	4556.4
999.2584	2728.1795	5422.05	4525.15
999.38	2729.3972	5416.95	4525.55
999.5016	2730.6142	5385.95	4486.7
999.6231	2731.8306	5346.3	4452.6
999.7446	2733.0462	5323.25	4429.95
999.8661	2734.2612	5284.3	4387.3
999.9875	2735.4756	5251.05	4359.3
1000.1089	2736.6892	5230.85	4336.8
1000.2302	2737.9022	5192.45	4302.25
1000.3515	2739.1145	5149.9	4259.95
1000.4728	2740.3262	5131.4	4230.5
1000.594	2741.5372	5093.1	4201.8
1000.7152	2742.7475	5074.3	4180.8
1000.8363	2743.9571	5044.55	4149.95
1000.9575	2745.1661	5039.65	4142.45
1001.0785	2746.3744	5012.4	4120.1
1001.1996	2747.582	4981.6	4090
1001.3206	2748.7889	4980.75	4087.65
1001.4415	2749.9952	4944.35	4053.5
1001.5625	2751.2008	4919	4027
1001.6833	2752.4057	4922.1	4026.9
1001.8042	2753.61	4886.3	3993.6
1001.925	2754.8136	4884.8	3990.9
1002.0458	2756.0165	4852.7	3961.15
1002.1665	2757.2188	4857.15	3966.6
1002.2872	2758.4204	4827.25	3935.45
1002.4078	2759.6213	4822.65	3928.45
1002.5285	2760.8215	4806.75	3910.5
1002.649	2762.0211	4798.05	3903.1
1002.7696	2763.22	4763.25	3867.3
1002.8901	2764.4182	4736.6	3841.75
1003.0106	2765.6158	4740.3	3849.3
1003.131	2766.8127	4709.05	3817.55
1003.2514	2768.009	4689.5	3797.45
1003.3717	2769.2045	4690.1	3797.6
1003.492	2770.3994	4677.75	3782.9
1003.6123	2771.5936	4684.95	3793.15
1003.7325	2772.7872	4658.65	3766.85
1003.8527	2773.9801	4635.15	3743
1003.9729	2775.1723	4633.35	3725.1
1004.093	2776.3639	4574.15	3684.45
1004.2131	2777.5548	4578.8	3685.15
1004.3331	2778.745	4568.2	3675.9
1004.4531	2779.9346	4551.75	3659.55
1004.5731	2781.1235	4560.7	3669.8
1004.693	2782.3117	4529.85	3637.75
1004.8129	2783.4992	4529.9	3636.45
1004.9328	2784.6861	4501.8	3609.3
1005.0526	2785.8723	4509	3615.85
1005.1723	2787.0579	4510.75	3617.25
1005.2921	2788.2428	4480.35	3590.4
1005.4118	2789.427	4489.25	3597.25
1005.5314	2790.6106	4485.1	3592.95
1005.651	2791.7935	4490.15	3597.55
1005.7706	2792.9757	4476.75	3584.95
1005.8902	2794.1573	4484.45	3592.35
1006.0097	2795.3382	4475.95	3585.65
1006.1291	2796.5184	4459.15	3569
1006.2485	2797.698	4479.95	3586.65
1006.3679	2798.8769	4476.3	3584.5
1006.4873	2800.0551	4479.1	3587.05
1006.6066	2801.2327	4470.4	3574.9
1006.7258	2802.4096	4476.9	3586.7
1006.8451	2803.5859	4485.95	3593.55
1006.9642	2804.7615	4497.5	3603.9
1007.0834	2805.9364	4506.2	3618.2
1007.2025	2807.1106	4520.95	3630.75
1007.3216	2808.2842	4537.65	3645.65
1007.4406	2809.4572	4549.75	3655.8
1007.5596	2810.6294	4593.45	3701.45
1007.6785	2811.801	4626.65	3736.5
1007.7975	2812.972	4640.35	3748.2
1007.9163	2814.1423	4670.55	3779.7
1008.0352	2815.3119	4715.8	3823.95
1008.154	2816.4808	4744.65	3853.65
1008.2727	2817.6491	4776.95	3887.3
1008.3914	2818.8167	4821.9	3929.8
1008.5101	2819.9837	4860.9	3962.85
1008.6288	2821.15	4891.45	3999.65
1008.7474	2822.3157	4932.6	4041.8
1008.8659	2823.4807	4954.35	4061.25
1008.9844	2824.645	5006	4113.3
1009.1029	2825.8086	5046.1	4155.9
1009.2214	2826.9716	5065	4173.2
1009.3398	2828.134	5095.4	4203.45
1009.4581	2829.2957	5125.2	4232.55
1009.5764	2830.4567	5137.35	4246.3
1009.6947	2831.617	5129.75	4236.65
1009.813	2832.7767	5158.55	4266.3
1009.9312	2833.9358	5152.8	4262.1
1010.0493	2835.0941	5130.9	4237.3
1010.1675	2836.2519	5124.95	4232.6
1010.2855	2837.4089	5088.8	4197.05
1010.4036	2838.5653	5091.3	4200.65
1010.5216	2839.7211	5075.35	4185.55
1010.6396	2840.8761	5069.95	4177.25
1010.7575	2842.0306	5089.45	4197.75
1010.8754	2843.1843	5127.45	4236.4
1010.9932	2844.3374	5151.55	4259.15
1011.111	2845.4899	5203.6	4312.45
1011.2288	2846.6417	5261.35	4372.65
1011.3465	2847.7928	5333.75	4442.45
1011.4642	2848.9433	5391.4	4498.95
1011.5818	2850.0931	5468.05	4578
1011.6995	2851.2422	5548	4652.9
1011.817	2852.3907	5611.35	4720.15
1011.9345	2853.5385	5681.5	4790.1
1012.052	2854.6857	5744.85	4829.35
1012.1695	2855.8323	5761.8	4870.45
1012.2869	2856.9781	5799.9	4908.25
1012.4042	2858.1233	5820.35	4929.4
1012.5216	2859.2679	5894.25	5001.55
1012.6389	2860.4118	5892.45	5001.2
1012.7561	2861.555	5920.95	5024.15
1012.8733	2862.6976	5948.25	5053.9
1012.9905	2863.8395	5965.25	5075.9
1013.1076	2864.9808	5990.95	5100.95
1013.2247	2866.1214	6005.85	5115.6
1013.3417	2867.2614	5999.9	5109.3
1013.4587	2868.4007	5993.95	5102
1013.5757	2869.5393	5991.8	5097.65
1013.6926	2870.6773	5996.95	5103.15
1013.8095	2871.8146	6000.15	5103.65
1013.9263	2872.9513	5996.35	5103.75
1014.0431	2874.0874	5993.9	5102.5
1014.1599	2875.2227	5978.2	5085.35
1014.2766	2876.3574	5937.1	5044.6
1014.3933	2877.4915	5903.35	5009.9
1014.51	2878.6249	5870.95	4979.75
1014.6266	2879.7577	5838.2	4946.05
1014.7431	2880.8898	5806.55	4906.05
1014.8596	2882.0212	5773.3	4884
1014.9761	2883.152	5749.75	4859.7
1015.0925	2884.2821	5729.5	4839.65
1015.2089	2885.4116	5710	4820.05
1015.3253	2886.5405	5687.55	4796.4
1015.4416	2887.6686	5705.4	4810.85
1015.5579	2888.7962	5696.5	4807.1
1015.6741	2889.923	5702.65	4813.05
1015.7903	2891.0493	5688.55	4797.5
1015.9065	2892.1748	5694.4	4801.9
1016.0226	2893.2997	5697.1	4805.3
1016.1387	2894.424	5684.3	4792.65
1016.2547	2895.5476	5717.15	4827.75
1016.3707	2896.6706	5722.25	4830.95
1016.4866	2897.7929	5732.15	4841.55
1016.6025	2898.9145	5755.4	4864.85
1016.7184	2900.0355	5781.95	4891.8
1016.8342	2901.1559	5801.05	4908.85
1016.95	2902.2756	5830.7	4939.2
1017.0658	2903.3946	5847.35	4956.45
1017.1815	2904.513	5853.1	4958.75
1017.2971	2905.6308	5868.65	4977.05
1017.4127	2906.7479	5876.8	4983.3
1017.5283	2907.8643	5917.35	5024.6
1017.6439	2908.9801	5919.2	5029.5
1017.7594	2910.0953	5912.7	5023.1
1017.8748	2911.2098	5909.9	5014.45
1017.9902	2912.3236	5882.6	4983.2
1018.1056	2913.4368	5881.2	4986.95
1018.2209	2914.5494	5841	4950.65
1018.3362	2915.6613	5796.6	4900.05
1018.4515	2916.7725	5791.6	4899.15
1018.5667	2917.8831	5738.35	4846.8
1018.6819	2918.9931	5687.6	4793.05
1018.797	2920.1024	5671.45	4777.9
1018.9121	2921.211	5649.45	4757.65
1019.0271	2922.319	5608.7	4717.1
1019.1421	2923.4264	5592	4702.2
1019.2571	2924.5331	5573.25	4684.2
1019.372	2925.6391	5546.9	4656.85
1019.4869	2926.7445	5512.15	4622.35
1019.6017	2927.8493	5516.25	4623.7
1019.7165	2928.9534	5498.05	4607.3
1019.8313	2930.0569	5492.65	4597.9
1019.946	2931.1597	5458	4563.55
1020.0606	2932.2619	5442.25	4554.45
1020.1753	2933.3634	5428.65	4538.85
1020.2899	2934.4643	5426.05	4528.55
1020.4044	2935.5645	5391.25	4493.2
1020.5189	2936.6641	5346	4451.75
1020.6334	2937.763	5293.3	4403.8
1020.7478	2938.8613	5243.7	4351.35
1020.8622	2939.959	5186.85	4292
1020.9765	2941.056	5085.1	4194.05
1021.0908	2942.1523	5001.05	4109.4
1021.2051	2943.248	4913.05	4020.85
1021.3193	2944.3431	4798.85	3908
1021.4334	2945.4375	4670.35	3779.25
1021.5476	2946.5313	4590.15	3699.95
1021.6617	2947.6244	4468.15	3577.7
1021.7757	2948.7169	4353.9	3461
1021.8897	2949.8087	4256.85	3364.7
1022.0037	2950.8999	4158.6	3265.75
1022.1176	2951.9904	4062.85	3172.05
1022.2315	2953.0803	3995.6	3101.8
1022.3453	2954.1696	3911.1	3020.85
1022.4591	2955.2582	3850.75	2959.55
1022.5728	2956.3462	3790.2	2898.95
1022.6865	2957.4335	3751.05	2859.4
1022.8002	2958.5202	3700	2805.3
1022.9138	2959.6062	3659.4	2767.75
1023.0274	2960.6916	3638.45	2746.25
1023.141	2961.7764	3599.45	2709.15
1023.2545	2962.8605	3580.5	2687.25
1023.3679	2963.9439	3567.6	2676.5
1023.4813	2965.0267	3544.2	2652.85
1023.5947	2966.1089	3542.4	2628
1023.708	2967.1905	3518.45	2624.65
1023.8213	2968.2714	3511.7	2622.55
1023.9346	2969.3516	3488.25	2596.3
1024.0478	2970.4312	3506.6	2607.2
1024.1609	2971.5102	3498.5	2606.95
1024.274	2972.5885	3485.35	2595.45
1024.3871	2973.6662	3482.45	2588.5
1024.5002	2974.7432	3468.6	2577.9
1024.6132	2975.8196	3453.95	2561.45
1024.7261	2976.8954	3434.8	2546.75
1024.839	2977.9705	3402.85	2512.2
1024.9519	2979.045	3394.2	2503.6
1025.0647	2980.1188	3363	2471.75
1025.1775	2981.192	3340.35	2451.85
1025.2902	2982.2645	3323.3	2431.7
1025.4029	2983.3364	3281.8	2390.7
1025.5156	2984.4077	3239.35	2349.95
1025.6282	2985.4783	3218	2322.6
1025.7407	2986.5483	3173.5	2284.55
1025.8532	2987.6177	3127.1	2235.45
1025.9657	2988.6864	3090.4	2200
1026.0782	2989.7545	3066.2	2174.1
1026.1906	2990.8219	3029.15	2138.35
1026.3029	2991.8887	2987.35	2094.65
1026.4152	2992.9548	2946.3	2055.35
1026.5275	2994.0204	2917.25	2027.2
1026.6397	2995.0852	2881.6	1992.05
1026.7519	2996.1495	2848.85	1956.8
1026.864	2997.2131	2820.65	1927.35
1026.9761	2998.276	2791.85	1902
1027.0882	2999.3383	2762.95	1871.15
1027.2002	3000.4	2748.6	1857.2
1027.3122	3001.4611	2729.65	1837.75
1027.4241	3002.5215	2704.75	1813.75
1027.536	3003.5812	2685.95	1795.2
1027.6478	3004.6404	2673.45	1783
1027.7596	3005.6989	2647.45	1754.8
1027.8714	3006.7567	2640.8	1748.5
1027.9831	3007.8139	2647.55	1733.1
1028.0947	3008.8705	2601	1708.85
1028.2064	3009.9264	2617.75	1709.1
1028.3179	3010.9818	2596.3	1705.55
1028.4295	3012.0364	2589.55	1698.85
1028.541	3013.0905	2582.05	1693
1028.6524	3014.1439	2570.4	1680.3
1028.7638	3015.1966	2558.9	1668.3
1028.8752	3016.2487	2555.9	1665.8
1028.9865	3017.3002	2561.8	1664.25
1029.0978	3018.3511	2546.4	1655.05
1029.209	3019.4013	2547.7	1657.15
1029.3202	3020.4509	2535.2	1645.4
1029.4314	3021.4998	2536.35	1643.9
1029.5425	3022.5481	2541.95	1650.9
1029.6535	3023.5958	2533	1640.45
1029.7645	3024.6428	2540.1	1648
1029.8755	3025.6892	2523.4	1632.85
1029.9864	3026.735	2511.05	1620.75
1030.0973	3027.7802	2512.95	1620.1
1030.2082	3028.8247	2514.75	1624.05
1030.319	3029.8685	2494.65	1603.95
1030.4297	3030.9118	2508.2	1614.7
1030.5404	3031.9544	2506.95	1615.8
1030.6511	3032.9963	2501.4	1611.1
1030.7617	3034.0376	2495.3	1603.05
1030.8723	3035.0783	2504.1	1611.75
1030.9829	3036.1184	2501.95	1608.8
1031.0934	3037.1578	2499.45	1608.4
1031.2038	3038.1966	2495.55	1604.95
1031.3142	3039.2348	2486.05	1595.35
1031.4246	3040.2723	2486.7	1587.05
1031.5349	3041.3092	2480.8	1591.5
1031.6452	3042.3455	2472.05	1581.05
1031.7554	3043.3811	2460	1569.85
1031.8656	3044.4161	2455.15	1566.65
1031.9758	3045.4505	2447.45	1557.35
1032.0859	3046.4842	2444.8	1553.05
1032.1959	3047.5173	2425.05	1537.3
1032.3059	3048.5498	2414.25	1524.85
1032.4159	3049.5816	2404.75	1513.25
1032.5258	3050.6128	2394.3	1502.65
1032.6357	3051.6434	2377.15	1484.1
1032.7455	3052.6734	2375.2	1482.4
1032.8553	3053.7027	2363.9	1475.95
1032.9651	3054.7314	2351.65	1460.5
1033.0748	3055.7594	2335.25	1446.25
1033.1845	3056.7868	2334.55	1442.4
1033.2941	3057.8136	2322.2	1431.2
1033.4037	3058.8398	2311.05	1421.7
1033.5132	3059.8653	2294.2	1402.7
1033.6227	3060.8902	2288.3	1397.9
1033.7321	3061.9145	2269.95	1378.25
1033.8415	3062.9381	2276.05	1385.7
1033.9509	3063.9612	2268.85	1363.05
1034.0602	3064.9835	2252.6	1363.9
1034.1694	3066.0053	2242.5	1350.55
1034.2787	3067.0264	2217.7	1326.95
1034.3878	3068.0469	2219.7	1328.4
1034.497	3069.0668	2210.4	1316.35
1034.6061	3070.086	2193.1	1302.75
1034.7151	3071.1046	2187.65	1296
1034.8241	3072.1226	2175.65	1283.55
1034.9331	3073.1399	2163.8	1274.3
1035.042	3074.1567	2149.4	1258.05
1035.1508	3075.1727	2137.25	1243.3
1035.2597	3076.1882	2126.35	1236.35
1035.3684	3077.203	2107.65	1217.6
1035.4772	3078.2173	2098.85	1207.85
1035.5859	3079.2308	2089.75	1197.9
1035.6945	3080.2438	2066.55	1172.8
1035.8031	3081.2561	2052.05	1162.8
1035.9117	3082.2678	2038.15	1149
1036.0202	3083.2789	2036.4	1147.3
1036.1286	3084.2893	2027.65	1137.8
1036.2371	3085.2991	2021.35	1128.9
1036.3454	3086.3083	2020.55	1126.05
1036.4538	3087.3169	2000.3	1108.35
1036.562	3088.3248	1987.8	1096.15
1036.6703	3089.3321	1985.7	1095.25
1036.7785	3090.3388	1977.05	1087.3
1036.8866	3091.3449	1963.3	1073.6
1036.9948	3092.3503	1962.5	1069.8
1037.1028	3093.3551	1948.1	1057.9
1037.2108	3094.3593	1947.7	1058.15
1037.3188	3095.3629	1944.15	1054.9
1037.4267	3096.3658	1938.1	1046.95
1037.5346	3097.3681	1923.9	1035.55
1037.6425	3098.3698	1916.45	1025.4
1037.7503	3099.3708	1918.95	1021.05
1037.858	3100.3713	1894.85	1003.5
1037.9657	3101.3711	1897.8	1005.25
1038.0734	3102.3702	1992.35	991.9
1038.181	3103.3688	1887.55	994.2
1038.2886	3104.3667	1875.5	987.35
1038.3961	3105.364	1858.45	966.65
1038.5036	3106.3607	1858.35	967.05
1038.611	3107.3568	1857.3	964.6
1038.7184	3108.3522	1843.9	951.75
1038.8257	3109.347	1841.95	949.6
1038.933	3110.3412	1848	955.8
1039.0403	3111.3348	1828.85	937.75
1039.1475	3112.3277	1821.4	930.7
1039.2547	3113.32	1815.1	924.65
1039.3618	3114.3117	1810.5	920.35
1039.4689	3115.3028	1815.7	926.3
1039.5759	3116.2932	1811.1	916.75
1039.6829	3117.2831	1805.85	911.15
1039.7898	3118.2723	1795.7	904.4
1039.8967	3119.2608	1794.55	906.2
1040.0035	3120.2488	1782.3	891.8
1040.1103	3121.2361	1776.5	883.55
1040.2171	3122.2229	1776.3	885.4
1040.3238	3123.209	1768.05	877.05
1040.4305	3124.1944	1771.5	881.4
1040.5371	3125.1793	1759.7	868.65
1040.6437	3126.1635	1756.75	867.25
1040.7502	3127.1471	1754.95	863.8
1040.8567	3128.1301	1748.1	859.5
1040.9631	3129.1125	1744.95	855.15
1041.0695	3130.0942	1730.8	839.15
1041.1759	3131.0753	1737.6	838.2
1041.2822	3132.0558	1734	840.6
1041.3884	3133.0357	1717.05	826.1
1041.4946	3134.015	1725.1	833.45
1041.6008	3134.9936	1712.75	822.7
1041.7069	3135.9716	1727.1	815.75
1041.813	3136.949	1719.8	830.75
1041.919	3137.9258	1710.7	816.9
1042.025	3138.902	1701.6	807.9
1042.1309	3139.8775	1697.1	807.95
1042.2368	3140.8524	1696.4	806
1042.3427	3141.8267	1691.2	797.75
1042.4485	3142.8004	1688.6	797.6
1042.5542	3143.7735	1686.55	791.55
1042.6599	3144.7459	1678.4	785.85
1042.7656	3145.7178	1675.85	785.4
1042.8712	3146.689	1674.25	785.95
1042.9768	3147.6596	1661.85	770.3
1043.0823	3148.6295	1665.05	773.55
1043.1878	3149.5989	1667.65	775.45
1043.2932	3150.5676	1658.4	769.9
1043.3986	3151.5357	1655.55	764.6
1043.5039	3152.5032	1641.05	751.7
1043.6092	3153.4701	1636	746
1043.7145	3154.4364	1637.9	746.45
1043.8197	3155.402	1632.95	744.45
1043.9248	3156.367	1627.3	733.2
1044.03	3157.3315	1653.6	722.2
1044.135	3158.2952	1609.75	718
1044.24	3159.2584	1605.8	715.95
1044.345	3160.221	1615.2	725.05
1044.4499	3161.1829	1607.4	716.35
1044.5548	3162.1442	1598.95	707.8
1044.6596	3163.105	1595.05	706.05
1044.7644	3164.065	1593.85	702.7
1044.8692	3165.0245	1582.8	688.65
1044.9739	3165.9834	1581.05	689.5
1045.0785	3166.9416	1582.6	694.2
1045.1831	3167.8993	1570.5	678.55
1045.2877	3168.8563	1569.4	679.15
1045.3922	3169.8127	1568.1	679.95
1045.4966	3170.7684	1566.3	675.85
1045.6011	3171.7236	1559.35	666.65
1045.7054	3172.6782	1555.15	664.4
1045.8098	3173.6321	1549.9	658.65
1045.914	3174.5854	1548.65	653.85
1046.0183	3175.5381	1543.2	653.7
1046.1224	3176.4902	1540.9	652.45
1046.2266	3177.4417	1539.8	651.25
1046.3307	3178.3926	1527.4	637.55
1046.4347	3179.3428	1534.4	645.9
1046.5387	3180.2924	1530.4	640.05
1046.6427	3181.2415	1520.2	630.85
1046.7466	3182.1899	1512.45	621.5
1046.8504	3183.1377	1516.25	626.4
1046.9542	3184.0848	1518.25	626.65
1047.058	3185.0314	1505.6	614.15
1047.1617	3185.9773	1500.8	611.85
1047.2654	3186.9227	1505.6	614.7
1047.369	3187.8674	1498.5	609.55
1047.4726	3188.8115	1501.9	608.9
1047.5761	3189.755	1493.6	604.15
1047.6796	3190.6979	1492.95	602.35
1047.783	3191.6402	1488.8	600.35
1047.8864	3192.5818	1488.8	598.15
1047.9898	3193.5229	1507.65	593.75
1048.0931	3194.4633	1486.8	596.25
1048.1963	3195.4031	1478.9	589.2
1048.2995	3196.3423	1471.75	583.4
1048.4027	3197.2809	1469.05	579.45
1048.5058	3198.2189	1470.5	581.5
1048.6089	3199.1563	1481.65	577.45
1048.7119	3200.0931	1462.1	570.85
1048.8148	3201.0292	1460.45	570.25
1048.9178	3201.9648	1462.05	571.1
1049.0206	3202.8997	1451.45	558.75
1049.1235	3203.834	1450.25	558.8
1049.2262	3204.7677	1446.9	557.15
1049.329	3205.7008	1441.75	551.4
1049.4317	3206.6333	1442.2	553.4
1049.5343	3207.5652	1439.15	547.85
1049.6369	3208.4964	1431.75	541.15
1049.7394	3209.4271	1428.8	539.8
1049.8419	3210.3571	1429.55	540.65
1049.9444	3211.2865	1425.15	533.95
1050.0468	3212.2154	1427.5	535.85
1050.1491	3213.1436	1431.85	539.55
1050.2514	3214.0712	1419.1	522.65
1050.3537	3214.9982	1414.9	524.45
1050.4559	3215.9246	1412.7	521.75
1050.5581	3216.8503	1411.3	522.95
1050.6602	3217.7755	1409.15	517.25
1050.7623	3218.7001	1405.65	516.3
1050.8643	3219.624	1400.95	510.4
1050.9663	3220.5473	1393.8	504.45
1051.0682	3221.4701	1399.4	509.9
1051.1701	3222.3922	1394.05	500.05
1051.2719	3223.3137	1394.85	505.15
1051.3737	3224.2346	1388.6	499.35
1051.4754	3225.1549	1383.95	492.2
1051.5771	3226.0746	1384.4	495.4
1051.6788	3226.9937	1383.65	493.6
1051.7804	3227.9121	1383.15	493.45
1051.8819	3228.83	1369.5	480.85
1051.9834	3229.7473	1371.55	480.7
1052.0849	3230.6639	1372.35	482.15
1052.1863	3231.5799	1375.35	486.85
1052.2876	3232.4954	1362.5	471.6
1052.3889	3233.4102	1364.35	475.45
1052.4902	3234.3244	1366.3	475.95
1052.5914	3235.238	1354.35	465.2
1052.6926	3236.151	1387.35	472.15
1052.7937	3237.0634	1351.05	461.7
1052.8948	3237.9752	1349.05	460.55
1052.9958	3238.8864	1349.65	457.6
1053.0968	3239.797	1346.8	457.05
1053.1977	3240.7069	1345.3	453.65
1053.2986	3241.6163	1340.35	448.4
1053.3994	3242.5251	1330.8	443.35
1053.5002	3243.4332	1331.7	442.15
1053.6009	3244.3408	1331.6	441.4
1053.7016	3245.2477	1324.05	436.3
1053.8022	3246.154	1327.5	436.05
1053.9028	3247.0598	1318.75	428.35
1054.0034	3247.9649	1316.45	424
1054.1039	3248.8694	1323.75	432.15
1054.2043	3249.7733	1315.75	425.45
1054.3047	3250.6766	1312.7	421.55
1054.4051	3251.5793	1311	420.5
1054.5054	3252.4814	1302.4	413.5
1054.6056	3253.3829	1305.2	416.55
1054.7058	3254.2838	1298.2	409.75
1054.806	3255.1841	1293.65	405.05
1054.9061	3256.0838	1291.65	402.25
1055.0061	3256.9829	1295.8	405.5
1055.1062	3257.8814	1289.95	398
1055.2061	3258.7792	1287	393.3
1055.306	3259.6765	1286.45	393.9
1055.4059	3260.5731	1277.95	390.7
1055.5057	3261.4692	1270.05	381.35
1055.6055	3262.3647	1272.65	382.95
1055.7052	3263.2595	1259	371.3
1055.8049	3264.1538	1265.35	375
1055.9045	3265.0474	1252.9	363.8
1056.0041	3265.9404	1243.1	353.2
1056.1036	3266.8329	1241.05	351.85
1056.2031	3267.7247	1241.65	341.1
1056.3025	3268.616	1226.3	338.3
1056.4019	3269.5066	1218.65	332.25
1056.5013	3270.3966	1215.1	323.4
1056.6005	3271.286	1201	311.4
