Software Version:	3.9.2.0
Unit SN:	10000200
Spectrometer SN:	6960
Date:	3/6/2024 10:51:21 AM
Data Line Index:	25
Spectral Points:	2048
Integration time (ms):	125
Averages:	20
Delay (ms):	30
Sequence Number:	1
Processing:	dark subtract
Laser Power (mW):	300
Laser Current (mA):	822
Laser Diode Temp (C):	25
Laser Case Temp (C):	27.6
System Temp (C):	27.5
Spectrometer Temp (C):	24.9
CCD Temp (C):	0.009
Secondary Temp (C):	20.008
Heatsink Temp (C):	23.16
CCDPCB Temp (C):	36.94
SecondaryPCB Temp (C):	34.162

Wavelength	RamanShift	Raw Counts	Dark Subtracted
787.061	30.1047	1130.8	715.45
787.2016	32.3739	1162.8	752.05
787.3422	34.6426	1198.35	784.55
787.4828	36.9109	1252.9	839.1
787.6235	39.1787	1306.15	888.05
787.7642	41.4461	1368.7	945.25
787.9049	43.7131	1432.1	1005.45
788.0456	45.9796	1496.75	1066.5
788.1863	48.2456	1571.35	1136.8
788.3271	50.5112	1642.05	1203.3
788.4679	52.7764	1707.55	1267.8
788.6087	55.0411	1792.95	1349.35
788.7496	57.3054	1871.2	1421
788.8904	59.5692	1966.75	1514
789.0313	61.8326	2063.7	1609
789.1722	64.0955	2170.65	1712
789.3132	66.3579	2286.25	1821.75
789.4541	68.6199	2442.15	1974.6
789.5951	70.8815	2705.75	2237.4
789.7361	73.1426	3219.25	2744.95
789.8771	75.4032	4500.7	4020.35
790.0181	77.6634	7800.35	7314.45
790.1592	79.9231	16332.65	15841.45
790.3003	82.1824	53642.7	53145.1
790.4414	84.4412	65535	65019.15
790.5825	86.6995	65535	64998.35
790.7237	88.9574	65535	64972.8
790.8648	91.2148	65535	64958.65
791.006	93.4717	65535	64943.8
791.1472	95.7282	65535	64942.6
791.2885	97.9842	65535	64939.3
791.4297	100.2398	65535	64930.25
791.571	102.4949	65535	64933.65
791.7123	104.7495	65535	64930.3
791.8536	107.0036	65535	64926.2
791.9949	109.2573	65535	64927.35
792.1363	111.5105	65535	64924.65
792.2777	113.7632	65535	64927.2
792.4191	116.0154	65535	64915.45
792.5605	118.2672	65535	64919
792.7019	120.5185	65535	64917.25
792.8434	122.7693	65535	64914.3
792.9849	125.0197	65535	64910.25
793.1264	127.2696	65535	64908.65
793.2679	129.519	65535	64902.35
793.4094	131.7679	65535	64905.8
793.551	134.0163	65535	64900.1
793.6926	136.2642	65535	64897.45
793.8342	138.5117	65535	64886.95
793.9758	140.7587	65535	64894.5
794.1175	143.0052	65535	64889.1
794.2591	145.2512	65535	64888.5
794.4008	147.4967	65535	64888.8
794.5425	149.7417	65535	64883.45
794.6842	151.9863	65535	64883.5
794.826	154.2304	65535	64879.65
794.9677	156.4739	65535	64871.25
795.1095	158.717	65535	64873.95
795.2513	160.9596	65535	64868.55
795.3931	163.2017	65535	64869.7
795.535	165.4433	65535	64865.9
795.6768	167.6844	65535	64862.9
795.8187	169.925	65535	64862.25
795.9606	172.1651	65535	64859.85
796.1025	174.4047	65535	64852.6
796.2445	176.6439	65535	64852.05
796.3864	178.8825	65535	64848.95
796.5284	181.1206	65535	64844.75
796.6704	183.3582	65535	64842.95
796.8124	185.5954	65535	64843.1
796.9544	187.832	65535	64836.1
797.0965	190.0681	65535	64834.65
797.2386	192.3037	65535	64832.05
797.3806	194.5388	65535	64832.8
797.5228	196.7734	65535	64823.75
797.6649	199.0075	65535	64824.6
797.807	201.2411	65535	64820.55
797.9492	203.4742	65535	64821.3
798.0914	205.7068	65535	64821.8
798.2336	207.9389	65535	64819.25
798.3758	210.1704	65535	64813.5
798.518	212.4015	65535	64810.55
798.6603	214.632	65535	64824.05
798.8025	216.862	65535	64830.55
798.9448	219.0915	65535	64834.75
799.0871	221.3205	65535	64831.15
799.2294	223.549	65535	64834.6
799.3718	225.777	65535	64833.4
799.5141	228.0044	65535	64832.35
799.6565	230.2314	65535	64834.55
799.7989	232.4578	65535	64831.35
799.9413	234.6837	65535	64820.7
800.0837	236.909	65535	64821.55
800.2262	239.1339	65535	64794.75
800.3687	241.3582	65535	64810.75
800.5111	243.582	65535	64777.9
800.6536	245.8053	65535	64794.3
800.7961	248.0281	65535	64795.6
800.9387	250.2503	65535	64794.45
801.0812	252.472	65535	64783.4
801.2238	254.6932	65535	64785.85
801.3664	256.9139	65535	64785.9
801.509	259.134	65535	64783
801.6516	261.3536	65535	64784.9
801.7942	263.5727	65535	64782.35
801.9369	265.7912	65535	64785.2
802.0795	268.0092	65535	64781.35
802.2222	270.2267	65535	64782.7
802.3649	272.4436	65535	64781.2
802.5076	274.6601	65535	64774.05
802.6504	276.8759	65535	64776.7
802.7931	279.0913	65535	64773.15
802.9359	281.3061	65535	64770.45
803.0787	283.5204	65535	64772.85
803.2215	285.7341	65535	64766.95
803.3643	287.9473	65535	64755.2
803.5071	290.16	65535	64759.4
803.6499	292.3721	65535	64765.85
803.7928	294.5837	65535	64769.4
803.9357	296.7947	65535	64768.75
804.0786	299.0052	65535	64766.8
804.2215	301.2152	65535	64764.45
804.3644	303.4246	65535	64766.55
804.5074	305.6334	65535	64765.45
804.6503	307.8418	65535	64762.8
804.7933	310.0495	65535	64762.15
804.9363	312.2568	65535	64764.2
805.0793	314.4635	65535	64761.4
805.2223	316.6696	65535	64756.5
805.3653	318.8752	65535	64751
805.5084	321.0802	65535	64756.25
805.6514	323.2847	65535	64756.5
805.7945	325.4887	65535	64753.95
805.9376	327.692	65535	64754.35
806.0807	329.8949	65535	64753.75
806.2238	332.0972	65535	64752
806.367	334.2989	65535	64746.7
806.5101	336.5001	65535	64745.85
806.6533	338.7007	65535	64743.5
806.7965	340.9008	65535	64743.2
806.9397	343.1003	65535	64739.1
807.0829	345.2992	65535	64741.55
807.2261	347.4976	65535	64741.35
807.3693	349.6955	65535	64735.15
807.5126	351.8927	65535	64737.1
807.6559	354.0895	65535	64725.2
807.7991	356.2856	65535	64735.65
807.9424	358.4812	65535	64736.2
808.0857	360.6763	65535	64734.3
808.2291	362.8707	65535	64731.25
808.3724	365.0646	65535	64728.35
808.5158	367.258	65535	64726.35
808.6591	369.4508	65535	64724.75
808.8025	371.643	65535	64721.6
808.9459	373.8346	65535	64723.65
809.0893	376.0257	65535	64717.85
809.2327	378.2162	65535	64722
809.3762	380.4062	65535	64715.55
809.5196	382.5956	65535	64716.6
809.6631	384.7844	65535	64719.25
809.8066	386.9726	65535	64718.45
809.9501	389.1603	65535	64719.9
810.0936	391.3474	65535	64677.65
810.2371	393.5339	65535	64714.85
810.3806	395.7199	65535	64725.2
810.5241	397.9052	65535	64726.95
810.6677	400.09	65535	64724.65
810.8113	402.2743	65535	64723.4
810.9548	404.4579	65535	64725.25
811.0984	406.641	65535	64724.4
811.2421	408.8235	65535	64721.35
811.3857	411.0054	65535	64723.5
811.5293	413.1868	65535	64719.35
811.673	415.3675	65535	64717.5
811.8166	417.5477	65535	64715.1
811.9603	419.7273	65535	64711.5
812.104	421.9064	65535	64706.05
812.2477	424.0848	65535	64709.7
812.3914	426.2627	65535	64707.6
812.5351	428.4399	65535	64707.55
812.6788	430.6166	65535	64702.15
812.8226	432.7928	65535	64699.9
812.9663	434.9683	65535	64704.75
813.1101	437.1432	65535	64699.8
813.2539	439.3176	65535	64700.6
813.3977	441.4914	65535	64699.45
813.5415	443.6645	65535	64699.15
813.6853	445.8371	65535	64700.15
813.8291	448.0091	65535	64699.35
813.973	450.1806	65535	64698.9
814.1168	452.3514	65535	64700.1
814.2607	454.5216	65535	64690.3
814.4046	456.6913	65535	64697.4
814.5485	458.8603	65535	64699.6
814.6924	461.0288	65535	64698.15
814.8363	463.1967	65535	64699.55
814.9802	465.3639	65535	64694.05
815.1241	467.5306	65535	64698.6
815.2681	469.6967	65535	64697.65
815.412	471.8622	65535	64696.45
815.556	474.0271	65535	64695.35
815.7	476.1914	65535	64690
815.844	478.3551	65535	64693.55
815.988	480.5182	65535	64692.9
816.132	482.6807	65535	64692.75
816.276	484.8426	65535	64693.9
816.4201	487.0039	65535	64689.35
816.5641	489.1647	65535	64691.1
816.7082	491.3248	65535	64689.55
816.8522	493.4843	65535	64690.5
816.9963	495.6432	65535	64688.75
817.1404	497.8015	65535	64689.65
817.2845	499.9592	65535	64685.45
817.4286	502.1163	65535	64689.15
817.5727	504.2728	65535	64686.25
817.7168	506.4287	65535	64688.85
817.861	508.5839	65535	64685.7
818.0051	510.7386	65535	64685.25
818.1493	512.8927	65535	64681.55
818.2935	515.0461	65535	64690.1
818.4377	517.199	65535	64683.15
818.5818	519.3512	65535	64684.6
818.726	521.5029	65535	64678.55
818.8703	523.6539	65535	64681.55
819.0145	525.8043	65535	64682.65
819.1587	527.9541	65535	64681.25
819.303	530.1033	65535	64681.6
819.4472	532.2519	65535	64677.6
819.5915	534.3999	65535	64678.7
819.7357	536.5472	65535	64679.25
819.88	538.694	65535	64677.55
820.0243	540.8401	65535	64679.55
820.1686	542.9856	65535	64674.55
820.3129	545.1305	65535	64677.1
820.4572	547.2748	65535	64675.05
820.6016	549.4185	65535	64673.65
820.7459	551.5615	65535	64674.25
820.8902	553.704	65535	64676.1
821.0346	555.8458	65535	64679
821.1789	557.987	65535	64677.4
821.3233	560.1276	65535	64674.75
821.4677	562.2675	65535	64677.05
821.6121	564.4069	65535	64676
821.7565	566.5456	65535	64677.1
821.9009	568.6837	65535	64675.05
822.0453	570.8212	65535	64673.05
822.1897	572.958	65535	64671.35
822.3342	575.0942	65535	64677.5
822.4786	577.2299	65535	64675.45
822.6231	579.3648	65535	64675.3
822.7675	581.4992	65535	64675.65
822.912	583.6329	65535	64673.5
823.0565	585.766	65535	64677.25
823.201	587.8985	65535	64674.45
823.3454	590.0304	65535	64647.6
823.4899	592.1616	65535	64669.65
823.6345	594.2922	65535	64673.7
823.779	596.4222	65535	64668.25
823.9235	598.5515	65535	64667.05
824.068	600.6802	65535	64669.8
824.2126	602.8083	65535	64668.8
824.3571	604.9358	65535	64665.7
824.5017	607.0626	65535	64669.55
824.6462	609.1888	65535	64667.4
824.7908	611.3144	65535	64663.1
824.9354	613.4393	65535	64665.35
825.08	615.5636	65535	64666.1
825.2246	617.6873	65535	64668.75
825.3692	619.8103	65535	64661.4
825.5138	621.9327	65535	64664.5
825.6584	624.0544	65535	64667.8
825.803	626.1756	65535	64665.65
825.9477	628.2961	65535	64666.2
826.0923	630.4159	65535	64665.6
826.237	632.5351	65535	64663.85
826.3816	634.6537	65535	64662.25
826.5263	636.7716	65535	64662.65
826.6709	638.8889	65535	64660.75
826.8156	641.0056	65535	64659.05
826.9603	643.1216	65535	64660
827.105	645.237	65535	64657.8
827.2497	647.3518	65535	64662
827.3944	649.4659	65535	64660.1
827.5391	651.5793	65535	64660.85
827.6838	653.6922	65535	64664.7
827.8285	655.8043	65535	64661.35
827.9733	657.9159	65535	64658.15
828.118	660.0268	65535	64659.55
828.2627	662.137	65535	64660.55
828.4075	664.2466	65535	64657.6
828.5522	666.3556	65535	64659.15
828.697	668.4639	65535	64656.55
828.8418	670.5716	65535	64658.5
828.9865	672.6786	65535	64657.9
829.1313	674.785	65535	64656.3
829.2761	676.8907	65535	64657.1
829.4209	678.9958	65535	64660
829.5657	681.1002	65535	64655.15
829.7105	683.204	65535	64654.55
829.8553	685.3072	65535	64653.55
830.0001	687.4097	65535	64655.2
830.1449	689.5115	65535	64652.65
830.2898	691.6127	65535	64656.5
830.4346	693.7132	65535	64653.45
830.5794	695.8131	65535	64639.35
830.7243	697.9123	65535	64652.15
830.8691	700.0109	65535	64655.05
831.014	702.1089	65535	64655.9
831.1588	704.2061	65535	64655.4
831.3037	706.3028	65535	64650.8
831.4486	708.3987	65535	64654.8
831.5935	710.4941	65535	64655.65
831.7383	712.5887	65535	64653.95
831.8832	714.6827	65535	64648.3
832.0281	716.7761	65535	64654.8
832.173	718.8688	65535	64654.45
832.3179	720.9608	65535	64646.5
832.4628	723.0522	65535	64646.4
832.6077	725.1429	65535	64654.9
832.7527	727.233	65535	64651.7
832.8976	729.3224	65535	64652.7
833.0425	731.4112	65535	64651.7
833.1874	733.4993	65535	64648.35
833.3324	735.5867	65535	64650.65
833.4773	737.6735	65535	64646.95
833.6222	739.7596	65535	64649.85
833.7672	741.845	65535	64651.25
833.9122	743.9298	65535	64645.7
834.0571	746.014	65535	64648.55
834.2021	748.0974	65535	64647.25
834.347	750.1802	65535	64648.05
834.492	752.2624	65535	64648.45
834.637	754.3439	65535	64646.85
834.782	756.4247	65535	64638.55
834.9269	758.5048	65535	64646.7
835.0719	760.5843	65535	64645.65
835.2169	762.6631	65535	64647.75
835.3619	764.7413	65535	64649.35
835.5069	766.8188	65535	64647.2
835.6519	768.8956	65535	64643.4
835.7969	770.9718	65535	64646.5
835.9419	773.0473	65535	64648.95
836.0869	775.1221	65535	64647.65
836.232	777.1962	65535	64644.3
836.377	779.2697	65535	64643.85
836.522	781.3426	65535	64628.1
836.667	783.4147	65535	64647.35
836.8121	785.4862	65535	64650
836.9571	787.557	65535	64646.45
837.1021	789.6271	65535	64648
837.2472	791.6966	65535	64644.95
837.3922	793.7654	65535	64644.85
837.5373	795.8335	65535	64643.05
837.6823	797.901	65535	64646
837.8274	799.9678	65535	64642.9
837.9724	802.0339	65535	64646.9
838.1175	804.0993	65535	64637.8
838.2626	806.1641	65535	64641.4
838.4076	808.2282	65535	64644.25
838.5527	810.2916	65535	64642.35
838.6978	812.3544	65535	64646.25
838.8428	814.4164	65535	64647.6
838.9879	816.4778	65535	64642.35
839.133	818.5385	65535	64642.6
839.2781	820.5986	65535	64642.45
839.4232	822.658	65535	64639.9
839.5682	824.7166	65535	64647.2
839.7133	826.7747	65535	64647.35
839.8584	828.832	65535	64643.95
840.0035	830.8886	65535	64644.6
840.1486	832.9446	65535	64643.85
840.2937	834.9999	65535	64644.35
840.4388	837.0545	65535	64639
840.5839	839.1085	65535	64642.85
840.729	841.1618	65535	64640.7
840.8741	843.2143	65535	64642.35
841.0192	845.2662	65535	64641.75
841.1643	847.3175	65535	64644.85
841.3095	849.368	65535	64644.25
841.4546	851.4179	65535	64643.9
841.5997	853.467	65535	64640.6
841.7448	855.5155	65535	64641.6
841.8899	857.5633	65535	64643.75
842.0351	859.6105	65535	64645.1
842.1802	861.6569	65535	64641.2
842.3253	863.7027	65535	64641.6
842.4704	865.7478	65535	64641.35
842.6156	867.7922	65535	64641.05
842.7607	869.8359	65535	64641.45
842.9058	871.8789	65535	64641.8
843.0509	873.9212	65535	64609.9
843.1961	875.9629	65535	64642.8
843.3412	878.0039	65535	64641.95
843.4863	880.0441	65535	64637.6
843.6315	882.0837	65535	64640.6
843.7766	884.1226	65535	64639.1
843.9218	886.1609	65535	64641.4
844.0669	888.1984	65535	64640.4
844.212	890.2352	65535	64639.15
844.3572	892.2714	65535	64638.55
844.5023	894.3069	65535	64638.65
844.6475	896.3416	65535	64640.7
844.7926	898.3757	65535	64641.05
844.9377	900.4091	65535	64639.8
845.0829	902.4418	65535	64633.8
845.228	904.4739	65535	64637.5
845.3732	906.5052	65535	64637.3
845.5183	908.5358	65535	64641.65
845.6635	910.5658	65535	64636.1
845.8086	912.595	65535	64640.35
845.9538	914.6236	65535	64639.05
846.0989	916.6515	65535	64639.5
846.2441	918.6786	65535	64638.55
846.3892	920.7051	65535	64635.8
846.5344	922.7309	65535	64635.35
846.6795	924.756	65535	64638.65
846.8246	926.7804	65535	64638.65
846.9698	928.8041	65535	64634.35
847.1149	930.8272	65535	64638
847.2601	932.8495	65535	64637.6
847.4052	934.8711	65535	64636.4
847.5504	936.892	65535	64638.35
847.6955	938.9123	65535	64636.9
847.8407	940.9318	65535	64637.1
847.9858	942.9506	65535	64635.55
848.131	944.9688	65535	64638.7
848.2761	946.9862	65535	64635.05
848.4213	949.003	65535	64636.7
848.5664	951.019	65535	64635.6
848.7115	953.0344	65535	64640.4
848.8567	955.0491	65535	64635
849.0018	957.063	65535	64637.95
849.147	959.0763	65535	64638.85
849.2921	961.0888	65535	64637.35
849.4373	963.1007	65535	64639.6
849.5824	965.1119	65535	64640.15
849.7275	967.1223	65535	64637.7
849.8727	969.1321	65535	64640.4
850.0178	971.1412	65535	64637.7
850.1629	973.1495	65535	64640.4
850.3081	975.1572	65535	64604.65
850.4532	977.1641	65535	64637.15
850.5983	979.1704	65535	64635.2
850.7435	981.1759	65535	64634.15
850.8886	983.1808	65535	64637.7
851.0337	985.1849	65535	64624.35
851.1788	987.1884	65535	64634.45
851.324	989.1911	65535	64636.6
851.4691	991.1932	65535	64635.2
851.6142	993.1945	65535	64637.45
851.7593	995.1951	65535	64639.85
851.9045	997.1951	65535	64630.15
852.0496	999.1943	65535	64637.5
852.1947	1001.1928	65535	64636.85
852.3398	1003.1906	65535	64636.85
852.4849	1005.1877	65535	64633.7
852.63	1007.1841	65535	64636.15
852.7751	1009.1798	65535	64636.2
852.9202	1011.1748	65535	64635.3
853.0653	1013.1691	65535	64636.45
853.2104	1015.1627	65535	64637.3
853.3555	1017.1556	65535	64637.45
853.5006	1019.1477	65535	64634.9
853.6457	1021.1392	65535	64639.05
853.7908	1023.1299	65535	64637.3
853.9359	1025.12	65535	64637
854.081	1027.1093	65535	64638.45
854.2261	1029.0979	65535	64643
854.3712	1031.0859	65535	64638.65
854.5163	1033.0731	65535	64637
854.6613	1035.0596	65535	64636.75
854.8064	1037.0454	65535	64635.95
854.9515	1039.0304	65535	64637.05
855.0965	1041.0148	65535	64636.65
855.2416	1042.9985	65535	64635.2
855.3867	1044.9814	65535	64637.3
855.5317	1046.9636	65535	64633.65
855.6768	1048.9452	65535	64635.3
855.8219	1050.926	65535	64637.15
855.9669	1052.9061	65535	64639.25
856.112	1054.8855	65535	64635.45
856.257	1056.8642	65535	64635.3
856.4021	1058.8421	65535	64631.85
856.5471	1060.8194	65535	64637.35
856.6921	1062.7959	65535	64635.75
856.8372	1064.7717	65535	64633.6
856.9822	1066.7469	65535	64633.85
857.1272	1068.7213	65535	64633.25
857.2723	1070.695	65535	64637.7
857.4173	1072.6679	65535	64634.75
857.5623	1074.6402	65535	64635.85
857.7073	1076.6117	65535	64632.8
857.8523	1078.5826	65535	64636.35
857.9973	1080.5527	65535	64634.2
858.1423	1082.5221	65535	64634.75
858.2873	1084.4908	65535	64634.05
858.4323	1086.4587	65535	64636.25
858.5773	1088.426	65535	64636.25
858.7223	1090.3925	65535	64629.95
858.8673	1092.3584	65535	64635.35
859.0123	1094.3235	65535	64637.55
859.1573	1096.2879	65535	64634.5
859.3022	1098.2515	65535	64635.5
859.4472	1100.2145	65535	64635.8
859.5922	1102.1767	65535	64634.25
859.7371	1104.1382	65535	64636.7
859.8821	1106.099	65535	64631.75
860.027	1108.0591	65535	64637.35
860.172	1110.0185	65535	64634.15
860.3169	1111.9771	65535	64634.8
860.4619	1113.9351	65535	64634.5
860.6068	1115.8923	65535	64636.2
860.7517	1117.8488	65535	64632.85
860.8967	1119.8045	65535	64637.35
861.0416	1121.7596	65535	64636.15
861.1865	1123.7139	65535	64637.05
861.3314	1125.6675	65535	64635.45
861.4763	1127.6204	65535	64635.7
861.6212	1129.5726	65535	64634.15
861.7661	1131.524	65535	64636.85
861.911	1133.4748	65535	64637.15
862.0559	1135.4248	65535	64633.95
862.2008	1137.3741	65535	64634.5
862.3457	1139.3226	65535	64634.75
862.4905	1141.2705	65535	64633.8
862.6354	1143.2176	65535	64629.4
862.7803	1145.164	65535	64634.55
862.9251	1147.1097	65535	64634.6
863.07	1149.0546	65535	64637.1
863.2148	1150.9989	65535	64636.4
863.3597	1152.9424	65535	64635.5
863.5045	1154.8852	65535	64632.8
863.6493	1156.8272	65535	64632.9
863.7942	1158.7686	65535	64627.4
863.939	1160.7092	65535	64635.2
864.0838	1162.6491	65535	64635.8
864.2286	1164.5883	65535	64636.15
864.3734	1166.5267	65535	64634.55
864.5182	1168.4644	65535	64635.35
864.663	1170.4014	65535	64629.9
864.8078	1172.3377	65535	64637.55
864.9526	1174.2732	65535	64637.05
865.0974	1176.2081	65535	64635.05
865.2421	1178.1421	65535	64631
865.3869	1180.0755	65535	64635.35
865.5317	1182.0082	65535	64636.5
865.6764	1183.9401	65535	64635.35
865.8212	1185.8713	65535	64637.5
865.9659	1187.8017	65535	64637.25
866.1106	1189.7315	65535	64636.7
866.2554	1191.6605	65535	64608.65
866.4001	1193.5888	65535	64636.05
866.5448	1195.5163	65535	64635.45
866.6895	1197.4432	65535	64634.4
866.8342	1199.3693	65535	64635.55
866.9789	1201.2947	65535	64633.7
867.1236	1203.2193	65535	64636.25
867.2683	1205.1432	65535	64636.35
867.413	1207.0664	65535	64636.15
867.5576	1208.9889	65535	64629.75
867.7023	1210.9106	65535	64635.55
867.847	1212.8316	65535	64637
867.9916	1214.7519	65535	64627.55
868.1363	1216.6715	65535	64636.1
868.2809	1218.5903	65535	64635.7
868.4255	1220.5084	65535	64636.2
868.5701	1222.4257	65535	64636
868.7148	1224.3424	65535	64636.3
868.8594	1226.2583	65535	64629.65
869.004	1228.1735	65535	64633.8
869.1486	1230.0879	65535	64635.3
869.2932	1232.0016	65535	64634.9
869.4377	1233.9146	65535	64632.1
869.5823	1235.8269	65535	64634.5
869.7269	1237.7384	65535	64636.2
869.8715	1239.6492	65535	64635.85
870.016	1241.5592	65535	64634.9
870.1606	1243.4686	65535	64633.65
870.3051	1245.3772	65535	64634.3
870.4496	1247.285	65535	64635.55
870.5941	1249.1922	65535	64638
870.7387	1251.0986	65535	64636.9
870.8832	1253.0042	65535	64634.7
871.0277	1254.9092	65535	64636.6
871.1722	1256.8134	65535	64635.75
871.3167	1258.7169	65535	64633.9
871.4611	1260.6196	65535	64638.7
871.6056	1262.5216	65535	64634.3
871.7501	1264.4229	65535	64637.05
871.8945	1266.3234	65535	64633.2
872.039	1268.2232	65535	64634.8
872.1834	1270.1223	65535	64634.8
872.3278	1272.0207	65535	64635.7
872.4723	1273.9183	65535	64629.3
872.6167	1275.8151	65535	64636.15
872.7611	1277.7113	65535	64635.3
872.9055	1279.6067	65535	64636.75
873.0499	1281.5014	65535	64632.95
873.1943	1283.3953	65535	64633.2
873.3386	1285.2885	65535	64636.35
873.483	1287.181	65535	64634.5
873.6274	1289.0727	65535	64636.3
873.7717	1290.9637	65535	64635.75
873.9161	1292.854	65535	64634
874.0604	1294.7435	65535	64632.4
874.2047	1296.6323	65535	64634.55
874.349	1298.5204	65535	64630.4
874.4933	1300.4077	65535	64633.55
874.6376	1302.2943	65535	64635.85
874.7819	1304.1802	65535	64637.3
874.9262	1306.0653	65535	64634.1
875.0705	1307.9497	65535	64637.05
875.2147	1309.8333	65535	64634.9
875.359	1311.7162	65535	64633.1
875.5032	1313.5984	65535	64632.25
875.6475	1315.4798	65535	64626.9
875.7917	1317.3605	65535	64620.8
875.9359	1319.2405	65535	64635.55
876.0801	1321.1197	65535	64634.25
876.2243	1322.9982	65535	64631.55
876.3685	1324.876	65535	64637.4
876.5127	1326.753	65535	64634.95
876.6569	1328.6293	65535	64631.65
876.801	1330.5048	65535	64633.45
876.9452	1332.3796	65535	64634.6
877.0893	1334.2537	65535	64611.3
877.2335	1336.127	65535	64634.75
877.3776	1337.9996	65535	64636
877.5217	1339.8714	65535	64637.05
877.6658	1341.7426	65535	64593.9
877.8099	1343.6129	65535	64632.65
877.954	1345.4826	65535	64635.55
878.0981	1347.3515	65535	64633.05
878.2422	1349.2196	65535	64632.25
878.3862	1351.087	65535	64633.5
878.5303	1352.9537	65535	64634.25
878.6743	1354.8197	65535	64635.8
878.8184	1356.6849	65535	64637.1
878.9624	1358.5493	65535	64636.35
879.1064	1360.4131	65535	64634.25
879.2504	1362.276	65535	64636.15
879.3944	1364.1383	65535	64635.05
879.5384	1365.9998	65535	64629.05
879.6823	1367.8606	65535	64632.65
879.8263	1369.7206	65535	64635.7
879.9702	1371.5799	65535	64632.7
880.1142	1373.4384	65535	64633.45
880.2581	1375.2962	65535	64634.95
880.402	1377.1533	65535	64635.2
880.5459	1379.0096	65535	64634.15
880.6898	1380.8652	65535	64634
880.8337	1382.7201	65535	64637.15
880.9776	1384.5742	65535	64635.55
881.1215	1386.4275	65535	64633.45
881.2653	1388.2802	65535	64634.9
881.4092	1390.132	65535	64636.4
881.553	1391.9832	65535	64635.1
881.6968	1393.8336	65535	64636.7
881.8406	1395.6832	65535	64633.1
881.9844	1397.5322	65535	64636.15
882.1282	1399.3803	65535	64630.45
882.272	1401.2278	65535	64633.25
882.4158	1403.0745	65535	64635.2
882.5595	1404.9204	65535	64634.4
882.7033	1406.7656	65535	64635.45
882.847	1408.6101	65535	64634.9
882.9908	1410.4538	65535	64635.85
883.1345	1412.2968	65535	64634.55
883.2782	1414.139	65535	64633.9
883.4219	1415.9805	65535	64637.25
883.5656	1417.8213	65535	64629.75
883.7092	1419.6613	65535	64636.1
883.8529	1421.5006	65535	64635.2
883.9965	1423.3391	65535	64635.2
884.1402	1425.1769	65535	64634.8
884.2838	1427.0139	65535	64633.45
884.4274	1428.8502	65535	64633.6
884.571	1430.6858	65535	64636.2
884.7146	1432.5206	65535	64636.35
884.8582	1434.3547	65535	64634.1
885.0018	1436.188	65535	64636.3
885.1453	1438.0206	65535	64634.2
885.2889	1439.8524	65535	64635.1
885.4324	1441.6835	65535	64634.25
885.5759	1443.5139	65535	64631.8
885.7194	1445.3435	65535	64635.95
885.8629	1447.1724	65535	64638.1
886.0064	1449.0005	65535	64635.65
886.1499	1450.8279	65535	64634.55
886.2933	1452.6545	65535	64636.9
886.4368	1454.4804	65535	64638.3
886.5802	1456.3056	65535	64627.55
886.7237	1458.13	65535	64635.85
886.8671	1459.9536	65535	64635.9
887.0105	1461.7766	65535	64636.2
887.1539	1463.5987	65535	64635.85
887.2972	1465.4202	65535	64635.3
887.4406	1467.2409	65535	64635.5
887.584	1469.0608	65535	64636.8
887.7273	1470.88	65535	64634.7
887.8706	1472.6984	65535	64638.05
888.0139	1474.5161	65535	64634.5
888.1572	1476.3331	65535	64634.8
888.3005	1478.1493	65535	64637.2
888.4438	1479.9648	65535	64637.4
888.5871	1481.7795	65535	64635
888.7303	1483.5935	65535	64636.65
888.8736	1485.4067	65535	64635.95
889.0168	1487.2192	65535	64636.2
889.16	1489.031	65535	64632.05
889.3032	1490.842	65535	64637.45
889.4464	1492.6522	65535	64637.35
889.5896	1494.4618	65535	64635
889.7327	1496.2705	65535	64636.3
889.8759	1498.0785	65535	64634.35
890.019	1499.8858	65535	64634.65
890.1622	1501.6924	65535	64637.35
890.3053	1503.4981	65535	64636.35
890.4484	1505.3032	65535	64635.8
890.5914	1507.1075	65535	64636.8
890.7345	1508.911	65535	64637.15
890.8776	1510.7138	65535	64634.55
891.0206	1512.5159	65535	64637.3
891.1637	1514.3172	65535	64637.6
891.3067	1516.1178	65535	64638
891.4497	1517.9176	65535	64633
891.5927	1519.7166	65535	64638.5
891.7357	1521.515	65535	64631.1
891.8786	1523.3126	65535	64637.35
892.0216	1525.1094	65535	64635.8
892.1645	1526.9055	65535	64637.3
892.3074	1528.7008	65535	64638.05
892.4503	1530.4954	65535	64632.6
892.5932	1532.2893	65535	64636.85
892.7361	1534.0824	65535	64632.4
892.879	1535.8747	65535	64637.8
893.0218	1537.6663	65535	64635.6
893.1647	1539.4572	65535	64633
893.3075	1541.2473	65535	64635.35
893.4503	1543.0367	65535	64638.85
893.5931	1544.8253	65535	64631.2
893.7359	1546.6132	65535	64634.55
893.8787	1548.4003	65535	64628.1
894.0214	1550.1867	65535	64626.8
894.1642	1551.9723	65535	64631.95
894.3069	1553.7572	65535	64636.35
894.4496	1555.5414	65535	64636.15
894.5923	1557.3247	65514.9	64616.2
894.735	1559.1074	65535	64640.3
894.8777	1560.8893	65534.9	64639.4
895.0204	1562.6705	65535	64637.65
895.163	1564.4509	65520	64623.7
895.3056	1566.2305	65528.55	64633.3
895.4482	1568.0094	65535	64640.45
895.5908	1569.7876	65533.6	64635.45
895.7334	1571.565	65523.95	64625.65
895.876	1573.3417	65526.85	64630.25
896.0186	1575.1176	65524.6	64630.85
896.1611	1576.8928	65520.95	64627.55
896.3036	1578.6672	65475	64578.95
896.4461	1580.4409	65512.95	64619.4
896.5886	1582.2138	65412.2	64513.1
896.7311	1583.986	65461.25	64564.5
896.8736	1585.7575	65275.4	64380.95
897.0161	1587.5282	65391.65	64497.6
897.1585	1589.2981	65354.85	64460
897.3009	1591.0673	65120.75	64222.75
897.4433	1592.8358	64931.25	64035.85
897.5857	1594.6035	65170.25	64271.7
897.7281	1596.3704	65181.6	64284.5
897.8705	1598.1366	64671.95	63777.4
898.0128	1599.9021	64341	63444.3
898.1551	1601.6668	64906.25	64009.1
898.2975	1603.4308	64576.15	63677.85
898.4398	1605.194	64585.1	63686.2
898.5821	1606.9564	63772.9	62875.35
898.7243	1608.7182	64268.55	63368.7
898.8666	1610.4791	63812.8	62919.95
899.0088	1612.2394	64266.4	63373.2
899.1511	1613.9988	63635.7	62739.5
899.2933	1615.7576	64296.1	63402.05
899.4355	1617.5156	64269.85	63367.2
899.5776	1619.2728	64842.65	63946.35
899.7198	1621.0293	63860.7	62967.25
899.862	1622.785	63884.2	62986.2
900.0041	1624.54	64255.95	63357.5
900.1462	1626.2942	63675.45	62778.6
900.2883	1628.0477	62738.05	61839.85
900.4304	1629.8005	61948.8	61050.2
900.5725	1631.5525	62773.1	61877.6
900.7145	1633.3037	61458.65	60564.95
900.8566	1635.0542	61298.05	60404.75
900.9986	1636.804	61839.45	60944.3
901.1406	1638.553	60727.8	59723.7
901.2826	1640.3013	61046.6	60149.9
901.4245	1642.0488	60237.1	59341.55
901.5665	1643.7955	60826.25	59935.4
901.7085	1645.5416	60265.8	59372.55
901.8504	1647.2868	59791.6	58896.4
901.9923	1649.0313	60604.25	59711.25
902.1342	1650.7751	60116.15	59217.05
902.2761	1652.5181	59733.25	58838.5
902.4179	1654.2604	59839.85	58943
902.5598	1656.0019	60313.95	59420.75
902.7016	1657.7427	60027.6	59133.3
902.8434	1659.4828	60611	59717.95
902.9852	1661.222	60179.5	59283.5
903.127	1662.9606	60705.75	59809.65
903.2687	1664.6984	59890.4	58994.7
903.4105	1666.4354	60023.8	59129
903.5522	1668.1717	58803	57907.25
903.6939	1669.9072	57974.95	57081.4
903.8356	1671.642	57719.95	56823.3
903.9773	1673.3761	57418.85	56526.8
904.119	1675.1094	57151.35	56256.55
904.2606	1676.8419	56535.95	55640.45
904.4022	1678.5737	56364.3	55471.2
904.5439	1680.3048	56093.4	55197.15
904.6855	1682.0351	55744.35	54850.7
904.827	1683.7646	55381.85	54484.1
904.9686	1685.4934	55509.2	54615.25
905.1101	1687.2215	54555.7	53662.25
905.2517	1688.9488	55039.05	54145.15
905.3932	1690.6754	53792.5	52898.1
905.5347	1692.4012	54215.95	53322.3
905.6761	1694.1263	54050.6	53156.1
905.8176	1695.8506	53708.15	52814.15
905.9591	1697.5742	53566.5	52673.05
906.1005	1699.297	53290.4	52397.35
906.2419	1701.0191	53137.2	52245.45
906.3833	1702.7404	52769.75	51877.35
906.5246	1704.461	52466.6	51572.25
906.666	1706.1808	52398.7	51502.8
906.8073	1707.8999	52292.65	51397.5
906.9487	1709.6182	51981.65	51088.45
907.09	1711.3358	51859.75	50968.45
907.2313	1713.0527	51638.85	50748.3
907.3725	1714.7688	51535.95	50637.4
907.5138	1716.4841	51035.65	50140.75
907.655	1718.1987	51187.55	50287.45
907.7962	1719.9126	50911.95	50017.55
907.9374	1721.6257	50709.6	49814.5
908.0786	1723.338	50740.8	49847.4
908.2198	1725.0496	50200.35	49306.2
908.3609	1726.7605	50129.3	49236.9
908.502	1728.4706	49947.2	49053.9
908.6431	1730.18	49656.55	48763.05
908.7842	1731.8886	49539.05	48645.95
908.9253	1733.5964	49400.75	48486.1
909.0664	1735.3036	49334.3	48438.35
909.2074	1737.0099	49155.2	48262.05
909.3484	1738.7156	48988	48094.7
909.4894	1740.4204	48661.75	47766.25
909.6304	1742.1246	48603.35	47708.45
909.7714	1743.8279	48466.35	47570.45
909.9123	1745.5306	48442.75	47549.15
910.0532	1747.2325	48093.6	47199.55
910.1941	1748.9336	47942.05	47049
910.335	1750.634	47802.95	46907.4
910.4759	1752.3336	47717.85	46824.05
910.6168	1754.0325	47612.35	46720.4
910.7576	1755.7307	47491.95	46598.15
910.8984	1757.4281	47416.75	46523.5
911.0392	1759.1247	47332.5	46429.85
911.18	1760.8206	47147.4	46249.1
911.3208	1762.5158	47037	46139.1
911.4615	1764.2102	46867.25	45974.95
911.6022	1765.9039	46586.4	45694.15
911.7429	1767.5968	46518	45624.8
911.8836	1769.289	46381.3	45488.55
912.0243	1770.9804	46252.15	45358.2
912.1649	1772.6711	46216.55	45323.55
912.3056	1774.361	46103.1	45208.9
912.4462	1776.0502	45935.95	45040.85
912.5868	1777.7386	45743.45	44847.45
912.7274	1779.4263	45631.45	44735.4
912.8679	1781.1132	45562.25	44669.75
913.0084	1782.7994	45357.35	44465.15
913.149	1784.4849	45241.35	44349.5
913.2895	1786.1696	45007.8	44111.05
913.4299	1787.8535	44924.85	44032.05
913.5704	1789.5367	44820.65	43925.55
913.7108	1791.2192	44738.7	43846.9
913.8513	1792.9009	44540.9	43618.25
913.9917	1794.5818	44418.2	43525.6
914.132	1796.2621	44317.3	43424.3
914.2724	1797.9415	44168.2	43275.3
914.4128	1799.6202	43976.95	43082.6
914.5531	1801.2982	43881.2	42989.35
914.6934	1802.9755	43818.1	42922.55
914.8337	1804.6519	43704.2	42810.15
914.9739	1806.3277	43454.5	42563.15
915.1142	1808.0027	43243.25	42351.65
915.2544	1809.6769	43221.75	42330
915.3946	1811.3504	43084.95	42189.8
915.5348	1813.0231	42981.4	42086.7
915.675	1814.6951	42922.7	42029.35
915.8151	1816.3664	42862.25	41967.8
915.9553	1818.0369	42701.75	41808.45
916.0954	1819.7067	42477.25	41586.1
916.2355	1821.3757	42467.8	41573.6
916.3755	1823.044	42320.75	41428.6
916.5156	1824.7115	42216.5	41325.1
916.6556	1826.3783	41997.1	41103.5
916.7956	1828.0443	41872	40979.65
916.9356	1829.7096	41752.75	40858.6
917.0756	1831.3741	41726.15	40831.3
917.2155	1833.0379	41609.75	40718
917.3555	1834.701	41439.3	40544.25
917.4954	1836.3633	41339.2	40447.35
917.6353	1838.0248	41228.2	40336.7
917.7751	1839.6856	41132.05	40239.6
917.915	1841.3457	41100.25	40209.15
918.0548	1843.005	40901.95	40008.55
918.1946	1844.6636	40800	39907.8
918.3344	1846.3214	40679.6	39787.15
918.4742	1847.9785	40612.95	39721.85
918.6139	1849.6349	40469.7	39577
918.7537	1851.2904	40404.7	39502.7
918.8934	1852.9453	40294.2	39401
919.0331	1854.5994	40139.55	39244.85
919.1727	1856.2528	40137.25	39236.7
919.3124	1857.9054	39994.2	39102.5
919.452	1859.5572	39910.45	39018.7
919.5916	1861.2083	39823.55	38928.9
919.7312	1862.8587	39805.05	38913
919.8708	1864.5084	39693.75	38800.3
920.0103	1866.1572	39481.5	38591.25
920.1498	1867.8054	39284.85	38392.65
920.2893	1869.4528	39261.1	38366.8
920.4288	1871.0994	39073.9	38180.1
920.5683	1872.7453	39042.1	38149.6
920.7077	1874.3905	38885.6	37985.65
920.8471	1876.0349	38741.95	37848.75
920.9865	1877.6786	38738.7	37845.55
921.1259	1879.3215	38706.75	37815.95
921.2653	1880.9637	38606.55	37712.3
921.4046	1882.6051	38564.35	37670.95
921.5439	1884.2458	38375.75	37481.25
921.6832	1885.8858	38221.05	37328.75
921.8225	1887.525	38108.85	37216.9
921.9617	1889.1634	37926.6	37036.1
922.101	1890.8011	37818.25	36925.5
922.2402	1892.4381	37717.15	36825.6
922.3794	1894.0743	37666.5	36772.9
922.5185	1895.7098	37523.65	36632.35
922.6577	1897.3446	37425.75	36531.25
922.7968	1898.9786	37338.3	36443.9
922.9359	1900.6118	37248.15	36356.3
923.075	1902.2443	36983.95	36091.35
923.214	1903.8761	36932.85	36041.35
923.3531	1905.5071	36709.05	35817.35
923.4921	1907.1374	36606.75	35714.05
923.6311	1908.7669	36564.75	35673.6
923.77	1910.3957	36453.45	35559.55
923.909	1912.0237	36214.8	35321.35
924.0479	1913.651	36142.55	35249.7
924.1868	1915.2776	36049.1	35157.3
924.3257	1916.9034	35878.45	34987.3
924.4646	1918.5285	35709.95	34820.45
924.6034	1920.1528	35573.1	34681.55
924.7422	1921.7764	35493.2	34599.8
924.881	1923.3992	35320.65	34428.5
925.0198	1925.0213	35025.9	34133.6
925.1586	1926.6427	34907.65	34014.65
925.2973	1928.2633	34939.55	33942.8
925.436	1929.8832	34757.15	33861.25
925.5747	1931.5023	34551.4	33658.9
925.7134	1933.1207	34518.15	33626.95
925.852	1934.7383	34423.55	33528.85
925.9906	1936.3552	34214.15	33322.75
926.1292	1937.9714	34144.35	33252.6
926.2678	1939.5868	34011.3	33116.8
926.4064	1941.2015	33825.95	32932.95
926.5449	1942.8154	33700.3	32806.45
926.6834	1944.4286	33510.7	32618.15
926.8219	1946.041	33389.9	32479.95
926.9604	1947.6528	33186.8	32289.9
927.0988	1949.2637	33165.3	32274.35
927.2372	1950.8739	32951.75	32059.95
927.3756	1952.4834	32933.4	32040.55
927.514	1954.0921	32884.25	31992.45
927.6523	1955.7001	32711.65	31815.85
927.7907	1957.3074	32599.7	31709.25
927.929	1958.9139	32468.05	31578
928.0673	1960.5197	32344.75	31451.45
928.2055	1962.1247	32202.5	31310.25
928.3438	1963.729	32048.95	31158.45
928.482	1965.3325	31929.1	31017.15
928.6202	1966.9353	31797.45	30906.6
928.7584	1968.5374	31665.45	30770.9
928.8965	1970.1387	31565.05	30673.1
929.0346	1971.7393	31461.05	30569.45
929.1727	1973.3392	31341.9	30452.1
929.3108	1974.9383	31197.6	30307
929.4489	1976.5366	31072.9	30181.95
929.5869	1978.1342	31027.75	30136.55
929.7249	1979.7311	30957.45	30063.5
929.8629	1981.3273	30822.8	29929.9
930.0009	1982.9227	30727.5	29832.1
930.1388	1984.5173	30601.85	29709.55
930.2767	1986.1112	30476.05	29585.15
930.4146	1987.7044	30404.95	29515.7
930.5525	1989.2968	30278.3	29388.85
930.6904	1990.8885	30225.6	29330.9
930.8282	1992.4795	30127.1	29234.85
930.966	1994.0697	29955	29064.7
931.1038	1995.6592	29857.3	28963.9
931.2415	1997.2479	29818.8	28927.2
931.3793	1998.8359	29675	28782.1
931.517	2000.4232	29560.8	28670.25
931.6547	2002.0097	29461.35	28574
931.7923	2003.5955	29234.35	28343.15
931.93	2005.1805	29219.75	28327.85
932.0676	2006.7648	29194	28303.6
932.2052	2008.3484	29067.15	28175.45
932.3427	2009.9312	29089.55	28195.65
932.4803	2011.5133	28900.95	28010.75
932.6178	2013.0946	28803.8	27913.9
932.7553	2014.6752	28734.2	27843.5
932.8928	2016.2551	28620.5	27728.25
933.0302	2017.8342	28483.75	27594.5
933.1676	2019.4126	28377.15	27487
933.305	2020.9902	28246.5	27356.55
933.4424	2022.5672	28198.5	27307.75
933.5798	2024.1433	28120.8	27223.9
933.7171	2025.7188	27998.4	27107.8
933.8544	2027.2935	27925.45	27032.35
933.9917	2028.8674	27818.6	26928.1
934.129	2030.4406	27706.9	26817.95
934.2662	2032.0131	27558.8	26668
934.4034	2033.5849	27475.45	26580.5
934.5406	2035.1559	27422.6	26531.7
934.6778	2036.7261	27364.4	26473.95
934.8149	2038.2957	27284.7	26394.5
934.952	2039.8645	27219.8	26329.15
935.0891	2041.4325	27209.4	26313.95
935.2262	2042.9998	27071.25	26179.45
935.3632	2044.5664	26999.9	26105.85
935.5002	2046.1323	26884.75	25994.95
935.6372	2047.6974	26762.1	25872.05
935.7742	2049.2617	26709.65	25821.35
935.9111	2050.8254	26694.25	25781.8
936.048	2052.3883	26669.35	25777.25
936.1849	2053.9504	26491.1	25599.45
936.3218	2055.5118	26398.55	25505.95
936.4586	2057.0725	26273.55	25378.6
936.5955	2058.6325	26242.85	25351.7
936.7323	2060.1917	26100.85	25210.55
936.869	2061.7502	26025.2	25133.6
937.0058	2063.3079	25933.05	25043.15
937.1425	2064.8649	25851.35	24958.6
937.2792	2066.4212	25771.75	24881.45
937.4159	2067.9767	25723.05	24831.55
937.5525	2069.5315	25584.4	24693.45
937.6891	2071.0856	25491.2	24599.5
937.8257	2072.6389	25405.35	24512.5
937.9623	2074.1915	25220.8	24329.2
938.0989	2075.7433	25126.6	24232.7
938.2354	2077.2945	25040.05	24151.1
938.3719	2078.8448	24995.8	24106.25
938.5084	2080.3945	24891.2	24001.05
938.6448	2081.9434	24854.1	23963.45
938.7812	2083.4916	24772	23878.55
938.9176	2085.039	24654.85	23761.6
939.054	2086.5857	24611.5	23716.05
939.1903	2088.1317	24576.05	23684.15
939.3267	2089.677	24473.1	23580.85
939.463	2091.2215	24344.65	23454.3
939.5992	2092.7652	24297.45	23403.05
939.7355	2094.3083	24274.95	23381.85
939.8717	2095.8506	24181.7	23291.85
940.0079	2097.3921	24137.9	23245.55
940.1441	2098.933	24050.1	23158.95
940.2802	2100.4731	23994.2	23103.4
940.4163	2102.0124	23933.35	23033.65
940.5524	2103.5511	23832.65	22941.55
940.6885	2105.089	23757.75	22867.35
940.8245	2106.6261	23699.15	22806.9
940.9606	2108.1626	23632.9	22741.5
941.0965	2109.6983	23606.15	22686.4
941.2325	2111.2332	23501.05	22608.05
941.3684	2112.7675	23434.85	22543.35
941.5044	2114.301	23352.45	22457.8
941.6403	2115.8337	23337.05	22446.5
941.7761	2117.3657	23274.2	22382.6
941.912	2118.897	23142	22250.45
942.0478	2120.4276	23068	22169.45
942.1835	2121.9575	22938.6	22047.05
942.3193	2123.4866	22962.7	22058.05
942.455	2125.0149	22864.7	21971.2
942.5907	2126.5426	22769.65	21877.9
942.7264	2128.0695	22705.5	21809.95
942.8621	2129.5956	22603	21712.9
942.9977	2131.1211	22597.35	21701.3
943.1333	2132.6458	22492.95	21599.75
943.2689	2134.1698	22487.65	21596.75
943.4044	2135.693	22417	21523.15
943.54	2137.2155	22344.05	21448.8
943.6755	2138.7373	22276.8	21384.3
943.8109	2140.2584	22178.75	21288.25
943.9464	2141.7787	22119.7	21224.45
944.0818	2143.2983	21954.4	21064.8
944.2172	2144.8171	21875.65	20985.85
944.3526	2146.3353	21814.9	20923.25
944.4879	2147.8527	21702.8	20809.65
944.6232	2149.3693	21734.7	20842.5
944.7585	2150.8853	21641.5	20749.65
944.8938	2152.4005	21540.5	20650.2
945.029	2153.9149	21474	20583.15
945.1642	2155.4287	21436.05	20543.3
945.2994	2156.9417	21363.4	20468.95
945.4346	2158.454	21269.3	20376.6
945.5697	2159.9655	21227.8	20336.95
945.7048	2161.4764	21174.45	20280.15
945.8399	2162.9865	21116.5	20224.5
945.9749	2164.4958	21038.85	20146.85
946.1099	2166.0045	20935.65	20040.7
946.2449	2167.5124	20948.2	20057.8
946.3799	2169.0195	20888.85	19998.45
946.5148	2170.526	20831.4	19940.4
946.6498	2172.0317	20727.35	19835.1
946.7846	2173.5367	20679.1	19788.15
946.9195	2175.0409	20631.7	19739.4
947.0543	2176.5445	20619.5	19729.85
947.1891	2178.0473	20511.5	19620.05
947.3239	2179.5494	20414.75	19518.55
947.4587	2181.0507	20314.95	19422.6
947.5934	2182.5513	20250.95	19360.4
947.7281	2184.0512	20221.45	19329.7
947.8628	2185.5504	20137.4	19245.65
947.9974	2187.0488	20028.2	19135.5
948.132	2188.5465	19959.65	19068.85
948.2666	2190.0435	19882.65	18989.85
948.4012	2191.5397	19829.75	18939
948.5357	2193.0353	19788.85	18897.55
948.6702	2194.5301	19639.95	18748.05
948.8047	2196.0241	19573.4	18680.15
948.9392	2197.5175	19483.1	18591.15
949.0736	2199.0101	19425.75	18531.8
949.208	2200.502	19305.4	18414.6
949.3424	2201.9931	19284.95	18391.5
949.4767	2203.4835	19192.7	18301
949.611	2204.9733	19166.45	18268.4
949.7453	2206.4622	19088.7	18196.05
949.8796	2207.9505	19038.55	18145.3
950.0138	2209.438	18902.05	18011.1
950.148	2210.9248	18871.4	17979.25
950.2822	2212.4109	18819.75	17927.55
950.4164	2213.8962	18713.8	17818.85
950.5505	2215.3809	18652.3	17758.95
950.6846	2216.8648	18616	17723.5
950.8186	2218.3479	18539.9	17643.7
950.9527	2219.8304	18479.55	17582.9
951.0867	2221.3121	18415.45	17522.5
951.2207	2222.7931	18337.6	17445.75
951.3546	2224.2733	18275.8	17383.35
951.4886	2225.7529	18196.75	17304.25
951.6225	2227.2317	18127.85	17235.6
951.7563	2228.7098	18100.3	17208.8
951.8902	2230.1872	18005.8	17114.15
952.024	2231.6638	17954	17063.65
952.1578	2233.1397	17890.75	16994.5
952.2916	2234.6149	17850.65	16959.5
952.4253	2236.0894	17786.7	16894.8
952.559	2237.5632	17754.85	16852.35
952.6927	2239.0362	17651.15	16760.45
952.8263	2240.5085	17598.5	16705.7
952.9599	2241.9801	17539.7	16647.5
953.0935	2243.4509	17472.55	16580.8
953.2271	2244.921	17398.85	16505.45
953.3606	2246.3904	17342	16446.8
953.4941	2247.8591	17264.25	16372.75
953.6276	2249.3271	17216.8	16325.55
953.7611	2250.7943	17133.2	16239.8
953.8945	2252.2608	17089.15	16199.3
954.0279	2253.7266	17016.4	16125.95
954.1612	2255.1917	16979.1	16087.3
954.2946	2256.656	16894.5	16000.9
954.4279	2258.1197	16896.2	16004.05
954.5612	2259.5826	16816.15	15923.05
954.6944	2261.0447	16748.25	15856.15
954.8276	2262.5062	16681.65	15788.85
954.9608	2263.9669	16655.1	15762.2
955.094	2265.4269	16618.9	15729.25
955.2271	2266.8862	16534.25	15642.45
955.3602	2268.3448	16498.1	15605.85
955.4933	2269.8026	16495.1	15603.65
955.6264	2271.2598	16430.6	15540.35
955.7594	2272.7162	16396	15502.85
955.8924	2274.1719	16299.6	15407.15
956.0253	2275.6268	16220.15	15328.85
956.1583	2277.0811	16222.45	15329.15
956.2912	2278.5346	16138.35	15246.45
956.4241	2279.9874	16127.15	15235.45
956.5569	2281.4395	16069.4	15180.25
956.6897	2282.8908	16021.3	15125
956.8225	2284.3414	15983.45	15090.6
956.9553	2285.7914	15911.35	15021.05
957.088	2287.2406	15840.45	14945.2
957.2207	2288.689	15799.45	14906.7
957.3534	2290.1368	15734.4	14841.1
957.486	2291.5838	15688.35	14794.75
957.6186	2293.0302	15660.35	14769.4
957.7512	2294.4758	15581.2	14689.3
957.8838	2295.9206	15528.75	14636.15
958.0163	2297.3648	15471.15	14580.1
958.1488	2298.8082	15469.4	14577.6
958.2813	2300.251	15388.4	14497.95
958.4137	2301.693	15367.45	14469.95
958.5461	2303.1343	15337.1	14443.45
958.6785	2304.5748	15276.4	14384
958.8108	2306.0147	15204.25	14311.8
958.9432	2307.4538	15163.85	14272.2
959.0754	2308.8922	15115.05	14222.6
959.2077	2310.3299	15049.75	14158.65
959.3399	2311.7669	14974.3	14082.75
959.4721	2313.2031	14938.4	14046.5
959.6043	2314.6387	14891.05	13997.75
959.7365	2316.0735	14836.85	13943.55
959.8686	2317.5076	14817.2	13925.3
960.0006	2318.941	14768.15	13878.15
960.1327	2320.3737	14725.4	13832.25
960.2647	2321.8056	14655.7	13761.95
960.3967	2323.2369	14619.15	13725.1
960.5287	2324.6674	14582.15	13687.8
960.6606	2326.0972	14513.25	13619.2
960.7925	2327.5263	14469.65	13576.15
960.9244	2328.9547	14418.15	13524.15
961.0562	2330.3823	14349.65	13456.65
961.1881	2331.8092	14360.1	13464.25
961.3198	2333.2355	14252.15	13361.6
961.4516	2334.661	14215.35	13323.35
961.5833	2336.0858	14179.65	13285.85
961.715	2337.5098	14158.55	13266.5
961.8467	2338.9332	14125	13229.4
961.9783	2340.3558	14053.25	13158.3
962.1099	2341.7778	14023	13129.8
962.2415	2343.199	13982.65	13087.15
962.373	2344.6195	13918.15	13026.25
962.5045	2346.0393	13876.15	12985.65
962.636	2347.4583	13840.5	12948.95
962.7675	2348.8767	13787.9	12896.45
962.8989	2350.2943	13757.25	12865.65
963.0303	2351.7113	13726.85	12833.8
963.1617	2353.1275	13685.6	12793.9
963.293	2354.543	13648.6	12732.1
963.4243	2355.9578	13606.45	12713.15
963.5556	2357.3718	13520.3	12629.95
963.6868	2358.7852	13458.1	12563.5
963.818	2360.1978	13402.25	12508.5
963.9492	2361.6098	13356.15	12464.5
964.0803	2363.021	13318.95	12423.9
964.2114	2364.4315	13275.75	12383.7
964.3425	2365.8413	13243.95	12351.1
964.4736	2367.2504	13161.25	12268.45
964.6046	2368.6587	13108.35	12219.05
964.7356	2370.0664	13037.05	12145.05
964.8666	2371.4733	13000.75	12108.85
964.9975	2372.8795	12932.4	12041.25
965.1284	2374.285	12897.05	12004.9
965.2593	2375.6899	12803.8	11912.9
965.3901	2377.0939	12770.2	11879
965.5209	2378.4973	12722.95	11832.45
965.6517	2379.9	12675.15	11782.75
965.7825	2381.3019	12638.45	11747.6
965.9132	2382.7032	12600.75	11710.8
966.0439	2384.1037	12573.55	11685.7
966.1745	2385.5035	12525.1	11633.45
966.3051	2386.9027	12485.4	11594.6
966.4357	2388.3011	12453.5	11557.55
966.5663	2389.6987	12403.8	11513.7
966.6968	2391.0957	12356.25	11465.85
966.8273	2392.492	12259.3	11369.6
966.9578	2393.8876	12189.95	11298.7
967.0882	2395.2824	12141.1	11250.5
967.2186	2396.6765	12094.15	11204.1
967.349	2398.07	12085.3	11195.65
967.4793	2399.4627	12069.2	11177.35
967.6097	2400.8547	11984.35	11094.2
967.7399	2402.246	11959.15	11062.75
967.8702	2403.6366	11873.35	10981.8
968.0004	2405.0265	11834.95	10945.3
968.1306	2406.4156	11790.2	10895.8
968.2607	2407.8041	11744.45	10852.25
968.3909	2409.1918	11707	10814.75
968.521	2410.5789	11656.5	10766.25
968.651	2411.9652	11595.1	10701.1
968.781	2413.3508	11553.5	10660.5
968.911	2414.7358	11501.95	10610.8
969.041	2416.12	11471.75	10581
969.1709	2417.5035	11438.95	10549.4
969.3008	2418.8863	11387.85	10496.9
969.4307	2420.2684	11362.2	10472.05
969.5606	2421.6497	11310.9	10420.85
969.6904	2423.0304	11217.7	10327.85
969.8201	2424.4104	11204.6	10313.75
969.9499	2425.7896	11166.9	10268.5
970.0796	2427.1682	11135.65	10243.45
970.2093	2428.546	11091.7	10197.9
970.3389	2429.9232	11057.85	10166.1
970.4685	2431.2996	11082.6	10192.55
970.5981	2432.6753	11044.25	10154.2
970.7277	2434.0503	11013.75	10122.1
970.8572	2435.4246	10924.25	10036.55
970.9867	2436.7982	10911.3	10018.4
971.1161	2438.1711	10868	9976.6
971.2456	2439.5433	10845.35	9955.05
971.375	2440.9148	10791.4	9898.95
971.5043	2442.2856	10743.8	9849.8
971.6336	2443.6557	10735.65	9842.9
971.7629	2445.025	10662.05	9770.15
971.8922	2446.3937	10653.6	9762.65
972.0214	2447.7617	10610.35	9718.45
972.1506	2449.1289	10580.3	9690.35
972.2798	2450.4955	10546.55	9651.75
972.4089	2451.8613	10493.4	9601.85
972.538	2453.2265	10480.55	9589.95
972.6671	2454.5909	10437.1	9547.25
972.7961	2455.9546	10413.65	9522.15
972.9251	2457.3177	10362.45	9470.8
973.0541	2458.68	10335.4	9441.75
973.1831	2460.0416	10312.45	9421.15
973.312	2461.4025	10314	9419
973.4408	2462.7627	10258.35	9355.85
973.5697	2464.1222	10257.5	9366.2
973.6985	2465.4811	10218.85	9326.6
973.8273	2466.8392	10169.6	9278.85
973.956	2468.1966	10155.15	9260.7
974.0847	2469.5533	10150	9257.75
974.2134	2470.9093	10102.7	9209.9
974.3421	2472.2645	10069.7	9174.7
974.4707	2473.6191	10024.2	9132.3
974.5993	2474.973	9980.65	9088.9
974.7278	2476.3262	9930.1	9037.05
974.8563	2477.6787	9899.25	9007.2
974.9848	2479.0305	9868.05	8975.25
975.1132	2480.3816	9828.15	8936.4
975.2417	2481.7319	9793.15	8902.9
975.37	2483.0816	9744.75	8850.95
975.4984	2484.4306	9734.6	8844.45
975.6267	2485.7789	9690	8799.5
975.755	2487.1264	9628.05	8736.4
975.8833	2488.4733	9593	8701.35
976.0115	2489.8195	9560.8	8661.45
976.1397	2491.165	9512.5	8616.2
976.2678	2492.5097	9495.55	8602.65
976.3959	2493.8538	9462.35	8570.9
976.524	2495.1972	9402.55	8510.95
976.6521	2496.5398	9375.85	8482.15
976.7801	2497.8818	9341.2	8447.8
976.9081	2499.2231	9302.6	8410.2
977.036	2500.5637	9261.95	8370.6
977.164	2501.9035	9243	8352.5
977.2918	2503.2427	9226.65	8330.55
977.4197	2504.5812	9170.3	8278.15
977.5475	2505.919	9160.7	8266.4
977.6753	2507.256	9129.85	8239.65
977.8031	2508.5924	9074.05	8183.5
977.9308	2509.9281	9050.85	8153.7
978.0585	2511.2631	9029.25	8139.2
978.1861	2512.5974	9004.25	8110.45
978.3137	2513.9309	8968.75	8077.5
978.4413	2515.2638	8954	8025.85
978.5689	2516.596	8930.1	8038.4
978.6964	2517.9275	8854.2	7960.7
978.8239	2519.2583	8841.3	7948.05
978.9513	2520.5884	8806.1	7912.25
979.0788	2521.9178	8769.9	7879.25
979.2062	2523.2465	8731.65	7840.25
979.3335	2524.5745	8703.65	7812.15
979.4608	2525.9018	8651.3	7760
979.5881	2527.2284	8643.45	7752.7
979.7154	2528.5543	8638.5	7747
979.8426	2529.8796	8608.85	7716.95
979.9698	2531.2041	8575	7683.5
980.0969	2532.5279	8567.45	7679.75
980.224	2533.851	8550.2	7658.7
980.3511	2535.1735	8497.1	7605.35
980.4781	2536.4952	8475.55	7582.95
980.6052	2537.8163	8457	7563.35
980.7321	2539.1366	8427.3	7536.55
980.8591	2540.4562	8407.2	7515.05
980.986	2541.7752	8412	7520.55
981.1129	2543.0935	8377.75	7485.25
981.2397	2544.411	8371.1	7478.65
981.3665	2545.7279	8337.75	7446.25
981.4933	2547.0441	8320.7	7430.55
981.62	2548.3596	8324.6	7430.05
981.7467	2549.6744	8273.7	7382.15
981.8734	2550.9885	8251.4	7357.65
982.0001	2552.3019	8228.35	7337.65
982.1267	2553.6146	8201	7310.4
982.2532	2554.9266	8171.4	7278.25
982.3798	2556.2379	8144.3	7250.75
982.5063	2557.5485	8131.05	7238.75
982.6327	2558.8585	8083.8	7183.15
982.7592	2560.1677	8089.8	7193.35
982.8856	2561.4762	8053.15	7160.2
983.0119	2562.7841	8047.6	7153.1
983.1383	2564.0913	8020.65	7129.05
983.2646	2565.3977	7988.25	7097.05
983.3908	2566.7035	7965.3	7072.75
983.517	2568.0086	7982.3	7088.05
983.6432	2569.313	7962.15	7068.65
983.7694	2570.6167	7928.8	7033.45
983.8955	2571.9197	7906.8	7017.2
984.0216	2573.222	7903.45	7006.85
984.1476	2574.5236	7867.25	6974.55
984.2737	2575.8246	7841.25	6947.35
984.3996	2577.1248	7835.7	6943.05
984.5256	2578.4244	7817.6	6926.2
984.6515	2579.7232	7830.5	6938.8
984.7774	2581.0214	7790.05	6872.8
984.9032	2582.3189	7766.85	6874.55
985.029	2583.6157	7754.75	6856.15
985.1548	2584.9118	7739.05	6848.65
985.2806	2586.2072	7692.45	6800.3
985.4063	2587.5019	7666.5	6776.3
985.5319	2588.7959	7655.7	6761.1
985.6576	2590.0893	7652.55	6758.5
985.7832	2591.3819	7612.05	6720.85
985.9087	2592.6739	7592.15	6701.8
986.0343	2593.9652	7582.85	6689.25
986.1597	2595.2557	7546.55	6654
986.2852	2596.5456	7534.95	6640.85
986.4106	2597.8348	7505.3	6615
986.536	2599.1234	7465.2	6574.3
986.6614	2600.4112	7442.4	6549.65
986.7867	2601.6983	7426.4	6532.05
986.912	2602.9848	7376.75	6484.05
987.0372	2604.2705	7356.4	6458.3
987.1624	2605.5556	7330.4	6438.95
987.2876	2606.84	7316.6	6425.35
987.4128	2608.1237	7300.3	6406.15
987.5379	2609.4067	7273.15	6381.45
987.6629	2610.689	7247.95	6346.05
987.788	2611.9707	7222.75	6325.7
987.913	2613.2516	7189.3	6293.45
988.0379	2614.5319	7139.15	6247.2
988.1629	2615.8115	7107.6	6213.95
988.2878	2617.0903	7100.1	6208.1
988.4126	2618.3685	7055.2	6162.8
988.5375	2619.6461	7051.8	6159.95
988.6622	2620.9229	7035.85	6144
988.787	2622.199	7011.05	6116.5
988.9117	2623.4745	6991.25	6099.1
989.0364	2624.7493	6958.7	6066.75
989.161	2626.0234	6930.8	6039.6
989.2857	2627.2968	6902.4	6011.75
989.4102	2628.5695	6919.6	6026.65
989.5348	2629.8415	6851.3	5960.15
989.6593	2631.1128	6841.65	5947.35
989.7837	2632.3835	6807.8	5914.75
989.9082	2633.6535	6793.05	5901.2
990.0326	2634.9228	6781.9	5889.45
990.1569	2636.1914	6742.9	5850.7
990.2812	2637.4593	6725.6	5829.3
990.4055	2638.7265	6681.5	5790.2
990.5298	2639.9931	6677.65	5785.85
990.654	2641.259	6656.1	5763.45
990.7782	2642.5242	6647.35	5756.15
990.9023	2643.7887	6619	5726.05
991.0264	2645.0525	6593.75	5701.8
991.1505	2646.3156	6567.55	5673.85
991.2745	2647.5781	6553.95	5661.6
991.3985	2648.8398	6521.9	5630.25
991.5225	2650.1009	6510.4	5609.5
991.6464	2651.3613	6500.7	5607.3
991.7703	2652.6211	6457.45	5566.1
991.8942	2653.8801	6452.55	5560.55
992.018	2655.1385	6432.45	5538.45
992.1418	2656.3961	6422.6	5532.05
992.2655	2657.6531	6401.35	5509.3
992.3892	2658.9094	6388.45	5495.45
992.5129	2660.1651	6366	5471.9
992.6366	2661.42	6336.6	5445.5
992.7602	2662.6743	6340.15	5447
992.8837	2663.9279	6331.65	5440.2
993.0073	2665.1808	6307.05	5415.4
993.1307	2666.433	6281.55	5388.15
993.2542	2667.6846	6245.85	5352.85
993.3776	2668.9354	6243.15	5347.75
993.501	2670.1856	6220.5	5327.2
993.6244	2671.4351	6229.1	5337.6
993.7477	2672.6839	6212.85	5319.75
993.8709	2673.9321	6193.15	5300.85
993.9942	2675.1795	6172.45	5279.9
994.1174	2676.4263	6159.6	5267.1
994.2405	2677.6724	6129.8	5237.9
994.3637	2678.9179	6111.55	5218.8
994.4868	2680.1626	6089.5	5200.3
994.6098	2681.4067	6062.45	5172
994.7328	2682.6501	6066.15	5172.7
994.8558	2683.8928	6052.75	5161
994.9788	2685.1348	6006.35	5112.7
995.1017	2686.3761	5998.6	5107.4
995.2245	2687.6168	5981.85	5089.55
995.3474	2688.8568	5975.65	5083.9
995.4702	2690.0961	5941.95	5051.05
995.5929	2691.3348	5920.5	5028.35
995.7156	2692.5727	5895.15	5001.05
995.8383	2693.81	5878.55	4986.3
995.961	2695.0466	5862.4	4973.6
996.0836	2696.2826	5849.05	4955.35
996.2062	2697.5178	5833.9	4939.35
996.3287	2698.7524	5815.4	4921.8
996.4512	2699.9863	5801.9	4905.8
996.5737	2701.2195	5757.5	4867.4
996.6961	2702.452	5784.75	4891.95
996.8185	2703.6839	5748.9	4857.1
996.9408	2704.9151	5731.95	4840.65
997.0631	2706.1456	5709.4	4816.2
997.1854	2707.3755	5709.4	4816
997.3077	2708.6046	5716.15	4822.25
997.4299	2709.8331	5693.25	4800.45
997.552	2711.0609	5657.05	4765.1
997.6742	2712.2881	5655.2	4764.45
997.7963	2713.5145	5651.85	4757.5
997.9183	2714.7403	5625	4735.7
998.0403	2715.9654	5623.5	4731.95
998.1623	2717.1899	5626	4719.8
998.2842	2718.4136	5623.25	4730.8
998.4062	2719.6367	5605.25	4714.05
998.528	2720.8591	5584.25	4685.7
998.6498	2722.0809	5586.25	4693.4
998.7716	2723.3019	5583.05	4688.55
998.8934	2724.5223	5574.75	4680.35
999.0151	2725.7421	5554.4	4660.7
999.1368	2726.9611	5553.8	4661.05
999.2584	2728.1795	5534.9	4639.6
999.38	2729.3972	5478.4	4586.9
999.5016	2730.6142	5464.4	4565.8
999.6231	2731.8306	5435	4541.4
999.7446	2733.0462	5388.4	4494.1
999.8661	2734.2612	5350.25	4452.5
999.9875	2735.4756	5320.2	4425.65
1000.1089	2736.6892	5290.6	4400.1
1000.2302	2737.9022	5272.65	4383.1
1000.3515	2739.1145	5241.5	4350.55
1000.4728	2740.3262	5208.8	4308.85
1000.594	2741.5372	5184.95	4294.25
1000.7152	2742.7475	5146.85	4255.55
1000.8363	2743.9571	5120.25	4225.25
1000.9575	2745.1661	5111.25	4214.7
1001.0785	2746.3744	5086.95	4193.7
1001.1996	2747.582	5077.7	4185.75
1001.3206	2748.7889	5052.15	4157.8
1001.4415	2749.9952	5030.15	4138.35
1001.5625	2751.2008	5016.8	4126.25
1001.6833	2752.4057	4990.7	4096.75
1001.8042	2753.61	4971.55	4077.8
1001.925	2754.8136	4948.25	4055.45
1002.0458	2756.0165	4936.3	4043.15
1002.1665	2757.2188	4921.6	4030.35
1002.2872	2758.4204	4906.65	4015.1
1002.4078	2759.6213	4883.85	3991.25
1002.5285	2760.8215	4880.25	3984.15
1002.649	2762.0211	4871.75	3976.85
1002.7696	2763.22	4836.55	3940.85
1002.8901	2764.4182	4849.95	3957.8
1003.0106	2765.6158	4824	3930.85
1003.131	2766.8127	4790.95	3901.05
1003.2514	2768.009	4773.45	3882.3
1003.3717	2769.2045	4759	3866.5
1003.492	2770.3994	4741.4	3848.4
1003.6123	2771.5936	4732.75	3838.2
1003.7325	2772.7872	4702.55	3811.7
1003.8527	2773.9801	4683.7	3790.4
1003.9729	2775.1723	4690.55	3781.35
1004.093	2776.3639	4675.4	3784.85
1004.2131	2777.5548	4651.05	3758
1004.3331	2778.745	4624.85	3732.65
1004.4531	2779.9346	4630.65	3738.55
1004.5731	2781.1235	4615.2	3722.65
1004.693	2782.3117	4618	3726.25
1004.8129	2783.4992	4596.45	3704.65
1004.9328	2784.6861	4562.5	3670.8
1005.0526	2785.8723	4574.1	3680.65
1005.1723	2787.0579	4570.55	3676.3
1005.2921	2788.2428	4560.6	3670.4
1005.4118	2789.427	4549.95	3659.05
1005.5314	2790.6106	4550.2	3659.3
1005.651	2791.7935	4548	3654.55
1005.7706	2792.9757	4533.65	3642.7
1005.8902	2794.1573	4526.2	3632.2
1006.0097	2795.3382	4546.4	3652.4
1006.1291	2796.5184	4536.2	3645.95
1006.2485	2797.698	4541.8	3647.35
1006.3679	2798.8769	4541.2	3649.35
1006.4873	2800.0551	4541.8	3649
1006.6066	2801.2327	4560.75	3666.5
1006.7258	2802.4096	4560	3669.95
1006.8451	2803.5859	4545.2	3652.85
1006.9642	2804.7615	4559.05	3667.3
1007.0834	2805.9364	4574.8	3685.25
1007.2025	2807.1106	4579.15	3686.8
1007.3216	2808.2842	4601.25	3708.2
1007.4406	2809.4572	4639.5	3746.5
1007.5596	2810.6294	4664.6	3770.75
1007.6785	2811.801	4667.9	3776.6
1007.7975	2812.972	4711.45	3819.95
1007.9163	2814.1423	4751	3858.7
1008.0352	2815.3119	4790.95	3901.3
1008.154	2816.4808	4811.7	3920.65
1008.2727	2817.6491	4850.05	3958.1
1008.3914	2818.8167	4860.85	3969.55
1008.5101	2819.9837	4912	4013.3
1008.6288	2821.15	4962.3	4071.15
1008.7474	2822.3157	5004.35	4112.65
1008.8659	2823.4807	5058.75	4168.05
1008.9844	2824.645	5058.9	4164.35
1009.1029	2825.8086	5096.35	4205.35
1009.2214	2826.9716	5127.75	4238.25
1009.3398	2828.134	5168.05	4276.25
1009.4581	2829.2957	5184.15	4293.05
1009.5764	2830.4567	5186.55	4296.95
1009.6947	2831.617	5211.6	4320.15
1009.813	2832.7767	5208.25	4319.05
1009.9312	2833.9358	5212.3	4320.15
1010.0493	2835.0941	5194.35	4301.05
1010.1675	2836.2519	5172.4	4282.2
1010.2855	2837.4089	5160.35	4267.95
1010.4036	2838.5653	5142.45	4250.7
1010.5216	2839.7211	5150.3	4259.8
1010.6396	2840.8761	5153.2	4259.15
1010.7575	2842.0306	5170.6	4280.55
1010.8754	2843.1843	5176.7	4284.05
1010.9932	2844.3374	5212.15	4320.4
1011.111	2845.4899	5280.85	4386.9
1011.2288	2846.6417	5344.55	4453.15
1011.3465	2847.7928	5410	4520.65
1011.4642	2848.9433	5470.4	4579.35
1011.5818	2850.0931	5551.9	4659.65
1011.6995	2851.2422	5615.4	4722.5
1011.817	2852.3907	5689.65	4796.35
1011.9345	2853.5385	5745.3	4849.9
1012.052	2854.6857	5813.6	4894.4
1012.1695	2855.8323	5835.35	4945
1012.2869	2856.9781	5872.85	4983.1
1012.4042	2858.1233	5921.25	5029.85
1012.5216	2859.2679	5955.05	5063.35
1012.6389	2860.4118	6004	5112
1012.7561	2861.555	6007.85	5109.6
1012.8733	2862.6976	6040.1	5147.3
1012.9905	2863.8395	6057.4	5164.9
1013.1076	2864.9808	6057.65	5166.4
1013.2247	2866.1214	6075.75	5185.45
1013.3417	2867.2614	6068.3	5177.35
1013.4587	2868.4007	6073.65	5180.7
1013.5757	2869.5393	6074.7	5181.05
1013.6926	2870.6773	6081.5	5189.9
1013.8095	2871.8146	6104.2	5208.9
1013.9263	2872.9513	6082.2	5188.25
1014.0431	2874.0874	6039.7	5149.55
1014.1599	2875.2227	6028.55	5136.25
1014.2766	2876.3574	6012.05	5120.1
1014.3933	2877.4915	5985.9	5095.85
1014.51	2878.6249	5943.45	5052.2
1014.6266	2879.7577	5917.4	5025.45
1014.7431	2880.8898	5904.75	5002.05
1014.8596	2882.0212	5852.05	4961.8
1014.9761	2883.152	5805	4911.8
1015.0925	2884.2821	5792.8	4901.9
1015.2089	2885.4116	5772.9	4884.15
1015.3253	2886.5405	5762.4	4869.9
1015.4416	2887.6686	5763.8	4867.85
1015.5579	2888.7962	5746.45	4857.4
1015.6741	2889.923	5756.55	4867.35
1015.7903	2891.0493	5762.4	4873.65
1015.9065	2892.1748	5757.4	4866.9
1016.0226	2893.2997	5768.85	4877.1
1016.1387	2894.424	5772.7	4881
1016.2547	2895.5476	5771.4	4879.95
1016.3707	2896.6706	5795.7	4905.25
1016.4866	2897.7929	5797	4904.75
1016.6025	2898.9145	5816.1	4925.55
1016.7184	2900.0355	5850.95	4959.95
1016.8342	2901.1559	5870.95	4977.9
1016.95	2902.2756	5893.35	5003.2
1017.0658	2903.3946	5908.35	5016.6
1017.1815	2904.513	5924.75	5028.9
1017.2971	2905.6308	5934.45	5042.85
1017.4127	2906.7479	5959.5	5067.15
1017.5283	2907.8643	5976.15	5086.25
1017.6439	2908.9801	5976.75	5085.1
1017.7594	2910.0953	5969.75	5079.15
1017.8748	2911.2098	5967.5	5071.45
1017.9902	2912.3236	5955.45	5055.9
1018.1056	2913.4368	5923.75	5029.25
1018.2209	2914.5494	5909.85	5020.15
1018.3362	2915.6613	5865.7	4969.15
1018.4515	2916.7725	5842.9	4952.45
1018.5667	2917.8831	5814.25	4922.15
1018.6819	2918.9931	5768.5	4875.15
1018.797	2920.1024	5718	4826.95
1018.9121	2921.211	5696.55	4807.5
1019.0271	2922.319	5669.25	4779.15
1019.1421	2923.4264	5630.75	4739.2
1019.2571	2924.5331	5616.55	4726.2
1019.372	2925.6391	5596.3	4705.55
1019.4869	2926.7445	5574.2	4685.9
1019.6017	2927.8493	5567.8	4675.65
1019.7165	2928.9534	5566.2	4675.95
1019.8313	2930.0569	5562.15	4668.95
1019.946	2931.1597	5525.7	4634.75
1020.0606	2932.2619	5481.5	4592
1020.1753	2933.3634	5478.45	4585.5
1020.2899	2934.4643	5475.75	4577.1
1020.4044	2935.5645	5443.95	4546.2
1020.5189	2936.6641	5406.35	4511.2
1020.6334	2937.763	5337.05	4447.7
1020.7478	2938.8613	5285.9	4395.65
1020.8622	2939.959	5229	4332.2
1020.9765	2941.056	5142.95	4252.25
1021.0908	2942.1523	5059.9	4166.7
1021.2051	2943.248	4963.5	4072
1021.3193	2944.3431	4831.05	3941.05
1021.4334	2945.4375	4737.7	3845.45
1021.5476	2946.5313	4634.3	3744.1
1021.6617	2947.6244	4522.75	3631.15
1021.7757	2948.7169	4407.9	3515.6
1021.8897	2949.8087	4304.8	3415.1
1022.0037	2950.8999	4205.5	3314.2
1022.1176	2951.9904	4104.35	3213.35
1022.2315	2953.0803	4034.6	3142.65
1022.3453	2954.1696	3958.85	3067.45
1022.4591	2955.2582	3901.25	3011.45
1022.5728	2956.3462	3842.85	2950.95
1022.6865	2957.4335	3792.75	2900.45
1022.8002	2958.5202	3744.75	2851.55
1022.9138	2959.6062	3709.8	2819
1023.0274	2960.6916	3679.6	2789.7
1023.141	2961.7764	3650.55	2760.35
1023.2545	2962.8605	3634.15	2742.95
1023.3679	2963.9439	3626.75	2736.2
1023.4813	2965.0267	3588.4	2696.05
1023.5947	2966.1089	3587.25	2673.5
1023.708	2967.1905	3559.3	2666.95
1023.8213	2968.2714	3552.6	2664.35
1023.9346	2969.3516	3523.4	2630.75
1024.0478	2970.4312	3540	2642.25
1024.1609	2971.5102	3534.95	2644.3
1024.274	2972.5885	3524.55	2632.45
1024.3871	2973.6662	3520.85	2625.9
1024.5002	2974.7432	3507.35	2616.55
1024.6132	2975.8196	3493.5	2604.1
1024.7261	2976.8954	3467.65	2577.3
1024.839	2977.9705	3453.95	2563
1024.9519	2979.045	3439.45	2548.5
1025.0647	2980.1188	3416.05	2525.5
1025.1775	2981.192	3377.6	2486.65
1025.2902	2982.2645	3357.95	2465.15
1025.4029	2983.3364	3321.65	2427.65
1025.5156	2984.4077	3288.1	2395.15
1025.6282	2985.4783	3263.8	2368.75
1025.7407	2986.5483	3231.25	2342.6
1025.8532	2987.6177	3175.5	2286.65
1025.9657	2988.6864	3143.3	2253.9
1026.0782	2989.7545	3103.2	2209.7
1026.1906	2990.8219	3060.1	2169.45
1026.3029	2991.8887	3022.4	2129.15
1026.4152	2992.9548	2989.4	2097.55
1026.5275	2994.0204	2947.8	2058.45
1026.6397	2995.0852	2913.45	2024.15
1026.7519	2996.1495	2880.65	1989.15
1026.864	2997.2131	2864.4	1973.15
1026.9761	2998.276	2831.75	1941.4
1027.0882	2999.3383	2795.15	1903.9
1027.2002	3000.4	2771.45	1879.45
1027.3122	3001.4611	2760.2	1867.95
1027.4241	3002.5215	2743.55	1850.4
1027.536	3003.5812	2721.2	1830.8
1027.6478	3004.6404	2699.1	1807.8
1027.7596	3005.6989	2688.6	1795.25
1027.8714	3006.7567	2675.5	1783.75
1027.9831	3007.8139	2681.85	1767.25
1028.0947	3008.8705	2652.75	1763.05
1028.2064	3009.9264	2639.95	1744.85
1028.3179	3010.9818	2637.5	1747.55
1028.4295	3012.0364	2617.6	1728.15
1028.541	3013.0905	2619.05	1727.6
1028.6524	3014.1439	2594.25	1703.95
1028.7638	3015.1966	2587.4	1696.55
1028.8752	3016.2487	2600.8	1710.9
1028.9865	3017.3002	2595.65	1697.45
1029.0978	3018.3511	2585	1694.9
1029.209	3019.4013	2574.8	1684.9
1029.3202	3020.4509	2579.8	1690.3
1029.4314	3021.4998	2567.55	1677.15
1029.5425	3022.5481	2566.25	1676.9
1029.6535	3023.5958	2572.15	1681.25
1029.7645	3024.6428	2564.8	1672.9
1029.8755	3025.6892	2562.5	1671.25
1029.9864	3026.735	2548.2	1657.95
1030.0973	3027.7802	2539.65	1648.85
1030.2082	3028.8247	2548.35	1658.25
1030.319	3029.8685	2535.3	1643.45
1030.4297	3030.9118	2535.65	1644.8
1030.5404	3031.9544	2538.65	1649.25
1030.6511	3032.9963	2537.05	1647.25
1030.7617	3034.0376	2526.6	1636.05
1030.8723	3035.0783	2528.15	1633.25
1030.9829	3036.1184	2527.2	1634.55
1031.0934	3037.1578	2526.65	1635.75
1031.2038	3038.1966	2528.85	1635.85
1031.3142	3039.2348	2525.55	1635.5
1031.4246	3040.2723	2519.55	1621.7
1031.5349	3041.3092	2505.15	1616.75
1031.6452	3042.3455	2497.9	1608.35
1031.7554	3043.3811	2496.65	1605.6
1031.8656	3044.4161	2491.2	1599.5
1031.9758	3045.4505	2471	1580.2
1032.0859	3046.4842	2475.2	1585.8
1032.1959	3047.5173	2454.05	1565.5
1032.3059	3048.5498	2439.05	1549.25
1032.4159	3049.5816	2426.15	1534.65
1032.5258	3050.6128	2418.4	1526.9
1032.6357	3051.6434	2412.75	1521.35
1032.7455	3052.6734	2394.4	1501.05
1032.8553	3053.7027	2397.25	1508.35
1032.9651	3054.7314	2380.75	1492.8
1033.0748	3055.7594	2370.4	1480.2
1033.1845	3056.7868	2357.5	1467.85
1033.2941	3057.8136	2346.25	1455.25
1033.4037	3058.8398	2334.7	1445.1
1033.5132	3059.8653	2329.35	1439.75
1033.6227	3060.8902	2319.5	1429.75
1033.7321	3061.9145	2303.75	1414.65
1033.8415	3062.9381	2293.55	1403.4
1033.9509	3063.9612	2296.75	1390.4
1034.0602	3064.9835	2281.3	1392.7
1034.1694	3066.0053	2266.05	1373.15
1034.2787	3067.0264	2260.05	1371.3
1034.3878	3068.0469	2247.45	1357.15
1034.497	3069.0668	2237.85	1344.45
1034.6061	3070.086	2226.65	1337.05
1034.7151	3071.1046	2213.1	1321.85
1034.8241	3072.1226	2196.85	1305.7
1034.9331	3073.1399	2183.65	1292.05
1035.042	3074.1567	2169.3	1278.55
1035.1508	3075.1727	2163.9	1271.85
1035.2597	3076.1882	2137.15	1246.45
1035.3684	3077.203	2134.75	1246.6
1035.4772	3078.2173	2122.9	1232.1
1035.5859	3079.2308	2109.8	1217.2
1035.6945	3080.2438	2101.9	1209.75
1035.8031	3081.2561	2090.1	1199.95
1035.9117	3082.2678	2080.2	1190.85
1036.0202	3083.2789	2064.7	1172.85
1036.1286	3084.2893	2053.55	1164.05
1036.2371	3085.2991	2044.25	1152.4
1036.3454	3086.3083	2041.15	1145.05
1036.4538	3087.3169	2027.1	1135.75
1036.562	3088.3248	2028.8	1134.75
1036.6703	3089.3321	2004.5	1112.05
1036.7785	3090.3388	1996.95	1107.5
1036.8866	3091.3449	1985.15	1094.2
1036.9948	3092.3503	1992.75	1098.9
1037.1028	3093.3551	1985.2	1096
1037.2108	3094.3593	1982.75	1092.65
1037.3188	3095.3629	1955.95	1066.35
1037.4267	3096.3658	1944.8	1053.65
1037.5346	3097.3681	1949.75	1061.9
1037.6425	3098.3698	1947.05	1056.2
1037.7503	3099.3708	1937.6	1038.05
1037.858	3100.3713	1928.35	1039.6
1037.9657	3101.3711	1925.6	1034.9
1038.0734	3102.3702	2017.3	1011.3
1038.181	3103.3688	1916.85	1024.1
1038.2886	3104.3667	1896.95	1006.8
1038.3961	3105.364	1891.5	1001.5
1038.5036	3106.3607	1882.6	991.8
1038.611	3107.3568	1886.05	994.65
1038.7184	3108.3522	1874.4	985.35
1038.8257	3109.347	1866.25	973.2
1038.933	3110.3412	1871.65	976.7
1039.0403	3111.3348	1846.85	957.15
1039.1475	3112.3277	1851.2	959.6
1039.2547	3113.32	1843.35	954.75
1039.3618	3114.3117	1839.05	946.6
1039.4689	3115.3028	1831.95	942.05
1039.5759	3116.2932	1828.35	934.65
1039.6829	3117.2831	1824.1	927.1
1039.7898	3118.2723	1811.2	921.55
1039.8967	3119.2608	1807.3	917.25
1040.0035	3120.2488	1803.75	914.5
1040.1103	3121.2361	1803.4	912.55
1040.2171	3122.2229	1791.1	899.05
1040.3238	3123.209	1792.1	898.45
1040.4305	3124.1944	1786.95	897.85
1040.5371	3125.1793	1783.15	891
1040.6437	3126.1635	1773.2	884.5
1040.7502	3127.1471	1768.85	880.6
1040.8567	3128.1301	1766.2	875.55
1040.9631	3129.1125	1761.25	870.35
1041.0695	3130.0942	1752.1	861.15
1041.1759	3131.0753	1763.65	864.45
1041.2822	3132.0558	1759.05	865.45
1041.3884	3133.0357	1749.7	858
1041.4946	3134.015	1754.15	862
1041.6008	3134.9936	1735.5	841.85
1041.7069	3135.9716	1746.35	837.65
1041.813	3136.949	1728.95	838.2
1041.919	3137.9258	1728.2	832.45
1042.025	3138.902	1722	825.6
1042.1309	3139.8775	1715.75	826.05
1042.2368	3140.8524	1704.25	814.55
1042.3427	3141.8267	1705	813.75
1042.4485	3142.8004	1702.85	813.05
1042.5542	3143.7735	1700	803.1
1042.6599	3144.7459	1699.65	807.15
1042.7656	3145.7178	1692.85	803.15
1042.8712	3146.689	1693.25	803.05
1042.9768	3147.6596	1690.3	796.95
1043.0823	3148.6295	1674.7	783.8
1043.1878	3149.5989	1672.85	782.05
1043.2932	3150.5676	1670.3	780.25
1043.3986	3151.5357	1655.95	767.45
1043.5039	3152.5032	1661.4	774.25
1043.6092	3153.4701	1657.75	768.05
1043.7145	3154.4364	1649	756.2
1043.8197	3155.402	1636.35	748.75
1043.9248	3156.367	1642.8	749.25
1044.03	3157.3315	1679.35	745.1
1044.135	3158.2952	1635.4	743.65
1044.24	3159.2584	1626.45	735.85
1044.345	3160.221	1621.95	730.8
1044.4499	3161.1829	1622.65	734.65
1044.5548	3162.1442	1612.9	726.35
1044.6596	3163.105	1610.65	720.3
1044.7644	3164.065	1611.45	722.5
1044.8692	3165.0245	1607	714.3
1044.9739	3165.9834	1603.7	714.45
1045.0785	3166.9416	1592.85	701.45
1045.1831	3167.8993	1596	704.75
1045.2877	3168.8563	1594.9	703.4
1045.3922	3169.8127	1585.45	695.75
1045.4966	3170.7684	1584.2	694.75
1045.6011	3171.7236	1579.3	688.5
1045.7054	3172.6782	1572.4	683.4
1045.8098	3173.6321	1571.15	681.15
1045.914	3174.5854	1571.45	676.05
1046.0183	3175.5381	1557.1	665.85
1046.1224	3176.4902	1558.85	670.2
1046.2266	3177.4417	1551.75	663.8
1046.3307	3178.3926	1560.5	671.95
1046.4347	3179.3428	1550.15	661.3
1046.5387	3180.2924	1545.2	654.55
1046.6427	3181.2415	1538.5	648.55
1046.7466	3182.1899	1543.85	652.65
1046.8504	3183.1377	1542.15	654.3
1046.9542	3184.0848	1534.75	642.8
1047.058	3185.0314	1531.65	642.6
1047.1617	3185.9773	1523.85	633.3
1047.2654	3186.9227	1522.45	633.15
1047.369	3187.8674	1514.35	623.95
1047.4726	3188.8115	1517.5	625.35
1047.5761	3189.755	1511.75	621
1047.6796	3190.6979	1500.65	610.95
1047.783	3191.6402	1507.3	618.6
1047.8864	3192.5818	1496	605.1
1047.9898	3193.5229	1520.25	608.8
1048.0931	3194.4633	1501.25	610.6
1048.1963	3195.4031	1494.6	603.95
1048.2995	3196.3423	1484.1	593.5
1048.4027	3197.2809	1490.3	598.4
1048.5058	3198.2189	1478.1	587.6
1048.6089	3199.1563	1484.7	589
1048.7119	3200.0931	1475.75	586.5
1048.8148	3201.0292	1472.95	583.7
1048.9178	3201.9648	1467.4	577.2
1049.0206	3202.8997	1470.85	577.5
1049.1235	3203.834	1465.7	575.7
1049.2262	3204.7677	1453.85	564.3
1049.329	3205.7008	1455.25	562.85
1049.4317	3206.6333	1450.05	559.4
1049.5343	3207.5652	1454.8	562.1
1049.6369	3208.4964	1451.4	560.4
1049.7394	3209.4271	1443.2	553.75
1049.8419	3210.3571	1440.15	552
1049.9444	3211.2865	1438.35	548.35
1050.0468	3212.2154	1442	551.85
1050.1491	3213.1436	1437.15	545.9
1050.2514	3214.0712	1435.95	539.25
1050.3537	3214.9982	1425.3	534.9
1050.4559	3215.9246	1421.65	529.15
1050.5581	3216.8503	1421.9	531.15
1050.6602	3217.7755	1422.45	533.55
1050.7623	3218.7001	1418.15	528.55
1050.8643	3219.624	1417.8	525.95
1050.9663	3220.5473	1413.75	523.9
1051.0682	3221.4701	1410.9	518.7
1051.1701	3222.3922	1409	517.9
1051.2719	3223.3137	1406.25	517.5
1051.3737	3224.2346	1401.95	513.3
1051.4754	3225.1549	1397.4	508.2
1051.5771	3226.0746	1395.7	506.65
1051.6788	3226.9937	1396.8	506.4
1051.7804	3227.9121	1387.55	498.5
1051.8819	3228.83	1389.55	500.55
1051.9834	3229.7473	1388.35	497.45
1052.0849	3230.6639	1378.3	487.35
1052.1863	3231.5799	1380.7	492
1052.2876	3232.4954	1383.3	491.15
1052.3889	3233.4102	1377.85	489.8
1052.4902	3234.3244	1371.6	480.45
1052.5914	3235.238	1369.2	477.6
1052.6926	3236.151	1391.7	477.3
1052.7937	3237.0634	1356.8	468.15
1052.8948	3237.9752	1363.4	474.75
1052.9958	3238.8864	1357.5	468.3
1053.0968	3239.797	1361.35	471.9
1053.1977	3240.7069	1355.35	462.75
1053.2986	3241.6163	1344.3	454.35
1053.3994	3242.5251	1346.2	458.6
1053.5002	3243.4332	1338.65	451.65
1053.6009	3244.3408	1340.2	453.05
1053.7016	3245.2477	1340.05	450
1053.8022	3246.154	1339.6	449.1
1053.9028	3247.0598	1334.75	442.25
1054.0034	3247.9649	1325.85	435.85
1054.1039	3248.8694	1333.25	443.45
1054.2043	3249.7733	1324.05	434.05
1054.3047	3250.6766	1321.3	431.85
1054.4051	3251.5793	1316.1	426.1
1054.5054	3252.4814	1319.5	431
1054.6056	3253.3829	1316	427.55
1054.7058	3254.2838	1310.85	422.25
1054.806	3255.1841	1311.5	423.85
1054.9061	3256.0838	1309.1	419.65
1055.0061	3256.9829	1300.55	412.5
1055.1062	3257.8814	1298.5	407.15
1055.2061	3258.7792	1294.25	401.6
1055.306	3259.6765	1291.3	399.95
1055.4059	3260.5731	1288.55	399.7
1055.5057	3261.4692	1286.15	395.55
1055.6055	3262.3647	1274.65	384.65
1055.7052	3263.2595	1274.95	386.3
1055.8049	3264.1538	1265.95	375.45
1055.9045	3265.0474	1262.2	373.1
1056.0041	3265.9404	1255.4	364.8
1056.1036	3266.8329	1246.9	357.85
1056.2031	3267.7247	1254.55	355.45
1056.3025	3268.616	1235.7	346.7
1056.4019	3269.5066	1227.35	338.05
1056.5013	3270.3966	1218.65	328.8
1056.6005	3271.286	1212.2	325.05
