Software Version:	3.9.2.0
Unit SN:	10000200
Spectrometer SN:	6960
Date:	3/6/2024 10:24:35 AM
Data Line Index:	25
Spectral Points:	2048
Integration time (ms):	125
Averages:	20
Delay (ms):	30
Sequence Number:	1
Processing:	dark subtract
Laser Power (mW):	300
Laser Current (mA):	826
Laser Diode Temp (C):	25
Laser Case Temp (C):	25.8
System Temp (C):	25.5
Spectrometer Temp (C):	23
CCD Temp (C):	-0.003
Secondary Temp (C):	20.008
Heatsink Temp (C):	20.999
CCDPCB Temp (C):	35.051
SecondaryPCB Temp (C):	28.037

Wavelength	RamanShift	Raw Counts	Dark Subtracted
787.061	30.1047	1073.05	662.35
787.2016	32.3739	1100.5	690.85
787.3422	34.6426	1140.95	731.75
787.4828	36.9109	1175.65	762.4
787.6235	39.1787	1228.85	812.6
787.7642	41.4461	1293.3	872.6
787.9049	43.7131	1348.3	924.6
788.0456	45.9796	1404.6	977.1
788.1863	48.2456	1461.85	1031.3
788.3271	50.5112	1534.35	1099.7
788.4679	52.7764	1590.5	1153.05
788.6087	55.0411	1659.95	1218.25
788.7496	57.3054	1737.15	1288.7
788.8904	59.5692	1819.45	1370.3
789.0313	61.8326	1898.8	1446.4
789.1722	64.0955	1999.7	1545.45
789.3132	66.3579	2111.65	1652.8
789.4541	68.6199	2265.3	1802.25
789.5951	70.8815	2490.6	2023.55
789.7361	73.1426	2997.65	2526.65
789.8771	75.4032	4283.85	3807.8
790.0181	77.6634	7563.2	7082.8
790.1592	79.9231	16180.65	15693.85
790.3003	82.1824	50847.35	50349.85
790.4414	84.4412	65535	65014.85
790.5825	86.6995	65535	64986.25
790.7237	88.9574	65535	64960.9
790.8648	91.2148	65535	64946.75
791.006	93.4717	65535	64936
791.1472	95.7282	65535	64925.35
791.2885	97.9842	65535	64927.15
791.4297	100.2398	65535	64922.45
791.571	102.4949	65535	64920.65
791.7123	104.7495	65535	64916.45
791.8536	107.0036	65535	64918.2
791.9949	109.2573	65535	64920.05
792.1363	111.5105	65535	64915.15
792.2777	113.7632	65535	64915.1
792.4191	116.0154	65535	64902.3
792.5605	118.2672	65535	64907.1
792.7019	120.5185	65535	64906.95
792.8434	122.7693	65535	64902.4
792.9849	125.0197	65535	64899.65
793.1264	127.2696	65535	64896.25
793.2679	129.519	65535	64894.55
793.4094	131.7679	65535	64891.85
793.551	134.0163	65535	64882.65
793.6926	136.2642	65535	64883.2
793.8342	138.5117	65535	64874.2
793.9758	140.7587	65535	64880.6
794.1175	143.0052	65535	64879.2
794.2591	145.2512	65535	64879.25
794.4008	147.4967	65535	64876.1
794.5425	149.7417	65535	64872.3
794.6842	151.9863	65535	64868.4
794.826	154.2304	65535	64864.3
794.9677	156.4739	65535	64862.1
795.1095	158.717	65535	64860.05
795.2513	160.9596	65535	64853.45
795.3931	163.2017	65535	64856.2
795.535	165.4433	65535	64850.4
795.6768	167.6844	65535	64850.45
795.8187	169.925	65535	64849.3
795.9606	172.1651	65535	64846.65
796.1025	174.4047	65535	64840.6
796.2445	176.6439	65535	64840.8
796.3864	178.8825	65535	64838.2
796.5284	181.1206	65535	64835
796.6704	183.3582	65535	64830.25
796.8124	185.5954	65535	64827.35
796.9544	187.832	65535	64821.95
797.0965	190.0681	65535	64818.15
797.2386	192.3037	65535	64817.9
797.3806	194.5388	65535	64816.25
797.5228	196.7734	65535	64811.55
797.6649	199.0075	65535	64809.1
797.807	201.2411	65535	64814.2
797.9492	203.4742	65535	64811.9
798.0914	205.7068	65535	64801.2
798.2336	207.9389	65535	64801.8
798.3758	210.1704	65535	64799.75
798.518	212.4015	65535	64803.95
798.6603	214.632	65535	64814.85
798.8025	216.862	65535	64823.1
798.9448	219.0915	65535	64821.95
799.0871	221.3205	65535	64819.6
799.2294	223.549	65535	64826
799.3718	225.777	65535	64828.15
799.5141	228.0044	65535	64820.2
799.6565	230.2314	65535	64818.55
799.7989	232.4578	65535	64818
799.9413	234.6837	65535	64807.3
800.0837	236.909	65535	64804.55
800.2262	239.1339	65535	64778.85
800.3687	241.3582	65535	64793.75
800.5111	243.582	65535	64765.35
800.6536	245.8053	65535	64780.05
800.7961	248.0281	65535	64781.25
800.9387	250.2503	65535	64781.7
801.0812	252.472	65535	64777
801.2238	254.6932	65535	64777.8
801.3664	256.9139	65535	64775.1
801.509	259.134	65535	64772.55
801.6516	261.3536	65535	64772.55
801.7942	263.5727	65535	64770.55
801.9369	265.7912	65535	64775.3
802.0795	268.0092	65535	64768.3
802.2222	270.2267	65535	64767.8
802.3649	272.4436	65535	64772.15
802.5076	274.6601	65535	64763
802.6504	276.8759	65535	64766.15
802.7931	279.0913	65535	64762.9
802.9359	281.3061	65535	64763
803.0787	283.5204	65535	64762.35
803.2215	285.7341	65535	64754.05
803.3643	287.9473	65535	64744.6
803.5071	290.16	65535	64752.15
803.6499	292.3721	65535	64753.8
803.7928	294.5837	65535	64758.95
803.9357	296.7947	65535	64754.3
804.0786	299.0052	65535	64757
804.2215	301.2152	65535	64752.05
804.3644	303.4246	65535	64756.1
804.5074	305.6334	65535	64756.4
804.6503	307.8418	65535	64752
804.7933	310.0495	65535	64751.65
804.9363	312.2568	65535	64753.65
805.0793	314.4635	65535	64749.5
805.2223	316.6696	65535	64747.75
805.3653	318.8752	65535	64736.65
805.5084	321.0802	65535	64742.8
805.6514	323.2847	65535	64740.7
805.7945	325.4887	65535	64745.1
805.9376	327.692	65535	64742.55
806.0807	329.8949	65535	64737.9
806.2238	332.0972	65535	64738.15
806.367	334.2989	65535	64734.75
806.5101	336.5001	65535	64736.5
806.6533	338.7007	65535	64736
806.7965	340.9008	65535	64733.6
806.9397	343.1003	65535	64733.6
807.0829	345.2992	65535	64728.85
807.2261	347.4976	65535	64729.95
807.3693	349.6955	65535	64724.9
807.5126	351.8927	65535	64726.9
807.6559	354.0895	65535	64717.2
807.7991	356.2856	65535	64725.15
807.9424	358.4812	65535	64724.85
808.0857	360.6763	65535	64721.85
808.2291	362.8707	65535	64719.15
808.3724	365.0646	65535	64718.65
808.5158	367.258	65535	64716.7
808.6591	369.4508	65535	64710.5
808.8025	371.643	65535	64712.05
808.9459	373.8346	65535	64712.15
809.0893	376.0257	65535	64706.7
809.2327	378.2162	65535	64708.75
809.3762	380.4062	65535	64708.15
809.5196	382.5956	65535	64706.95
809.6631	384.7844	65535	64709.75
809.8066	386.9726	65535	64706.9
809.9501	389.1603	65535	64714.45
810.0936	391.3474	65535	64677.2
810.2371	393.5339	65535	64712.4
810.3806	395.7199	65535	64718.3
810.5241	397.9052	65535	64716.75
810.6677	400.09	65535	64715.45
810.8113	402.2743	65535	64713.35
810.9548	404.4579	65535	64715.95
811.0984	406.641	65535	64714.05
811.2421	408.8235	65535	64710.3
811.3857	411.0054	65535	64714.05
811.5293	413.1868	65535	64707.95
811.673	415.3675	65535	64702.85
811.8166	417.5477	65535	64701.65
811.9603	419.7273	65535	64702.15
812.104	421.9064	65535	64690.7
812.2477	424.0848	65535	64699.45
812.3914	426.2627	65535	64697.2
812.5351	428.4399	65535	64697.9
812.6788	430.6166	65535	64695.1
812.8226	432.7928	65535	64694.65
812.9663	434.9683	65535	64694.65
813.1101	437.1432	65535	64688.4
813.2539	439.3176	65535	64692.05
813.3977	441.4914	65535	64689.6
813.5415	443.6645	65535	64688.95
813.6853	445.8371	65535	64691.1
813.8291	448.0091	65535	64689.3
813.973	450.1806	65535	64692.45
814.1168	452.3514	65535	64688.8
814.2607	454.5216	65535	64683.15
814.4046	456.6913	65535	64690.4
814.5485	458.8603	65535	64687.25
814.6924	461.0288	65535	64688.55
814.8363	463.1967	65535	64691
814.9802	465.3639	65535	64687.75
815.1241	467.5306	65535	64686.35
815.2681	469.6967	65535	64690
815.412	471.8622	65535	64686.25
815.556	474.0271	65535	64687.4
815.7	476.1914	65535	64681.3
815.844	478.3551	65535	64683.75
815.988	480.5182	65535	64683.65
816.132	482.6807	65535	64689.05
816.276	484.8426	65535	64685
816.4201	487.0039	65535	64682.1
816.5641	489.1647	65535	64684.5
816.7082	491.3248	65535	64681.45
816.8522	493.4843	65535	64682.5
816.9963	495.6432	65535	64679.75
817.1404	497.8015	65535	64675.45
817.2845	499.9592	65535	64679.8
817.4286	502.1163	65535	64678.2
817.5727	504.2728	65535	64678.85
817.7168	506.4287	65535	64680.5
817.861	508.5839	65535	64675.4
818.0051	510.7386	65535	64680.2
818.1493	512.8927	65535	64671.65
818.2935	515.0461	65535	64676.7
818.4377	517.199	65535	64675.7
818.5818	519.3512	65535	64674.65
818.726	521.5029	65535	64672.5
818.8703	523.6539	65535	64671.9
819.0145	525.8043	65535	64671.8
819.1587	527.9541	65535	64668.8
819.303	530.1033	65535	64673.45
819.4472	532.2519	65535	64672.2
819.5915	534.3999	65535	64670.3
819.7357	536.5472	65535	64669
819.88	538.694	65535	64672.9
820.0243	540.8401	65535	64670.1
820.1686	542.9856	65535	64667.45
820.3129	545.1305	65535	64665.7
820.4572	547.2748	65535	64666.8
820.6016	549.4185	65535	64662.1
820.7459	551.5615	65535	64666
820.8902	553.704	65535	64664.5
821.0346	555.8458	65535	64670.2
821.1789	557.987	65535	64666.05
821.3233	560.1276	65535	64663.9
821.4677	562.2675	65535	64668.35
821.6121	564.4069	65535	64664.1
821.7565	566.5456	65535	64666.9
821.9009	568.6837	65535	64668.95
822.0453	570.8212	65535	64666.75
822.1897	572.958	65535	64664.95
822.3342	575.0942	65535	64664.7
822.4786	577.2299	65535	64663.6
822.6231	579.3648	65535	64668.5
822.7675	581.4992	65535	64669.2
822.912	583.6329	65535	64667.25
823.0565	585.766	65535	64667.1
823.201	587.8985	65535	64668.75
823.3454	590.0304	65535	64639.9
823.4899	592.1616	65535	64663.05
823.6345	594.2922	65535	64657.85
823.779	596.4222	65535	64661.1
823.9235	598.5515	65535	64659.75
824.068	600.6802	65535	64660.15
824.2126	602.8083	65535	64661.2
824.3571	604.9358	65535	64658.6
824.5017	607.0626	65535	64659.2
824.6462	609.1888	65535	64658.7
824.7908	611.3144	65535	64658.35
824.9354	613.4393	65535	64660.85
825.08	615.5636	65535	64658.05
825.2246	617.6873	65535	64661.25
825.3692	619.8103	65535	64657.05
825.5138	621.9327	65535	64657.55
825.6584	624.0544	65535	64661.2
825.803	626.1756	65535	64660.9
825.9477	628.2961	65535	64660.95
826.0923	630.4159	65535	64658.25
826.237	632.5351	65535	64655.3
826.3816	634.6537	65535	64656.1
826.5263	636.7716	65535	64654.2
826.6709	638.8889	65535	64651.9
826.8156	641.0056	65535	64652.35
826.9603	643.1216	65535	64654.75
827.105	645.237	65535	64652.7
827.2497	647.3518	65535	64655.1
827.3944	649.4659	65535	64655.2
827.5391	651.5793	65535	64655.85
827.6838	653.6922	65535	64656.45
827.8285	655.8043	65535	64653.55
827.9733	657.9159	65535	64654.9
828.118	660.0268	65535	64649.1
828.2627	662.137	65535	64651.8
828.4075	664.2466	65535	64646.5
828.5522	666.3556	65535	64652.05
828.697	668.4639	65535	64650.25
828.8418	670.5716	65535	64651.55
828.9865	672.6786	65535	64649.3
829.1313	674.785	65535	64647.7
829.2761	676.8907	65535	64649.45
829.4209	678.9958	65535	64652.8
829.5657	681.1002	65535	64648.65
829.7105	683.204	65535	64643.05
829.8553	685.3072	65535	64644.9
830.0001	687.4097	65535	64648.7
830.1449	689.5115	65535	64645.55
830.2898	691.6127	65535	64646.7
830.4346	693.7132	65535	64650.85
830.5794	695.8131	65535	64637.7
830.7243	697.9123	65535	64647.45
830.8691	700.0109	65535	64647.2
831.014	702.1089	65535	64647.1
831.1588	704.2061	65535	64648
831.3037	706.3028	65535	64645.8
831.4486	708.3987	65535	64646.25
831.5935	710.4941	65535	64648.5
831.7383	712.5887	65535	64645.4
831.8832	714.6827	65535	64643.15
832.0281	716.7761	65535	64645.3
832.173	718.8688	65535	64643.15
832.3179	720.9608	65535	64642.1
832.4628	723.0522	65535	64640.4
832.6077	725.1429	65535	64642.7
832.7527	727.233	65535	64644.5
832.8976	729.3224	65535	64643.55
833.0425	731.4112	65535	64644.1
833.1874	733.4993	65535	64640.55
833.3324	735.5867	65535	64641.5
833.4773	737.6735	65535	64640.9
833.6222	739.7596	65535	64640.75
833.7672	741.845	65535	64640.25
833.9122	743.9298	65535	64640.25
834.0571	746.014	65535	64645.5
834.2021	748.0974	65535	64642.6
834.347	750.1802	65535	64642.05
834.492	752.2624	65535	64641.65
834.637	754.3439	65535	64637.8
834.782	756.4247	65535	64632.8
834.9269	758.5048	65535	64640.7
835.0719	760.5843	65535	64637.8
835.2169	762.6631	65535	64641.15
835.3619	764.7413	65535	64639.15
835.5069	766.8188	65535	64640.25
835.6519	768.8956	65535	64641.1
835.7969	770.9718	65535	64638.4
835.9419	773.0473	65535	64643.15
836.0869	775.1221	65535	64638.8
836.232	777.1962	65535	64642.75
836.377	779.2697	65535	64638.2
836.522	781.3426	65535	64621.2
836.667	783.4147	65535	64638.8
836.8121	785.4862	65535	64643.65
836.9571	787.557	65535	64636.15
837.1021	789.6271	65535	64640.2
837.2472	791.6966	65535	64637.8
837.3922	793.7654	65535	64639.55
837.5373	795.8335	65535	64641.1
837.6823	797.901	65535	64639.35
837.8274	799.9678	65535	64637.65
837.9724	802.0339	65535	64636.9
838.1175	804.0993	65535	64629.35
838.2626	806.1641	65535	64636.9
838.4076	808.2282	65535	64640.25
838.5527	810.2916	65535	64636.1
838.6978	812.3544	65535	64640.35
838.8428	814.4164	65535	64639.7
838.9879	816.4778	65535	64637.3
839.133	818.5385	65535	64637
839.2781	820.5986	65535	64638.15
839.4232	822.658	65535	64633.55
839.5682	824.7166	65535	64638.4
839.7133	826.7747	65535	64637.95
839.8584	828.832	65535	64640.6
840.0035	830.8886	65535	64636.05
840.1486	832.9446	65535	64637.85
840.2937	834.9999	65535	64634.65
840.4388	837.0545	65535	64633
840.5839	839.1085	65535	64634.25
840.729	841.1618	65535	64631.65
840.8741	843.2143	65535	64635.7
841.0192	845.2662	65535	64637
841.1643	847.3175	65535	64636.8
841.3095	849.368	65535	64638.85
841.4546	851.4179	65535	64636.75
841.5997	853.467	65535	64637.65
841.7448	855.5155	65535	64634.45
841.8899	857.5633	65535	64636.65
842.0351	859.6105	65535	64638.7
842.1802	861.6569	65535	64635.5
842.3253	863.7027	65535	64634.15
842.4704	865.7478	65535	64637.85
842.6156	867.7922	65535	64637.3
842.7607	869.8359	65535	64634.85
842.9058	871.8789	65535	64635.35
843.0509	873.9212	65535	64601.65
843.1961	875.9629	65535	64635.8
843.3412	878.0039	65535	64633.15
843.4863	880.0441	65535	64634.7
843.6315	882.0837	65535	64633.55
843.7766	884.1226	65535	64632.35
843.9218	886.1609	65535	64637.75
844.0669	888.1984	65535	64635.7
844.212	890.2352	65535	64632.1
844.3572	892.2714	65535	64631.45
844.5023	894.3069	65535	64633.5
844.6475	896.3416	65535	64635.15
844.7926	898.3757	65535	64632.7
844.9377	900.4091	65535	64634.2
845.0829	902.4418	65535	64632.85
845.228	904.4739	65535	64630.95
845.3732	906.5052	65535	64633.55
845.5183	908.5358	65535	64634.8
845.6635	910.5658	65535	64633.7
845.8086	912.595	65535	64636.15
845.9538	914.6236	65535	64635.25
846.0989	916.6515	65535	64635.4
846.2441	918.6786	65535	64636.15
846.3892	920.7051	65535	64632
846.5344	922.7309	65535	64632.1
846.6795	924.756	65535	64632.95
846.8246	926.7804	65535	64631.6
846.9698	928.8041	65535	64625.05
847.1149	930.8272	65535	64632.9
847.2601	932.8495	65535	64630.2
847.4052	934.8711	65535	64633.4
847.5504	936.892	65535	64633.3
847.6955	938.9123	65535	64630.15
847.8407	940.9318	65535	64633.95
847.9858	942.9506	65535	64632.45
848.131	944.9688	65535	64633.3
848.2761	946.9862	65535	64633.2
848.4213	949.003	65535	64633.95
848.5664	951.019	65535	64632.05
848.7115	953.0344	65535	64631.05
848.8567	955.0491	65535	64632.35
849.0018	957.063	65535	64631.3
849.147	959.0763	65535	64635.75
849.2921	961.0888	65535	64630.15
849.4373	963.1007	65535	64631.2
849.5824	965.1119	65535	64635.4
849.7275	967.1223	65535	64633.65
849.8727	969.1321	65535	64635.4
850.0178	971.1412	65535	64635.1
850.1629	973.1495	65535	64633.25
850.3081	975.1572	65535	64601.25
850.4532	977.1641	65535	64632.9
850.5983	979.1704	65535	64631.45
850.7435	981.1759	65535	64632.1
850.8886	983.1808	65535	64628.85
851.0337	985.1849	65535	64621.55
851.1788	987.1884	65535	64628.95
851.324	989.1911	65535	64627.55
851.4691	991.1932	65535	64632.15
851.6142	993.1945	65535	64631
851.7593	995.1951	65535	64631.7
851.9045	997.1951	65535	64625.9
852.0496	999.1943	65535	64635.65
852.1947	1001.1928	65535	64633.45
852.3398	1003.1906	65535	64634.9
852.4849	1005.1877	65535	64632.95
852.63	1007.1841	65535	64631.65
852.7751	1009.1798	65535	64631.55
852.9202	1011.1748	65535	64633.6
853.0653	1013.1691	65535	64631.7
853.2104	1015.1627	65535	64632.15
853.3555	1017.1556	65535	64633.7
853.5006	1019.1477	65535	64630.95
853.6457	1021.1392	65535	64633.9
853.7908	1023.1299	65535	64633.35
853.9359	1025.12	65535	64633.45
854.081	1027.1093	65535	64634
854.2261	1029.0979	65535	64636.8
854.3712	1031.0859	65535	64637.9
854.5163	1033.0731	65535	64634.65
854.6613	1035.0596	65535	64635.55
854.8064	1037.0454	65535	64633
854.9515	1039.0304	65535	64630.25
855.0965	1041.0148	65535	64633.45
855.2416	1042.9985	65535	64630
855.3867	1044.9814	65535	64634.2
855.5317	1046.9636	65535	64634.55
855.6768	1048.9452	65535	64633.3
855.8219	1050.926	65535	64634.95
855.9669	1052.9061	65535	64633.65
856.112	1054.8855	65535	64631.85
856.257	1056.8642	65535	64634.15
856.4021	1058.8421	65535	64628.3
856.5471	1060.8194	65535	64631.75
856.6921	1062.7959	65535	64632.95
856.8372	1064.7717	65535	64628.45
856.9822	1066.7469	65535	64632.7
857.1272	1068.7213	65535	64629.95
857.2723	1070.695	65535	64631.9
857.4173	1072.6679	65535	64633
857.5623	1074.6402	65535	64634.4
857.7073	1076.6117	65535	64625.05
857.8523	1078.5826	65535	64632.55
857.9973	1080.5527	65535	64630.7
858.1423	1082.5221	65535	64632.6
858.2873	1084.4908	65535	64633.5
858.4323	1086.4587	65535	64631.8
858.5773	1088.426	65535	64633
858.7223	1090.3925	65535	64627.35
858.8673	1092.3584	65535	64632.3
859.0123	1094.3235	65535	64633.1
859.1573	1096.2879	65535	64632.35
859.3022	1098.2515	65535	64633
859.4472	1100.2145	65535	64632.7
859.5922	1102.1767	65535	64631.9
859.7371	1104.1382	65535	64632.05
859.8821	1106.099	65535	64630.2
860.027	1108.0591	65535	64632.45
860.172	1110.0185	65535	64630.8
860.3169	1111.9771	65535	64632.6
860.4619	1113.9351	65535	64633
860.6068	1115.8923	65535	64630
860.7517	1117.8488	65535	64632.95
860.8967	1119.8045	65535	64633.85
861.0416	1121.7596	65535	64632.1
861.1865	1123.7139	65535	64632.1
861.3314	1125.6675	65535	64633.1
861.4763	1127.6204	65535	64632.15
861.6212	1129.5726	65535	64631.2
861.7661	1131.524	65535	64632.9
861.911	1133.4748	65535	64635.4
862.0559	1135.4248	65535	64632.15
862.2008	1137.3741	65535	64632.65
862.3457	1139.3226	65535	64632.4
862.4905	1141.2705	65535	64632.45
862.6354	1143.2176	65535	64623.65
862.7803	1145.164	65535	64630.2
862.9251	1147.1097	65535	64630.75
863.07	1149.0546	65535	64630.85
863.2148	1150.9989	65535	64631.85
863.3597	1152.9424	65535	64632.6
863.5045	1154.8852	65535	64632.25
863.6493	1156.8272	65535	64633.3
863.7942	1158.7686	65535	64625.4
863.939	1160.7092	65535	64632.5
864.0838	1162.6491	65535	64631.6
864.2286	1164.5883	65535	64634.55
864.3734	1166.5267	65535	64631.9
864.5182	1168.4644	65535	64632.9
864.663	1170.4014	65535	64627.4
864.8078	1172.3377	65535	64633.05
864.9526	1174.2732	65535	64635.1
865.0974	1176.2081	65535	64633.8
865.2421	1178.1421	65535	64629.5
865.3869	1180.0755	65535	64634.3
865.5317	1182.0082	65535	64631.1
865.6764	1183.9401	65535	64633.2
865.8212	1185.8713	65535	64634.8
865.9659	1187.8017	65535	64634.45
866.1106	1189.7315	65535	64636.65
866.2554	1191.6605	65535	64607.75
866.4001	1193.5888	65535	64635.65
866.5448	1195.5163	65535	64635.8
866.6895	1197.4432	65535	64632.7
866.8342	1199.3693	65535	64632.95
866.9789	1201.2947	65535	64630.6
867.1236	1203.2193	65535	64635.45
867.2683	1205.1432	65535	64632.35
867.413	1207.0664	65535	64634.4
867.5576	1208.9889	65535	64631.95
867.7023	1210.9106	65535	64635.9
867.847	1212.8316	65535	64634.3
867.9916	1214.7519	65535	64623.1
868.1363	1216.6715	65535	64634.05
868.2809	1218.5903	65535	64634.4
868.4255	1220.5084	65535	64634.5
868.5701	1222.4257	65535	64633.75
868.7148	1224.3424	65535	64636.25
868.8594	1226.2583	65535	64630
869.004	1228.1735	65535	64632.65
869.1486	1230.0879	65535	64633.2
869.2932	1232.0016	65535	64636.5
869.4377	1233.9146	65535	64630.2
869.5823	1235.8269	65535	64633.65
869.7269	1237.7384	65535	64634.95
869.8715	1239.6492	65535	64636.75
870.016	1241.5592	65535	64632.95
870.1606	1243.4686	65535	64635.45
870.3051	1245.3772	65535	64633.3
870.4496	1247.285	65535	64631.95
870.5941	1249.1922	65535	64634.4
870.7387	1251.0986	65535	64633.95
870.8832	1253.0042	65535	64635.4
871.0277	1254.9092	65535	64634.5
871.1722	1256.8134	65535	64635.15
871.3167	1258.7169	65535	64632.6
871.4611	1260.6196	65535	64635.9
871.6056	1262.5216	65535	64632.2
871.7501	1264.4229	65535	64634.95
871.8945	1266.3234	65535	64635.15
872.039	1268.2232	65535	64633.3
872.1834	1270.1223	65535	64632.45
872.3278	1272.0207	65535	64633.2
872.4723	1273.9183	65535	64627.45
872.6167	1275.8151	65535	64635
872.7611	1277.7113	65535	64634.55
872.9055	1279.6067	65535	64633.6
873.0499	1281.5014	65535	64632.9
873.1943	1283.3953	65535	64632.7
873.3386	1285.2885	65535	64634.75
873.483	1287.181	65535	64636
873.6274	1289.0727	65535	64635.45
873.7717	1290.9637	65535	64633.9
873.9161	1292.854	65535	64633.7
874.0604	1294.7435	65535	64634.15
874.2047	1296.6323	65535	64633.7
874.349	1298.5204	65535	64628.15
874.4933	1300.4077	65535	64632.65
874.6376	1302.2943	65535	64635.75
874.7819	1304.1802	65535	64633.95
874.9262	1306.0653	65535	64632.4
875.0705	1307.9497	65535	64635.85
875.2147	1309.8333	65535	64634.5
875.359	1311.7162	65535	64634.35
875.5032	1313.5984	65535	64630.35
875.6475	1315.4798	65535	64630.55
875.7917	1317.3605	65535	64619.15
875.9359	1319.2405	65535	64634.05
876.0801	1321.1197	65535	64635.2
876.2243	1322.9982	65535	64630.65
876.3685	1324.876	65535	64632.15
876.5127	1326.753	65535	64632.2
876.6569	1328.6293	65535	64632.9
876.801	1330.5048	65535	64631.6
876.9452	1332.3796	65535	64636.25
877.0893	1334.2537	65535	64612.2
877.2335	1336.127	65535	64633.4
877.3776	1337.9996	65535	64633.65
877.5217	1339.8714	65535	64634.9
877.6658	1341.7426	65535	64588.4
877.8099	1343.6129	65535	64634.55
877.954	1345.4826	65535	64633.45
878.0981	1347.3515	65535	64630.75
878.2422	1349.2196	65535	64633.95
878.3862	1351.087	65535	64633.35
878.5303	1352.9537	65535	64633.85
878.6743	1354.8197	65535	64637
878.8184	1356.6849	65535	64635.25
878.9624	1358.5493	65535	64632.05
879.1064	1360.4131	65535	64631.55
879.2504	1362.276	65535	64636.5
879.3944	1364.1383	65535	64632.4
879.5384	1365.9998	65535	64629.3
879.6823	1367.8606	65535	64635.15
879.8263	1369.7206	65535	64634.55
879.9702	1371.5799	65535	64632.95
880.1142	1373.4384	65535	64636.15
880.2581	1375.2962	65535	64632.4
880.402	1377.1533	65535	64634.55
880.5459	1379.0096	65535	64633.35
880.6898	1380.8652	65535	64633.1
880.8337	1382.7201	65535	64633.55
880.9776	1384.5742	65535	64635.6
881.1215	1386.4275	65535	64633.9
881.2653	1388.2802	65535	64637.1
881.4092	1390.132	65535	64635.6
881.553	1391.9832	65535	64631.6
881.6968	1393.8336	65535	64634.1
881.8406	1395.6832	65535	64633.1
881.9844	1397.5322	65535	64636.1
882.1282	1399.3803	65535	64628.95
882.272	1401.2278	65535	64633.35
882.4158	1403.0745	65535	64633.45
882.5595	1404.9204	65535	64634.65
882.7033	1406.7656	65535	64633.95
882.847	1408.6101	65535	64633.8
882.9908	1410.4538	65535	64634.75
883.1345	1412.2968	65535	64635.35
883.2782	1414.139	65535	64635
883.4219	1415.9805	65535	64636.4
883.5656	1417.8213	65535	64627.4
883.7092	1419.6613	65535	64635.9
883.8529	1421.5006	65535	64631.6
883.9965	1423.3391	65535	64634.15
884.1402	1425.1769	65535	64635.9
884.2838	1427.0139	65535	64633.35
884.4274	1428.8502	65535	64632.5
884.571	1430.6858	65535	64635.3
884.7146	1432.5206	65535	64633
884.8582	1434.3547	65535	64634.75
885.0018	1436.188	65535	64633.15
885.1453	1438.0206	65535	64634.3
885.2889	1439.8524	65535	64634.55
885.4324	1441.6835	65535	64633.5
885.5759	1443.5139	65535	64631
885.7194	1445.3435	65535	64637.15
885.8629	1447.1724	65535	64635.8
886.0064	1449.0005	65535	64635.3
886.1499	1450.8279	65535	64632.75
886.2933	1452.6545	65535	64636.55
886.4368	1454.4804	65535	64634.8
886.5802	1456.3056	65535	64627.35
886.7237	1458.13	65535	64634.35
886.8671	1459.9536	65535	64634
887.0105	1461.7766	65535	64635.3
887.1539	1463.5987	65535	64633.3
887.2972	1465.4202	65535	64636.7
887.4406	1467.2409	65535	64636.1
887.584	1469.0608	65535	64635.3
887.7273	1470.88	65535	64635.4
887.8706	1472.6984	65535	64636.8
888.0139	1474.5161	65535	64632.55
888.1572	1476.3331	65535	64636.6
888.3005	1478.1493	65535	64634.7
888.4438	1479.9648	65535	64635.4
888.5871	1481.7795	65535	64634.85
888.7303	1483.5935	65535	64636.55
888.8736	1485.4067	65535	64637.75
889.0168	1487.2192	65535	64634.3
889.16	1489.031	65535	64633.45
889.3032	1490.842	65535	64636.45
889.4464	1492.6522	65535	64636.25
889.5896	1494.4618	65535	64633.95
889.7327	1496.2705	65535	64639.05
889.8759	1498.0785	65535	64635.15
890.019	1499.8858	65535	64635.3
890.1622	1501.6924	65535	64636.4
890.3053	1503.4981	65535	64637.45
890.4484	1505.3032	65535	64635.3
890.5914	1507.1075	65535	64636.85
890.7345	1508.911	65535	64636.85
890.8776	1510.7138	65535	64636.95
891.0206	1512.5159	65535	64637.55
891.1637	1514.3172	65535	64636
891.3067	1516.1178	65535	64636.95
891.4497	1517.9176	65535	64634.3
891.5927	1519.7166	65535	64637.9
891.7357	1521.515	65535	64629.95
891.8786	1523.3126	65535	64635.75
892.0216	1525.1094	65535	64634
892.1645	1526.9055	65535	64637.45
892.3074	1528.7008	65535	64637.65
892.4503	1530.4954	65535	64637.3
892.5932	1532.2893	65535	64637.7
892.7361	1534.0824	65535	64631.35
892.879	1535.8747	65535	64638.5
893.0218	1537.6663	65535	64636.4
893.1647	1539.4572	65530.8	64630.25
893.3075	1541.2473	65535	64636.05
893.4503	1543.0367	65535	64635.9
893.5931	1544.8253	65534.9	64632.55
893.7359	1546.6132	65535	64633.3
893.8787	1548.4003	65533.45	64627.55
894.0214	1550.1867	65530.6	64623.15
894.1642	1551.9723	65528.2	64622.7
894.3069	1553.7572	65529.5	64631.4
894.4496	1555.5414	65535	64638.65
894.5923	1557.3247	65462.5	64566
894.735	1559.1074	65534.25	64638.9
894.8777	1560.8893	65521.75	64623.65
895.0204	1562.6705	65526.95	64628.55
895.163	1564.4509	65479	64583.3
895.3056	1566.2305	65518.35	64622.55
895.4482	1568.0094	65527.2	64630.75
895.5908	1569.7876	65519.85	64625.3
895.7334	1571.565	65473.6	64575.95
895.876	1573.3417	65493.85	64597.2
896.0186	1575.1176	65490.35	64593.4
896.1611	1576.8928	65482.75	64585.4
896.3036	1578.6672	65440.8	64546.25
896.4461	1580.4409	65466.85	64572.55
896.5886	1582.2138	65395.15	64497.5
896.7311	1583.986	65432.4	64537.05
896.8736	1585.7575	65366	64471.2
897.0161	1587.5282	65422.6	64528.45
897.1585	1589.2981	65430.35	64536.3
897.3009	1591.0673	65344.05	64450.05
897.4433	1592.8358	65301.3	64404.6
897.5857	1594.6035	65361.35	64464.2
897.7281	1596.3704	65388.75	64491.1
897.8705	1598.1366	65279.7	64383.1
898.0128	1599.9021	65226.2	64330.5
898.1551	1601.6668	65310.45	64413.6
898.2975	1603.4308	65274.05	64378.15
898.4398	1605.194	65295.7	64396.15
898.5821	1606.9564	65162.35	64269.25
898.7243	1608.7182	65230.45	64334.2
898.8666	1610.4791	65180.05	64285.95
899.0088	1612.2394	65248.5	64355.95
899.1511	1613.9988	65155.7	64263.5
899.2933	1615.7576	65240.6	64346.85
899.4355	1617.5156	65220.85	64321
899.5776	1619.2728	65293.55	64398.35
899.7198	1621.0293	65136.45	64244.35
899.862	1622.785	65139.2	64244.05
900.0041	1624.54	65202.5	64306
900.1462	1626.2942	65144.15	64249.05
900.2883	1628.0477	65039.45	64146.2
900.4304	1629.8005	64918.95	64021.25
900.5725	1631.5525	65051.35	64156.75
900.7145	1633.3037	64880.7	63986.6
900.8566	1635.0542	64867.45	63972.1
900.9986	1636.804	64951.25	64057.55
901.1406	1638.553	64783.4	63798.95
901.2826	1640.3013	64869	63975.85
901.4245	1642.0488	64757	63861
901.5665	1643.7955	64850.7	63957.45
901.7085	1645.5416	64750.8	63858.35
901.8504	1647.2868	64698.45	63805.75
901.9923	1649.0313	64813.15	63919
902.1342	1650.7751	64733.4	63837.15
902.2761	1652.5181	64666.7	63772.55
902.4179	1654.2604	64667.7	63772.75
902.5598	1656.0019	64728.4	63835.05
902.7016	1657.7427	64665.6	63772.45
902.8434	1659.4828	64744.1	63850.3
902.9852	1661.222	64663.75	63770.05
903.127	1662.9606	64741.25	63849.3
903.2687	1664.6984	64624.45	63729.65
903.4105	1666.4354	64684.2	63789.5
903.5522	1668.1717	64526.25	63632.25
903.6939	1669.9072	64404.25	63510.55
903.8356	1671.642	64376.35	63479
903.9773	1673.3761	64327.65	63433.65
904.119	1675.1094	64298.8	63403.65
904.2606	1676.8419	64149.4	63254.9
904.4022	1678.5737	64181.6	63288.8
904.5439	1680.3048	64122.55	63230.75
904.6855	1682.0351	64037.35	63145.2
904.827	1683.7646	63965.6	63070.6
904.9686	1685.4934	64018.6	63125.7
905.1101	1687.2215	63775.8	62882.05
905.2517	1688.9488	63932.65	63038.95
905.3932	1690.6754	63600.55	62707.95
905.5347	1692.4012	63758.15	62866.2
905.6761	1694.1263	63766.55	62871.75
905.8176	1695.8506	63630.1	62735.95
905.9591	1697.5742	63610.55	62719.25
906.1005	1699.297	63606.95	62716.3
906.2419	1701.0191	63578.75	62685.35
906.3833	1702.7404	63401.6	62510.25
906.5246	1704.461	63317.4	62425.75
906.666	1706.1808	63386.85	62494.6
906.8073	1707.8999	63335.25	62441.9
906.9487	1709.6182	63299.15	62407.3
907.09	1711.3358	63266.55	62373.95
907.2313	1713.0527	63194.1	62305.1
907.3725	1714.7688	63207.95	62310.8
907.5138	1716.4841	62993.45	62099.95
907.655	1718.1987	63069	62170
907.7962	1719.9126	63020.1	62127.65
907.9374	1721.6257	63035.7	62142.35
908.0786	1723.338	63045.9	62152.8
908.2198	1725.0496	62818.1	61925.85
908.3609	1726.7605	62816.8	61923.8
908.502	1728.4706	62734.95	61840.9
908.6431	1730.18	62778.4	61884.2
908.7842	1731.8886	62677.3	61786.3
908.9253	1733.5964	62629.5	61733.2
909.0664	1735.3036	62707.1	61811.55
909.2074	1737.0099	62632.9	61742.9
909.3484	1738.7156	62553.65	61663.15
909.4894	1740.4204	62511.15	61617.1
909.6304	1742.1246	62518.55	61625.55
909.7714	1743.8279	62510.7	61619.25
909.9123	1745.5306	62507.55	61615.6
910.0532	1747.2325	62260.65	61367.8
910.1941	1748.9336	62261.3	61369.3
910.335	1750.634	62261.9	61370.2
910.4759	1752.3336	62338.85	61447.2
910.6168	1754.0325	62177.7	61287.55
910.7576	1755.7307	62248.95	61360.25
910.8984	1757.4281	62096.7	61205.2
911.0392	1759.1247	62221.1	61320.9
911.18	1760.8206	61933.95	61036.85
911.3208	1762.5158	61947.2	61050.85
911.4615	1764.2102	61980.35	61087.95
911.6022	1765.9039	61938.1	61047.5
911.7429	1767.5968	61838.7	60947.95
911.8836	1769.289	61806.4	60915.95
912.0243	1770.9804	61870.5	60979.25
912.1649	1772.6711	61760.3	60868.5
912.3056	1774.361	61655.9	60764.25
912.4462	1776.0502	61656.85	60763.25
912.5868	1777.7386	61235.4	60339.2
912.7274	1779.4263	61513.6	60620.95
912.8679	1781.1132	61491.7	60601.5
913.0084	1782.7994	61399.15	60506.75
913.149	1784.4849	61353.95	60463.95
913.2895	1786.1696	60752.05	59853.7
913.4299	1787.8535	61123	60232.95
913.5704	1789.5367	61200.9	60310.4
913.7108	1791.2192	60815.9	59925.1
913.8513	1792.9009	60480.15	59558.35
913.9917	1794.5818	60884.25	59992.2
914.132	1796.2621	60487.5	59597.7
914.2724	1797.9415	60532.4	59640.45
914.4128	1799.6202	60439.7	59548.5
914.5531	1801.2982	60436.95	59546.2
914.6934	1802.9755	59999.2	59108.35
914.8337	1804.6519	59818.35	58926.1
914.9739	1806.3277	60450.5	59558.65
915.1142	1808.0027	59400.7	58509.8
915.2544	1809.6769	59809.6	58918.65
915.3946	1811.3504	59854.95	58963.55
915.5348	1813.0231	59064.75	58174
915.675	1814.6951	59576.9	58685.85
915.8151	1816.3664	59252.4	58362
915.9553	1818.0369	59223.45	58333.75
916.0954	1819.7067	58924.45	58033.3
916.2355	1821.3757	59474.55	58582.25
916.3755	1823.044	58832.25	57941.3
916.5156	1824.7115	58466.7	57574.8
916.6556	1826.3783	58664.75	57774.2
916.7956	1828.0443	58713.1	57823.9
916.9356	1829.7096	58427.7	57534.1
917.0756	1831.3741	57927.45	57032.15
917.2155	1833.0379	58243.35	57352.95
917.3555	1834.701	58168	57274.5
917.4954	1836.3633	57796.3	56904.85
917.6353	1838.0248	57992.15	57099.05
917.7751	1839.6856	57934.25	57040.65
917.915	1841.3457	57495.6	56605.1
918.0548	1843.005	57968.45	57078.3
918.1946	1844.6636	57627.25	56738.15
918.3344	1846.3214	56960.4	56068.35
918.4742	1847.9785	57163	56272.1
918.6139	1849.6349	57095.65	56202.85
918.7537	1851.2904	57506.5	56605.55
918.8934	1852.9453	56766.1	55872.8
919.0331	1854.5994	57084.2	56190.65
919.1727	1856.2528	57058.8	56162.05
919.3124	1857.9054	56587.7	55697.25
919.452	1859.5572	56371.9	55482.45
919.5916	1861.2083	56578.5	55687.4
919.7312	1862.8587	57009.3	56118.2
919.8708	1864.5084	55718.4	54826.5
920.0103	1866.1572	56312.45	55422.15
920.1498	1867.8054	55597.85	54705.35
920.2893	1869.4528	56015.1	55122.8
920.4288	1871.0994	55523.3	54632.3
920.5683	1872.7453	55346.3	54454.4
920.7077	1874.3905	55621.7	54724
920.8471	1876.0349	55101	54208.6
920.9865	1877.6786	55538.65	54647.1
921.1259	1879.3215	54963.65	54073.15
921.2653	1880.9637	55452.5	54559.6
921.4046	1882.6051	54869.9	53979
921.5439	1884.2458	54622.65	53730.1
921.6832	1885.8858	54303	53410.75
921.8225	1887.525	54500.35	53610.1
921.9617	1889.1634	54405.55	53513.65
922.101	1890.8011	54107.1	53218
922.2402	1892.4381	53529.1	52637.1
922.3794	1894.0743	54159.6	53269.15
922.5185	1895.7098	53775.05	52883.8
922.6577	1897.3446	53369	52477.05
922.7968	1898.9786	53494.95	52598.6
922.9359	1900.6118	53192.65	52304.5
923.075	1902.2443	52925.95	52033.05
923.214	1903.8761	53232.55	52339.85
923.3531	1905.5071	52816.85	51923.3
923.4921	1907.1374	52118.65	51227.75
923.6311	1908.7669	52437.85	51548.2
923.77	1910.3957	52647.9	51757.05
923.909	1912.0237	52016.1	51124.75
924.0479	1913.651	51761.15	50869.5
924.1868	1915.2776	51642.6	50753.6
924.3257	1916.9034	51603.45	50714.55
924.4646	1918.5285	51316.45	50427.35
924.6034	1920.1528	51289.15	50399.25
924.7422	1921.7764	51054.1	50164.65
924.881	1923.3992	50922.3	50032.5
925.0198	1925.0213	50600.1	49709.3
925.1586	1926.6427	50212.35	49322.9
925.2973	1928.2633	50369.75	49400.4
925.436	1929.8832	50214.2	49323.35
925.5747	1931.5023	50054	49164.1
925.7134	1933.1207	49646.35	48757.2
925.852	1934.7383	49818.45	48927.35
925.9906	1936.3552	49497.9	48606.5
926.1292	1937.9714	49423	48532.9
926.2678	1939.5868	49316.8	48424.75
926.4064	1941.2015	48873.15	47981
926.5449	1942.8154	48559	47668
926.6834	1944.4286	48559.25	47667.35
926.8219	1946.041	48500.15	47590.2
926.9604	1947.6528	48167.05	47272.9
927.0988	1949.2637	48036.4	47144.85
927.2372	1950.8739	47806.95	46916.3
927.3756	1952.4834	47881	46990.35
927.514	1954.0921	47675.95	46785.8
927.6523	1955.7001	47414.25	46517.95
927.7907	1957.3074	47450.8	46560.35
927.929	1958.9139	47125.1	46233.2
928.0673	1960.5197	47151.2	46260.25
928.2055	1962.1247	46849.65	45960.75
928.3438	1963.729	46582.5	45692.75
928.482	1965.3325	46437.5	45528.2
928.6202	1966.9353	46372.2	45482.75
928.7584	1968.5374	46156.6	45266.05
928.8965	1970.1387	45963.5	45072.7
929.0346	1971.7393	45897.1	45006.65
929.1727	1973.3392	45734.25	44844.8
929.3108	1974.9383	45524.05	44634
929.4489	1976.5366	45298.1	44407.45
929.5869	1978.1342	45388.05	44498.35
929.7249	1979.7311	45181	44290.55
929.8629	1981.3273	45036.55	44146.95
930.0009	1982.9227	44830.45	43940.55
930.1388	1984.5173	44756.05	43868.5
930.2767	1986.1112	44515.6	43626.85
930.4146	1987.7044	44523.85	43636.2
930.5525	1989.2968	44204.95	43313.55
930.6904	1990.8885	44179.1	43286.05
930.8282	1992.4795	44006.85	43117.4
930.966	1994.0697	43884.9	42996.25
931.1038	1995.6592	43714.9	42825.9
931.2415	1997.2479	43582.6	42691.9
931.3793	1998.8359	43517.65	42628.95
931.517	2000.4232	43246.35	42358.45
931.6547	2002.0097	43208.65	42318.25
931.7923	2003.5955	42943.25	42054.5
931.93	2005.1805	42952.8	42060.95
932.0676	2006.7648	42823.2	41933.25
932.2052	2008.3484	42638.45	41748.45
932.3427	2009.9312	42630.4	41740.4
932.4803	2011.5133	42435.8	41547.85
932.6178	2013.0946	42311.8	41424.9
932.7553	2014.6752	42191.85	41303.7
932.8928	2016.2551	42093.75	41203.45
933.0302	2017.8342	41901.95	41012.85
933.1676	2019.4126	41741.65	40853.5
933.305	2020.9902	41574.45	40686.2
933.4424	2022.5672	41502.5	40612
933.5798	2024.1433	41379.45	40484
933.7171	2025.7188	41271.6	40384.8
933.8544	2027.2935	41131.3	40242.2
933.9917	2028.8674	40968.1	40080.95
934.129	2030.4406	40858.8	39970.25
934.2662	2032.0131	40627.5	39738.9
934.4034	2033.5849	40599.85	39703.6
934.5406	2035.1559	40481.05	39592.65
934.6778	2036.7261	40381.7	39495.1
934.8149	2038.2957	40247.15	39358.3
934.952	2039.8645	40210.4	39321.75
935.0891	2041.4325	40187.5	39296.6
935.2262	2042.9998	40035.25	39146.5
935.3632	2044.5664	39901.1	39009.25
935.5002	2046.1323	39742.85	38854.55
935.6372	2047.6974	39620.05	38733.2
935.7742	2049.2617	39510	38622.35
935.9111	2050.8254	39617.95	38723.45
936.048	2052.3883	39418.35	38529.7
936.1849	2053.9504	39260.1	38370.2
936.3218	2055.5118	39121.35	38231.6
936.4586	2057.0725	38963.85	38070.35
936.5955	2058.6325	38858.4	37969.2
936.7323	2060.1917	38734.1	37845.95
936.869	2061.7502	38626.95	37733.2
937.0058	2063.3079	38498.05	37610.45
937.1425	2064.8649	38326.3	37434.35
937.2792	2066.4212	38221.75	37333
937.4159	2067.9767	38175.8	37287.85
937.5525	2069.5315	37989.3	37101.3
937.6891	2071.0856	37875.9	36986.65
937.8257	2072.6389	37681.6	36791.25
937.9623	2074.1915	37540.35	36652.65
938.0989	2075.7433	37327.3	36435.65
938.2354	2077.2945	37299.35	36412.75
938.3719	2078.8448	37095.25	36206.6
938.5084	2080.3945	36993.6	36106.75
938.6448	2081.9434	36958.1	36070.6
938.7812	2083.4916	36883.6	35992.9
938.9176	2085.039	36702.25	35810.45
939.054	2086.5857	36660.45	35768.6
939.1903	2088.1317	36560	35670.4
939.3267	2089.677	36405.55	35516.55
939.463	2091.2215	36296.75	35406.9
939.5992	2092.7652	36220.6	35329.8
939.7355	2094.3083	36136.9	35247.2
939.8717	2095.8506	36087.1	35199.65
940.0079	2097.3921	36001.5	35114.7
940.1441	2098.933	35863.2	34974
940.2802	2100.4731	35774.5	34886.95
940.4163	2102.0124	35775.3	34877.6
940.5524	2103.5511	35623.9	34734
940.6885	2105.089	35554.85	34665.5
940.8245	2106.6261	35472	34583.65
940.9606	2108.1626	35324.5	34434.55
941.0965	2109.6983	35321.55	34401.2
941.2325	2111.2332	35168.4	34278
941.3684	2112.7675	35049	34159.85
941.5044	2114.301	34961.9	34070.7
941.6403	2115.8337	34936.45	34046.3
941.7761	2117.3657	34803.25	33913.35
941.912	2118.897	34738.95	33848.8
942.0478	2120.4276	34586.15	33692.6
942.1835	2121.9575	34423.1	33531.8
942.3193	2123.4866	34482.2	33578.4
942.455	2125.0149	34333.45	33442.35
942.5907	2126.5426	34127.05	33237.25
942.7264	2128.0695	34018.9	33125
942.8621	2129.5956	33977.7	33089.8
942.9977	2131.1211	33917.15	33023.45
943.1333	2132.6458	33842.3	32955.85
943.2689	2134.1698	33782.3	32894.4
943.4044	2135.693	33613.45	32722.6
943.54	2137.2155	33548.1	32654.65
943.6755	2138.7373	33430.4	32540.9
943.8109	2140.2584	33327	32439.1
943.9464	2141.7787	33210.35	32315.75
944.0818	2143.2983	33073.15	32186.85
944.2172	2144.8171	32932.75	32045
944.3526	2146.3353	32817.4	31925.5
944.4879	2147.8527	32691.75	31805.75
944.6232	2149.3693	32723.05	31834.5
944.7585	2150.8853	32591.8	31701.85
944.8938	2152.4005	32405.5	31514
945.029	2153.9149	32364.75	31475.05
945.1642	2155.4287	32243.2	31354.55
945.2994	2156.9417	32166.45	31276.75
945.4346	2158.454	32081.5	31189.7
945.5697	2159.9655	32016.6	31126.35
945.7048	2161.4764	31978.55	31088.75
945.8399	2162.9865	31854.35	30965.4
945.9749	2164.4958	31797	30906.85
946.1099	2166.0045	31572.8	30681.35
946.2449	2167.5124	31540.85	30650.9
946.3799	2169.0195	31440	30553.45
946.5148	2170.526	31410.6	30522.35
946.6498	2172.0317	31286.7	30397.55
946.7846	2173.5367	31192.45	30302
946.9195	2175.0409	31082.8	30194
947.0543	2176.5445	31129.55	30241.95
947.1891	2178.0473	30964.15	30074.1
947.3239	2179.5494	30804.5	29911.3
947.4587	2181.0507	30729.85	29839.9
947.5934	2182.5513	30666.45	29777.6
947.7281	2184.0512	30570.95	29682.6
947.8628	2185.5504	30467.75	29577.75
947.9974	2187.0488	30268.85	29380.5
948.132	2188.5465	30222.2	29334.25
948.2666	2190.0435	30045.65	29156.2
948.4012	2191.5397	29966.75	29077.75
948.5357	2193.0353	29879.85	28991.85
948.6702	2194.5301	29719.45	28830.05
948.8047	2196.0241	29613.9	28724.9
948.9392	2197.5175	29585.55	28696.3
949.0736	2199.0101	29424.95	28531.35
949.208	2200.502	29271	28382.6
949.3424	2201.9931	29194.4	28304.2
949.4767	2203.4835	29102.3	28213.75
949.611	2204.9733	28995.2	28101.55
949.7453	2206.4622	28938.15	28050.5
949.8796	2207.9505	28861.7	27971.8
950.0138	2209.438	28681	27793.65
950.148	2210.9248	28579.75	27688.4
950.2822	2212.4109	28503.2	27615.8
950.4164	2213.8962	28410.35	27519.35
950.5505	2215.3809	28359.7	27468
950.6846	2216.8648	28305.4	27418.05
950.8186	2218.3479	28203.75	27308.45
950.9527	2219.8304	28070.8	27180.3
951.0867	2221.3121	27959.85	27069.05
951.2207	2222.7931	27877.45	26989
951.3546	2224.2733	27780	26891.3
951.4886	2225.7529	27646.6	26757.4
951.6225	2227.2317	27547.5	26655.3
951.7563	2228.7098	27564.9	26677.9
951.8902	2230.1872	27396.25	26506.75
952.024	2231.6638	27349.5	26461.75
952.1578	2233.1397	27229.85	26334.55
952.2916	2234.6149	27176.8	26289.05
952.4253	2236.0894	27046.7	26158.1
952.559	2237.5632	27013.8	26122.9
952.6927	2239.0362	26854	25965.3
952.8263	2240.5085	26769.2	25879.05
952.9599	2241.9801	26670.1	25779.9
953.0935	2243.4509	26620.1	25730.5
953.2271	2244.921	26508.55	25618.2
953.3606	2246.3904	26344.75	25451.2
953.4941	2247.8591	26272.8	25384.5
953.6276	2249.3271	26229.45	25341.95
953.7611	2250.7943	26157	25266.9
953.8945	2252.2608	26045.95	25157.25
954.0279	2253.7266	25973.8	25083.4
954.1612	2255.1917	25921.65	25032.45
954.2946	2256.656	25782	24890.2
954.4279	2258.1197	25703.7	24816.45
954.5612	2259.5826	25670.85	24781.75
954.6944	2261.0447	25648.75	24757.4
954.8276	2262.5062	25540.2	24649.7
954.9608	2263.9669	25455.7	24563.45
955.094	2265.4269	25418.75	24530.2
955.2271	2266.8862	25289.45	24400.7
955.3602	2268.3448	25285.95	24397.55
955.4933	2269.8026	25204.15	24314
955.6264	2271.2598	25101.4	24211.65
955.7594	2272.7162	25053.15	24162.85
955.8924	2274.1719	24967.7	24078.05
956.0253	2275.6268	24906.95	24017.7
956.1583	2277.0811	24837.55	23948.65
956.2912	2278.5346	24748.6	23860.45
956.4241	2279.9874	24684.55	23794.1
956.5569	2281.4395	24695.3	23809.05
956.6897	2282.8908	24517.4	23624
956.8225	2284.3414	24516.2	23625.5
956.9553	2285.7914	24370.8	23482.35
957.088	2287.2406	24280	23387.7
957.2207	2288.689	24214.1	23323.6
957.3534	2290.1368	24155.5	23266.4
957.486	2291.5838	24072.65	23180.8
957.6186	2293.0302	24032.2	23141.25
957.7512	2294.4758	23871.6	22982.4
957.8838	2295.9206	23788.15	22896.65
958.0163	2297.3648	23729.25	22838.95
958.1488	2298.8082	23732.15	22843.2
958.2813	2300.251	23615.8	22726.2
958.4137	2301.693	23557.1	22665.65
958.5461	2303.1343	23561.7	22672.5
958.6785	2304.5748	23430.8	22540.9
958.8108	2306.0147	23331.65	22442.5
958.9432	2307.4538	23340.4	22451.55
959.0754	2308.8922	23197.95	22310.1
959.2077	2310.3299	23154.4	22266.3
959.3399	2311.7669	23038.5	22149.9
959.4721	2313.2031	22977.55	22088.85
959.6043	2314.6387	22939.3	22049.1
959.7365	2316.0735	22822.4	21930.6
959.8686	2317.5076	22788.05	21899.5
960.0006	2318.941	22700.9	21812.5
960.1327	2320.3737	22574.2	21685.35
960.2647	2321.8056	22561.45	21670.55
960.3967	2323.2369	22488.2	21600.05
960.5287	2324.6674	22369.25	21478.85
960.6606	2326.0972	22327.6	21437.25
960.7925	2327.5263	22233.55	21346.3
960.9244	2328.9547	22161.4	21272.15
961.0562	2330.3823	22107	21218.4
961.1881	2331.8092	22086.55	21194.85
961.3198	2333.2355	21956.1	21068.45
961.4516	2334.661	21934.85	21044.25
961.5833	2336.0858	21873.8	20984
961.715	2337.5098	21821.35	20932.2
961.8467	2338.9332	21801.45	20912.6
961.9783	2340.3558	21702.4	20811.3
962.1099	2341.7778	21631.85	20743.1
962.2415	2343.199	21540.4	20649.3
962.373	2344.6195	21478.1	20590.8
962.5045	2346.0393	21374.4	20487.2
962.636	2347.4583	21337.85	20448.25
962.7675	2348.8767	21261.55	20371.6
962.8989	2350.2943	21204.55	20315.65
963.0303	2351.7113	21181.35	20291.75
963.1617	2353.1275	21105.85	20217
963.293	2354.543	21092.25	20195.55
963.4243	2355.9578	20962.7	20073.35
963.5556	2357.3718	20828.15	19939.5
963.6868	2358.7852	20757.8	19866.65
963.818	2360.1978	20688.65	19798.35
963.9492	2361.6098	20658.55	19771.8
964.0803	2363.021	20555.9	19663.9
964.2114	2364.4315	20502	19613.5
964.3425	2365.8413	20439.5	19551.6
964.4736	2367.2504	20371.9	19484
964.6046	2368.6587	20282.3	19392.9
964.7356	2370.0664	20216.65	19327
964.8666	2371.4733	20109.75	19220.7
964.9975	2372.8795	20088.4	19200.95
965.1284	2374.285	19968.15	19076.35
965.2593	2375.6899	19851.9	18964.1
965.3901	2377.0939	19776.95	18887.45
965.5209	2378.4973	19734.8	18847.1
965.6517	2379.9	19670.1	18781.75
965.7825	2381.3019	19609.35	18720.75
965.9132	2382.7032	19541.85	18653.9
966.0439	2384.1037	19506.6	18619
966.1745	2385.5035	19456	18568.15
966.3051	2386.9027	19368.65	18481.25
966.4357	2388.3011	19311.35	18419.1
966.5663	2389.6987	19261.1	18370.75
966.6968	2391.0957	19161.8	18273.7
966.8273	2392.492	19079.55	18190
966.9578	2393.8876	18990.4	18100.65
967.0882	2395.2824	18899.7	18013.25
967.2186	2396.6765	18842.15	17953.85
967.349	2398.07	18730.1	17842.1
967.4793	2399.4627	18718.4	17828.8
967.6097	2400.8547	18667.35	17779.1
967.7399	2402.246	18582.35	17686.65
967.8702	2403.6366	18503.4	17614.85
968.0004	2405.0265	18379.55	17491.25
968.1306	2406.4156	18333.7	17439.5
968.2607	2407.8041	18280.75	17388.7
968.3909	2409.1918	18182.7	17292.6
968.521	2410.5789	18117.25	17226.6
968.651	2411.9652	18037.7	17145.9
968.781	2413.3508	17962.3	17074.05
968.911	2414.7358	17913.55	17024.9
969.041	2416.12	17856.95	16969.2
969.1709	2417.5035	17775.35	16885.5
969.3008	2418.8863	17763.1	16875.15
969.4307	2420.2684	17671.05	16782.05
969.5606	2421.6497	17591.25	16700.5
969.6904	2423.0304	17469.2	16581.4
969.8201	2424.4104	17420.9	16530.65
969.9499	2425.7896	17375.3	16485
970.0796	2427.1682	17348.95	16459.8
970.2093	2428.546	17281.15	16391.25
970.3389	2429.9232	17254	16363.8
970.4685	2431.2996	17225.7	16336.75
970.5981	2432.6753	17185.2	16298.3
970.7277	2434.0503	17101.7	16212.25
970.8572	2435.4246	17029.65	16142.4
970.9867	2436.7982	16973.9	16083.6
971.1161	2438.1711	16935.4	16046.95
971.2456	2439.5433	16892.55	16001.45
971.375	2440.9148	16811.15	15917.4
971.5043	2442.2856	16725.95	15838.3
971.6336	2443.6557	16651.6	15762.05
971.7629	2445.025	16614.65	15726.25
971.8922	2446.3937	16578.7	15690.45
972.0214	2447.7617	16483.95	15594.5
972.1506	2449.1289	16486.5	15598.4
972.2798	2450.4955	16438.7	15548.45
972.4089	2451.8613	16392.4	15504.25
972.538	2453.2265	16330.4	15442.7
972.6671	2454.5909	16296.3	15407.55
972.7961	2455.9546	16252.3	15364.55
972.9251	2457.3177	16178.2	15290.1
973.0541	2458.68	16133.05	15242.3
973.1831	2460.0416	16110.7	15222.4
973.312	2461.4025	16066.7	15176.7
973.4408	2462.7627	16039.85	15140.55
973.5697	2464.1222	15943.85	15055.6
973.6985	2465.4811	15917.85	15028.5
973.8273	2466.8392	15852	14963.2
973.956	2468.1966	15806.95	14916.4
974.0847	2469.5533	15792.3	14901.1
974.2134	2470.9093	15737.8	14847.6
974.3421	2472.2645	15693.25	14801.25
974.4707	2473.6191	15613.4	14725.5
974.5993	2474.973	15533.1	14644.7
974.7278	2476.3262	15507.85	14616.55
974.8563	2477.6787	15421.25	14533.6
974.9848	2479.0305	15344.35	14456.9
975.1132	2480.3816	15326.4	14437.85
975.2417	2481.7319	15263.45	14375.6
975.37	2483.0816	15195.35	14305.95
975.4984	2484.4306	15185.5	14295.05
975.6267	2485.7789	15094.5	14208.1
975.755	2487.1264	15030.75	14140.9
975.8833	2488.4733	14967.55	14082.1
976.0115	2489.8195	14905.05	14008.1
976.1397	2491.165	14843.4	13950.95
976.2678	2492.5097	14802	13910.85
976.3959	2493.8538	14718.7	13832
976.524	2495.1972	14660.2	13769.95
976.6521	2496.5398	14632.95	13743.35
976.7801	2497.8818	14594	13704.85
976.9081	2499.2231	14492.05	13603
977.036	2500.5637	14451.2	13560.95
977.164	2501.9035	14399.9	13510.45
977.2918	2503.2427	14364.55	13472.75
977.4197	2504.5812	14313.4	13425.45
977.5475	2505.919	14301	13411.7
977.6753	2507.256	14248.35	13359.5
977.8031	2508.5924	14209.05	13319.05
977.9308	2509.9281	14150.75	13255.8
978.0585	2511.2631	14086.55	13197.95
978.1861	2512.5974	14050.4	13163.45
978.3137	2513.9309	14005.25	13115.6
978.4413	2515.2638	13952.2	13037.5
978.5689	2516.596	13914.75	13026.75
978.6964	2517.9275	13830.9	12941.6
978.8239	2519.2583	13769.2	12879.1
978.9513	2520.5884	13713.65	12823.95
979.0788	2521.9178	13660.6	12772.5
979.2062	2523.2465	13616.5	12728.8
979.3335	2524.5745	13575.7	12687.7
979.4608	2525.9018	13524.45	12635.8
979.5881	2527.2284	13472.4	12585.5
979.7154	2528.5543	13466.55	12579.6
979.8426	2529.8796	13413.65	12525.1
979.9698	2531.2041	13385.15	12497.15
980.0969	2532.5279	13363	12475.25
980.224	2533.851	13320.6	12433.65
980.3511	2535.1735	13276.7	12388.2
980.4781	2536.4952	13268.35	12381.65
980.6052	2537.8163	13228.6	12338.75
980.7321	2539.1366	13177.9	12289.25
980.8591	2540.4562	13154.4	12265.45
980.986	2541.7752	13103.8	12214.7
981.1129	2543.0935	13074.25	12185.05
981.2397	2544.411	13037.65	12147.7
981.3665	2545.7279	13007.1	12119.6
981.4933	2547.0441	12977.15	12089.05
981.62	2548.3596	12984.65	12094.05
981.7467	2549.6744	12944.45	12055.35
981.8734	2550.9885	12885.95	11991.8
982.0001	2552.3019	12839.1	11952.75
982.1267	2553.6146	12801.9	11912.25
982.2532	2554.9266	12772.15	11883.15
982.3798	2556.2379	12718.15	11826.65
982.5063	2557.5485	12706.35	11819.25
982.6327	2558.8585	12647.8	11752.1
982.7592	2560.1677	12651.95	11761
982.8856	2561.4762	12589.65	11701.4
983.0119	2562.7841	12568.35	11678.4
983.1383	2564.0913	12541.2	11655.25
983.2646	2565.3977	12525.2	11637.3
983.3908	2566.7035	12488.1	11601.9
983.517	2568.0086	12468.4	11577.1
983.6432	2569.313	12417.6	11528.5
983.7694	2570.6167	12419.25	11528.85
983.8955	2571.9197	12378.65	11490.45
984.0216	2573.222	12354.7	11463.1
984.1476	2574.5236	12302.45	11414.1
984.2737	2575.8246	12275.4	11383.7
984.3996	2577.1248	12241.6	11350.6
984.5256	2578.4244	12215.1	11327.55
984.6515	2579.7232	12233.8	11345.9
984.7774	2581.0214	12229.55	11316.65
984.9032	2582.3189	12158.25	11270.55
985.029	2583.6157	12135.6	11243.85
985.1548	2584.9118	12080.25	11190.05
985.2806	2586.2072	12030.9	11143.95
985.4063	2587.5019	11992.65	11103.25
985.5319	2588.7959	11982.25	11095.6
985.6576	2590.0893	11962.9	11072.7
985.7832	2591.3819	11936.8	11050.05
985.9087	2592.6739	11878.35	10991.45
986.0343	2593.9652	11834.4	10943.05
986.1597	2595.2557	11803.8	10915.9
986.2852	2596.5456	11743.7	10852.4
986.4106	2597.8348	11687.15	10799.05
986.536	2599.1234	11693.65	10805.2
986.6614	2600.4112	11622.35	10733.7
986.7867	2601.6983	11593.2	10701.95
986.912	2602.9848	11529.4	10640.8
987.0372	2604.2705	11469.15	10574.3
987.1624	2605.5556	11464.45	10576.8
987.2876	2606.84	11405.5	10516.85
987.4128	2608.1237	11363.65	10475.55
987.5379	2609.4067	11320.6	10431.35
987.6629	2610.689	11307.2	10411.3
987.788	2611.9707	11236.25	10345.45
987.913	2613.2516	11191.95	10298.75
988.0379	2614.5319	11144.85	10256.45
988.1629	2615.8115	11110.25	10220.65
988.2878	2617.0903	11071.1	10182.5
988.4126	2618.3685	11033.3	10145.8
988.5375	2619.6461	10964	10074.1
988.6622	2620.9229	10951	10061.95
988.787	2622.199	10932.7	10044.1
988.9117	2623.4745	10876.45	9986.7
989.0364	2624.7493	10857.4	9971.2
989.161	2626.0234	10804.05	9916.2
989.2857	2627.2968	10771.15	9881.75
989.4102	2628.5695	10726.9	9836.25
989.5348	2629.8415	10683.85	9796.1
989.6593	2631.1128	10645.1	9754.25
989.7837	2632.3835	10576.95	9689.4
989.9082	2633.6535	10520.05	9632
990.0326	2634.9228	10491.4	9603.45
990.1569	2636.1914	10470.95	9584.65
990.2812	2637.4593	10433.95	9539.6
990.4055	2638.7265	10396.75	9506.65
990.5298	2639.9931	10360.75	9473.55
990.654	2641.259	10349.25	9458.1
990.7782	2642.5242	10325.4	9436.7
990.9023	2643.7887	10269.95	9380.85
991.0264	2645.0525	10240.85	9353.3
991.1505	2646.3156	10212.5	9324.25
991.2745	2647.5781	10184.95	9296.4
991.3985	2648.8398	10150.65	9262.9
991.5225	2650.1009	10117.8	9191.35
991.6464	2651.3613	10073.2	9183.8
991.7703	2652.6211	10039.45	9151.25
991.8942	2653.8801	10014.95	9127.1
992.018	2655.1385	9992.05	9102.9
992.1418	2656.3961	9928.2	9039.6
992.2655	2657.6531	9927.2	9039.15
992.3892	2658.9094	9900.8	9011.75
992.5129	2660.1651	9879.55	8991.55
992.6366	2661.42	9866.65	8977.6
992.7602	2662.6743	9806.65	8916.7
992.8837	2663.9279	9813.75	8925.3
993.0073	2665.1808	9772	8881.15
993.1307	2666.433	9736.65	8846.6
993.2542	2667.6846	9703.7	8815.5
993.3776	2668.9354	9714.8	8823.8
993.501	2670.1856	9663.1	8773.35
993.6244	2671.4351	9611.85	8722.8
993.7477	2672.6839	9606.2	8716.7
993.8709	2673.9321	9562.6	8676.8
993.9942	2675.1795	9569.95	8682.35
994.1174	2676.4263	9520.35	8633.35
994.2405	2677.6724	9469.75	8581.4
994.3637	2678.9179	9452	8562.85
994.4868	2680.1626	9428.45	8540.65
994.6098	2681.4067	9396.15	8508.05
994.7328	2682.6501	9397.75	8510.45
994.8558	2683.8928	9334.65	8446.95
994.9788	2685.1348	9304.95	8418
995.1017	2686.3761	9276.7	8386.9
995.2245	2687.6168	9223.6	8333.7
995.3474	2688.8568	9187.6	8299.6
995.4702	2690.0961	9182.4	8293.55
995.5929	2691.3348	9137.65	8248.95
995.7156	2692.5727	9106.1	8219.2
995.8383	2693.81	9071.8	8184.15
995.961	2695.0466	9069.05	8184.35
996.0836	2696.2826	9030.75	8140.9
996.2062	2697.5178	9030.35	8140.5
996.3287	2698.7524	8985.9	8099.65
996.4512	2699.9863	8972.85	8081.9
996.5737	2701.2195	8905.2	8018.7
996.6961	2702.452	8905.7	8014.1
996.8185	2703.6839	8875.4	7985.75
996.9408	2704.9151	8844	7955.1
997.0631	2706.1456	8803.8	7914.65
997.1854	2707.3755	8775.9	7887.85
997.3077	2708.6046	8766.65	7875.4
997.4299	2709.8331	8737.7	7849.3
997.552	2711.0609	8704.8	7816.3
997.6742	2712.2881	8652.8	7763.55
997.7963	2713.5145	8646.55	7755.85
997.9183	2714.7403	8646.65	7757.55
998.0403	2715.9654	8609.35	7720
998.1623	2717.1899	8584.1	7680.8
998.2842	2718.4136	8588.4	7699.5
998.4062	2719.6367	8529.45	7641.9
998.528	2720.8591	8512.8	7618.1
998.6498	2722.0809	8469.45	7581.25
998.7716	2723.3019	8457.45	7566.3
998.8934	2724.5223	8454.35	7564.9
999.0151	2725.7421	8418.35	7529.7
999.1368	2726.9611	8404.3	7514.75
999.2584	2728.1795	8387.2	7494.6
999.38	2729.3972	8307.7	7420.25
999.5016	2730.6142	8284.55	7390.3
999.6231	2731.8306	8236.3	7348.8
999.7446	2733.0462	8211.95	7323.1
999.8661	2734.2612	8172.5	7280.8
999.9875	2735.4756	8116.5	7225.6
1000.1089	2736.6892	8060.35	7171.55
1000.2302	2737.9022	8040.6	7153.15
1000.3515	2739.1145	7994.3	7105.05
1000.4728	2740.3262	7979.95	7086.45
1000.594	2741.5372	7929.35	7042.05
1000.7152	2742.7475	7889.8	7002.2
1000.8363	2743.9571	7858.05	6968.6
1000.9575	2745.1661	7823.05	6931.4
1001.0785	2746.3744	7794.9	6905.15
1001.1996	2747.582	7740.75	6852.2
1001.3206	2748.7889	7738.2	6847.2
1001.4415	2749.9952	7710.25	6822.15
1001.5625	2751.2008	7655.85	6765.2
1001.6833	2752.4057	7638.4	6748.3
1001.8042	2753.61	7624.55	6736.9
1001.925	2754.8136	7584.85	6696.2
1002.0458	2756.0165	7553.4	6665.25
1002.1665	2757.2188	7529.65	6643.05
1002.2872	2758.4204	7513.2	6624.85
1002.4078	2759.6213	7479.15	6589.2
1002.5285	2760.8215	7465.55	6570.7
1002.649	2762.0211	7426.05	6535.65
1002.7696	2763.22	7403.65	6511.8
1002.8901	2764.4182	7408	6517.85
1003.0106	2765.6158	7369.25	6482.25
1003.131	2766.8127	7336.75	6449.9
1003.2514	2768.009	7309.6	6423.05
1003.3717	2769.2045	7266.8	6376.55
1003.492	2770.3994	7262.1	6372.15
1003.6123	2771.5936	7235.3	6345.8
1003.7325	2772.7872	7209.9	6320.4
1003.8527	2773.9801	7175.8	6287.1
1003.9729	2775.1723	7169.15	6263.8
1004.093	2776.3639	7143.65	6255.2
1004.2131	2777.5548	7107.8	6217.25
1004.3331	2778.745	7068.5	6179.55
1004.4531	2779.9346	7068.6	6182
1004.5731	2781.1235	7054.55	6164.75
1004.693	2782.3117	7052	6166.5
1004.8129	2783.4992	7003.2	6115.6
1004.9328	2784.6861	6974.8	6085.4
1005.0526	2785.8723	6966.8	6077.25
1005.1723	2787.0579	6927.1	6038.5
1005.2921	2788.2428	6917.65	6030.9
1005.4118	2789.427	6886.9	5999
1005.5314	2790.6106	6863.2	5975.65
1005.651	2791.7935	6850.3	5962.8
1005.7706	2792.9757	6844.85	5956.8
1005.8902	2794.1573	6826.4	5936.95
1006.0097	2795.3382	6804.75	5917.8
1006.1291	2796.5184	6793.95	5906.8
1006.2485	2797.698	6780.4	5889.1
1006.3679	2798.8769	6777.45	5888.9
1006.4873	2800.0551	6758.4	5868.9
1006.6066	2801.2327	6737.7	5848.55
1006.7258	2802.4096	6740.65	5852.5
1006.8451	2803.5859	6710.6	5819.7
1006.9642	2804.7615	6693.8	5807.05
1007.0834	2805.9364	6702.2	5814.9
1007.2025	2807.1106	6692.75	5808.2
1007.3216	2808.2842	6718.35	5831.55
1007.4406	2809.4572	6685	5796.9
1007.5596	2810.6294	6700.7	5812.25
1007.6785	2811.801	6742.05	5855
1007.7975	2812.972	6749.7	5861.65
1007.9163	2814.1423	6775.15	5887.85
1008.0352	2815.3119	6799.05	5912.4
1008.154	2816.4808	6804.85	5918.95
1008.2727	2817.6491	6826.65	5937.5
1008.3914	2818.8167	6872.15	5985.95
1008.5101	2819.9837	6890.3	6000.6
1008.6288	2821.15	6897.15	6009.3
1008.7474	2822.3157	6933.25	6046.65
1008.8659	2823.4807	6964.75	6076.4
1008.9844	2824.645	7009.15	6120.75
1009.1029	2825.8086	7014.4	6127.1
1009.2214	2826.9716	7048.55	6159.6
1009.3398	2828.134	7069.95	6181.65
1009.4581	2829.2957	7094.25	6206.7
1009.5764	2830.4567	7116.05	6231.3
1009.6947	2831.617	7128.05	6239.35
1009.813	2832.7767	7106.3	6220.4
1009.9312	2833.9358	7110.3	6224.1
1010.0493	2835.0941	7100.7	6210.6
1010.1675	2836.2519	7069.25	6182.9
1010.2855	2837.4089	7009.75	6120.4
1010.4036	2838.5653	6982	6096.35
1010.5216	2839.7211	6988.35	6103.15
1010.6396	2840.8761	6981.2	6090.5
1010.7575	2842.0306	6976	6089.95
1010.8754	2843.1843	6980.65	6093.2
1010.9932	2844.3374	6992.4	6103.6
1011.111	2845.4899	7033.15	6144.65
1011.2288	2846.6417	7068.3	6182.4
1011.3465	2847.7928	7099.65	6211.9
1011.4642	2848.9433	7156.7	6268.25
1011.5818	2850.0931	7199.1	6311.05
1011.6995	2851.2422	7249.15	6357.65
1011.817	2852.3907	7307.35	6419.35
1011.9345	2853.5385	7331.95	6441.1
1012.052	2854.6857	7378.5	6479.85
1012.1695	2855.8323	7376	6491.1
1012.2869	2856.9781	7387.65	6502.25
1012.4042	2858.1233	7446.35	6560.6
1012.5216	2859.2679	7460.5	6573.85
1012.6389	2860.4118	7494.05	6604.45
1012.7561	2861.555	7504.1	6610.5
1012.8733	2862.6976	7520.3	6630.3
1012.9905	2863.8395	7516.6	6629.25
1013.1076	2864.9808	7537.25	6649.55
1013.2247	2866.1214	7527.55	6641.45
1013.3417	2867.2614	7536.7	6650.2
1013.4587	2868.4007	7531.55	6643.55
1013.5757	2869.5393	7494.3	6606.3
1013.6926	2870.6773	7521.7	6630.4
1013.8095	2871.8146	7520.85	6629.9
1013.9263	2872.9513	7467.05	6578.15
1014.0431	2874.0874	7438.2	6549.35
1014.1599	2875.2227	7437.35	6549.7
1014.2766	2876.3574	7392.75	6506.6
1014.3933	2877.4915	7345.45	6457.75
1014.51	2878.6249	7316.4	6429.85
1014.6266	2879.7577	7248.9	6360.8
1014.7431	2880.8898	7252.4	6355.5
1014.8596	2882.0212	7204.45	6316.3
1014.9761	2883.152	7179.85	6291
1015.0925	2884.2821	7137.85	6250.85
1015.2089	2885.4116	7097.15	6210.7
1015.3253	2886.5405	7084.2	6197.25
1015.4416	2887.6686	7094.25	6203.5
1015.5579	2888.7962	7065.45	6179.15
1015.6741	2889.923	7037	6150.95
1015.7903	2891.0493	7021.75	6136.4
1015.9065	2892.1748	7022.85	6137.1
1016.0226	2893.2997	7007.6	6119
1016.1387	2894.424	7009.3	6121
1016.2547	2895.5476	7014.95	6126.35
1016.3707	2896.6706	7003.65	6117.4
1016.4866	2897.7929	7024.7	6134.7
1016.6025	2898.9145	7023.55	6135.95
1016.7184	2900.0355	7024.95	6136.85
1016.8342	2901.1559	7019.95	6133.5
1016.95	2902.2756	7051.1	6163.7
1017.0658	2903.3946	7053.45	6166.25
1017.1815	2904.513	7074.15	6183.8
1017.2971	2905.6308	7061.15	6174.3
1017.4127	2906.7479	7063.85	6177.2
1017.5283	2907.8643	7062.8	6175.1
1017.6439	2908.9801	7076.05	6190.65
1017.7594	2910.0953	7062.85	6175
1017.8748	2911.2098	7046.9	6156.65
1017.9902	2912.3236	7006.45	6109.6
1018.1056	2913.4368	6989.9	6098.2
1018.2209	2914.5494	6948.25	6061.15
1018.3362	2915.6613	6927.3	6035.75
1018.4515	2916.7725	6881.35	5992.75
1018.5667	2917.8831	6838.7	5950.75
1018.6819	2918.9931	6792.1	5901.7
1018.797	2920.1024	6751.35	5863.3
1018.9121	2921.211	6737.55	5849.45
1019.0271	2922.319	6692.9	5805
1019.1421	2923.4264	6664.4	5775.4
1019.2571	2924.5331	6645.75	5760.9
1019.372	2925.6391	6630	5741.75
1019.4869	2926.7445	6608.1	5722.95
1019.6017	2927.8493	6605.15	5717.85
1019.7165	2928.9534	6560.8	5672.65
1019.8313	2930.0569	6563.6	5673.7
1019.946	2931.1597	6534.2	5644.8
1020.0606	2932.2619	6536	5649.65
1020.1753	2933.3634	6540.15	5653.85
1020.2899	2934.4643	6529.9	5636.6
1020.4044	2935.5645	6476.65	5583.05
1020.5189	2936.6641	6432.9	5541.75
1020.6334	2937.763	6382.15	5495.4
1020.7478	2938.8613	6344.75	5457
1020.8622	2939.959	6267.35	5374.55
1020.9765	2941.056	6194.95	5307.55
1021.0908	2942.1523	6110.8	5223.3
1021.2051	2943.248	6045.05	5156.3
1021.3193	2944.3431	5944.1	5056.2
1021.4334	2945.4375	5820.85	4932.95
1021.5476	2946.5313	5723.45	4838.75
1021.6617	2947.6244	5648.35	4760.6
1021.7757	2948.7169	5544.8	4657.45
1021.8897	2949.8087	5443.9	4556.05
1022.0037	2950.8999	5342.2	4454.6
1022.1176	2951.9904	5259.7	4373
1022.2315	2953.0803	5177.05	4290.35
1022.3453	2954.1696	5093.1	4204.9
1022.4591	2955.2582	5057.2	4171.2
1022.5728	2956.3462	4996.45	4108.75
1022.6865	2957.4335	4933.1	4045.2
1022.8002	2958.5202	4906.5	4019.25
1022.9138	2959.6062	4851.95	3964.6
1023.0274	2960.6916	4821.05	3936.3
1023.141	2961.7764	4793.1	3904.95
1023.2545	2962.8605	4753.15	3865.5
1023.3679	2963.9439	4739.65	3853.9
1023.4813	2965.0267	4710.3	3819.95
1023.5947	2966.1089	4707.45	3797.8
1023.708	2967.1905	4663.3	3776.65
1023.8213	2968.2714	4635.15	3749.8
1023.9346	2969.3516	4645.3	3758.4
1024.0478	2970.4312	4626.25	3731.6
1024.1609	2971.5102	4605.2	3718.2
1024.274	2972.5885	4617.8	3733.2
1024.3871	2973.6662	4591.2	3698.95
1024.5002	2974.7432	4577.3	3689.15
1024.6132	2975.8196	4551.45	3663.3
1024.7261	2976.8954	4537.55	3651.8
1024.839	2977.9705	4523.55	3637.75
1024.9519	2979.045	4511.8	3624.7
1025.0647	2980.1188	4475.75	3588.75
1025.1775	2981.192	4452.15	3565.95
1025.2902	2982.2645	4417.1	3528.9
1025.4029	2983.3364	4390.45	3502.65
1025.5156	2984.4077	4347.15	3459.15
1025.6282	2985.4783	4315.45	3423.15
1025.7407	2986.5483	4270.8	3384.1
1025.8532	2987.6177	4236.85	3350
1025.9657	2988.6864	4201	3313.45
1026.0782	2989.7545	4173.3	3286.2
1026.1906	2990.8219	4121	3234.6
1026.3029	2991.8887	4080.9	3192.8
1026.4152	2992.9548	4042.15	3155
1026.5275	2994.0204	4001.1	3116.95
1026.6397	2995.0852	3962.15	3074.45
1026.7519	2996.1495	3935	3045.8
1026.864	2997.2131	3906.4	3019.2
1026.9761	2998.276	3880.15	2992.35
1027.0882	2999.3383	3863.1	2974.75
1027.2002	3000.4	3814.4	2927
1027.3122	3001.4611	3796.55	2910.95
1027.4241	3002.5215	3777.25	2891.05
1027.536	3003.5812	3750.2	2861.45
1027.6478	3004.6404	3726.5	2839.7
1027.7596	3005.6989	3695	2807.25
1027.8714	3006.7567	3680.2	2793.3
1027.9831	3007.8139	3680.95	2774
1028.0947	3008.8705	3646	2758.3
1028.2064	3009.9264	3650.8	2760.4
1028.3179	3010.9818	3626.1	2738.2
1028.4295	3012.0364	3610.3	2722
1028.541	3013.0905	3605.45	2720.2
1028.6524	3014.1439	3575.35	2687.8
1028.7638	3015.1966	3562.05	2677.65
1028.8752	3016.2487	3544.7	2656.65
1028.9865	3017.3002	3550.9	2659.55
1029.0978	3018.3511	3528	2642.4
1029.209	3019.4013	3527.95	2639.9
1029.3202	3020.4509	3527.55	2641.5
1029.4314	3021.4998	3517.05	2629.95
1029.5425	3022.5481	3487.85	2599.2
1029.6535	3023.5958	3478	2592.35
1029.7645	3024.6428	3476.55	2590.55
1029.8755	3025.6892	3467.5	2581.4
1029.9864	3026.735	3455.25	2566.6
1030.0973	3027.7802	3455.8	2569
1030.2082	3028.8247	3421.35	2533.45
1030.319	3029.8685	3414.7	2526.45
1030.4297	3030.9118	3409.1	2520.2
1030.5404	3031.9544	3395.45	2510.5
1030.6511	3032.9963	3401.05	2514.45
1030.7617	3034.0376	3397.05	2511.05
1030.8723	3035.0783	3394.25	2505.55
1030.9829	3036.1184	3369.05	2480.9
1031.0934	3037.1578	3375.2	2487.85
1031.2038	3038.1966	3376	2485.45
1031.3142	3039.2348	3354.4	2468.15
1031.4246	3040.2723	3353.75	2457.55
1031.5349	3041.3092	3328.55	2441.9
1031.6452	3042.3455	3335.35	2449.4
1031.7554	3043.3811	3332	2445.6
1031.8656	3044.4161	3312.75	2426.3
1031.9758	3045.4505	3280.35	2395.8
1032.0859	3046.4842	3282	2393
1032.1959	3047.5173	3278.4	2393.2
1032.3059	3048.5498	3259.5	2371.2
1032.4159	3049.5816	3252.75	2366.6
1032.5258	3050.6128	3235.65	2349.75
1032.6357	3051.6434	3215.9	2327
1032.7455	3052.6734	3199.95	2311.6
1032.8553	3053.7027	3200.4	2312.85
1032.9651	3054.7314	3187.05	2301.65
1033.0748	3055.7594	3171.1	2285.5
1033.1845	3056.7868	3163.75	2274.1
1033.2941	3057.8136	3146	2259.9
1033.4037	3058.8398	3140.2	2255.75
1033.5132	3059.8653	3123.55	2237.05
1033.6227	3060.8902	3105.75	2219.65
1033.7321	3061.9145	3098.55	2210.9
1033.8415	3062.9381	3100	2213
1033.9509	3063.9612	3095.05	2193.45
1034.0602	3064.9835	3064.85	2176.4
1034.1694	3066.0053	3069.45	2182.65
1034.2787	3067.0264	3049.5	2160.85
1034.3878	3068.0469	3041	2154
1034.497	3069.0668	3028.2	2138.95
1034.6061	3070.086	3000.35	2115.4
1034.7151	3071.1046	2989.15	2102.25
1034.8241	3072.1226	2975.9	2087.65
1034.9331	3073.1399	2971.7	2085.9
1035.042	3074.1567	2956.15	2068.75
1035.1508	3075.1727	2937.4	2049.15
1035.2597	3076.1882	2929.85	2043.95
1035.3684	3077.203	2916.55	2028.05
1035.4772	3078.2173	2897.55	2010.65
1035.5859	3079.2308	2882.55	1992
1035.6945	3080.2438	2878.4	1988.55
1035.8031	3081.2561	2855.8	1970.4
1035.9117	3082.2678	2837.7	1951.7
1036.0202	3083.2789	2833.6	1946.5
1036.1286	3084.2893	2818.5	1931.95
1036.2371	3085.2991	2806.95	1919.95
1036.3454	3086.3083	2794.3	1902.05
1036.4538	3087.3169	2780.45	1892.25
1036.562	3088.3248	2774.1	1887.05
1036.6703	3089.3321	2763.7	1875.2
1036.7785	3090.3388	2743.25	1856.35
1036.8866	3091.3449	2736.95	1850.65
1036.9948	3092.3503	2728.3	1838.25
1037.1028	3093.3551	2707.75	1821.45
1037.2108	3094.3593	2700.2	1814.65
1037.3188	3095.3629	2685.5	1798.8
1037.4267	3096.3658	2687.35	1799.35
1037.5346	3097.3681	2683.05	1798
1037.6425	3098.3698	2680.55	1791.2
1037.7503	3099.3708	2663.8	1771.85
1037.858	3100.3713	2633.8	1746.65
1037.9657	3101.3711	2619.7	1733.3
1038.0734	3102.3702	2735.1	1708.2
1038.181	3103.3688	2626.5	1737.2
1038.2886	3104.3667	2610.45	1724.7
1038.3961	3105.364	2600.2	1713.7
1038.5036	3106.3607	2579.4	1691.8
1038.611	3107.3568	2569.25	1681.7
1038.7184	3108.3522	2548	1662.15
1038.8257	3109.347	2540.95	1653.45
1038.933	3110.3412	2545.95	1655.2
1039.0403	3111.3348	2537.55	1650.95
1039.1475	3112.3277	2522.35	1635.35
1039.2547	3113.32	2510.6	1623.45
1039.3618	3114.3117	2507.8	1620.9
1039.4689	3115.3028	2483.7	1597.2
1039.5759	3116.2932	2485.25	1597
1039.6829	3117.2831	2474.5	1582.15
1039.7898	3118.2723	2455.65	1568.65
1039.8967	3119.2608	2443.95	1555.8
1040.0035	3120.2488	2440.85	1553.5
1040.1103	3121.2361	2440.45	1555.25
1040.2171	3122.2229	2433.85	1547
1040.3238	3123.209	2415.6	1528.7
1040.4305	3124.1944	2411.95	1527.05
1040.5371	3125.1793	2412.7	1525.15
1040.6437	3126.1635	2397.25	1509.9
1040.7502	3127.1471	2393.15	1508.1
1040.8567	3128.1301	2384.8	1498.45
1040.9631	3129.1125	2369.4	1484.5
1041.0695	3130.0942	2372.5	1485.05
1041.1759	3131.0753	2374.35	1480.2
1041.2822	3132.0558	2366.95	1476.9
1041.3884	3133.0357	2348.8	1461.95
1041.4946	3134.015	2350.25	1463.1
1041.6008	3134.9936	2328.6	1440.35
1041.7069	3135.9716	2337.3	1429.7
1041.813	3136.949	2309.15	1422.05
1041.919	3137.9258	2310.85	1418.05
1042.025	3138.902	2310.3	1419.7
1042.1309	3139.8775	2299.7	1414.45
1042.2368	3140.8524	2301	1415.2
1042.3427	3141.8267	2282.1	1395
1042.4485	3142.8004	2287.25	1399.2
1042.5542	3143.7735	2277.9	1386
1042.6599	3144.7459	2273.75	1386.65
1042.7656	3145.7178	2268.65	1381.05
1042.8712	3146.689	2250.1	1364.2
1042.9768	3147.6596	2243.75	1354.9
1043.0823	3148.6295	2236.45	1351.25
1043.1878	3149.5989	2222.9	1335.7
1043.2932	3150.5676	2230.65	1346.1
1043.3986	3151.5357	2217.45	1333.05
1043.5039	3152.5032	2201.45	1315.25
1043.6092	3153.4701	2211.6	1324.15
1043.7145	3154.4364	2206.15	1317.55
1043.8197	3155.402	2209.5	1323.2
1043.9248	3156.367	2181.55	1290.35
1044.03	3157.3315	2214.8	1285.95
1044.135	3158.2952	2165.25	1278
1044.24	3159.2584	2171.95	1285
1044.345	3160.221	2158.65	1272.35
1044.4499	3161.1829	2141.1	1255
1044.5548	3162.1442	2138.9	1251.5
1044.6596	3163.105	2124.6	1239.05
1044.7644	3164.065	2125.55	1238.15
1044.8692	3165.0245	2116.6	1227.75
1044.9739	3165.9834	2112.85	1226.7
1045.0785	3166.9416	2102.95	1216.05
1045.1831	3167.8993	2090.1	1204.8
1045.2877	3168.8563	2086.8	1199.4
1045.3922	3169.8127	2085.25	1197
1045.4966	3170.7684	2080.5	1195.4
1045.6011	3171.7236	2070.9	1182.6
1045.7054	3172.6782	2066.9	1179.3
1045.8098	3173.6321	2063	1175.5
1045.914	3174.5854	2050.45	1158.35
1046.0183	3175.5381	2051.25	1164.35
1046.1224	3176.4902	2034.65	1148.15
1046.2266	3177.4417	2026.6	1139.9
1046.3307	3178.3926	2018.2	1132.45
1046.4347	3179.3428	2009.75	1124.25
1046.5387	3180.2924	2007	1119.7
1046.6427	3181.2415	2006.7	1121.35
1046.7466	3182.1899	2006.35	1120.5
1046.8504	3183.1377	1988.8	1102.95
1046.9542	3184.0848	1986.65	1096.7
1047.058	3185.0314	1979.15	1093.85
1047.1617	3185.9773	1968.35	1079.75
1047.2654	3186.9227	1964	1075
1047.369	3187.8674	1965.2	1077.9
1047.4726	3188.8115	1965.3	1073.85
1047.5761	3189.755	1950.05	1064.9
1047.6796	3190.6979	1943.9	1058.45
1047.783	3191.6402	1938.85	1052.85
1047.8864	3192.5818	1934.65	1047.9
1047.9898	3193.5229	1955.95	1046.2
1048.0931	3194.4633	1929.3	1042.55
1048.1963	3195.4031	1924.7	1036.45
1048.2995	3196.3423	1912.65	1025.55
1048.4027	3197.2809	1910.4	1024.9
1048.5058	3198.2189	1901.5	1014.4
1048.6089	3199.1563	1907.7	1015.2
1048.7119	3200.0931	1894.15	1009.4
1048.8148	3201.0292	1880.5	995.1
1048.9178	3201.9648	1885.55	999.75
1049.0206	3202.8997	1877.3	987.95
1049.1235	3203.834	1871.15	983.85
1049.2262	3204.7677	1862.75	976.1
1049.329	3205.7008	1859.05	971.35
1049.4317	3206.6333	1857.55	971.8
1049.5343	3207.5652	1860.2	971
1049.6369	3208.4964	1851.85	963.05
1049.7394	3209.4271	1850.2	964.2
1049.8419	3210.3571	1837.05	949.3
1049.9444	3211.2865	1833.65	946.45
1050.0468	3212.2154	1840.3	952.75
1050.1491	3213.1436	1824.1	933.4
1050.2514	3214.0712	1830.55	937.35
1050.3537	3214.9982	1820.75	935.9
1050.4559	3215.9246	1816.05	929
1050.5581	3216.8503	1810.4	924.5
1050.6602	3217.7755	1800.15	913.8
1050.7623	3218.7001	1802	915.2
1050.8643	3219.624	1795.2	909.1
1050.9663	3220.5473	1785.5	899.1
1051.0682	3221.4701	1785.3	897.8
1051.1701	3222.3922	1776.5	888.1
1051.2719	3223.3137	1774.75	887.1
1051.3737	3224.2346	1769.45	883.2
1051.4754	3225.1549	1766.4	879.65
1051.5771	3226.0746	1761.85	876.6
1051.6788	3226.9937	1758.65	870.9
1051.7804	3227.9121	1747.15	860.65
1051.8819	3228.83	1751	863.45
1051.9834	3229.7473	1739.6	855.4
1052.0849	3230.6639	1742.5	856.3
1052.1863	3231.5799	1727.5	841.55
1052.2876	3232.4954	1725.9	838.6
1052.3889	3233.4102	1716.3	828.5
1052.4902	3234.3244	1718.1	829.7
1052.5914	3235.238	1713.3	827.4
1052.6926	3236.151	1724.35	813
1052.7937	3237.0634	1700	814.95
1052.8948	3237.9752	1696.15	808.2
1052.9958	3238.8864	1698.75	813.25
1053.0968	3239.797	1681.25	795.85
1053.1977	3240.7069	1683.15	796.15
1053.2986	3241.6163	1676.95	790.55
1053.3994	3242.5251	1671.2	784.5
1053.5002	3243.4332	1670.4	786.05
1053.6009	3244.3408	1668.9	782.3
1053.7016	3245.2477	1659.65	770.75
1053.8022	3246.154	1660.1	771.9
1053.9028	3247.0598	1646.3	759.4
1054.0034	3247.9649	1642.6	756.6
1054.1039	3248.8694	1638.2	750.3
1054.2043	3249.7733	1632.35	747.15
1054.3047	3250.6766	1623.55	738.3
1054.4051	3251.5793	1619.8	733.7
1054.5054	3252.4814	1613.6	727.7
1054.6056	3253.3829	1616.45	730.25
1054.7058	3254.2838	1617.7	732.85
1054.806	3255.1841	1606.85	721.35
1054.9061	3256.0838	1602.75	716.5
1055.0061	3256.9829	1592.4	707.6
1055.1062	3257.8814	1580.3	690.15
1055.2061	3258.7792	1582.45	693.4
1055.306	3259.6765	1576.75	689.75
1055.4059	3260.5731	1565.15	677.35
1055.5057	3261.4692	1562.95	677.45
1055.6055	3262.3647	1548.55	661.2
1055.7052	3263.2595	1546.6	659.55
1055.8049	3264.1538	1533.65	648.7
1055.9045	3265.0474	1518.6	632.95
1056.0041	3265.9404	1513.75	628.55
1056.1036	3266.8329	1499.55	615.15
1056.2031	3267.7247	1505.85	609.65
1056.3025	3268.616	1479.3	593.95
1056.4019	3269.5066	1467.25	580.4
1056.5013	3270.3966	1450.7	563.35
1056.6005	3271.286	1433.8	548.3
