Software Version:	3.9.2.0
Unit SN:	10000200
Spectrometer SN:	6960
Date:	3/6/2024 10:01:19 AM
Data Line Index:	25
Spectral Points:	2048
Integration time (ms):	125
Averages:	20
Delay (ms):	30
Sequence Number:	1
Processing:	dark subtract
Laser Power (mW):	300
Laser Current (mA):	825
Laser Diode Temp (C):	25.1
Laser Case Temp (C):	24.7
System Temp (C):	24.5
Spectrometer Temp (C):	22
CCD Temp (C):	0.007
Secondary Temp (C):	20.003
Heatsink Temp (C):	18.407
CCDPCB Temp (C):	30.738
SecondaryPCB Temp (C):	26.369

Wavelength	RamanShift	Raw Counts	Dark Subtracted
787.061	30.1047	649.65	242.15
787.2016	32.3739	660	254.85
787.3422	34.6426	679.4	272.15
787.4828	36.9109	694.45	285.85
787.6235	39.1787	712.8	301.6
787.7642	41.4461	740.05	322.3
787.9049	43.7131	759.4	340.25
788.0456	45.9796	784.25	360.65
788.1863	48.2456	813.05	385.45
788.3271	50.5112	832.2	399.35
788.4679	52.7764	861.9	427.85
788.6087	55.0411	892.1	453.7
788.7496	57.3054	917.25	472.7
788.8904	59.5692	946.85	501.45
789.0313	61.8326	979.65	530.9
789.1722	64.0955	1020.45	570.55
789.3132	66.3579	1074	619.15
789.4541	68.6199	1122.65	664.7
789.5951	70.8815	1234.65	770.55
789.7361	73.1426	1448.05	978.5
789.8771	75.4032	2012.2	1540.55
790.0181	77.6634	3410.85	2935.4
790.1592	79.9231	6916.5	6434.85
790.3003	82.1824	16167.15	15676.75
790.4414	84.4412	32824.2	32317.4
790.5825	86.6995	44803.4	44276.25
790.7237	88.9574	51485.55	50943.45
790.8648	91.2148	55189.1	54633.8
791.006	93.4717	56547.6	55986.35
791.1472	95.7282	57182.15	56612.75
791.2885	97.9842	57524.05	56955.1
791.4297	100.2398	57550.3	56974.95
791.571	102.4949	57548.35	56974.9
791.7123	104.7495	57574.1	56995.6
791.8536	107.0036	57447.1	56869.65
791.9949	109.2573	57671.7	57093.15
792.1363	111.5105	57486.2	56903
792.2777	113.7632	57561.15	56978.25
792.4191	116.0154	57653.25	57058.65
792.5605	118.2672	57873.4	57284.55
792.7019	120.5185	57853	57264.7
792.8434	122.7693	57869.75	57276.05
792.9849	125.0197	57756.2	57156.55
793.1264	127.2696	58070.6	57467.3
793.2679	129.519	58084.25	57479.3
793.4094	131.7679	58217.05	57610.85
793.551	134.0163	57887.75	57277.4
793.6926	136.2642	58030	57415
793.8342	138.5117	58202.3	57581.4
793.9758	140.7587	58190.05	57572.95
794.1175	143.0052	58198.65	57577.15
794.2591	145.2512	58035.2	57416.25
794.4008	147.4967	58221.25	57597.2
794.5425	149.7417	58183.95	57559.85
794.6842	151.9863	58180.45	57549.35
794.826	154.2304	58048.3	57414.05
794.9677	156.4739	58127.6	57489.2
795.1095	158.717	58255.8	57615.45
795.2513	160.9596	58186.5	57542.9
795.3931	163.2017	58064.1	57416.55
795.535	165.4433	58211.85	57567.1
795.6768	167.6844	58108.5	57463
795.8187	169.925	58207.4	57554.55
795.9606	172.1651	58096.5	57439.2
796.1025	174.4047	58118.85	57462.6
796.2445	176.6439	58124.7	57465.25
796.3864	178.8825	58064.8	57401.25
796.5284	181.1206	58232.65	57564.2
796.6704	183.3582	58228.25	57555.55
796.8124	185.5954	58141.65	57472.05
796.9544	187.832	58200.9	57525.45
797.0965	190.0681	58120.05	57442.9
797.2386	192.3037	58296.45	57611.8
797.3806	194.5388	58495	57809.05
797.5228	196.7734	58087.35	57400.7
797.6649	199.0075	58459.8	57768.5
797.807	201.2411	58394.25	57703.2
797.9492	203.4742	58611.7	57918.9
798.0914	205.7068	58599.8	57899.9
798.2336	207.9389	58580.55	57879.5
798.3758	210.1704	58576	57880.6
798.518	212.4015	58731.55	58050.4
798.6603	214.632	58552.65	57878.5
798.8025	216.862	58756.45	58083
798.9448	219.0915	58686.85	58009.25
799.0871	221.3205	58677.25	57994.75
799.2294	223.549	58858.45	58183.55
799.3718	225.777	58859.8	58183.95
799.5141	228.0044	58926.55	58241.4
799.6565	230.2314	58906.7	58222.5
799.7989	232.4578	58917.65	58229.2
799.9413	234.6837	58907.35	58207.9
800.0837	236.909	59197.95	58499.8
800.2262	239.1339	58853.4	58129.25
800.3687	241.3582	59021.75	58309.95
800.5111	243.582	59059.7	58316.9
800.6536	245.8053	59075.55	58350.7
800.7961	248.0281	59051.3	58329.45
800.9387	250.2503	59105.85	58381.55
801.0812	252.472	59016.05	58288.9
801.2238	254.6932	59066.85	58337.95
801.3664	256.9139	59033.35	58302.9
801.509	259.134	59238.25	58504.75
801.6516	261.3536	59001.8	58270.45
801.7942	263.5727	59181.9	58449
801.9369	265.7912	59083.4	58350.65
802.0795	268.0092	59140.35	58406.4
802.2222	270.2267	59150.85	58420.3
802.3649	272.4436	59089.75	58355.05
802.5076	274.6601	59188.45	58444.65
802.6504	276.8759	59194.15	58455.65
802.7931	279.0913	59164.45	58424.65
802.9359	281.3061	59191.2	58450.45
803.0787	283.5204	59216.3	58471.35
803.2215	285.7341	59205.5	58456
803.3643	287.9473	59301.35	58543.55
803.5071	290.16	59230.55	58475.65
803.6499	292.3721	59310.8	58563.6
803.7928	294.5837	59192.55	58446.8
803.9357	296.7947	59141.9	58393.8
804.0786	299.0052	59286.4	58536.4
804.2215	301.2152	59239.9	58488.8
804.3644	303.4246	59331.95	58582.6
804.5074	305.6334	59289.7	58540.5
804.6503	307.8418	59176.8	58423.65
804.7933	310.0495	59160.9	58406.4
804.9363	312.2568	59160.85	58406.15
805.0793	314.4635	59134.2	58374.55
805.2223	316.6696	59181.65	58417.55
805.3653	318.8752	59204.75	58435.2
805.5084	321.0802	58982.5	58220.3
805.6514	323.2847	59109.9	58343.1
805.7945	325.4887	59077.35	58310.85
805.9376	327.692	59024.2	58259.75
806.0807	329.8949	59094.95	58328.8
806.2238	332.0972	59038.6	58271.1
806.367	334.2989	59095.8	58323.35
806.5101	336.5001	59130.75	58358.45
806.6533	338.7007	58998.75	58222.95
806.7965	340.9008	59075.7	58301
806.9397	343.1003	59080	58305.3
807.0829	345.2992	59144.3	58365.1
807.2261	347.4976	59021.3	58244.65
807.3693	349.6955	59088.55	58306
807.5126	351.8927	59075.3	58290.1
807.6559	354.0895	59109.3	58310.8
807.7991	356.2856	59112.35	58325.95
807.9424	358.4812	59164.5	58379.6
808.0857	360.6763	59047.6	58260.35
808.2291	362.8707	59130.65	58341.55
808.3724	365.0646	59094.65	58303.4
808.5158	367.258	59102.85	58306.45
808.6591	369.4508	59005.05	58206.4
808.8025	371.643	59127.6	58332.3
808.9459	373.8346	59037.6	58236.75
809.0893	376.0257	59066.8	58267.3
809.2327	378.2162	59010.55	58209.2
809.3762	380.4062	58945.55	58143.65
809.5196	382.5956	58997.7	58196.25
809.6631	384.7844	58985.65	58193.25
809.8066	386.9726	58998.7	58204
809.9501	389.1603	58969.25	58177.2
810.0936	391.3474	58926.7	58101.7
810.2371	393.5339	58971.6	58178.65
810.3806	395.7199	58833.7	58042.5
810.5241	397.9052	58844.75	58049.25
810.6677	400.09	58859.85	58063.4
810.8113	402.2743	58945.7	58148.5
810.9548	404.4579	58856.1	58060.6
811.0984	406.641	58840.75	58040.75
811.2421	408.8235	58898.6	58098.1
811.3857	411.0054	58911.35	58106.45
811.5293	413.1868	58973.45	58165.4
811.673	415.3675	58949.95	58139.9
811.8166	417.5477	58913.3	58103.9
811.9603	419.7273	58918.2	58103
812.104	421.9064	58833.7	58014.2
812.2477	424.0848	58837.4	58024.95
812.3914	426.2627	58860.15	58046.5
812.5351	428.4399	58757.35	57941.6
812.6788	430.6166	58669.45	57850.7
812.8226	432.7928	58761.6	57941.2
812.9663	434.9683	58661.05	57840.4
813.1101	437.1432	58642.8	57822.55
813.2539	439.3176	58653.75	57837.45
813.3977	441.4914	58492.7	57679.35
813.5415	443.6645	58541.2	57724.2
813.6853	445.8371	58498.25	57679.3
813.8291	448.0091	58392.2	57572.45
813.973	450.1806	58351.65	57529.65
814.1168	452.3514	58346.1	57528.6
814.2607	454.5216	58278.65	57449
814.4046	456.6913	58320.25	57497.15
814.5485	458.8603	58303.15	57480.5
814.6924	461.0288	58191.15	57370.05
814.8363	463.1967	58289.35	57471.5
814.9802	465.3639	58257.3	57431.25
815.1241	467.5306	58089.75	57267
815.2681	469.6967	58193.05	57369.95
815.412	471.8622	58235.75	57411.9
815.556	474.0271	58127.85	57305
815.7	476.1914	58167.95	57340.15
815.844	478.3551	58185.7	57360.5
815.988	480.5182	58314.3	57487.85
816.132	482.6807	58115.7	57295.9
816.276	484.8426	58146.9	57324.1
816.4201	487.0039	58291.15	57467.05
816.5641	489.1647	58275.1	57447.85
816.7082	491.3248	58158.25	57328.5
816.8522	493.4843	58332.35	57505.35
816.9963	495.6432	58298.95	57472.4
817.1404	497.8015	58105.4	57270.4
817.2845	499.9592	58256.9	57419.4
817.4286	502.1163	58207.2	57370.7
817.5727	504.2728	58177.85	57343.15
817.7168	506.4287	58168.15	57343.6
817.861	508.5839	58051.8	57220.6
818.0051	510.7386	58134.7	57298.95
818.1493	512.8927	58148.3	57308.55
818.2935	515.0461	58148.2	57309.55
818.4377	517.199	58184.55	57343
818.5818	519.3512	58064.6	57226.5
818.726	521.5029	58079.9	57234.9
818.8703	523.6539	58096.3	57256.15
819.0145	525.8043	57989.35	57146.9
819.1587	527.9541	58090.75	57244.3
819.303	530.1033	58029.35	57189.8
819.4472	532.2519	57974.95	57132.35
819.5915	534.3999	58062.2	57219.65
819.7357	536.5472	58108.8	57269.45
819.88	538.694	57934.8	57096.15
820.0243	540.8401	58056.6	57214.3
820.1686	542.9856	58070.15	57224.8
820.3129	545.1305	58100.6	57249.5
820.4572	547.2748	57967.2	57118
820.6016	549.4185	57997.05	57146.65
820.7459	551.5615	58056.95	57208.25
820.8902	553.704	58032.6	57181.7
821.0346	555.8458	57943.15	57093.2
821.1789	557.987	57971.55	57123.35
821.3233	560.1276	57979.9	57129.6
821.4677	562.2675	57943.95	57095.15
821.6121	564.4069	57962.75	57113.8
821.7565	566.5456	58018.45	57169.4
821.9009	568.6837	57931.1	57080.5
822.0453	570.8212	57922.7	57073.45
822.1897	572.958	57742.6	56890.45
822.3342	575.0942	57870.4	57024.1
822.4786	577.2299	57710.2	56862.15
822.6231	579.3648	57631.65	56788.75
822.7675	581.4992	57588.8	56748.7
822.912	583.6329	57548.1	56711.15
823.0565	585.766	57545	56701.35
823.201	587.8985	57550.1	56705.2
823.3454	590.0304	57403.55	56530.2
823.4899	592.1616	57471.25	56616.9
823.6345	594.2922	57385.45	56532.15
823.779	596.4222	57315.35	56457.35
823.9235	598.5515	57335.55	56478.8
824.068	600.6802	57351.05	56496.2
824.2126	602.8083	57186.5	56329.1
824.3571	604.9358	57182.55	56327.2
824.5017	607.0626	57255.9	56397.8
824.6462	609.1888	57094.45	56232.25
824.7908	611.3144	57193.6	56329.9
824.9354	613.4393	57101.1	56243.6
825.08	615.5636	57040.2	56180.05
825.2246	617.6873	57088.65	56226.65
825.3692	619.8103	56972.75	56111.7
825.5138	621.9327	57074.75	56212.75
825.6584	624.0544	57061.65	56201.2
825.803	626.1756	57006.5	56147.9
825.9477	628.2961	56979.9	56115.95
826.0923	630.4159	56903.15	56042.25
826.237	632.5351	56907.3	56044
826.3816	634.6537	57041.8	56179.05
826.5263	636.7716	56831.3	55966.3
826.6709	638.8889	56896.6	56028.35
826.8156	641.0056	56890.2	56024.15
826.9603	643.1216	56901.5	56032.45
827.105	645.237	56963.35	56094.7
827.2497	647.3518	56827.4	55962.15
827.3944	649.4659	56862.1	55999.25
827.5391	651.5793	56861.7	55999.75
827.6838	653.6922	56852.35	55988
827.8285	655.8043	56672.45	55807.8
827.9733	657.9159	56896.35	56029.1
828.118	660.0268	56482.45	55612.25
828.2627	662.137	56668.25	55800.7
828.4075	664.2466	56669.45	55796.45
828.5522	666.3556	56603.15	55730.75
828.697	668.4639	56665.55	55794
828.8418	670.5716	56578	55713.05
828.9865	672.6786	56638.55	55771.5
829.1313	674.785	56484.25	55613.15
829.2761	676.8907	56430.7	55560.3
829.4209	678.9958	56510.5	55643.75
829.5657	681.1002	56488.5	55617.85
829.7105	683.204	56340.1	55462.25
829.8553	685.3072	56242.7	55368.35
830.0001	687.4097	56339.05	55466.4
830.1449	689.5115	56290.5	55414.8
830.2898	691.6127	56396.1	55524.15
830.4346	693.7132	56243.5	55374.25
830.5794	695.8131	56257.45	55370.85
830.7243	697.9123	56285.6	55410.1
830.8691	700.0109	56291.85	55417.3
831.014	702.1089	56094.6	55219.95
831.1588	704.2061	56132.35	55257.05
831.3037	706.3028	56182.3	55305.1
831.4486	708.3987	56184.3	55305.85
831.5935	710.4941	56024.25	55144.95
831.7383	712.5887	56147.95	55268.8
831.8832	714.6827	56058.75	55177.6
832.0281	716.7761	56183.1	55306.85
832.173	718.8688	56161.7	55284.55
832.3179	720.9608	55957.6	55074.1
832.4628	723.0522	55993.5	55109.9
832.6077	725.1429	55885.05	55004.3
832.7527	727.233	56136.35	55256.75
832.8976	729.3224	55743.8	54863.05
833.0425	731.4112	55855.1	54976.6
833.1874	733.4993	55828.65	54948.95
833.3324	735.5867	55790.75	54910.4
833.4773	737.6735	55737.7	54854.8
833.6222	739.7596	55611.55	54728.5
833.7672	741.845	55566.5	54683.95
833.9122	743.9298	55709	54826.7
834.0571	746.014	55494.4	54615.9
834.2021	748.0974	55417.75	54532.15
834.347	750.1802	55556.7	54675.45
834.492	752.2624	55266.55	54382.4
834.637	754.3439	55269.95	54383.15
834.782	756.4247	55321.25	54429.95
834.9269	758.5048	55142.2	54260.2
835.0719	760.5843	55148.85	54266.35
835.2169	762.6631	55166.65	54281
835.3619	764.7413	55069.3	54184.55
835.5069	766.8188	55103	54215.2
835.6519	768.8956	55120.65	54234.55
835.7969	770.9718	55068.45	54186
835.9419	773.0473	54994.4	54109.35
836.0869	775.1221	54881.55	53997.75
836.232	777.1962	54840.05	53953.6
836.377	779.2697	54682.65	53796.2
836.522	781.3426	54726.1	53820.55
836.667	783.4147	54696.05	53807.5
836.8121	785.4862	54678.45	53792.05
836.9571	787.557	54582.95	53695.85
837.1021	789.6271	54685.45	53796.05
837.2472	791.6966	54518.85	53633.25
837.3922	793.7654	54393.5	53506.65
837.5373	795.8335	54382.85	53495.15
837.6823	797.901	54387.35	53501.75
837.8274	799.9678	54284.4	53396.7
837.9724	802.0339	54251.35	53361.05
838.1175	804.0993	54234.25	53338.15
838.2626	806.1641	54143.9	53250.6
838.4076	808.2282	54077.9	53189.5
838.5527	810.2916	54096.65	53205.05
838.6978	812.3544	54138.75	53253.4
838.8428	814.4164	53973.9	53085.45
838.9879	816.4778	54001.55	53112.25
839.133	818.5385	53923.95	53035.85
839.2781	820.5986	53908.55	53019.35
839.4232	822.658	53915.75	53023.25
839.5682	824.7166	53874.15	52984.35
839.7133	826.7747	53829.3	52938.6
839.8584	828.832	53843.25	52950.65
840.0035	830.8886	53805	52913.3
840.1486	832.9446	53810.05	52920.65
840.2937	834.9999	53632.6	52742.3
840.4388	837.0545	53662.75	52769.5
840.5839	839.1085	53677.5	52784.4
840.729	841.1618	53598.85	52703.55
840.8741	843.2143	53503.95	52611.5
841.0192	845.2662	53427.85	52536.95
841.1643	847.3175	53461.1	52568.05
841.3095	849.368	53330.75	52438.5
841.4546	851.4179	53353.15	52459.2
841.5997	853.467	53203.5	52312.15
841.7448	855.5155	53219.35	52324.9
841.8899	857.5633	53143.45	52250.7
842.0351	859.6105	53086.5	52191.35
842.1802	861.6569	53114.1	52222.85
842.3253	863.7027	53014.85	52120.5
842.4704	865.7478	53068.35	52175.25
842.6156	867.7922	53015.3	52121.9
842.7607	869.8359	52981.75	52088.05
842.9058	871.8789	52857.2	51960.2
843.0509	873.9212	52884.4	51955.35
843.1961	875.9629	52828.25	51932
843.3412	878.0039	52846.95	51952.9
843.4863	880.0441	52839.5	51947.15
843.6315	882.0837	52821.2	51926.65
843.7766	884.1226	52774.9	51877.95
843.9218	886.1609	52741.75	51844.85
844.0669	888.1984	52726.7	51833.5
844.212	890.2352	52790	51894.9
844.3572	892.2714	52663.4	51764.95
844.5023	894.3069	52703.55	51807.1
844.6475	896.3416	52606.95	51710.25
844.7926	898.3757	52544.7	51648.95
844.9377	900.4091	52472.45	51574.1
845.0829	902.4418	52526.5	51624.95
845.228	904.4739	52417.6	51516.75
845.3732	906.5052	52436.1	51538.9
845.5183	908.5358	52359.6	51462.7
845.6635	910.5658	52321	51422.7
845.8086	912.595	52289.35	51389.55
845.9538	914.6236	52103.35	51205.95
846.0989	916.6515	52233.7	51335.9
846.2441	918.6786	52042.85	51144.75
846.3892	920.7051	52049	51148.65
846.5344	922.7309	52090.35	51192.1
846.6795	924.756	52009.25	51112.45
846.8246	926.7804	51960.7	51061.25
846.9698	928.8041	51779.45	50882.5
847.1149	930.8272	51849.7	50954.65
847.2601	932.8495	51747.35	50849.85
847.4052	934.8711	51663.4	50761
847.5504	936.892	51537	50638.1
847.6955	938.9123	51497	50593.1
847.8407	940.9318	51440.45	50544.05
847.9858	942.9506	51397.25	50497.75
848.131	944.9688	51361.1	50463.05
848.2761	946.9862	51208.5	50310
848.4213	949.003	51169.95	50271.6
848.5664	951.019	51031.7	50133.9
848.7115	953.0344	51041.85	50143.3
848.8567	955.0491	50947.5	50048.8
849.0018	957.063	51000.05	50101.75
849.147	959.0763	51021.3	50122.55
849.2921	961.0888	50809.45	49906.45
849.4373	963.1007	50884.5	49983.7
849.5824	965.1119	50882.2	49984.8
849.7275	967.1223	50813.2	49919.9
849.8727	969.1321	50803.15	49910.3
850.0178	971.1412	50702.4	49808.1
850.1629	973.1495	50583.75	49683.6
850.3081	975.1572	50625.45	49687.2
850.4532	977.1641	50529.65	49627.35
850.5983	979.1704	50478.85	49579.65
850.7435	981.1759	50451.75	49548.55
850.8886	983.1808	50350.2	49450.25
851.0337	985.1849	50293.45	49383.35
851.1788	987.1884	50295.2	49393.4
851.324	989.1911	50289.05	49386.4
851.4691	991.1932	50101.45	49200.5
851.6142	993.1945	50078.3	49182.35
851.7593	995.1951	50069.3	49167.15
851.9045	997.1951	49949.45	49045.1
852.0496	999.1943	49832.7	48930.95
852.1947	1001.1928	49750.3	48849.25
852.3398	1003.1906	49674.45	48774.7
852.4849	1005.1877	49549.6	48646.9
852.63	1007.1841	49490.15	48588.9
852.7751	1009.1798	49435.15	48535.55
852.9202	1011.1748	49345.75	48444.85
853.0653	1013.1691	49307.9	48405.3
853.2104	1015.1627	49086.3	48183.45
853.3555	1017.1556	49028.3	48128.95
853.5006	1019.1477	49021.35	48120.7
853.6457	1021.1392	48838.6	47943.3
853.7908	1023.1299	48712.7	47818.45
853.9359	1025.12	48669.8	47773.9
854.081	1027.1093	48528.1	47637.15
854.2261	1029.0979	48520.2	47632.2
854.3712	1031.0859	48437.85	47544.8
854.5163	1033.0731	48316.4	47420.95
854.6613	1035.0596	48260.65	47363.6
854.8064	1037.0454	48145.95	47247.3
854.9515	1039.0304	48101.95	47204.55
855.0965	1041.0148	47963.5	47063.25
855.2416	1042.9985	47925.55	47024.55
855.3867	1044.9814	47945.95	47045.45
855.5317	1046.9636	47767.85	46867.2
855.6768	1048.9452	47730.55	46832.55
855.8219	1050.926	47688.35	46789.75
855.9669	1052.9061	47630.75	46731.3
856.112	1054.8855	47576.9	46674.3
856.257	1056.8642	47492.4	46592
856.4021	1058.8421	47435.1	46531.5
856.5471	1060.8194	47397.3	46496.35
856.6921	1062.7959	47313.1	46413.9
856.8372	1064.7717	47354.7	46455.15
856.9822	1066.7469	47295.55	46395.55
857.1272	1068.7213	47302.75	46397.85
857.2723	1070.695	47221.05	46318.35
857.4173	1072.6679	47063.6	46161.2
857.5623	1074.6402	47058.75	46160.9
857.7073	1076.6117	46986	46078.45
857.8523	1078.5826	46999.7	46099.65
857.9973	1080.5527	46930.05	46024.8
858.1423	1082.5221	46810.4	45909
858.2873	1084.4908	46862	45958.05
858.4323	1086.4587	46712.45	45811.3
858.5773	1088.426	46685.2	45782.75
858.7223	1090.3925	46584.1	45675.15
858.8673	1092.3584	46573.3	45671.9
859.0123	1094.3235	46437.8	45538.1
859.1573	1096.2879	46374.25	45473.55
859.3022	1098.2515	46385.65	45484
859.4472	1100.2145	46316.2	45416.35
859.5922	1102.1767	46266.85	45363.95
859.7371	1104.1382	46256.7	45353.25
859.8821	1106.099	46224.9	45321.15
860.027	1108.0591	46158.25	45255.9
860.172	1110.0185	45962.6	45058.25
860.3169	1111.9771	46157	45256.85
860.4619	1113.9351	45997.35	45093.2
860.6068	1115.8923	45899.05	44998.55
860.7517	1117.8488	45763.3	44857.55
860.8967	1119.8045	45602.5	44699.95
861.0416	1121.7596	45597.95	44697.9
861.1865	1123.7139	45485.7	44584.8
861.3314	1125.6675	45429.6	44526.05
861.4763	1127.6204	45443.2	44541
861.6212	1129.5726	45254.15	44349.5
861.7661	1131.524	45310.65	44409.15
861.911	1133.4748	45286.55	44385.3
862.0559	1135.4248	45127.7	44223.1
862.2008	1137.3741	45069.3	44168.1
862.3457	1139.3226	45040.2	44137.7
862.4905	1141.2705	45007.35	44106
862.6354	1143.2176	44930.6	44024.25
862.7803	1145.164	44760.55	43856.3
862.9251	1147.1097	44731.85	43828.6
863.07	1149.0546	44712	43808.5
863.2148	1150.9989	44744	43845.1
863.3597	1152.9424	44583.25	43683.2
863.5045	1154.8852	44643.8	43742.4
863.6493	1156.8272	44473.95	43572.45
863.7942	1158.7686	44602.9	43693.4
863.939	1160.7092	44371.25	43466.2
864.0838	1162.6491	44337.3	43435.8
864.2286	1164.5883	44369.4	43468.1
864.3734	1166.5267	44294.3	43392.8
864.5182	1168.4644	44311.1	43409.2
864.663	1170.4014	44241.3	43331.1
864.8078	1172.3377	44323.55	43424.25
864.9526	1174.2732	44322.4	43421.25
865.0974	1176.2081	44288.7	43388.75
865.2421	1178.1421	44244.6	43338.85
865.3869	1180.0755	44394.95	43493.5
865.5317	1182.0082	44265.7	43365.9
865.6764	1183.9401	44260.7	43360.2
865.8212	1185.8713	44110.75	43209.55
865.9659	1187.8017	44063.2	43166.1
866.1106	1189.7315	43994.1	43100.8
866.2554	1191.6605	43820.55	42925.9
866.4001	1193.5888	43688.5	42793.6
866.5448	1195.5163	43572.95	42674.45
866.6895	1197.4432	43511.85	42611.9
866.8342	1199.3693	43493.45	42592.5
866.9789	1201.2947	43387.8	42481.6
867.1236	1203.2193	43353.25	42450.5
867.2683	1205.1432	43187.35	42285.25
867.413	1207.0664	43147.75	42247.4
867.5576	1208.9889	43124.5	42219.6
867.7023	1210.9106	43040.15	42139.65
867.847	1212.8316	42913	42014.85
867.9916	1214.7519	42897.75	41987.45
868.1363	1216.6715	42811.15	41908
868.2809	1218.5903	42770.35	41870.05
868.4255	1220.5084	42744.1	41843.15
868.5701	1222.4257	42753.6	41851.65
868.7148	1224.3424	42658.1	41757.5
868.8594	1226.2583	42568.65	41666
869.004	1228.1735	42567.4	41663.65
869.1486	1230.0879	42378.8	41476.35
869.2932	1232.0016	42404.4	41503.2
869.4377	1233.9146	42341.15	41439.1
869.5823	1235.8269	42307.15	41406.2
869.7269	1237.7384	42330.55	41428
869.8715	1239.6492	42212.7	41315.1
870.016	1241.5592	42147.7	41244.9
870.1606	1243.4686	42100.2	41199.2
870.3051	1245.3772	42039.35	41138.65
870.4496	1247.285	42001	41097
870.5941	1249.1922	41921.45	41018.3
870.7387	1251.0986	41949.1	41047.4
870.8832	1253.0042	41807.7	40906
871.0277	1254.9092	41839.6	40939.5
871.1722	1256.8134	41739.7	40841.3
871.3167	1258.7169	41809.2	40906.25
871.4611	1260.6196	41723.25	40823.15
871.6056	1262.5216	41707.45	40803.7
871.7501	1264.4229	41714.75	40815.9
871.8945	1266.3234	41742.35	40841.6
872.039	1268.2232	41674.95	40775.5
872.1834	1270.1223	41614.65	40712.7
872.3278	1272.0207	41601.45	40701.3
872.4723	1273.9183	41590.9	40682.55
872.6167	1275.8151	41471.7	40569.05
872.7611	1277.7113	41458.3	40559.3
872.9055	1279.6067	41375.75	40477.25
873.0499	1281.5014	41365.85	40465.35
873.1943	1283.3953	41404.95	40501.7
873.3386	1285.2885	41414.05	40512.85
873.483	1287.181	41453.05	40551.45
873.6274	1289.0727	41479.3	40580.1
873.7717	1290.9637	41385.85	40484.35
873.9161	1292.854	41496.85	40596.3
874.0604	1294.7435	41390.15	40486.25
874.2047	1296.6323	41379.5	40479.7
874.349	1298.5204	41327.95	40424.2
874.4933	1300.4077	41318.05	40415.4
874.6376	1302.2943	41199.65	40297.5
874.7819	1304.1802	41138.55	40241.25
874.9262	1306.0653	40975.95	40070.05
875.0705	1307.9497	40937.85	40035.5
875.2147	1309.8333	40864.9	39963.55
875.359	1311.7162	40769.3	39869.55
875.5032	1313.5984	40726.1	39822.3
875.6475	1315.4798	40580.9	39676.65
875.7917	1317.3605	40574.5	39656.35
875.9359	1319.2405	40591.55	39687.55
876.0801	1321.1197	40408.1	39505.35
876.2243	1322.9982	40334.05	39427.25
876.3685	1324.876	40312.7	39412.3
876.5127	1326.753	40167.35	39265.6
876.6569	1328.6293	40252.15	39348.8
876.801	1330.5048	40170.9	39268.5
876.9452	1332.3796	40003.1	39100.75
877.0893	1334.2537	39992.2	39065.3
877.2335	1336.127	39965.4	39064.05
877.3776	1337.9996	39897.55	38996.15
877.5217	1339.8714	39879.05	38977.15
877.6658	1341.7426	39736.9	38792.8
877.8099	1343.6129	39842.15	38939.15
877.954	1345.4826	39722.05	38820.15
878.0981	1347.3515	39678.25	38774.15
878.2422	1349.2196	39689.3	38787
878.3862	1351.087	39644.85	38745.4
878.5303	1352.9537	39610.05	38709.05
878.6743	1354.8197	39658.15	38756.75
878.8184	1356.6849	39649.8	38745.2
878.9624	1358.5493	39608.25	38704.8
879.1064	1360.4131	39550.2	38649.4
879.2504	1362.276	39560.1	38659.4
879.3944	1364.1383	39461	38560.45
879.5384	1365.9998	39358.45	38448.85
879.6823	1367.8606	39315.25	38415.35
879.8263	1369.7206	39185.65	38282.4
879.9702	1371.5799	39095.55	38191.75
880.1142	1373.4384	38959.75	38057.5
880.2581	1375.2962	38950.8	38049.95
880.402	1377.1533	38762.2	37863.25
880.5459	1379.0096	38615.9	37715.3
880.6898	1380.8652	38507.45	37605
880.8337	1382.7201	38396.55	37498.15
880.9776	1384.5742	38239.15	37335.8
881.1215	1386.4275	38126.05	37224.8
881.2653	1388.2802	38050.05	37148.65
881.4092	1390.132	37985.2	37084.5
881.553	1391.9832	37879.85	36976.65
881.6968	1393.8336	37784.5	36883.35
881.8406	1395.6832	37742.05	36842.35
881.9844	1397.5322	37692.85	36792.7
882.1282	1399.3803	37582	36676.2
882.272	1401.2278	37497.3	36595.55
882.4158	1403.0745	37426.85	36526.4
882.5595	1404.9204	37324.3	36424.4
882.7033	1406.7656	37280.75	36379.8
882.847	1408.6101	37206.15	36303.05
882.9908	1410.4538	37156.7	36254.8
883.1345	1412.2968	37126.05	36226.2
883.2782	1414.139	37032.15	36131.6
883.4219	1415.9805	37047.75	36146.65
883.5656	1417.8213	36942.2	36037.05
883.7092	1419.6613	36900.55	36001.25
883.8529	1421.5006	36885.8	35985.45
883.9965	1423.3391	36850.55	35950
884.1402	1425.1769	36817.75	35916.2
884.2838	1427.0139	36869.8	35966.45
884.4274	1428.8502	36922.4	36020.85
884.571	1430.6858	36933.65	36033.1
884.7146	1432.5206	36924.55	36025
884.8582	1434.3547	36971.8	36071.05
885.0018	1436.188	36911.25	36013
885.1453	1438.0206	36886	35985.05
885.2889	1439.8524	36810.35	35910.3
885.4324	1441.6835	36743.35	35842.25
885.5759	1443.5139	36668.45	35764.1
885.7194	1445.3435	36624.05	35724.9
885.8629	1447.1724	36616.6	35716.1
886.0064	1449.0005	36568.25	35668.55
886.1499	1450.8279	36490.2	35590.1
886.2933	1452.6545	36463.65	35564.4
886.4368	1454.4804	36494.6	35595.25
886.5802	1456.3056	36432.3	35526.4
886.7237	1458.13	36394.3	35497
886.8671	1459.9536	36356.25	35457.8
887.0105	1461.7766	36235.8	35337.3
887.1539	1463.5987	36157.95	35256.25
887.2972	1465.4202	36042.95	35143.35
887.4406	1467.2409	35984.45	35083.55
887.584	1469.0608	35813.4	34913.5
887.7273	1470.88	35819.7	34920.55
887.8706	1472.6984	35746.6	34847.45
888.0139	1474.5161	35564	34663.65
888.1572	1476.3331	35557.2	34659.65
888.3005	1478.1493	35468.4	34567.25
888.4438	1479.9648	35421.6	34522.6
888.5871	1481.7795	35431.3	34532.9
888.7303	1483.5935	35405.05	34506.15
888.8736	1485.4067	35266.75	34368.45
889.0168	1487.2192	35283.6	34384.3
889.16	1489.031	35204.05	34302.85
889.3032	1490.842	35191.55	34290.8
889.4464	1492.6522	35174.3	34275.1
889.5896	1494.4618	35087.25	34186.85
889.7327	1496.2705	35117.75	34218.35
889.8759	1498.0785	34935.9	34036.75
890.019	1499.8858	34942.25	34043
890.1622	1501.6924	34946.4	34048.85
890.3053	1503.4981	34847.15	33946.45
890.4484	1505.3032	34802.65	33902.45
890.5914	1507.1075	34732.65	33833.65
890.7345	1508.911	34678.3	33780.1
890.8776	1510.7138	34665.45	33765.95
891.0206	1512.5159	34606.7	33705.65
891.1637	1514.3172	34500.8	33600.3
891.3067	1516.1178	34443.1	33546.4
891.4497	1517.9176	34468.4	33567.45
891.5927	1519.7166	34347.35	33448.5
891.7357	1521.515	34299.6	33393.8
891.8786	1523.3126	34198.7	33300.6
892.0216	1525.1094	34182.6	33282.75
892.1645	1526.9055	34095.6	33198.55
892.3074	1528.7008	34072.85	33175.05
892.4503	1530.4954	33878.8	32981.3
892.5932	1532.2893	33930.45	33035.6
892.7361	1534.0824	33788.9	32887.4
892.879	1535.8747	33716.5	32821
893.0218	1537.6663	33790.45	32894.45
893.1647	1539.4572	33487	32588.7
893.3075	1541.2473	33590.5	32692.4
893.4503	1543.0367	33499.3	32604.05
893.5931	1544.8253	33381.95	32481.85
893.7359	1546.6132	33409.9	32508.45
893.8787	1548.4003	33284.75	32375.6
894.0214	1550.1867	33258.25	32355.4
894.1642	1551.9723	33213.15	32312.3
894.3069	1553.7572	33207.4	32311.65
894.4496	1555.5414	33210.05	32315.35
894.5923	1557.3247	33051.45	32155.95
894.735	1559.1074	33112.9	32220.05
894.8777	1560.8893	33050.6	32155.9
895.0204	1562.6705	33040.4	32146.5
895.163	1564.4509	32935.05	32041.7
895.3056	1566.2305	32922.9	32032.65
895.4482	1568.0094	33023.1	32133.85
895.5908	1569.7876	32941.75	32051
895.7334	1571.565	32835.95	31943.6
895.876	1573.3417	32854.55	31962.05
896.0186	1575.1176	32795.65	31903.25
896.1611	1576.8928	32695.8	31803.15
896.3036	1578.6672	32613.45	31725.5
896.4461	1580.4409	32589.15	31700.55
896.5886	1582.2138	32465.35	31571.85
896.7311	1583.986	32457.5	31562.9
896.8736	1585.7575	32375.3	31485.65
897.0161	1587.5282	32342.25	31453.4
897.1585	1589.2981	32363.85	31474.55
897.3009	1591.0673	32276.5	31387.4
897.4433	1592.8358	32261.6	31372.65
897.5857	1594.6035	32266	31374.25
897.7281	1596.3704	32255.45	31360.85
897.8705	1598.1366	32103.05	31211.55
898.0128	1599.9021	32056.15	31166.2
898.1551	1601.6668	32047.6	31154.85
898.2975	1603.4308	32005.4	31111.2
898.4398	1605.194	32027.55	31131.05
898.5821	1606.9564	31928.85	31040.25
898.7243	1608.7182	31995	31104.3
898.8666	1610.4791	31954.8	31070.95
899.0088	1612.2394	32020.75	31134.45
899.1511	1613.9988	31961.65	31076.4
899.2933	1615.7576	32023.35	31136.55
899.4355	1617.5156	32059	31163.25
899.5776	1619.2728	32127.6	31235.1
899.7198	1621.0293	31942.15	31052.1
899.862	1622.785	31835.25	30944.45
900.0041	1624.54	31777.5	30886
900.1462	1626.2942	31639.3	30749.55
900.2883	1628.0477	31366.7	30476.2
900.4304	1629.8005	31200.15	30306.45
900.5725	1631.5525	31228.35	30340.75
900.7145	1633.3037	30952.15	30063.65
900.8566	1635.0542	30877.1	29991.5
900.9986	1636.804	30864.65	29974.25
901.1406	1638.553	30712.35	29777.75
901.2826	1640.3013	30647.25	29758.2
901.4245	1642.0488	30511.9	29623.2
901.5665	1643.7955	30540.1	29654.1
901.7085	1645.5416	30458.2	29571.75
901.8504	1647.2868	30399.2	29509.8
901.9923	1649.0313	30461.7	29573.15
902.1342	1650.7751	30434.5	29543.7
902.2761	1652.5181	30376.85	29491.45
902.4179	1654.2604	30308.75	29420.4
902.5598	1656.0019	30347.9	29461.65
902.7016	1657.7427	30325.8	29438.65
902.8434	1659.4828	30448.35	29560.45
902.9852	1661.222	30360.3	29470.7
903.127	1662.9606	30381.45	29493.3
903.2687	1664.6984	30198.75	29310
903.4105	1666.4354	30104.3	29215.35
903.5522	1668.1717	29837.65	28946.25
903.6939	1669.9072	29589.2	28697.9
903.8356	1671.642	29457.15	28561.35
903.9773	1673.3761	29340.55	28452.3
904.119	1675.1094	29153.55	28268.65
904.2606	1676.8419	29003.45	28115.75
904.4022	1678.5737	28937.45	28046.85
904.5439	1680.3048	28786.45	27897.45
904.6855	1682.0351	28700.85	27812.45
904.827	1683.7646	28588.15	27697.45
904.9686	1685.4934	28560.7	27674.25
905.1101	1687.2215	28301.75	27414
905.2517	1688.9488	28326.3	27439.35
905.3932	1690.6754	27949.7	27062.65
905.5347	1692.4012	28088.3	27200.5
905.6761	1694.1263	28065.85	27176.3
905.8176	1695.8506	27916.3	27028.65
905.9591	1697.5742	27890.8	27005.75
906.1005	1699.297	27752.95	26866.65
906.2419	1701.0191	27688.05	26801.4
906.3833	1702.7404	27503.65	26618.25
906.5246	1704.461	27388.9	26502.3
906.666	1706.1808	27391.8	26503.15
906.8073	1707.8999	27315.95	26429.1
906.9487	1709.6182	27237.4	26350.9
907.09	1711.3358	27127.85	26243.8
907.2313	1713.0527	27072.35	26187.2
907.3725	1714.7688	27004.15	26111.85
907.5138	1716.4841	26792.7	25906.3
907.655	1718.1987	26830.35	25938.2
907.7962	1719.9126	26740.95	25857.75
907.9374	1721.6257	26684.15	25797
908.0786	1723.338	26662.1	25776.25
908.2198	1725.0496	26382.4	25496.25
908.3609	1726.7605	26397.8	25509.9
908.502	1728.4706	26270.1	25384
908.6431	1730.18	26253.3	25366.9
908.7842	1731.8886	26119.2	25234.05
908.9253	1733.5964	26059.5	25169.1
909.0664	1735.3036	26073.75	25186.25
909.2074	1737.0099	25998.3	25114.05
909.3484	1738.7156	25923.25	25039.8
909.4894	1740.4204	25779.8	24889.7
909.6304	1742.1246	25814.15	24926.85
909.7714	1743.8279	25742.3	24856.75
909.9123	1745.5306	25711.65	24826.55
910.0532	1747.2325	25493.8	24607.85
910.1941	1748.9336	25449.95	24563.05
910.335	1750.634	25402.6	24515.8
910.4759	1752.3336	25479.25	24595.3
910.6168	1754.0325	25300.55	24417.2
910.7576	1755.7307	25322.65	24440.4
910.8984	1757.4281	25183.95	24298.55
911.0392	1759.1247	25269.1	24375.55
911.18	1760.8206	25087.3	24195.35
911.3208	1762.5158	25064.05	24173.4
911.4615	1764.2102	24997.2	24113.7
911.6022	1765.9039	24954.4	24068.75
911.7429	1767.5968	24875.55	23989.8
911.8836	1769.289	24808.25	23924.1
912.0243	1770.9804	24769.9	23881.55
912.1649	1772.6711	24698.85	23813.6
912.3056	1774.361	24641.2	23755
912.4462	1776.0502	24619.9	23734.05
912.5868	1777.7386	24511.8	23622.65
912.7274	1779.4263	24464.35	23578.95
912.8679	1781.1132	24460.1	23575.85
913.0084	1782.7994	24371.65	23485.65
913.149	1784.4849	24379.4	23496.35
913.2895	1786.1696	24209.95	23306
913.4299	1787.8535	24209.5	23326.6
913.5704	1789.5367	24150.45	23264.4
913.7108	1791.2192	24080.2	23196.15
913.8513	1792.9009	23962.75	23047.3
913.9917	1794.5818	23966.8	23079.55
914.132	1796.2621	23905.75	23019.65
914.2724	1797.9415	23854.15	22968.7
914.4128	1799.6202	23768.8	22884.75
914.5531	1801.2982	23777.2	22892.4
914.6934	1802.9755	23681.35	22795.6
914.8337	1804.6519	23614.7	22727.45
914.9739	1806.3277	23609.85	22725.95
915.1142	1808.0027	23425.9	22543.3
915.2544	1809.6769	23475.6	22592.25
915.3946	1811.3504	23440.4	22555.45
915.5348	1813.0231	23345.8	22461.55
915.675	1814.6951	23319.15	22437
915.8151	1816.3664	23281.85	22393.9
915.9553	1818.0369	23223.45	22337.3
916.0954	1819.7067	23154.95	22271.3
916.2355	1821.3757	23173.55	22285.5
916.3755	1823.044	23058	22172.7
916.5156	1824.7115	22999.4	22113.75
916.6556	1826.3783	22918.15	22033.6
916.7956	1828.0443	22865.65	21981.95
916.9356	1829.7096	22796.95	21910.75
917.0756	1831.3741	22807.45	21920.15
917.2155	1833.0379	22754.6	21871.55
917.3555	1834.701	22702.55	21817.35
917.4954	1836.3633	22633.35	21749.6
917.6353	1838.0248	22581.3	21693.15
917.7751	1839.6856	22579.05	21695.8
917.915	1841.3457	22510.7	21626.8
918.0548	1843.005	22485.55	21601.7
918.1946	1844.6636	22458.65	21576.1
918.3344	1846.3214	22362.05	21477.15
918.4742	1847.9785	22332.65	21448.85
918.6139	1849.6349	22290.85	21404.25
918.7537	1851.2904	22282.55	21389.05
918.8934	1852.9453	22175.65	21287.95
919.0331	1854.5994	22129.6	21242.55
919.1727	1856.2528	22154.6	21264.65
919.3124	1857.9054	22033.2	21148.9
919.452	1859.5572	22006.8	21123.75
919.5916	1861.2083	21979.7	21093.1
919.7312	1862.8587	22023.4	21138.65
919.8708	1864.5084	21949.7	21063.95
920.0103	1866.1572	21850.6	20964.9
920.1498	1867.8054	21759.55	20873.5
920.2893	1869.4528	21720.7	20833.6
920.4288	1871.0994	21659	20775.75
920.5683	1872.7453	21649.65	20763.55
920.7077	1874.3905	21592.75	20701.25
920.8471	1876.0349	21495.85	20609.55
920.9865	1877.6786	21512.35	20626.25
921.1259	1879.3215	21466.5	20583.1
921.2653	1880.9637	21411.3	20523.9
921.4046	1882.6051	21419.05	20535.85
921.5439	1884.2458	21363.7	20477.25
921.6832	1885.8858	21242.2	20357.5
921.8225	1887.525	21267.95	20381.9
921.9617	1889.1634	21116.8	20230.95
922.101	1890.8011	21100.35	20214.85
922.2402	1892.4381	21030.9	20145.3
922.3794	1894.0743	21039.4	20156.8
922.5185	1895.7098	20966.55	20083.95
922.6577	1897.3446	20881.05	19993.25
922.7968	1898.9786	20880.85	19991.45
922.9359	1900.6118	20813.95	19933.1
923.075	1902.2443	20710	19822.8
923.214	1903.8761	20685.1	19802.95
923.3531	1905.5071	20548	19660.95
923.4921	1907.1374	20473.95	19588.65
923.6311	1908.7669	20488.9	19604.8
923.77	1910.3957	20474	19589.35
923.909	1912.0237	20335.95	19452.7
924.0479	1913.651	20290.95	19405.75
924.1868	1915.2776	20239.85	19356.3
924.3257	1916.9034	20157.15	19274.45
924.4646	1918.5285	20102.05	19219.3
924.6034	1920.1528	20018.85	19133.85
924.7422	1921.7764	20013.7	19129.7
924.881	1923.3992	19921.45	19038.55
925.0198	1925.0213	19794.95	18911.4
925.1586	1926.6427	19733.7	18849.5
925.2973	1928.2633	19893	18763.2
925.436	1929.8832	19651.75	18761.25
925.5747	1931.5023	19560.45	18675.3
925.7134	1933.1207	19522.85	18638.5
925.852	1934.7383	19486.45	18600.25
925.9906	1936.3552	19370.7	18487.1
926.1292	1937.9714	19384.3	18499.25
926.2678	1939.5868	19298.15	18412.1
926.4064	1941.2015	19161.35	18276.85
926.5449	1942.8154	19093.1	18208.45
926.6834	1944.4286	18992	18105.2
926.8219	1946.041	18974.1	18067.45
926.9604	1947.6528	18937.3	18047.45
927.0988	1949.2637	18877.65	17993.15
927.2372	1950.8739	18815.1	17929.9
927.3756	1952.4834	18789.1	17904.75
927.514	1954.0921	18738.8	17853.2
927.6523	1955.7001	18673.4	17786.65
927.7907	1957.3074	18611.75	17728.3
927.929	1958.9139	18544.6	17663.6
928.0673	1960.5197	18498.75	17613.9
928.2055	1962.1247	18417.3	17534.8
928.3438	1963.729	18334.35	17453.35
928.482	1965.3325	18275	17370
928.6202	1966.9353	18231.05	17350.25
928.7584	1968.5374	18155.65	17273.5
928.8965	1970.1387	18122.1	17239.45
929.0346	1971.7393	18078	17194
929.1727	1973.3392	18004.95	17122.35
929.3108	1974.9383	17916.55	17035.95
929.4489	1976.5366	17828.2	16945.35
929.5869	1978.1342	17820.25	16938.6
929.7249	1979.7311	17768.35	16883.85
929.8629	1981.3273	17707.3	16825.95
930.0009	1982.9227	17666.05	16781.65
930.1388	1984.5173	17612.9	16732.75
930.2767	1986.1112	17547	16664.65
930.4146	1987.7044	17472.7	16592.5
930.5525	1989.2968	17488.15	16605.75
930.6904	1990.8885	17382.45	16498.2
930.8282	1992.4795	17387.7	16504.7
930.966	1994.0697	17348.3	16468.9
931.1038	1995.6592	17271.95	16388.15
931.2415	1997.2479	17214.1	16331.7
931.3793	1998.8359	17160.6	16276.9
931.517	2000.4232	17074.35	16192.75
931.6547	2002.0097	17059.2	16182.1
931.7923	2003.5955	16977.15	16095.85
931.93	2005.1805	16973	16092.7
932.0676	2006.7648	16907.65	16028.7
932.2052	2008.3484	16860.3	15979.75
932.3427	2009.9312	16901.65	16020.05
932.4803	2011.5133	16811.5	15931.15
932.6178	2013.0946	16746.7	15865.65
932.7553	2014.6752	16719.6	15842.15
932.8928	2016.2551	16662.25	15779.5
933.0302	2017.8342	16604.85	15724.4
933.1676	2019.4126	16549.9	15670.25
933.305	2020.9902	16500.4	15621.5
933.4424	2022.5672	16447.5	15567.8
933.5798	2024.1433	16436.45	15552.6
933.7171	2025.7188	16367.95	15491.05
933.8544	2027.2935	16309.3	15429.85
933.9917	2028.8674	16267.75	15389.15
934.129	2030.4406	16205.15	15327.05
934.2662	2032.0131	16128.3	15249.45
934.4034	2033.5849	16082.4	15190.7
934.5406	2035.1559	16038.05	15158.6
934.6778	2036.7261	16050.75	15171.95
934.8149	2038.2957	15972.05	15088.5
934.952	2039.8645	15940.05	15060.85
935.0891	2041.4325	15942.5	15057.3
935.2262	2042.9998	15875.95	14995.95
935.3632	2044.5664	15844.3	14961.6
935.5002	2046.1323	15772.65	14892.85
935.6372	2047.6974	15720.2	14839.6
935.7742	2049.2617	15699.1	14819.95
935.9111	2050.8254	15720.9	14836.2
936.048	2052.3883	15682	14801.05
936.1849	2053.9504	15604.55	14722.5
936.3218	2055.5118	15540.75	14658.2
936.4586	2057.0725	15469.75	14584.6
936.5955	2058.6325	15450.4	14570.8
936.7323	2060.1917	15424.75	14546.45
936.869	2061.7502	15373.2	14489.5
937.0058	2063.3079	15312.75	14432.5
937.1425	2064.8649	15299.95	14417.95
937.2792	2066.4212	15276.15	14395.75
937.4159	2067.9767	15194.55	14314.5
937.5525	2069.5315	15163.95	14285.05
937.6891	2071.0856	15104.85	14226.15
937.8257	2072.6389	15042.15	14162.5
937.9623	2074.1915	14939.45	14060
938.0989	2075.7433	14894.7	14012.75
938.2354	2077.2945	14872.9	13994.05
938.3719	2078.8448	14827.65	13948
938.5084	2080.3945	14799.05	13917.5
938.6448	2081.9434	14769.7	13888.95
938.7812	2083.4916	14723.7	13839.85
938.9176	2085.039	14658	13775.8
939.054	2086.5857	14648.15	13765.3
939.1903	2088.1317	14608.25	13725.15
939.3267	2089.677	14555.55	13671.1
939.463	2091.2215	14516.4	13635.4
939.5992	2092.7652	14457.3	13571
939.7355	2094.3083	14466.75	13582.5
939.8717	2095.8506	14461.85	13580.05
940.0079	2097.3921	14418.1	13536.8
940.1441	2098.933	14377.6	13495.1
940.2802	2100.4731	14341.7	13459.55
940.4163	2102.0124	14319.85	13422.9
940.5524	2103.5511	14287.75	13406.7
940.6885	2105.089	14250.85	13367.7
940.8245	2106.6261	14228.1	13346.05
940.9606	2108.1626	14185.85	13304.75
941.0965	2109.6983	14168.7	13259.75
941.2325	2111.2332	14099.05	13217.9
941.3684	2112.7675	14078.65	13195.25
941.5044	2114.301	14043.35	13160.7
941.6403	2115.8337	14014.85	13132.25
941.7761	2117.3657	13950.7	13068.5
941.912	2118.897	13930.4	13049.3
942.0478	2120.4276	13876.6	12987
942.1835	2121.9575	13850.05	12968.2
942.3193	2123.4866	13825.2	12926.35
942.455	2125.0149	13819.55	12933.45
942.5907	2126.5426	13710.5	12828.65
942.7264	2128.0695	13667.2	12781.65
942.8621	2129.5956	13676.25	12797.6
942.9977	2131.1211	13618.1	12731.7
943.1333	2132.6458	13604.2	12723.75
943.2689	2134.1698	13569.05	12686.1
943.4044	2135.693	13562.05	12676.1
943.54	2137.2155	13497	12612.8
943.6755	2138.7373	13486.25	12605.65
943.8109	2140.2584	13429.05	12546.25
943.9464	2141.7787	13375.95	12490.2
944.0818	2143.2983	13333	12452.9
944.2172	2144.8171	13278.65	12398.95
944.3526	2146.3353	13227.05	12346.5
944.4879	2147.8527	13162.6	12281.7
944.6232	2149.3693	13199.7	12319.25
944.7585	2150.8853	13153	12270.35
944.8938	2152.4005	13073.15	12190.7
945.029	2153.9149	13062.5	12178.65
945.1642	2155.4287	13001.95	12117.3
945.2994	2156.9417	12996.35	12112.45
945.4346	2158.454	12958.3	12075.25
945.5697	2159.9655	12930.6	12050.4
945.7048	2161.4764	12913.35	12033.5
945.8399	2162.9865	12877.85	11998.3
945.9749	2164.4958	12812.55	11931.65
946.1099	2166.0045	12772	11886.2
946.2449	2167.5124	12757.7	11876.6
946.3799	2169.0195	12731.35	11849.95
946.5148	2170.526	12718.15	11834.8
946.6498	2172.0317	12686.65	11805.75
946.7846	2173.5367	12645.05	11761.85
946.9195	2175.0409	12590	11707.3
947.0543	2176.5445	12590.95	11707.65
947.1891	2178.0473	12515.15	11632.95
947.3239	2179.5494	12480.4	11593.75
947.4587	2181.0507	12427.65	11546.1
947.5934	2182.5513	12401.65	11520.5
947.7281	2184.0512	12386	11503
947.8628	2185.5504	12328.9	11446.8
947.9974	2187.0488	12274.7	11392
948.132	2188.5465	12255.95	11374.75
948.2666	2190.0435	12208.4	11326.6
948.4012	2191.5397	12171.45	11291.55
948.5357	2193.0353	12142.2	11260.4
948.6702	2194.5301	12090.6	11205.7
948.8047	2196.0241	12038	11154.25
948.9392	2197.5175	12018.3	11135
949.0736	2199.0101	12006.85	11121.1
949.208	2200.502	11899.05	11016.85
949.3424	2201.9931	11865.15	10984.7
949.4767	2203.4835	11834.85	10949.9
949.611	2204.9733	11804.85	10918.6
949.7453	2206.4622	11780.45	10900.3
949.8796	2207.9505	11730.85	10848.5
950.0138	2209.438	11692.3	10811.5
950.148	2210.9248	11646.65	10764.3
950.2822	2212.4109	11608.25	10726.55
950.4164	2213.8962	11572.75	10690.5
950.5505	2215.3809	11559.55	10675.6
950.6846	2216.8648	11556.5	10670.85
950.8186	2218.3479	11513.2	10625.7
950.9527	2219.8304	11457.55	10571.15
951.0867	2221.3121	11410.3	10523.5
951.2207	2222.7931	11385.35	10503.2
951.3546	2224.2733	11343.3	10457.75
951.4886	2225.7529	11289.35	10408.2
951.6225	2227.2317	11252.15	10366.25
951.7563	2228.7098	11252.45	10372.9
951.8902	2230.1872	11181.85	10301.4
952.024	2231.6638	11200.9	10320.25
952.1578	2233.1397	11142.45	10256.5
952.2916	2234.6149	11117.35	10236.5
952.4253	2236.0894	11063.95	10182.65
952.559	2237.5632	11064.25	10170.75
952.6927	2239.0362	10991.55	10109.05
952.8263	2240.5085	10970.25	10087.65
952.9599	2241.9801	10936.5	10054.4
953.0935	2243.4509	10902.55	10018.7
953.2271	2244.921	10859.7	9978.1
953.3606	2246.3904	10850.7	9963.2
953.4941	2247.8591	10772.45	9891.4
953.6276	2249.3271	10753	9872.5
953.7611	2250.7943	10701.75	9819.35
953.8945	2252.2608	10684.3	9801
954.0279	2253.7266	10670.3	9786.9
954.1612	2255.1917	10636.1	9753.6
954.2946	2256.656	10596.95	9715.25
954.4279	2258.1197	10590.75	9709.7
954.5612	2259.5826	10536.8	9652.55
954.6944	2261.0447	10544.8	9661.7
954.8276	2262.5062	10464.25	9579.6
954.9608	2263.9669	10471.55	9588.35
955.094	2265.4269	10446.15	9563.1
955.2271	2266.8862	10412.1	9531.3
955.3602	2268.3448	10379.95	9497.5
955.4933	2269.8026	10345.9	9464.4
955.6264	2271.2598	10312.5	9431.05
955.7594	2272.7162	10281.55	9401.35
955.8924	2274.1719	10273.35	9389.35
956.0253	2275.6268	10250.15	9366.6
956.1583	2277.0811	10177.5	9294.4
956.2912	2278.5346	10185.45	9303.8
956.4241	2279.9874	10121.35	9239.95
956.5569	2281.4395	10143.5	9263.85
956.6897	2282.8908	10099.3	9212.1
956.8225	2284.3414	10083.15	9200.4
956.9553	2285.7914	10051.1	9169.7
957.088	2287.2406	10026.9	9142.6
957.2207	2288.689	10006.8	9124.25
957.3534	2290.1368	9978.1	9091.55
957.486	2291.5838	9962.55	9076.25
957.6186	2293.0302	9924.25	9038.2
957.7512	2294.4758	9879.1	8995.4
957.8838	2295.9206	9842.5	8956.9
958.0163	2297.3648	9817.05	8934.7
958.1488	2298.8082	9832.45	8948.4
958.2813	2300.251	9772.85	8889.4
958.4137	2301.693	9743.6	8856.75
958.5461	2303.1343	9737.2	8853.45
958.6785	2304.5748	9689.4	8808.05
958.8108	2306.0147	9669.8	8786.2
958.9432	2307.4538	9616.45	8732.25
959.0754	2308.8922	9594.15	8711.85
959.2077	2310.3299	9579.65	8698.8
959.3399	2311.7669	9541.7	8659.5
959.4721	2313.2031	9499	8614.9
959.6043	2314.6387	9493.3	8610
959.7365	2316.0735	9435.05	8550.65
959.8686	2317.5076	9430.4	8545.65
960.0006	2318.941	9437.05	8554.4
960.1327	2320.3737	9409.3	8523.2
960.2647	2321.8056	9372.25	8485.25
960.3967	2323.2369	9357.85	8473.6
960.5287	2324.6674	9286.6	8401.2
960.6606	2326.0972	9277	8392.6
960.7925	2327.5263	9236.4	8353.9
960.9244	2328.9547	9216.65	8332.9
961.0562	2330.3823	9175.25	8290
961.1881	2331.8092	9175.55	8287.75
961.3198	2333.2355	9115.5	8231.2
961.4516	2334.661	9116.8	8231.75
961.5833	2336.0858	9118.55	8233.35
961.715	2337.5098	9097.5	8214.3
961.8467	2338.9332	9047.35	8163.9
961.9783	2340.3558	9030.35	8143.3
962.1099	2341.7778	9000.8	8117.15
962.2415	2343.199	8959.45	8075.5
962.373	2344.6195	8948	8063.65
962.5045	2346.0393	8902.2	8021
962.636	2347.4583	8915.8	8031.55
962.7675	2348.8767	8854.85	7972.15
962.8989	2350.2943	8840.7	7956.65
963.0303	2351.7113	8821.5	7935.85
963.1617	2353.1275	8816.9	7931.2
963.293	2354.543	8781.7	7886.85
963.4243	2355.9578	8745.1	7861.3
963.5556	2357.3718	8690.7	7808.45
963.6868	2358.7852	8649.85	7764.15
963.818	2360.1978	8644.8	7761.35
963.9492	2361.6098	8616.95	7732.2
964.0803	2363.021	8629	7742.85
964.2114	2364.4315	8581.65	7697.8
964.3425	2365.8413	8551.5	7666.6
964.4736	2367.2504	8532.05	7651.4
964.6046	2368.6587	8469.7	7586.45
964.7356	2370.0664	8446.9	7565.1
964.8666	2371.4733	8416.8	7534.9
964.9975	2372.8795	8407.95	7526.2
965.1284	2374.285	8354.05	7471.2
965.2593	2375.6899	8326.6	7444.55
965.3901	2377.0939	8310.65	7428.7
965.5209	2378.4973	8267	7384.95
965.6517	2379.9	8234.4	7351
965.7825	2381.3019	8230.7	7347.75
965.9132	2382.7032	8191	7309.6
966.0439	2384.1037	8160.9	7282.8
966.1745	2385.5035	8152.05	7270.85
966.3051	2386.9027	8128	7246.55
966.4357	2388.3011	8109.35	7225.55
966.5663	2389.6987	8072.9	7193.05
966.6968	2391.0957	8051.6	7170.55
966.8273	2392.492	8012.4	7131.1
966.9578	2393.8876	7955.55	7072.75
967.0882	2395.2824	7946.35	7065.1
967.2186	2396.6765	7936.6	7056.1
967.349	2398.07	7882.3	6999.25
967.4793	2399.4627	7897.2	7013.35
967.6097	2400.8547	7864.05	6981.35
967.7399	2402.246	7822.55	6933.7
967.8702	2403.6366	7782.2	6900.65
968.0004	2405.0265	7748.2	6864.2
968.1306	2406.4156	7754.1	6868.1
968.2607	2407.8041	7715.55	6830.15
968.3909	2409.1918	7696	6809.35
968.521	2410.5789	7657.75	6775.45
968.651	2411.9652	7616.75	6732.5
968.781	2413.3508	7610.5	6727.55
968.911	2414.7358	7577.75	6692.4
969.041	2416.12	7555.05	6672.15
969.1709	2417.5035	7522.7	6640.4
969.3008	2418.8863	7507.95	6622.95
969.4307	2420.2684	7473.8	6590.9
969.5606	2421.6497	7441.95	6560.4
969.6904	2423.0304	7395.8	6513.15
969.8201	2424.4104	7396.5	6513.1
969.9499	2425.7896	7382.1	6498.85
970.0796	2427.1682	7324.5	6443.6
970.2093	2428.546	7330.35	6447.2
970.3389	2429.9232	7318.9	6434.3
970.4685	2431.2996	7295.25	6411.85
970.5981	2432.6753	7300.5	6419.95
970.7277	2434.0503	7256.55	6373.1
970.8572	2435.4246	7228.95	6346.05
970.9867	2436.7982	7196.95	6310.6
971.1161	2438.1711	7186.9	6304.35
971.2456	2439.5433	7172.5	6288.9
971.375	2440.9148	7124.95	6235.05
971.5043	2442.2856	7112.6	6231.75
971.6336	2443.6557	7102.1	6215.2
971.7629	2445.025	7066.05	6183.7
971.8922	2446.3937	7074.75	6190.1
972.0214	2447.7617	7031.4	6150.95
972.1506	2449.1289	7019	6134.4
972.2798	2450.4955	7000.05	6113.3
972.4089	2451.8613	6975.4	6093.55
972.538	2453.2265	6950.05	6067.5
972.6671	2454.5909	6939.95	6057
972.7961	2455.9546	6933.9	6051.15
972.9251	2457.3177	6897.65	6014.4
973.0541	2458.68	6868.75	5984.15
973.1831	2460.0416	6854.3	5971.1
973.312	2461.4025	6858.85	5975.5
973.4408	2462.7627	6844.9	5954.15
973.5697	2464.1222	6822.3	5940.25
973.6985	2465.4811	6822.15	5938.75
973.8273	2466.8392	6766.65	5884.55
973.956	2468.1966	6765.95	5881.95
974.0847	2469.5533	6763	5877.75
974.2134	2470.9093	6756.8	5873.2
974.3421	2472.2645	6710.1	5823.6
974.4707	2473.6191	6705.8	5824.15
974.5993	2474.973	6673.4	5791
974.7278	2476.3262	6643.3	5758.25
974.8563	2477.6787	6622.1	5739.75
974.9848	2479.0305	6588.95	5706.6
975.1132	2480.3816	6587.95	5703.8
975.2417	2481.7319	6551.2	5670.05
975.37	2483.0816	6514.9	5631.5
975.4984	2484.4306	6509.05	5626.2
975.6267	2485.7789	6497.95	5616.15
975.755	2487.1264	6450.85	5568.8
975.8833	2488.4733	6438.05	5554.5
976.0115	2489.8195	6422.15	5533.2
976.1397	2491.165	6393.15	5507.5
976.2678	2492.5097	6380.1	5497.9
976.3959	2493.8538	6350	5469.1
976.524	2495.1972	6314.7	5431.4
976.6521	2496.5398	6297.9	5414.7
976.7801	2497.8818	6299.05	5413.45
976.9081	2499.2231	6260.25	5376.8
977.036	2500.5637	6245.25	5359.95
977.164	2501.9035	6223.1	5337.2
977.2918	2503.2427	6221.85	5334.3
977.4197	2504.5812	6197.55	5317.55
977.5475	2505.919	6198.1	5312.75
977.6753	2507.256	6195.55	5314.15
977.8031	2508.5924	6134.45	5252.55
977.9308	2509.9281	6112.3	5224.75
978.0585	2511.2631	6093.95	5212.55
978.1861	2512.5974	6071.95	5188.7
978.3137	2513.9309	6073.95	5191.4
978.4413	2515.2638	6072.1	5159.2
978.5689	2516.596	6041.35	5157.85
978.6964	2517.9275	5995.65	5111.45
978.8239	2519.2583	5987.7	5102.5
978.9513	2520.5884	5962.4	5079.15
979.0788	2521.9178	5943.4	5060.1
979.2062	2523.2465	5930.45	5047.35
979.3335	2524.5745	5906.95	5024.8
979.4608	2525.9018	5888.9	5005.7
979.5881	2527.2284	5877.85	4996.05
979.7154	2528.5543	5869.05	4988.35
979.8426	2529.8796	5849.8	4967
979.9698	2531.2041	5823.9	4940.9
980.0969	2532.5279	5829.95	4949
980.224	2533.851	5799	4917.2
980.3511	2535.1735	5784.4	4904.25
980.4781	2536.4952	5750.7	4866.4
980.6052	2537.8163	5760.25	4875.8
980.7321	2539.1366	5726.85	4845.2
980.8591	2540.4562	5715.15	4829.35
980.986	2541.7752	5721.7	4839.3
981.1129	2543.0935	5721.05	4837.25
981.2397	2544.411	5706.6	4822.35
981.3665	2545.7279	5685.5	4802.1
981.4933	2547.0441	5674.55	4792.75
981.62	2548.3596	5662.7	4777.45
981.7467	2549.6744	5672.2	4789.55
981.8734	2550.9885	5660.55	4769.35
982.0001	2552.3019	5634.5	4751.4
982.1267	2553.6146	5630.3	4745.9
982.2532	2554.9266	5592.5	4709.1
982.3798	2556.2379	5591.1	4705.7
982.5063	2557.5485	5544.5	4663.15
982.6327	2558.8585	5578.6	4689.15
982.7592	2560.1677	5565.4	4677.25
982.8856	2561.4762	5526.85	4643.75
983.0119	2562.7841	5506.9	4620.6
983.1383	2564.0913	5506.25	4624.65
983.2646	2565.3977	5494.7	4612.05
983.3908	2566.7035	5481.2	4598.5
983.517	2568.0086	5489.7	4604.7
983.6432	2569.313	5480.5	4595.2
983.7694	2570.6167	5447.4	4561.75
983.8955	2571.9197	5441.35	4557.1
984.0216	2573.222	5446.15	4561.35
984.1476	2574.5236	5411.75	4528.55
984.2737	2575.8246	5388.75	4501.3
984.3996	2577.1248	5404.3	4519.1
984.5256	2578.4244	5394.75	4510.65
984.6515	2579.7232	5377.4	4496.45
984.7774	2581.0214	5403.05	4496.1
984.9032	2582.3189	5376.2	4494.25
985.029	2583.6157	5336.7	4452.45
985.1548	2584.9118	5338.95	4455.85
985.2806	2586.2072	5321.45	4439.7
985.4063	2587.5019	5291.1	4407.4
985.5319	2588.7959	5290.7	4406.55
985.6576	2590.0893	5286.95	4403.95
985.7832	2591.3819	5268	4387.15
985.9087	2592.6739	5240.8	4355.5
986.0343	2593.9652	5233.45	4350.3
986.1597	2595.2557	5225.2	4343.45
986.2852	2596.5456	5195.55	4310.45
986.4106	2597.8348	5186.2	4303.75
986.536	2599.1234	5160.8	4278.25
986.6614	2600.4112	5145.95	4262.65
986.7867	2601.6983	5141.2	4253.9
986.912	2602.9848	5128.3	4245.55
987.0372	2604.2705	5103.15	4213.6
987.1624	2605.5556	5080.35	4196.35
987.2876	2606.84	5086.15	4204.05
987.4128	2608.1237	5061.2	4176.2
987.5379	2609.4067	5043.95	4162.7
987.6629	2610.689	5028.75	4135.15
987.788	2611.9707	4993.25	4105.8
987.913	2613.2516	4987.1	4097.85
988.0379	2614.5319	4958.15	4075
988.1629	2615.8115	4937.7	4055.1
988.2878	2617.0903	4930.75	4046.25
988.4126	2618.3685	4917.95	4035.9
988.5375	2619.6461	4890.8	4011.05
988.6622	2620.9229	4873.5	3990.9
988.787	2622.199	4884.75	4002.75
988.9117	2623.4745	4884.65	4001.65
989.0364	2624.7493	4853.55	3971.9
989.161	2626.0234	4837.65	3956.55
989.2857	2627.2968	4826.85	3946.7
989.4102	2628.5695	4787.25	3904.7
989.5348	2629.8415	4764	3880.5
989.6593	2631.1128	4758.2	3872.1
989.7837	2632.3835	4735.55	3853.7
989.9082	2633.6535	4729.65	3849.4
990.0326	2634.9228	4696.35	3815.25
990.1569	2636.1914	4703.35	3820.3
990.2812	2637.4593	4694.7	3805.95
990.4055	2638.7265	4672.5	3788.95
990.5298	2639.9931	4644.35	3763.5
990.654	2641.259	4638.7	3754.85
990.7782	2642.5242	4624.85	3742.5
990.9023	2643.7887	4607.4	3725.85
991.0264	2645.0525	4612.75	3730.8
991.1505	2646.3156	4584.75	3701.6
991.2745	2647.5781	4597.1	3714
991.3985	2648.8398	4569.7	3688.3
991.5225	2650.1009	4580.65	3661.7
991.6464	2651.3613	4551.8	3668.85
991.7703	2652.6211	4518.6	3634.45
991.8942	2653.8801	4510.45	3630.7
992.018	2655.1385	4501.95	3617.4
992.1418	2656.3961	4496.45	3612.8
992.2655	2657.6531	4500.65	3619.05
992.3892	2658.9094	4473.55	3593.15
992.5129	2660.1651	4471.05	3587.8
992.6366	2661.42	4454.4	3571.8
992.7602	2662.6743	4445.3	3559.55
992.8837	2663.9279	4445.95	3563.25
993.0073	2665.1808	4431.65	3549.75
993.1307	2666.433	4416.2	3533.55
993.2542	2667.6846	4401.9	3519.8
993.3776	2668.9354	4387.5	3502.1
993.501	2670.1856	4384.1	3501.9
993.6244	2671.4351	4374.05	3492
993.7477	2672.6839	4362.6	3479.1
993.8709	2673.9321	4360	3478.2
993.9942	2675.1795	4333.5	3451.6
994.1174	2676.4263	4333.9	3451.85
994.2405	2677.6724	4311.95	3429.85
994.3637	2678.9179	4315.9	3434.6
994.4868	2680.1626	4303	3420.6
994.6098	2681.4067	4287.1	3405.15
994.7328	2682.6501	4282.1	3399.75
994.8558	2683.8928	4254.15	3371.8
994.9788	2685.1348	4227.15	3345.9
995.1017	2686.3761	4225.2	3343.95
995.2245	2687.6168	4192.45	3309.55
995.3474	2688.8568	4209.7	3326.7
995.4702	2690.0961	4196.15	3316.05
995.5929	2691.3348	4181	3299.6
995.7156	2692.5727	4171.7	3290
995.8383	2693.81	4158.6	3277.8
995.961	2695.0466	4134.25	3252.15
996.0836	2696.2826	4143.1	3260.1
996.2062	2697.5178	4149.6	3246.85
996.3287	2698.7524	4107.65	3225.3
996.4512	2699.9863	4116.25	3233.15
996.5737	2701.2195	4073.75	3191.4
996.6961	2702.452	4079.45	3196.95
996.8185	2703.6839	4063.5	3182.8
996.9408	2704.9151	4062.35	3180.7
997.0631	2706.1456	4051.9	3169.2
997.1854	2707.3755	4029.15	3146
997.3077	2708.6046	4032.3	3147.9
997.4299	2709.8331	4023.85	3142.6
997.552	2711.0609	4014.85	3131.85
997.6742	2712.2881	3996.9	3114.25
997.7963	2713.5145	3983.3	3097.25
997.9183	2714.7403	3968.85	3089.35
998.0403	2715.9654	3964.8	3081.25
998.1623	2717.1899	3953.45	3070.45
998.2842	2718.4136	3944.95	3063
998.4062	2719.6367	3946.45	3064.8
998.528	2720.8591	3947.4	3059.35
998.6498	2722.0809	3938.05	3055.05
998.7716	2723.3019	3919.3	3034.15
998.8934	2724.5223	3904.6	3021.05
999.0151	2725.7421	3891.3	3010.1
999.1368	2726.9611	3894.9	3011.5
999.2584	2728.1795	3892.35	3004.5
999.38	2729.3972	3856.85	2975.85
999.5016	2730.6142	3854.85	2959.25
999.6231	2731.8306	3821.65	2937.35
999.7446	2733.0462	3797.7	2915.75
999.8661	2734.2612	3802.5	2914.6
999.9875	2735.4756	3766.85	2883.7
1000.1089	2736.6892	3768.65	2888.8
1000.2302	2737.9022	3742.5	2863.15
1000.3515	2739.1145	3737.45	2855.8
1000.4728	2740.3262	3720.8	2831.15
1000.594	2741.5372	3696.05	2814.7
1000.7152	2742.7475	3685.15	2802.1
1000.8363	2743.9571	3679.3	2795.25
1000.9575	2745.1661	3674.6	2789.9
1001.0785	2746.3744	3663	2779.95
1001.1996	2747.582	3631.65	2748.95
1001.3206	2748.7889	3616.1	2734.4
1001.4415	2749.9952	3599.9	2718.4
1001.5625	2751.2008	3588.6	2705.05
1001.6833	2752.4057	3594.15	2711.45
1001.8042	2753.61	3577.55	2693.3
1001.925	2754.8136	3565.55	2684.4
1002.0458	2756.0165	3559.3	2678.35
1002.1665	2757.2188	3551.65	2671.35
1002.2872	2758.4204	3538.1	2657.15
1002.4078	2759.6213	3537.5	2654.2
1002.5285	2760.8215	3509.3	2625.6
1002.649	2762.0211	3515.2	2631.7
1002.7696	2763.22	3498.85	2616.25
1002.8901	2764.4182	3487.25	2606.05
1003.0106	2765.6158	3481.7	2599.35
1003.131	2766.8127	3467.85	2585.9
1003.2514	2768.009	3473.4	2593.5
1003.3717	2769.2045	3460.7	2578
1003.492	2770.3994	3442.95	2560.15
1003.6123	2771.5936	3441.3	2559.15
1003.7325	2772.7872	3407.95	2526.85
1003.8527	2773.9801	3414.35	2530.6
1003.9729	2775.1723	3414.6	2517
1004.093	2776.3639	3384.35	2503.7
1004.2131	2777.5548	3379.55	2495.4
1004.3331	2778.745	3379.35	2496.2
1004.4531	2779.9346	3367.1	2487.85
1004.5731	2781.1235	3349.7	2467
1004.693	2782.3117	3331.8	2450.5
1004.8129	2783.4992	3326.25	2443.75
1004.9328	2784.6861	3312.85	2434.7
1005.0526	2785.8723	3319.65	2435.45
1005.1723	2787.0579	3302.3	2421.15
1005.2921	2788.2428	3298.05	2418.4
1005.4118	2789.427	3291.85	2412.15
1005.5314	2790.6106	3286.65	2405.75
1005.651	2791.7935	3280.35	2399.35
1005.7706	2792.9757	3264.55	2383.25
1005.8902	2794.1573	3265.5	2383.1
1006.0097	2795.3382	3254.35	2373.35
1006.1291	2796.5184	3233.8	2355.75
1006.2485	2797.698	3239.6	2355.85
1006.3679	2798.8769	3244.7	2363.1
1006.4873	2800.0551	3229.9	2349.05
1006.6066	2801.2327	3231.3	2348.7
1006.7258	2802.4096	3225.25	2345.3
1006.8451	2803.5859	3201.8	2319.5
1006.9642	2804.7615	3213.8	2332.05
1007.0834	2805.9364	3206.65	2328.8
1007.2025	2807.1106	3201.45	2320.2
1007.3216	2808.2842	3216.7	2335.9
1007.4406	2809.4572	3206	2324.1
1007.5596	2810.6294	3233.35	2348
1007.6785	2811.801	3232.35	2353.6
1007.7975	2812.972	3213.9	2334.45
1007.9163	2814.1423	3236.2	2356.25
1008.0352	2815.3119	3236.25	2353.35
1008.154	2816.4808	3248	2365
1008.2727	2817.6491	3269.6	2388.8
1008.3914	2818.8167	3280.15	2399.65
1008.5101	2819.9837	3300.1	2413.8
1008.6288	2821.15	3298.5	2417.1
1008.7474	2822.3157	3310.3	2430.5
1008.8659	2823.4807	3326.3	2447.1
1008.9844	2824.645	3350.35	2466.3
1009.1029	2825.8086	3373.35	2493.75
1009.2214	2826.9716	3375.45	2495.3
1009.3398	2828.134	3397.85	2516.25
1009.4581	2829.2957	3407.5	2526.75
1009.5764	2830.4567	3402.25	2522.9
1009.6947	2831.617	3406.2	2525.9
1009.813	2832.7767	3405.3	2525.75
1009.9312	2833.9358	3398.35	2518.15
1010.0493	2835.0941	3398.7	2515.6
1010.1675	2836.2519	3381.6	2499
1010.2855	2837.4089	3372.25	2490.35
1010.4036	2838.5653	3355.4	2475.6
1010.5216	2839.7211	3357.2	2476.3
1010.6396	2840.8761	3336.55	2452.75
1010.7575	2842.0306	3332.3	2453.85
1010.8754	2843.1843	3345.75	2466.25
1010.9932	2844.3374	3341.55	2461.9
1011.111	2845.4899	3369.4	2486.5
1011.2288	2846.6417	3382	2503.4
1011.3465	2847.7928	3398.15	2514.6
1011.4642	2848.9433	3415.55	2535.1
1011.5818	2850.0931	3414.15	2534.7
1011.6995	2851.2422	3445.15	2562.2
1011.817	2852.3907	3456.6	2576.5
1011.9345	2853.5385	3475.5	2592.6
1012.052	2854.6857	3496.2	2604.3
1012.1695	2855.8323	3506.95	2628.25
1012.2869	2856.9781	3513.3	2634.1
1012.4042	2858.1233	3536.95	2657
1012.5216	2859.2679	3538.15	2657.65
1012.6389	2860.4118	3551.35	2670.15
1012.7561	2861.555	3564.15	2680.1
1012.8733	2862.6976	3554.4	2672.5
1012.9905	2863.8395	3572.2	2691.75
1013.1076	2864.9808	3594.75	2714.55
1013.2247	2866.1214	3588.85	2709.4
1013.3417	2867.2614	3588.8	2707.65
1013.4587	2868.4007	3570.6	2689.3
1013.5757	2869.5393	3572.8	2691.35
1013.6926	2870.6773	3578.4	2694.8
1013.8095	2871.8146	3583.4	2698.85
1013.9263	2872.9513	3545.6	2663.25
1014.0431	2874.0874	3547.25	2667.35
1014.1599	2875.2227	3557.2	2675.3
1014.2766	2876.3574	3532.75	2652.5
1014.3933	2877.4915	3493.9	2612.3
1014.51	2878.6249	3492.6	2614.5
1014.6266	2879.7577	3468.65	2585.8
1014.7431	2880.8898	3465.5	2576.75
1014.8596	2882.0212	3446.1	2567.8
1014.9761	2883.152	3420.45	2539.1
1015.0925	2884.2821	3420.05	2541.7
1015.2089	2885.4116	3399.15	2519
1015.3253	2886.5405	3397.1	2514.4
1015.4416	2887.6686	3391.25	2509.5
1015.5579	2888.7962	3381.85	2501.5
1015.6741	2889.923	3376.9	2499.65
1015.7903	2891.0493	3377.1	2497.15
1015.9065	2892.1748	3370.35	2490.4
1016.0226	2893.2997	3366.25	2486.95
1016.1387	2894.424	3376.7	2495
1016.2547	2895.5476	3366.15	2486.85
1016.3707	2896.6706	3363.95	2485.8
1016.4866	2897.7929	3364.95	2484.2
1016.6025	2898.9145	3359.6	2480.05
1016.7184	2900.0355	3364.9	2481.2
1016.8342	2901.1559	3381.6	2501.4
1016.95	2902.2756	3376.9	2496.55
1017.0658	2903.3946	3391.8	2510.05
1017.1815	2904.513	3394.7	2511.3
1017.2971	2905.6308	3392.35	2513.5
1017.4127	2906.7479	3399.15	2517.55
1017.5283	2907.8643	3393.95	2513.95
1017.6439	2908.9801	3375.05	2495.65
1017.7594	2910.0953	3375.2	2495.4
1017.8748	2911.2098	3385.9	2500.45
1017.9902	2912.3236	3379.6	2493.7
1018.1056	2913.4368	3353.35	2470.3
1018.2209	2914.5494	3337.55	2458.5
1018.3362	2915.6613	3335.3	2450.4
1018.4515	2916.7725	3315.5	2431.4
1018.5667	2917.8831	3295.4	2415.2
1018.6819	2918.9931	3271.05	2387.85
1018.797	2920.1024	3264.75	2383.95
1018.9121	2921.211	3253.35	2374.5
1019.0271	2922.319	3240.45	2359.5
1019.1421	2923.4264	3218.6	2338.5
1019.2571	2924.5331	3216.75	2340.15
1019.372	2925.6391	3202.3	2321.75
1019.4869	2926.7445	3201.5	2324.65
1019.6017	2927.8493	3191.15	2309.6
1019.7165	2928.9534	3190.9	2312.1
1019.8313	2930.0569	3191.6	2308.85
1019.946	2931.1597	3196.5	2314.2
1020.0606	2932.2619	3181.55	2304.1
1020.1753	2933.3634	3176.9	2297.75
1020.2899	2934.4643	3185.5	2299.85
1020.4044	2935.5645	3173.6	2287.95
1020.5189	2936.6641	3158.25	2274.2
1020.6334	2937.763	3127.55	2248.85
1020.7478	2938.8613	3113.95	2233.55
1020.8622	2939.959	3090.6	2204.95
1020.9765	2941.056	3061.15	2182.9
1021.0908	2942.1523	3038	2156.2
1021.2051	2943.248	2988.8	2110.95
1021.3193	2944.3431	2953.2	2072.4
1021.4334	2945.4375	2909.45	2029.55
1021.5476	2946.5313	2866.9	1989.9
1021.6617	2947.6244	2822.8	1941.85
1021.7757	2948.7169	2786.2	1908.45
1021.8897	2949.8087	2741.25	1859.6
1022.0037	2950.8999	2704.45	1825.25
1022.1176	2951.9904	2664.55	1784.7
1022.2315	2953.0803	2629.3	1746.55
1022.3453	2954.1696	2603.1	1723.6
1022.4591	2955.2582	2584.6	1706.1
1022.5728	2956.3462	2551.1	1669.6
1022.6865	2957.4335	2529.2	1650.7
1022.8002	2958.5202	2518.2	1637.15
1022.9138	2959.6062	2499.6	1622.2
1023.0274	2960.6916	2485.55	1606.6
1023.141	2961.7764	2477.85	1597.9
1023.2545	2962.8605	2454.9	1577
1023.3679	2963.9439	2448.55	1567.85
1023.4813	2965.0267	2445.15	1565.3
1023.5947	2966.1089	2452.85	1549.65
1023.708	2967.1905	2430.8	1551.5
1023.8213	2968.2714	2428.55	1549.95
1023.9346	2969.3516	2400.2	1521.15
1024.0478	2970.4312	2424.65	1534.65
1024.1609	2971.5102	2414.85	1536.9
1024.274	2972.5885	2400.95	1520.5
1024.3871	2973.6662	2401.05	1514.8
1024.5002	2974.7432	2397.05	1517.15
1024.6132	2975.8196	2381.6	1503.5
1024.7261	2976.8954	2376.55	1499
1024.839	2977.9705	2369.6	1489.8
1024.9519	2979.045	2365.9	1486.55
1025.0647	2980.1188	2351.5	1472.1
1025.1775	2981.192	2336.9	1459.4
1025.2902	2982.2645	2330.45	1450.1
1025.4029	2983.3364	2321.95	1441.7
1025.5156	2984.4077	2297.6	1420.4
1025.6282	2985.4783	2286.05	1400.75
1025.7407	2986.5483	2268.35	1391.4
1025.8532	2987.6177	2257.05	1378.25
1025.9657	2988.6864	2244.6	1363.05
1026.0782	2989.7545	2225.05	1345.45
1026.1906	2990.8219	2208.8	1329.85
1026.3029	2991.8887	2190.75	1309.35
1026.4152	2992.9548	2181.45	1299.65
1026.5275	2994.0204	2160.55	1281
1026.6397	2995.0852	2140.9	1263.1
1026.7519	2996.1495	2127.7	1247.15
1026.864	2997.2131	2112.35	1234.05
1026.9761	2998.276	2100.85	1222.5
1027.0882	2999.3383	2085.55	1202.9
1027.2002	3000.4	2075.75	1197.35
1027.3122	3001.4611	2058.4	1179.35
1027.4241	3002.5215	2051.85	1171.1
1027.536	3003.5812	2046.85	1169
1027.6478	3004.6404	2036.65	1154.25
1027.7596	3005.6989	2027.75	1146.5
1027.8714	3006.7567	2011.3	1131.6
1027.9831	3007.8139	2036.75	1125.9
1028.0947	3008.8705	1998.7	1119.95
1028.2064	3009.9264	1998.75	1114.45
1028.3179	3010.9818	1990.15	1111.9
1028.4295	3012.0364	1980.8	1100.2
1028.541	3013.0905	1978.1	1098.65
1028.6524	3014.1439	1967.15	1090.65
1028.7638	3015.1966	1966.85	1085.7
1028.8752	3016.2487	1968.1	1087.05
1028.9865	3017.3002	1962.7	1080.05
1029.0978	3018.3511	1945.8	1068.3
1029.209	3019.4013	1947.65	1069.15
1029.3202	3020.4509	1948.15	1068.5
1029.4314	3021.4998	1935.85	1056.15
1029.5425	3022.5481	1933.7	1053.45
1029.6535	3023.5958	1928.3	1047.8
1029.7645	3024.6428	1929.45	1050.8
1029.8755	3025.6892	1921.4	1042.45
1029.9864	3026.735	1909.55	1030.75
1030.0973	3027.7802	1917.9	1039.4
1030.2082	3028.8247	1905.4	1025.3
1030.319	3029.8685	1900.45	1021.5
1030.4297	3030.9118	1897.85	1018.25
1030.5404	3031.9544	1885.45	1004.7
1030.6511	3032.9963	1892.3	1013.25
1030.7617	3034.0376	1882.2	1003.7
1030.8723	3035.0783	1876.05	993.1
1030.9829	3036.1184	1893.1	1013.5
1031.0934	3037.1578	1875.35	997.65
1031.2038	3038.1966	1874.25	992.2
1031.3142	3039.2348	1875.85	997.85
1031.4246	3040.2723	1873.05	984.95
1031.5349	3041.3092	1862.7	986.55
1031.6452	3042.3455	1873.05	992.75
1031.7554	3043.3811	1859.4	982.95
1031.8656	3044.4161	1860.6	978.95
1031.9758	3045.4505	1858	980.25
1032.0859	3046.4842	1854	975.1
1032.1959	3047.5173	1833.7	956.75
1032.3059	3048.5498	1826.35	947.2
1032.4159	3049.5816	1832.95	953.95
1032.5258	3050.6128	1829.75	949.5
1032.6357	3051.6434	1829.45	948.2
1032.7455	3052.6734	1818.85	938
1032.8553	3053.7027	1812.8	934.05
1032.9651	3054.7314	1804.85	925.25
1033.0748	3055.7594	1809.05	929.85
1033.1845	3056.7868	1801.6	921.75
1033.2941	3057.8136	1792.4	913.35
1033.4037	3058.8398	1792.95	916.45
1033.5132	3059.8653	1788.35	909.6
1033.6227	3060.8902	1780.15	900.1
1033.7321	3061.9145	1778.1	898.7
1033.8415	3062.9381	1774.2	893.3
1033.9509	3063.9612	1777.5	882.35
1034.0602	3064.9835	1766.6	885.9
1034.1694	3066.0053	1762.7	878.8
1034.2787	3067.0264	1758.75	881.6
1034.3878	3068.0469	1755.1	873.5
1034.497	3069.0668	1749.75	867.25
1034.6061	3070.086	1736.3	860.5
1034.7151	3071.1046	1740.35	861.8
1034.8241	3072.1226	1736.8	857.35
1034.9331	3073.1399	1731.9	852.95
1035.042	3074.1567	1720.45	841.05
1035.1508	3075.1727	1718.75	837.5
1035.2597	3076.1882	1703.6	822.65
1035.3684	3077.203	1705.25	825.6
1035.4772	3078.2173	1702.15	821.35
1035.5859	3079.2308	1691	809.3
1035.6945	3080.2438	1692.45	812.65
1035.8031	3081.2561	1686.15	808.05
1035.9117	3082.2678	1669.25	791.45
1036.0202	3083.2789	1668.85	790.3
1036.1286	3084.2893	1662.35	784.05
1036.2371	3085.2991	1654.55	776.65
1036.3454	3086.3083	1669.2	786.55
1036.4538	3087.3169	1655.75	774.35
1036.562	3088.3248	1650.45	768.55
1036.6703	3089.3321	1650.35	769.4
1036.7785	3090.3388	1639.65	760.75
1036.8866	3091.3449	1634.45	753.8
1036.9948	3092.3503	1631.35	752.1
1037.1028	3093.3551	1622.1	742.85
1037.2108	3094.3593	1625.05	747.2
1037.3188	3095.3629	1620.55	742.25
1037.4267	3096.3658	1608.55	729.1
1037.5346	3097.3681	1606.8	727.9
1037.6425	3098.3698	1611.2	730.25
1037.7503	3099.3708	1600.9	716.05
1037.858	3100.3713	1595.7	718.45
1037.9657	3101.3711	1592.2	713.1
1038.0734	3102.3702	1721.05	709.55
1038.181	3103.3688	1590.65	708.65
1038.2886	3104.3667	1574.75	696.85
1038.3961	3105.364	1578.35	699.15
1038.5036	3106.3607	1572	691
1038.611	3107.3568	1572.75	692.7
1038.7184	3108.3522	1557.6	679.95
1038.8257	3109.347	1551.35	673.4
1038.933	3110.3412	1555.7	673.4
1039.0403	3111.3348	1543.55	664.15
1039.1475	3112.3277	1538.7	661.05
1039.2547	3113.32	1538	658.4
1039.3618	3114.3117	1532.7	651.95
1039.4689	3115.3028	1533.35	654.9
1039.5759	3116.2932	1532.75	650.85
1039.6829	3117.2831	1532	647.65
1039.7898	3118.2723	1517.05	637.6
1039.8967	3119.2608	1519.35	641.15
1040.0035	3120.2488	1515	636.05
1040.1103	3121.2361	1511.75	632.95
1040.2171	3122.2229	1495.3	615.6
1040.3238	3123.209	1503.25	623.4
1040.4305	3124.1944	1492.7	615.2
1040.5371	3125.1793	1499.05	620.55
1040.6437	3126.1635	1498.55	621.75
1040.7502	3127.1471	1491	614.65
1040.8567	3128.1301	1482.25	602.55
1040.9631	3129.1125	1480.3	603.25
1041.0695	3130.0942	1483	604.05
1041.1759	3131.0753	1493.85	605.75
1041.2822	3132.0558	1480.75	598.8
1041.3884	3133.0357	1480	600.1
1041.4946	3134.015	1477.7	597.7
1041.6008	3134.9936	1469.65	587.9
1041.7069	3135.9716	1484.4	584.8
1041.813	3136.949	1464.65	585.6
1041.919	3137.9258	1464.85	579.8
1042.025	3138.902	1462.7	578.75
1042.1309	3139.8775	1455.15	576.35
1042.2368	3140.8524	1450	570.05
1042.3427	3141.8267	1448	568.2
1042.4485	3142.8004	1451.65	571.05
1042.5542	3143.7735	1448.2	562.9
1042.6599	3144.7459	1433.95	554.3
1042.7656	3145.7178	1441.2	562.45
1042.8712	3146.689	1441	563.4
1042.9768	3147.6596	1435.05	554.2
1043.0823	3148.6295	1431.95	551.7
1043.1878	3149.5989	1427.9	550.85
1043.2932	3150.5676	1416	540
1043.3986	3151.5357	1422.55	546.1
1043.5039	3152.5032	1414.45	537.35
1043.6092	3153.4701	1409.1	532.1
1043.7145	3154.4364	1411.95	530.1
1043.8197	3155.402	1408.55	529.2
1043.9248	3156.367	1403.1	520.75
1044.03	3157.3315	1438.45	521.35
1044.135	3158.2952	1405.45	525
1044.24	3159.2584	1397.35	518.5
1044.345	3160.221	1395.35	517.1
1044.4499	3161.1829	1393.5	514.8
1044.5548	3162.1442	1387.4	510
1044.6596	3163.105	1384.9	506.25
1044.7644	3164.065	1385.45	507.6
1044.8692	3165.0245	1383.3	502.65
1044.9739	3165.9834	1378.1	501.65
1045.0785	3166.9416	1372.2	492.85
1045.1831	3167.8993	1370.8	489.95
1045.2877	3168.8563	1365.3	487.8
1045.3922	3169.8127	1370.1	491.35
1045.4966	3170.7684	1357.8	479.05
1045.6011	3171.7236	1359.15	480.35
1045.7054	3172.6782	1366	486.5
1045.8098	3173.6321	1354.15	475.65
1045.914	3174.5854	1359.5	476.4
1046.0183	3175.5381	1347.9	470.7
1046.1224	3176.4902	1354.9	476.85
1046.2266	3177.4417	1345.4	467.55
1046.3307	3178.3926	1339.7	462
1046.4347	3179.3428	1339.95	461.25
1046.5387	3180.2924	1340.15	462.35
1046.6427	3181.2415	1335	457.65
1046.7466	3182.1899	1333.5	453.55
1046.8504	3183.1377	1330.1	454.75
1046.9542	3184.0848	1330.05	448.7
1047.058	3185.0314	1323.75	446.4
1047.1617	3185.9773	1321.6	442.6
1047.2654	3186.9227	1322.3	442.7
1047.369	3187.8674	1319.6	442.6
1047.4726	3188.8115	1318.2	434.9
1047.5761	3189.755	1315	436.8
1047.6796	3190.6979	1312.35	435.7
1047.783	3191.6402	1304.5	427.9
1047.8864	3192.5818	1305	427.1
1047.9898	3193.5229	1322.4	427.4
1048.0931	3194.4633	1307.65	430.15
1048.1963	3195.4031	1300.9	422.05
1048.2995	3196.3423	1297.7	417.6
1048.4027	3197.2809	1298.55	419.6
1048.5058	3198.2189	1295.5	417.8
1048.6089	3199.1563	1305.85	411.05
1048.7119	3200.0931	1286.55	410.7
1048.8148	3201.0292	1284.65	407.65
1048.9178	3201.9648	1282.45	403.85
1049.0206	3202.8997	1285.8	403.3
1049.1235	3203.834	1281.25	401.45
1049.2262	3204.7677	1281.15	403.5
1049.329	3205.7008	1280.4	398.1
1049.4317	3206.6333	1271.15	393.1
1049.5343	3207.5652	1279.1	397.5
1049.6369	3208.4964	1270.75	393.1
1049.7394	3209.4271	1269.3	391.9
1049.8419	3210.3571	1261.7	383.45
1049.9444	3211.2865	1262.6	383.9
1050.0468	3212.2154	1263.1	386.4
1050.1491	3213.1436	1264.55	383.65
1050.2514	3214.0712	1268.25	384.95
1050.3537	3214.9982	1256.3	377.3
1050.4559	3215.9246	1255.3	376.25
1050.5581	3216.8503	1252.75	375
1050.6602	3217.7755	1253.85	373.6
1050.7623	3218.7001	1252.35	375.3
1050.8643	3219.624	1247	366.65
1050.9663	3220.5473	1246.2	366.45
1051.0682	3221.4701	1240.6	362.55
1051.1701	3222.3922	1239.25	358.8
1051.2719	3223.3137	1234.8	358.2
1051.3737	3224.2346	1232.2	354.65
1051.4754	3225.1549	1236.35	357.7
1051.5771	3226.0746	1232.95	354.45
1051.6788	3226.9937	1230.55	352.6
1051.7804	3227.9121	1225.1	348.6
1051.8819	3228.83	1226.6	347.8
1051.9834	3229.7473	1222.3	342.8
1052.0849	3230.6639	1219.1	341.45
1052.1863	3231.5799	1222.7	344.7
1052.2876	3232.4954	1222.75	345.35
1052.3889	3233.4102	1219.05	342.9
1052.4902	3234.3244	1210.3	331.1
1052.5914	3235.238	1208.7	331.9
1052.6926	3236.151	1235.7	333.5
1052.7937	3237.0634	1206.35	328.2
1052.8948	3237.9752	1209.75	331.55
1052.9958	3238.8864	1202.35	323.1
1053.0968	3239.797	1207.3	327.9
1053.1977	3240.7069	1204.9	325.95
1053.2986	3241.6163	1206.25	325.5
1053.3994	3242.5251	1197.3	321.65
1053.5002	3243.4332	1196.05	319.3
1053.6009	3244.3408	1194	315.35
1053.7016	3245.2477	1188.65	311
1053.8022	3246.154	1194.75	314.75
1053.9028	3247.0598	1183.1	303.4
1054.0034	3247.9649	1185.35	305.95
1054.1039	3248.8694	1182.25	303.6
1054.2043	3249.7733	1181.45	301.95
1054.3047	3250.6766	1179.8	300.85
1054.4051	3251.5793	1179.45	300
1054.5054	3252.4814	1173.75	296.75
1054.6056	3253.3829	1178.65	303.75
1054.7058	3254.2838	1175.15	295.8
1054.806	3255.1841	1169.2	290.55
1054.9061	3256.0838	1165.2	286.7
1055.0061	3256.9829	1166.2	288
1055.1062	3257.8814	1167.3	287.3
1055.2061	3258.7792	1163.25	283.2
1055.306	3259.6765	1157.9	279.55
1055.4059	3260.5731	1155.7	279.6
1055.5057	3261.4692	1151.05	271.9
1055.6055	3262.3647	1146.6	267.9
1055.7052	3263.2595	1144.55	267.1
1055.8049	3264.1538	1142.05	264.85
1055.9045	3265.0474	1140.7	263.85
1056.0041	3265.9404	1135.55	259.05
1056.1036	3266.8329	1130.1	251.3
1056.2031	3267.7247	1133.75	243.75
1056.3025	3268.616	1114.9	237.45
1056.4019	3269.5066	1114.55	235.95
1056.5013	3270.3966	1109	228.9
1056.6005	3271.286	1102.3	226.45
