Software Version:	3.9.2.0
Unit SN:	10000200
Spectrometer SN:	6960
Date:	3/6/2024 10:57:31 AM
Data Line Index:	25
Spectral Points:	2048
Integration time (ms):	125
Averages:	20
Delay (ms):	30
Sequence Number:	1
Processing:	dark subtract
Laser Power (mW):	300
Laser Current (mA):	822
Laser Diode Temp (C):	25.1
Laser Case Temp (C):	28
System Temp (C):	27.8
Spectrometer Temp (C):	25.3
CCD Temp (C):	0.002
Secondary Temp (C):	20.013
Heatsink Temp (C):	23.54
CCDPCB Temp (C):	37.141
SecondaryPCB Temp (C):	34.595

Wavelength	RamanShift	Raw Counts	Dark Subtracted
787.061	30.1047	1093.75	680
787.2016	32.3739	1122.4	709.85
787.3422	34.6426	1157.4	741.65
787.4828	36.9109	1207.55	791.35
787.6235	39.1787	1267.35	848.65
787.7642	41.4461	1318.25	893.15
787.9049	43.7131	1382.4	955.35
788.0456	45.9796	1451.45	1022.6
788.1863	48.2456	1515.2	1080
788.3271	50.5112	1582.8	1143.15
788.4679	52.7764	1641.8	1200.15
788.6087	55.0411	1717.4	1272.45
788.7496	57.3054	1797.4	1348.5
788.8904	59.5692	1888.1	1436.05
789.0313	61.8326	1980.75	1526.35
789.1722	64.0955	2084	1624.1
789.3132	66.3579	2207.95	1742.6
789.4541	68.6199	2353.45	1886.8
789.5951	70.8815	2583.7	2114.05
789.7361	73.1426	3070.1	2595.55
789.8771	75.4032	4289.7	3811.65
790.0181	77.6634	7420.95	6935.55
790.1592	79.9231	15413.45	14923.75
790.3003	82.1824	49863.65	49366.75
790.4414	84.4412	65535	65018.65
790.5825	86.6995	65535	64997.6
790.7237	88.9574	65535	64974.5
790.8648	91.2148	65535	64959.2
791.006	93.4717	65535	64946.3
791.1472	95.7282	65535	64942.9
791.2885	97.9842	65535	64941.8
791.4297	100.2398	65535	64935.3
791.571	102.4949	65535	64931.65
791.7123	104.7495	65535	64931.55
791.8536	107.0036	65535	64932.2
791.9949	109.2573	65535	64933.1
792.1363	111.5105	65535	64930.65
792.2777	113.7632	65535	64929.75
792.4191	116.0154	65535	64913.8
792.5605	118.2672	65535	64919
792.7019	120.5185	65535	64918.15
792.8434	122.7693	65535	64919.85
792.9849	125.0197	65535	64915.35
793.1264	127.2696	65535	64911.45
793.2679	129.519	65535	64909.45
793.4094	131.7679	65535	64905.35
793.551	134.0163	65535	64902.85
793.6926	136.2642	65535	64897.05
793.8342	138.5117	65535	64890.25
793.9758	140.7587	65535	64896.95
794.1175	143.0052	65535	64894.45
794.2591	145.2512	65535	64890.35
794.4008	147.4967	65535	64889.4
794.5425	149.7417	65535	64891.8
794.6842	151.9863	65535	64882.65
794.826	154.2304	65535	64879.3
794.9677	156.4739	65535	64875.85
795.1095	158.717	65535	64873.95
795.2513	160.9596	65535	64872.05
795.3931	163.2017	65535	64869.55
795.535	165.4433	65535	64862.85
795.6768	167.6844	65535	64865.3
795.8187	169.925	65535	64862.55
795.9606	172.1651	65535	64859.1
796.1025	174.4047	65535	64853.8
796.2445	176.6439	65535	64850.55
796.3864	178.8825	65535	64851.5
796.5284	181.1206	65535	64849.45
796.6704	183.3582	65535	64844.4
796.8124	185.5954	65535	64841.45
796.9544	187.832	65535	64840.8
797.0965	190.0681	65535	64836
797.2386	192.3037	65535	64833.8
797.3806	194.5388	65535	64829.2
797.5228	196.7734	65535	64828.65
797.6649	199.0075	65535	64821.3
797.807	201.2411	65535	64820.9
797.9492	203.4742	65535	64820.6
798.0914	205.7068	65535	64821.8
798.2336	207.9389	65535	64819.95
798.3758	210.1704	65535	64813.25
798.518	212.4015	65535	64814.3
798.6603	214.632	65535	64821.15
798.8025	216.862	65535	64829.5
798.9448	219.0915	65535	64837.05
799.0871	221.3205	65535	64835
799.2294	223.549	65535	64837.65
799.3718	225.777	65535	64839.5
799.5141	228.0044	65535	64833.65
799.6565	230.2314	65535	64834.35
799.7989	232.4578	65535	64832.65
799.9413	234.6837	65535	64823.95
800.0837	236.909	65535	64821.75
800.2262	239.1339	65535	64798.85
800.3687	241.3582	65535	64812.25
800.5111	243.582	65535	64778.05
800.6536	245.8053	65535	64793.3
800.7961	248.0281	65535	64797.2
800.9387	250.2503	65535	64794.55
801.0812	252.472	65535	64790.35
801.2238	254.6932	65535	64786.1
801.3664	256.9139	65535	64788.5
801.509	259.134	65535	64785.65
801.6516	261.3536	65535	64785.7
801.7942	263.5727	65535	64783.75
801.9369	265.7912	65535	64787
802.0795	268.0092	65535	64786.05
802.2222	270.2267	65535	64782.15
802.3649	272.4436	65535	64781.2
802.5076	274.6601	65535	64776.55
802.6504	276.8759	65535	64779.55
802.7931	279.0913	65535	64776.45
802.9359	281.3061	65535	64776.05
803.0787	283.5204	65535	64772.2
803.2215	285.7341	65535	64768.45
803.3643	287.9473	65535	64755.1
803.5071	290.16	65535	64761.7
803.6499	292.3721	65535	64770.7
803.7928	294.5837	65535	64769.9
803.9357	296.7947	65535	64773
804.0786	299.0052	65535	64765.3
804.2215	301.2152	65535	64765.3
804.3644	303.4246	65535	64765.65
804.5074	305.6334	65535	64767.8
804.6503	307.8418	65535	64763.15
804.7933	310.0495	65535	64762.5
804.9363	312.2568	65535	64763.05
805.0793	314.4635	65535	64763.2
805.2223	316.6696	65535	64759.15
805.3653	318.8752	65535	64753.5
805.5084	321.0802	65535	64757.15
805.6514	323.2847	65535	64756.45
805.7945	325.4887	65535	64758.05
805.9376	327.692	65535	64753.2
806.0807	329.8949	65535	64754.5
806.2238	332.0972	65535	64751.65
806.367	334.2989	65535	64747
806.5101	336.5001	65535	64748.95
806.6533	338.7007	65535	64748.65
806.7965	340.9008	65535	64748.05
806.9397	343.1003	65535	64743.5
807.0829	345.2992	65535	64744.8
807.2261	347.4976	65535	64740.8
807.3693	349.6955	65535	64737.65
807.5126	351.8927	65535	64739.1
807.6559	354.0895	65535	64726.9
807.7991	356.2856	65535	64736.15
807.9424	358.4812	65535	64736.85
808.0857	360.6763	65535	64733.45
808.2291	362.8707	65535	64734.8
808.3724	365.0646	65535	64732.7
808.5158	367.258	65535	64725.15
808.6591	369.4508	65535	64726.9
808.8025	371.643	65535	64726.15
808.9459	373.8346	65535	64724.6
809.0893	376.0257	65535	64721.2
809.2327	378.2162	65535	64721.15
809.3762	380.4062	65535	64715.55
809.5196	382.5956	65535	64720.15
809.6631	384.7844	65535	64717
809.8066	386.9726	65535	64720.7
809.9501	389.1603	65535	64718.5
810.0936	391.3474	65535	64681.95
810.2371	393.5339	65535	64721.65
810.3806	395.7199	65535	64728.05
810.5241	397.9052	65535	64726.85
810.6677	400.09	65535	64727.35
810.8113	402.2743	65535	64724.8
810.9548	404.4579	65535	64726.85
811.0984	406.641	65535	64724.4
811.2421	408.8235	65535	64722.9
811.3857	411.0054	65535	64721.1
811.5293	413.1868	65535	64722.3
811.673	415.3675	65535	64721
811.8166	417.5477	65535	64720.25
811.9603	419.7273	65535	64715.15
812.104	421.9064	65535	64705.35
812.2477	424.0848	65535	64712.1
812.3914	426.2627	65535	64708.3
812.5351	428.4399	65535	64708.5
812.6788	430.6166	65535	64706.95
812.8226	432.7928	65535	64704.45
812.9663	434.9683	65535	64706.95
813.1101	437.1432	65535	64701.3
813.2539	439.3176	65535	64701.35
813.3977	441.4914	65535	64701.15
813.5415	443.6645	65535	64697.65
813.6853	445.8371	65535	64700.5
813.8291	448.0091	65535	64702.65
813.973	450.1806	65535	64703.3
814.1168	452.3514	65535	64700.05
814.2607	454.5216	65535	64692.9
814.4046	456.6913	65535	64698.85
814.5485	458.8603	65535	64701.6
814.6924	461.0288	65535	64700.95
814.8363	463.1967	65535	64701.35
814.9802	465.3639	65535	64697.1
815.1241	467.5306	65535	64696.6
815.2681	469.6967	65535	64698.4
815.412	471.8622	65535	64698
815.556	474.0271	65535	64694.25
815.7	476.1914	65535	64693.5
815.844	478.3551	65535	64694.1
815.988	480.5182	65535	64696.1
816.132	482.6807	65535	64693.95
816.276	484.8426	65535	64696.35
816.4201	487.0039	65535	64692.75
816.5641	489.1647	65535	64693.3
816.7082	491.3248	65535	64692.65
816.8522	493.4843	65535	64694.25
816.9963	495.6432	65535	64689.9
817.1404	497.8015	65535	64686.3
817.2845	499.9592	65535	64687.7
817.4286	502.1163	65535	64688.85
817.5727	504.2728	65535	64686.4
817.7168	506.4287	65535	64690.65
817.861	508.5839	65535	64688.15
818.0051	510.7386	65535	64689.95
818.1493	512.8927	65535	64685
818.2935	515.0461	65535	64689
818.4377	517.199	65535	64684.05
818.5818	519.3512	65535	64686.4
818.726	521.5029	65535	64677.4
818.8703	523.6539	65535	64681.85
819.0145	525.8043	65535	64681.85
819.1587	527.9541	65535	64678.15
819.303	530.1033	65535	64681.4
819.4472	532.2519	65535	64681.1
819.5915	534.3999	65535	64678.6
819.7357	536.5472	65535	64680
819.88	538.694	65535	64683.3
820.0243	540.8401	65535	64678.1
820.1686	542.9856	65535	64678.5
820.3129	545.1305	65535	64675.9
820.4572	547.2748	65535	64676.95
820.6016	549.4185	65535	64678.3
820.7459	551.5615	65535	64675.6
820.8902	553.704	65535	64676.55
821.0346	555.8458	65535	64677.65
821.1789	557.987	65535	64679.1
821.3233	560.1276	65535	64675.3
821.4677	562.2675	65535	64677.3
821.6121	564.4069	65535	64676.9
821.7565	566.5456	65535	64677.15
821.9009	568.6837	65535	64675.1
822.0453	570.8212	65535	64675.05
822.1897	572.958	65535	64671.95
822.3342	575.0942	65535	64678.75
822.4786	577.2299	65535	64677.3
822.6231	579.3648	65535	64677.4
822.7675	581.4992	65535	64676.4
822.912	583.6329	65535	64675.35
823.0565	585.766	65535	64675.7
823.201	587.8985	65535	64676.55
823.3454	590.0304	65535	64649.85
823.4899	592.1616	65535	64672.6
823.6345	594.2922	65535	64672.3
823.779	596.4222	65535	64670.3
823.9235	598.5515	65535	64672.45
824.068	600.6802	65535	64671.15
824.2126	602.8083	65535	64670.15
824.3571	604.9358	65535	64670
824.5017	607.0626	65535	64668.15
824.6462	609.1888	65535	64668.9
824.7908	611.3144	65535	64665.8
824.9354	613.4393	65535	64672.1
825.08	615.5636	65535	64669.95
825.2246	617.6873	65535	64667.4
825.3692	619.8103	65535	64665.4
825.5138	621.9327	65535	64661
825.6584	624.0544	65535	64667.75
825.803	626.1756	65535	64669.95
825.9477	628.2961	65535	64665.35
826.0923	630.4159	65535	64664.85
826.237	632.5351	65535	64668
826.3816	634.6537	65535	64665.7
826.5263	636.7716	65535	64664.9
826.6709	638.8889	65535	64662.25
826.8156	641.0056	65535	64665.05
826.9603	643.1216	65535	64660.15
827.105	645.237	65535	64662.7
827.2497	647.3518	65535	64662.05
827.3944	649.4659	65535	64665.05
827.5391	651.5793	65535	64663.3
827.6838	653.6922	65535	64666.8
827.8285	655.8043	65535	64661.2
827.9733	657.9159	65535	64660.65
828.118	660.0268	65535	64660.45
828.2627	662.137	65535	64663.6
828.4075	664.2466	65535	64656.95
828.5522	666.3556	65535	64660.55
828.697	668.4639	65535	64659.8
828.8418	670.5716	65535	64659.95
828.9865	672.6786	65535	64657.6
829.1313	674.785	65535	64655.5
829.2761	676.8907	65535	64656.65
829.4209	678.9958	65535	64662.65
829.5657	681.1002	65535	64657.05
829.7105	683.204	65535	64656.4
829.8553	685.3072	65535	64658
830.0001	687.4097	65535	64657.85
830.1449	689.5115	65535	64653.1
830.2898	691.6127	65535	64656.95
830.4346	693.7132	65535	64657.25
830.5794	695.8131	65535	64647.65
830.7243	697.9123	65535	64655.9
830.8691	700.0109	65535	64656.5
831.014	702.1089	65535	64658.6
831.1588	704.2061	65535	64653.8
831.3037	706.3028	65535	64654.35
831.4486	708.3987	65535	64654.8
831.5935	710.4941	65535	64656
831.7383	712.5887	65535	64654.55
831.8832	714.6827	65535	64651.35
832.0281	716.7761	65535	64654.55
832.173	718.8688	65535	64650
832.3179	720.9608	65535	64648.3
832.4628	723.0522	65535	64648.15
832.6077	725.1429	65535	64655.3
832.7527	727.233	65535	64649.45
832.8976	729.3224	65535	64652.55
833.0425	731.4112	65535	64653.45
833.1874	733.4993	65535	64649.05
833.3324	735.5867	65535	64651.6
833.4773	737.6735	65535	64648.9
833.6222	739.7596	65535	64649.35
833.7672	741.845	65535	64650.85
833.9122	743.9298	65535	64647.75
834.0571	746.014	65535	64651.3
834.2021	748.0974	65535	64647.55
834.347	750.1802	65535	64649
834.492	752.2624	65535	64649.75
834.637	754.3439	65535	64647.45
834.782	756.4247	65535	64637.9
834.9269	758.5048	65535	64649.25
835.0719	760.5843	65535	64650
835.2169	762.6631	65535	64650.45
835.3619	764.7413	65535	64650.4
835.5069	766.8188	65535	64647.45
835.6519	768.8956	65535	64644.2
835.7969	770.9718	65535	64645.7
835.9419	773.0473	65535	64649.3
836.0869	775.1221	65535	64647.65
836.232	777.1962	65535	64650.3
836.377	779.2697	65535	64649.25
836.522	781.3426	65535	64629.95
836.667	783.4147	65535	64645.85
836.8121	785.4862	65535	64649.9
836.9571	787.557	65535	64647.2
837.1021	789.6271	65535	64648.05
837.2472	791.6966	65535	64644.85
837.3922	793.7654	65535	64645.5
837.5373	795.8335	65535	64646.55
837.6823	797.901	65535	64648.7
837.8274	799.9678	65535	64645.3
837.9724	802.0339	65535	64645.55
838.1175	804.0993	65535	64636.8
838.2626	806.1641	65535	64645.4
838.4076	808.2282	65535	64645.45
838.5527	810.2916	65535	64642.85
838.6978	812.3544	65535	64649
838.8428	814.4164	65535	64645.2
838.9879	816.4778	65535	64644.95
839.133	818.5385	65535	64644.55
839.2781	820.5986	65535	64645.2
839.4232	822.658	65535	64644.2
839.5682	824.7166	65535	64644.75
839.7133	826.7747	65535	64642.65
839.8584	828.832	65535	64646.55
840.0035	830.8886	65535	64642.4
840.1486	832.9446	65535	64642.15
840.2937	834.9999	65535	64645.3
840.4388	837.0545	65535	64645.9
840.5839	839.1085	65535	64645
840.729	841.1618	65535	64640.4
840.8741	843.2143	65535	64643.1
841.0192	845.2662	65535	64644.15
841.1643	847.3175	65535	64642.8
841.3095	849.368	65535	64645.3
841.4546	851.4179	65535	64644.5
841.5997	853.467	65535	64646.35
841.7448	855.5155	65535	64641.55
841.8899	857.5633	65535	64644.1
842.0351	859.6105	65535	64646.3
842.1802	861.6569	65535	64643.45
842.3253	863.7027	65535	64642.2
842.4704	865.7478	65535	64640.95
842.6156	867.7922	65535	64644.35
842.7607	869.8359	65535	64638.8
842.9058	871.8789	65535	64642.6
843.0509	873.9212	65535	64608.1
843.1961	875.9629	65535	64640.3
843.3412	878.0039	65535	64639.9
843.4863	880.0441	65535	64644.5
843.6315	882.0837	65535	64640.55
843.7766	884.1226	65535	64641.8
843.9218	886.1609	65535	64643.65
844.0669	888.1984	65535	64643.1
844.212	890.2352	65535	64645.55
844.3572	892.2714	65535	64639.25
844.5023	894.3069	65535	64643.15
844.6475	896.3416	65535	64638.65
844.7926	898.3757	65535	64640.8
844.9377	900.4091	65535	64641.85
845.0829	902.4418	65535	64635.8
845.228	904.4739	65535	64635.2
845.3732	906.5052	65535	64640.3
845.5183	908.5358	65535	64642.85
845.6635	910.5658	65535	64640.45
845.8086	912.595	65535	64641.85
845.9538	914.6236	65535	64640.45
846.0989	916.6515	65535	64642.8
846.2441	918.6786	65535	64637.8
846.3892	920.7051	65535	64639.75
846.5344	922.7309	65535	64641.35
846.6795	924.756	65535	64638.9
846.8246	926.7804	65535	64639.7
846.9698	928.8041	65535	64632.8
847.1149	930.8272	65535	64639.3
847.2601	932.8495	65535	64639.95
847.4052	934.8711	65535	64641.8
847.5504	936.892	65535	64638.9
847.6955	938.9123	65535	64639.45
847.8407	940.9318	65535	64638.55
847.9858	942.9506	65535	64636.45
848.131	944.9688	65535	64637.55
848.2761	946.9862	65535	64637.35
848.4213	949.003	65535	64637.65
848.5664	951.019	65535	64638.2
848.7115	953.0344	65535	64637.6
848.8567	955.0491	65535	64639.5
849.0018	957.063	65535	64639.35
849.147	959.0763	65535	64639.65
849.2921	961.0888	65535	64638.75
849.4373	963.1007	65535	64640.25
849.5824	965.1119	65535	64638
849.7275	967.1223	65535	64637.45
849.8727	969.1321	65535	64640.5
850.0178	971.1412	65535	64637.85
850.1629	973.1495	65535	64640.4
850.3081	975.1572	65535	64605.85
850.4532	977.1641	65535	64639.95
850.5983	979.1704	65535	64637.7
850.7435	981.1759	65535	64636.25
850.8886	983.1808	65535	64637.7
851.0337	985.1849	65535	64627.2
851.1788	987.1884	65535	64636.05
851.324	989.1911	65535	64635.55
851.4691	991.1932	65535	64637.35
851.6142	993.1945	65535	64638
851.7593	995.1951	65535	64640.15
851.9045	997.1951	65535	64633
852.0496	999.1943	65535	64637.15
852.1947	1001.1928	65535	64636.6
852.3398	1003.1906	65535	64638.1
852.4849	1005.1877	65535	64638.25
852.63	1007.1841	65535	64637.8
852.7751	1009.1798	65535	64637.75
852.9202	1011.1748	65535	64638.85
853.0653	1013.1691	65535	64635.85
853.2104	1015.1627	65535	64637.65
853.3555	1017.1556	65535	64637.65
853.5006	1019.1477	65535	64636.8
853.6457	1021.1392	65535	64641.6
853.7908	1023.1299	65535	64638.4
853.9359	1025.12	65535	64637.25
854.081	1027.1093	65535	64641.5
854.2261	1029.0979	65535	64643.15
854.3712	1031.0859	65535	64640.65
854.5163	1033.0731	65535	64635.95
854.6613	1035.0596	65535	64639.5
854.8064	1037.0454	65535	64638.65
854.9515	1039.0304	65535	64636
855.0965	1041.0148	65535	64638.5
855.2416	1042.9985	65535	64633.75
855.3867	1044.9814	65535	64639.75
855.5317	1046.9636	65535	64636.15
855.6768	1048.9452	65535	64639.2
855.8219	1050.926	65535	64638.7
855.9669	1052.9061	65535	64638.45
856.112	1054.8855	65535	64639.5
856.257	1056.8642	65535	64636.7
856.4021	1058.8421	65535	64632.25
856.5471	1060.8194	65535	64637.35
856.6921	1062.7959	65535	64636.75
856.8372	1064.7717	65535	64638.85
856.9822	1066.7469	65535	64636.35
857.1272	1068.7213	65535	64636.35
857.2723	1070.695	65535	64639.2
857.4173	1072.6679	65535	64636.55
857.5623	1074.6402	65535	64638.3
857.7073	1076.6117	65535	64631.65
857.8523	1078.5826	65535	64636.8
857.9973	1080.5527	65535	64632.05
858.1423	1082.5221	65535	64636.15
858.2873	1084.4908	65535	64638.8
858.4323	1086.4587	65535	64636.85
858.5773	1088.426	65535	64635.3
858.7223	1090.3925	65535	64630.65
858.8673	1092.3584	65535	64638.85
859.0123	1094.3235	65535	64638.2
859.1573	1096.2879	65535	64636.8
859.3022	1098.2515	65535	64636.55
859.4472	1100.2145	65535	64637.35
859.5922	1102.1767	65535	64635.9
859.7371	1104.1382	65535	64636.95
859.8821	1106.099	65535	64631.65
860.027	1108.0591	65535	64636.85
860.172	1110.0185	65535	64634.3
860.3169	1111.9771	65535	64635.75
860.4619	1113.9351	65535	64636.5
860.6068	1115.8923	65535	64635.25
860.7517	1117.8488	65535	64635.1
860.8967	1119.8045	65535	64638.55
861.0416	1121.7596	65535	64636.15
861.1865	1123.7139	65535	64638.75
861.3314	1125.6675	65535	64637.1
861.4763	1127.6204	65535	64637.25
861.6212	1129.5726	65535	64634.95
861.7661	1131.524	65535	64638.65
861.911	1133.4748	65535	64637.95
862.0559	1135.4248	65535	64636.05
862.2008	1137.3741	65535	64637.85
862.3457	1139.3226	65535	64636.8
862.4905	1141.2705	65535	64637.55
862.6354	1143.2176	65535	64630.95
862.7803	1145.164	65535	64631.2
862.9251	1147.1097	65535	64635.65
863.07	1149.0546	65535	64634.85
863.2148	1150.9989	65535	64638.8
863.3597	1152.9424	65535	64637.3
863.5045	1154.8852	65535	64639.6
863.6493	1156.8272	65535	64636.85
863.7942	1158.7686	65535	64626.65
863.939	1160.7092	65535	64635.65
864.0838	1162.6491	65535	64635.1
864.2286	1164.5883	65535	64635.4
864.3734	1166.5267	65535	64635.45
864.5182	1168.4644	65535	64632.55
864.663	1170.4014	65535	64632.3
864.8078	1172.3377	65535	64637.4
864.9526	1174.2732	65535	64637.35
865.0974	1176.2081	65535	64637.65
865.2421	1178.1421	65535	64632.3
865.3869	1180.0755	65535	64638.3
865.5317	1182.0082	65535	64637.75
865.6764	1183.9401	65535	64637.8
865.8212	1185.8713	65535	64637.4
865.9659	1187.8017	65535	64638.95
866.1106	1189.7315	65535	64641.9
866.2554	1191.6605	65535	64611.3
866.4001	1193.5888	65535	64637.35
866.5448	1195.5163	65535	64637.85
866.6895	1197.4432	65535	64637.25
866.8342	1199.3693	65535	64638.8
866.9789	1201.2947	65535	64634.25
867.1236	1203.2193	65535	64636.55
867.2683	1205.1432	65535	64635.85
867.413	1207.0664	65535	64634.7
867.5576	1208.9889	65535	64631.65
867.7023	1210.9106	65535	64637.75
867.847	1212.8316	65535	64638.8
867.9916	1214.7519	65535	64627.95
868.1363	1216.6715	65535	64637.55
868.2809	1218.5903	65535	64637.9
868.4255	1220.5084	65535	64638.55
868.5701	1222.4257	65535	64635.8
868.7148	1224.3424	65535	64639.95
868.8594	1226.2583	65535	64630.6
869.004	1228.1735	65535	64634.35
869.1486	1230.0879	65535	64636.2
869.2932	1232.0016	65535	64636.2
869.4377	1233.9146	65535	64635
869.5823	1235.8269	65535	64635.75
869.7269	1237.7384	65535	64637.6
869.8715	1239.6492	65535	64636.35
870.016	1241.5592	65535	64637.55
870.1606	1243.4686	65535	64635.8
870.3051	1245.3772	65535	64637.7
870.4496	1247.285	65535	64637.9
870.5941	1249.1922	65535	64637.25
870.7387	1251.0986	65535	64637.3
870.8832	1253.0042	65535	64636.6
871.0277	1254.9092	65535	64637.3
871.1722	1256.8134	65535	64637.4
871.3167	1258.7169	65535	64634.9
871.4611	1260.6196	65535	64637.05
871.6056	1262.5216	65535	64636.3
871.7501	1264.4229	65535	64638.65
871.8945	1266.3234	65535	64636.25
872.039	1268.2232	65535	64635.7
872.1834	1270.1223	65535	64635.05
872.3278	1272.0207	65535	64636.55
872.4723	1273.9183	65535	64629.8
872.6167	1275.8151	65535	64634.9
872.7611	1277.7113	65535	64636.25
872.9055	1279.6067	65535	64637.85
873.0499	1281.5014	65535	64633.85
873.1943	1283.3953	65535	64634.75
873.3386	1285.2885	65535	64637.35
873.483	1287.181	65535	64635.15
873.6274	1289.0727	65535	64638.25
873.7717	1290.9637	65535	64637
873.9161	1292.854	65535	64638.95
874.0604	1294.7435	65535	64638.1
874.2047	1296.6323	65535	64636.05
874.349	1298.5204	65535	64632.35
874.4933	1300.4077	65535	64637.05
874.6376	1302.2943	65535	64636.3
874.7819	1304.1802	65535	64637
874.9262	1306.0653	65535	64638.15
875.0705	1307.9497	65535	64636.15
875.2147	1309.8333	65535	64635.7
875.359	1311.7162	65535	64637.1
875.5032	1313.5984	65535	64632.7
875.6475	1315.4798	65535	64627.7
875.7917	1317.3605	65535	64620.6
875.9359	1319.2405	65535	64633.15
876.0801	1321.1197	65535	64634.4
876.2243	1322.9982	65535	64632.55
876.3685	1324.876	65535	64637
876.5127	1326.753	65535	64636.55
876.6569	1328.6293	65535	64634.9
876.801	1330.5048	65535	64633.55
876.9452	1332.3796	65535	64638.1
877.0893	1334.2537	65535	64611.05
877.2335	1336.127	65535	64635.7
877.3776	1337.9996	65535	64636.15
877.5217	1339.8714	65535	64635.2
877.6658	1341.7426	65535	64594.15
877.8099	1343.6129	65535	64631.65
877.954	1345.4826	65535	64637
878.0981	1347.3515	65535	64633.5
878.2422	1349.2196	65535	64636.85
878.3862	1351.087	65535	64635.95
878.5303	1352.9537	65535	64635.45
878.6743	1354.8197	65535	64636.35
878.8184	1356.6849	65535	64635.6
878.9624	1358.5493	65535	64633.8
879.1064	1360.4131	65535	64635.7
879.2504	1362.276	65535	64635.7
879.3944	1364.1383	65535	64635
879.5384	1365.9998	65535	64629.7
879.6823	1367.8606	65535	64638.65
879.8263	1369.7206	65535	64636.4
879.9702	1371.5799	65535	64634.1
880.1142	1373.4384	65535	64634.8
880.2581	1375.2962	65535	64634.05
880.402	1377.1533	65535	64635.6
880.5459	1379.0096	65535	64634.7
880.6898	1380.8652	65535	64635.2
880.8337	1382.7201	65535	64636.8
880.9776	1384.5742	65535	64636.4
881.1215	1386.4275	65535	64635.85
881.2653	1388.2802	65535	64637.35
881.4092	1390.132	65535	64636.4
881.553	1391.9832	65535	64634.05
881.6968	1393.8336	65535	64637.3
881.8406	1395.6832	65535	64634.85
881.9844	1397.5322	65535	64635.55
882.1282	1399.3803	65535	64631.4
882.272	1401.2278	65535	64635.9
882.4158	1403.0745	65535	64636.35
882.5595	1404.9204	65535	64639.3
882.7033	1406.7656	65535	64636.45
882.847	1408.6101	65535	64637.7
882.9908	1410.4538	65535	64636.4
883.1345	1412.2968	65535	64635.55
883.2782	1414.139	65535	64636.45
883.4219	1415.9805	65535	64635.9
883.5656	1417.8213	65535	64630.15
883.7092	1419.6613	65535	64635.9
883.8529	1421.5006	65535	64637.15
883.9965	1423.3391	65535	64636.8
884.1402	1425.1769	65535	64634.9
884.2838	1427.0139	65535	64636.3
884.4274	1428.8502	65535	64637.35
884.571	1430.6858	65535	64637.3
884.7146	1432.5206	65535	64636.85
884.8582	1434.3547	65535	64634.05
885.0018	1436.188	65535	64636.85
885.1453	1438.0206	65535	64634.7
885.2889	1439.8524	65535	64635.6
885.4324	1441.6835	65535	64636
885.5759	1443.5139	65535	64634.7
885.7194	1445.3435	65535	64636.5
885.8629	1447.1724	65535	64638.6
886.0064	1449.0005	65535	64636.75
886.1499	1450.8279	65535	64635.3
886.2933	1452.6545	65535	64634.45
886.4368	1454.4804	65535	64637.9
886.5802	1456.3056	65535	64630.1
886.7237	1458.13	65535	64637.05
886.8671	1459.9536	65535	64636.4
887.0105	1461.7766	65535	64638.55
887.1539	1463.5987	65535	64635.2
887.2972	1465.4202	65535	64636.2
887.4406	1467.2409	65535	64636.5
887.584	1469.0608	65535	64637.5
887.7273	1470.88	65535	64635.45
887.8706	1472.6984	65535	64635.9
888.0139	1474.5161	65535	64634.25
888.1572	1476.3331	65535	64637.5
888.3005	1478.1493	65535	64637.05
888.4438	1479.9648	65535	64636.5
888.5871	1481.7795	65535	64637.3
888.7303	1483.5935	65535	64635.9
888.8736	1485.4067	65535	64637.45
889.0168	1487.2192	65535	64635.95
889.16	1489.031	65535	64634.6
889.3032	1490.842	65535	64634.45
889.4464	1492.6522	65535	64637.7
889.5896	1494.4618	65535	64635.35
889.7327	1496.2705	65535	64635.95
889.8759	1498.0785	65535	64636.05
890.019	1499.8858	65535	64633.3
890.1622	1501.6924	65535	64638.2
890.3053	1503.4981	65535	64638.25
890.4484	1505.3032	65535	64637.35
890.5914	1507.1075	65535	64636.55
890.7345	1508.911	65535	64635.25
890.8776	1510.7138	65535	64634.8
891.0206	1512.5159	65535	64636.65
891.1637	1514.3172	65521.85	64624.05
891.3067	1516.1178	65527.65	64630.05
891.4497	1517.9176	65535	64635
891.5927	1519.7166	65525.55	64628.15
891.7357	1521.515	65525.35	64620.45
891.8786	1523.3126	65491.45	64592.5
892.0216	1525.1094	65524.9	64623.3
892.1645	1526.9055	65516.85	64619.1
892.3074	1528.7008	65519.25	64623.5
892.4503	1530.4954	65473.15	64570.2
892.5932	1532.2893	65519.45	64623.15
892.7361	1534.0824	65459	64557.05
892.879	1535.8747	65417.95	64520.8
893.0218	1537.6663	65509.8	64612.4
893.1647	1539.4572	65346.95	64448.55
893.3075	1541.2473	65427.5	64528.1
893.4503	1543.0367	65407.25	64510.65
893.5931	1544.8253	65389.65	64487.6
893.7359	1546.6132	65412.5	64514.7
893.8787	1548.4003	65332	64424.65
894.0214	1550.1867	65297.95	64392.5
894.1642	1551.9723	65272.15	64371.6
894.3069	1553.7572	65301.05	64403.1
894.4496	1555.5414	65343	64445.25
894.5923	1557.3247	64659.3	63761.1
894.735	1559.1074	65308.85	64413.5
894.8777	1560.8893	65115.2	64219.7
895.0204	1562.6705	65218.15	64320.35
895.163	1564.4509	64707.1	63811.45
895.3056	1566.2305	64998.15	64103.05
895.4482	1568.0094	65228.2	64334.05
895.5908	1569.7876	65053	64157.6
895.7334	1571.565	64663.9	63765.7
895.876	1573.3417	64890.35	63995.6
896.0186	1575.1176	64799.75	63902.6
896.1611	1576.8928	64590.1	63694.85
896.3036	1578.6672	64054.05	63159.55
896.4461	1580.4409	64417.15	63521.95
896.5886	1582.2138	63636.5	62740.15
896.7311	1583.986	63828	62930.15
896.8736	1585.7575	63069.95	62172.7
897.0161	1587.5282	63278.55	62384.35
897.1585	1589.2981	63288.75	62393.95
897.3009	1591.0673	62578.25	61681.5
897.4433	1592.8358	62056.6	61163.05
897.5857	1594.6035	62574.75	61675.75
897.7281	1596.3704	62673.15	61776.45
897.8705	1598.1366	61711.95	60817.6
898.0128	1599.9021	61175.45	60280.3
898.1551	1601.6668	61937.7	61040.75
898.2975	1603.4308	61478.05	60581.25
898.4398	1605.194	61662.25	60762.55
898.5821	1606.9564	60512	59617.35
898.7243	1608.7182	61092.1	60195.2
898.8666	1610.4791	60555.05	59662.95
899.0088	1612.2394	61050.3	60156.9
899.1511	1613.9988	60459.9	59565.6
899.2933	1615.7576	61196.65	60303.55
899.4355	1617.5156	61164.15	60265.35
899.5776	1619.2728	61947.45	61049.75
899.7198	1621.0293	60722	59827.95
899.862	1622.785	60738.7	59842.45
900.0041	1624.54	61161.75	60264.95
900.1462	1626.2942	60536	59638.7
900.2883	1628.0477	59445	58548.9
900.4304	1629.8005	58817.9	57919.15
900.5725	1631.5525	59403.65	58509.55
900.7145	1633.3037	58265.95	57372.6
900.8566	1635.0542	58208.85	57315.45
900.9986	1636.804	58336.45	57441.1
901.1406	1638.553	57593.95	56592.65
901.2826	1640.3013	57726.95	56830.95
901.4245	1642.0488	57096.9	56199
901.5665	1643.7955	57489.4	56596
901.7085	1645.5416	56986.65	56092.3
901.8504	1647.2868	56641.8	55747.9
901.9923	1649.0313	57230.75	56336.85
902.1342	1650.7751	56829.45	55932.5
902.2761	1652.5181	56565.45	55671.05
902.4179	1654.2604	56626.75	55731.85
902.5598	1656.0019	57132.4	56238.2
902.7016	1657.7427	56942.25	56047.9
902.8434	1659.4828	57404	56512
902.9852	1661.222	57228.85	56333.05
903.127	1662.9606	57451.1	56557.9
903.2687	1664.6984	56871.35	55975.8
903.4105	1666.4354	56788.8	55894.55
903.5522	1668.1717	55763.65	54869.5
903.6939	1669.9072	55112	54217.6
903.8356	1671.642	54741.2	53842.1
903.9773	1673.3761	54379.35	53486.3
904.119	1675.1094	54008.9	53116.05
904.2606	1676.8419	53579.65	52685.55
904.4022	1678.5737	53289.8	52394.85
904.5439	1680.3048	53006.6	52111.6
904.6855	1682.0351	52689.15	51794.95
904.827	1683.7646	52411.6	51514.15
904.9686	1685.4934	52351	51458.2
905.1101	1687.2215	51705.4	50808.75
905.2517	1688.9488	51878.1	50985.2
905.3932	1690.6754	51063.4	50170
905.5347	1692.4012	51265.5	50371.9
905.6761	1694.1263	51102.2	50207.6
905.8176	1695.8506	50849.5	49956.9
905.9591	1697.5742	50619.6	49727.15
906.1005	1699.297	50457.85	49563.4
906.2419	1701.0191	50239.75	49346.2
906.3833	1702.7404	49925.45	49032.3
906.5246	1704.461	49718.2	48824.7
906.666	1706.1808	49526.25	48629.6
906.8073	1707.8999	49424.1	48528.85
906.9487	1709.6182	49173.9	48281.45
907.09	1711.3358	49024.3	48131.35
907.2313	1713.0527	48821.2	47929.3
907.3725	1714.7688	48661.85	47763.15
907.5138	1716.4841	48351.05	47455.85
907.655	1718.1987	48373	47472.95
907.7962	1719.9126	48181.05	47289.75
907.9374	1721.6257	47985.6	47090.15
908.0786	1723.338	47900.25	47007.45
908.2198	1725.0496	47485.7	46592.65
908.3609	1726.7605	47408.05	46515.85
908.502	1728.4706	47220.85	46327.6
908.6431	1730.18	46947.3	46051.25
908.7842	1731.8886	46845	45951
908.9253	1733.5964	46765.9	45854.7
909.0664	1735.3036	46582.7	45686.9
909.2074	1737.0099	46508.3	45614.8
909.3484	1738.7156	46374	45482.2
909.4894	1740.4204	46050.2	45153.95
909.6304	1742.1246	46002.75	45108.55
909.7714	1743.8279	45833.9	44939.6
909.9123	1745.5306	45794.55	44899.7
910.0532	1747.2325	45569.4	44678.1
910.1941	1748.9336	45422.75	44532.35
910.335	1750.634	45177.6	44283.85
910.4759	1752.3336	45108.7	44217.75
910.6168	1754.0325	45012.25	44122.6
910.7576	1755.7307	44897.95	44004.75
910.8984	1757.4281	44834.75	43940.15
911.0392	1759.1247	44711.1	43809.35
911.18	1760.8206	44600.8	43702.5
911.3208	1762.5158	44525.85	43628.1
911.4615	1764.2102	44212.15	43319.3
911.6022	1765.9039	44110.6	43218.25
911.7429	1767.5968	43990.35	43099.45
911.8836	1769.289	43828.45	42937.6
912.0243	1770.9804	43749.55	42854.85
912.1649	1772.6711	43669.9	42776.35
912.3056	1774.361	43498.6	42605.7
912.4462	1776.0502	43362.7	42467.95
912.5868	1777.7386	43276.15	42381.4
912.7274	1779.4263	43171.95	42278.25
912.8679	1781.1132	43093.85	42201.4
913.0084	1782.7994	42908.2	42017.3
913.149	1784.4849	42839.55	41948.65
913.2895	1786.1696	42676.8	41777.85
913.4299	1787.8535	42501.55	41608.75
913.5704	1789.5367	42376.4	41483.15
913.7108	1791.2192	42291.6	41398.8
913.8513	1792.9009	42106.3	41183.15
913.9917	1794.5818	42007.25	41113.5
914.132	1796.2621	41926.9	41035.9
914.2724	1797.9415	41829.2	40937.2
914.4128	1799.6202	41676	40784.15
914.5531	1801.2982	41531.65	40640.1
914.6934	1802.9755	41409.4	40516.5
914.8337	1804.6519	41310.1	40417.1
914.9739	1806.3277	41089.65	40196.45
915.1142	1808.0027	40951.2	40061.4
915.2544	1809.6769	40925.1	40030.65
915.3946	1811.3504	40761.6	39866.45
915.5348	1813.0231	40650	39756.7
915.675	1814.6951	40568	39676.1
915.8151	1816.3664	40560.85	39665.95
915.9553	1818.0369	40421.4	39527.7
916.0954	1819.7067	40292.9	39402.6
916.2355	1821.3757	40113	39218.1
916.3755	1823.044	40049.4	39156.7
916.5156	1824.7115	39981.45	39088.35
916.6556	1826.3783	39780.3	38889.9
916.7956	1828.0443	39644.05	38752.9
916.9356	1829.7096	39560.15	38666.7
917.0756	1831.3741	39519.75	38624.7
917.2155	1833.0379	39347.8	38453.85
917.3555	1834.701	39194.15	38301.65
917.4954	1836.3633	39122.15	38229.2
917.6353	1838.0248	39011.05	38117.2
917.7751	1839.6856	38925.05	38030.95
917.915	1841.3457	38866.3	37974.95
918.0548	1843.005	38759.75	37869.25
918.1946	1844.6636	38646.4	37756.45
918.3344	1846.3214	38528.55	37636.15
918.4742	1847.9785	38437.5	37544.95
918.6139	1849.6349	38349.75	37456.15
918.7537	1851.2904	38240.35	37337
918.8934	1852.9453	38128.8	37235.65
919.0331	1854.5994	38010.85	37117.7
919.1727	1856.2528	37975.4	37078.55
919.3124	1857.9054	37840.35	36947.15
919.452	1859.5572	37750.4	36862
919.5916	1861.2083	37649	36756.35
919.7312	1862.8587	37647	36757
919.8708	1864.5084	37501.55	36608.6
920.0103	1866.1572	37411.25	36521.25
920.1498	1867.8054	37196.55	36303.95
920.2893	1869.4528	37120.1	36228.4
920.4288	1871.0994	37023.4	36130.25
920.5683	1872.7453	36936.7	36044.75
920.7077	1874.3905	36845.65	35948.15
920.8471	1876.0349	36695.45	35803.05
920.9865	1877.6786	36705.8	35812.1
921.1259	1879.3215	36599.45	35707
921.2653	1880.9637	36500.75	35608.5
921.4046	1882.6051	36449.2	35558.2
921.5439	1884.2458	36306.8	35413.4
921.6832	1885.8858	36125.35	35231.95
921.8225	1887.525	36038.25	35145.1
921.9617	1889.1634	35870.35	34978.2
922.101	1890.8011	35757.55	34865.2
922.2402	1892.4381	35651.05	34760.1
922.3794	1894.0743	35629	34737.3
922.5185	1895.7098	35557.55	34665.65
922.6577	1897.3446	35429.2	34536.4
922.7968	1898.9786	35304.1	34409.15
922.9359	1900.6118	35189.65	34297.35
923.075	1902.2443	34998.8	34103.5
923.214	1903.8761	34987.15	34092.9
923.3531	1905.5071	34736.55	33841.85
923.4921	1907.1374	34661.6	33769.35
923.6311	1908.7669	34580.75	33689.55
923.77	1910.3957	34520.85	33628.75
923.909	1912.0237	34281.15	33388.95
924.0479	1913.651	34201.7	33309.45
924.1868	1915.2776	34085.1	33193.5
924.3257	1916.9034	33934	33044.55
924.4646	1918.5285	33771.65	32881
924.6034	1920.1528	33569.55	32677.8
924.7422	1921.7764	33595.9	32704
924.881	1923.3992	33422.55	32531.05
925.0198	1925.0213	33191	32298.65
925.1586	1926.6427	33066.45	32176.5
925.2973	1928.2633	33137.35	32134.35
925.436	1929.8832	32864.1	31968.95
925.5747	1931.5023	32680.15	31788.55
925.7134	1933.1207	32638.6	31746.2
925.852	1934.7383	32571.65	31677.95
925.9906	1936.3552	32413.5	31523.75
926.1292	1937.9714	32364	31472.3
926.2678	1939.5868	32142.6	31249.05
926.4064	1941.2015	32001.3	31108.85
926.5449	1942.8154	31906.1	31014.45
926.6834	1944.4286	31732.7	30840.05
926.8219	1946.041	31617.4	30706.75
926.9604	1947.6528	31429.2	30532.75
927.0988	1949.2637	31373.35	30481.85
927.2372	1950.8739	31270.25	30378.25
927.3756	1952.4834	31195.2	30304.9
927.514	1954.0921	31099.7	30206.9
927.6523	1955.7001	30986	30089.9
927.7907	1957.3074	30884.9	29994.3
927.929	1958.9139	30738.6	29847.9
928.0673	1960.5197	30627.3	29735.55
928.2055	1962.1247	30439.9	29549.4
928.3438	1963.729	30324.7	29437.35
928.482	1965.3325	30207.3	29293.35
928.6202	1966.9353	30093.2	29202.75
928.7584	1968.5374	29980.3	29087.2
928.8965	1970.1387	29883.75	28991.45
929.0346	1971.7393	29772.65	28879.85
929.1727	1973.3392	29670.55	28778.4
929.3108	1974.9383	29573.55	28683.25
929.4489	1976.5366	29428.9	28537.75
929.5869	1978.1342	29369.75	28476.6
929.7249	1979.7311	29316.2	28423.95
929.8629	1981.3273	29223.5	28329
930.0009	1982.9227	29103.25	28210.85
930.1388	1984.5173	28981.3	28091.15
930.2767	1986.1112	28845.75	27955.85
930.4146	1987.7044	28738.85	27849.9
930.5525	1989.2968	28679.45	27785.65
930.6904	1990.8885	28607.2	27711.15
930.8282	1992.4795	28556.3	27663.95
930.966	1994.0697	28439.3	27548.15
931.1038	1995.6592	28255.05	27363.45
931.2415	1997.2479	28173.7	27280.9
931.3793	1998.8359	28088.7	27198.3
931.517	2000.4232	27935.05	27044.6
931.6547	2002.0097	27849.95	26960.75
931.7923	2003.5955	27713.3	26821.85
931.93	2005.1805	27683.6	26792.15
932.0676	2006.7648	27599.4	26707.95
932.2052	2008.3484	27471.8	26579.6
932.3427	2009.9312	27471.5	26577.8
932.4803	2011.5133	27379.4	26489.7
932.6178	2013.0946	27261.15	26369.2
932.7553	2014.6752	27187.55	26296.45
932.8928	2016.2551	27123.75	26231.9
933.0302	2017.8342	26990.15	26098.85
933.1676	2019.4126	26915.5	26023.2
933.305	2020.9902	26776.5	25885.6
933.4424	2022.5672	26709.2	25815.35
933.5798	2024.1433	26667.6	25771.25
933.7171	2025.7188	26528.5	25640.9
933.8544	2027.2935	26426.15	25534.75
933.9917	2028.8674	26361.75	25472.2
934.129	2030.4406	26265.55	25375.35
934.2662	2032.0131	26116.6	25227
934.4034	2033.5849	26046.6	25150.9
934.5406	2035.1559	25986.75	25094.1
934.6778	2036.7261	25920.75	25029.45
934.8149	2038.2957	25845.15	24951.85
934.952	2039.8645	25764.25	24874.85
935.0891	2041.4325	25768.45	24874.5
935.2262	2042.9998	25653.75	24763.95
935.3632	2044.5664	25563.7	24670.75
935.5002	2046.1323	25453.2	24561.85
935.6372	2047.6974	25366.25	24476.4
935.7742	2049.2617	25293.15	24400.75
935.9111	2050.8254	25270.9	24356.65
936.048	2052.3883	25212.3	24317.9
936.1849	2053.9504	25111.9	24219.5
936.3218	2055.5118	25038.7	24147.6
936.4586	2057.0725	24919.55	24024.4
936.5955	2058.6325	24870.4	23978.15
936.7323	2060.1917	24716.3	23826.45
936.869	2061.7502	24740.7	23846.3
937.0058	2063.3079	24602.2	23711.1
937.1425	2064.8649	24509.6	23615.15
937.2792	2066.4212	24456.7	23560.95
937.4159	2067.9767	24382.85	23494.15
937.5525	2069.5315	24236.8	23345.6
937.6891	2071.0856	24121.8	23232.25
937.8257	2072.6389	24029.75	23138
937.9623	2074.1915	23908.65	23019.2
938.0989	2075.7433	23801.6	22908.9
938.2354	2077.2945	23759	22869.15
938.3719	2078.8448	23636.6	22745.7
938.5084	2080.3945	23599.05	22707
938.6448	2081.9434	23530.65	22639.6
938.7812	2083.4916	23462.8	22572.2
938.9176	2085.039	23339.5	22447.45
939.054	2086.5857	23315.1	22422.65
939.1903	2088.1317	23271.6	22381.85
939.3267	2089.677	23152.4	22260.6
939.463	2091.2215	23096.3	22205.4
939.5992	2092.7652	23029.55	22135.75
939.7355	2094.3083	22974	22081.95
939.8717	2095.8506	22925.5	22035.4
940.0079	2097.3921	22866.4	21974.2
940.1441	2098.933	22786.05	21895.3
940.2802	2100.4731	22736.55	21845.4
940.4163	2102.0124	22712	21814
940.5524	2103.5511	22592.7	21698.95
940.6885	2105.089	22592.7	21699
940.8245	2106.6261	22489.3	21597.6
940.9606	2108.1626	22420.9	21529.9
941.0965	2109.6983	22373.5	21454.35
941.2325	2111.2332	22265.9	21372.25
941.3684	2112.7675	22220.7	21327.45
941.5044	2114.301	22151.05	21257.25
941.6403	2115.8337	22107.45	21214.25
941.7761	2117.3657	22021.85	21130.45
941.912	2118.897	21984.75	21092.15
942.0478	2120.4276	21910.35	21013.5
942.1835	2121.9575	21736	20844.65
942.3193	2123.4866	21778.85	20871.05
942.455	2125.0149	21688.95	20793
942.5907	2126.5426	21567.95	20676.75
942.7264	2128.0695	21500.85	20606.25
942.8621	2129.5956	21460.75	20572
942.9977	2131.1211	21404	20508.05
943.1333	2132.6458	21346.85	20456.2
943.2689	2134.1698	21298.15	20405.8
943.4044	2135.693	21228.55	20333.45
943.54	2137.2155	21173.7	20279.4
943.6755	2138.7373	21109.05	20216.65
943.8109	2140.2584	21018.95	20127.3
943.9464	2141.7787	20932.2	20034.65
944.0818	2143.2983	20874.35	19982.65
944.2172	2144.8171	20768.55	19877.85
944.3526	2146.3353	20730.15	19837.7
944.4879	2147.8527	20625.45	19735.9
944.6232	2149.3693	20583.45	19691.1
944.7585	2150.8853	20522	19631.2
944.8938	2152.4005	20418.85	19526.15
945.029	2153.9149	20379.3	19484.65
945.1642	2155.4287	20288.95	19397.25
945.2994	2156.9417	20230.6	19338.85
945.4346	2158.454	20193.1	19298.7
945.5697	2159.9655	20155.4	19264.9
945.7048	2161.4764	20095.25	19205.3
945.8399	2162.9865	20010.65	19119.7
945.9749	2164.4958	20001.65	19108.45
946.1099	2166.0045	19891.8	18996.85
946.2449	2167.5124	19890	18997.05
946.3799	2169.0195	19784.15	18892.45
946.5148	2170.526	19729.4	18838
946.6498	2172.0317	19683.35	18793.7
946.7846	2173.5367	19620.95	18728.45
946.9195	2175.0409	19557.1	18665.65
947.0543	2176.5445	19566.6	18678.15
947.1891	2178.0473	19460.1	18568.95
947.3239	2179.5494	19367.65	18471.35
947.4587	2181.0507	19300.2	18407.9
947.5934	2182.5513	19233.75	18339.9
947.7281	2184.0512	19189.95	18298.1
947.8628	2185.5504	19097.55	18205.1
947.9974	2187.0488	18970.2	18079.1
948.132	2188.5465	18950.75	18058.45
948.2666	2190.0435	18863.75	17972.95
948.4012	2191.5397	18800.45	17910.55
948.5357	2193.0353	18755.45	17864.3
948.6702	2194.5301	18626.25	17732.55
948.8047	2196.0241	18560.05	17668.75
948.9392	2197.5175	18532.55	17640.8
949.0736	2199.0101	18424.15	17528.65
949.208	2200.502	18339.3	17447.7
949.3424	2201.9931	18256.1	17365.75
949.4767	2203.4835	18192.65	17300.1
949.611	2204.9733	18176.25	17278.9
949.7453	2206.4622	18108.7	17219.1
949.8796	2207.9505	18058.4	17165.2
950.0138	2209.438	17960.05	17070.5
950.148	2210.9248	17888.75	16998.35
950.2822	2212.4109	17829.55	16941.15
950.4164	2213.8962	17739.35	16845.45
950.5505	2215.3809	17739.5	16846.4
950.6846	2216.8648	17685.85	16792.55
950.8186	2218.3479	17628.9	16732.95
950.9527	2219.8304	17581.55	16687.8
951.0867	2221.3121	17488.5	16596.55
951.2207	2222.7931	17435	16544.6
951.3546	2224.2733	17378.25	16486.2
951.4886	2225.7529	17286.15	16395.15
951.6225	2227.2317	17201.5	16305.55
951.7563	2228.7098	17211.15	16320.8
951.8902	2230.1872	17120.4	16227.95
952.024	2231.6638	17076.2	16183.55
952.1578	2233.1397	17007.55	16109.35
952.2916	2234.6149	16943.8	16050.2
952.4253	2236.0894	16860.95	15968.55
952.559	2237.5632	16827.65	15927.95
952.6927	2239.0362	16779.1	15886.2
952.8263	2240.5085	16706.5	15814.95
952.9599	2241.9801	16617.6	15726.15
953.0935	2243.4509	16554.8	15664.35
953.2271	2244.921	16513.9	15623.65
953.3606	2246.3904	16455.7	15561.9
953.4941	2247.8591	16407.85	15517.5
953.6276	2249.3271	16359.7	15468
953.7611	2250.7943	16255.55	15363.1
953.8945	2252.2608	16231.45	15339.3
954.0279	2253.7266	16172.2	15280.9
954.1612	2255.1917	16143.7	15251.85
954.2946	2256.656	16048.45	15155.85
954.4279	2258.1197	16022.05	15129.95
954.5612	2259.5826	15963.25	15069.6
954.6944	2261.0447	15954.2	15061.35
954.8276	2262.5062	15855.55	14961.75
954.9608	2263.9669	15864	14970
955.094	2265.4269	15798.5	14905.7
955.2271	2266.8862	15739.7	14848.65
955.3602	2268.3448	15673.25	14780.85
955.4933	2269.8026	15668.15	14775.65
955.6264	2271.2598	15629.75	14738.15
955.7594	2272.7162	15547.55	14655.5
955.8924	2274.1719	15495.15	14601.5
956.0253	2275.6268	15438.4	14545.8
956.1583	2277.0811	15390.1	14497.05
956.2912	2278.5346	15365.8	14476.55
956.4241	2279.9874	15304.25	14413
956.5569	2281.4395	15282.45	14391.7
956.6897	2282.8908	15197.8	14300.9
956.8225	2284.3414	15198.6	14304.75
956.9553	2285.7914	15108.05	14218
957.088	2287.2406	15022.95	14129.25
957.2207	2288.689	15011.85	14120.2
957.3534	2290.1368	14964.45	14073.25
957.486	2291.5838	14906.5	14012.45
957.6186	2293.0302	14842.5	13948.1
957.7512	2294.4758	14791.5	13898.4
957.8838	2295.9206	14752.65	13858.05
958.0163	2297.3648	14709.3	13818.1
958.1488	2298.8082	14688.15	13795.4
958.2813	2300.251	14661.85	13771.55
958.4137	2301.693	14566.4	13671.25
958.5461	2303.1343	14563.75	13671.25
958.6785	2304.5748	14484	13592.55
958.8108	2306.0147	14418.45	13528.05
958.9432	2307.4538	14413.8	13518.15
959.0754	2308.8922	14385.65	13494.8
959.2077	2310.3299	14311.7	13419.55
959.3399	2311.7669	14284.35	13393.5
959.4721	2313.2031	14226.9	13335.25
959.6043	2314.6387	14167.25	13275.95
959.7365	2316.0735	14099.65	13208.4
959.8686	2317.5076	14059.55	13168.1
960.0006	2318.941	14028.4	13137.9
960.1327	2320.3737	13974.05	13081.7
960.2647	2321.8056	13951.1	13056.6
960.3967	2323.2369	13871.8	12975.4
960.5287	2324.6674	13843.35	12947.95
960.6606	2326.0972	13775.85	12883.1
960.7925	2327.5263	13723.85	12833.05
960.9244	2328.9547	13679	12785.7
961.0562	2330.3823	13660.65	12769.4
961.1881	2331.8092	13667.4	12772.65
961.3198	2333.2355	13550.7	12659.6
961.4516	2334.661	13543.85	12652.7
961.5833	2336.0858	13526.8	12631.85
961.715	2337.5098	13490.15	12599.6
961.8467	2338.9332	13448.7	12558.45
961.9783	2340.3558	13393.85	12497.65
962.1099	2341.7778	13303.05	12411.9
962.2415	2343.199	13277.65	12384.2
962.373	2344.6195	13232.75	12339.25
962.5045	2346.0393	13206	12316.8
962.636	2347.4583	13185.1	12292.2
962.7675	2348.8767	13122.8	12230.7
962.8989	2350.2943	13084.45	12191.75
963.0303	2351.7113	13053.7	12158.6
963.1617	2353.1275	12986.25	12094.9
963.293	2354.543	12962.75	12047.8
963.4243	2355.9578	12897.45	12004.6
963.5556	2357.3718	12846	11955.9
963.6868	2358.7852	12758.4	11863.65
963.818	2360.1978	12712.85	11818.2
963.9492	2361.6098	12710.25	11819.75
964.0803	2363.021	12666.95	11771.7
964.2114	2364.4315	12619.9	11728.8
964.3425	2365.8413	12583.8	11686.5
964.4736	2367.2504	12529.15	11638.05
964.6046	2368.6587	12463.35	11572.6
964.7356	2370.0664	12422.4	11531.6
964.8666	2371.4733	12362.35	11471.7
964.9975	2372.8795	12355.55	11463
965.1284	2374.285	12281.9	11388.55
965.2593	2375.6899	12205.25	11313.45
965.3901	2377.0939	12128.3	11235.9
965.5209	2378.4973	12083.85	11193.7
965.6517	2379.9	12070	11177.4
965.7825	2381.3019	11991.5	11100.85
965.9132	2382.7032	12002.6	11112.8
966.0439	2384.1037	11955	11065.3
966.1745	2385.5035	11885.35	10995.3
966.3051	2386.9027	11859.45	10969.1
966.4357	2388.3011	11841.7	10948.35
966.5663	2389.6987	11780.25	10886.2
966.6968	2391.0957	11749.2	10859.05
966.8273	2392.492	11710.7	10820.7
966.9578	2393.8876	11639.7	10748.7
967.0882	2395.2824	11562.35	10670.2
967.2186	2396.6765	11524.3	10634.9
967.349	2398.07	11490.35	10601.15
967.4793	2399.4627	11467.65	10577.4
967.6097	2400.8547	11425.8	10535.3
967.7399	2402.246	11379.8	10480.2
967.8702	2403.6366	11286.5	10395.35
968.0004	2405.0265	11242.5	10352.05
968.1306	2406.4156	11249.8	10355.8
968.2607	2407.8041	11197.85	10305.05
968.3909	2409.1918	11134.95	10242.4
968.521	2410.5789	11083.1	10190.9
968.651	2411.9652	11034.9	10141.2
968.781	2413.3508	10967.45	10076.15
968.911	2414.7358	10949.55	10055.5
969.041	2416.12	10928.9	10037.2
969.1709	2417.5035	10888.4	9997.95
969.3008	2418.8863	10839.6	9947.6
969.4307	2420.2684	10839.5	9947.8
969.5606	2421.6497	10770.8	9877.4
969.6904	2423.0304	10721.4	9831.15
969.8201	2424.4104	10692.3	9800.75
969.9499	2425.7896	10645.75	9747.75
970.0796	2427.1682	10621.25	9730.6
970.2093	2428.546	10587.15	9694.5
970.3389	2429.9232	10562.5	9668.35
970.4685	2431.2996	10522.35	9630.75
970.5981	2432.6753	10484.8	9593.85
970.7277	2434.0503	10470.95	9579.55
970.8572	2435.4246	10424.45	9533.05
970.9867	2436.7982	10381.35	9487.9
971.1161	2438.1711	10329.35	9439.25
971.2456	2439.5433	10298.8	9407.35
971.375	2440.9148	10237.85	9346
971.5043	2442.2856	10198.3	9307.5
971.6336	2443.6557	10183.5	9291.7
971.7629	2445.025	10152.45	9260.55
971.8922	2446.3937	10143.8	9251.4
972.0214	2447.7617	10070.1	9179.55
972.1506	2449.1289	10058.8	9168.75
972.2798	2450.4955	10037.6	9141.9
972.4089	2451.8613	10002.75	9112.3
972.538	2453.2265	9969.4	9078
972.6671	2454.5909	9961.2	9070.15
972.7961	2455.9546	9916.8	9027.25
972.9251	2457.3177	9873.1	8982.55
973.0541	2458.68	9868.75	8977.7
973.1831	2460.0416	9857	8966.6
973.312	2461.4025	9805.35	8912.4
973.4408	2462.7627	9781.25	8878.05
973.5697	2464.1222	9754.2	8863.2
973.6985	2465.4811	9714.9	8821.9
973.8273	2466.8392	9688	8796.35
973.956	2468.1966	9676	8781.9
974.0847	2469.5533	9656.1	8762.4
974.2134	2470.9093	9622.5	8730.3
974.3421	2472.2645	9549.25	8657.35
974.4707	2473.6191	9566.9	8676.05
974.5993	2474.973	9476.2	8585.05
974.7278	2476.3262	9469.2	8578.3
974.8563	2477.6787	9454.7	8565.85
974.9848	2479.0305	9395.05	8504.3
975.1132	2480.3816	9373.6	8480.55
975.2417	2481.7319	9327.75	8435.7
975.37	2483.0816	9293.7	8400.8
975.4984	2484.4306	9265.8	8371.2
975.6267	2485.7789	9221.95	8330.85
975.755	2487.1264	9171.8	8279.85
975.8833	2488.4733	9140.8	8250.55
976.0115	2489.8195	9122.9	8224.55
976.1397	2491.165	9070.25	8176.25
976.2678	2492.5097	9032.1	8139
976.3959	2493.8538	8997.2	8104.65
976.524	2495.1972	8959.25	8067.45
976.6521	2496.5398	8933.7	8042.1
976.7801	2497.8818	8944.75	8050.7
976.9081	2499.2231	8886.9	7994.95
977.036	2500.5637	8833.8	7941.05
977.164	2501.9035	8797.05	7904.55
977.2918	2503.2427	8784.55	7889.5
977.4197	2504.5812	8742.8	7849.8
977.5475	2505.919	8733.3	7839.7
977.6753	2507.256	8714	7821.7
977.8031	2508.5924	8675.4	7783.65
977.9308	2509.9281	8657.4	7758.75
978.0585	2511.2631	8604.95	7714.55
978.1861	2512.5974	8585.45	7693.95
978.3137	2513.9309	8561.8	7669.4
978.4413	2515.2638	8529.1	7602.4
978.5689	2516.596	8487.6	7595.8
978.6964	2517.9275	8435.3	7543.45
978.8239	2519.2583	8416.8	7523.85
978.9513	2520.5884	8396.55	7504.45
979.0788	2521.9178	8366.25	7475.1
979.2062	2523.2465	8328.55	7438.1
979.3335	2524.5745	8277.4	7386.15
979.4608	2525.9018	8284.05	7390.5
979.5881	2527.2284	8249.75	7360.75
979.7154	2528.5543	8211.75	7320.2
979.8426	2529.8796	8197.55	7306.15
979.9698	2531.2041	8172.2	7280.15
980.0969	2532.5279	8152.6	7260.25
980.224	2533.851	8152	7259.3
980.3511	2535.1735	8111.9	7219.55
980.4781	2536.4952	8089.8	7198.9
980.6052	2537.8163	8086.05	7193.3
980.7321	2539.1366	8034.3	7142.95
980.8591	2540.4562	8031.65	7138.45
980.986	2541.7752	8007.15	7114.65
981.1129	2543.0935	8000.8	7108.5
981.2397	2544.411	7958.35	7066.55
981.3665	2545.7279	7942.35	7051.25
981.4933	2547.0441	7941.15	7051.1
981.62	2548.3596	7923.6	7029.75
981.7467	2549.6744	7883	6993.4
981.8734	2550.9885	7878.8	6986.4
982.0001	2552.3019	7844.3	6953
982.1267	2553.6146	7825.05	6933.4
982.2532	2554.9266	7801.35	6908.45
982.3798	2556.2379	7763.95	6869.4
982.5063	2557.5485	7757.6	6864.8
982.6327	2558.8585	7729.1	6828.25
982.7592	2560.1677	7720.6	6824.6
982.8856	2561.4762	7712	6821.45
983.0119	2562.7841	7690.5	6795.6
983.1383	2564.0913	7660.75	6771.1
983.2646	2565.3977	7649.05	6756.65
983.3908	2566.7035	7609.2	6714.9
983.517	2568.0086	7605.7	6711.9
983.6432	2569.313	7604.5	6712.1
983.7694	2570.6167	7565.7	6672.45
983.8955	2571.9197	7547.95	6655.45
984.0216	2573.222	7522.6	6629.7
984.1476	2574.5236	7505.05	6613.4
984.2737	2575.8246	7495.75	6602.8
984.3996	2577.1248	7479.9	6585.75
984.5256	2578.4244	7466.05	6573.6
984.6515	2579.7232	7449.55	6558.25
984.7774	2581.0214	7450.85	6530.7
984.9032	2582.3189	7429.75	6538.35
985.029	2583.6157	7409.25	6512.2
985.1548	2584.9118	7406.15	6514.2
985.2806	2586.2072	7359.05	6469.25
985.4063	2587.5019	7327.9	6436.7
985.5319	2588.7959	7334.4	6443.15
985.6576	2590.0893	7310.65	6418.55
985.7832	2591.3819	7285	6393.4
985.9087	2592.6739	7246.55	6357.25
986.0343	2593.9652	7234.9	6341.7
986.1597	2595.2557	7209.7	6316.55
986.2852	2596.5456	7188.2	6293.75
986.4106	2597.8348	7155.2	6263.7
986.536	2599.1234	7113.35	6223.7
986.6614	2600.4112	7120.2	6226.55
986.7867	2601.6983	7088.35	6193.7
986.912	2602.9848	7051.9	6159.75
987.0372	2604.2705	7032.05	6134.65
987.1624	2605.5556	7032.85	6142.65
987.2876	2606.84	7037.05	6147.45
987.4128	2608.1237	6982.6	6089.3
987.5379	2609.4067	6940.8	6047.3
987.6629	2610.689	6918.35	6016.95
987.788	2611.9707	6912.45	6016.9
987.913	2613.2516	6878.65	5983.3
988.0379	2614.5319	6830.4	5939.1
988.1629	2615.8115	6808.3	5915.65
988.2878	2617.0903	6808.15	5915.15
988.4126	2618.3685	6775.5	5884.8
988.5375	2619.6461	6732.65	5842.5
988.6622	2620.9229	6732.8	5843.2
988.787	2622.199	6707.7	5813.65
988.9117	2623.4745	6683.05	5790.65
989.0364	2624.7493	6671.45	5779.6
989.161	2626.0234	6644.25	5752.4
989.2857	2627.2968	6618.4	5728
989.4102	2628.5695	6593.1	5699.9
989.5348	2629.8415	6559.95	5670.25
989.6593	2631.1128	6539.75	5646.15
989.7837	2632.3835	6514.6	5623.65
989.9082	2633.6535	6490.65	5599.85
990.0326	2634.9228	6456.9	5566.05
990.1569	2636.1914	6442.35	5549.05
990.2812	2637.4593	6439.6	5540.75
990.4055	2638.7265	6417.65	5524.6
990.5298	2639.9931	6390.4	5498.05
990.654	2641.259	6391.2	5498.15
990.7782	2642.5242	6360.45	5467.15
990.9023	2643.7887	6327.25	5435.25
991.0264	2645.0525	6307.8	5415.2
991.1505	2646.3156	6294.9	5402.75
991.2745	2647.5781	6272.3	5382
991.3985	2648.8398	6233	5344.45
991.5225	2650.1009	6226.55	5327.45
991.6464	2651.3613	6198.95	5305.75
991.7703	2652.6211	6205.55	5313
991.8942	2653.8801	6165.55	5274.6
992.018	2655.1385	6151.55	5256.75
992.1418	2656.3961	6126.7	5234.4
992.2655	2657.6531	6118.15	5227.65
992.3892	2658.9094	6121.5	5229.65
992.5129	2660.1651	6102.1	5211.2
992.6366	2661.42	6101.65	5210
992.7602	2662.6743	6074.1	5180.9
992.8837	2663.9279	6061.3	5169.1
993.0073	2665.1808	6032.3	5138.5
993.1307	2666.433	6006.05	5114.95
993.2542	2667.6846	5994.35	5102
993.3776	2668.9354	5973.4	5077.85
993.501	2670.1856	5955.9	5064.5
993.6244	2671.4351	5955	5063.05
993.7477	2672.6839	5940.45	5047.15
993.8709	2673.9321	5919.55	5028.15
993.9942	2675.1795	5897.75	5005.15
994.1174	2676.4263	5869.6	4978.15
994.2405	2677.6724	5863.25	4971.6
994.3637	2678.9179	5849.8	4958.55
994.4868	2680.1626	5848.1	4958.4
994.6098	2681.4067	5842.3	4950.75
994.7328	2682.6501	5794.05	4902.75
994.8558	2683.8928	5790.15	4898.55
994.9788	2685.1348	5777.4	4886
995.1017	2686.3761	5740.3	4849.45
995.2245	2687.6168	5724.5	4833
995.3474	2688.8568	5697.5	4807
995.4702	2690.0961	5681.5	4791.55
995.5929	2691.3348	5674.25	4782.15
995.7156	2692.5727	5641.9	4750.9
995.8383	2693.81	5629.5	4738.8
995.961	2695.0466	5631.35	4742.35
996.0836	2696.2826	5611.45	4718
996.2062	2697.5178	5609.95	4714.55
996.3287	2698.7524	5560.85	4668.4
996.4512	2699.9863	5564.55	4669.75
996.5737	2701.2195	5542.15	4650.65
996.6961	2702.452	5533.45	4639.6
996.8185	2703.6839	5516	4623.4
996.9408	2704.9151	5480.5	4591.25
997.0631	2706.1456	5487.35	4595.9
997.1854	2707.3755	5482.85	4589.2
997.3077	2708.6046	5481.45	4585.4
997.4299	2709.8331	5444.2	4553.4
997.552	2711.0609	5435.45	4544.25
997.6742	2712.2881	5411.15	4518.75
997.7963	2713.5145	5423.75	4529.9
997.9183	2714.7403	5414.9	4523.75
998.0403	2715.9654	5395.1	4502.85
998.1623	2717.1899	5404.75	4496.7
998.2842	2718.4136	5390.45	4497.75
998.4062	2719.6367	5387.25	4497.1
998.528	2720.8591	5365.65	4469.15
998.6498	2722.0809	5353.9	4460.4
998.7716	2723.3019	5352.25	4456.1
998.8934	2724.5223	5326.5	4431.65
999.0151	2725.7421	5319.7	4428.2
999.1368	2726.9611	5325.3	4431.25
999.2584	2728.1795	5291.2	4395.15
999.38	2729.3972	5282.5	4390.45
999.5016	2730.6142	5265.8	4366.45
999.6231	2731.8306	5211.35	4319.2
999.7446	2733.0462	5186.2	4292.5
999.8661	2734.2612	5146.85	4249.9
999.9875	2735.4756	5125.25	4232.15
1000.1089	2736.6892	5100.45	4209.7
1000.2302	2737.9022	5061.65	4171.25
1000.3515	2739.1145	5010.3	4120.25
1000.4728	2740.3262	5015.9	4115.15
1000.594	2741.5372	4983.3	4090.3
1000.7152	2742.7475	4946.55	4053.7
1000.8363	2743.9571	4914.75	4020.4
1000.9575	2745.1661	4900.55	4004.9
1001.0785	2746.3744	4887.5	3992.9
1001.1996	2747.582	4854.4	3960.25
1001.3206	2748.7889	4848.85	3955.5
1001.4415	2749.9952	4826.15	3934.3
1001.5625	2751.2008	4798.15	3904.35
1001.6833	2752.4057	4800.7	3905.1
1001.8042	2753.61	4771.95	3879.55
1001.925	2754.8136	4767.6	3871.5
1002.0458	2756.0165	4733.1	3842.15
1002.1665	2757.2188	4722.2	3831.4
1002.2872	2758.4204	4712.65	3821.75
1002.4078	2759.6213	4690.4	3797.3
1002.5285	2760.8215	4684.1	3788
1002.649	2762.0211	4657.75	3762.45
1002.7696	2763.22	4661.75	3766.9
1002.8901	2764.4182	4650.35	3757.4
1003.0106	2765.6158	4626.85	3734.9
1003.131	2766.8127	4591.3	3698.1
1003.2514	2768.009	4601.35	3708.85
1003.3717	2769.2045	4562.45	3670.65
1003.492	2770.3994	4577.3	3683.3
1003.6123	2771.5936	4564.4	3672.4
1003.7325	2772.7872	4518.75	3628.45
1003.8527	2773.9801	4507.75	3614.8
1003.9729	2775.1723	4506.9	3599.4
1004.093	2776.3639	4476.8	3586.55
1004.2131	2777.5548	4472.2	3579
1004.3331	2778.745	4459.05	3566.85
1004.4531	2779.9346	4446.55	3556.85
1004.5731	2781.1235	4431.95	3540.6
1004.693	2782.3117	4418.8	3527.05
1004.8129	2783.4992	4416.4	3524.35
1004.9328	2784.6861	4420.3	3527.85
1005.0526	2785.8723	4409.75	3517.45
1005.1723	2787.0579	4403.25	3513.15
1005.2921	2788.2428	4394.85	3504.2
1005.4118	2789.427	4381.4	3490.7
1005.5314	2790.6106	4373	3481.65
1005.651	2791.7935	4357.4	3464.35
1005.7706	2792.9757	4362.15	3470.55
1005.8902	2794.1573	4372.85	3477.8
1006.0097	2795.3382	4380.65	3487
1006.1291	2796.5184	4377.1	3487.25
1006.2485	2797.698	4369.3	3475.7
1006.3679	2798.8769	4396.15	3504.15
1006.4873	2800.0551	4365.25	3474.05
1006.6066	2801.2327	4392.6	3499.85
1006.7258	2802.4096	4384.6	3492.85
1006.8451	2803.5859	4393.8	3500.8
1006.9642	2804.7615	4394.7	3502.4
1007.0834	2805.9364	4409	3519.35
1007.2025	2807.1106	4438.55	3546.4
1007.3216	2808.2842	4437.45	3545.4
1007.4406	2809.4572	4465.1	3573.45
1007.5596	2810.6294	4490.7	3598.45
1007.6785	2811.801	4534.9	3644.25
1007.7975	2812.972	4559.75	3669.35
1007.9163	2814.1423	4571.75	3680.7
1008.0352	2815.3119	4630.1	3736.95
1008.154	2816.4808	4659.6	3769.2
1008.2727	2817.6491	4685.3	3794.15
1008.3914	2818.8167	4735.75	3845.45
1008.5101	2819.9837	4780.4	3884.75
1008.6288	2821.15	4801.7	3909.5
1008.7474	2822.3157	4830.65	3939.9
1008.8659	2823.4807	4884.15	3994.65
1008.9844	2824.645	4916.05	4022.7
1009.1029	2825.8086	4939.1	4051.35
1009.2214	2826.9716	4975.5	4085.35
1009.3398	2828.134	5014.95	4123.95
1009.4581	2829.2957	5034.4	4143.85
1009.5764	2830.4567	5047.65	4156.25
1009.6947	2831.617	5055.4	4163.55
1009.813	2832.7767	5059.15	4169
1009.9312	2833.9358	5056.1	4165.4
1010.0493	2835.0941	5047.15	4154.8
1010.1675	2836.2519	5036.15	4146.05
1010.2855	2837.4089	5011.95	4121.05
1010.4036	2838.5653	4999.5	4108.15
1010.5216	2839.7211	4993.45	4103.8
1010.6396	2840.8761	4989.9	4098.05
1010.7575	2842.0306	5012.2	4123
1010.8754	2843.1843	5041.5	4149.35
1010.9932	2844.3374	5061	4167.95
1011.111	2845.4899	5118.2	4225.2
1011.2288	2846.6417	5196.3	4304.9
1011.3465	2847.7928	5266.6	4377.35
1011.4642	2848.9433	5338.45	4448.95
1011.5818	2850.0931	5402.3	4512
1011.6995	2851.2422	5466.3	4574.3
1011.817	2852.3907	5539.95	4648.75
1011.9345	2853.5385	5601.85	4708.2
1012.052	2854.6857	5655.25	4735.7
1012.1695	2855.8323	5683.8	4792.8
1012.2869	2856.9781	5700.9	4809.85
1012.4042	2858.1233	5757.4	4865.75
1012.5216	2859.2679	5797.45	4907
1012.6389	2860.4118	5839.8	4947.3
1012.7561	2861.555	5865.15	4968.85
1012.8733	2862.6976	5893.2	4999.9
1012.9905	2863.8395	5910	5021.55
1013.1076	2864.9808	5913.4	5022.2
1013.2247	2866.1214	5943.7	5052.35
1013.3417	2867.2614	5940.95	5049.2
1013.4587	2868.4007	5932.65	5038.2
1013.5757	2869.5393	5931.25	5037.4
1013.6926	2870.6773	5937.85	5041.9
1013.8095	2871.8146	5953.7	5060.9
1013.9263	2872.9513	5950.85	5058.65
1014.0431	2874.0874	5910.95	5018.95
1014.1599	2875.2227	5900.1	5010.55
1014.2766	2876.3574	5883	4990.1
1014.3933	2877.4915	5848.7	4956.65
1014.51	2878.6249	5803.1	4913.35
1014.6266	2879.7577	5775.45	4881.25
1014.7431	2880.8898	5744.05	4841.55
1014.8596	2882.0212	5723.65	4833.55
1014.9761	2883.152	5697.8	4805.55
1015.0925	2884.2821	5680.25	4790.4
1015.2089	2885.4116	5664.65	4773.95
1015.3253	2886.5405	5644.45	4754.6
1015.4416	2887.6686	5657.45	4763.3
1015.5579	2888.7962	5635.6	4745.9
1015.6741	2889.923	5629.1	4740.95
1015.7903	2891.0493	5620.9	4730.35
1015.9065	2892.1748	5640.75	4748.4
1016.0226	2893.2997	5646.35	4755.4
1016.1387	2894.424	5627.7	4736.7
1016.2547	2895.5476	5640.45	4748.95
1016.3707	2896.6706	5652.9	4762.15
1016.4866	2897.7929	5681.9	4792
1016.6025	2898.9145	5706.4	4814.8
1016.7184	2900.0355	5718.65	4827.85
1016.8342	2901.1559	5742.35	4851.6
1016.95	2902.2756	5785.8	4889.05
1017.0658	2903.3946	5806.6	4916.1
1017.1815	2904.513	5815	4921.35
1017.2971	2905.6308	5848.25	4958.15
1017.4127	2906.7479	5845.75	4955.8
1017.5283	2907.8643	5855.6	4965.9
1017.6439	2908.9801	5855.1	4966.15
1017.7594	2910.0953	5849.2	4958
1017.8748	2911.2098	5844.5	4947.95
1017.9902	2912.3236	5821.7	4922.2
1018.1056	2913.4368	5832.45	4938.55
1018.2209	2914.5494	5802.25	4910.45
1018.3362	2915.6613	5757	4859
1018.4515	2916.7725	5735.25	4839.7
1018.5667	2917.8831	5695.35	4803
1018.6819	2918.9931	5660.25	4766.15
1018.797	2920.1024	5623.6	4731.3
1018.9121	2921.211	5586.95	4697.65
1019.0271	2922.319	5560.5	4667.8
1019.1421	2923.4264	5533.6	4643.35
1019.2571	2924.5331	5508.55	4620.45
1019.372	2925.6391	5499.25	4608.05
1019.4869	2926.7445	5457.55	4567.4
1019.6017	2927.8493	5460.5	4568.45
1019.7165	2928.9534	5442.6	4550.1
1019.8313	2930.0569	5440.8	4545.45
1019.946	2931.1597	5416.8	4526.05
1020.0606	2932.2619	5406.15	4516.5
1020.1753	2933.3634	5391.2	4500.25
1020.2899	2934.4643	5381.6	4483.85
1020.4044	2935.5645	5359.5	4462.2
1020.5189	2936.6641	5308.45	4412.8
1020.6334	2937.763	5228.85	4339.3
1020.7478	2938.8613	5179.85	4288
1020.8622	2939.959	5122.85	4227.1
1020.9765	2941.056	5045.15	4156.25
1021.0908	2942.1523	4947.35	4054.3
1021.2051	2943.248	4846.25	3955.2
1021.3193	2944.3431	4753.8	3863.2
1021.4334	2945.4375	4648.75	3757.95
1021.5476	2946.5313	4528.7	3639.65
1021.6617	2947.6244	4423.15	3530.6
1021.7757	2948.7169	4299.55	3408.55
1021.8897	2949.8087	4208.25	3317.5
1022.0037	2950.8999	4102.1	3211
1022.1176	2951.9904	4039	3148.75
1022.2315	2953.0803	3941.65	3048.75
1022.3453	2954.1696	3851.3	2960.55
1022.4591	2955.2582	3819.7	2930.25
1022.5728	2956.3462	3762.4	2871.95
1022.6865	2957.4335	3698.4	2806.1
1022.8002	2958.5202	3657.75	2765
1022.9138	2959.6062	3605.15	2713.35
1023.0274	2960.6916	3592	2702.3
1023.141	2961.7764	3558.05	2666.55
1023.2545	2962.8605	3544.75	2653.9
1023.3679	2963.9439	3518.45	2629.35
1023.4813	2965.0267	3504.5	2612.55
1023.5947	2966.1089	3514.05	2600.15
1023.708	2967.1905	3476	2586.25
1023.8213	2968.2714	3462.4	2573.45
1023.9346	2969.3516	3444.6	2552.1
1024.0478	2970.4312	3469.3	2570.2
1024.1609	2971.5102	3433.65	2542.4
1024.274	2972.5885	3434.3	2543.5
1024.3871	2973.6662	3429.45	2532.75
1024.5002	2974.7432	3418.4	2527.3
1024.6132	2975.8196	3400.45	2509.25
1024.7261	2976.8954	3392.6	2504.45
1024.839	2977.9705	3370.25	2480.6
1024.9519	2979.045	3341.1	2452.2
1025.0647	2980.1188	3340.95	2451.05
1025.1775	2981.192	3317.2	2424.8
1025.2902	2982.2645	3268.45	2377.3
1025.4029	2983.3364	3241.65	2351.9
1025.5156	2984.4077	3197.1	2308
1025.6282	2985.4783	3173.45	2275.6
1025.7407	2986.5483	3134.85	2246.65
1025.8532	2987.6177	3101.4	2211.85
1025.9657	2988.6864	3070.7	2179.4
1026.0782	2989.7545	3019.8	2126.65
1026.1906	2990.8219	2979.85	2089.3
1026.3029	2991.8887	2930.3	2036.85
1026.4152	2992.9548	2895.3	2006.35
1026.5275	2994.0204	2865.65	1975.85
1026.6397	2995.0852	2842.75	1951.65
1026.7519	2996.1495	2806	1914.2
1026.864	2997.2131	2769.15	1878.45
1026.9761	2998.276	2761.95	1869.65
1027.0882	2999.3383	2740.6	1848.9
1027.2002	3000.4	2710.7	1818.25
1027.3122	3001.4611	2684.7	1793.55
1027.4241	3002.5215	2671.5	1780.15
1027.536	3003.5812	2644.7	1754.9
1027.6478	3004.6404	2635.4	1744.85
1027.7596	3005.6989	2616	1723.3
1027.8714	3006.7567	2613.9	1725.2
1027.9831	3007.8139	2599.15	1684.2
1028.0947	3008.8705	2573.45	1683.65
1028.2064	3009.9264	2572.4	1677.85
1028.3179	3010.9818	2570.35	1681.7
1028.4295	3012.0364	2560.8	1669.35
1028.541	3013.0905	2542.25	1651.6
1028.6524	3014.1439	2534.8	1643.15
1028.7638	3015.1966	2529.3	1640.5
1028.8752	3016.2487	2533.75	1643.6
1028.9865	3017.3002	2534.15	1637.45
1029.0978	3018.3511	2513.7	1624.25
1029.209	3019.4013	2505.55	1613.95
1029.3202	3020.4509	2509.65	1618.05
1029.4314	3021.4998	2503.05	1612
1029.5425	3022.5481	2495.2	1604.95
1029.6535	3023.5958	2487.5	1597.85
1029.7645	3024.6428	2490.4	1599.35
1029.8755	3025.6892	2476.7	1587.6
1029.9864	3026.735	2485.7	1596.35
1030.0973	3027.7802	2473.4	1582.95
1030.2082	3028.8247	2469.9	1578.75
1030.319	3029.8685	2477.15	1585.65
1030.4297	3030.9118	2471.9	1581
1030.5404	3031.9544	2471.35	1580.4
1030.6511	3032.9963	2474	1583.95
1030.7617	3034.0376	2464	1575.25
1030.8723	3035.0783	2476.15	1582.55
1030.9829	3036.1184	2462.7	1570.3
1031.0934	3037.1578	2462.6	1571.8
1031.2038	3038.1966	2470.1	1577.9
1031.3142	3039.2348	2457.45	1567.7
1031.4246	3040.2723	2456.35	1558.85
1031.5349	3041.3092	2454.9	1566.1
1031.6452	3042.3455	2430.6	1540
1031.7554	3043.3811	2425.45	1534.95
1031.8656	3044.4161	2413.7	1521.95
1031.9758	3045.4505	2415	1525.65
1032.0859	3046.4842	2408.15	1517.35
1032.1959	3047.5173	2391.1	1501.95
1032.3059	3048.5498	2387.1	1498.9
1032.4159	3049.5816	2367.8	1478.45
1032.5258	3050.6128	2362.65	1470.65
1032.6357	3051.6434	2354.3	1463.25
1032.7455	3052.6734	2338.1	1446.7
1032.8553	3053.7027	2337.05	1446.7
1032.9651	3054.7314	2320.8	1431.25
1033.0748	3055.7594	2304.05	1414.95
1033.1845	3056.7868	2301.2	1409.5
1033.2941	3057.8136	2278.65	1390.75
1033.4037	3058.8398	2274.95	1386.95
1033.5132	3059.8653	2266.3	1375.25
1033.6227	3060.8902	2260.75	1368.4
1033.7321	3061.9145	2246	1354.5
1033.8415	3062.9381	2238.25	1347.7
1033.9509	3063.9612	2251.05	1344.75
1034.0602	3064.9835	2215.7	1325.3
1034.1694	3066.0053	2202	1309.55
1034.2787	3067.0264	2192.65	1303.05
1034.3878	3068.0469	2193.35	1302.65
1034.497	3069.0668	2184.65	1291.75
1034.6061	3070.086	2177.6	1288.65
1034.7151	3071.1046	2158	1268.3
1034.8241	3072.1226	2145.1	1253.6
1034.9331	3073.1399	2125.7	1236.45
1035.042	3074.1567	2111.45	1219.65
1035.1508	3075.1727	2102.95	1209.1
1035.2597	3076.1882	2082.8	1192.5
1035.3684	3077.203	2083.15	1192.25
1035.4772	3078.2173	2058.45	1165.8
1035.5859	3079.2308	2061.3	1167
1035.6945	3080.2438	2049	1157.35
1035.8031	3081.2561	2021.8	1131.05
1035.9117	3082.2678	2020.7	1132.15
1036.0202	3083.2789	2010.35	1117.15
1036.1286	3084.2893	2001	1110
1036.2371	3085.2991	1996	1103
1036.3454	3086.3083	1985.3	1090.7
1036.4538	3087.3169	1982.1	1092.7
1036.562	3088.3248	1972.4	1080.2
1036.6703	3089.3321	1965.85	1074.8
1036.7785	3090.3388	1953.35	1062.3
1036.8866	3091.3449	1938.4	1047.25
1036.9948	3092.3503	1935.35	1042.35
1037.1028	3093.3551	1919.5	1030.1
1037.2108	3094.3593	1916.6	1027.85
1037.3188	3095.3629	1908.3	1018.7
1037.4267	3096.3658	1899.55	1007.3
1037.5346	3097.3681	1897.2	1008.9
1037.6425	3098.3698	1901.55	1009.6
1037.7503	3099.3708	1891.55	995.95
1037.858	3100.3713	1876.05	985.55
1037.9657	3101.3711	1869.05	977.85
1038.0734	3102.3702	1969.95	959.45
1038.181	3103.3688	1872.8	978.35
1038.2886	3104.3667	1846.95	956.55
1038.3961	3105.364	1850.15	960.3
1038.5036	3106.3607	1840.55	949.85
1038.611	3107.3568	1835.3	942.75
1038.7184	3108.3522	1825.25	935.15
1038.8257	3109.347	1823.2	931.75
1038.933	3110.3412	1819.1	924.35
1039.0403	3111.3348	1809.1	919.85
1039.1475	3112.3277	1799.65	908.55
1039.2547	3113.32	1806.95	916.3
1039.3618	3114.3117	1795.2	904.95
1039.4689	3115.3028	1789.2	898.4
1039.5759	3116.2932	1789.35	897.95
1039.6829	3117.2831	1787	892.35
1039.7898	3118.2723	1770.75	880.05
1039.8967	3119.2608	1769	880.05
1040.0035	3120.2488	1762.35	873.35
1040.1103	3121.2361	1761.25	871.6
1040.2171	3122.2229	1752.8	863.55
1040.3238	3123.209	1746.2	854.4
1040.4305	3124.1944	1746.35	857.3
1040.5371	3125.1793	1737.4	846.25
1040.6437	3126.1635	1730.8	840.9
1040.7502	3127.1471	1726.55	836.6
1040.8567	3128.1301	1721.35	831.5
1040.9631	3129.1125	1720.7	829.35
1041.0695	3130.0942	1716.7	826.7
1041.1759	3131.0753	1718.55	819.85
1041.2822	3132.0558	1714.65	823.1
1041.3884	3133.0357	1693.1	802.75
1041.4946	3134.015	1697.15	805.65
1041.6008	3134.9936	1689.6	799.35
1041.7069	3135.9716	1706.4	794.8
1041.813	3136.949	1689.85	798.75
1041.919	3137.9258	1691.9	797.6
1042.025	3138.902	1680.25	783.75
1042.1309	3139.8775	1671.1	780.9
1042.2368	3140.8524	1670.6	781.2
1042.3427	3141.8267	1668.65	777.1
1042.4485	3142.8004	1672.95	783.15
1042.5542	3143.7735	1671.5	777.45
1042.6599	3144.7459	1669.9	777.8
1042.7656	3145.7178	1660	769.5
1042.8712	3146.689	1655.4	768.1
1042.9768	3147.6596	1643.95	751.65
1043.0823	3148.6295	1643.25	751.55
1043.1878	3149.5989	1631.4	743.15
1043.2932	3150.5676	1638.25	749.25
1043.3986	3151.5357	1624.85	736.95
1043.5039	3152.5032	1619.75	730.1
1043.6092	3153.4701	1621.2	729.85
1043.7145	3154.4364	1618.3	724.85
1043.8197	3155.402	1602.45	712.6
1043.9248	3156.367	1605.5	713.55
1044.03	3157.3315	1643.85	710.95
1044.135	3158.2952	1600.3	710.5
1044.24	3159.2584	1590.8	702.25
1044.345	3160.221	1575.35	682.45
1044.4499	3161.1829	1583.45	695.55
1044.5548	3162.1442	1584.8	695.65
1044.6596	3163.105	1581.15	689.65
1044.7644	3164.065	1572.75	682.6
1044.8692	3165.0245	1574.25	680
1044.9739	3165.9834	1566.45	676.35
1045.0785	3166.9416	1563.8	675.5
1045.1831	3167.8993	1551.65	661.9
1045.2877	3168.8563	1549.75	660.65
1045.3922	3169.8127	1541.55	650.7
1045.4966	3170.7684	1542.3	651.9
1045.6011	3171.7236	1536.75	645.55
1045.7054	3172.6782	1535.9	645.25
1045.8098	3173.6321	1528.9	638.6
1045.914	3174.5854	1539.9	645.9
1046.0183	3175.5381	1532.15	641.7
1046.1224	3176.4902	1520.1	630.35
1046.2266	3177.4417	1528	638
1046.3307	3178.3926	1515.2	626.3
1046.4347	3179.3428	1513	624.75
1046.5387	3180.2924	1512.05	621.75
1046.6427	3181.2415	1505.7	615.35
1046.7466	3182.1899	1505.25	613.9
1046.8504	3183.1377	1498.5	609.85
1046.9542	3184.0848	1500.65	607.5
1047.058	3185.0314	1492.9	601.4
1047.1617	3185.9773	1487.15	597.15
1047.2654	3186.9227	1487.45	597.15
1047.369	3187.8674	1491.65	600.55
1047.4726	3188.8115	1485.8	592.45
1047.5761	3189.755	1476.05	585.1
1047.6796	3190.6979	1469.2	579.9
1047.783	3191.6402	1470.8	583.7
1047.8864	3192.5818	1465.95	576.6
1047.9898	3193.5229	1490.5	578.65
1048.0931	3194.4633	1463.05	572.45
1048.1963	3195.4031	1458.3	564.9
1048.2995	3196.3423	1458.1	569.3
1048.4027	3197.2809	1454.8	565.7
1048.5058	3198.2189	1453.9	563.2
1048.6089	3199.1563	1451.1	555
1048.7119	3200.0931	1446.9	556.05
1048.8148	3201.0292	1444.15	554.9
1048.9178	3201.9648	1444.95	555.45
1049.0206	3202.8997	1438.05	548.1
1049.1235	3203.834	1432.45	542.7
1049.2262	3204.7677	1433.15	542
1049.329	3205.7008	1429	537.95
1049.4317	3206.6333	1422.15	533.2
1049.5343	3207.5652	1421.8	529.4
1049.6369	3208.4964	1422.9	532.4
1049.7394	3209.4271	1420.35	530.4
1049.8419	3210.3571	1415.55	527.1
1049.9444	3211.2865	1412.95	519.65
1050.0468	3212.2154	1412.15	520.05
1050.1491	3213.1436	1415.9	522.6
1050.2514	3214.0712	1421.6	525.3
1050.3537	3214.9982	1404.55	514.35
1050.4559	3215.9246	1395	502.9
1050.5581	3216.8503	1395.7	506.35
1050.6602	3217.7755	1399.3	509.4
1050.7623	3218.7001	1393.65	505.2
1050.8643	3219.624	1390.1	501.55
1050.9663	3220.5473	1389.9	498.55
1051.0682	3221.4701	1387.55	495
1051.1701	3222.3922	1387.4	497.05
1051.2719	3223.3137	1380.25	490.75
1051.3737	3224.2346	1380.35	490.65
1051.4754	3225.1549	1371.5	481.55
1051.5771	3226.0746	1370.3	480.9
1051.6788	3226.9937	1368.55	477.3
1051.7804	3227.9121	1368.15	478.2
1051.8819	3228.83	1358.2	468.9
1051.9834	3229.7473	1363.35	474.65
1052.0849	3230.6639	1354.25	462.8
1052.1863	3231.5799	1350.25	461.1
1052.2876	3232.4954	1351.3	462.6
1052.3889	3233.4102	1357.4	469.5
1052.4902	3234.3244	1350.25	459.55
1052.5914	3235.238	1344.8	455.3
1052.6926	3236.151	1372	458.75
1052.7937	3237.0634	1337.9	450.3
1052.8948	3237.9752	1334.65	447
1052.9958	3238.8864	1332.8	441.6
1053.0968	3239.797	1333.85	444.5
1053.1977	3240.7069	1332.75	443.4
1053.2986	3241.6163	1337.45	447.85
1053.3994	3242.5251	1326.15	437.3
1053.5002	3243.4332	1323.35	433.35
1053.6009	3244.3408	1320.1	427.95
1053.7016	3245.2477	1312.3	423.55
1053.8022	3246.154	1311.55	420.4
1053.9028	3247.0598	1307.95	419.25
1054.0034	3247.9649	1309.85	419.65
1054.1039	3248.8694	1301.6	411.6
1054.2043	3249.7733	1309.9	420.4
1054.3047	3250.6766	1294	405
1054.4051	3251.5793	1300.95	411.4
1054.5054	3252.4814	1293.1	403.1
1054.6056	3253.3829	1298.6	411.15
1054.7058	3254.2838	1298.3	407.8
1054.806	3255.1841	1287.65	398.65
1054.9061	3256.0838	1276.8	385.85
1055.0061	3256.9829	1281.25	394.75
1055.1062	3257.8814	1275.7	384.8
1055.2061	3258.7792	1282	391.05
1055.306	3259.6765	1268.7	377.35
1055.4059	3260.5731	1264.4	375
1055.5057	3261.4692	1258.55	367.9
1055.6055	3262.3647	1259.9	368.6
1055.7052	3263.2595	1247.6	356.65
1055.8049	3264.1538	1248.5	359.5
1055.9045	3265.0474	1244.5	354.2
1056.0041	3265.9404	1240.9	350.75
1056.1036	3266.8329	1236.25	347.45
1056.2031	3267.7247	1236.45	337.35
1056.3025	3268.616	1213.5	323.85
1056.4019	3269.5066	1213.5	321.8
1056.5013	3270.3966	1204.5	315
1056.6005	3271.286	1191.45	303.35
