Software Version:	3.9.2.0
Unit SN:	10000200
Spectrometer SN:	6960
Date:	3/6/2024 10:09:37 AM
Data Line Index:	25
Spectral Points:	2048
Integration time (ms):	125
Averages:	20
Delay (ms):	30
Sequence Number:	1
Processing:	dark subtract
Laser Power (mW):	305
Laser Current (mA):	825
Laser Diode Temp (C):	25.1
Laser Case Temp (C):	24.9
System Temp (C):	24.7
Spectrometer Temp (C):	22.3
CCD Temp (C):	-0.005
Secondary Temp (C):	20.011
Heatsink Temp (C):	18.641
CCDPCB Temp (C):	32.205
SecondaryPCB Temp (C):	25.936

Wavelength	RamanShift	Raw Counts	Dark Subtracted
787.061	30.1047	908.15	501.15
787.2016	32.3739	922.95	517.95
787.3422	34.6426	958.35	551.7
787.4828	36.9109	984.8	576.75
787.6235	39.1787	1025.45	612.9
787.7642	41.4461	1072.1	654.5
787.9049	43.7131	1115.7	694.4
788.0456	45.9796	1161.3	737.7
788.1863	48.2456	1206.25	778.65
788.3271	50.5112	1259.2	829.6
788.4679	52.7764	1303.25	866.7
788.6087	55.0411	1362.05	923.65
788.7496	57.3054	1416.9	972.25
788.8904	59.5692	1479.75	1031.75
789.0313	61.8326	1548.55	1100.55
789.1722	64.0955	1616.05	1163.2
789.3132	66.3579	1705.1	1248
789.4541	68.6199	1837.2	1376
789.5951	70.8815	2007.35	1542.3
789.7361	73.1426	2418.45	1950.1
789.8771	75.4032	3469.3	2998.7
790.0181	77.6634	6170.9	5694.1
790.1592	79.9231	13015.25	12532.45
790.3003	82.1824	37067.05	36572.45
790.4414	84.4412	61495.25	60978.1
790.5825	86.6995	65193.95	64654.55
790.7237	88.9574	65535	64969.35
790.8648	91.2148	65535	64952.75
791.006	93.4717	65535	64944.05
791.1472	95.7282	65535	64938.95
791.2885	97.9842	65535	64935.75
791.4297	100.2398	65535	64929.35
791.571	102.4949	65535	64927.35
791.7123	104.7495	65535	64923.2
791.8536	107.0036	65535	64921.7
791.9949	109.2573	65535	64928.7
792.1363	111.5105	65535	64925.5
792.2777	113.7632	65535	64923.9
792.4191	116.0154	65535	64910.5
792.5605	118.2672	65535	64919.55
792.7019	120.5185	65535	64911
792.8434	122.7693	65535	64909.65
792.9849	125.0197	65535	64905.5
793.1264	127.2696	65535	64903.65
793.2679	129.519	65535	64900.9
793.4094	131.7679	65535	64896.9
793.551	134.0163	65535	64893.95
793.6926	136.2642	65535	64890.4
793.8342	138.5117	65535	64888.85
793.9758	140.7587	65535	64885.85
794.1175	143.0052	65535	64884.3
794.2591	145.2512	65535	64883.1
794.4008	147.4967	65535	64882.95
794.5425	149.7417	65535	64877.2
794.6842	151.9863	65535	64876.1
794.826	154.2304	65535	64871.4
794.9677	156.4739	65535	64864.8
795.1095	158.717	65535	64864.6
795.2513	160.9596	65535	64862.1
795.3931	163.2017	65535	64856.75
795.535	165.4433	65535	64853.2
795.6768	167.6844	65535	64854.25
795.8187	169.925	65535	64852.35
795.9606	172.1651	65535	64853.65
796.1025	174.4047	65535	64847.05
796.2445	176.6439	65535	64844
796.3864	178.8825	65535	64839.55
796.5284	181.1206	65535	64836.2
796.6704	183.3582	65535	64832.3
796.8124	185.5954	65535	64832.1
796.9544	187.832	65535	64829.35
797.0965	190.0681	65535	64823.5
797.2386	192.3037	65535	64822.65
797.3806	194.5388	65535	64817.75
797.5228	196.7734	65535	64816.75
797.6649	199.0075	65535	64813.35
797.807	201.2411	65535	64811.45
797.9492	203.4742	65535	64810.1
798.0914	205.7068	65535	64807.15
798.2336	207.9389	65535	64808.85
798.3758	210.1704	65535	64812.1
798.518	212.4015	65535	64824.6
798.6603	214.632	65535	64828.65
798.8025	216.862	65535	64829.1
798.9448	219.0915	65535	64828.75
799.0871	221.3205	65535	64826.3
799.2294	223.549	65535	64824
799.3718	225.777	65535	64830
799.5141	228.0044	65535	64821.4
799.6565	230.2314	65535	64817.5
799.7989	232.4578	65535	64816.2
799.9413	234.6837	65535	64805.6
800.0837	236.909	65535	64806.05
800.2262	239.1339	65535	64778.6
800.3687	241.3582	65535	64795.85
800.5111	243.582	65535	64761.1
800.6536	245.8053	65535	64780
800.7961	248.0281	65535	64783.15
800.9387	250.2503	65535	64778.6
801.0812	252.472	65535	64778.3
801.2238	254.6932	65535	64778.05
801.3664	256.9139	65535	64776.25
801.509	259.134	65535	64770.5
801.6516	261.3536	65535	64777
801.7942	263.5727	65535	64771.6
801.9369	265.7912	65535	64771.25
802.0795	268.0092	65535	64773.95
802.2222	270.2267	65535	64770.3
802.3649	272.4436	65535	64769.7
802.5076	274.6601	65535	64759.7
802.6504	276.8759	65535	64764.85
802.7931	279.0913	65535	64767.3
802.9359	281.3061	65535	64764.3
803.0787	283.5204	65535	64759.15
803.2215	285.7341	65535	64756.4
803.3643	287.9473	65535	64747
803.5071	290.16	65535	64752
803.6499	292.3721	65535	64757.85
803.7928	294.5837	65535	64759.8
803.9357	296.7947	65535	64758.15
804.0786	299.0052	65535	64754.85
804.2215	301.2152	65535	64751.35
804.3644	303.4246	65535	64754.7
804.5074	305.6334	65535	64757.65
804.6503	307.8418	65535	64751.75
804.7933	310.0495	65535	64749.3
804.9363	312.2568	65535	64747.9
805.0793	314.4635	65535	64745.55
805.2223	316.6696	65535	64745.15
805.3653	318.8752	65535	64736.1
805.5084	321.0802	65535	64742.4
805.6514	323.2847	65535	64739.5
805.7945	325.4887	65535	64739.45
805.9376	327.692	65535	64738.9
806.0807	329.8949	65535	64739
806.2238	332.0972	65535	64736.45
806.367	334.2989	65535	64733.7
806.5101	336.5001	65535	64735.55
806.6533	338.7007	65535	64730.65
806.7965	340.9008	65535	64732.35
806.9397	343.1003	65535	64727.45
807.0829	345.2992	65535	64728.65
807.2261	347.4976	65535	64728.7
807.3693	349.6955	65535	64722.9
807.5126	351.8927	65535	64723.35
807.6559	354.0895	65535	64710.75
807.7991	356.2856	65535	64720.1
807.9424	358.4812	65535	64718.35
808.0857	360.6763	65535	64721.05
808.2291	362.8707	65535	64718.3
808.3724	365.0646	65535	64709.55
808.5158	367.258	65535	64714.55
808.6591	369.4508	65535	64709.8
808.8025	371.643	65535	64711.2
808.9459	373.8346	65535	64704.85
809.0893	376.0257	65535	64703.8
809.2327	378.2162	65535	64705.3
809.3762	380.4062	65535	64705.1
809.5196	382.5956	65535	64710.6
809.6631	384.7844	65535	64714.7
809.8066	386.9726	65535	64718.65
809.9501	389.1603	65535	64717.85
810.0936	391.3474	65535	64671.95
810.2371	393.5339	65535	64714.45
810.3806	395.7199	65535	64711.5
810.5241	397.9052	65535	64715.95
810.6677	400.09	65535	64711.75
810.8113	402.2743	65535	64714.2
810.9548	404.4579	65535	64710.95
811.0984	406.641	65535	64707.4
811.2421	408.8235	65535	64712.3
811.3857	411.0054	65535	64706.25
811.5293	413.1868	65535	64700.65
811.673	415.3675	65535	64697.85
811.8166	417.5477	65535	64697
811.9603	419.7273	65535	64697.05
812.104	421.9064	65535	64689
812.2477	424.0848	65535	64695.1
812.3914	426.2627	65535	64696.05
812.5351	428.4399	65535	64694.65
812.6788	430.6166	65535	64689.6
812.8226	432.7928	65535	64692.35
812.9663	434.9683	65535	64691.9
813.1101	437.1432	65535	64689.8
813.2539	439.3176	65535	64697.85
813.3977	441.4914	65535	64693.85
813.5415	443.6645	65535	64694.4
813.6853	445.8371	65535	64690.15
813.8291	448.0091	65535	64690.1
813.973	450.1806	65535	64691.2
814.1168	452.3514	65535	64690.75
814.2607	454.5216	65535	64678.85
814.4046	456.6913	65535	64687.3
814.5485	458.8603	65535	64690.45
814.6924	461.0288	65535	64692.35
814.8363	463.1967	65535	64695.7
814.9802	465.3639	65535	64692.2
815.1241	467.5306	65535	64688.2
815.2681	469.6967	65535	64688.55
815.412	471.8622	65535	64693.95
815.556	474.0271	65535	64691.95
815.7	476.1914	65535	64685.75
815.844	478.3551	65535	64688.85
815.988	480.5182	65535	64688.05
816.132	482.6807	65535	64691
816.276	484.8426	65535	64693.35
816.4201	487.0039	65535	64689.75
816.5641	489.1647	65535	64686
816.7082	491.3248	65535	64685.35
816.8522	493.4843	65535	64684.9
816.9963	495.6432	65535	64685.45
817.1404	497.8015	65535	64675.1
817.2845	499.9592	65535	64676.45
817.4286	502.1163	65535	64680.8
817.5727	504.2728	65535	64678.65
817.7168	506.4287	65535	64683.4
817.861	508.5839	65535	64683.7
818.0051	510.7386	65535	64682.45
818.1493	512.8927	65535	64675
818.2935	515.0461	65535	64677.1
818.4377	517.199	65535	64673.65
818.5818	519.3512	65535	64673.75
818.726	521.5029	65535	64671.75
818.8703	523.6539	65535	64673.45
819.0145	525.8043	65535	64669.8
819.1587	527.9541	65535	64668.55
819.303	530.1033	65535	64668.55
819.4472	532.2519	65535	64673.1
819.5915	534.3999	65535	64667.35
819.7357	536.5472	65535	64667.4
819.88	538.694	65535	64673.4
820.0243	540.8401	65535	64664.7
820.1686	542.9856	65535	64666.1
820.3129	545.1305	65535	64660.75
820.4572	547.2748	65535	64659.5
820.6016	549.4185	65535	64660.05
820.7459	551.5615	65535	64659.3
820.8902	553.704	65535	64661.75
821.0346	555.8458	65535	64663.75
821.1789	557.987	65535	64662.7
821.3233	560.1276	65535	64663.3
821.4677	562.2675	65535	64662.15
821.6121	564.4069	65535	64663.15
821.7565	566.5456	65535	64665.55
821.9009	568.6837	65535	64664.15
822.0453	570.8212	65535	64665.35
822.1897	572.958	65535	64662.7
822.3342	575.0942	65535	64666.85
822.4786	577.2299	65535	64667.75
822.6231	579.3648	65535	64673.85
822.7675	581.4992	65535	64678.85
822.912	583.6329	65535	64676.2
823.0565	585.766	65535	64671.95
823.201	587.8985	65535	64668.45
823.3454	590.0304	65535	64637.85
823.4899	592.1616	65535	64658.5
823.6345	594.2922	65535	64660.3
823.779	596.4222	65535	64656.35
823.9235	598.5515	65535	64654.5
824.068	600.6802	65535	64653.95
824.2126	602.8083	65535	64658.15
824.3571	604.9358	65535	64654.65
824.5017	607.0626	65535	64653.35
824.6462	609.1888	65535	64653.1
824.7908	611.3144	65535	64651.65
824.9354	613.4393	65535	64651.8
825.08	615.5636	65535	64653.5
825.2246	617.6873	65535	64655.25
825.3692	619.8103	65535	64652.55
825.5138	621.9327	65535	64648.2
825.6584	624.0544	65535	64656.95
825.803	626.1756	65535	64657.1
825.9477	628.2961	65535	64652
826.0923	630.4159	65535	64653.1
826.237	632.5351	65535	64648.1
826.3816	634.6537	65535	64649.4
826.5263	636.7716	65535	64645.7
826.6709	638.8889	65535	64647.3
826.8156	641.0056	65535	64645.6
826.9603	643.1216	65535	64646.35
827.105	645.237	65535	64645.4
827.2497	647.3518	65535	64647.9
827.3944	649.4659	65535	64655.5
827.5391	651.5793	65535	64654.65
827.6838	653.6922	65535	64652.85
827.8285	655.8043	65535	64652.15
827.9733	657.9159	65535	64649.45
828.118	660.0268	65535	64647.05
828.2627	662.137	65535	64648.95
828.4075	664.2466	65535	64645.35
828.5522	666.3556	65535	64645.85
828.697	668.4639	65535	64645.75
828.8418	670.5716	65535	64651.1
828.9865	672.6786	65535	64644.35
829.1313	674.785	65535	64638.05
829.2761	676.8907	65535	64642.6
829.4209	678.9958	65535	64649.05
829.5657	681.1002	65535	64645.3
829.7105	683.204	65535	64639.35
829.8553	685.3072	65535	64641.75
830.0001	687.4097	65535	64644.15
830.1449	689.5115	65535	64640.7
830.2898	691.6127	65535	64642.7
830.4346	693.7132	65535	64643.05
830.5794	695.8131	65535	64618.6
830.7243	697.9123	65535	64638.85
830.8691	700.0109	65535	64638.55
831.014	702.1089	65535	64640.55
831.1588	704.2061	65535	64642.65
831.3037	706.3028	65535	64639
831.4486	708.3987	65535	64637.45
831.5935	710.4941	65535	64641.65
831.7383	712.5887	65535	64640.1
831.8832	714.6827	65535	64635.1
832.0281	716.7761	65535	64644.7
832.173	718.8688	65535	64639.5
832.3179	720.9608	65535	64635.3
832.4628	723.0522	65535	64630.7
832.6077	725.1429	65535	64634
832.7527	727.233	65535	64636.75
832.8976	729.3224	65535	64637.9
833.0425	731.4112	65535	64637.8
833.1874	733.4993	65535	64635
833.3324	735.5867	65535	64636.6
833.4773	737.6735	65535	64634.35
833.6222	739.7596	65535	64633.15
833.7672	741.845	65535	64636.55
833.9122	743.9298	65535	64633.15
834.0571	746.014	65535	64633.65
834.2021	748.0974	65535	64633.4
834.347	750.1802	65535	64625.35
834.492	752.2624	65535	64631.25
834.637	754.3439	65535	64629.85
834.782	756.4247	65535	64627.75
834.9269	758.5048	65535	64629
835.0719	760.5843	65535	64629.65
835.2169	762.6631	65535	64631.15
835.3619	764.7413	65535	64629.55
835.5069	766.8188	65535	64630.2
835.6519	768.8956	65535	64630.05
835.7969	770.9718	65535	64630.95
835.9419	773.0473	65535	64634.7
836.0869	775.1221	65535	64632.1
836.232	777.1962	65535	64632.85
836.377	779.2697	65535	64630.35
836.522	781.3426	65535	64610.8
836.667	783.4147	65535	64628.1
836.8121	785.4862	65535	64631.05
836.9571	787.557	65535	64629.55
837.1021	789.6271	65535	64627.35
837.2472	791.6966	65535	64630.9
837.3922	793.7654	65535	64628
837.5373	795.8335	65535	64627.75
837.6823	797.901	65535	64628.45
837.8274	799.9678	65535	64623.8
837.9724	802.0339	65535	64629.1
838.1175	804.0993	65535	64620.85
838.2626	806.1641	65535	64626.2
838.4076	808.2282	65535	64628.1
838.5527	810.2916	65535	64625.95
838.6978	812.3544	65535	64628.35
838.8428	814.4164	65535	64627.75
838.9879	816.4778	65535	64626.15
839.133	818.5385	65535	64625.55
839.2781	820.5986	65535	64625.6
839.4232	822.658	65535	64621
839.5682	824.7166	65535	64630.1
839.7133	826.7747	65535	64626.85
839.8584	828.832	65535	64623.75
840.0035	830.8886	65535	64625
840.1486	832.9446	65535	64625.35
840.2937	834.9999	65535	64625.05
840.4388	837.0545	65535	64623.35
840.5839	839.1085	65535	64623.85
840.729	841.1618	65535	64621.7
840.8741	843.2143	65535	64626
841.0192	845.2662	65535	64624.4
841.1643	847.3175	65535	64625.05
841.3095	849.368	65535	64625.4
841.4546	851.4179	65535	64622.95
841.5997	853.467	65535	64624.35
841.7448	855.5155	65535	64622.1
841.8899	857.5633	65535	64625.05
842.0351	859.6105	65535	64625.7
842.1802	861.6569	65535	64621.5
842.3253	863.7027	65535	64621.85
842.4704	865.7478	65535	64620.8
842.6156	867.7922	65535	64621.4
842.7607	869.8359	65535	64619.7
842.9058	871.8789	65535	64621.25
843.0509	873.9212	65535	64590
843.1961	875.9629	65535	64621.55
843.3412	878.0039	65535	64619.6
843.4863	880.0441	65535	64624.1
843.6315	882.0837	65535	64620.8
843.7766	884.1226	65535	64622.7
843.9218	886.1609	65535	64622.05
844.0669	888.1984	65535	64623.4
844.212	890.2352	65535	64621.45
844.3572	892.2714	65535	64619.45
844.5023	894.3069	65535	64619.1
844.6475	896.3416	65535	64619.1
844.7926	898.3757	65535	64623.6
844.9377	900.4091	65535	64621.2
845.0829	902.4418	65535	64612.5
845.228	904.4739	65535	64618.1
845.3732	906.5052	65535	64617.25
845.5183	908.5358	65535	64622.6
845.6635	910.5658	65535	64616.55
845.8086	912.595	65535	64619
845.9538	914.6236	65535	64621.1
846.0989	916.6515	65535	64620.75
846.2441	918.6786	65535	64622.95
846.3892	920.7051	65535	64618.25
846.5344	922.7309	65535	64618.6
846.6795	924.756	65535	64621.15
846.8246	926.7804	65535	64618.9
846.9698	928.8041	65535	64619.35
847.1149	930.8272	65535	64620.45
847.2601	932.8495	65535	64617.45
847.4052	934.8711	65535	64620.95
847.5504	936.892	65535	64620
847.6955	938.9123	65535	64618
847.8407	940.9318	65535	64618.85
847.9858	942.9506	65535	64617.05
848.131	944.9688	65535	64618.95
848.2761	946.9862	65535	64617.9
848.4213	949.003	65535	64617.8
848.5664	951.019	65535	64618.4
848.7115	953.0344	65535	64617.4
848.8567	955.0491	65535	64616.6
849.0018	957.063	65535	64615.9
849.147	959.0763	65535	64618.6
849.2921	961.0888	65535	64618.45
849.4373	963.1007	65535	64618.85
849.5824	965.1119	65535	64622.1
849.7275	967.1223	65535	64622.6
849.8727	969.1321	65535	64627.05
850.0178	971.1412	65535	64625.7
850.1629	973.1495	65535	64620.15
850.3081	975.1572	65535	64578.65
850.4532	977.1641	65535	64619.3
850.5983	979.1704	65535	64615.75
850.7435	981.1759	65535	64617.85
850.8886	983.1808	65535	64616.15
851.0337	985.1849	65535	64608.6
851.1788	987.1884	65535	64612.95
851.324	989.1911	65535	64614
851.4691	991.1932	65535	64618.45
851.6142	993.1945	65535	64617
851.7593	995.1951	65535	64619.1
851.9045	997.1951	65535	64614.35
852.0496	999.1943	65535	64620.05
852.1947	1001.1928	65535	64619.15
852.3398	1003.1906	65535	64618.65
852.4849	1005.1877	65535	64615.25
852.63	1007.1841	65535	64619.5
852.7751	1009.1798	65535	64615.6
852.9202	1011.1748	65535	64619.85
853.0653	1013.1691	65535	64617.8
853.2104	1015.1627	65482.4	64563.05
853.3555	1017.1556	65531.85	64619.3
853.5006	1019.1477	65531.7	64614.9
853.6457	1021.1392	65521.15	64609.3
853.7908	1023.1299	65462.15	64551.1
853.9359	1025.12	65515.6	64604.05
854.081	1027.1093	65489.9	64583.6
854.2261	1029.0979	65492.5	64590.7
854.3712	1031.0859	65486.5	64582.6
854.5163	1033.0731	65426.8	64515.9
854.6613	1035.0596	65460.5	64547.8
854.8064	1037.0454	65448.45	64533.95
854.9515	1039.0304	65418.4	64503.65
855.0965	1041.0148	65354.45	64441.45
855.2416	1042.9985	65374.85	64456.95
855.3867	1044.9814	65442.05	64526.85
855.5317	1046.9636	65364.05	64447.75
855.6768	1048.9452	65376.5	64459.9
855.8219	1050.926	65370.5	64455.6
855.9669	1052.9061	65361.35	64447.35
856.112	1054.8855	65366.2	64448.45
856.257	1056.8642	65347.5	64432.25
856.4021	1058.8421	65313.65	64393.35
856.5471	1060.8194	65325.6	64408.45
856.6921	1062.7959	65291.1	64374.35
856.8372	1064.7717	65332.1	64414.35
856.9822	1066.7469	65310	64393.5
857.1272	1068.7213	65318.1	64396.75
857.2723	1070.695	65291.05	64375.05
857.4173	1072.6679	65263.55	64351.2
857.5623	1074.6402	65290.85	64375.25
857.7073	1076.6117	65254.95	64335.2
857.8523	1078.5826	65255.35	64339.05
857.9973	1080.5527	65258.5	64338.25
858.1423	1082.5221	65228.3	64314.75
858.2873	1084.4908	65246.45	64330.55
858.4323	1086.4587	65235.25	64315.7
858.5773	1088.426	65232.25	64314.8
858.7223	1090.3925	65228.8	64309.2
858.8673	1092.3584	65217.85	64303.3
859.0123	1094.3235	65193.2	64278.95
859.1573	1096.2879	65184.6	64268.1
859.3022	1098.2515	65198.45	64283.95
859.4472	1100.2145	65178.9	64265.05
859.5922	1102.1767	65169.15	64249.5
859.7371	1104.1382	65183.55	64271.35
859.8821	1106.099	65166	64248.45
860.027	1108.0591	65153.15	64238.45
860.172	1110.0185	65111.05	64191.75
860.3169	1111.9771	65159.2	64243
860.4619	1113.9351	65137.55	64220.5
860.6068	1115.8923	65126.15	64210.95
860.7517	1117.8488	65109.6	64192.75
860.8967	1119.8045	65074.7	64161.6
861.0416	1121.7596	65104.6	64188.9
861.1865	1123.7139	65072.45	64155
861.3314	1125.6675	65069.7	64152.15
861.4763	1127.6204	65065.8	64151.35
861.6212	1129.5726	65037.65	64118.9
861.7661	1131.524	65056.8	64142.3
861.911	1133.4748	65051.1	64136.65
862.0559	1135.4248	65034.9	64118
862.2008	1137.3741	65024.9	64111.9
862.3457	1139.3226	65019.65	64103.75
862.4905	1141.2705	65024.4	64109.25
862.6354	1143.2176	65014.95	64093.5
862.7803	1145.164	64994.95	64078.15
862.9251	1147.1097	65004.55	64088.85
863.07	1149.0546	64997.1	64079.75
863.2148	1150.9989	64991.3	64076.55
863.3597	1152.9424	64972.85	64058.8
863.5045	1154.8852	64980.65	64064.1
863.6493	1156.8272	64964.35	64048.65
863.7942	1158.7686	64980.6	64059.5
863.939	1160.7092	64941.6	64023.85
864.0838	1162.6491	64945.3	64028.8
864.2286	1164.5883	64963.25	64046.95
864.3734	1166.5267	64938.8	64022.8
864.5182	1168.4644	64936.3	64020.25
864.663	1170.4014	64932.2	64016.35
864.8078	1172.3377	64932.05	64017.25
864.9526	1174.2732	64943.35	64029.25
865.0974	1176.2081	64914	63996.5
865.2421	1178.1421	64918.35	63998.85
865.3869	1180.0755	64940.05	64027.05
865.5317	1182.0082	64920.7	64006.4
865.6764	1183.9401	64928.6	64012.6
865.8212	1185.8713	64901.2	63989.85
865.9659	1187.8017	64897.3	63988
866.1106	1189.7315	64901.75	63996.1
866.2554	1191.6605	64877.05	63945.1
866.4001	1193.5888	64862.3	63951.7
866.5448	1195.5163	64831.9	63922.4
866.6895	1197.4432	64835.1	63922.35
866.8342	1199.3693	64815.5	63900.65
866.9789	1201.2947	64783.15	63866.15
867.1236	1203.2193	64806.45	63892.1
867.2683	1205.1432	64734.1	63819.3
867.413	1207.0664	64750.9	63837.25
867.5576	1208.9889	64743.55	63824.05
867.7023	1210.9106	64721.15	63809.55
867.847	1212.8316	64688.05	63774.95
867.9916	1214.7519	64678.95	63755.55
868.1363	1216.6715	64648.8	63735.6
868.2809	1218.5903	64631.05	63717.25
868.4255	1220.5084	64618.9	63704.75
868.5701	1222.4257	64625.15	63709.25
868.7148	1224.3424	64607.1	63695.4
868.8594	1226.2583	64531.5	63611.95
869.004	1228.1735	64600.95	63685.05
869.1486	1230.0879	64478	63561.95
869.2932	1232.0016	64580.3	63667.1
869.4377	1233.9146	64476.25	63563.75
869.5823	1235.8269	64491.15	63576.7
869.7269	1237.7384	64460.35	63546
869.8715	1239.6492	64432.15	63519.95
870.016	1241.5592	64367.9	63454.2
870.1606	1243.4686	64405.1	63492.85
870.3051	1245.3772	64306.6	63393.7
870.4496	1247.285	64426.7	63512.85
870.5941	1249.1922	64293.95	63379.5
870.7387	1251.0986	64351.15	63437.75
870.8832	1253.0042	64293.2	63380.6
871.0277	1254.9092	64322.6	63410.3
871.1722	1256.8134	64194.4	63284.4
871.3167	1258.7169	64313.4	63398.7
871.4611	1260.6196	64214.9	63304.35
871.6056	1262.5216	64199.85	63289.45
871.7501	1264.4229	64232.4	63320.95
871.8945	1266.3234	64288.1	63376.75
872.039	1268.2232	64222.3	63310.45
872.1834	1270.1223	64160.2	63245.7
872.3278	1272.0207	64164.35	63249.8
872.4723	1273.9183	64154.35	63234.35
872.6167	1275.8151	64137.35	63224.15
872.7611	1277.7113	64148.7	63235.55
872.9055	1279.6067	64079.65	63163.35
873.0499	1281.5014	64059.8	63144.75
873.1943	1283.3953	64141.35	63227.6
873.3386	1285.2885	64096.8	63183.5
873.483	1287.181	64092.85	63179.65
873.6274	1289.0727	64103.45	63191.75
873.7717	1290.9637	64001.7	63089.9
873.9161	1292.854	64113.05	63201.35
874.0604	1294.7435	64070.7	63157.95
874.2047	1296.6323	64063.15	63151.95
874.349	1298.5204	64023	63105.7
874.4933	1300.4077	64076.05	63162.65
874.6376	1302.2943	64003.8	63091.85
874.7819	1304.1802	63964.25	63048.5
874.9262	1306.0653	63929.95	63014.15
875.0705	1307.9497	63911.9	63003.2
875.2147	1309.8333	63925.25	63014.15
875.359	1311.7162	63869.45	62956.85
875.5032	1313.5984	63875.9	62961.05
875.6475	1315.4798	63815.4	62894.3
875.7917	1317.3605	63809.05	62879.4
875.9359	1319.2405	63826.2	62910.85
876.0801	1321.1197	63734.55	62821.35
876.2243	1322.9982	63750.9	62832.7
876.3685	1324.876	63709.2	62796.45
876.5127	1326.753	63681.05	62768.2
876.6569	1328.6293	63750.6	62837.2
876.801	1330.5048	63701.2	62784.75
876.9452	1332.3796	63646.05	62733.25
877.0893	1334.2537	63610.75	62675.5
877.2335	1336.127	63646.7	62734.8
877.3776	1337.9996	63600.4	62685.15
877.5217	1339.8714	63632.9	62717.4
877.6658	1341.7426	63542.65	62583.1
877.8099	1343.6129	63563.25	62649.1
877.954	1345.4826	63569.45	62657.1
878.0981	1347.3515	63477.35	62560.05
878.2422	1349.2196	63523.1	62608.7
878.3862	1351.087	63504.15	62591.1
878.5303	1352.9537	63523.5	62610
878.6743	1354.8197	63503.5	62589.55
878.8184	1356.6849	63529.55	62618.55
878.9624	1358.5493	63497.6	62585.45
879.1064	1360.4131	63448.55	62536.4
879.2504	1362.276	63506.8	62595.3
879.3944	1364.1383	63438.85	62526.55
879.5384	1365.9998	63400.05	62478.7
879.6823	1367.8606	63389.6	62473.85
879.8263	1369.7206	63319.75	62407.4
879.9702	1371.5799	63300.55	62386.15
880.1142	1373.4384	63258.25	62347.3
880.2581	1375.2962	63266.3	62353.1
880.402	1377.1533	63167.35	62256.25
880.5459	1379.0096	63139.75	62229.2
880.6898	1380.8652	63110.85	62200.7
880.8337	1382.7201	63076.8	62165.6
880.9776	1384.5742	63037.85	62125.4
881.1215	1386.4275	62965	62052.8
881.2653	1388.2802	62966.4	62054.95
881.4092	1390.132	62961.6	62051.25
881.553	1391.9832	62913.95	61999.65
881.6968	1393.8336	62874.55	61961.3
881.8406	1395.6832	62855	61940.15
881.9844	1397.5322	62849.15	61936.1
882.1282	1399.3803	62758.65	61842.2
882.272	1401.2278	62766.3	61853.9
882.4158	1403.0745	62722.15	61810.65
882.5595	1404.9204	62715.15	61805.95
882.7033	1406.7656	62689.85	61776.75
882.847	1408.6101	62573.05	61657
882.9908	1410.4538	62586.35	61673
883.1345	1412.2968	62586.2	61674.8
883.2782	1414.139	62506	61594.95
883.4219	1415.9805	62548.7	61638.9
883.5656	1417.8213	62460.05	61543.45
883.7092	1419.6613	62493.3	61585.15
883.8529	1421.5006	62438.95	61528.75
883.9965	1423.3391	62402.6	61491.8
884.1402	1425.1769	62415.8	61504.8
884.2838	1427.0139	62495.05	61583.4
884.4274	1428.8502	62456.45	61544.45
884.571	1430.6858	62465.8	61554.3
884.7146	1432.5206	62537.9	61623.75
884.8582	1434.3547	62469.9	61559.7
885.0018	1436.188	62410.35	61501.6
885.1453	1438.0206	62431.55	61520.1
885.2889	1439.8524	62390.7	61481
885.4324	1441.6835	62360.35	61450.55
885.5759	1443.5139	62369.25	61454.35
885.7194	1445.3435	62312.6	61403.15
885.8629	1447.1724	62326.8	61416.5
886.0064	1449.0005	62245.25	61336.4
886.1499	1450.8279	62273.7	61360
886.2933	1452.6545	62251.55	61344.5
886.4368	1454.4804	62235.6	61326
886.5802	1456.3056	62189.45	61272.65
886.7237	1458.13	62179.25	61270.15
886.8671	1459.9536	62227.1	61317.45
887.0105	1461.7766	62141.65	61231.35
887.1539	1463.5987	62070.5	61157.5
887.2972	1465.4202	62060.8	61148.9
887.4406	1467.2409	62009.5	61096.65
887.584	1469.0608	61948.35	61038.25
887.7273	1470.88	61932	61020.45
887.8706	1472.6984	61924.75	61016.15
888.0139	1474.5161	61841.1	60929.3
888.1572	1476.3331	61852	60944.45
888.3005	1478.1493	61759	60848.15
888.4438	1479.9648	61768.45	60858.25
888.5871	1481.7795	61751.85	60841.55
888.7303	1483.5935	61761.3	60853.4
888.8736	1485.4067	61705.65	60796.05
889.0168	1487.2192	61695.85	60784.1
889.16	1489.031	61668.05	60755.8
889.3032	1490.842	61678.9	60771
889.4464	1492.6522	61669.85	60760.65
889.5896	1494.4618	61632.35	60723.05
889.7327	1496.2705	61626.8	60716.65
889.8759	1498.0785	61556.4	60649.3
890.019	1499.8858	61561.45	60651.75
890.1622	1501.6924	61567.75	60659
890.3053	1503.4981	61534.05	60624.45
890.4484	1505.3032	61536.8	60626.55
890.5914	1507.1075	61477.05	60566.75
890.7345	1508.911	61463.7	60553.85
890.8776	1510.7138	61450.9	60542.75
891.0206	1512.5159	61450.95	60543.7
891.1637	1514.3172	61355.35	60447.15
891.3067	1516.1178	61341.95	60435.7
891.4497	1517.9176	61354.45	60444.5
891.5927	1519.7166	61316.3	60410.85
891.7357	1521.515	61279.2	60365.25
891.8786	1523.3126	61219.9	60310.15
892.0216	1525.1094	61241.4	60332.35
892.1645	1526.9055	61196.3	60290.35
892.3074	1528.7008	61161	60253.15
892.4503	1530.4954	61110.75	60202.4
892.5932	1532.2893	61133.1	60228.7
892.7361	1534.0824	61037.6	60128.25
892.879	1535.8747	61002.4	60098.4
893.0218	1537.6663	61062.05	60158.8
893.1647	1539.4572	60879.05	59972.45
893.3075	1541.2473	60973.4	60066.65
893.4503	1543.0367	60914.35	60009.7
893.5931	1544.8253	60869.55	59962.1
893.7359	1546.6132	60885.7	59977.55
893.8787	1548.4003	60800.05	59886.3
894.0214	1550.1867	60777.8	59865.7
894.1642	1551.9723	60742.4	59831.9
894.3069	1553.7572	60764.35	59858.8
894.4496	1555.5414	60775	59870.5
894.5923	1557.3247	60493.95	59589.55
894.735	1559.1074	60719.1	59818.3
894.8777	1560.8893	60618.65	59717.35
895.0204	1562.6705	60622.5	59721.85
895.163	1564.4509	60514.85	59613.1
895.3056	1566.2305	60579.6	59681.4
895.4482	1568.0094	60654.95	59757.55
895.5908	1569.7876	60554.8	59656.95
895.7334	1571.565	60445.1	59544.95
895.876	1573.3417	60521.25	59617.95
896.0186	1575.1176	60443.4	59544.85
896.1611	1576.8928	60438.1	59540.15
896.3036	1578.6672	60257.6	59361.2
896.4461	1580.4409	60360.75	59465.35
896.5886	1582.2138	60116.5	59215.95
896.7311	1583.986	60234.05	59333.25
896.8736	1585.7575	60074.5	59173.4
897.0161	1587.5282	60125.05	59229.1
897.1585	1589.2981	60138.05	59243.45
897.3009	1591.0673	59989.45	59093.2
897.4433	1592.8358	59910.7	59012.9
897.5857	1594.6035	60033	59132.35
897.7281	1596.3704	60040.7	59140.95
897.8705	1598.1366	59810.75	58914.1
898.0128	1599.9021	59707.4	58809.85
898.1551	1601.6668	59852.1	58954.2
898.2975	1603.4308	59736.4	58837.55
898.4398	1605.194	59782.8	58880.45
898.5821	1606.9564	59598.7	58705.85
898.7243	1608.7182	59711.95	58818.75
898.8666	1610.4791	59605.8	58715.6
899.0088	1612.2394	59735.4	58846.65
899.1511	1613.9988	59578.7	58688.8
899.2933	1615.7576	59725.7	58832.4
899.4355	1617.5156	59735.65	58831.3
899.5776	1619.2728	59861.6	58962.9
899.7198	1621.0293	59543.55	58646.85
899.862	1622.785	59502.55	58604.1
900.0041	1624.54	59548.4	58655.65
900.1462	1626.2942	59370.7	58475.3
900.2883	1628.0477	59078.2	58182.8
900.4304	1629.8005	58903.6	58007.1
900.5725	1631.5525	59056.3	58160.7
900.7145	1633.3037	58753.15	57860.05
900.8566	1635.0542	58719.2	57826.85
900.9986	1636.804	58815.6	57920.85
901.1406	1638.553	58532.05	57595.8
901.2826	1640.3013	58606.85	57713.9
901.4245	1642.0488	58393.65	57498.6
901.5665	1643.7955	58556.8	57665.05
901.7085	1645.5416	58406.45	57512.25
901.8504	1647.2868	58283.25	57392.05
901.9923	1649.0313	58481.6	57587.2
902.1342	1650.7751	58336.35	57439.9
902.2761	1652.5181	58229.9	57336.1
902.4179	1654.2604	58205	57313
902.5598	1656.0019	58291.9	57398.95
902.7016	1657.7427	58197	57301.7
902.8434	1659.4828	58360.8	57466.5
902.9852	1661.222	58199.8	57304.5
903.127	1662.9606	58316.3	57422.25
903.2687	1664.6984	58035.85	57140.9
903.4105	1666.4354	58100.5	57202.95
903.5522	1668.1717	57689.3	56793.75
903.6939	1669.9072	57226.7	56329.95
903.8356	1671.642	57188.8	56289.8
903.9773	1673.3761	57020.9	56126.45
904.119	1675.1094	56901.3	56007.45
904.2606	1676.8419	56482.35	55588.3
904.4022	1678.5737	56523.15	55627
904.5439	1680.3048	56344.8	55448.5
904.6855	1682.0351	56166.5	55273.2
904.827	1683.7646	55991.85	55095.05
904.9686	1685.4934	56096.2	55201.35
905.1101	1687.2215	55399.5	54504.7
905.2517	1688.9488	55841.95	54950.45
905.3932	1690.6754	54822.9	53930.65
905.5347	1692.4012	55303.05	54409.7
905.6761	1694.1263	55312	54419.45
905.8176	1695.8506	54899.05	54005.8
905.9591	1697.5742	54896.65	54003.2
906.1005	1699.297	54752.3	53860.65
906.2419	1701.0191	54748.1	53858.45
906.3833	1702.7404	54283.65	53392.65
906.5246	1704.461	54067.4	53174.2
906.666	1706.1808	54244.3	53350.05
906.8073	1707.8999	54066.55	53175.2
906.9487	1709.6182	53903.45	53013.7
907.09	1711.3358	53832.65	52941.25
907.2313	1713.0527	53716.3	52829.75
907.3725	1714.7688	53683.6	52786.8
907.5138	1716.4841	53180.2	52286.1
907.655	1718.1987	53381	52483.25
907.7962	1719.9126	53188.55	52299.6
907.9374	1721.6257	53219.05	52329.6
908.0786	1723.338	53203.05	52312.7
908.2198	1725.0496	52579.4	51687.95
908.3609	1726.7605	52631.2	51739.45
908.502	1728.4706	52513.4	51621.4
908.6431	1730.18	52552.35	51663.55
908.7842	1731.8886	52358.2	51468.7
908.9253	1733.5964	52197.8	51303
909.0664	1735.3036	52359.05	51467.85
909.2074	1737.0099	52148.05	51259.85
909.3484	1738.7156	51883.1	50996.8
909.4894	1740.4204	51678.9	50787.5
909.6304	1742.1246	51787.7	50896
909.7714	1743.8279	51773.45	50881.75
909.9123	1745.5306	51736.65	50848.05
910.0532	1747.2325	51187.7	50300
910.1941	1748.9336	51139.6	50249.4
910.335	1750.634	51162.7	50269.6
910.4759	1752.3336	51312.65	50424.8
910.6168	1754.0325	50908.3	50023
910.7576	1755.7307	51140.75	50253.25
910.8984	1757.4281	50709.7	49820.25
911.0392	1759.1247	51014.75	50115.4
911.18	1760.8206	50560.55	49664.6
911.3208	1762.5158	50561.65	49668.35
911.4615	1764.2102	50517.3	49629.6
911.6022	1765.9039	50327.95	49438
911.7429	1767.5968	50262.9	49376.95
911.8836	1769.289	50116.5	49227.65
912.0243	1770.9804	50115.55	49225.2
912.1649	1772.6711	50016.4	49127.7
912.3056	1774.361	49849.85	48956.65
912.4462	1776.0502	49828.75	48937.5
912.5868	1777.7386	49522.5	48628.35
912.7274	1779.4263	49597.65	48705.9
912.8679	1781.1132	49611.7	48725.1
913.0084	1782.7994	49472.6	48586.6
913.149	1784.4849	49453.85	48567.75
913.2895	1786.1696	49020.45	48126.65
913.4299	1787.8535	49199.9	48314.6
913.5704	1789.5367	49182.1	48296.1
913.7108	1791.2192	48941.5	48055.5
913.8513	1792.9009	48749.9	47831.9
913.9917	1794.5818	48800.15	47909.55
914.132	1796.2621	48553.55	47666.7
914.2724	1797.9415	48552.95	47662.2
914.4128	1799.6202	48480.7	47588.75
914.5531	1801.2982	48406.3	47515.15
914.6934	1802.9755	48181.55	47291.1
914.8337	1804.6519	48118.35	47229.3
914.9739	1806.3277	48280.9	47393.35
915.1142	1808.0027	47738.9	46854.1
915.2544	1809.6769	47935.85	47048.65
915.3946	1811.3504	47837.1	46950.15
915.5348	1813.0231	47442.05	46554.45
915.675	1814.6951	47598.4	46712.95
915.8151	1816.3664	47486	46596.2
915.9553	1818.0369	47403.4	46514.35
916.0954	1819.7067	47269.7	46380.2
916.2355	1821.3757	47405.55	46515.65
916.3755	1823.044	47056.15	46165.45
916.5156	1824.7115	46923.15	46033
916.6556	1826.3783	46882.5	45992.35
916.7956	1828.0443	46829.15	45941.65
916.9356	1829.7096	46676.25	45787.25
917.0756	1831.3741	46466.95	45576
917.2155	1833.0379	46515.25	45629.3
917.3555	1834.701	46383.95	45495.65
917.4954	1836.3633	46235.65	45347.5
917.6353	1838.0248	46203.15	45314.75
917.7751	1839.6856	46123.35	45235.5
917.915	1841.3457	45934.35	45048.3
918.0548	1843.005	46087.85	45198.85
918.1946	1844.6636	45909.2	45022.05
918.3344	1846.3214	45566.25	44677.35
918.4742	1847.9785	45586	44697.8
918.6139	1849.6349	45487.65	44598.15
918.7537	1851.2904	45679.45	44777.75
918.8934	1852.9453	45253.45	44362.8
919.0331	1854.5994	45307.85	44416.65
919.1727	1856.2528	45365.35	44471.75
919.3124	1857.9054	45014.4	44127.1
919.452	1859.5572	44942.15	44054
919.5916	1861.2083	44987.75	44097.5
919.7312	1862.8587	45183.9	44294.55
919.8708	1864.5084	44578.9	43687.3
920.0103	1866.1572	44749.8	43858.1
920.1498	1867.8054	44319.85	43429.65
920.2893	1869.4528	44454.15	43564.65
920.4288	1871.0994	44196.7	43306.05
920.5683	1872.7453	44144.6	43253.9
920.7077	1874.3905	44199.95	43305.65
920.8471	1876.0349	43948.95	43060
920.9865	1877.6786	44101.85	43209.05
921.1259	1879.3215	43881.5	42991.25
921.2653	1880.9637	43980.85	43090.1
921.4046	1882.6051	43726.35	42839.55
921.5439	1884.2458	43514.2	42624.75
921.6832	1885.8858	43334.8	42444.15
921.8225	1887.525	43396.25	42508.65
921.9617	1889.1634	43202.35	42314.35
922.101	1890.8011	43040.35	42149.15
922.2402	1892.4381	42804.75	41917.3
922.3794	1894.0743	42965.6	42077.8
922.5185	1895.7098	42768.4	41880.15
922.6577	1897.3446	42625.85	41734.65
922.7968	1898.9786	42579.8	41688.35
922.9359	1900.6118	42418.35	41533.1
923.075	1902.2443	42210.55	41320.75
923.214	1903.8761	42331.3	41442.2
923.3531	1905.5071	41995.3	41104.2
923.4921	1907.1374	41702.95	40813.2
923.6311	1908.7669	41823.75	40937.5
923.77	1910.3957	41836.3	40946.55
923.909	1912.0237	41485.25	40598.35
924.0479	1913.651	41342.7	40452.3
924.1868	1915.2776	41213.3	40326.6
924.3257	1916.9034	41104	40217.6
924.4646	1918.5285	40922.95	40037.75
924.6034	1920.1528	40798.85	39909.9
924.7422	1921.7764	40722.75	39835.95
924.881	1923.3992	40601.8	39714.3
925.0198	1925.0213	40353.8	39465.25
925.1586	1926.6427	40112.7	39227.15
925.2973	1928.2633	40316.4	39220.95
925.436	1929.8832	40027.9	39137.85
925.5747	1931.5023	39836.95	38948.5
925.7134	1933.1207	39647.1	38759.6
925.852	1934.7383	39723.7	38834.4
925.9906	1936.3552	39487.75	38598.95
926.1292	1937.9714	39447.65	38560.45
926.2678	1939.5868	39338.5	38448.75
926.4064	1941.2015	39059.15	38169.9
926.5449	1942.8154	38851.85	37962.45
926.6834	1944.4286	38756.65	37867.1
926.8219	1946.041	38677.3	37765.6
926.9604	1947.6528	38457.85	37565.15
927.0988	1949.2637	38402.95	37514.65
927.2372	1950.8739	38224.1	37335.8
927.3756	1952.4834	38164.55	37280.2
927.514	1954.0921	38131.05	37241.95
927.6523	1955.7001	37896.7	37006.4
927.7907	1957.3074	37861.8	36976.65
927.929	1958.9139	37658.6	36772.55
928.0673	1960.5197	37610.75	36725.9
928.2055	1962.1247	37446.95	36560.05
928.3438	1963.729	37264.55	36378.05
928.482	1965.3325	37083.1	36175.85
928.6202	1966.9353	36977.35	36092.6
928.7584	1968.5374	36858.4	35972.3
928.8965	1970.1387	36733.65	35847.65
929.0346	1971.7393	36649.05	35764.35
929.1727	1973.3392	36531	35646.05
929.3108	1974.9383	36363.75	35478.95
929.4489	1976.5366	36203.35	35318
929.5869	1978.1342	36156.85	35271.8
929.7249	1979.7311	36104.55	35217.25
929.8629	1981.3273	35944.15	35058.5
930.0009	1982.9227	35850.3	34966.9
930.1388	1984.5173	35713.65	34831.5
930.2767	1986.1112	35568.5	34684.75
930.4146	1987.7044	35534.85	34648.55
930.5525	1989.2968	35385.85	34500.4
930.6904	1990.8885	35318.2	34430.25
930.8282	1992.4795	35247.7	34362.85
930.966	1994.0697	35113.5	34229.25
931.1038	1995.6592	34968.8	34086.25
931.2415	1997.2479	34884.35	33999.25
931.3793	1998.8359	34808.75	33925.2
931.517	2000.4232	34623.95	33743.3
931.6547	2002.0097	34524	33643.35
931.7923	2003.5955	34340.95	33458.55
931.93	2005.1805	34367.45	33484.3
932.0676	2006.7648	34227.5	33343.85
932.2052	2008.3484	34116.25	33233.7
932.3427	2009.9312	34163.05	33281.05
932.4803	2011.5133	33978	33095.45
932.6178	2013.0946	33905.85	33025.1
932.7553	2014.6752	33748	32865.7
932.8928	2016.2551	33718	32833.75
933.0302	2017.8342	33526.9	32645.35
933.1676	2019.4126	33445.8	32561.85
933.305	2020.9902	33307.95	32425.4
933.4424	2022.5672	33259.75	32377.2
933.5798	2024.1433	33217.3	32330.7
933.7171	2025.7188	33056.3	32177.1
933.8544	2027.2935	32926.25	32043
933.9917	2028.8674	32800.8	31919.05
934.129	2030.4406	32697.6	31817.65
934.2662	2032.0131	32644.15	31765.6
934.4034	2033.5849	32473.6	31584.8
934.5406	2035.1559	32423.4	31542.95
934.6778	2036.7261	32393.3	31512.85
934.8149	2038.2957	32320.25	31438.4
934.952	2039.8645	32201.25	31318.25
935.0891	2041.4325	32188.75	31303.95
935.2262	2042.9998	32059.15	31177.9
935.3632	2044.5664	31992.9	31109.8
935.5002	2046.1323	31894.9	31015.45
935.6372	2047.6974	31767.2	30886.8
935.7742	2049.2617	31696.5	30816.2
935.9111	2050.8254	31661.65	30775.65
936.048	2052.3883	31589.1	30706.3
936.1849	2053.9504	31521.4	30638.9
936.3218	2055.5118	31366.9	30482.75
936.4586	2057.0725	31228.05	30341.9
936.5955	2058.6325	31150	30266.25
936.7323	2060.1917	31010.9	30130.4
936.869	2061.7502	31029.8	30145.65
937.0058	2063.3079	30868.3	29987.75
937.1425	2064.8649	30770.4	29887.05
937.2792	2066.4212	30711.15	29825.7
937.4159	2067.9767	30622.8	29741.9
937.5525	2069.5315	30481.65	29600.8
937.6891	2071.0856	30355.1	29474.2
937.8257	2072.6389	30299.8	29419.25
937.9623	2074.1915	30132.45	29250.95
938.0989	2075.7433	29986.35	29105.65
938.2354	2077.2945	29936.7	29056.95
938.3719	2078.8448	29825.15	28940.7
938.5084	2080.3945	29720.1	28837.35
938.6448	2081.9434	29682.65	28800.75
938.7812	2083.4916	29557.25	28672.3
938.9176	2085.039	29456.4	28570.25
939.054	2086.5857	29434.15	28549.65
939.1903	2088.1317	29328.55	28442.7
939.3267	2089.677	29276.95	28391.8
939.463	2091.2215	29206.2	28319.05
939.5992	2092.7652	29107.5	28218.65
939.7355	2094.3083	29036.65	28149.65
939.8717	2095.8506	28980.4	28094.25
940.0079	2097.3921	28979.55	28095.7
940.1441	2098.933	28861.55	27978.35
940.2802	2100.4731	28771.65	27889
940.4163	2102.0124	28715.25	27815.2
940.5524	2103.5511	28641.4	27759.45
940.6885	2105.089	28582.7	27698.7
940.8245	2106.6261	28526.15	27640.75
940.9606	2108.1626	28478.35	27594.55
941.0965	2109.6983	28429	27515.35
941.2325	2111.2332	28270.55	27385.75
941.3684	2112.7675	28226.65	27339.3
941.5044	2114.301	28140.95	27254.45
941.6403	2115.8337	28075.85	27191.6
941.7761	2117.3657	28018.55	27134.1
941.912	2118.897	27935.7	27049.55
942.0478	2120.4276	27813.8	26922.7
942.1835	2121.9575	27711.95	26828.25
942.3193	2123.4866	27745.7	26846
942.455	2125.0149	27657.05	26770.95
942.5907	2126.5426	27485.4	26601.95
942.7264	2128.0695	27415.45	26528.75
942.8621	2129.5956	27329.4	26448.55
942.9977	2131.1211	27352.05	26463.55
943.1333	2132.6458	27188.75	26306.5
943.2689	2134.1698	27162.55	26278.25
943.4044	2135.693	27070	26182.95
943.54	2137.2155	27021.6	26134.95
943.6755	2138.7373	26932.65	26047.6
943.8109	2140.2584	26869	25986.7
943.9464	2141.7787	26761.05	25874.1
944.0818	2143.2983	26623.65	25744.6
944.2172	2144.8171	26497.3	25616.9
944.3526	2146.3353	26465.6	25581.6
944.4879	2147.8527	26363.25	25482.75
944.6232	2149.3693	26334.5	25449.7
944.7585	2150.8853	26234	25349.65
944.8938	2152.4005	26115.45	25229.7
945.029	2153.9149	26044.3	25157.3
945.1642	2155.4287	26032.75	25146.6
945.2994	2156.9417	25966.25	25081
945.4346	2158.454	25836.9	24950.4
945.5697	2159.9655	25784.55	24901.15
945.7048	2161.4764	25776.7	24893.65
945.8399	2162.9865	25673.35	24789.45
945.9749	2164.4958	25634.25	24752.05
946.1099	2166.0045	25510.3	24625.95
946.2449	2167.5124	25440.5	24555.3
946.3799	2169.0195	25352.35	24470.05
946.5148	2170.526	25344.7	24461
946.6498	2172.0317	25269.95	24386.5
946.7846	2173.5367	25184	24299.2
946.9195	2175.0409	25107.75	24224.85
947.0543	2176.5445	25096.9	24214.8
947.1891	2178.0473	24987.5	24101.5
947.3239	2179.5494	24871.75	23984.05
947.4587	2181.0507	24814	23930.5
947.5934	2182.5513	24713.9	23830.55
947.7281	2184.0512	24684.2	23798.2
947.8628	2185.5504	24570.25	23686.7
947.9974	2187.0488	24430.15	23545.3
948.132	2188.5465	24398.85	23515.9
948.2666	2190.0435	24302.45	23419
948.4012	2191.5397	24161.85	23275.55
948.5357	2193.0353	24158.65	23273.65
948.6702	2194.5301	24019.45	23132.45
948.8047	2196.0241	23947.6	23063.25
948.9392	2197.5175	23886.75	22999.85
949.0736	2199.0101	23819.85	22928.3
949.208	2200.502	23664.75	22781.45
949.3424	2201.9931	23593.85	22709.45
949.4767	2203.4835	23532.8	22649.2
949.611	2204.9733	23483.5	22593.05
949.7453	2206.4622	23389.45	22505.05
949.8796	2207.9505	23270.75	22388.65
950.0138	2209.438	23230.05	22348.45
950.148	2210.9248	23160.2	22275.55
950.2822	2212.4109	23062.05	22178.35
950.4164	2213.8962	22972.75	22085.6
950.5505	2215.3809	22944.45	22057.8
950.6846	2216.8648	22867.6	21980.85
950.8186	2218.3479	22835.3	21944.05
950.9527	2219.8304	22742.8	21851.25
951.0867	2221.3121	22612.05	21723.35
951.2207	2222.7931	22562.1	21675.35
951.3546	2224.2733	22470.35	21584.25
951.4886	2225.7529	22404.3	21520.75
951.6225	2227.2317	22297.1	21410.65
951.7563	2228.7098	22287.8	21405.75
951.8902	2230.1872	22154.35	21272.05
952.024	2231.6638	22129.85	21246.95
952.1578	2233.1397	22043.6	21156.8
952.2916	2234.6149	21981.55	21098.4
952.4253	2236.0894	21863.2	20978.55
952.559	2237.5632	21858.05	20972.8
952.6927	2239.0362	21771.65	20887.3
952.8263	2240.5085	21725.3	20842.45
952.9599	2241.9801	21605.9	20719.6
953.0935	2243.4509	21542.9	20658.25
953.2271	2244.921	21484.9	20596.35
953.3606	2246.3904	21361.35	20473.25
953.4941	2247.8591	21308.6	20424.4
953.6276	2249.3271	21294.65	20406.5
953.7611	2250.7943	21194.65	20308.35
953.8945	2252.2608	21108.1	20224.1
954.0279	2253.7266	21055.45	20171.25
954.1612	2255.1917	20972.9	20088.25
954.2946	2256.656	20921.55	20034.45
954.4279	2258.1197	20862.7	19980.65
954.5612	2259.5826	20802.55	19918.5
954.6944	2261.0447	20754.95	19869.3
954.8276	2262.5062	20672	19785.3
954.9608	2263.9669	20657.3	19769.35
955.094	2265.4269	20606.5	19722.35
955.2271	2266.8862	20494.2	19609.15
955.3602	2268.3448	20482.2	19597.1
955.4933	2269.8026	20438.65	19554.7
955.6264	2271.2598	20367	19482.55
955.7594	2272.7162	20271.3	19388.75
955.8924	2274.1719	20278.8	19392.65
956.0253	2275.6268	20164.55	19278.9
956.1583	2277.0811	20109.85	19224.55
956.2912	2278.5346	20110.4	19225.85
956.4241	2279.9874	20045.65	19162.75
956.5569	2281.4395	20014.55	19131.75
956.6897	2282.8908	19922.55	19031.65
956.8225	2284.3414	19905.4	19020.65
956.9553	2285.7914	19826.8	18943.05
957.088	2287.2406	19751.3	18864.9
957.2207	2288.689	19666.85	18782.25
957.3534	2290.1368	19601.3	18711.75
957.486	2291.5838	19560.45	18670.3
957.6186	2293.0302	19483.45	18593.75
957.7512	2294.4758	19420.2	18534.6
957.8838	2295.9206	19320.4	18431.8
958.0163	2297.3648	19305.25	18419.65
958.1488	2298.8082	19243.9	18358.4
958.2813	2300.251	19187.5	18304
958.4137	2301.693	19126.35	18237.75
958.5461	2303.1343	19096.6	18210.7
958.6785	2304.5748	19033.35	18148.25
958.8108	2306.0147	18971.3	18086.8
958.9432	2307.4538	18949.95	18064.2
959.0754	2308.8922	18842.95	17960.85
959.2077	2310.3299	18788.3	17905.55
959.3399	2311.7669	18746.25	17864
959.4721	2313.2031	18686.9	17803
959.6043	2314.6387	18599.75	17714.6
959.7365	2316.0735	18512.15	17628.15
959.8686	2317.5076	18512.4	17625.25
960.0006	2318.941	18444.15	17558.8
960.1327	2320.3737	18395.8	17512.15
960.2647	2321.8056	18355.65	17468.3
960.3967	2323.2369	18280.85	17395.6
960.5287	2324.6674	18237.2	17349.85
960.6606	2326.0972	18177.7	17290.3
960.7925	2327.5263	18082.45	17198.9
960.9244	2328.9547	18029.15	17142
961.0562	2330.3823	17992.05	17105.2
961.1881	2331.8092	18002.45	17111.55
961.3198	2333.2355	17880.45	16994.55
961.4516	2334.661	17888.6	17000.75
961.5833	2336.0858	17806.4	16919.1
961.715	2337.5098	17763.85	16878.65
961.8467	2338.9332	17747.85	16860.9
961.9783	2340.3558	17634.55	16746
962.1099	2341.7778	17567.5	16683.25
962.2415	2343.199	17533.9	16648.15
962.373	2344.6195	17502.35	16617.45
962.5045	2346.0393	17416.05	16531.8
962.636	2347.4583	17400.1	16515.55
962.7675	2348.8767	17352.7	16465.95
962.8989	2350.2943	17289.45	16401.75
963.0303	2351.7113	17273.75	16385.05
963.1617	2353.1275	17227.6	16339.75
963.293	2354.543	17156.15	16261.55
963.4243	2355.9578	17109.55	16221.15
963.5556	2357.3718	16983.45	16099.25
963.6868	2358.7852	16913.3	16025.1
963.818	2360.1978	16852.25	15968.05
963.9492	2361.6098	16862.15	15978.05
964.0803	2363.021	16786.05	15898.1
964.2114	2364.4315	16744.25	15860.35
964.3425	2365.8413	16670.55	15780.4
964.4736	2367.2504	16624.3	15740.55
964.6046	2368.6587	16523.3	15639.9
964.7356	2370.0664	16474.35	15590.2
964.8666	2371.4733	16412.65	15527.95
964.9975	2372.8795	16370.9	15486
965.1284	2374.285	16338.75	15451.2
965.2593	2375.6899	16218.55	15335.25
965.3901	2377.0939	16153.2	15267.25
965.5209	2378.4973	16101.85	15218.4
965.6517	2379.9	16073.55	15187.75
965.7825	2381.3019	16005.45	15121.95
965.9132	2382.7032	15951.85	15068.95
966.0439	2384.1037	15903.45	15021.3
966.1745	2385.5035	15877.45	14995.25
966.3051	2386.9027	15781.85	14897.85
966.4357	2388.3011	15790.45	14902.8
966.5663	2389.6987	15727.9	14846.65
966.6968	2391.0957	15687.65	14803.95
966.8273	2392.492	15584.1	14700.7
966.9578	2393.8876	15520.55	14634.5
967.0882	2395.2824	15425.35	14539.75
967.2186	2396.6765	15407.5	14525.2
967.349	2398.07	15340.05	14456.15
967.4793	2399.4627	15345.1	14459
967.6097	2400.8547	15266.65	14381.6
967.7399	2402.246	15211.85	14319.4
967.8702	2403.6366	15106.8	14221.2
968.0004	2405.0265	15067.1	14183.3
968.1306	2406.4156	15016.15	14126.45
968.2607	2407.8041	14959.2	14072.25
968.3909	2409.1918	14916.75	14028.95
968.521	2410.5789	14822.55	13937.75
968.651	2411.9652	14777.9	13890.15
968.781	2413.3508	14716.15	13829
968.911	2414.7358	14662.3	13777.1
969.041	2416.12	14596.35	13710.25
969.1709	2417.5035	14569.55	13686.5
969.3008	2418.8863	14513.9	13629.2
969.4307	2420.2684	14464.5	13578.55
969.5606	2421.6497	14414.05	13527.95
969.6904	2423.0304	14322.3	13438
969.8201	2424.4104	14296.95	13413.3
969.9499	2425.7896	14259.15	13370.3
970.0796	2427.1682	14244.85	13360.7
970.2093	2428.546	14177.45	13290.8
970.3389	2429.9232	14135.5	13249.2
970.4685	2431.2996	14096.35	13210.45
970.5981	2432.6753	14074.2	13187.2
970.7277	2434.0503	14042.3	13155.55
970.8572	2435.4246	13968.55	13083.65
970.9867	2436.7982	13925.45	13039.1
971.1161	2438.1711	13868.25	12981.2
971.2456	2439.5433	13814.3	12927.4
971.375	2440.9148	13746.4	12860.75
971.5043	2442.2856	13683.7	12800.2
971.6336	2443.6557	13651.4	12764.45
971.7629	2445.025	13643.05	12757.5
971.8922	2446.3937	13587.85	12699.1
972.0214	2447.7617	13507.9	12620.45
972.1506	2449.1289	13530.5	12646.9
972.2798	2450.4955	13507.6	12618.5
972.4089	2451.8613	13429.55	12546.85
972.538	2453.2265	13387.85	12501.9
972.6671	2454.5909	13359.15	12473.9
972.7961	2455.9546	13309.5	12425.05
972.9251	2457.3177	13287.4	12403.95
973.0541	2458.68	13236.35	12347.95
973.1831	2460.0416	13221.35	12337
973.312	2461.4025	13205.55	12319.15
973.4408	2462.7627	13130.7	12233.35
973.5697	2464.1222	13111.3	12229.2
973.6985	2465.4811	13058.3	12173.15
973.8273	2466.8392	13007.3	12126.55
973.956	2468.1966	12946.35	12059.5
974.0847	2469.5533	12960.9	12075.55
974.2134	2470.9093	12920.05	12032.4
974.3421	2472.2645	12871.1	11984.4
974.4707	2473.6191	12811.35	11927.1
974.5993	2474.973	12769.4	11885
974.7278	2476.3262	12743.55	11857.7
974.8563	2477.6787	12709.65	11825.35
974.9848	2479.0305	12635.4	11750.25
975.1132	2480.3816	12596.85	11710.95
975.2417	2481.7319	12534	11649.55
975.37	2483.0816	12451.9	11565.1
975.4984	2484.4306	12429.25	11543.8
975.6267	2485.7789	12389.75	11506.2
975.755	2487.1264	12340.2	11455.8
975.8833	2488.4733	12286.5	11403.55
976.0115	2489.8195	12256	11365
976.1397	2491.165	12211.25	11322.15
976.2678	2492.5097	12170.05	11282.65
976.3959	2493.8538	12114.6	11228.25
976.524	2495.1972	12038.7	11152.9
976.6521	2496.5398	12012.15	11127.25
976.7801	2497.8818	11956.55	11069.7
976.9081	2499.2231	11977.6	11094.5
977.036	2500.5637	11892	11004.15
977.164	2501.9035	11875.3	10987.95
977.2918	2503.2427	11823.45	10934.05
977.4197	2504.5812	11804.05	10918.2
977.5475	2505.919	11787.4	10899.35
977.6753	2507.256	11790.4	10905.6
977.8031	2508.5924	11735.65	10851.75
977.9308	2509.9281	11656	10764.1
978.0585	2511.2631	11618	10734.85
978.1861	2512.5974	11556.1	10669.4
978.3137	2513.9309	11523.3	10640.1
978.4413	2515.2638	11521.7	10606.85
978.5689	2516.596	11471.35	10585.95
978.6964	2517.9275	11388.6	10503.3
978.8239	2519.2583	11357.1	10472.8
978.9513	2520.5884	11327.45	10441.3
979.0788	2521.9178	11271.5	10386.3
979.2062	2523.2465	11257.55	10374.4
979.3335	2524.5745	11185.4	10300.65
979.4608	2525.9018	11166.15	10281.5
979.5881	2527.2284	11151.15	10267.8
979.7154	2528.5543	11099.65	10214.8
979.8426	2529.8796	11058.9	10174.05
979.9698	2531.2041	11066.25	10181.7
980.0969	2532.5279	11020.4	10136.25
980.224	2533.851	10996.7	10110.55
980.3511	2535.1735	10946.4	10059.75
980.4781	2536.4952	10941.5	10054.95
980.6052	2537.8163	10943.45	10059.05
980.7321	2539.1366	10860.5	9974.6
980.8591	2540.4562	10833.3	9947.45
980.986	2541.7752	10792.15	9906.9
981.1129	2543.0935	10800.05	9912.7
981.2397	2544.411	10771.85	9884.65
981.3665	2545.7279	10745.3	9862.9
981.4933	2547.0441	10727.4	9841.5
981.62	2548.3596	10720.85	9830.8
981.7467	2549.6744	10680.4	9795.25
981.8734	2550.9885	10651.5	9757.8
982.0001	2552.3019	10617.15	9733.45
982.1267	2553.6146	10589.25	9704.05
982.2532	2554.9266	10552.35	9667.8
982.3798	2556.2379	10504.8	9618
982.5063	2557.5485	10513.25	9630.1
982.6327	2558.8585	10466.5	9573.2
982.7592	2560.1677	10453.2	9563.85
982.8856	2561.4762	10436.5	9550.3
983.0119	2562.7841	10411.8	9522.65
983.1383	2564.0913	10385.75	9501.5
983.2646	2565.3977	10337.7	9453.45
983.3908	2566.7035	10314.65	9430.4
983.517	2568.0086	10303	9415.25
983.6432	2569.313	10284.85	9399.9
983.7694	2570.6167	10283.85	9393.7
983.8955	2571.9197	10246	9362.15
984.0216	2573.222	10233.85	9343.65
984.1476	2574.5236	10200.9	9315.95
984.2737	2575.8246	10161.95	9274.9
984.3996	2577.1248	10138.35	9250.7
984.5256	2578.4244	10121.85	9237.2
984.6515	2579.7232	10116.5	9232
984.7774	2581.0214	10096.65	9188.45
984.9032	2582.3189	10048.7	9165.55
985.029	2583.6157	10016.8	9126.65
985.1548	2584.9118	9992	9105.1
985.2806	2586.2072	9986.15	9101.1
985.4063	2587.5019	9925.4	9040.55
985.5319	2588.7959	9911.6	9027.7
985.6576	2590.0893	9916.65	9032.25
985.7832	2591.3819	9890.75	9004.4
985.9087	2592.6739	9839.2	8955.05
986.0343	2593.9652	9780.95	8893.8
986.1597	2595.2557	9754.55	8868.75
986.2852	2596.5456	9739.15	8852.4
986.4106	2597.8348	9682	8795.2
986.536	2599.1234	9635.85	8752.85
986.6614	2600.4112	9639.05	8755
986.7867	2601.6983	9578.05	8690.35
986.912	2602.9848	9558.35	8672.1
987.0372	2604.2705	9499.9	8607.3
987.1624	2605.5556	9484.9	8600.9
987.2876	2606.84	9444.95	8559.9
987.4128	2608.1237	9439.15	8554.25
987.5379	2609.4067	9371.9	8485.35
987.6629	2610.689	9363.05	8469.8
987.788	2611.9707	9336.55	8448
987.913	2613.2516	9297.95	8408.65
988.0379	2614.5319	9241.3	8356.65
988.1629	2615.8115	9225.4	8340.4
988.2878	2617.0903	9182.7	8296.75
988.4126	2618.3685	9144.95	8259.85
988.5375	2619.6461	9107.8	8221.95
988.6622	2620.9229	9088.85	8204.05
988.787	2622.199	9072.7	8187
988.9117	2623.4745	9011.9	8126.4
989.0364	2624.7493	9012.25	8126.85
989.161	2626.0234	8973.55	8090.45
989.2857	2627.2968	8926.6	8040.15
989.4102	2628.5695	8899.15	8014.2
989.5348	2629.8415	8860.7	7974.5
989.6593	2631.1128	8809.35	7922.1
989.7837	2632.3835	8798.95	7915.55
989.9082	2633.6535	8736.45	7851.95
990.0326	2634.9228	8729.4	7846.45
990.1569	2636.1914	8690.3	7806.9
990.2812	2637.4593	8674.7	7785.55
990.4055	2638.7265	8631.4	7747.15
990.5298	2639.9931	8640.25	7754.9
990.654	2641.259	8606.65	7721.05
990.7782	2642.5242	8562.15	7675.65
990.9023	2643.7887	8536.1	7651.1
991.0264	2645.0525	8512.9	7628.9
991.1505	2646.3156	8459.5	7571.25
991.2745	2647.5781	8467.55	7584.4
991.3985	2648.8398	8424.45	7540.65
991.5225	2650.1009	8396.1	7503.8
991.6464	2651.3613	8362.8	7478.7
991.7703	2652.6211	8335.85	7449.85
991.8942	2653.8801	8319.15	7435.9
992.018	2655.1385	8310.5	7422.15
992.1418	2656.3961	8263.8	7376.2
992.2655	2657.6531	8267.15	7381.6
992.3892	2658.9094	8240.4	7358.3
992.5129	2660.1651	8218.3	7333.85
992.6366	2661.42	8208	7322.65
992.7602	2662.6743	8202.2	7315.75
992.8837	2663.9279	8192	7309
993.0073	2665.1808	8144.9	7261.95
993.1307	2666.433	8111.9	7224.1
993.2542	2667.6846	8081.1	7196.25
993.3776	2668.9354	8050.8	7164.3
993.501	2670.1856	8044.8	7159.5
993.6244	2671.4351	8012.35	7127.95
993.7477	2672.6839	8020.8	7133.6
993.8709	2673.9321	7966.25	7082.2
993.9942	2675.1795	7940.05	7055.8
994.1174	2676.4263	7911.3	7028.55
994.2405	2677.6724	7906.1	7023.5
994.3637	2678.9179	7899.5	7012.3
994.4868	2680.1626	7864.25	6979.4
994.6098	2681.4067	7849.4	6965.3
994.7328	2682.6501	7801.4	6916.9
994.8558	2683.8928	7768.6	6884.05
994.9788	2685.1348	7745.2	6859.8
995.1017	2686.3761	7719.55	6837.75
995.2245	2687.6168	7685.35	6800.7
995.3474	2688.8568	7643.65	6760.2
995.4702	2690.0961	7624.7	6741.7
995.5929	2691.3348	7635.05	6750.6
995.7156	2692.5727	7625.25	6743.55
995.8383	2693.81	7593.8	6708.6
995.961	2695.0466	7573.75	6691.15
996.0836	2696.2826	7539.25	6654.85
996.2062	2697.5178	7504.45	6617.75
996.3287	2698.7524	7489.5	6606.35
996.4512	2699.9863	7481.45	6592.75
996.5737	2701.2195	7440.8	6557.45
996.6961	2702.452	7443.05	6558.2
996.8185	2703.6839	7403.5	6517.45
996.9408	2704.9151	7383.25	6498.75
997.0631	2706.1456	7357.05	6470.75
997.1854	2707.3755	7331.35	6446.85
997.3077	2708.6046	7305.4	6418.45
997.4299	2709.8331	7297.9	6414.15
997.552	2711.0609	7260	6377.15
997.6742	2712.2881	7248.6	6360.95
997.7963	2713.5145	7240.05	6355.7
997.9183	2714.7403	7212.3	6329.5
998.0403	2715.9654	7177.4	6292.1
998.1623	2717.1899	7165.4	6281.85
998.2842	2718.4136	7153.85	6269.85
998.4062	2719.6367	7134.65	6249.55
998.528	2720.8591	7101.95	6212.7
998.6498	2722.0809	7075.85	6191.65
998.7716	2723.3019	7078.9	6193.05
998.8934	2724.5223	7058.4	6172.6
999.0151	2725.7421	7027.65	6141.9
999.1368	2726.9611	7018.65	6133.45
999.2584	2728.1795	6995.35	6108.15
999.38	2729.3972	6961.3	6078.2
999.5016	2730.6142	6949.6	6059.75
999.6231	2731.8306	6893.35	6007.85
999.7446	2733.0462	6860.95	5972.95
999.8661	2734.2612	6809.55	5921.8
999.9875	2735.4756	6787.7	5902.7
1000.1089	2736.6892	6734.9	5850.55
1000.2302	2737.9022	6729.6	5846.45
1000.3515	2739.1145	6680.25	5795.1
1000.4728	2740.3262	6670.95	5779.85
1000.594	2741.5372	6643.25	5758.4
1000.7152	2742.7475	6596.1	5711.85
1000.8363	2743.9571	6586.8	5701.35
1000.9575	2745.1661	6551.4	5663
1001.0785	2746.3744	6542.7	5657.9
1001.1996	2747.582	6503.2	5618.65
1001.3206	2748.7889	6493.25	5609.35
1001.4415	2749.9952	6477.85	5593.85
1001.5625	2751.2008	6441.85	5559.65
1001.6833	2752.4057	6426.55	5539.25
1001.8042	2753.61	6375.9	5490.4
1001.925	2754.8136	6361.65	5474.9
1002.0458	2756.0165	6345.4	5462.15
1002.1665	2757.2188	6331.25	5451.05
1002.2872	2758.4204	6292.5	5409.3
1002.4078	2759.6213	6276.15	5388.3
1002.5285	2760.8215	6270.65	5384.1
1002.649	2762.0211	6231.65	5346.95
1002.7696	2763.22	6219.25	5333.7
1002.8901	2764.4182	6203.05	5318.45
1003.0106	2765.6158	6189.25	5304.65
1003.131	2766.8127	6156.75	5274.2
1003.2514	2768.009	6147.2	5264.25
1003.3717	2769.2045	6125.15	5241.75
1003.492	2770.3994	6124.85	5239.75
1003.6123	2771.5936	6106.8	5223.95
1003.7325	2772.7872	6066.4	5184.9
1003.8527	2773.9801	6018.85	5133.1
1003.9729	2775.1723	6020.05	5119.35
1004.093	2776.3639	5977	5095.45
1004.2131	2777.5548	5956.1	5072.75
1004.3331	2778.745	5943.8	5062.8
1004.4531	2779.9346	5942	5059.95
1004.5731	2781.1235	5924.15	5041.6
1004.693	2782.3117	5902.05	5019.15
1004.8129	2783.4992	5869.95	4986.8
1004.9328	2784.6861	5866.45	4983.7
1005.0526	2785.8723	5848.7	4966.1
1005.1723	2787.0579	5838.85	4954.25
1005.2921	2788.2428	5796.65	4916.8
1005.4118	2789.427	5802.1	4919.65
1005.5314	2790.6106	5782.65	4902.25
1005.651	2791.7935	5780.85	4898
1005.7706	2792.9757	5746.05	4863.75
1005.8902	2794.1573	5724.45	4842.35
1006.0097	2795.3382	5702.6	4821.15
1006.1291	2796.5184	5714.85	4833.9
1006.2485	2797.698	5689.3	4803.6
1006.3679	2798.8769	5675.4	4793.1
1006.4873	2800.0551	5676.15	4793.35
1006.6066	2801.2327	5647.25	4762.05
1006.7258	2802.4096	5643.3	4762.55
1006.8451	2803.5859	5638.75	4754.3
1006.9642	2804.7615	5624	4740.4
1007.0834	2805.9364	5635	4751.35
1007.2025	2807.1106	5623.45	4741.2
1007.3216	2808.2842	5619.7	4738.15
1007.4406	2809.4572	5617.9	4731.7
1007.5596	2810.6294	5623	4741.85
1007.6785	2811.801	5636.9	4756.2
1007.7975	2812.972	5653.65	4771.85
1007.9163	2814.1423	5678.1	4796
1008.0352	2815.3119	5690.1	4808.45
1008.154	2816.4808	5690.2	4809.15
1008.2727	2817.6491	5702.5	4820.1
1008.3914	2818.8167	5726.1	4846.8
1008.5101	2819.9837	5767.2	4879.65
1008.6288	2821.15	5783.85	4901.9
1008.7474	2822.3157	5803.15	4919.6
1008.8659	2823.4807	5832.8	4951.7
1008.9844	2824.645	5874.2	4990.95
1009.1029	2825.8086	5896.3	5013.2
1009.2214	2826.9716	5894.05	5012.1
1009.3398	2828.134	5936.55	5056.05
1009.4581	2829.2957	5947.1	5064.75
1009.5764	2830.4567	5965.2	5084.4
1009.6947	2831.617	5974.25	5091.15
1009.813	2832.7767	5982.3	5099.2
1009.9312	2833.9358	5956.15	5073.9
1010.0493	2835.0941	5937.05	5052.4
1010.1675	2836.2519	5922.1	5040
1010.2855	2837.4089	5901.1	5017.85
1010.4036	2838.5653	5886.65	5004.6
1010.5216	2839.7211	5863.85	4984.45
1010.6396	2840.8761	5860.45	4977.7
1010.7575	2842.0306	5834.05	4953.3
1010.8754	2843.1843	5853.25	4970.2
1010.9932	2844.3374	5865.45	4986.6
1011.111	2845.4899	5877.6	4994.2
1011.2288	2846.6417	5913.65	5032.5
1011.3465	2847.7928	5935.75	5055
1011.4642	2848.9433	5967.75	5086.35
1011.5818	2850.0931	6007.15	5123.65
1011.6995	2851.2422	6029.45	5144.35
1011.817	2852.3907	6066.9	5185.9
1011.9345	2853.5385	6071.25	5187.65
1012.052	2854.6857	6125.5	5232.95
1012.1695	2855.8323	6126.55	5245.6
1012.2869	2856.9781	6177.4	5295.85
1012.4042	2858.1233	6202.35	5323.3
1012.5216	2859.2679	6211.85	5329.75
1012.6389	2860.4118	6226.05	5345.85
1012.7561	2861.555	6251.1	5364.8
1012.8733	2862.6976	6255.85	5371.6
1012.9905	2863.8395	6250.45	5368.85
1013.1076	2864.9808	6267.65	5386.1
1013.2247	2866.1214	6263.85	5382.45
1013.3417	2867.2614	6275.4	5394.5
1013.4587	2868.4007	6269.85	5387.05
1013.5757	2869.5393	6276	5393.75
1013.6926	2870.6773	6242.2	5358.95
1013.8095	2871.8146	6246.9	5362.35
1013.9263	2872.9513	6236.15	5351.9
1014.0431	2874.0874	6185	5301.95
1014.1599	2875.2227	6180.8	5301.2
1014.2766	2876.3574	6150.05	5267.35
1014.3933	2877.4915	6127.8	5246.5
1014.51	2878.6249	6071.05	5189.45
1014.6266	2879.7577	6047.65	5162.95
1014.7431	2880.8898	6011.5	5120.05
1014.8596	2882.0212	5983.3	5101.2
1014.9761	2883.152	5973.75	5091.3
1015.0925	2884.2821	5937.15	5056.3
1015.2089	2885.4116	5918	5036.45
1015.3253	2886.5405	5911.25	5031.05
1015.4416	2887.6686	5892.1	5007.55
1015.5579	2888.7962	5871.65	4991.55
1015.6741	2889.923	5866.65	4988.75
1015.7903	2891.0493	5873.3	4992.85
1015.9065	2892.1748	5833.2	4952.05
1016.0226	2893.2997	5836.75	4954.25
1016.1387	2894.424	5832.5	4952.35
1016.2547	2895.5476	5812.25	4932.05
1016.3707	2896.6706	5847.75	4965.9
1016.4866	2897.7929	5842.5	4960.7
1016.6025	2898.9145	5840.45	4958.85
1016.7184	2900.0355	5853.15	4969.45
1016.8342	2901.1559	5855.95	4975.5
1016.95	2902.2756	5850.2	4968
1017.0658	2903.3946	5869.95	4988.55
1017.1815	2904.513	5882.45	4997.25
1017.2971	2905.6308	5875.05	4994.75
1017.4127	2906.7479	5868.95	4986.35
1017.5283	2907.8643	5882.45	5001.25
1017.6439	2908.9801	5858.75	4978.35
1017.7594	2910.0953	5856.25	4976.5
1017.8748	2911.2098	5841.4	4955
1017.9902	2912.3236	5833.7	4944.75
1018.1056	2913.4368	5804.65	4918.95
1018.2209	2914.5494	5776.6	4896.35
1018.3362	2915.6613	5753.6	4863.8
1018.4515	2916.7725	5735.05	4850
1018.5667	2917.8831	5687	4804.3
1018.6819	2918.9931	5653.1	4768.15
1018.797	2920.1024	5614.95	4734.65
1018.9121	2921.211	5592.4	4710.95
1019.0271	2922.319	5555.45	4674.75
1019.1421	2923.4264	5541.7	4660.85
1019.2571	2924.5331	5534.7	4654.9
1019.372	2925.6391	5513.3	4631.3
1019.4869	2926.7445	5514.95	4635.9
1019.6017	2927.8493	5504.3	4620.6
1019.7165	2928.9534	5482.8	4601.9
1019.8313	2930.0569	5469.35	4583.7
1019.946	2931.1597	5455	4572.35
1020.0606	2932.2619	5446.5	4564.7
1020.1753	2933.3634	5452.35	4571.6
1020.2899	2934.4643	5460.75	4573.6
1020.4044	2935.5645	5423.65	4537.25
1020.5189	2936.6641	5398.25	4513.25
1020.6334	2937.763	5360.05	4480
1020.7478	2938.8613	5323.6	4440.75
1020.8622	2939.959	5278.35	4392.45
1020.9765	2941.056	5201.65	4321.45
1021.0908	2942.1523	5145.25	4262.9
1021.2051	2943.248	5092.3	4208.9
1021.3193	2944.3431	5004.8	4126.75
1021.4334	2945.4375	4906.2	4023.55
1021.5476	2946.5313	4852.3	3972.55
1021.6617	2947.6244	4764.8	3882.55
1021.7757	2948.7169	4688.35	3806.8
1021.8897	2949.8087	4587.3	3706.15
1022.0037	2950.8999	4510.15	3630
1022.1176	2951.9904	4461.1	3580.55
1022.2315	2953.0803	4395.15	3512.45
1022.3453	2954.1696	4326.6	3445.95
1022.4591	2955.2582	4285.4	3404.8
1022.5728	2956.3462	4246.6	3366.35
1022.6865	2957.4335	4193.15	3311.25
1022.8002	2958.5202	4162.6	3279.3
1022.9138	2959.6062	4147.15	3267.8
1023.0274	2960.6916	4106.05	3225
1023.141	2961.7764	4081.85	3202.2
1023.2545	2962.8605	4047.35	3164.05
1023.3679	2963.9439	4040.15	3159.9
1023.4813	2965.0267	4001.25	3117.55
1023.5947	2966.1089	4007.35	3105.05
1023.708	2967.1905	3990.1	3109.5
1023.8213	2968.2714	3970.75	3090.25
1023.9346	2969.3516	3938.05	3057.85
1024.0478	2970.4312	3956	3069.2
1024.1609	2971.5102	3941.8	3062.95
1024.274	2972.5885	3922.8	3042.35
1024.3871	2973.6662	3922.75	3039
1024.5002	2974.7432	3904.25	3024
1024.6132	2975.8196	3896.95	3017
1024.7261	2976.8954	3876.9	2998
1024.839	2977.9705	3864.15	2981.55
1024.9519	2979.045	3835.85	2957.3
1025.0647	2980.1188	3822.25	2943.7
1025.1775	2981.192	3793.25	2912.1
1025.2902	2982.2645	3790.75	2908
1025.4029	2983.3364	3744.1	2864.45
1025.5156	2984.4077	3717.5	2838.2
1025.6282	2985.4783	3717.55	2831.8
1025.7407	2986.5483	3671.95	2792.25
1025.8532	2987.6177	3637.2	2756.5
1025.9657	2988.6864	3614.25	2734.3
1026.0782	2989.7545	3575.9	2692.55
1026.1906	2990.8219	3546.1	2666.25
1026.3029	2991.8887	3519.5	2636.4
1026.4152	2992.9548	3483.85	2603.8
1026.5275	2994.0204	3438.1	2559.05
1026.6397	2995.0852	3420.3	2540.95
1026.7519	2996.1495	3391.25	2508.85
1026.864	2997.2131	3371.7	2491.95
1026.9761	2998.276	3349.6	2469.2
1027.0882	2999.3383	3320.45	2438.75
1027.2002	3000.4	3280.7	2400.4
1027.3122	3001.4611	3271.75	2389.7
1027.4241	3002.5215	3238.7	2358.55
1027.536	3003.5812	3241.85	2360.45
1027.6478	3004.6404	3216.55	2336.35
1027.7596	3005.6989	3208.5	2327.7
1027.8714	3006.7567	3190.55	2309
1027.9831	3007.8139	3188	2278.1
1028.0947	3008.8705	3149.05	2267.4
1028.2064	3009.9264	3152.75	2267.85
1028.3179	3010.9818	3128.45	2247.1
1028.4295	3012.0364	3116.35	2235.85
1028.541	3013.0905	3119.8	2237.55
1028.6524	3014.1439	3086.4	2205.75
1028.7638	3015.1966	3080.15	2198.7
1028.8752	3016.2487	3072.65	2192.25
1028.9865	3017.3002	3050.75	2164.65
1029.0978	3018.3511	3052.2	2174.3
1029.209	3019.4013	3049.2	2170.65
1029.3202	3020.4509	3022.85	2144.05
1029.4314	3021.4998	3038.85	2157.45
1029.5425	3022.5481	3014.35	2135.25
1029.6535	3023.5958	2995.1	2116.4
1029.7645	3024.6428	2995.85	2114.45
1029.8755	3025.6892	2988.15	2108.75
1029.9864	3026.735	2989.5	2110.65
1030.0973	3027.7802	2976.85	2097.7
1030.2082	3028.8247	2957	2078
1030.319	3029.8685	2943.65	2063.85
1030.4297	3030.9118	2931.6	2050.8
1030.5404	3031.9544	2931.7	2051.55
1030.6511	3032.9963	2928.05	2047.2
1030.7617	3034.0376	2926	2046.05
1030.8723	3035.0783	2924.4	2040.9
1030.9829	3036.1184	2911.4	2029.7
1031.0934	3037.1578	2911.4	2031.4
1031.2038	3038.1966	2902.85	2020.1
1031.3142	3039.2348	2901.35	2022.65
1031.4246	3040.2723	2895.45	2007.4
1031.5349	3041.3092	2865.6	1985.05
1031.6452	3042.3455	2870.05	1990.75
1031.7554	3043.3811	2864.95	1983.9
1031.8656	3044.4161	2855.8	1975.75
1031.9758	3045.4505	2853.9	1974.5
1032.0859	3046.4842	2841.85	1961.25
1032.1959	3047.5173	2826.3	1948.05
1032.3059	3048.5498	2808.1	1927.85
1032.4159	3049.5816	2812.1	1932.4
1032.5258	3050.6128	2807.55	1925.85
1032.6357	3051.6434	2799.3	1918.7
1032.7455	3052.6734	2779.2	1898.1
1032.8553	3053.7027	2778.95	1899.6
1032.9651	3054.7314	2758	1877.05
1033.0748	3055.7594	2744.6	1866.7
1033.1845	3056.7868	2740.35	1859.4
1033.2941	3057.8136	2728.9	1847.3
1033.4037	3058.8398	2722.4	1844.25
1033.5132	3059.8653	2711.4	1831.8
1033.6227	3060.8902	2697.9	1819.2
1033.7321	3061.9145	2702.25	1823.15
1033.8415	3062.9381	2681.05	1799.55
1033.9509	3063.9612	2715.8	1820.05
1034.0602	3064.9835	2673.95	1793.7
1034.1694	3066.0053	2662.2	1779.55
1034.2787	3067.0264	2656.15	1776.05
1034.3878	3068.0469	2647.25	1765.6
1034.497	3069.0668	2636.55	1751.8
1034.6061	3070.086	2627.6	1748.9
1034.7151	3071.1046	2618.45	1737.35
1034.8241	3072.1226	2610.95	1730.75
1034.9331	3073.1399	2594.7	1714.5
1035.042	3074.1567	2586.25	1706.25
1035.1508	3075.1727	2582.9	1702.55
1035.2597	3076.1882	2559.4	1679.65
1035.3684	3077.203	2537.25	1658.15
1035.4772	3078.2173	2545.5	1664.05
1035.5859	3079.2308	2537.9	1654.65
1035.6945	3080.2438	2513	1629.2
1035.8031	3081.2561	2496.3	1616.95
1035.9117	3082.2678	2493.75	1614.95
1036.0202	3083.2789	2485.95	1607.05
1036.1286	3084.2893	2473	1591.85
1036.2371	3085.2991	2470.1	1589.5
1036.3454	3086.3083	2458.5	1572.85
1036.4538	3087.3169	2458.9	1579.85
1036.562	3088.3248	2442.35	1559.8
1036.6703	3089.3321	2433	1551
1036.7785	3090.3388	2426.3	1546.15
1036.8866	3091.3449	2421.1	1541.4
1036.9948	3092.3503	2395.15	1512.5
1037.1028	3093.3551	2394.25	1515.45
1037.2108	3094.3593	2382.05	1503.6
1037.3188	3095.3629	2378.35	1498.6
1037.4267	3096.3658	2365.6	1486.45
1037.5346	3097.3681	2361.65	1479.75
1037.6425	3098.3698	2351.05	1469.65
1037.7503	3099.3708	2345.4	1460.5
1037.858	3100.3713	2333.65	1456.85
1037.9657	3101.3711	2330.75	1450.4
1038.0734	3102.3702	2439.45	1426.2
1038.181	3103.3688	2325.05	1443.3
1038.2886	3104.3667	2300.05	1423.5
1038.3961	3105.364	2296.4	1416.75
1038.5036	3106.3607	2272.2	1390.7
1038.611	3107.3568	2279.45	1398.25
1038.7184	3108.3522	2263.75	1384.35
1038.8257	3109.347	2253	1374.4
1038.933	3110.3412	2257.5	1375.25
1039.0403	3111.3348	2247.45	1368.1
1039.1475	3112.3277	2223.75	1344.95
1039.2547	3113.32	2213.1	1331.9
1039.3618	3114.3117	2214.55	1333.4
1039.4689	3115.3028	2201.7	1322.15
1039.5759	3116.2932	2205.15	1324.5
1039.6829	3117.2831	2189.75	1304.4
1039.7898	3118.2723	2178.55	1299.4
1039.8967	3119.2608	2182.45	1302.85
1040.0035	3120.2488	2174.7	1294.55
1040.1103	3121.2361	2155	1275.35
1040.2171	3122.2229	2153.95	1273.45
1040.3238	3123.209	2148	1267.95
1040.4305	3124.1944	2140.15	1261.55
1040.5371	3125.1793	2132.6	1251.2
1040.6437	3126.1635	2119.85	1239.65
1040.7502	3127.1471	2119.25	1240.9
1040.8567	3128.1301	2113.3	1233.55
1040.9631	3129.1125	2102.3	1223.35
1041.0695	3130.0942	2099.5	1219.55
1041.1759	3131.0753	2099.8	1212.6
1041.2822	3132.0558	2092.95	1209.65
1041.3884	3133.0357	2088.8	1207.35
1041.4946	3134.015	2075.8	1195.05
1041.6008	3134.9936	2084	1203.6
1041.7069	3135.9716	2094.7	1192
1041.813	3136.949	2065.55	1187.05
1041.919	3137.9258	2058.7	1172.7
1042.025	3138.902	2053.95	1169.4
1042.1309	3139.8775	2039.8	1160.55
1042.2368	3140.8524	2048.15	1167.9
1042.3427	3141.8267	2041.8	1162
1042.4485	3142.8004	2040.9	1161.1
1042.5542	3143.7735	2029.45	1146.95
1042.6599	3144.7459	2029.5	1146
1042.7656	3145.7178	2015.65	1135.85
1042.8712	3146.689	2016.05	1139.35
1042.9768	3147.6596	2000.1	1118
1043.0823	3148.6295	1990.95	1110.6
1043.1878	3149.5989	1988.95	1109.35
1043.2932	3150.5676	1980.2	1103.7
1043.3986	3151.5357	1977.45	1101.15
1043.5039	3152.5032	1985.1	1107.25
1043.6092	3153.4701	1964.25	1085.45
1043.7145	3154.4364	1963.65	1081.95
1043.8197	3155.402	1953.35	1074
1043.9248	3156.367	1945.25	1063.05
1044.03	3157.3315	1973.6	1057
1044.135	3158.2952	1947.55	1066.9
1044.24	3159.2584	1928.8	1048.7
1044.345	3160.221	1922.2	1040.4
1044.4499	3161.1829	1918.15	1039.7
1044.5548	3162.1442	1915.2	1036.25
1044.6596	3163.105	1895.5	1017.15
1044.7644	3164.065	1891.35	1014.35
1044.8692	3165.0245	1897.45	1014.3
1044.9739	3165.9834	1889.2	1010.85
1045.0785	3166.9416	1889.55	1011.9
1045.1831	3167.8993	1872	992.45
1045.2877	3168.8563	1875.85	997.35
1045.3922	3169.8127	1872	991.05
1045.4966	3170.7684	1856.75	978.6
1045.6011	3171.7236	1865.85	985.75
1045.7054	3172.6782	1851.85	973.6
1045.8098	3173.6321	1846.9	967.4
1045.914	3174.5854	1847.5	964.9
1046.0183	3175.5381	1839.6	960.3
1046.1224	3176.4902	1835.75	957.15
1046.2266	3177.4417	1824.45	945.35
1046.3307	3178.3926	1817.55	939.25
1046.4347	3179.3428	1817.75	939.95
1046.5387	3180.2924	1805.95	926
1046.6427	3181.2415	1807.5	929.85
1046.7466	3182.1899	1802.65	922.5
1046.8504	3183.1377	1802.9	924.5
1046.9542	3184.0848	1793.5	909.95
1047.058	3185.0314	1781.95	903.6
1047.1617	3185.9773	1775.8	895.3
1047.2654	3186.9227	1773.45	895.6
1047.369	3187.8674	1768.3	889.9
1047.4726	3188.8115	1775.5	893.6
1047.5761	3189.755	1757.15	878.4
1047.6796	3190.6979	1745.55	866.35
1047.783	3191.6402	1742.85	864.05
1047.8864	3192.5818	1750.3	870.95
1047.9898	3193.5229	1764.05	868.9
1048.0931	3194.4633	1744.9	865.5
1048.1963	3195.4031	1738.35	859.2
1048.2995	3196.3423	1729.15	850.35
1048.4027	3197.2809	1722.2	843.15
1048.5058	3198.2189	1723.9	844.35
1048.6089	3199.1563	1729.05	832.3
1048.7119	3200.0931	1712.3	834.35
1048.8148	3201.0292	1699.75	821.9
1048.9178	3201.9648	1700.8	821.35
1049.0206	3202.8997	1698.2	817.45
1049.1235	3203.834	1698.95	819.85
1049.2262	3204.7677	1688.65	810.65
1049.329	3205.7008	1688.1	808.25
1049.4317	3206.6333	1680.8	802.45
1049.5343	3207.5652	1672.55	790.35
1049.6369	3208.4964	1674.6	793.95
1049.7394	3209.4271	1668.75	790.2
1049.8419	3210.3571	1670.8	791.55
1049.9444	3211.2865	1660.7	781.5
1050.0468	3212.2154	1660.65	780.9
1050.1491	3213.1436	1663.2	780.6
1050.2514	3214.0712	1659.35	771.55
1050.3537	3214.9982	1654.95	776.3
1050.4559	3215.9246	1647.35	768.65
1050.5581	3216.8503	1638.6	760.95
1050.6602	3217.7755	1632.75	752.05
1050.7623	3218.7001	1623.6	743.4
1050.8643	3219.624	1629.15	748.75
1050.9663	3220.5473	1622	744.65
1051.0682	3221.4701	1626.65	745.5
1051.1701	3222.3922	1614.2	730.65
1051.2719	3223.3137	1613.3	735.2
1051.3737	3224.2346	1610.45	731.2
1051.4754	3225.1549	1601.5	721.65
1051.5771	3226.0746	1595.55	717.1
1051.6788	3226.9937	1600.75	720.75
1051.7804	3227.9121	1590	711.05
1051.8819	3228.83	1590.95	710.6
1051.9834	3229.7473	1585.55	705.2
1052.0849	3230.6639	1588.1	709.7
1052.1863	3231.5799	1570.5	691.25
1052.2876	3232.4954	1577.35	697.95
1052.3889	3233.4102	1566.7	687.2
1052.4902	3234.3244	1560.7	680.85
1052.5914	3235.238	1557.15	678.75
1052.6926	3236.151	1577.3	673.95
1052.7937	3237.0634	1553.35	675.45
1052.8948	3237.9752	1549.9	672
1052.9958	3238.8864	1544.95	664.8
1053.0968	3239.797	1537.35	659.75
1053.1977	3240.7069	1531.9	652.75
1053.2986	3241.6163	1533.45	655.3
1053.3994	3242.5251	1527.7	649.5
1053.5002	3243.4332	1515.35	637.1
1053.6009	3244.3408	1526.05	647.45
1053.7016	3245.2477	1514.4	635.5
1053.8022	3246.154	1511.55	630.1
1053.9028	3247.0598	1516.1	636.05
1054.0034	3247.9649	1500.4	620.1
1054.1039	3248.8694	1496.7	620.4
1054.2043	3249.7733	1500.05	623
1054.3047	3250.6766	1499.75	621.45
1054.4051	3251.5793	1496.45	618.25
1054.5054	3252.4814	1482.7	603.5
1054.6056	3253.3829	1479.85	601.9
1054.7058	3254.2838	1478.7	599.8
1054.806	3255.1841	1464.4	586.15
1054.9061	3256.0838	1466.65	587.95
1055.0061	3256.9829	1465.75	587.75
1055.1062	3257.8814	1463.05	582.55
1055.2061	3258.7792	1459.9	577.9
1055.306	3259.6765	1450.65	572.05
1055.4059	3260.5731	1440.3	563.65
1055.5057	3261.4692	1433.3	552.95
1055.6055	3262.3647	1434.6	555.65
1055.7052	3263.2595	1423.25	543.3
1055.8049	3264.1538	1414.85	536.3
1055.9045	3265.0474	1409.4	531.05
1056.0041	3265.9404	1395.85	516.8
1056.1036	3266.8329	1386.4	508.85
1056.2031	3267.7247	1389.25	499.7
1056.3025	3268.616	1362.8	485.6
1056.4019	3269.5066	1359.95	478.4
1056.5013	3270.3966	1347.55	467.25
1056.6005	3271.286	1322	444.35
