Software Version:	3.9.2.0
Unit SN:	10000200
Spectrometer SN:	6960
Date:	3/6/2024 10:51:03 AM
Data Line Index:	25
Spectral Points:	2048
Integration time (ms):	125
Averages:	20
Delay (ms):	30
Sequence Number:	1
Processing:	dark subtract
Laser Power (mW):	300
Laser Current (mA):	822
Laser Diode Temp (C):	25.1
Laser Case Temp (C):	27.6
System Temp (C):	27.4
Spectrometer Temp (C):	24.9
CCD Temp (C):	0.001
Secondary Temp (C):	20.006
Heatsink Temp (C):	23.127
CCDPCB Temp (C):	36.874
SecondaryPCB Temp (C):	34.006

Wavelength	RamanShift	Raw Counts	Dark Subtracted
787.061	30.1047	1128.1	715.1
787.2016	32.3739	1156.4	743.75
787.3422	34.6426	1198	786.05
787.4828	36.9109	1253.65	838.05
787.6235	39.1787	1317.3	899.6
787.7642	41.4461	1370.65	950.15
787.9049	43.7131	1435.55	1007.1
788.0456	45.9796	1502.25	1071.1
788.1863	48.2456	1568.2	1133.3
788.3271	50.5112	1638.45	1200.05
788.4679	52.7764	1701.05	1261.2
788.6087	55.0411	1786.55	1342.5
788.7496	57.3054	1879.3	1431
788.8904	59.5692	1966.2	1514.7
789.0313	61.8326	2062.3	1609
789.1722	64.0955	2176.55	1718.3
789.3132	66.3579	2299.45	1833.8
789.4541	68.6199	2452.6	1984.65
789.5951	70.8815	2707.8	2235.45
789.7361	73.1426	3222.5	2746.55
789.8771	75.4032	4511.75	4030.4
790.0181	77.6634	7830.15	7345.6
790.1592	79.9231	16478.2	15989.7
790.3003	82.1824	53993.95	53496.55
790.4414	84.4412	65535	65018.35
790.5825	86.6995	65535	64995
790.7237	88.9574	65535	64973
790.8648	91.2148	65535	64957.85
791.006	93.4717	65535	64949.05
791.1472	95.7282	65535	64942
791.2885	97.9842	65535	64941
791.4297	100.2398	65535	64935.65
791.571	102.4949	65535	64934.3
791.7123	104.7495	65535	64929.75
791.8536	107.0036	65535	64928
791.9949	109.2573	65535	64931.4
792.1363	111.5105	65535	64926.6
792.2777	113.7632	65535	64926.25
792.4191	116.0154	65535	64913.15
792.5605	118.2672	65535	64920.85
792.7019	120.5185	65535	64919.8
792.8434	122.7693	65535	64919.25
792.9849	125.0197	65535	64914.8
793.1264	127.2696	65535	64907.8
793.2679	129.519	65535	64905.2
793.4094	131.7679	65535	64906.9
793.551	134.0163	65535	64896.5
793.6926	136.2642	65535	64896.25
793.8342	138.5117	65535	64890
793.9758	140.7587	65535	64890.65
794.1175	143.0052	65535	64892.4
794.2591	145.2512	65535	64890.05
794.4008	147.4967	65535	64887.85
794.5425	149.7417	65535	64887.6
794.6842	151.9863	65535	64883
794.826	154.2304	65535	64878.25
794.9677	156.4739	65535	64871.35
795.1095	158.717	65535	64878.75
795.2513	160.9596	65535	64870
795.3931	163.2017	65535	64865.95
795.535	165.4433	65535	64868
795.6768	167.6844	65535	64863.7
795.8187	169.925	65535	64860.45
795.9606	172.1651	65535	64857.55
796.1025	174.4047	65535	64854.2
796.2445	176.6439	65535	64853.8
796.3864	178.8825	65535	64851.5
796.5284	181.1206	65535	64847.6
796.6704	183.3582	65535	64845.3
796.8124	185.5954	65535	64838.85
796.9544	187.832	65535	64832.15
797.0965	190.0681	65535	64834.95
797.2386	192.3037	65535	64831.55
797.3806	194.5388	65535	64832.85
797.5228	196.7734	65535	64824.55
797.6649	199.0075	65535	64823.05
797.807	201.2411	65535	64821.9
797.9492	203.4742	65535	64817.25
798.0914	205.7068	65535	64817.95
798.2336	207.9389	65535	64816.15
798.3758	210.1704	65535	64814.5
798.518	212.4015	65535	64811.75
798.6603	214.632	65535	64821.2
798.8025	216.862	65535	64826.65
798.9448	219.0915	65535	64834.85
799.0871	221.3205	65535	64834.25
799.2294	223.549	65535	64837.95
799.3718	225.777	65535	64837.3
799.5141	228.0044	65535	64830.85
799.6565	230.2314	65535	64834.45
799.7989	232.4578	65535	64829.85
799.9413	234.6837	65535	64821.55
800.0837	236.909	65535	64818.55
800.2262	239.1339	65535	64794.1
800.3687	241.3582	65535	64814
800.5111	243.582	65535	64779.6
800.6536	245.8053	65535	64791.9
800.7961	248.0281	65535	64796.95
800.9387	250.2503	65535	64794.6
801.0812	252.472	65535	64788.15
801.2238	254.6932	65535	64785.1
801.3664	256.9139	65535	64785.5
801.509	259.134	65535	64779.85
801.6516	261.3536	65535	64787.05
801.7942	263.5727	65535	64781.15
801.9369	265.7912	65535	64785.9
802.0795	268.0092	65535	64778.55
802.2222	270.2267	65535	64777.45
802.3649	272.4436	65535	64782.95
802.5076	274.6601	65535	64773.4
802.6504	276.8759	65535	64775
802.7931	279.0913	65535	64773.75
802.9359	281.3061	65535	64775.3
803.0787	283.5204	65535	64773.85
803.2215	285.7341	65535	64770.35
803.3643	287.9473	65535	64754.2
803.5071	290.16	65535	64757.65
803.6499	292.3721	65535	64766
803.7928	294.5837	65535	64766.1
803.9357	296.7947	65535	64769.9
804.0786	299.0052	65535	64764.8
804.2215	301.2152	65535	64763.6
804.3644	303.4246	65535	64766.3
804.5074	305.6334	65535	64768.5
804.6503	307.8418	65535	64758.65
804.7933	310.0495	65535	64762.85
804.9363	312.2568	65535	64763.95
805.0793	314.4635	65535	64759.6
805.2223	316.6696	65535	64758.3
805.3653	318.8752	65535	64747.75
805.5084	321.0802	65535	64757.45
805.6514	323.2847	65535	64755.8
805.7945	325.4887	65535	64753.3
805.9376	327.692	65535	64757.85
806.0807	329.8949	65535	64751
806.2238	332.0972	65535	64748.6
806.367	334.2989	65535	64746.8
806.5101	336.5001	65535	64747.5
806.6533	338.7007	65535	64750.3
806.7965	340.9008	65535	64745.55
806.9397	343.1003	65535	64745.25
807.0829	345.2992	65535	64743.9
807.2261	347.4976	65535	64739.55
807.3693	349.6955	65535	64742
807.5126	351.8927	65535	64735.3
807.6559	354.0895	65535	64728.5
807.7991	356.2856	65535	64737.35
807.9424	358.4812	65535	64734.95
808.0857	360.6763	65535	64731.6
808.2291	362.8707	65535	64732.6
808.3724	365.0646	65535	64728.35
808.5158	367.258	65535	64730.05
808.6591	369.4508	65535	64724.15
808.8025	371.643	65535	64722
808.9459	373.8346	65535	64721.2
809.0893	376.0257	65535	64716.05
809.2327	378.2162	65535	64721.2
809.3762	380.4062	65535	64718.05
809.5196	382.5956	65535	64713.8
809.6631	384.7844	65535	64720.35
809.8066	386.9726	65535	64718.6
809.9501	389.1603	65535	64722.8
810.0936	391.3474	65535	64680.5
810.2371	393.5339	65535	64720.4
810.3806	395.7199	65535	64726.5
810.5241	397.9052	65535	64726.4
810.6677	400.09	65535	64725.45
810.8113	402.2743	65535	64727.45
810.9548	404.4579	65535	64722.5
811.0984	406.641	65535	64722.95
811.2421	408.8235	65535	64718.75
811.3857	411.0054	65535	64719.85
811.5293	413.1868	65535	64718.45
811.673	415.3675	65535	64714.2
811.8166	417.5477	65535	64713.9
811.9603	419.7273	65535	64709.7
812.104	421.9064	65535	64705.7
812.2477	424.0848	65535	64709.15
812.3914	426.2627	65535	64705.85
812.5351	428.4399	65535	64707.55
812.6788	430.6166	65535	64702.3
812.8226	432.7928	65535	64700.65
812.9663	434.9683	65535	64700.4
813.1101	437.1432	65535	64699.35
813.2539	439.3176	65535	64702
813.3977	441.4914	65535	64700.3
813.5415	443.6645	65535	64699.15
813.6853	445.8371	65535	64700.3
813.8291	448.0091	65535	64701.5
813.973	450.1806	65535	64699.9
814.1168	452.3514	65535	64698.75
814.2607	454.5216	65535	64689.3
814.4046	456.6913	65535	64697.1
814.5485	458.8603	65535	64696.75
814.6924	461.0288	65535	64696.75
814.8363	463.1967	65535	64699.55
814.9802	465.3639	65535	64693.95
815.1241	467.5306	65535	64694.4
815.2681	469.6967	65535	64695.35
815.412	471.8622	65535	64695.15
815.556	474.0271	65535	64693.5
815.7	476.1914	65535	64689.6
815.844	478.3551	65535	64695.3
815.988	480.5182	65535	64693.6
816.132	482.6807	65535	64692.8
816.276	484.8426	65535	64692.3
816.4201	487.0039	65535	64693.15
816.5641	489.1647	65535	64696.3
816.7082	491.3248	65535	64690.15
816.8522	493.4843	65535	64692.45
816.9963	495.6432	65535	64687.5
817.1404	497.8015	65535	64684.3
817.2845	499.9592	65535	64689
817.4286	502.1163	65535	64687.1
817.5727	504.2728	65535	64685.65
817.7168	506.4287	65535	64688.05
817.861	508.5839	65535	64687.2
818.0051	510.7386	65535	64687.4
818.1493	512.8927	65535	64682.55
818.2935	515.0461	65535	64685.65
818.4377	517.199	65535	64686.35
818.5818	519.3512	65535	64687.4
818.726	521.5029	65535	64680
818.8703	523.6539	65535	64685.45
819.0145	525.8043	65535	64682.05
819.1587	527.9541	65535	64676.15
819.303	530.1033	65535	64678.85
819.4472	532.2519	65535	64681.1
819.5915	534.3999	65535	64679.55
819.7357	536.5472	65535	64679.7
819.88	538.694	65535	64678.3
820.0243	540.8401	65535	64678.75
820.1686	542.9856	65535	64675.15
820.3129	545.1305	65535	64676.5
820.4572	547.2748	65535	64676.85
820.6016	549.4185	65535	64675.95
820.7459	551.5615	65535	64673.05
820.8902	553.704	65535	64674.1
821.0346	555.8458	65535	64672.7
821.1789	557.987	65535	64675.15
821.3233	560.1276	65535	64671.9
821.4677	562.2675	65535	64678.25
821.6121	564.4069	65535	64676.8
821.7565	566.5456	65535	64674.95
821.9009	568.6837	65535	64672.65
822.0453	570.8212	65535	64677.25
822.1897	572.958	65535	64672.7
822.3342	575.0942	65535	64676.2
822.4786	577.2299	65535	64674.65
822.6231	579.3648	65535	64673.35
822.7675	581.4992	65535	64678.95
822.912	583.6329	65535	64672
823.0565	585.766	65535	64675.75
823.201	587.8985	65535	64674.05
823.3454	590.0304	65535	64652.1
823.4899	592.1616	65535	64667.35
823.6345	594.2922	65535	64671.15
823.779	596.4222	65535	64669.9
823.9235	598.5515	65535	64665.9
824.068	600.6802	65535	64671.35
824.2126	602.8083	65535	64671.25
824.3571	604.9358	65535	64668.75
824.5017	607.0626	65535	64667.55
824.6462	609.1888	65535	64665.65
824.7908	611.3144	65535	64665.65
824.9354	613.4393	65535	64665.15
825.08	615.5636	65535	64666.45
825.2246	617.6873	65535	64664.5
825.3692	619.8103	65535	64664
825.5138	621.9327	65535	64662
825.6584	624.0544	65535	64667.5
825.803	626.1756	65535	64668.85
825.9477	628.2961	65535	64664.05
826.0923	630.4159	65535	64665.9
826.237	632.5351	65535	64663.05
826.3816	634.6537	65535	64660.9
826.5263	636.7716	65535	64663.35
826.6709	638.8889	65535	64662.5
826.8156	641.0056	65535	64659.3
826.9603	643.1216	65535	64662.7
827.105	645.237	65535	64659.15
827.2497	647.3518	65535	64664.2
827.3944	649.4659	65535	64659.95
827.5391	651.5793	65535	64661.4
827.6838	653.6922	65535	64665.2
827.8285	655.8043	65535	64660.9
827.9733	657.9159	65535	64662.1
828.118	660.0268	65535	64660.6
828.2627	662.137	65535	64661.35
828.4075	664.2466	65535	64655.45
828.5522	666.3556	65535	64656.7
828.697	668.4639	65535	64659.6
828.8418	670.5716	65535	64659.5
828.9865	672.6786	65535	64656.7
829.1313	674.785	65535	64652.2
829.2761	676.8907	65535	64659.6
829.4209	678.9958	65535	64656.1
829.5657	681.1002	65535	64657.65
829.7105	683.204	65535	64652.35
829.8553	685.3072	65535	64655.25
830.0001	687.4097	65535	64654.95
830.1449	689.5115	65535	64652.2
830.2898	691.6127	65535	64657
830.4346	693.7132	65535	64652.25
830.5794	695.8131	65535	64639.95
830.7243	697.9123	65535	64651.4
830.8691	700.0109	65535	64655.55
831.014	702.1089	65535	64654.75
831.1588	704.2061	65535	64652.45
831.3037	706.3028	65535	64650.7
831.4486	708.3987	65535	64652.75
831.5935	710.4941	65535	64653.45
831.7383	712.5887	65535	64655.25
831.8832	714.6827	65535	64650
832.0281	716.7761	65535	64655.4
832.173	718.8688	65535	64651.9
832.3179	720.9608	65535	64647.3
832.4628	723.0522	65535	64647.35
832.6077	725.1429	65535	64652.35
832.7527	727.233	65535	64647.55
832.8976	729.3224	65535	64648.35
833.0425	731.4112	65535	64650.2
833.1874	733.4993	65535	64645.75
833.3324	735.5867	65535	64649.9
833.4773	737.6735	65535	64648
833.6222	739.7596	65535	64648.5
833.7672	741.845	65535	64649
833.9122	743.9298	65535	64647.65
834.0571	746.014	65535	64651.9
834.2021	748.0974	65535	64646.35
834.347	750.1802	65535	64648.6
834.492	752.2624	65535	64649.15
834.637	754.3439	65535	64646.25
834.782	756.4247	65535	64637.85
834.9269	758.5048	65535	64647.8
835.0719	760.5843	65535	64647.5
835.2169	762.6631	65535	64649.7
835.3619	764.7413	65535	64649.7
835.5069	766.8188	65535	64646.1
835.6519	768.8956	65535	64644.9
835.7969	770.9718	65535	64647.8
835.9419	773.0473	65535	64649.05
836.0869	775.1221	65535	64649.65
836.232	777.1962	65535	64647.6
836.377	779.2697	65535	64645.05
836.522	781.3426	65535	64629.4
836.667	783.4147	65535	64643.45
836.8121	785.4862	65535	64648.4
836.9571	787.557	65535	64644.45
837.1021	789.6271	65535	64645.65
837.2472	791.6966	65535	64645.5
837.3922	793.7654	65535	64643.95
837.5373	795.8335	65535	64646.95
837.6823	797.901	65535	64644.35
837.8274	799.9678	65535	64644.25
837.9724	802.0339	65535	64645.6
838.1175	804.0993	65535	64635.7
838.2626	806.1641	65535	64644.7
838.4076	808.2282	65535	64644.05
838.5527	810.2916	65535	64642.05
838.6978	812.3544	65535	64644.65
838.8428	814.4164	65535	64646.1
838.9879	816.4778	65535	64644.65
839.133	818.5385	65535	64644.7
839.2781	820.5986	65535	64645.3
839.4232	822.658	65535	64642.75
839.5682	824.7166	65535	64645.5
839.7133	826.7747	65535	64642.05
839.8584	828.832	65535	64641.9
840.0035	830.8886	65535	64642.2
840.1486	832.9446	65535	64644.2
840.2937	834.9999	65535	64645.9
840.4388	837.0545	65535	64638.85
840.5839	839.1085	65535	64642.9
840.729	841.1618	65535	64640.15
840.8741	843.2143	65535	64644.7
841.0192	845.2662	65535	64641.3
841.1643	847.3175	65535	64643.25
841.3095	849.368	65535	64642.4
841.4546	851.4179	65535	64644.45
841.5997	853.467	65535	64642.25
841.7448	855.5155	65535	64641.25
841.8899	857.5633	65535	64641.3
842.0351	859.6105	65535	64640.85
842.1802	861.6569	65535	64642.9
842.3253	863.7027	65535	64640.25
842.4704	865.7478	65535	64638.7
842.6156	867.7922	65535	64640.05
842.7607	869.8359	65535	64643.8
842.9058	871.8789	65535	64640
843.0509	873.9212	65535	64610.05
843.1961	875.9629	65535	64639.25
843.3412	878.0039	65535	64639.65
843.4863	880.0441	65535	64643.3
843.6315	882.0837	65535	64639.65
843.7766	884.1226	65535	64640.05
843.9218	886.1609	65535	64644.65
844.0669	888.1984	65535	64640.9
844.212	890.2352	65535	64639
844.3572	892.2714	65535	64636.85
844.5023	894.3069	65535	64642.05
844.6475	896.3416	65535	64636.95
844.7926	898.3757	65535	64640.05
844.9377	900.4091	65535	64638.7
845.0829	902.4418	65535	64636.3
845.228	904.4739	65535	64636.55
845.3732	906.5052	65535	64637.95
845.5183	908.5358	65535	64638.95
845.6635	910.5658	65535	64638.15
845.8086	912.595	65535	64640.45
845.9538	914.6236	65535	64639.2
846.0989	916.6515	65535	64640.35
846.2441	918.6786	65535	64636.3
846.3892	920.7051	65535	64636.75
846.5344	922.7309	65535	64641
846.6795	924.756	65535	64636.85
846.8246	926.7804	65535	64634.55
846.9698	928.8041	65535	64634.9
847.1149	930.8272	65535	64639.2
847.2601	932.8495	65535	64637.4
847.4052	934.8711	65535	64638.7
847.5504	936.892	65535	64636.1
847.6955	938.9123	65535	64634.65
847.8407	940.9318	65535	64639.35
847.9858	942.9506	65535	64636.2
848.131	944.9688	65535	64639.2
848.2761	946.9862	65535	64638.9
848.4213	949.003	65535	64637
848.5664	951.019	65535	64639.25
848.7115	953.0344	65535	64637.7
848.8567	955.0491	65535	64636.15
849.0018	957.063	65535	64636.65
849.147	959.0763	65535	64638.75
849.2921	961.0888	65535	64635.25
849.4373	963.1007	65535	64639.4
849.5824	965.1119	65535	64639.55
849.7275	967.1223	65535	64638.6
849.8727	969.1321	65535	64639.85
850.0178	971.1412	65535	64640.55
850.1629	973.1495	65535	64636.2
850.3081	975.1572	65535	64604
850.4532	977.1641	65535	64636.45
850.5983	979.1704	65535	64637.35
850.7435	981.1759	65535	64636.3
850.8886	983.1808	65535	64633.5
851.0337	985.1849	65535	64626.1
851.1788	987.1884	65535	64632.45
851.324	989.1911	65535	64636.35
851.4691	991.1932	65535	64635.9
851.6142	993.1945	65535	64638
851.7593	995.1951	65535	64636.65
851.9045	997.1951	65535	64630.95
852.0496	999.1943	65535	64636.85
852.1947	1001.1928	65535	64637.7
852.3398	1003.1906	65535	64635.3
852.4849	1005.1877	65535	64635.55
852.63	1007.1841	65535	64634.55
852.7751	1009.1798	65535	64639.55
852.9202	1011.1748	65535	64639.7
853.0653	1013.1691	65535	64636.9
853.2104	1015.1627	65535	64636.95
853.3555	1017.1556	65535	64637.55
853.5006	1019.1477	65535	64634.8
853.6457	1021.1392	65535	64638.35
853.7908	1023.1299	65535	64638.95
853.9359	1025.12	65535	64636.15
854.081	1027.1093	65535	64641.1
854.2261	1029.0979	65535	64643.85
854.3712	1031.0859	65535	64636.6
854.5163	1033.0731	65535	64637.3
854.6613	1035.0596	65535	64638.9
854.8064	1037.0454	65535	64635.05
854.9515	1039.0304	65535	64636.2
855.0965	1041.0148	65535	64633.45
855.2416	1042.9985	65535	64635.05
855.3867	1044.9814	65535	64639.45
855.5317	1046.9636	65535	64636.4
855.6768	1048.9452	65535	64636.75
855.8219	1050.926	65535	64635.55
855.9669	1052.9061	65535	64639.55
856.112	1054.8855	65535	64633.9
856.257	1056.8642	65535	64636.25
856.4021	1058.8421	65535	64633.25
856.5471	1060.8194	65535	64635.75
856.6921	1062.7959	65535	64638.1
856.8372	1064.7717	65535	64633.35
856.9822	1066.7469	65535	64636.85
857.1272	1068.7213	65535	64632.9
857.2723	1070.695	65535	64637.1
857.4173	1072.6679	65535	64637.1
857.5623	1074.6402	65535	64635.8
857.7073	1076.6117	65535	64628.5
857.8523	1078.5826	65535	64634.8
857.9973	1080.5527	65535	64633.25
858.1423	1082.5221	65535	64634.5
858.2873	1084.4908	65535	64637.7
858.4323	1086.4587	65535	64633.85
858.5773	1088.426	65535	64634.4
858.7223	1090.3925	65535	64630.45
858.8673	1092.3584	65535	64636.4
859.0123	1094.3235	65535	64636.8
859.1573	1096.2879	65535	64634.9
859.3022	1098.2515	65535	64636.9
859.4472	1100.2145	65535	64637.7
859.5922	1102.1767	65535	64631.1
859.7371	1104.1382	65535	64637.8
859.8821	1106.099	65535	64632.15
860.027	1108.0591	65535	64634.75
860.172	1110.0185	65535	64635.05
860.3169	1111.9771	65535	64636.75
860.4619	1113.9351	65535	64636.4
860.6068	1115.8923	65535	64635.95
860.7517	1117.8488	65535	64633.55
860.8967	1119.8045	65535	64635.5
861.0416	1121.7596	65535	64636.9
861.1865	1123.7139	65535	64639.3
861.3314	1125.6675	65535	64638
861.4763	1127.6204	65535	64636.5
861.6212	1129.5726	65535	64635.55
861.7661	1131.524	65535	64634.95
861.911	1133.4748	65535	64633.95
862.0559	1135.4248	65535	64635.15
862.2008	1137.3741	65535	64635.8
862.3457	1139.3226	65535	64633.5
862.4905	1141.2705	65535	64637.6
862.6354	1143.2176	65535	64631.8
862.7803	1145.164	65535	64634.5
862.9251	1147.1097	65535	64634.55
863.07	1149.0546	65535	64636.2
863.2148	1150.9989	65535	64634.35
863.3597	1152.9424	65535	64634.85
863.5045	1154.8852	65535	64633.45
863.6493	1156.8272	65535	64636.05
863.7942	1158.7686	65535	64628.85
863.939	1160.7092	65535	64632.8
864.0838	1162.6491	65535	64632.2
864.2286	1164.5883	65535	64635.2
864.3734	1166.5267	65535	64632.85
864.5182	1168.4644	65535	64635.4
864.663	1170.4014	65535	64630.95
864.8078	1172.3377	65535	64635
864.9526	1174.2732	65535	64635.2
865.0974	1176.2081	65535	64638
865.2421	1178.1421	65535	64632.4
865.3869	1180.0755	65535	64635.45
865.5317	1182.0082	65535	64633.85
865.6764	1183.9401	65535	64635.65
865.8212	1185.8713	65535	64635.75
865.9659	1187.8017	65535	64636.25
866.1106	1189.7315	65535	64638.35
866.2554	1191.6605	65535	64612.35
866.4001	1193.5888	65535	64636.85
866.5448	1195.5163	65535	64636.95
866.6895	1197.4432	65535	64634.85
866.8342	1199.3693	65535	64634.85
866.9789	1201.2947	65535	64633.35
867.1236	1203.2193	65535	64636.65
867.2683	1205.1432	65535	64634.4
867.413	1207.0664	65535	64635.75
867.5576	1208.9889	65535	64635.9
867.7023	1210.9106	65535	64635.25
867.847	1212.8316	65535	64635.45
867.9916	1214.7519	65535	64626.65
868.1363	1216.6715	65535	64636.3
868.2809	1218.5903	65535	64634.95
868.4255	1220.5084	65535	64633.6
868.5701	1222.4257	65535	64635.15
868.7148	1224.3424	65535	64638.25
868.8594	1226.2583	65535	64630.55
869.004	1228.1735	65535	64634.25
869.1486	1230.0879	65535	64635.4
869.2932	1232.0016	65535	64635.8
869.4377	1233.9146	65535	64635.85
869.5823	1235.8269	65535	64636.9
869.7269	1237.7384	65535	64634.8
869.8715	1239.6492	65535	64635.4
870.016	1241.5592	65535	64634.5
870.1606	1243.4686	65535	64634.3
870.3051	1245.3772	65535	64635.25
870.4496	1247.285	65535	64634.6
870.5941	1249.1922	65535	64634.2
870.7387	1251.0986	65535	64635.7
870.8832	1253.0042	65535	64634.55
871.0277	1254.9092	65535	64635.8
871.1722	1256.8134	65535	64637.35
871.3167	1258.7169	65535	64634.85
871.4611	1260.6196	65535	64636.95
871.6056	1262.5216	65535	64633.5
871.7501	1264.4229	65535	64637.3
871.8945	1266.3234	65535	64636.35
872.039	1268.2232	65535	64633.8
872.1834	1270.1223	65535	64634.6
872.3278	1272.0207	65535	64633.65
872.4723	1273.9183	65535	64629.35
872.6167	1275.8151	65535	64634.65
872.7611	1277.7113	65535	64634.6
872.9055	1279.6067	65535	64637.45
873.0499	1281.5014	65535	64633.7
873.1943	1283.3953	65535	64633.3
873.3386	1285.2885	65535	64635.45
873.483	1287.181	65535	64635.55
873.6274	1289.0727	65535	64635.7
873.7717	1290.9637	65535	64635.35
873.9161	1292.854	65535	64636.5
874.0604	1294.7435	65535	64635.25
874.2047	1296.6323	65535	64634.55
874.349	1298.5204	65535	64633.2
874.4933	1300.4077	65535	64634.55
874.6376	1302.2943	65535	64637.3
874.7819	1304.1802	65535	64636.1
874.9262	1306.0653	65535	64633.3
875.0705	1307.9497	65535	64633.9
875.2147	1309.8333	65535	64636.55
875.359	1311.7162	65535	64634.65
875.5032	1313.5984	65535	64629.9
875.6475	1315.4798	65535	64624.05
875.7917	1317.3605	65535	64618.3
875.9359	1319.2405	65535	64634.55
876.0801	1321.1197	65535	64634.35
876.2243	1322.9982	65535	64633.65
876.3685	1324.876	65535	64635.45
876.5127	1326.753	65535	64635.55
876.6569	1328.6293	65535	64631.55
876.801	1330.5048	65535	64631.75
876.9452	1332.3796	65535	64637.45
877.0893	1334.2537	65535	64608.8
877.2335	1336.127	65535	64635.5
877.3776	1337.9996	65535	64636.3
877.5217	1339.8714	65535	64633.5
877.6658	1341.7426	65535	64590.45
877.8099	1343.6129	65535	64634.55
877.954	1345.4826	65535	64633.85
878.0981	1347.3515	65535	64632.4
878.2422	1349.2196	65535	64634
878.3862	1351.087	65535	64634.9
878.5303	1352.9537	65535	64635.2
878.6743	1354.8197	65535	64635.8
878.8184	1356.6849	65535	64634.75
878.9624	1358.5493	65535	64634.8
879.1064	1360.4131	65535	64636.75
879.2504	1362.276	65535	64637.85
879.3944	1364.1383	65535	64632.95
879.5384	1365.9998	65535	64629.1
879.6823	1367.8606	65535	64633.4
879.8263	1369.7206	65535	64634.5
879.9702	1371.5799	65535	64634.1
880.1142	1373.4384	65535	64634.55
880.2581	1375.2962	65535	64632.95
880.402	1377.1533	65535	64635.15
880.5459	1379.0096	65535	64634.75
880.6898	1380.8652	65535	64634
880.8337	1382.7201	65535	64635.15
880.9776	1384.5742	65535	64633.45
881.1215	1386.4275	65535	64635.85
881.2653	1388.2802	65535	64636.3
881.4092	1390.132	65535	64637.3
881.553	1391.9832	65535	64630.75
881.6968	1393.8336	65535	64635.2
881.8406	1395.6832	65535	64633.4
881.9844	1397.5322	65535	64634.8
882.1282	1399.3803	65535	64630.85
882.272	1401.2278	65535	64635
882.4158	1403.0745	65535	64636.55
882.5595	1404.9204	65535	64637.3
882.7033	1406.7656	65535	64636.55
882.847	1408.6101	65535	64635.2
882.9908	1410.4538	65535	64634.45
883.1345	1412.2968	65535	64633.45
883.2782	1414.139	65535	64633.65
883.4219	1415.9805	65535	64636.6
883.5656	1417.8213	65535	64631.9
883.7092	1419.6613	65535	64636.85
883.8529	1421.5006	65535	64635.15
883.9965	1423.3391	65535	64636.45
884.1402	1425.1769	65535	64633.85
884.2838	1427.0139	65535	64635.4
884.4274	1428.8502	65535	64635
884.571	1430.6858	65535	64635
884.7146	1432.5206	65535	64634.45
884.8582	1434.3547	65535	64633.2
885.0018	1436.188	65535	64635.1
885.1453	1438.0206	65535	64632.8
885.2889	1439.8524	65535	64632.35
885.4324	1441.6835	65535	64635.6
885.5759	1443.5139	65535	64633.85
885.7194	1445.3435	65535	64635.85
885.8629	1447.1724	65535	64636.15
886.0064	1449.0005	65535	64635.9
886.1499	1450.8279	65535	64636.15
886.2933	1452.6545	65535	64634.85
886.4368	1454.4804	65535	64637.25
886.5802	1456.3056	65535	64627.65
886.7237	1458.13	65535	64635.75
886.8671	1459.9536	65535	64634.5
887.0105	1461.7766	65535	64635.05
887.1539	1463.5987	65535	64635.2
887.2972	1465.4202	65535	64637.3
887.4406	1467.2409	65535	64638.2
887.584	1469.0608	65535	64635.55
887.7273	1470.88	65535	64634.15
887.8706	1472.6984	65535	64636.5
888.0139	1474.5161	65535	64632.3
888.1572	1476.3331	65535	64635.75
888.3005	1478.1493	65535	64634.05
888.4438	1479.9648	65535	64635.15
888.5871	1481.7795	65535	64634.15
888.7303	1483.5935	65535	64639.4
888.8736	1485.4067	65535	64633.7
889.0168	1487.2192	65535	64637.1
889.16	1489.031	65535	64632.75
889.3032	1490.842	65535	64637.8
889.4464	1492.6522	65535	64637
889.5896	1494.4618	65535	64633.3
889.7327	1496.2705	65535	64635.7
889.8759	1498.0785	65535	64634.7
890.019	1499.8858	65535	64635.45
890.1622	1501.6924	65535	64638.7
890.3053	1503.4981	65535	64637.6
890.4484	1505.3032	65535	64635.85
890.5914	1507.1075	65535	64636.7
890.7345	1508.911	65535	64635.65
890.8776	1510.7138	65535	64635.8
891.0206	1512.5159	65535	64636.05
891.1637	1514.3172	65535	64634.95
891.3067	1516.1178	65535	64636.15
891.4497	1517.9176	65535	64633.65
891.5927	1519.7166	65535	64637.25
891.7357	1521.515	65535	64628.35
891.8786	1523.3126	65535	64636.65
892.0216	1525.1094	65535	64634.2
892.1645	1526.9055	65535	64636.95
892.3074	1528.7008	65535	64638
892.4503	1530.4954	65535	64629.7
892.5932	1532.2893	65535	64639.2
892.7361	1534.0824	65535	64632.2
892.879	1535.8747	65535	64635.5
893.0218	1537.6663	65535	64636.75
893.1647	1539.4572	65535	64636.05
893.3075	1541.2473	65535	64636.4
893.4503	1543.0367	65535	64638.8
893.5931	1544.8253	65535	64632.5
893.7359	1546.6132	65535	64636.2
893.8787	1548.4003	65535	64628.25
894.0214	1550.1867	65535	64627.95
894.1642	1551.9723	65533.45	64630.75
894.3069	1553.7572	65535	64635
894.4496	1555.5414	65535	64637.85
894.5923	1557.3247	65497.1	64601.9
894.735	1559.1074	65535	64638.9
894.8777	1560.8893	65526.75	64630.1
895.0204	1562.6705	65531.75	64636.25
895.163	1564.4509	65504.5	64607.95
895.3056	1566.2305	65522.65	64626.5
895.4482	1568.0094	65531.65	64636.7
895.5908	1569.7876	65522.25	64626.15
895.7334	1571.565	65505.8	64606.2
895.876	1573.3417	65517.45	64619.2
896.0186	1575.1176	65508.65	64611.2
896.1611	1576.8928	65501.9	64605.15
896.3036	1578.6672	65428.8	64533.9
896.4461	1580.4409	65476.6	64582.9
896.5886	1582.2138	65352.85	64454.45
896.7311	1583.986	65393.7	64494.05
896.8736	1585.7575	65244.6	64345.75
897.0161	1587.5282	65343.4	64450.2
897.1585	1589.2981	65322.7	64429.65
897.3009	1591.0673	65102.7	64203.6
897.4433	1592.8358	64869.2	63973.25
897.5857	1594.6035	65105.3	64207.15
897.7281	1596.3704	65122.15	64224.5
897.8705	1598.1366	64609.95	63714.85
898.0128	1599.9021	64304.4	63407.5
898.1551	1601.6668	64816.85	63920.85
898.2975	1603.4308	64552.8	63656
898.4398	1605.194	64560.6	63660
898.5821	1606.9564	63745.9	62850.65
898.7243	1608.7182	64210.75	63314.55
898.8666	1610.4791	63773.45	62879.1
899.0088	1612.2394	64261	63365.6
899.1511	1613.9988	63609.65	62714.45
899.2933	1615.7576	64294.3	63399.6
899.4355	1617.5156	64298.4	63396.6
899.5776	1619.2728	64794.45	63898.6
899.7198	1621.0293	63867.8	62973.35
899.862	1622.785	63891.9	62993.2
900.0041	1624.54	64250.75	63351.85
900.1462	1626.2942	63653.35	62757.45
900.2883	1628.0477	62749.7	61852.4
900.4304	1629.8005	61997.35	61097.45
900.5725	1631.5525	62769.5	61874.65
900.7145	1633.3037	61576.4	60680.5
900.8566	1635.0542	61455.8	60561.55
900.9986	1636.804	61918.3	61023.6
901.1406	1638.553	60766.6	59763.2
901.2826	1640.3013	61154.3	60259.05
901.4245	1642.0488	60393.15	59498.2
901.5665	1643.7955	60896.75	60003.6
901.7085	1645.5416	60336.65	59440.25
901.8504	1647.2868	59899.75	59006.2
901.9923	1649.0313	60705.25	59809.9
902.1342	1650.7751	60204.5	59306.15
902.2761	1652.5181	59786.35	58891.4
902.4179	1654.2604	59859.35	58964.4
902.5598	1656.0019	60348.8	59455.45
902.7016	1657.7427	60116.1	59221.4
902.8434	1659.4828	60729.55	59834.1
902.9852	1661.222	60288.1	59392.7
903.127	1662.9606	60731.4	59837.2
903.2687	1664.6984	59908.85	59014.3
903.4105	1666.4354	60099.15	59202.65
903.5522	1668.1717	58948.75	58054.9
903.6939	1669.9072	58112.6	57218.1
903.8356	1671.642	57793.3	56897
903.9773	1673.3761	57454.45	56559.55
904.119	1675.1094	57203.15	56308.1
904.2606	1676.8419	56625.75	55731.4
904.4022	1678.5737	56451.45	55556.6
904.5439	1680.3048	56146.05	55251.75
904.6855	1682.0351	55818.5	54925
904.827	1683.7646	55526.5	54628.1
904.9686	1685.4934	55545.3	54651.25
905.1101	1687.2215	54603.95	53711.65
905.2517	1688.9488	55128.7	54234.95
905.3932	1690.6754	53872.4	52979.9
905.5347	1692.4012	54281.35	53386.55
905.6761	1694.1263	54177.7	53283.75
905.8176	1695.8506	53811.15	52915.6
905.9591	1697.5742	53672.95	52777.95
906.1005	1699.297	53381.8	52487.75
906.2419	1701.0191	53242	52349.35
906.3833	1702.7404	52787.6	51892.85
906.5246	1704.461	52546.95	51653
906.666	1706.1808	52440.9	51544.95
906.8073	1707.8999	52351.9	51457.55
906.9487	1709.6182	52086.05	51191.2
907.09	1711.3358	51926.4	51034.1
907.2313	1713.0527	51727.75	50834.7
907.3725	1714.7688	51622.1	50724.85
907.5138	1716.4841	51099.2	50203.25
907.655	1718.1987	51247.6	50348.6
907.7962	1719.9126	51023	50130.85
907.9374	1721.6257	50814.85	49919.15
908.0786	1723.338	50874.05	49982.1
908.2198	1725.0496	50237.6	49344.9
908.3609	1726.7605	50215.85	49321.55
908.502	1728.4706	50059.35	49165
908.6431	1730.18	49775.75	48880.15
908.7842	1731.8886	49637.2	48744.3
908.9253	1733.5964	49496.15	48582.75
909.0664	1735.3036	49401.65	48507.15
909.2074	1737.0099	49232.25	48339.05
909.3484	1738.7156	49011.8	48117.65
909.4894	1740.4204	48750.05	47854.2
909.6304	1742.1246	48683.05	47787.3
909.7714	1743.8279	48603.5	47712.05
909.9123	1745.5306	48481.65	47587.25
910.0532	1747.2325	48194.55	47301.25
910.1941	1748.9336	48119	47226.05
910.335	1750.634	47868.75	46975.05
910.4759	1752.3336	47799.05	46905.1
910.6168	1754.0325	47627.05	46734
910.7576	1755.7307	47597.05	46704.95
910.8984	1757.4281	47444.75	46553.45
911.0392	1759.1247	47382.45	46480.6
911.18	1760.8206	47180.35	46283.8
911.3208	1762.5158	47145.25	46248.4
911.4615	1764.2102	46893.5	45999.7
911.6022	1765.9039	46701.95	45811.2
911.7429	1767.5968	46573.5	45680.8
911.8836	1769.289	46467.2	45574.4
912.0243	1770.9804	46302.1	45410.4
912.1649	1772.6711	46244.6	45351.4
912.3056	1774.361	46083.7	45190.9
912.4462	1776.0502	45958.45	45065
912.5868	1777.7386	45823.4	44925.55
912.7274	1779.4263	45634.2	44741.1
912.8679	1781.1132	45596.4	44704.6
913.0084	1782.7994	45443.75	44549.2
913.149	1784.4849	45314.25	44423.1
913.2895	1786.1696	45094.4	44195.95
913.4299	1787.8535	45032.5	44139.2
913.5704	1789.5367	44825.55	43930.5
913.7108	1791.2192	44782.4	43891.05
913.8513	1792.9009	44554.6	43631.35
913.9917	1794.5818	44461.35	43567.6
914.132	1796.2621	44332.3	43441.4
914.2724	1797.9415	44188.85	43295.2
914.4128	1799.6202	44038.9	43146.95
914.5531	1801.2982	43960.35	43068.55
914.6934	1802.9755	43902.3	43008.65
914.8337	1804.6519	43808.75	42916.75
914.9739	1806.3277	43515.8	42625.15
915.1142	1808.0027	43296.05	42405.05
915.2544	1809.6769	43291.35	42400
915.3946	1811.3504	43152	42260.1
915.5348	1813.0231	43003.55	42110.5
915.675	1814.6951	42945.6	42053.2
915.8151	1816.3664	42880.55	41985.7
915.9553	1818.0369	42731.1	41837.75
916.0954	1819.7067	42641.9	41750.6
916.2355	1821.3757	42510.45	41616.95
916.3755	1823.044	42480.6	41586.15
916.5156	1824.7115	42319.1	41426.7
916.6556	1826.3783	42098.8	41205.65
916.7956	1828.0443	41954.95	41064.4
916.9356	1829.7096	41854.05	40960.15
917.0756	1831.3741	41779.95	40883.9
917.2155	1833.0379	41612.15	40720.2
917.3555	1834.701	41501.5	40606.95
917.4954	1836.3633	41374.75	40481.7
917.6353	1838.0248	41276.9	40381.4
917.7751	1839.6856	41179.85	40287.15
917.915	1841.3457	41148.8	40257.8
918.0548	1843.005	40977.95	40086.4
918.1946	1844.6636	40912.05	40021.45
918.3344	1846.3214	40734.55	39840.2
918.4742	1847.9785	40717.55	39825.35
918.6139	1849.6349	40555.9	39662
918.7537	1851.2904	40460.45	39559.95
918.8934	1852.9453	40290.05	39396.95
919.0331	1854.5994	40201.75	39307.35
919.1727	1856.2528	40239.5	39340.3
919.3124	1857.9054	40075.4	39181.55
919.452	1859.5572	39980.95	39089.1
919.5916	1861.2083	39864.95	38969.7
919.7312	1862.8587	39826.2	38933.3
919.8708	1864.5084	39638.35	38744.5
920.0103	1866.1572	39540.55	38648.45
920.1498	1867.8054	39339	38446.9
920.2893	1869.4528	39282.25	38387.95
920.4288	1871.0994	39143.1	38249.6
920.5683	1872.7453	39099.7	38205.6
920.7077	1874.3905	39022	38123.75
920.8471	1876.0349	38849.55	37957
920.9865	1877.6786	38772	37878.1
921.1259	1879.3215	38739.15	37846.45
921.2653	1880.9637	38618.65	37726.15
921.4046	1882.6051	38534.75	37641.25
921.5439	1884.2458	38417.55	37524.1
921.6832	1885.8858	38244.75	37352.9
921.8225	1887.525	38125.55	37231.2
921.9617	1889.1634	37928.65	37035.95
922.101	1890.8011	37813.7	36920.45
922.2402	1892.4381	37740.7	36848.05
922.3794	1894.0743	37663.8	36770.95
922.5185	1895.7098	37557.9	36664.6
922.6577	1897.3446	37443.95	36549.4
922.7968	1898.9786	37283.1	36387.9
922.9359	1900.6118	37191.95	36301.1
923.075	1902.2443	37040.2	36146.1
923.214	1903.8761	36971.55	36079.4
923.3531	1905.5071	36683.7	35791.5
923.4921	1907.1374	36577.95	35684.9
923.6311	1908.7669	36530.6	35639
923.77	1910.3957	36549.9	35658.4
923.909	1912.0237	36230.3	35336.65
924.0479	1913.651	36140.85	35247.15
924.1868	1915.2776	36056.75	35166.05
924.3257	1916.9034	35888.35	34996.75
924.4646	1918.5285	35704.3	34814.6
924.6034	1920.1528	35597.8	34705.55
924.7422	1921.7764	35516.15	34624.9
924.881	1923.3992	35370.55	34478.1
925.0198	1925.0213	35125.2	34233.35
925.1586	1926.6427	34939.8	34047.5
925.2973	1928.2633	34958.3	33956.4
925.436	1929.8832	34804.3	33911.7
925.5747	1931.5023	34537.8	33646.05
925.7134	1933.1207	34444.95	33552.8
925.852	1934.7383	34426.15	33532.7
925.9906	1936.3552	34310.4	33417.7
926.1292	1937.9714	34191.95	33300.25
926.2678	1939.5868	34040.35	33146.75
926.4064	1941.2015	33854.15	32961.25
926.5449	1942.8154	33702.8	32807.7
926.6834	1944.4286	33520.3	32628.7
926.8219	1946.041	33424.85	32513.5
926.9604	1947.6528	33210.25	32312.25
927.0988	1949.2637	33153.05	32263.9
927.2372	1950.8739	33024.6	32132
927.3756	1952.4834	32934.95	32043.15
927.514	1954.0921	32934.95	32041.45
927.6523	1955.7001	32728.85	31831.25
927.7907	1957.3074	32607.6	31715.65
927.929	1958.9139	32449.7	31557.15
928.0673	1960.5197	32421.35	31527.2
928.2055	1962.1247	32209.45	31317.65
928.3438	1963.729	32105.7	31216.5
928.482	1965.3325	31986	31070.45
928.6202	1966.9353	31882	30990
928.7584	1968.5374	31721.6	30827.6
928.8965	1970.1387	31557.55	30663.4
929.0346	1971.7393	31449.4	30558.25
929.1727	1973.3392	31377.4	30486.05
929.3108	1974.9383	31232.4	30342
929.4489	1976.5366	31141.35	30249.85
929.5869	1978.1342	31077.05	30187.5
929.7249	1979.7311	30978.7	30086.8
929.8629	1981.3273	30860.2	29969.3
930.0009	1982.9227	30717.7	29824
930.1388	1984.5173	30610.7	29719.4
930.2767	1986.1112	30499.4	29607.15
930.4146	1987.7044	30400.95	29512.75
930.5525	1989.2968	30277.55	29383.55
930.6904	1990.8885	30230.25	29335.85
930.8282	1992.4795	30157.45	29263.9
930.966	1994.0697	29999.15	29108.25
931.1038	1995.6592	29876.95	28985.6
931.2415	1997.2479	29801.7	28911.15
931.3793	1998.8359	29701.45	28811.3
931.517	2000.4232	29566.2	28675.3
931.6547	2002.0097	29444.7	28556.3
931.7923	2003.5955	29304.6	28414
931.93	2005.1805	29248.9	28355.9
932.0676	2006.7648	29196.9	28305.9
932.2052	2008.3484	29062.7	28170.2
932.3427	2009.9312	29048.85	28156.85
932.4803	2011.5133	28886.25	27996.85
932.6178	2013.0946	28842.55	27951.85
932.7553	2014.6752	28700.1	27809.3
932.8928	2016.2551	28625.5	27733.45
933.0302	2017.8342	28491.6	27599.7
933.1676	2019.4126	28430.05	27538.4
933.305	2020.9902	28227.5	27333.5
933.4424	2022.5672	28240.8	27348.7
933.5798	2024.1433	28142.65	27244.95
933.7171	2025.7188	28056.25	27166.15
933.8544	2027.2935	27951.1	27060.05
933.9917	2028.8674	27799.5	26908
934.129	2030.4406	27715.1	26827.75
934.2662	2032.0131	27580.7	26690.2
934.4034	2033.5849	27500.7	26601.95
934.5406	2035.1559	27486.3	26596.05
934.6778	2036.7261	27412.25	26521.05
934.8149	2038.2957	27255.5	26364.75
934.952	2039.8645	27207.25	26318.4
935.0891	2041.4325	27222.75	26328.55
935.2262	2042.9998	27086.65	26195.9
935.3632	2044.5664	26992	26098.65
935.5002	2046.1323	26860.65	25970.1
935.6372	2047.6974	26779.15	25889.2
935.7742	2049.2617	26723.65	25832.8
935.9111	2050.8254	26693.85	25781.05
936.048	2052.3883	26665	25772.15
936.1849	2053.9504	26484.25	25594.15
936.3218	2055.5118	26390.25	25498
936.4586	2057.0725	26250.55	25355.85
936.5955	2058.6325	26231.35	25339.7
936.7323	2060.1917	26117.55	25226.5
936.869	2061.7502	26032.3	25138.85
937.0058	2063.3079	25972.1	25082.8
937.1425	2064.8649	25880.35	24987.5
937.2792	2066.4212	25793.7	24901.5
937.4159	2067.9767	25733.4	24842.9
937.5525	2069.5315	25625.7	24734.55
937.6891	2071.0856	25501.7	24610
937.8257	2072.6389	25387.75	24494.5
937.9623	2074.1915	25261.85	24371.45
938.0989	2075.7433	25132.05	24237.5
938.2354	2077.2945	25084.6	24193.9
938.3719	2078.8448	24991.85	24101.15
938.5084	2080.3945	24918.05	24028.3
938.6448	2081.9434	24827.15	23936.75
938.7812	2083.4916	24801.65	23908.1
938.9176	2085.039	24665	23772.95
939.054	2086.5857	24609.5	23716.2
939.1903	2088.1317	24518.1	23625.25
939.3267	2089.677	24475.5	23584.25
939.463	2091.2215	24377.2	23486.4
939.5992	2092.7652	24290.35	23396.4
939.7355	2094.3083	24243.05	23349.4
939.8717	2095.8506	24185.9	23295.05
940.0079	2097.3921	24151.6	23262.3
940.1441	2098.933	24095.25	23204.65
940.2802	2100.4731	23953.7	23062.95
940.4163	2102.0124	23937.1	23036.35
940.5524	2103.5511	23841.35	22950.15
940.6885	2105.089	23811.85	22919.6
940.8245	2106.6261	23769.9	22879.25
940.9606	2108.1626	23693.85	22802.45
941.0965	2109.6983	23627.65	22709.4
941.2325	2111.2332	23525.4	22630.95
941.3684	2112.7675	23448.7	22558
941.5044	2114.301	23303.8	22408.2
941.6403	2115.8337	23398.45	22505.9
941.7761	2117.3657	23263.35	22373.3
941.912	2118.897	23226.55	22336.3
942.0478	2120.4276	23093.95	22195.6
942.1835	2121.9575	23003.9	22111.35
942.3193	2123.4866	23000.65	22095.9
942.455	2125.0149	22922.6	22028.45
942.5907	2126.5426	22769.9	21877.85
942.7264	2128.0695	22697.4	21802.6
942.8621	2129.5956	22680.2	21790.1
942.9977	2131.1211	22607.15	21708.45
943.1333	2132.6458	22512.85	21622.05
943.2689	2134.1698	22517.15	21625.15
943.4044	2135.693	22408.2	21515.75
943.54	2137.2155	22347.5	21451.25
943.6755	2138.7373	22279.65	21386.65
943.8109	2140.2584	22193.35	21304.2
943.9464	2141.7787	22105.2	21208.05
944.0818	2143.2983	21993.35	21101.9
944.2172	2144.8171	21855.95	20964
944.3526	2146.3353	21804.05	20910.45
944.4879	2147.8527	21705.75	20815.35
944.6232	2149.3693	21711.6	20818.15
944.7585	2150.8853	21633.2	20742.05
944.8938	2152.4005	21497.75	20605.5
945.029	2153.9149	21490.15	20597
945.1642	2155.4287	21411.75	20521.3
945.2994	2156.9417	21369.95	20477.25
945.4346	2158.454	21314.9	20421.4
945.5697	2159.9655	21260.25	20368.65
945.7048	2161.4764	21179.65	20287.05
945.8399	2162.9865	21104.25	20211.7
945.9749	2164.4958	21050.2	20158.45
946.1099	2166.0045	20981.2	20086.95
946.2449	2167.5124	20972.15	20080.05
946.3799	2169.0195	20880.45	19988.95
946.5148	2170.526	20834.35	19941.35
946.6498	2172.0317	20738.35	19846.4
946.7846	2173.5367	20683.6	19790.85
946.9195	2175.0409	20585.7	19695.6
947.0543	2176.5445	20588.25	19697.75
947.1891	2178.0473	20519.45	19630.7
947.3239	2179.5494	20429.9	19534.15
947.4587	2181.0507	20353.75	19461.55
947.5934	2182.5513	20285.8	19393.35
947.7281	2184.0512	20194.9	19304.9
947.8628	2185.5504	20144.9	19252.25
947.9974	2187.0488	20034.15	19144.15
948.132	2188.5465	19978.65	19087.55
948.2666	2190.0435	19920.35	19029
948.4012	2191.5397	19842.65	18952.4
948.5357	2193.0353	19770.85	18879.3
948.6702	2194.5301	19656.55	18766.25
948.8047	2196.0241	19577.8	18685.8
948.9392	2197.5175	19502.85	18611.95
949.0736	2199.0101	19383.95	18486.8
949.208	2200.502	19328.75	18440.1
949.3424	2201.9931	19261.75	18373.05
949.4767	2203.4835	19185.25	18291.4
949.611	2204.9733	19152.2	18252.7
949.7453	2206.4622	19099.9	18206.85
949.8796	2207.9505	18985.8	18089.35
950.0138	2209.438	18922.35	18032.2
950.148	2210.9248	18834.6	17942.45
950.2822	2212.4109	18804.25	17914.5
950.4164	2213.8962	18718	17824.2
950.5505	2215.3809	18706.65	17814.25
950.6846	2216.8648	18648.3	17756.3
950.8186	2218.3479	18566.5	17670.1
950.9527	2219.8304	18487.35	17591.5
951.0867	2221.3121	18407.2	17512.3
951.2207	2222.7931	18340.5	17447.35
951.3546	2224.2733	18247.95	17355.55
951.4886	2225.7529	18196.4	17305
951.6225	2227.2317	18145.2	17251.55
951.7563	2228.7098	18104.7	17211.55
951.8902	2230.1872	17999.8	17108.15
952.024	2231.6638	17969.8	17078.35
952.1578	2233.1397	17884.6	16988.15
952.2916	2234.6149	17831.4	16939.3
952.4253	2236.0894	17783.5	16890.35
952.559	2237.5632	17765.1	16864.3
952.6927	2239.0362	17655.15	16763.2
952.8263	2240.5085	17578.9	16686.9
952.9599	2241.9801	17525.35	16634.4
953.0935	2243.4509	17517.25	16623.85
953.2271	2244.921	17419.4	16528.25
953.3606	2246.3904	17349.3	16455.5
953.4941	2247.8591	17284.2	16393
953.6276	2249.3271	17266.3	16374.05
953.7611	2250.7943	17168.85	16274.6
953.8945	2252.2608	17070.85	16180.1
954.0279	2253.7266	17026.1	16133.65
954.1612	2255.1917	16973.45	16080.05
954.2946	2256.656	16933.65	16043
954.4279	2258.1197	16847.25	15955.9
954.5612	2259.5826	16823.15	15930.8
954.6944	2261.0447	16780.15	15886
954.8276	2262.5062	16691.45	15795.6
954.9608	2263.9669	16649.55	15754.45
955.094	2265.4269	16636.6	15744.3
955.2271	2266.8862	16574.4	15683.35
955.3602	2268.3448	16536.5	15644.1
955.4933	2269.8026	16487.65	15593.5
955.6264	2271.2598	16417.1	15525.5
955.7594	2272.7162	16357.9	15465.45
955.8924	2274.1719	16310.05	15419.1
956.0253	2275.6268	16241.4	15350.8
956.1583	2277.0811	16205.8	15313.65
956.2912	2278.5346	16169	15276.75
956.4241	2279.9874	16091.05	15198.05
956.5569	2281.4395	16103.35	15212.55
956.6897	2282.8908	16018	15121.05
956.8225	2284.3414	16001.55	15107.9
956.9553	2285.7914	15932.6	15042.8
957.088	2287.2406	15857.35	14965.2
957.2207	2288.689	15785.55	14896.6
957.3534	2290.1368	15754.55	14862.7
957.486	2291.5838	15714.65	14821.5
957.6186	2293.0302	15663.35	14771.3
957.7512	2294.4758	15597.45	14704.85
957.8838	2295.9206	15514.45	14620
958.0163	2297.3648	15461.55	14568.6
958.1488	2298.8082	15433.15	14540.3
958.2813	2300.251	15396.95	14507
958.4137	2301.693	15353.15	14458.3
958.5461	2303.1343	15350.85	14459.65
958.6785	2304.5748	15282.4	14391.95
958.8108	2306.0147	15196.1	14304.5
958.9432	2307.4538	15163.85	14269.65
959.0754	2308.8922	15128.05	14237.45
959.2077	2310.3299	15088.05	14196.35
959.3399	2311.7669	14995.85	14106.1
959.4721	2313.2031	14926.75	14034.75
959.6043	2314.6387	14894.2	14002.9
959.7365	2316.0735	14834.6	13941.6
959.8686	2317.5076	14825.5	13933.35
960.0006	2318.941	14752.5	13861.8
960.1327	2320.3737	14711.7	13818.4
960.2647	2321.8056	14653.25	13759.6
960.3967	2323.2369	14618.4	13725.3
960.5287	2324.6674	14556.4	13662.8
960.6606	2326.0972	14489.5	13597.15
960.7925	2327.5263	14446.1	13555.35
960.9244	2328.9547	14403.35	13511.55
961.0562	2330.3823	14351.55	13458.3
961.1881	2331.8092	14337.4	13440.6
961.3198	2333.2355	14249.95	13357.5
961.4516	2334.661	14244.15	13348.65
961.5833	2336.0858	14221.1	13328.05
961.715	2337.5098	14138.25	13246.9
961.8467	2338.9332	14119	13225.75
961.9783	2340.3558	14048.95	13154.5
962.1099	2341.7778	14000.95	13106.85
962.2415	2343.199	13953.75	13058.6
962.373	2344.6195	13922.8	13031.1
962.5045	2346.0393	13892.8	13002.2
962.636	2347.4583	13886.3	12994.75
962.7675	2348.8767	13798.5	12904.15
962.8989	2350.2943	13780.05	12887.45
963.0303	2351.7113	13751.05	12859.4
963.1617	2353.1275	13651.1	12758.55
963.293	2354.543	13623.4	12705.6
963.4243	2355.9578	13573.8	12680.7
963.5556	2357.3718	13454.3	12561.45
963.6868	2358.7852	13416.65	12521.8
963.818	2360.1978	13386	12491.8
963.9492	2361.6098	13367.7	12476
964.0803	2363.021	13309.6	12414.7
964.2114	2364.4315	13270	12378.75
964.3425	2365.8413	13210.2	12316.55
964.4736	2367.2504	13158.3	12265.3
964.6046	2368.6587	13070.5	12178.45
964.7356	2370.0664	13035.5	12143.6
964.8666	2371.4733	12987.85	12095.8
964.9975	2372.8795	12933.7	12043.75
965.1284	2374.285	12899.1	12005.4
965.2593	2375.6899	12830.9	11940.6
965.3901	2377.0939	12751.35	11859.55
965.5209	2378.4973	12693.55	11803.15
965.6517	2379.9	12662	11770.35
965.7825	2381.3019	12642.5	11750.4
965.9132	2382.7032	12607.45	11717.35
966.0439	2384.1037	12574.5	11685.3
966.1745	2385.5035	12491.2	11600.35
966.3051	2386.9027	12477.4	11587.2
966.4357	2388.3011	12449.4	11555.7
966.5663	2389.6987	12383.8	11490.9
966.6968	2391.0957	12337.85	11446.45
966.8273	2392.492	12277.1	11386.75
966.9578	2393.8876	12209.55	11318.45
967.0882	2395.2824	12167.1	11276.85
967.2186	2396.6765	12094.9	11204.4
967.349	2398.07	12038.85	11146.65
967.4793	2399.4627	12045.8	11153.7
967.6097	2400.8547	11989.8	11097.95
967.7399	2402.246	11943.75	11045.4
967.8702	2403.6366	11854.9	10962.25
968.0004	2405.0265	11811.75	10920.95
968.1306	2406.4156	11783.65	10888.1
968.2607	2407.8041	11746.6	10852.9
968.3909	2409.1918	11713.85	10820.3
968.521	2410.5789	11644.3	10752.9
968.651	2411.9652	11595.15	10701.35
968.781	2413.3508	11566.6	10675.35
968.911	2414.7358	11513.65	10621
969.041	2416.12	11470.3	10579.9
969.1709	2417.5035	11417.1	10527.25
969.3008	2418.8863	11389.45	10498.25
969.4307	2420.2684	11357.3	10466.05
969.5606	2421.6497	11309.6	10416.85
969.6904	2423.0304	11245.15	10354.35
969.8201	2424.4104	11196	10304
969.9499	2425.7896	11168.2	10273.1
970.0796	2427.1682	11130.2	10238.85
970.2093	2428.546	11114.95	10221.75
970.3389	2429.9232	11078.15	10185.25
970.4685	2431.2996	11040.3	10149.15
970.5981	2432.6753	11011.35	10120.65
970.7277	2434.0503	10972.05	10081.95
970.8572	2435.4246	10919.8	10029.85
970.9867	2436.7982	10891.8	9999.1
971.1161	2438.1711	10879.3	9989.9
971.2456	2439.5433	10830.85	9938.6
971.375	2440.9148	10772.3	9880.2
971.5043	2442.2856	10721.8	9831.65
971.6336	2443.6557	10690.15	9798.35
971.7629	2445.025	10649	9758.6
971.8922	2446.3937	10620.65	9729.25
972.0214	2447.7617	10583.55	9692.05
972.1506	2449.1289	10563.2	9670.75
972.2798	2450.4955	10563.2	9666.15
972.4089	2451.8613	10478.45	9587.85
972.538	2453.2265	10459.3	9567.45
972.6671	2454.5909	10440.2	9547.5
972.7961	2455.9546	10407.1	9517.05
972.9251	2457.3177	10342.15	9451.05
973.0541	2458.68	10342.1	9448.25
973.1831	2460.0416	10322.1	9430.15
973.312	2461.4025	10288.35	9393.85
973.4408	2462.7627	10247.5	9343.25
973.5697	2464.1222	10229.2	9339.65
973.6985	2465.4811	10184.45	9291.8
973.8273	2466.8392	10163.45	9270.45
973.956	2468.1966	10139.35	9246.4
974.0847	2469.5533	10096.3	9202.55
974.2134	2470.9093	10113.8	9223.3
974.3421	2472.2645	10051.15	9157.75
974.4707	2473.6191	10018.5	9128.15
974.5993	2474.973	9967.6	9075.65
974.7278	2476.3262	9951.4	9058
974.8563	2477.6787	9896.3	9004.25
974.9848	2479.0305	9836.3	8945
975.1132	2480.3816	9816.4	8924.95
975.2417	2481.7319	9787.35	8897.25
975.37	2483.0816	9753.1	8860.05
975.4984	2484.4306	9708.85	8816.1
975.6267	2485.7789	9668.3	8777.9
975.755	2487.1264	9653.6	8759.85
975.8833	2488.4733	9570.2	8680.15
976.0115	2489.8195	9566.05	8669.1
976.1397	2491.165	9513.5	8617.1
976.2678	2492.5097	9501.55	8607.25
976.3959	2493.8538	9464.25	8573.6
976.524	2495.1972	9402.65	8511.9
976.6521	2496.5398	9348.35	8455.7
976.7801	2497.8818	9335.1	8441.25
976.9081	2499.2231	9282.1	8389.95
977.036	2500.5637	9270.95	8376.65
977.164	2501.9035	9242.25	8351.2
977.2918	2503.2427	9228.75	8334.4
977.4197	2504.5812	9171.75	8282.05
977.5475	2505.919	9135.1	8243.2
977.6753	2507.256	9119.9	8229.45
977.8031	2508.5924	9093.15	8201.35
977.9308	2509.9281	9071.6	8174.35
978.0585	2511.2631	9016.65	8124.9
978.1861	2512.5974	9010.75	8117.8
978.3137	2513.9309	8972.75	8082.75
978.4413	2515.2638	8953.45	8027.8
978.5689	2516.596	8931.55	8041
978.6964	2517.9275	8889.8	7995.7
978.8239	2519.2583	8833.7	7941.6
978.9513	2520.5884	8779.75	7887.9
979.0788	2521.9178	8786.4	7893.6
979.2062	2523.2465	8730.05	7838.35
979.3335	2524.5745	8701.8	7811.65
979.4608	2525.9018	8658.85	7768.15
979.5881	2527.2284	8636.3	7746.3
979.7154	2528.5543	8609.5	7717.85
979.8426	2529.8796	8595.75	7704.2
979.9698	2531.2041	8552.3	7659.25
980.0969	2532.5279	8549.5	7657.6
980.224	2533.851	8543.6	7649.75
980.3511	2535.1735	8488.85	7596.95
980.4781	2536.4952	8471.7	7581.35
980.6052	2537.8163	8460.65	7569.25
980.7321	2539.1366	8420.1	7529.65
980.8591	2540.4562	8398.25	7506.5
980.986	2541.7752	8388.15	7496.4
981.1129	2543.0935	8380.2	7487.35
981.2397	2544.411	8355.35	7461.6
981.3665	2545.7279	8295.7	7405.4
981.4933	2547.0441	8302.25	7410.6
981.62	2548.3596	8312.6	7417.95
981.7467	2549.6744	8271.7	7379.15
981.8734	2550.9885	8247.4	7354.75
982.0001	2552.3019	8196.65	7306.05
982.1267	2553.6146	8197.95	7306.45
982.2532	2554.9266	8158	7266.15
982.3798	2556.2379	8138.85	7245.45
982.5063	2557.5485	8109.15	7217.95
982.6327	2558.8585	8086.5	7188.1
982.7592	2560.1677	8096.9	7199.35
982.8856	2561.4762	8069.1	7177
983.0119	2562.7841	8051.95	7157.6
983.1383	2564.0913	8021.6	7131.3
983.2646	2565.3977	8001.25	7110.95
983.3908	2566.7035	7975.2	7083.4
983.517	2568.0086	7988.05	7095.45
983.6432	2569.313	7948.35	7056.2
983.7694	2570.6167	7952.15	7056.3
983.8955	2571.9197	7914.3	7024.35
984.0216	2573.222	7896.3	7003.7
984.1476	2574.5236	7887.4	6995.65
984.2737	2575.8246	7865.3	6970.2
984.3996	2577.1248	7838.4	6944.15
984.5256	2578.4244	7816.75	6925.8
984.6515	2579.7232	7799.15	6908.1
984.7774	2581.0214	7805.3	6888.35
984.9032	2582.3189	7767.05	6876.4
985.029	2583.6157	7738.45	6843.6
985.1548	2584.9118	7730.4	6839.6
985.2806	2586.2072	7699.25	6808.75
985.4063	2587.5019	7672.75	6780.65
985.5319	2588.7959	7659.15	6763.1
985.6576	2590.0893	7660.15	6766.2
985.7832	2591.3819	7623.55	6733.7
985.9087	2592.6739	7593.65	6702.2
986.0343	2593.9652	7591.9	6698.35
986.1597	2595.2557	7574.2	6683.25
986.2852	2596.5456	7522.8	6628.8
986.4106	2597.8348	7497.3	6606.75
986.536	2599.1234	7469.65	6578.65
986.6614	2600.4112	7457.25	6564.7
986.7867	2601.6983	7406.3	6510
986.912	2602.9848	7402	6508.5
987.0372	2604.2705	7340	6442.05
987.1624	2605.5556	7345.45	6454.2
987.2876	2606.84	7319.4	6429.85
987.4128	2608.1237	7294.8	6403.7
987.5379	2609.4067	7270.3	6379.55
987.6629	2610.689	7247.75	6349.6
987.788	2611.9707	7223.1	6326.5
987.913	2613.2516	7200.05	6301.1
988.0379	2614.5319	7148.4	6256.35
988.1629	2615.8115	7120.95	6226.15
988.2878	2617.0903	7090.65	6198.4
988.4126	2618.3685	7070.8	6177.1
988.5375	2619.6461	7044.05	6154.3
988.6622	2620.9229	7037.45	6147.95
988.787	2622.199	6994.9	6103
988.9117	2623.4745	6976.2	6082.75
989.0364	2624.7493	6956.55	6067
989.161	2626.0234	6946.7	6054.9
989.2857	2627.2968	6926.15	6034.6
989.4102	2628.5695	6881.9	5988.9
989.5348	2629.8415	6862.45	5971.2
989.6593	2631.1128	6841.7	5948.85
989.7837	2632.3835	6796.95	5904.05
989.9082	2633.6535	6772.45	5880.95
990.0326	2634.9228	6754.7	5862.8
990.1569	2636.1914	6726.15	5834.25
990.2812	2637.4593	6707.9	5811.85
990.4055	2638.7265	6691.55	5799.15
990.5298	2639.9931	6689.25	5799.5
990.654	2641.259	6652.6	5761.5
990.7782	2642.5242	6622.95	5729.15
990.9023	2643.7887	6592.8	5700.8
991.0264	2645.0525	6593.2	5699.55
991.1505	2646.3156	6570.1	5680.25
991.2745	2647.5781	6550.4	5660.25
991.3985	2648.8398	6526.1	5635.75
991.5225	2650.1009	6525.65	5624.8
991.6464	2651.3613	6486.45	5594.65
991.7703	2652.6211	6464.6	5571.65
991.8942	2653.8801	6426.1	5534.55
992.018	2655.1385	6417.05	5523
992.1418	2656.3961	6394.3	5502.65
992.2655	2657.6531	6397.45	5506.3
992.3892	2658.9094	6376.9	5485.6
992.5129	2660.1651	6359.75	5467.45
992.6366	2661.42	6357.55	5466.55
992.7602	2662.6743	6334.25	5442.55
992.8837	2663.9279	6325.6	5434.65
993.0073	2665.1808	6284.05	5390.5
993.1307	2666.433	6261.25	5368.7
993.2542	2667.6846	6250	5357.3
993.3776	2668.9354	6241.15	5345.85
993.501	2670.1856	6228.9	5335.25
993.6244	2671.4351	6223.3	5334
993.7477	2672.6839	6207.8	5315.15
993.8709	2673.9321	6180.6	5289.75
993.9942	2675.1795	6152.5	5262.35
994.1174	2676.4263	6148.55	5257.85
994.2405	2677.6724	6124.6	5231.9
994.3637	2678.9179	6098.65	5203.25
994.4868	2680.1626	6091.9	5200.95
994.6098	2681.4067	6090.15	5198.35
994.7328	2682.6501	6059.75	5168
994.8558	2683.8928	6049.7	5159.5
994.9788	2685.1348	6013.7	5124.1
995.1017	2686.3761	6000.95	5108.35
995.2245	2687.6168	5986.2	5093.6
995.3474	2688.8568	5971.1	5079.75
995.4702	2690.0961	5941.8	5051.2
995.5929	2691.3348	5911.5	5019.75
995.7156	2692.5727	5906.15	5015.45
995.8383	2693.81	5865.55	4973.95
995.961	2695.0466	5866.95	4973.85
996.0836	2696.2826	5835.1	4941.05
996.2062	2697.5178	5838.95	4947.65
996.3287	2698.7524	5815.9	4921.4
996.4512	2699.9863	5801	4909.25
996.5737	2701.2195	5765.1	4875.45
996.6961	2702.452	5753.9	4862.15
996.8185	2703.6839	5758.7	4865.65
996.9408	2704.9151	5739.35	4848.95
997.0631	2706.1456	5706.6	4813.4
997.1854	2707.3755	5708.75	4815.35
997.3077	2708.6046	5698.25	4801.8
997.4299	2709.8331	5671.5	4779.35
997.552	2711.0609	5669.3	4777.35
997.6742	2712.2881	5651.9	4761.25
997.7963	2713.5145	5637.5	4743.05
997.9183	2714.7403	5647.6	4757.95
998.0403	2715.9654	5617.15	4725.9
998.1623	2717.1899	5616.3	4708.3
998.2842	2718.4136	5616.2	4723.15
998.4062	2719.6367	5600.65	4708.55
998.528	2720.8591	5586.25	4688.4
998.6498	2722.0809	5588.25	4696
998.7716	2723.3019	5577.45	4681.7
998.8934	2724.5223	5543.65	4650.75
999.0151	2725.7421	5558.6	4666.75
999.1368	2726.9611	5528.45	4634.5
999.2584	2728.1795	5508.6	4614.05
999.38	2729.3972	5503.75	4613
999.5016	2730.6142	5474.55	4574.9
999.6231	2731.8306	5426.8	4533.75
999.7446	2733.0462	5395.8	4501.1
999.8661	2734.2612	5368.25	4473.45
999.9875	2735.4756	5324.05	4430.15
1000.1089	2736.6892	5296.95	4404.1
1000.2302	2737.9022	5263.9	4372.2
1000.3515	2739.1145	5226.7	4334.25
1000.4728	2740.3262	5219.4	4319.5
1000.594	2741.5372	5181.6	4289
1000.7152	2742.7475	5146.2	4255.25
1000.8363	2743.9571	5130.85	4238.15
1000.9575	2745.1661	5107	4211.65
1001.0785	2746.3744	5091.7	4198.45
1001.1996	2747.582	5068	4174.7
1001.3206	2748.7889	5045.9	4153.45
1001.4415	2749.9952	5034.35	4143.7
1001.5625	2751.2008	5005.05	4112.75
1001.6833	2752.4057	4981.9	4086.05
1001.8042	2753.61	4959.15	4065.9
1001.925	2754.8136	4926.75	4034.75
1002.0458	2756.0165	4921	4029.5
1002.1665	2757.2188	4920.75	4028.6
1002.2872	2758.4204	4894.7	4004.75
1002.4078	2759.6213	4875.7	3981.65
1002.5285	2760.8215	4879.8	3983.2
1002.649	2762.0211	4872.35	3979.3
1002.7696	2763.22	4846.4	3951.95
1002.8901	2764.4182	4817.3	3923.1
1003.0106	2765.6158	4815.9	3924.6
1003.131	2766.8127	4792.05	3900.2
1003.2514	2768.009	4785.25	3895.35
1003.3717	2769.2045	4772.75	3880.6
1003.492	2770.3994	4748.75	3854.75
1003.6123	2771.5936	4745.5	3853.3
1003.7325	2772.7872	4707.75	3815.3
1003.8527	2773.9801	4689.2	3796.75
1003.9729	2775.1723	4683.85	3774.4
1004.093	2776.3639	4668.15	3776.5
1004.2131	2777.5548	4653.85	3760.1
1004.3331	2778.745	4619.45	3727.9
1004.4531	2779.9346	4629.65	3739.45
1004.5731	2781.1235	4627.1	3733.5
1004.693	2782.3117	4602.1	3710.3
1004.8129	2783.4992	4591.3	3700.45
1004.9328	2784.6861	4583.35	3690.6
1005.0526	2785.8723	4595.75	3703.4
1005.1723	2787.0579	4564.5	3673
1005.2921	2788.2428	4563.05	3670.95
1005.4118	2789.427	4559.6	3669.15
1005.5314	2790.6106	4554.75	3664.8
1005.651	2791.7935	4555.5	3664.65
1005.7706	2792.9757	4541	3651.5
1005.8902	2794.1573	4538.55	3646.15
1006.0097	2795.3382	4535.65	3644.85
1006.1291	2796.5184	4529.9	3639.65
1006.2485	2797.698	4534.95	3642.4
1006.3679	2798.8769	4544.4	3653.25
1006.4873	2800.0551	4541.8	3649.5
1006.6066	2801.2327	4542.25	3648.7
1006.7258	2802.4096	4549.85	3659.6
1006.8451	2803.5859	4561.3	3669.9
1006.9642	2804.7615	4547.85	3655.5
1007.0834	2805.9364	4563.55	3673.4
1007.2025	2807.1106	4582.9	3692.2
1007.3216	2808.2842	4594.55	3701.9
1007.4406	2809.4572	4610.4	3719.5
1007.5596	2810.6294	4655.65	3763.35
1007.6785	2811.801	4675.8	3784.95
1007.7975	2812.972	4704.3	3814.1
1007.9163	2814.1423	4734.35	3842.8
1008.0352	2815.3119	4782.15	3889.05
1008.154	2816.4808	4822.05	3931.85
1008.2727	2817.6491	4866.3	3972.8
1008.3914	2818.8167	4889.55	3999.05
1008.5101	2819.9837	4930.1	4034.35
1008.6288	2821.15	4952.6	4061.7
1008.7474	2822.3157	4975.25	4085.55
1008.8659	2823.4807	5029.1	4138.05
1008.9844	2824.645	5065.9	4175.75
1009.1029	2825.8086	5105.5	4216.3
1009.2214	2826.9716	5134.85	4243.25
1009.3398	2828.134	5170.35	4279.35
1009.4581	2829.2957	5197.6	4305.3
1009.5764	2830.4567	5210.05	4319.35
1009.6947	2831.617	5207.4	4314.85
1009.813	2832.7767	5210.25	4317.8
1009.9312	2833.9358	5215.85	4323.45
1010.0493	2835.0941	5199.8	4305
1010.1675	2836.2519	5174.6	4283
1010.2855	2837.4089	5162.5	4270.35
1010.4036	2838.5653	5146.8	4256.8
1010.5216	2839.7211	5134.8	4244.5
1010.6396	2840.8761	5139.8	4247.3
1010.7575	2842.0306	5148.2	4256.85
1010.8754	2843.1843	5203.4	4312.1
1010.9932	2844.3374	5230.4	4336.45
1011.111	2845.4899	5268.6	4375.05
1011.2288	2846.6417	5330.25	4437.55
1011.3465	2847.7928	5393.9	4503.6
1011.4642	2848.9433	5481	4589.7
1011.5818	2850.0931	5528.9	4639.3
1011.6995	2851.2422	5628.7	4736.95
1011.817	2852.3907	5679.75	4789.85
1011.9345	2853.5385	5756.6	4863.8
1012.052	2854.6857	5823.65	4905.05
1012.1695	2855.8323	5823.8	4933.35
1012.2869	2856.9781	5871.25	4980.1
1012.4042	2858.1233	5910.4	5020.05
1012.5216	2859.2679	5936.05	5044.8
1012.6389	2860.4118	5980.15	5087.3
1012.7561	2861.555	6000.05	5104.8
1012.8733	2862.6976	6044.75	5151.85
1012.9905	2863.8395	6036.4	5145.2
1013.1076	2864.9808	6059.5	5169.85
1013.2247	2866.1214	6055.85	5167.05
1013.3417	2867.2614	6061.5	5170.6
1013.4587	2868.4007	6064.45	5170.7
1013.5757	2869.5393	6062.95	5168.15
1013.6926	2870.6773	6069	5175.7
1013.8095	2871.8146	6065.8	5169
1013.9263	2872.9513	6062.65	5167.05
1014.0431	2874.0874	6043.45	5152.15
1014.1599	2875.2227	6037.7	5147.75
1014.2766	2876.3574	6004.2	5113.55
1014.3933	2877.4915	5965.65	5074.6
1014.51	2878.6249	5935.15	5045.3
1014.6266	2879.7577	5898.95	5007.45
1014.7431	2880.8898	5880.35	4977.2
1014.8596	2882.0212	5842.55	4951.25
1014.9761	2883.152	5817	4924.8
1015.0925	2884.2821	5792.95	4902.35
1015.2089	2885.4116	5779.6	4889.2
1015.3253	2886.5405	5773.35	4883.7
1015.4416	2887.6686	5767.15	4875.55
1015.5579	2888.7962	5740.85	4851.05
1015.6741	2889.923	5749.45	4859.2
1015.7903	2891.0493	5755.95	4866.45
1015.9065	2892.1748	5741.4	4850
1016.0226	2893.2997	5755.2	4863
1016.1387	2894.424	5764.35	4873.3
1016.2547	2895.5476	5770.4	4879.75
1016.3707	2896.6706	5795.2	4905
1016.4866	2897.7929	5806.25	4915.6
1016.6025	2898.9145	5803.7	4913
1016.7184	2900.0355	5846.5	4956
1016.8342	2901.1559	5876.65	4985.45
1016.95	2902.2756	5900.35	5008.8
1017.0658	2903.3946	5908.65	5017.8
1017.1815	2904.513	5934.1	5041.6
1017.2971	2905.6308	5943.4	5054.3
1017.4127	2906.7479	5950.8	5057.15
1017.5283	2907.8643	5978.85	5087.25
1017.6439	2908.9801	5986.2	5094.85
1017.7594	2910.0953	5985.75	5095.6
1017.8748	2911.2098	5958.9	5064.2
1017.9902	2912.3236	5953.6	5057.1
1018.1056	2913.4368	5936.9	5041.5
1018.2209	2914.5494	5885.05	4994.2
1018.3362	2915.6613	5871.15	4975.2
1018.4515	2916.7725	5830.2	4936.7
1018.5667	2917.8831	5806.35	4915.85
1018.6819	2918.9931	5774.45	4880.85
1018.797	2920.1024	5719	4825.6
1018.9121	2921.211	5700.35	4809.45
1019.0271	2922.319	5660.25	4770.55
1019.1421	2923.4264	5647.9	4757.45
1019.2571	2924.5331	5628.3	4739.95
1019.372	2925.6391	5604.75	4713.85
1019.4869	2926.7445	5574.25	4684.45
1019.6017	2927.8493	5575.55	4683.5
1019.7165	2928.9534	5552.2	4661.75
1019.8313	2930.0569	5529.2	4637.3
1019.946	2931.1597	5530.05	4638.05
1020.0606	2932.2619	5499.2	4608.55
1020.1753	2933.3634	5489.8	4598.95
1020.2899	2934.4643	5466.5	4566.7
1020.4044	2935.5645	5435.85	4537.3
1020.5189	2936.6641	5403.65	4508.35
1020.6334	2937.763	5345.3	4457.1
1020.7478	2938.8613	5286.1	4395.55
1020.8622	2939.959	5227.35	4330.65
1020.9765	2941.056	5138.2	4247.55
1021.0908	2942.1523	5044.8	4153.4
1021.2051	2943.248	4949.3	4057.1
1021.3193	2944.3431	4849.1	3958
1021.4334	2945.4375	4739.2	3845.85
1021.5476	2946.5313	4625.65	3735.45
1021.6617	2947.6244	4522.4	3631.3
1021.7757	2948.7169	4408.15	3514
1021.8897	2949.8087	4296	3405.2
1022.0037	2950.8999	4195.95	3304.85
1022.1176	2951.9904	4116.8	3226.3
1022.2315	2953.0803	4040.5	3150.7
1022.3453	2954.1696	3963.65	3073.15
1022.4591	2955.2582	3898.7	3010
1022.5728	2956.3462	3850	2957.55
1022.6865	2957.4335	3784.2	2891.95
1022.8002	2958.5202	3760.8	2867.65
1022.9138	2959.6062	3705.35	2815.15
1023.0274	2960.6916	3673.3	2784.95
1023.141	2961.7764	3661.75	2769.7
1023.2545	2962.8605	3634.5	2744.15
1023.3679	2963.9439	3619.95	2729.5
1023.4813	2965.0267	3597.5	2703.2
1023.5947	2966.1089	3587.45	2674.35
1023.708	2967.1905	3558.95	2668.2
1023.8213	2968.2714	3558.15	2667.55
1023.9346	2969.3516	3552.95	2662.05
1024.0478	2970.4312	3551.65	2654.05
1024.1609	2971.5102	3532.05	2642.05
1024.274	2972.5885	3522.75	2631.9
1024.3871	2973.6662	3519.3	2622.85
1024.5002	2974.7432	3502.45	2613.2
1024.6132	2975.8196	3483.2	2592.5
1024.7261	2976.8954	3479.8	2591.15
1024.839	2977.9705	3450.7	2561.05
1024.9519	2979.045	3441.75	2551.65
1025.0647	2980.1188	3404.7	2515.3
1025.1775	2981.192	3381.25	2492.05
1025.2902	2982.2645	3361	2469.35
1025.4029	2983.3364	3324.25	2434.95
1025.5156	2984.4077	3295.45	2405.35
1025.6282	2985.4783	3264.55	2368.25
1025.7407	2986.5483	3215.95	2325.05
1025.8532	2987.6177	3182.8	2291.55
1025.9657	2988.6864	3141.35	2251.75
1026.0782	2989.7545	3108.8	2216.4
1026.1906	2990.8219	3077.05	2187.25
1026.3029	2991.8887	3041.25	2147.7
1026.4152	2992.9548	2972.15	2083.25
1026.5275	2994.0204	2942.15	2053.15
1026.6397	2995.0852	2907.2	2018.9
1026.7519	2996.1495	2888.05	1995.9
1026.864	2997.2131	2864.4	1973.15
1026.9761	2998.276	2830.75	1939.9
1027.0882	2999.3383	2801.25	1909.25
1027.2002	3000.4	2780.9	1889.6
1027.3122	3001.4611	2765.1	1875.25
1027.4241	3002.5215	2735.95	1846.25
1027.536	3003.5812	2731.9	1842.3
1027.6478	3004.6404	2704.8	1814.7
1027.7596	3005.6989	2694.6	1800.9
1027.8714	3006.7567	2666.6	1776.85
1027.9831	3007.8139	2677.3	1764.9
1028.0947	3008.8705	2642.3	1752.3
1028.2064	3009.9264	2643.8	1749.75
1028.3179	3010.9818	2620.15	1728.65
1028.4295	3012.0364	2620.95	1731.2
1028.541	3013.0905	2605.3	1715.45
1028.6524	3014.1439	2598.45	1708.4
1028.7638	3015.1966	2601.1	1710.85
1028.8752	3016.2487	2592.65	1702.05
1028.9865	3017.3002	2599.4	1701.15
1029.0978	3018.3511	2577.85	1688.2
1029.209	3019.4013	2577.2	1685.9
1029.3202	3020.4509	2578.05	1688.1
1029.4314	3021.4998	2565.6	1673.15
1029.5425	3022.5481	2570.6	1679.7
1029.6535	3023.5958	2567.25	1677.6
1029.7645	3024.6428	2552.1	1661.3
1029.8755	3025.6892	2550.8	1661.65
1029.9864	3026.735	2552.85	1662.05
1030.0973	3027.7802	2541.25	1648.15
1030.2082	3028.8247	2537.65	1648.35
1030.319	3029.8685	2531	1640.05
1030.4297	3030.9118	2534	1642.8
1030.5404	3031.9544	2536.45	1646.85
1030.6511	3032.9963	2538.1	1646.8
1030.7617	3034.0376	2525.1	1634.6
1030.8723	3035.0783	2524.4	1630.75
1030.9829	3036.1184	2522.35	1628.75
1031.0934	3037.1578	2526.9	1636.3
1031.2038	3038.1966	2522.8	1631.45
1031.3142	3039.2348	2511.25	1622.5
1031.4246	3040.2723	2519.55	1621.35
1031.5349	3041.3092	2502.3	1612.95
1031.6452	3042.3455	2508	1619.65
1031.7554	3043.3811	2494.55	1603.4
1031.8656	3044.4161	2474.1	1582.25
1031.9758	3045.4505	2467.75	1577.45
1032.0859	3046.4842	2469.45	1578.05
1032.1959	3047.5173	2443.5	1553.2
1032.3059	3048.5498	2442.7	1552.4
1032.4159	3049.5816	2436.8	1547.2
1032.5258	3050.6128	2428.55	1537.3
1032.6357	3051.6434	2426.5	1534.15
1032.7455	3052.6734	2390.6	1499.85
1032.8553	3053.7027	2392.85	1502.75
1032.9651	3054.7314	2381.8	1492.7
1033.0748	3055.7594	2372	1480.65
1033.1845	3056.7868	2362	1469.2
1033.2941	3057.8136	2345.6	1453.8
1033.4037	3058.8398	2335.15	1443.9
1033.5132	3059.8653	2330.35	1440.65
1033.6227	3060.8902	2313.8	1423.7
1033.7321	3061.9145	2314.7	1424.3
1033.8415	3062.9381	2285.8	1395.45
1033.9509	3063.9612	2305.15	1401.1
1034.0602	3064.9835	2284.25	1394.2
1034.1694	3066.0053	2267.1	1374
1034.2787	3067.0264	2259.8	1368.15
1034.3878	3068.0469	2251.55	1359.4
1034.497	3069.0668	2236.3	1342.5
1034.6061	3070.086	2223	1335.15
1034.7151	3071.1046	2204	1313.7
1034.8241	3072.1226	2191.15	1298.9
1034.9331	3073.1399	2189.45	1298.25
1035.042	3074.1567	2165.5	1274.95
1035.1508	3075.1727	2145.6	1254.4
1035.2597	3076.1882	2148.25	1257.9
1035.3684	3077.203	2138.95	1248.55
1035.4772	3078.2173	2127.95	1236
1035.5859	3079.2308	2113.55	1219.3
1035.6945	3080.2438	2100.9	1209.5
1035.8031	3081.2561	2080.85	1190.8
1035.9117	3082.2678	2079.55	1190.5
1036.0202	3083.2789	2069.25	1179.4
1036.1286	3084.2893	2057.85	1167.95
1036.2371	3085.2991	2039.1	1148.35
1036.3454	3086.3083	2042.25	1147.4
1036.4538	3087.3169	2025.25	1132.25
1036.562	3088.3248	2015.3	1123
1036.6703	3089.3321	2000.3	1108.15
1036.7785	3090.3388	2001.05	1111.3
1036.8866	3091.3449	1990.55	1101.45
1036.9948	3092.3503	1983.75	1090.65
1037.1028	3093.3551	1979.2	1090.4
1037.2108	3094.3593	1968.6	1079.9
1037.3188	3095.3629	1968.95	1080.55
1037.4267	3096.3658	1953.55	1063.45
1037.5346	3097.3681	1946.3	1056.15
1037.6425	3098.3698	1936.6	1043.4
1037.7503	3099.3708	1944.15	1046.25
1037.858	3100.3713	1930.35	1042
1037.9657	3101.3711	1917.6	1029.15
1038.0734	3102.3702	2011.45	1004.8
1038.181	3103.3688	1915.5	1022.2
1038.2886	3104.3667	1897.95	1008.5
1038.3961	3105.364	1899.1	1008.7
1038.5036	3106.3607	1888.9	996.8
1038.611	3107.3568	1883.65	990.15
1038.7184	3108.3522	1873.55	984.2
1038.8257	3109.347	1854.05	961.6
1038.933	3110.3412	1870.15	976.1
1039.0403	3111.3348	1859.1	968.3
1039.1475	3112.3277	1847.05	958
1039.2547	3113.32	1844.55	954.25
1039.3618	3114.3117	1837.2	947
1039.4689	3115.3028	1834.55	945.5
1039.5759	3116.2932	1823.7	930.5
1039.6829	3117.2831	1824.8	929.65
1039.7898	3118.2723	1806.25	916.45
1039.8967	3119.2608	1815.35	925.85
1040.0035	3120.2488	1810.65	920.65
1040.1103	3121.2361	1793.05	903
1040.2171	3122.2229	1789.9	898.85
1040.3238	3123.209	1794.55	903.25
1040.4305	3124.1944	1779.8	890.15
1040.5371	3125.1793	1792.05	899.6
1040.6437	3126.1635	1777.65	888.65
1040.7502	3127.1471	1767.85	879.1
1040.8567	3128.1301	1766.45	877.45
1040.9631	3129.1125	1756.35	866.7
1041.0695	3130.0942	1755.5	865.1
1041.1759	3131.0753	1765.9	867.35
1041.2822	3132.0558	1763.4	869.75
1041.3884	3133.0357	1743.7	853.4
1041.4946	3134.015	1738.2	845
1041.6008	3134.9936	1726.9	835.8
1041.7069	3135.9716	1752.6	842.45
1041.813	3136.949	1720.85	832
1041.919	3137.9258	1726.3	829.8
1042.025	3138.902	1723.7	827.1
1042.1309	3139.8775	1717.75	828.6
1042.2368	3140.8524	1702.4	813.3
1042.3427	3141.8267	1703.15	811.5
1042.4485	3142.8004	1704.65	814
1042.5542	3143.7735	1707.05	810.8
1042.6599	3144.7459	1701.3	808.85
1042.7656	3145.7178	1690.65	798.95
1042.8712	3146.689	1687.8	797.2
1042.9768	3147.6596	1693.55	803.8
1043.0823	3148.6295	1678.15	786.9
1043.1878	3149.5989	1674.05	783.7
1043.2932	3150.5676	1668.5	779.75
1043.3986	3151.5357	1659.25	770.55
1043.5039	3152.5032	1658.05	768.15
1043.6092	3153.4701	1654.75	765.3
1043.7145	3154.4364	1654.3	761.35
1043.8197	3155.402	1644.3	756.55
1043.9248	3156.367	1644.95	752.8
1044.03	3157.3315	1679.3	744.8
1044.135	3158.2952	1634.2	743.1
1044.24	3159.2584	1626.25	737.45
1044.345	3160.221	1628.6	739.15
1044.4499	3161.1829	1617.95	727.55
1044.5548	3162.1442	1611.7	721.6
1044.6596	3163.105	1614.55	724.15
1044.7644	3164.065	1605.15	713.4
1044.8692	3165.0245	1604.85	711.95
1044.9739	3165.9834	1594.5	705.65
1045.0785	3166.9416	1591.05	700.75
1045.1831	3167.8993	1586.95	697.85
1045.2877	3168.8563	1583.6	692.9
1045.3922	3169.8127	1582.8	692.85
1045.4966	3170.7684	1578	686.3
1045.6011	3171.7236	1574.85	683.55
1045.7054	3172.6782	1573.35	683.65
1045.8098	3173.6321	1562.8	671.9
1045.914	3174.5854	1568.75	674.75
1046.0183	3175.5381	1555.55	664.3
1046.1224	3176.4902	1555.6	665.55
1046.2266	3177.4417	1550.55	661.05
1046.3307	3178.3926	1551.85	663.3
1046.4347	3179.3428	1542.45	654.7
1046.5387	3180.2924	1538.45	647.45
1046.6427	3181.2415	1534.75	642.85
1046.7466	3182.1899	1536.8	646.45
1046.8504	3183.1377	1536.6	647.5
1046.9542	3184.0848	1536.95	645.95
1047.058	3185.0314	1524.4	635.15
1047.1617	3185.9773	1526.6	635.45
1047.2654	3186.9227	1514.3	625.5
1047.369	3187.8674	1520.25	629.95
1047.4726	3188.8115	1521.6	625.6
1047.5761	3189.755	1510.75	622.1
1047.6796	3190.6979	1508.2	618.15
1047.783	3191.6402	1504.2	617.05
1047.8864	3192.5818	1507.05	618.35
1047.9898	3193.5229	1519.1	605
1048.0931	3194.4633	1496.8	606.2
1048.1963	3195.4031	1487.55	596.05
1048.2995	3196.3423	1488.55	598.55
1048.4027	3197.2809	1481.15	592.05
1048.5058	3198.2189	1479.55	589.05
1048.6089	3199.1563	1485.25	590.05
1048.7119	3200.0931	1476.25	586.1
1048.8148	3201.0292	1464.75	575.1
1048.9178	3201.9648	1463.55	573.7
1049.0206	3202.8997	1470.5	577.95
1049.1235	3203.834	1460.05	572.35
1049.2262	3204.7677	1458.65	567.35
1049.329	3205.7008	1458.9	565.9
1049.4317	3206.6333	1452.05	563.55
1049.5343	3207.5652	1451.7	558.5
1049.6369	3208.4964	1440.65	551.5
1049.7394	3209.4271	1441.25	552.55
1049.8419	3210.3571	1440.8	552.1
1049.9444	3211.2865	1441.5	551.25
1050.0468	3212.2154	1437.85	546.55
1050.1491	3213.1436	1443.8	550.7
1050.2514	3214.0712	1442.25	544.75
1050.3537	3214.9982	1428.6	539.05
1050.4559	3215.9246	1427.9	537.5
1050.5581	3216.8503	1422.8	533.35
1050.6602	3217.7755	1419.25	531.15
1050.7623	3218.7001	1420.6	531.5
1050.8643	3219.624	1416.6	527.4
1050.9663	3220.5473	1413.25	522.4
1051.0682	3221.4701	1409.95	518.05
1051.1701	3222.3922	1412.7	522.45
1051.2719	3223.3137	1403.65	513.55
1051.3737	3224.2346	1403.95	514.5
1051.4754	3225.1549	1400.35	510.45
1051.5771	3226.0746	1395.45	506.15
1051.6788	3226.9937	1390.2	501.65
1051.7804	3227.9121	1391.35	503.45
1051.8819	3228.83	1387.95	498.15
1051.9834	3229.7473	1387.3	496
1052.0849	3230.6639	1375.85	483.8
1052.1863	3231.5799	1383.65	494.05
1052.2876	3232.4954	1378.95	488
1052.3889	3233.4102	1373.15	483.7
1052.4902	3234.3244	1374.7	484.1
1052.5914	3235.238	1372.35	484.05
1052.6926	3236.151	1393.85	482.3
1052.7937	3237.0634	1356.5	468.2
1052.8948	3237.9752	1356.95	466.95
1052.9958	3238.8864	1356.65	466.2
1053.0968	3239.797	1353.3	463.4
1053.1977	3240.7069	1354	462.75
1053.2986	3241.6163	1355.3	465.25
1053.3994	3242.5251	1348.25	460.75
1053.5002	3243.4332	1346.3	456.6
1053.6009	3244.3408	1338.1	447.85
1053.7016	3245.2477	1335.2	447.25
1053.8022	3246.154	1338.6	450.6
1053.9028	3247.0598	1328.75	437.5
1054.0034	3247.9649	1326.5	435.5
1054.1039	3248.8694	1329.45	438.65
1054.2043	3249.7733	1325.3	436.7
1054.3047	3250.6766	1325.15	435.7
1054.4051	3251.5793	1321.85	431.2
1054.5054	3252.4814	1314.65	425.75
1054.6056	3253.3829	1310.55	420.3
1054.7058	3254.2838	1306	415.95
1054.806	3255.1841	1306.95	417.6
1054.9061	3256.0838	1301.5	410.8
1055.0061	3256.9829	1299.6	411.65
1055.1062	3257.8814	1299.2	406.8
1055.2061	3258.7792	1291.2	399.4
1055.306	3259.6765	1292.5	401.35
1055.4059	3260.5731	1287.5	397.35
1055.5057	3261.4692	1280.35	390.25
1055.6055	3262.3647	1275.5	386.15
1055.7052	3263.2595	1271.05	381.8
1055.8049	3264.1538	1262.55	373.75
1055.9045	3265.0474	1264.35	374.25
1056.0041	3265.9404	1256.9	367.75
1056.1036	3266.8329	1249.55	359.65
1056.2031	3267.7247	1250.05	350.45
1056.3025	3268.616	1227.9	338.15
1056.4019	3269.5066	1227.5	336.55
1056.5013	3270.3966	1223.95	332.9
1056.6005	3271.286	1205.45	318.4
