Software Version:	3.9.2.0
Unit SN:	10000200
Spectrometer SN:	6960
Date:	3/6/2024 9:48:00 AM
Data Line Index:	25
Spectral Points:	2048
Integration time (ms):	125
Averages:	20
Delay (ms):	30
Sequence Number:	1
Processing:	dark subtract
Laser Power (mW):	305
Laser Current (mA):	824
Laser Diode Temp (C):	25.1
Laser Case Temp (C):	24.2
System Temp (C):	24
Spectrometer Temp (C):	21.6
CCD Temp (C):	-0.039
Secondary Temp (C):	20.008
Heatsink Temp (C):	18.033
CCDPCB Temp (C):	30.771
SecondaryPCB Temp (C):	25.969

Wavelength	RamanShift	Raw Counts	Dark Subtracted
787.061	30.1047	450.15	43.25
787.2016	32.3739	448.75	42.75
787.3422	34.6426	456.1	48.35
787.4828	36.9109	456.75	49.55
787.6235	39.1787	462.2	48.65
787.7642	41.4461	473.15	56.95
787.9049	43.7131	480.05	59.55
788.0456	45.9796	481.3	57.95
788.1863	48.2456	492.4	67.95
788.3271	50.5112	497.85	67.75
788.4679	52.7764	505.2	72.8
788.6087	55.0411	516.5	80.6
788.7496	57.3054	526.5	82.45
788.8904	59.5692	532.85	86.7
789.0313	61.8326	541.2	91.4
789.1722	64.0955	549.5	98.15
789.3132	66.3579	563.95	110.25
789.4541	68.6199	577.8	119.95
789.5951	70.8815	599.35	135.75
789.7361	73.1426	646	178.1
789.8771	75.4032	764.75	293.35
790.0181	77.6634	1055.5	582.55
790.1592	79.9231	1753.1	1275.6
790.3003	82.1824	3205.05	2723.85
790.4414	84.4412	5738.05	5240.35
790.5825	86.6995	9190.25	8677.7
790.7237	88.9574	12595.25	12075.7
790.8648	91.2148	15092.8	14563.9
791.006	93.4717	16461.55	15925.3
791.1472	95.7282	17098.25	16561.75
791.2885	97.9842	17411.45	16870.5
791.4297	100.2398	17526.8	16984.15
791.571	102.4949	17586.25	17042.05
791.7123	104.7495	17572.7	17023.5
791.8536	107.0036	17565.85	17013.6
791.9949	109.2573	17551.8	17004.75
792.1363	111.5105	17589.3	17037.8
792.2777	113.7632	17565.7	17011.3
792.4191	116.0154	17571.9	17006.35
792.5605	118.2672	17632.65	17072.2
792.7019	120.5185	17631.65	17071.4
792.8434	122.7693	17650.2	17087.35
792.9849	125.0197	17704.5	17136.65
793.1264	127.2696	17678.65	17104.95
793.2679	129.519	17760.4	17187.1
793.4094	131.7679	17764.3	17186.5
793.551	134.0163	17802.5	17223.95
793.6926	136.2642	17832.75	17251.85
793.8342	138.5117	17857.25	17273.2
793.9758	140.7587	17875.8	17291.4
794.1175	143.0052	17901.75	17312.55
794.2591	145.2512	17881.9	17291.75
794.4008	147.4967	17861.35	17269.65
794.5425	149.7417	17848.6	17253.4
794.6842	151.9863	17859.1	17260.65
794.826	154.2304	17894.6	17290.85
794.9677	156.4739	17866.95	17260.7
795.1095	158.717	17900	17289.4
795.2513	160.9596	17892.9	17279.95
795.3931	163.2017	17871.6	17256.75
795.535	165.4433	17923.15	17305.65
795.6768	167.6844	17919.8	17302.55
795.8187	169.925	17902.25	17282.55
795.9606	172.1651	17864.95	17240.05
796.1025	174.4047	17913.05	17285.85
796.2445	176.6439	17873.15	17242.8
796.3864	178.8825	17867.5	17235.3
796.5284	181.1206	17926.55	17289.95
796.6704	183.3582	17922.9	17281
796.8124	185.5954	17944.45	17301.2
796.9544	187.832	17959.7	17311.05
797.0965	190.0681	18012.3	17362.9
797.2386	192.3037	18031.75	17381.6
797.3806	194.5388	18027.65	17372.75
797.5228	196.7734	18075.5	17417.35
797.6649	199.0075	18161.35	17500.55
797.807	201.2411	18238.15	17579.4
797.9492	203.4742	18267.7	17605.65
798.0914	205.7068	18368.7	17703.65
798.2336	207.9389	18363.85	17695.85
798.3758	210.1704	18433.15	17769.8
798.518	212.4015	18350.3	17697.8
798.6603	214.632	18392.25	17745.65
798.8025	216.862	18461.45	17817
798.9448	219.0915	18432.5	17787
799.0871	221.3205	18458.2	17808.25
799.2294	223.549	18521.55	17879.7
799.3718	225.777	18573.5	17927.85
799.5141	228.0044	18598.15	17946
799.6565	230.2314	18612.75	17960.3
799.7989	232.4578	18649.4	17989.7
799.9413	234.6837	18643.2	17978.15
800.0837	236.909	18715.65	18048.65
800.2262	239.1339	18719.05	18026.9
800.3687	241.3582	18697.45	18019.35
800.5111	243.582	18716.05	18006.2
800.6536	245.8053	18717.4	18021.45
800.7961	248.0281	18753.2	18062.05
800.9387	250.2503	18738.05	18042.55
801.0812	252.472	18754.7	18058.4
801.2238	254.6932	18817.95	18120.5
801.3664	256.9139	18771.45	18075.25
801.509	259.134	18806.45	18107.3
801.6516	261.3536	18793.2	18093.3
801.7942	263.5727	18857.15	18154.45
801.9369	265.7912	18846.75	18143.55
802.0795	268.0092	18906.1	18205
802.2222	270.2267	18937.65	18235.6
802.3649	272.4436	18956.05	18248.75
802.5076	274.6601	18969.6	18254.55
802.6504	276.8759	18915.45	18207.1
802.7931	279.0913	19003.85	18289.55
802.9359	281.3061	19010.4	18296.55
803.0787	283.5204	19069.3	18351.45
803.2215	285.7341	19080.25	18361.3
803.3643	287.9473	19108.6	18378.25
803.5071	290.16	19087.85	18362.5
803.6499	292.3721	19045	18328.85
803.7928	294.5837	19052	18334.3
803.9357	296.7947	18985.55	18267.05
804.0786	299.0052	19031.6	18311.6
804.2215	301.2152	18979.85	18257.95
804.3644	303.4246	19023.7	18305.45
804.5074	305.6334	18969.65	18248.5
804.6503	307.8418	18997.35	18273.4
804.7933	310.0495	18946.25	18220.5
804.9363	312.2568	18935.85	18209.35
805.0793	314.4635	18852.75	18125.45
805.2223	316.6696	18826.05	18098.25
805.3653	318.8752	18770.7	18029.35
805.5084	321.0802	18761.2	18026.1
805.6514	323.2847	18770.45	18037
805.7945	325.4887	18746.8	18010.1
805.9376	327.692	18729.85	17991.75
806.0807	329.8949	18787.8	18053.35
806.2238	332.0972	18747.95	18007.2
806.367	334.2989	18818.5	18073.85
806.5101	336.5001	18763.15	18019
806.6533	338.7007	18787.25	18046.35
806.7965	340.9008	18811.1	18067.05
806.9397	343.1003	18760.3	18011.9
807.0829	345.2992	18746.4	18000.75
807.2261	347.4976	18691	17941.55
807.3693	349.6955	18658.45	17905.6
807.5126	351.8927	18723.35	17968.1
807.6559	354.0895	18668.4	17905.6
807.7991	356.2856	18698.5	17944.8
807.9424	358.4812	18682.9	17928
808.0857	360.6763	18699	17940.55
808.2291	362.8707	18679.1	17918.1
808.3724	365.0646	18695.05	17932.2
808.5158	367.258	18654.15	17891.3
808.6591	369.4508	18601	17833.15
808.8025	371.643	18610.25	17841.1
808.9459	373.8346	18574.45	17802.95
809.0893	376.0257	18592.7	17819.2
809.2327	378.2162	18544.55	17771.35
809.3762	380.4062	18573.55	17801.05
809.5196	382.5956	18497.25	17727.3
809.6631	384.7844	18494.75	17730.75
809.8066	386.9726	18468	17705.35
809.9501	389.1603	18434.2	17673.05
810.0936	391.3474	18434.35	17632.8
810.2371	393.5339	18368.35	17600.6
810.3806	395.7199	18310.75	17547.2
810.5241	397.9052	18359.9	17595.7
810.6677	400.09	18303.9	17538.05
810.8113	402.2743	18343.8	17577.7
810.9548	404.4579	18355.45	17586.25
811.0984	406.641	18389.85	17617.7
811.2421	408.8235	18411.8	17640
811.3857	411.0054	18444.05	17668.6
811.5293	413.1868	18530.05	17752.25
811.673	415.3675	18550.25	17769.85
811.8166	417.5477	18550	17767.55
811.9603	419.7273	18466.8	17682.1
812.104	421.9064	18358.1	17564.85
812.2477	424.0848	18287.15	17501.9
812.3914	426.2627	18214.35	17426.95
812.5351	428.4399	18164.95	17376.15
812.6788	430.6166	18101.65	17311.9
812.8226	432.7928	18060.35	17268.05
812.9663	434.9683	17984.95	17190.4
813.1101	437.1432	17963.55	17170.1
813.2539	439.3176	17893.1	17102.4
813.3977	441.4914	17830.65	17042.05
813.5415	443.6645	17824.55	17032.35
813.6853	445.8371	17765.8	16973.7
813.8291	448.0091	17717.35	16923.6
813.973	450.1806	17655.05	16861.65
814.1168	452.3514	17606.7	16808.55
814.2607	454.5216	17605.75	16799.8
814.4046	456.6913	17519.3	16720.7
814.5485	458.8603	17512.9	16716.3
814.6924	461.0288	17514.4	16717.7
814.8363	463.1967	17497.85	16701.4
814.9802	465.3639	17547.3	16748.55
815.1241	467.5306	17470.05	16670.25
815.2681	469.6967	17438.35	16638.4
815.412	471.8622	17386.45	16586.35
815.556	474.0271	17374.15	16575.15
815.7	476.1914	17364.5	16562.35
815.844	478.3551	17352.75	16551.25
815.988	480.5182	17371.65	16568.35
816.132	482.6807	17353.65	16552.5
816.276	484.8426	17402.5	16605.9
816.4201	487.0039	17419.65	16618.8
816.5641	489.1647	17457.35	16653.95
816.7082	491.3248	17496.35	16690.85
816.8522	493.4843	17460.45	16654.05
816.9963	495.6432	17450.5	16645.05
817.1404	497.8015	17377.75	16568.75
817.2845	499.9592	17390.4	16582.95
817.4286	502.1163	17331	16520.05
817.5727	504.2728	17268.2	16456.85
817.7168	506.4287	17296.35	16489.95
817.861	508.5839	17215.6	16408.4
818.0051	510.7386	17232.2	16422.45
818.1493	512.8927	17250.95	16436.75
818.2935	515.0461	17264.7	16451.85
818.4377	517.199	17238	16426.45
818.5818	519.3512	17194.65	16380.15
818.726	521.5029	17249.6	16430.85
818.8703	523.6539	17255.45	16439.4
819.0145	525.8043	17249.05	16434.35
819.1587	527.9541	17215.3	16395.15
819.303	530.1033	17170.5	16353.9
819.4472	532.2519	17082.6	16265.25
819.5915	534.3999	17060.55	16239.65
819.7357	536.5472	17048.55	16228.6
819.88	538.694	17027.95	16210.75
820.0243	540.8401	17068.95	16248.55
820.1686	542.9856	17100.25	16278.65
820.3129	545.1305	17053.15	16227.6
820.4572	547.2748	17081.35	16256.35
820.6016	549.4185	17052.7	16229.9
820.7459	551.5615	17020.5	16195.55
820.8902	553.704	17037.25	16211.1
821.0346	555.8458	17011.35	16190.45
821.1789	557.987	17019.9	16195.6
821.3233	560.1276	16985.45	16159.7
821.4677	562.2675	16999.45	16172.4
821.6121	564.4069	17024.2	16197.55
821.7565	566.5456	17001.15	16175.55
821.9009	568.6837	17016.35	16192.05
822.0453	570.8212	16917.6	16093.05
822.1897	572.958	16845.8	16019.2
822.3342	575.0942	16818.25	15992.15
822.4786	577.2299	16769.55	15941.9
822.6231	579.3648	16668.15	15842.95
822.7675	581.4992	16603.25	15778.5
822.912	583.6329	16559.45	15736.9
823.0565	585.766	16552.65	15728.15
823.201	587.8985	16566.85	15738.65
823.3454	590.0304	16514.05	15674.7
823.4899	592.1616	16506.45	15675
823.6345	594.2922	16495.1	15664.3
823.779	596.4222	16405.6	15571.8
823.9235	598.5515	16365.5	15532.5
824.068	600.6802	16325.2	15489.55
824.2126	602.8083	16230.9	15399.4
824.3571	604.9358	16215.65	15382.6
824.5017	607.0626	16166.25	15332.25
824.6462	609.1888	16204.25	15369.05
824.7908	611.3144	16155.75	15320.65
824.9354	613.4393	16118.95	15282.35
825.08	615.5636	16138.2	15301
825.2246	617.6873	16130.05	15295.45
825.3692	619.8103	16182.7	15344.65
825.5138	621.9327	16122.2	15281.85
825.6584	624.0544	16113.3	15276.35
825.803	626.1756	16079.3	15243.5
825.9477	628.2961	16048.4	15209.45
826.0923	630.4159	15957.95	15119.95
826.237	632.5351	15979.4	15137.35
826.3816	634.6537	15940.8	15099.3
826.5263	636.7716	15923.3	15079.5
826.6709	638.8889	15937.7	15096.2
826.8156	641.0056	15971.4	15128.1
826.9603	643.1216	15902.4	15058.6
827.105	645.237	15953.85	15107.55
827.2497	647.3518	15870.9	15028.15
827.3944	649.4659	15889.9	15046.75
827.5391	651.5793	15859.85	15018.55
827.6838	653.6922	15806.45	14965.7
827.8285	655.8043	15736.4	14894.4
827.9733	657.9159	15731.85	14888.25
828.118	660.0268	15722.95	14879.3
828.2627	662.137	15668.2	14822.5
828.4075	664.2466	15689.8	14840.7
828.5522	666.3556	15685.9	14839
828.697	668.4639	15637.1	14788.25
828.8418	670.5716	15638.55	14793.3
828.9865	672.6786	15630.4	14783.35
829.1313	674.785	15563.1	14713.35
829.2761	676.8907	15526.65	14678.25
829.4209	678.9958	15493.5	14645
829.5657	681.1002	15465.65	14616.5
829.7105	683.204	15441.05	14586.25
829.8553	685.3072	15435.3	14584.45
830.0001	687.4097	15387.6	14537.2
830.1449	689.5115	15400.75	14551.55
830.2898	691.6127	15405.3	14556.85
830.4346	693.7132	15339.7	14490.5
830.5794	695.8131	15371.5	14496.35
830.7243	697.9123	15359.3	14505.1
830.8691	700.0109	15325.9	14474.3
831.014	702.1089	15338.25	14487.95
831.1588	704.2061	15277.9	14425.2
831.3037	706.3028	15311.75	14455.55
831.4486	708.3987	15313.45	14459.15
831.5935	710.4941	15270.35	14417.95
831.7383	712.5887	15278.45	14424.15
831.8832	714.6827	15264.1	14406.25
832.0281	716.7761	15242	14388.65
832.173	718.8688	15240.6	14382.75
832.3179	720.9608	15197.35	14338
832.4628	723.0522	15234.6	14374.05
832.6077	725.1429	15184	14324.85
832.7527	727.233	15204.55	14346.95
832.8976	729.3224	15262.75	14406.65
833.0425	731.4112	15208.95	14352.15
833.1874	733.4993	15170.6	14308.4
833.3324	735.5867	15118.95	14262.6
833.4773	737.6735	15074.3	14215.2
833.6222	739.7596	15022.15	14162.7
833.7672	741.845	15007.85	14149.75
833.9122	743.9298	14962.9	14102.05
834.0571	746.014	14939.25	14081.95
834.2021	748.0974	14905.45	14043.4
834.347	750.1802	14902.1	14042
834.492	752.2624	14842.05	13979.75
834.637	754.3439	14778.2	13916.15
834.782	756.4247	14785.9	13914.95
834.9269	758.5048	14699.45	13837.85
835.0719	760.5843	14668.85	13808.55
835.2169	762.6631	14648	13783.3
835.3619	764.7413	14614.25	13752.95
835.5069	766.8188	14680.35	13816.95
835.6519	768.8956	14647.3	13783.75
835.7969	770.9718	14664.55	13802.2
835.9419	773.0473	14620.15	13758.7
836.0869	775.1221	14592.6	13733.75
836.232	777.1962	14531.5	13668.1
836.377	779.2697	14521.4	13657.05
836.522	781.3426	14547.3	13664.5
836.667	783.4147	14541.45	13675.95
836.8121	785.4862	14543	13677.5
836.9571	787.557	14483.2	13620.45
837.1021	789.6271	14416.9	13553.75
837.2472	791.6966	14330.65	13466.85
837.3922	793.7654	14215.7	13350.55
837.5373	795.8335	14211.2	13346.95
837.6823	797.901	14151.75	13286.1
837.8274	799.9678	14167.45	13301.65
837.9724	802.0339	14136.8	13271.5
838.1175	804.0993	14119.45	13243.3
838.2626	806.1641	14058.95	13192.2
838.4076	808.2282	14036.15	13168
838.5527	810.2916	14014.1	13144.85
838.6978	812.3544	13980.75	13114.75
838.8428	814.4164	13974.55	13107.25
838.9879	816.4778	13988.35	13120.05
839.133	818.5385	13937.85	13069.5
839.2781	820.5986	13940.2	13073.75
839.4232	822.658	13969.5	13101.55
839.5682	824.7166	13931.65	13063.45
839.7133	826.7747	14003.6	13138.5
839.8584	828.832	14009.95	13140.55
840.0035	830.8886	13934.6	13062.15
840.1486	832.9446	13991.65	13123.1
840.2937	834.9999	13931.85	13065.8
840.4388	837.0545	13888.55	13016.8
840.5839	839.1085	13823.75	12952.5
840.729	841.1618	13794.5	12924.1
840.8741	843.2143	13735.55	12867.45
841.0192	845.2662	13683.95	12815.55
841.1643	847.3175	13683.65	12813.85
841.3095	849.368	13630.65	12758.05
841.4546	851.4179	13606.2	12736.4
841.5997	853.467	13544.5	12674.65
841.7448	855.5155	13545.5	12674.1
841.8899	857.5633	13530.95	12661.75
842.0351	859.6105	13495.65	12624.8
842.1802	861.6569	13469	12599.1
842.3253	863.7027	13420.15	12543.75
842.4704	865.7478	13412.9	12538.8
842.6156	867.7922	13397.1	12526.05
842.7607	869.8359	13374.8	12500.05
842.9058	871.8789	13351.05	12476.55
843.0509	873.9212	13378.65	12473.7
843.1961	875.9629	13323.2	12449.3
843.3412	878.0039	13330.4	12454.9
843.4863	880.0441	13315.2	12441.4
843.6315	882.0837	13320.5	12449.45
843.7766	884.1226	13302.1	12427.45
843.9218	886.1609	13303.5	12432.25
844.0669	888.1984	13328.65	12456.85
844.212	890.2352	13385.1	12510.45
844.3572	892.2714	13326.65	12450.95
844.5023	894.3069	13329.05	12454.55
844.6475	896.3416	13260.7	12385.95
844.7926	898.3757	13214.85	12340.9
844.9377	900.4091	13210.35	12333.35
845.0829	902.4418	13179.55	12299.45
845.228	904.4739	13134.25	12256.7
845.3732	906.5052	13121.95	12245.25
845.5183	908.5358	13126.25	12253.3
845.6635	910.5658	13062.95	12186.55
845.8086	912.595	13066.25	12190.65
845.9538	914.6236	13009.5	12135.5
846.0989	916.6515	12966.25	12090.25
846.2441	918.6786	12932.65	12053.45
846.3892	920.7051	12889.8	12012.2
846.5344	922.7309	12925.15	12047.8
846.6795	924.756	12859.2	11984.05
846.8246	926.7804	12868.95	11987.95
846.9698	928.8041	12783.3	11902.7
847.1149	930.8272	12822.4	11943.95
847.2601	932.8495	12743.5	11864.3
847.4052	934.8711	12722.45	11844.05
847.5504	936.892	12683.75	11802.8
847.6955	938.9123	12668.85	11789.15
847.8407	940.9318	12657.65	11782.1
847.9858	942.9506	12608.75	11727.7
848.131	944.9688	12597.8	11720.8
848.2761	946.9862	12581.65	11703.25
848.4213	949.003	12493.95	11616.15
848.5664	951.019	12434.9	11555.55
848.7115	953.0344	12430.15	11552.45
848.8567	955.0491	12395.85	11516.95
849.0018	957.063	12399.5	11519.2
849.147	959.0763	12408.15	11530.8
849.2921	961.0888	12341.65	11461.6
849.4373	963.1007	12338	11459.85
849.5824	965.1119	12326.25	11448.6
849.7275	967.1223	12320	11442.5
849.8727	969.1321	12269.9	11394.5
850.0178	971.1412	12271.05	11393.45
850.1629	973.1495	12198.4	11320.15
850.3081	975.1572	12245.25	11321.35
850.4532	977.1641	12200.7	11321.85
850.5983	979.1704	12188.6	11308.75
850.7435	981.1759	12124.2	11240.35
850.8886	983.1808	12111.1	11227.8
851.0337	985.1849	12090.7	11200.8
851.1788	987.1884	12063.8	11180.3
851.324	989.1911	12041.45	11158.05
851.4691	991.1932	12016.15	11136.65
851.6142	993.1945	11979.2	11100.05
851.7593	995.1951	11920.7	11040.45
851.9045	997.1951	11943.3	11055.7
852.0496	999.1943	11867.75	10987.6
852.1947	1001.1928	11807.85	10927.8
852.3398	1003.1906	11770.75	10888.35
852.4849	1005.1877	11780.3	10899
852.63	1007.1841	11748.15	10865.9
852.7751	1009.1798	11701.8	10821.75
852.9202	1011.1748	11656.45	10774.55
853.0653	1013.1691	11618.65	10738.1
853.2104	1015.1627	11579.85	10698.25
853.3555	1017.1556	11500.3	10618.1
853.5006	1019.1477	11480	10599.2
853.6457	1021.1392	11385.4	10506.1
853.7908	1023.1299	11361.3	10482.5
853.9359	1025.12	11313.45	10432.2
854.081	1027.1093	11276.95	10402.75
854.2261	1029.0979	11236.35	10362.4
854.3712	1031.0859	11212.9	10333.8
854.5163	1033.0731	11199.5	10319.15
854.6613	1035.0596	11173.7	10295.05
854.8064	1037.0454	11117.7	10235
854.9515	1039.0304	11057.15	10176.75
855.0965	1041.0148	11030	10147.15
855.2416	1042.9985	10973.95	10090.25
855.3867	1044.9814	10962.05	10079.25
855.5317	1046.9636	10934.3	10048.9
855.6768	1048.9452	10891.7	10011.15
855.8219	1050.926	10899.25	10020.7
855.9669	1052.9061	10888.25	10005.75
856.112	1054.8855	10865.35	9981.85
856.257	1056.8642	10817.45	9933.85
856.4021	1058.8421	10809.35	9922.1
856.5471	1060.8194	10777	9896.2
856.6921	1062.7959	10782.45	9899.75
856.8372	1064.7717	10729.7	9846.4
856.9822	1066.7469	10725.1	9842.5
857.1272	1068.7213	10702.95	9817.6
857.2723	1070.695	10715.85	9833.6
857.4173	1072.6679	10658.75	9775.1
857.5623	1074.6402	10668.5	9787.6
857.7073	1076.6117	10663.55	9774.5
857.8523	1078.5826	10669.55	9785.8
857.9973	1080.5527	10605.45	9719.9
858.1423	1082.5221	10563.3	9677.35
858.2873	1084.4908	10518.05	9634.8
858.4323	1086.4587	10497.45	9613
858.5773	1088.426	10454.4	9570.25
858.7223	1090.3925	10437.55	9549.25
858.8673	1092.3584	10438	9551.3
859.0123	1094.3235	10366.2	9485.3
859.1573	1096.2879	10352.7	9465.1
859.3022	1098.2515	10355.35	9472.4
859.4472	1100.2145	10352.45	9470.3
859.5922	1102.1767	10323.35	9436.1
859.7371	1104.1382	10326.75	9441.15
859.8821	1106.099	10325.75	9438.85
860.027	1108.0591	10320.1	9432.95
860.172	1110.0185	10314.65	9428.75
860.3169	1111.9771	10347.6	9462.3
860.4619	1113.9351	10315.65	9429.25
860.6068	1115.8923	10327	9441.95
860.7517	1117.8488	10293.3	9405.45
860.8967	1119.8045	10248.15	9363.3
861.0416	1121.7596	10186.25	9301.15
861.1865	1123.7139	10110.75	9227.15
861.3314	1125.6675	10084.9	9201.65
861.4763	1127.6204	10071.3	9186.35
861.6212	1129.5726	10041.6	9154.75
861.7661	1131.524	10040.15	9153.7
861.911	1133.4748	9999.15	9113.2
862.0559	1135.4248	9938.35	9051.2
862.2008	1137.3741	9903.55	9018.1
862.3457	1139.3226	9887.95	9004.2
862.4905	1141.2705	9846	8957.05
862.6354	1143.2176	9804.45	8912.15
862.7803	1145.164	9785.1	8898.5
862.9251	1147.1097	9776.65	8890.8
863.07	1149.0546	9753.9	8868.5
863.2148	1150.9989	9769.2	8882.75
863.3597	1152.9424	9722.15	8835.25
863.5045	1154.8852	9712.3	8827.15
863.6493	1156.8272	9676.5	8791.2
863.7942	1158.7686	9677.05	8782.85
863.939	1160.7092	9647.55	8762.3
864.0838	1162.6491	9625.3	8738.8
864.2286	1164.5883	9647.25	8760.8
864.3734	1166.5267	9594.75	8707.1
864.5182	1168.4644	9590.2	8703.35
864.663	1170.4014	9621.95	8731.35
864.8078	1172.3377	9628.2	8743.2
864.9526	1174.2732	9634.85	8750.8
865.0974	1176.2081	9675.1	8788.6
865.2421	1178.1421	9703.25	8815
865.3869	1180.0755	9753.4	8866.7
865.5317	1182.0082	9755.45	8871.8
865.6764	1183.9401	9728.55	8840.85
865.8212	1185.8713	9653.05	8767.35
865.9659	1187.8017	9596.4	8712.4
866.1106	1189.7315	9538.5	8658.05
866.2554	1191.6605	9433.05	8548.45
866.4001	1193.5888	9369.4	8485.05
866.5448	1195.5163	9324.1	8438.3
866.6895	1197.4432	9328.5	8441.7
866.8342	1199.3693	9276.2	8392.3
866.9789	1201.2947	9238.25	8345.8
867.1236	1203.2193	9185.2	8298.45
867.2683	1205.1432	9166.45	8277
867.413	1207.0664	9136.45	8248.2
867.5576	1208.9889	9125.8	8237.3
867.7023	1210.9106	9085.6	8199.6
867.847	1212.8316	9055.65	8169
867.9916	1214.7519	9066.6	8170.5
868.1363	1216.6715	9021.05	8135.95
868.2809	1218.5903	9027.05	8141.35
868.4255	1220.5084	9007.55	8122.9
868.5701	1222.4257	8983.95	8098.3
868.7148	1224.3424	8974.55	8087.5
868.8594	1226.2583	8948.1	8057.75
869.004	1228.1735	8971.45	8085.05
869.1486	1230.0879	8936.7	8045.65
869.2932	1232.0016	8929.25	8042.05
869.4377	1233.9146	8945.35	8056.3
869.5823	1235.8269	8925.45	8040.9
869.7269	1237.7384	8922	8035.65
869.8715	1239.6492	8883.65	7996.1
870.016	1241.5592	8885.35	7997.1
870.1606	1243.4686	8850.05	7963.6
870.3051	1245.3772	8905.1	8021.3
870.4496	1247.285	8920.7	8033.05
870.5941	1249.1922	8934.45	8048.7
870.7387	1251.0986	8960.8	8075.5
870.8832	1253.0042	8956.95	8069.45
871.0277	1254.9092	9011.6	8122.3
871.1722	1256.8134	9034	8148.95
871.3167	1258.7169	9088.3	8198.6
871.4611	1260.6196	9060.5	8171.6
871.6056	1262.5216	9055.8	8167.7
871.7501	1264.4229	9037.35	8148.75
871.8945	1266.3234	9017.6	8130.5
872.039	1268.2232	8992.05	8102.75
872.1834	1270.1223	8945.3	8057.4
872.3278	1272.0207	8931.35	8042.2
872.4723	1273.9183	8884.8	7989.35
872.6167	1275.8151	8870.3	7982.25
872.7611	1277.7113	8875.65	7987.95
872.9055	1279.6067	8907.35	8020.45
873.0499	1281.5014	8960.35	8070.15
873.1943	1283.3953	9035.2	8144.95
873.3386	1285.2885	9128.95	8240.95
873.483	1287.181	9191.8	8302.35
873.6274	1289.0727	9236.8	8350.55
873.7717	1290.9637	9175.5	8287
873.9161	1292.854	9154.9	8267.9
874.0604	1294.7435	9046.25	8156.35
874.2047	1296.6323	8999	8109.7
874.349	1298.5204	8928.65	8036.15
874.4933	1300.4077	8882.6	7991.85
874.6376	1302.2943	8855.7	7966.1
874.7819	1304.1802	8860.55	7975.45
874.9262	1306.0653	8815.9	7926.95
875.0705	1307.9497	8763.3	7873.2
875.2147	1309.8333	8765.15	7878.15
875.359	1311.7162	8724.7	7834.85
875.5032	1313.5984	8704.7	7815.95
875.6475	1315.4798	8658.2	7759.3
875.7917	1317.3605	8644.05	7739.25
875.9359	1319.2405	8632.2	7742.05
876.0801	1321.1197	8608.2	7719.7
876.2243	1322.9982	8553.35	7659.95
876.3685	1324.876	8550.25	7664.2
876.5127	1326.753	8470.25	7580.9
876.6569	1328.6293	8416.1	7526.45
876.801	1330.5048	8372.2	7480.7
876.9452	1332.3796	8281.65	7394.1
877.0893	1334.2537	8301.05	7385.35
877.2335	1336.127	8249.5	7360.65
877.3776	1337.9996	8205.45	7316.7
877.5217	1339.8714	8191.4	7302.1
877.6658	1341.7426	8174.2	7239.65
877.8099	1343.6129	8170.55	7281.75
877.954	1345.4826	8117.15	7229.25
878.0981	1347.3515	8108.3	7216.1
878.2422	1349.2196	8082.3	7192.3
878.3862	1351.087	8072.45	7184.45
878.5303	1352.9537	8067.25	7176.1
878.6743	1354.8197	8078	7190.4
878.8184	1356.6849	8095.25	7208.25
878.9624	1358.5493	8067.4	7180.4
879.1064	1360.4131	8044.85	7157.45
879.2504	1362.276	8058.25	7170.3
879.3944	1364.1383	8056.25	7166.75
879.5384	1365.9998	8039.05	7145.35
879.6823	1367.8606	8017.2	7126.5
879.8263	1369.7206	8009.75	7120.35
879.9702	1371.5799	7998.6	7106.35
880.1142	1373.4384	7957.4	7068.95
880.2581	1375.2962	7950.35	7059.2
880.402	1377.1533	7886.2	6998.05
880.5459	1379.0096	7833.7	6946.3
880.6898	1380.8652	7791.25	6902.2
880.8337	1382.7201	7762.2	6873.4
880.9776	1384.5742	7705.5	6817.25
881.1215	1386.4275	7675.3	6785.3
881.2653	1388.2802	7650.95	6762.2
881.4092	1390.132	7618.1	6728.8
881.553	1391.9832	7617.3	6729.9
881.6968	1393.8336	7553.6	6664.2
881.8406	1395.6832	7543.1	6651.75
881.9844	1397.5322	7536.4	6648.55
882.1282	1399.3803	7490.75	6594.8
882.272	1401.2278	7443.4	6552.85
882.4158	1403.0745	7440.85	6551.15
882.5595	1404.9204	7389.7	6503.05
882.7033	1406.7656	7385.75	6497.95
882.847	1408.6101	7351.1	6462.55
882.9908	1410.4538	7327	6436.95
883.1345	1412.2968	7324.65	6437.8
883.2782	1414.139	7279.45	6389.15
883.4219	1415.9805	7269.85	6380.55
883.5656	1417.8213	7258.4	6362.5
883.7092	1419.6613	7243.6	6355.85
883.8529	1421.5006	7242.35	6352.85
883.9965	1423.3391	7250.3	6363.15
884.1402	1425.1769	7256	6365.15
884.2838	1427.0139	7291.2	6402.25
884.4274	1428.8502	7316.75	6426.7
884.571	1430.6858	7340.95	6453.2
884.7146	1432.5206	7329.85	6441.3
884.8582	1434.3547	7325.2	6435.9
885.0018	1436.188	7289.8	6399.75
885.1453	1438.0206	7276.55	6387.4
885.2889	1439.8524	7249.7	6359.65
885.4324	1441.6835	7237.95	6348.5
885.5759	1443.5139	7208	6315.1
885.7194	1445.3435	7208.35	6318.9
885.8629	1447.1724	7195.15	6307.7
886.0064	1449.0005	7171.95	6284.35
886.1499	1450.8279	7184.45	6293.5
886.2933	1452.6545	7154	6262.35
886.4368	1454.4804	7175.3	6289.95
886.5802	1456.3056	7145.7	6250.4
886.7237	1458.13	7110.5	6220.65
886.8671	1459.9536	7092.35	6202.7
887.0105	1461.7766	7066.3	6177.35
887.1539	1463.5987	7022.45	6133.35
887.2972	1465.4202	6994.95	6105.25
887.4406	1467.2409	6940.45	6051.3
887.584	1469.0608	6924.45	6036.8
887.7273	1470.88	6904.45	6012.75
887.8706	1472.6984	6879.15	5992
888.0139	1474.5161	6844.5	5953
888.1572	1476.3331	6830.65	5942.1
888.3005	1478.1493	6807.1	5918.05
888.4438	1479.9648	6809.25	5918.45
888.5871	1481.7795	6803.2	5914.65
888.7303	1483.5935	6780.15	5892.9
888.8736	1485.4067	6768.05	5878
889.0168	1487.2192	6770.3	5882.35
889.16	1489.031	6765.3	5874.35
889.3032	1490.842	6715.95	5827.65
889.4464	1492.6522	6706.8	5817.8
889.5896	1494.4618	6696.65	5804
889.7327	1496.2705	6672.9	5783.9
889.8759	1498.0785	6677	5789.55
890.019	1499.8858	6662.35	5772.05
890.1622	1501.6924	6614.95	5727.9
890.3053	1503.4981	6601.25	5712.3
890.4484	1505.3032	6602.15	5713.55
890.5914	1507.1075	6577.5	5688.4
890.7345	1508.911	6554.2	5663.95
890.8776	1510.7138	6547.65	5657.9
891.0206	1512.5159	6521.95	5632.4
891.1637	1514.3172	6480.95	5590.95
891.3067	1516.1178	6464.8	5578.25
891.4497	1517.9176	6495.3	5602
891.5927	1519.7166	6443.7	5555.35
891.7357	1521.515	6442.85	5549.3
891.8786	1523.3126	6396.3	5507.05
892.0216	1525.1094	6391.75	5502.35
892.1645	1526.9055	6363.15	5473.25
892.3074	1528.7008	6335.4	5449.05
892.4503	1530.4954	6284.5	5392.45
892.5932	1532.2893	6291.5	5404.75
892.7361	1534.0824	6257.15	5364.4
892.879	1535.8747	6239.55	5352.9
893.0218	1537.6663	6212.4	5324.9
893.1647	1539.4572	6202.3	5312.85
893.3075	1541.2473	6190.55	5303.25
893.4503	1543.0367	6159.95	5270.5
893.5931	1544.8253	6143.85	5251.8
893.7359	1546.6132	6139.7	5250.4
893.8787	1548.4003	6121.45	5223.25
894.0214	1550.1867	6122.1	5225.6
894.1642	1551.9723	6098.45	5207.6
894.3069	1553.7572	6071.1	5183.6
894.4496	1555.5414	6073.35	5184.7
894.5923	1557.3247	6052.35	5166.5
894.735	1559.1074	6047.25	5163.8
894.8777	1560.8893	6049.8	5164.55
895.0204	1562.6705	6038.1	5152.8
895.163	1564.4509	6040.2	5152.9
895.3056	1566.2305	6046.3	5160.9
895.4482	1568.0094	6046.8	5162.35
895.5908	1569.7876	6020.6	5135.2
895.7334	1571.565	5994.4	5107.8
895.876	1573.3417	5992.95	5106.55
896.0186	1575.1176	5965.05	5077.75
896.1611	1576.8928	5966.75	5078.8
896.3036	1578.6672	5952.4	5069.2
896.4461	1580.4409	5958.25	5072.8
896.5886	1582.2138	5941.25	5054.3
896.7311	1583.986	5940.35	5053.3
896.8736	1585.7575	5954	5070.5
897.0161	1587.5282	5947.6	5061.9
897.1585	1589.2981	5944.65	5061.05
897.3009	1591.0673	5935.3	5051.5
897.4433	1592.8358	5944.95	5059.5
897.5857	1594.6035	5923.95	5036.1
897.7281	1596.3704	5893.15	5008.6
897.8705	1598.1366	5860.5	4974.85
898.0128	1599.9021	5847.7	4963.75
898.1551	1601.6668	5796.8	4910.15
898.2975	1603.4308	5772.05	4886.45
898.4398	1605.194	5761.3	4868.5
898.5821	1606.9564	5755	4871.8
898.7243	1608.7182	5779.7	4891.9
898.8666	1610.4791	5797.65	4915.3
899.0088	1612.2394	5822.75	4940.95
899.1511	1613.9988	5871.75	4988.5
899.2933	1615.7576	5882.05	4999.4
899.4355	1617.5156	5918.95	5030.8
899.5776	1619.2728	5891.65	5007.2
899.7198	1621.0293	5819.25	4936.35
899.862	1622.785	5729	4838.75
900.0041	1624.54	5672.05	4785.2
900.1462	1626.2942	5588.15	4704.05
900.2883	1628.0477	5488.45	4600.65
900.4304	1629.8005	5423	4536.35
900.5725	1631.5525	5361.35	4477.65
900.7145	1633.3037	5326.65	4444.25
900.8566	1635.0542	5296.7	4414.2
900.9986	1636.804	5265.75	4381.75
901.1406	1638.553	5320.65	4347.65
901.2826	1640.3013	5212.1	4330.05
901.4245	1642.0488	5170.4	4287.3
901.5665	1643.7955	5155.5	4272.6
901.7085	1645.5416	5114.4	4230.05
901.8504	1647.2868	5094.05	4208.45
901.9923	1649.0313	5092.65	4207.45
902.1342	1650.7751	5056.45	4168.8
902.2761	1652.5181	5039.8	4156.45
902.4179	1654.2604	5009.45	4124.85
902.5598	1656.0019	5023.4	4140.8
902.7016	1657.7427	5023.55	4141.45
902.8434	1659.4828	5004.5	4120.2
902.9852	1661.222	5019.3	4133.25
903.127	1662.9606	5008.05	4125.05
903.2687	1664.6984	5005.3	4119.5
903.4105	1666.4354	4997.25	4111.05
903.5522	1668.1717	4984.05	4098.1
903.6939	1669.9072	4948.05	4062.4
903.8356	1671.642	4914	4024.95
903.9773	1673.3761	4874.35	3988.25
904.119	1675.1094	4832.4	3946.9
904.2606	1676.8419	4810.3	3925.05
904.4022	1678.5737	4771.05	3886.75
904.5439	1680.3048	4758.1	3873.1
904.6855	1682.0351	4729.65	3845.35
904.827	1683.7646	4689.05	3802.6
904.9686	1685.4934	4688.35	3805.85
905.1101	1687.2215	4664.9	3780.4
905.2517	1688.9488	4660.45	3774.7
905.3932	1690.6754	4612.95	3727.5
905.5347	1692.4012	4632.15	3747.55
905.6761	1694.1263	4595.85	3712.7
905.8176	1695.8506	4583.15	3695.55
905.9591	1697.5742	4566.15	3680.65
906.1005	1699.297	4547.9	3665.8
906.2419	1701.0191	4520.25	3637.9
906.3833	1702.7404	4505.8	3622.05
906.5246	1704.461	4480.65	3596
906.666	1706.1808	4474.75	3588.8
906.8073	1707.8999	4469.65	3584.25
906.9487	1709.6182	4451.15	3567.4
907.09	1711.3358	4433.65	3550.9
907.2313	1713.0527	4436	3553.8
907.3725	1714.7688	4401.3	3515.4
907.5138	1716.4841	4394.2	3508
907.655	1718.1987	4399.8	3511
907.7962	1719.9126	4360.1	3481.15
907.9374	1721.6257	4364.75	3477.3
908.0786	1723.338	4360.35	3474.3
908.2198	1725.0496	4344	3457.35
908.3609	1726.7605	4343.6	3458.8
908.502	1728.4706	4323.7	3439.25
908.6431	1730.18	4303.1	3417.45
908.7842	1731.8886	4304	3423.35
908.9253	1733.5964	4300.95	3413.5
909.0664	1735.3036	4293.15	3408.9
909.2074	1737.0099	4301.8	3420
909.3484	1738.7156	4278.45	3396.1
909.4894	1740.4204	4253.15	3366.85
909.6304	1742.1246	4269.85	3383.5
909.7714	1743.8279	4256.85	3372.2
909.9123	1745.5306	4251.9	3369.2
910.0532	1747.2325	4251.5	3369.7
910.1941	1748.9336	4242.15	3359.25
910.335	1750.634	4236.1	3349.4
910.4759	1752.3336	4243.8	3360.75
910.6168	1754.0325	4205.75	3324.65
910.7576	1755.7307	4210.7	3327.95
910.8984	1757.4281	4214.65	3328.75
911.0392	1759.1247	4220.5	3328.5
911.18	1760.8206	4205.65	3318.65
911.3208	1762.5158	4196.75	3309.1
911.4615	1764.2102	4174.85	3291.3
911.6022	1765.9039	4161.25	3278.4
911.7429	1767.5968	4162.8	3281.1
911.8836	1769.289	4150.25	3265.4
912.0243	1770.9804	4150.2	3265.85
912.1649	1772.6711	4131.75	3247.1
912.3056	1774.361	4131.25	3245.6
912.4462	1776.0502	4125.6	3242.5
912.5868	1777.7386	4128.05	3241
912.7274	1779.4263	4099.35	3215.25
912.8679	1781.1132	4113.55	3231.35
913.0084	1782.7994	4092.05	3208.75
913.149	1784.4849	4063.95	3182.85
913.2895	1786.1696	4077.2	3174.6
913.4299	1787.8535	4070	3188.75
913.5704	1789.5367	4058.2	3176.85
913.7108	1791.2192	4048.85	3165.3
913.8513	1792.9009	4063.45	3154.6
913.9917	1794.5818	4038.9	3153.3
914.132	1796.2621	4020.4	3138.1
914.2724	1797.9415	4025.45	3142.65
914.4128	1799.6202	4004.15	3119.05
914.5531	1801.2982	4002.05	3118.3
914.6934	1802.9755	4000.85	3114.15
914.8337	1804.6519	3991.15	3106.6
914.9739	1806.3277	3972.15	3089.95
915.1142	1808.0027	3972	3090.3
915.2544	1809.6769	3957	3075.15
915.3946	1811.3504	3958.2	3075.05
915.5348	1813.0231	3942.1	3058.8
915.675	1814.6951	3934.9	3051.35
915.8151	1816.3664	3931.65	3044.4
915.9553	1818.0369	3919.5	3034.95
916.0954	1819.7067	3902.65	3019.7
916.2355	1821.3757	3911	3024.85
916.3755	1823.044	3915.55	3032.8
916.5156	1824.7115	3878.05	2993.95
916.6556	1826.3783	3884.8	3003.75
916.7956	1828.0443	3864.3	2982.95
916.9356	1829.7096	3864.55	2979.95
917.0756	1831.3741	3859.15	2972.3
917.2155	1833.0379	3834.4	2950.35
917.3555	1834.701	3834.95	2950.6
917.4954	1836.3633	3824.45	2941.05
917.6353	1838.0248	3825.05	2940.75
917.7751	1839.6856	3832.7	2948.65
917.915	1841.3457	3805.25	2922.65
918.0548	1843.005	3812.35	2929.75
918.1946	1844.6636	3808.85	2925.9
918.3344	1846.3214	3789.2	2904.4
918.4742	1847.9785	3798.2	2915.85
918.6139	1849.6349	3794.2	2909.3
918.7537	1851.2904	3797.15	2903.5
918.8934	1852.9453	3771.05	2887.65
919.0331	1854.5994	3754.75	2866
919.1727	1856.2528	3745.6	2856.8
919.3124	1857.9054	3748.5	2863.75
919.452	1859.5572	3736.65	2854.15
919.5916	1861.2083	3743.7	2859.15
919.7312	1862.8587	3732.2	2850.25
919.8708	1864.5084	3723.95	2840.65
920.0103	1866.1572	3718.95	2835.3
920.1498	1867.8054	3721.7	2837.45
920.2893	1869.4528	3698.2	2815.3
920.4288	1871.0994	3685.35	2801.35
920.5683	1872.7453	3698.55	2812.7
920.7077	1874.3905	3694.25	2803.9
920.8471	1876.0349	3663.4	2780.6
920.9865	1877.6786	3682.35	2795.45
921.1259	1879.3215	3671	2789.3
921.2653	1880.9637	3665.45	2780.9
921.4046	1882.6051	3648.65	2766.95
921.5439	1884.2458	3636.05	2749.9
921.6832	1885.8858	3635.7	2751.5
921.8225	1887.525	3629.65	2744.6
921.9617	1889.1634	3611	2727.55
922.101	1890.8011	3605.35	2722.4
922.2402	1892.4381	3588.1	2704.65
922.3794	1894.0743	3601	2717.9
922.5185	1895.7098	3598.55	2716.25
922.6577	1897.3446	3593.6	2708.2
922.7968	1898.9786	3584.65	2697.5
922.9359	1900.6118	3580.45	2696.75
923.075	1902.2443	3569.45	2684.7
923.214	1903.8761	3556.7	2672.95
923.3531	1905.5071	3550.1	2661.9
923.4921	1907.1374	3546.95	2662.85
923.6311	1908.7669	3539.75	2656.8
923.77	1910.3957	3522.55	2639.85
923.909	1912.0237	3514.6	2630.7
924.0479	1913.651	3512.35	2629.35
924.1868	1915.2776	3502.85	2619.45
924.3257	1916.9034	3487.75	2606
924.4646	1918.5285	3482.6	2600.1
924.6034	1920.1528	3469.5	2583.65
924.7422	1921.7764	3469.05	2585.95
924.881	1923.3992	3467.1	2584.55
925.0198	1925.0213	3442.2	2559.7
925.1586	1926.6427	3434.7	2553.45
925.2973	1928.2633	3604.15	2505.9
925.436	1929.8832	3457.65	2571.3
925.5747	1931.5023	3416.95	2534.6
925.7134	1933.1207	3422.45	2538.6
925.852	1934.7383	3398	2513.7
925.9906	1936.3552	3393.95	2510.2
926.1292	1937.9714	3392.6	2508.4
926.2678	1939.5868	3381.65	2497.9
926.4064	1941.2015	3368.6	2485.05
926.5449	1942.8154	3363.55	2479.9
926.6834	1944.4286	3344.95	2460.4
926.8219	1946.041	3359.75	2455.45
926.9604	1947.6528	3336.45	2446.9
927.0988	1949.2637	3331	2446.8
927.2372	1950.8739	3327.75	2442.15
927.3756	1952.4834	3301.45	2417.55
927.514	1954.0921	3322.25	2438.45
927.6523	1955.7001	3307.35	2421.3
927.7907	1957.3074	3303.4	2422.3
927.929	1958.9139	3281	2400.1
928.0673	1960.5197	3304.2	2418.55
928.2055	1962.1247	3271.95	2388.6
928.3438	1963.729	3272.7	2388.85
928.482	1965.3325	3279.4	2373.15
928.6202	1966.9353	3253.25	2374.05
928.7584	1968.5374	3254.1	2370.95
928.8965	1970.1387	3252.9	2370.05
929.0346	1971.7393	3236.9	2354.15
929.1727	1973.3392	3232.65	2351.5
929.3108	1974.9383	3216.25	2334.9
929.4489	1976.5366	3217.85	2336.65
929.5869	1978.1342	3211.2	2328.1
929.7249	1979.7311	3211	2328.75
929.8629	1981.3273	3189.15	2303.15
930.0009	1982.9227	3192.25	2311.75
930.1388	1984.5173	3177.2	2296.65
930.2767	1986.1112	3162.45	2283.15
930.4146	1987.7044	3177.75	2297.35
930.5525	1989.2968	3176.9	2293.05
930.6904	1990.8885	3168.65	2284.3
930.8282	1992.4795	3154.4	2272.2
930.966	1994.0697	3148.95	2268.05
931.1038	1995.6592	3139.15	2255.7
931.2415	1997.2479	3130.15	2249.45
931.3793	1998.8359	3131.65	2250.25
931.517	2000.4232	3130.85	2248.35
931.6547	2002.0097	3114.5	2235.7
931.7923	2003.5955	3119.4	2238.5
931.93	2005.1805	3121.95	2240.5
932.0676	2006.7648	3103.9	2223.3
932.2052	2008.3484	3099.35	2217.5
932.3427	2009.9312	3096.9	2214.65
932.4803	2011.5133	3092.45	2212.35
932.6178	2013.0946	3083.1	2204.85
932.7553	2014.6752	3080.1	2202.9
932.8928	2016.2551	3083.2	2201.95
933.0302	2017.8342	3069	2188.2
933.1676	2019.4126	3058.1	2178.6
933.305	2020.9902	3071.1	2191.3
933.4424	2022.5672	3054.6	2173.05
933.5798	2024.1433	3052.1	2168.45
933.7171	2025.7188	3040.5	2163.8
933.8544	2027.2935	3048.7	2168.7
933.9917	2028.8674	3023.6	2145.15
934.129	2030.4406	3016.6	2137.15
934.2662	2032.0131	3025.2	2145.75
934.4034	2033.5849	3021.55	2135.4
934.5406	2035.1559	3015.35	2138.2
934.6778	2036.7261	3007	2125.9
934.8149	2038.2957	2998.45	2117.75
934.952	2039.8645	3005	2126.55
935.0891	2041.4325	3005.05	2122.8
935.2262	2042.9998	2991.2	2110.95
935.3632	2044.5664	2993.5	2109.75
935.5002	2046.1323	2983.3	2104.65
935.6372	2047.6974	2979.65	2098.8
935.7742	2049.2617	2969.85	2090.05
935.9111	2050.8254	2983.4	2099.3
936.048	2052.3883	2993.3	2112.25
936.1849	2053.9504	2986.55	2106.45
936.3218	2055.5118	2967.75	2085.7
936.4586	2057.0725	2963.45	2079
936.5955	2058.6325	2950.35	2071.5
936.7323	2060.1917	2955.8	2075.4
936.869	2061.7502	2960.8	2079.25
937.0058	2063.3079	2951.1	2072.95
937.1425	2064.8649	2947.15	2062.4
937.2792	2066.4212	2946.05	2064.7
937.4159	2067.9767	2940.45	2060.6
937.5525	2069.5315	2923.7	2043.8
937.6891	2071.0856	2927.1	2047.1
937.8257	2072.6389	2920.75	2040.8
937.9623	2074.1915	2916.2	2036.15
938.0989	2075.7433	2915.35	2032.9
938.2354	2077.2945	2902.95	2024.55
938.3719	2078.8448	2890.4	2011.95
938.5084	2080.3945	2895.05	2015.55
938.6448	2081.9434	2895.9	2016.35
938.7812	2083.4916	2887.3	2005.7
938.9176	2085.039	2886.8	2003.85
939.054	2086.5857	2870.6	1986.45
939.1903	2088.1317	2883	2001.35
939.3267	2089.677	2876.7	1995.4
939.463	2091.2215	2874.45	1992.95
939.5992	2092.7652	2873.2	1988.3
939.7355	2094.3083	2861	1979.6
939.8717	2095.8506	2860.55	1980
940.0079	2097.3921	2861.65	1980.05
940.1441	2098.933	2855.45	1975.9
940.2802	2100.4731	2861	1979.85
940.4163	2102.0124	2869.1	1970.35
940.5524	2103.5511	2858.6	1979.15
940.6885	2105.089	2844.35	1963
940.8245	2106.6261	2845.7	1963.85
940.9606	2108.1626	2848.55	1963.6
941.0965	2109.6983	2855.25	1945.9
941.2325	2111.2332	2823.85	1941.75
941.3684	2112.7675	2832.95	1952.75
941.5044	2114.301	2837.2	1955.4
941.6403	2115.8337	2828.2	1945.45
941.7761	2117.3657	2812.45	1932.5
941.912	2118.897	2814.7	1931.65
942.0478	2120.4276	2823.1	1936.15
942.1835	2121.9575	2803.85	1921.45
942.3193	2123.4866	2816.2	1933
942.455	2125.0149	2803.65	1919.75
942.5907	2126.5426	2802.15	1921.65
942.7264	2128.0695	2807.7	1923.3
942.8621	2129.5956	2786.55	1906.2
942.9977	2131.1211	2780.2	1893.65
943.1333	2132.6458	2789.45	1908.85
943.2689	2134.1698	2776.35	1893.6
943.4044	2135.693	2782.2	1897.6
943.54	2137.2155	2769.7	1885.15
943.6755	2138.7373	2767.5	1885.8
943.8109	2140.2584	2755.1	1875.45
943.9464	2141.7787	2767.1	1881.05
944.0818	2143.2983	2764.65	1885.9
944.2172	2144.8171	2742.55	1865.55
944.3526	2146.3353	2740.2	1857.55
944.4879	2147.8527	2729.35	1849.55
944.6232	2149.3693	2726.55	1844.65
944.7585	2150.8853	2723.15	1843.15
944.8938	2152.4005	2735.2	1852.6
945.029	2153.9149	2721.2	1840
945.1642	2155.4287	2724.2	1843.1
945.2994	2156.9417	2707.2	1826.1
945.4346	2158.454	2718.55	1834.5
945.5697	2159.9655	2705.85	1826.45
945.7048	2161.4764	2687.9	1810.05
945.8399	2162.9865	2687.55	1805.55
945.9749	2164.4958	2698.1	1816.45
946.1099	2166.0045	2706.6	1822.9
946.2449	2167.5124	2685.55	1804.85
946.3799	2169.0195	2674.05	1793.55
946.5148	2170.526	2690.45	1808.35
946.6498	2172.0317	2676.25	1795.25
946.7846	2173.5367	2674.5	1794.4
946.9195	2175.0409	2669.75	1789.9
947.0543	2176.5445	2676.65	1796.25
947.1891	2178.0473	2662.2	1782.25
947.3239	2179.5494	2664.45	1780.5
947.4587	2181.0507	2656.05	1775.4
947.5934	2182.5513	2644.45	1761.9
947.7281	2184.0512	2635.05	1755.75
947.8628	2185.5504	2645.95	1766
947.9974	2187.0488	2630.85	1751.65
948.132	2188.5465	2620	1738.65
948.2666	2190.0435	2625.95	1746.6
948.4012	2191.5397	2620.9	1739.05
948.5357	2193.0353	2603.7	1723.05
948.6702	2194.5301	2601.55	1719.85
948.8047	2196.0241	2603.4	1721.45
948.9392	2197.5175	2595.4	1714.6
949.0736	2199.0101	2587.2	1701.55
949.208	2200.502	2577.6	1697.15
949.3424	2201.9931	2576.45	1697.5
949.4767	2203.4835	2578.8	1697.75
949.611	2204.9733	2560.95	1672.7
949.7453	2206.4622	2559.5	1681.35
949.8796	2207.9505	2550.45	1666.9
950.0138	2209.438	2545.3	1667.85
950.148	2210.9248	2542.35	1661.8
950.2822	2212.4109	2537.1	1659.3
950.4164	2213.8962	2532.15	1648
950.5505	2215.3809	2530.85	1649.45
950.6846	2216.8648	2526.7	1644.35
950.8186	2218.3479	2527	1641.6
950.9527	2219.8304	2518.15	1634.65
951.0867	2221.3121	2514.3	1631.05
951.2207	2222.7931	2493.85	1612.3
951.3546	2224.2733	2496	1614.8
951.4886	2225.7529	2489.5	1608.85
951.6225	2227.2317	2500.2	1616.6
951.7563	2228.7098	2484.45	1605.9
951.8902	2230.1872	2472.85	1590.6
952.024	2231.6638	2482.7	1601.6
952.1578	2233.1397	2476.55	1592.75
952.2916	2234.6149	2467.4	1587.4
952.4253	2236.0894	2464.45	1583.3
952.559	2237.5632	2465.8	1575.5
952.6927	2239.0362	2452.55	1572.25
952.8263	2240.5085	2455.4	1573.55
952.9599	2241.9801	2436.3	1553.75
953.0935	2243.4509	2432.8	1553.05
953.2271	2244.921	2427.85	1546
953.3606	2246.3904	2428.15	1546.2
953.4941	2247.8591	2424.6	1544.3
953.6276	2249.3271	2411.1	1530.2
953.7611	2250.7943	2412	1528.95
953.8945	2252.2608	2403.95	1522.55
954.0279	2253.7266	2410.4	1527.55
954.1612	2255.1917	2394.45	1514.7
954.2946	2256.656	2398.2	1518.4
954.4279	2258.1197	2386.5	1507.6
954.5612	2259.5826	2385.45	1503.45
954.6944	2261.0447	2374.2	1493.2
954.8276	2262.5062	2375	1493
954.9608	2263.9669	2373.3	1490.9
955.094	2265.4269	2374.85	1494.75
955.2271	2266.8862	2356.1	1477.15
955.3602	2268.3448	2368.2	1487.05
955.4933	2269.8026	2364.9	1485
955.6264	2271.2598	2354.6	1475.15
955.7594	2272.7162	2341.65	1460.25
955.8924	2274.1719	2348.35	1467.85
956.0253	2275.6268	2338.15	1457.55
956.1583	2277.0811	2338.6	1458.05
956.2912	2278.5346	2335.45	1453.35
956.4241	2279.9874	2339.1	1457.7
956.5569	2281.4395	2324.05	1447.2
956.6897	2282.8908	2336.3	1452.5
956.8225	2284.3414	2325.75	1444.05
956.9553	2285.7914	2314.6	1433.55
957.088	2287.2406	2316.3	1433.35
957.2207	2288.689	2321.3	1439.95
957.3534	2290.1368	2301	1418.4
957.486	2291.5838	2302.15	1419.7
957.6186	2293.0302	2290.45	1408.85
957.7512	2294.4758	2280.05	1397.2
957.8838	2295.9206	2288.65	1407.3
958.0163	2297.3648	2288.3	1408.4
958.1488	2298.8082	2283.75	1402.05
958.2813	2300.251	2269.4	1388.9
958.4137	2301.693	2271.6	1386.05
958.5461	2303.1343	2260.85	1380
958.6785	2304.5748	2256.3	1374.8
958.8108	2306.0147	2248.25	1368.9
958.9432	2307.4538	2252.1	1369.25
959.0754	2308.8922	2246.05	1367.6
959.2077	2310.3299	2247	1365.35
959.3399	2311.7669	2236.05	1356
959.4721	2313.2031	2225.1	1345.75
959.6043	2314.6387	2233.5	1353.1
959.7365	2316.0735	2223.45	1341.45
959.8686	2317.5076	2226.5	1343.5
960.0006	2318.941	2228.1	1347.7
960.1327	2320.3737	2220	1338
960.2647	2321.8056	2210.75	1327.45
960.3967	2323.2369	2213.3	1332.3
960.5287	2324.6674	2204.7	1321.85
960.6606	2326.0972	2200.85	1317
960.7925	2327.5263	2199.45	1319.35
960.9244	2328.9547	2192.25	1310.95
961.0562	2330.3823	2195.75	1312.8
961.1881	2331.8092	2197.2	1313.65
961.3198	2333.2355	2175.65	1294.15
961.4516	2334.661	2170.45	1288.95
961.5833	2336.0858	2172.35	1288.75
961.715	2337.5098	2173.45	1293.45
961.8467	2338.9332	2171.95	1289.95
961.9783	2340.3558	2163.9	1279.15
962.1099	2341.7778	2161.1	1280.65
962.2415	2343.199	2144.95	1261.6
962.373	2344.6195	2147	1266.45
962.5045	2346.0393	2137.15	1256.15
962.636	2347.4583	2136.7	1254.95
962.7675	2348.8767	2131.7	1248.25
962.8989	2350.2943	2133.4	1251.95
963.0303	2351.7113	2136.8	1251.15
963.1617	2353.1275	2116.25	1232.45
963.293	2354.543	2127.35	1235.85
963.4243	2355.9578	2118.1	1234.55
963.5556	2357.3718	2114.7	1233.75
963.6868	2358.7852	2099.45	1213.6
963.818	2360.1978	2104.4	1221.85
963.9492	2361.6098	2086.3	1204.5
964.0803	2363.021	2091.1	1202.1
964.2114	2364.4315	2081.05	1201.65
964.3425	2365.8413	2084.9	1201.5
964.4736	2367.2504	2073.35	1193.55
964.6046	2368.6587	2062.2	1179.85
964.7356	2370.0664	2059.65	1178.6
964.8666	2371.4733	2066.3	1185.2
964.9975	2372.8795	2057.75	1177.15
965.1284	2374.285	2043.5	1159.35
965.2593	2375.6899	2045.4	1164.05
965.3901	2377.0939	2035.75	1154.45
965.5209	2378.4973	2044.7	1161.4
965.6517	2379.9	2034.05	1151.25
965.7825	2381.3019	2025.15	1142.75
965.9132	2382.7032	2022.6	1142.4
966.0439	2384.1037	2015.55	1134.1
966.1745	2385.5035	2009.95	1128.35
966.3051	2386.9027	2001.8	1121.55
966.4357	2388.3011	2002.85	1118
966.5663	2389.6987	1999.1	1117.5
966.6968	2391.0957	1999.25	1117.5
966.8273	2392.492	1988.1	1107.55
966.9578	2393.8876	1981.65	1098.8
967.0882	2395.2824	1973.45	1091.25
967.2186	2396.6765	1973.05	1093.2
967.349	2398.07	1969.2	1086.35
967.4793	2399.4627	1968.3	1086.15
967.6097	2400.8547	1978.55	1094.9
967.7399	2402.246	1963.75	1075.4
967.8702	2403.6366	1963	1080.65
968.0004	2405.0265	1949.6	1066.45
968.1306	2406.4156	1946.55	1059.4
968.2607	2407.8041	1941.3	1055.75
968.3909	2409.1918	1933.15	1048.55
968.521	2410.5789	1927.3	1044.9
968.651	2411.9652	1923.8	1036.15
968.781	2413.3508	1928.45	1045.65
968.911	2414.7358	1922.05	1038.95
969.041	2416.12	1908.8	1026.25
969.1709	2417.5035	1919.95	1037.9
969.3008	2418.8863	1897.7	1013.3
969.4307	2420.2684	1897.8	1012.65
969.5606	2421.6497	1893.9	1010.6
969.6904	2423.0304	1888.9	1004.8
969.8201	2424.4104	1890.1	1007.25
969.9499	2425.7896	1883.7	1000.25
970.0796	2427.1682	1882.45	1000.1
970.2093	2428.546	1872.15	987.1
970.3389	2429.9232	1879.35	993.6
970.4685	2431.2996	1871.4	990.6
970.5981	2432.6753	1872.35	989.75
970.7277	2434.0503	1864.7	980.9
970.8572	2435.4246	1860.75	979.95
970.9867	2436.7982	1868.55	983.05
971.1161	2438.1711	1856.15	975.4
971.2456	2439.5433	1853.65	970.8
971.375	2440.9148	1861.55	974.95
971.5043	2442.2856	1839.65	957.25
971.6336	2443.6557	1844.8	957.8
971.7629	2445.025	1838.85	955.05
971.8922	2446.3937	1830.8	946.7
972.0214	2447.7617	1832.15	948.95
972.1506	2449.1289	1831.05	948.9
972.2798	2450.4955	1830.15	946.3
972.4089	2451.8613	1820.85	940.95
972.538	2453.2265	1828.55	947.55
972.6671	2454.5909	1821.4	939.4
972.7961	2455.9546	1816.5	933.45
972.9251	2457.3177	1810.7	927.75
973.0541	2458.68	1815.2	931.3
973.1831	2460.0416	1809.6	928.35
973.312	2461.4025	1812.4	929.8
973.4408	2462.7627	1810	917.15
973.5697	2464.1222	1797.15	915.85
973.6985	2465.4811	1796.4	915.6
973.8273	2466.8392	1793.85	912.35
973.956	2468.1966	1799.2	914.65
974.0847	2469.5533	1801.75	915.95
974.2134	2470.9093	1787.05	903.7
974.3421	2472.2645	1794.6	911.4
974.4707	2473.6191	1788.45	906.1
974.5993	2474.973	1779.05	896.45
974.7278	2476.3262	1779.1	893.65
974.8563	2477.6787	1769.3	888.8
974.9848	2479.0305	1767.2	885.55
975.1132	2480.3816	1772	886.85
975.2417	2481.7319	1762.4	881.25
975.37	2483.0816	1758.35	874.6
975.4984	2484.4306	1752	868.65
975.6267	2485.7789	1753.75	873.3
975.755	2487.1264	1750.15	867.55
975.8833	2488.4733	1737.45	859.15
976.0115	2489.8195	1736.6	846.4
976.1397	2491.165	1738.7	852.8
976.2678	2492.5097	1729.05	845.8
976.3959	2493.8538	1731.55	850.8
976.524	2495.1972	1723.6	842.45
976.6521	2496.5398	1718.05	835.5
976.7801	2497.8818	1723.15	837.6
976.9081	2499.2231	1724	843.1
977.036	2500.5637	1722.05	838.4
977.164	2501.9035	1705.65	822.85
977.2918	2503.2427	1704.2	816.75
977.4197	2504.5812	1704.9	822.8
977.5475	2505.919	1696.4	810.7
977.6753	2507.256	1705.35	823.15
977.8031	2508.5924	1691.9	810.65
977.9308	2509.9281	1709.2	822.25
978.0585	2511.2631	1691.95	808.9
978.1861	2512.5974	1687.65	807.5
978.3137	2513.9309	1687.65	806.4
978.4413	2515.2638	1708.65	795.2
978.5689	2516.596	1678.55	797.35
978.6964	2517.9275	1679.7	795.65
978.8239	2519.2583	1669.55	786.1
978.9513	2520.5884	1676.45	793
979.0788	2521.9178	1669.05	784.6
979.2062	2523.2465	1659	779
979.3335	2524.5745	1654.9	772.9
979.4608	2525.9018	1650.1	765.8
979.5881	2527.2284	1652.1	771.95
979.7154	2528.5543	1647.65	768.15
979.8426	2529.8796	1649.4	768
979.9698	2531.2041	1645.45	763.4
980.0969	2532.5279	1640	758.5
980.224	2533.851	1639	759.1
980.3511	2535.1735	1639.45	755.65
980.4781	2536.4952	1627.25	743.95
980.6052	2537.8163	1640	756.55
980.7321	2539.1366	1624.05	743.3
980.8591	2540.4562	1626.15	742.45
980.986	2541.7752	1634.1	751.85
981.1129	2543.0935	1628	744.7
981.2397	2544.411	1629.15	744.8
981.3665	2545.7279	1621.6	737.15
981.4933	2547.0441	1625.25	744.25
981.62	2548.3596	1619.45	735.2
981.7467	2549.6744	1623.15	740.5
981.8734	2550.9885	1615.9	725.45
982.0001	2552.3019	1613.6	729.1
982.1267	2553.6146	1602.5	721.8
982.2532	2554.9266	1610.5	728.05
982.3798	2556.2379	1599.8	715.55
982.5063	2557.5485	1598.1	718.45
982.6327	2558.8585	1605.55	717.15
982.7592	2560.1677	1603.65	720.1
982.8856	2561.4762	1596.55	713.95
983.0119	2562.7841	1599.05	712.95
983.1383	2564.0913	1597	716
983.2646	2565.3977	1592.3	709.7
983.3908	2566.7035	1594.2	713.35
983.517	2568.0086	1591.3	707.2
983.6432	2569.313	1588	703.9
983.7694	2570.6167	1584.75	697.7
983.8955	2571.9197	1583.45	701.55
984.0216	2573.222	1584.45	700.45
984.1476	2574.5236	1579.4	697.35
984.2737	2575.8246	1575	689.4
984.3996	2577.1248	1574.6	689.3
984.5256	2578.4244	1569.25	685.25
984.6515	2579.7232	1572.05	690.45
984.7774	2581.0214	1595.7	688.7
984.9032	2582.3189	1570.55	690
985.029	2583.6157	1571	683.3
985.1548	2584.9118	1566.45	685.3
985.2806	2586.2072	1556.65	673.7
985.4063	2587.5019	1560.15	679.9
985.5319	2588.7959	1554.2	670.6
985.6576	2590.0893	1553.75	671.35
985.7832	2591.3819	1548.55	667.75
985.9087	2592.6739	1549.1	667.5
986.0343	2593.9652	1548.15	664.6
986.1597	2595.2557	1544.8	663.1
986.2852	2596.5456	1542.6	659.65
986.4106	2597.8348	1536.3	652.8
986.536	2599.1234	1524	643.3
986.6614	2600.4112	1535.4	652
986.7867	2601.6983	1536.3	649.25
986.912	2602.9848	1529.15	647.6
987.0372	2604.2705	1524.85	636.15
987.1624	2605.5556	1521.45	639.75
987.2876	2606.84	1519.35	636.5
987.4128	2608.1237	1517.5	634.05
987.5379	2609.4067	1520.6	639.25
987.6629	2610.689	1513.55	622.1
987.788	2611.9707	1514.55	631.55
987.913	2613.2516	1505.25	619.4
988.0379	2614.5319	1502.3	620.9
988.1629	2615.8115	1496	613.7
988.2878	2617.0903	1489.65	605.15
988.4126	2618.3685	1492.6	610.5
988.5375	2619.6461	1491.45	608.65
988.6622	2620.9229	1485.05	602.9
988.787	2622.199	1484.35	601.15
988.9117	2623.4745	1484.65	601.4
989.0364	2624.7493	1482.05	598.7
989.161	2626.0234	1482.7	602
989.2857	2627.2968	1480.1	598.45
989.4102	2628.5695	1474.55	594.25
989.5348	2629.8415	1464.65	582.45
989.6593	2631.1128	1465.95	583.45
989.7837	2632.3835	1464.3	582.8
989.9082	2633.6535	1458.15	576.3
990.0326	2634.9228	1454.35	572.9
990.1569	2636.1914	1458.85	577.6
990.2812	2637.4593	1456.3	568.8
990.4055	2638.7265	1452.85	572.3
990.5298	2639.9931	1444.35	563.2
990.654	2641.259	1444.4	562.25
990.7782	2642.5242	1445.45	561.6
990.9023	2643.7887	1442.75	560.8
991.0264	2645.0525	1438	554.3
991.1505	2646.3156	1446.2	564
991.2745	2647.5781	1435.4	555.1
991.3985	2648.8398	1434.8	554.2
991.5225	2650.1009	1433.55	541.1
991.6464	2651.3613	1430.55	550.2
991.7703	2652.6211	1431.1	549.75
991.8942	2653.8801	1428.95	547.6
992.018	2655.1385	1425.85	541.2
992.1418	2656.3961	1427.55	546
992.2655	2657.6531	1420.9	539.25
992.3892	2658.9094	1412.1	529.9
992.5129	2660.1651	1412.6	530.25
992.6366	2661.42	1415.1	533.55
992.7602	2662.6743	1408.35	524.25
992.8837	2663.9279	1408.2	527.55
993.0073	2665.1808	1405.6	522.05
993.1307	2666.433	1397.65	516.25
993.2542	2667.6846	1405.05	523.95
993.3776	2668.9354	1405.75	520
993.501	2670.1856	1399.9	517.7
993.6244	2671.4351	1400.75	521.35
993.7477	2672.6839	1399.9	517.9
993.8709	2673.9321	1395.95	514.05
993.9942	2675.1795	1402.75	520.3
994.1174	2676.4263	1389.3	508.25
994.2405	2677.6724	1388.45	507.15
994.3637	2678.9179	1393.7	511.2
994.4868	2680.1626	1388	507.3
994.6098	2681.4067	1382.4	500.35
994.7328	2682.6501	1384.05	502.95
994.8558	2683.8928	1378.85	497.05
994.9788	2685.1348	1381.05	499.55
995.1017	2686.3761	1382.7	501.9
995.2245	2687.6168	1375.9	495.5
995.3474	2688.8568	1369.85	488.55
995.4702	2690.0961	1360.3	479.3
995.5929	2691.3348	1363	479.65
995.7156	2692.5727	1357.8	475.5
995.8383	2693.81	1363.75	481.25
995.961	2695.0466	1357	477.3
996.0836	2696.2826	1361.4	477.7
996.2062	2697.5178	1358	472.85
996.3287	2698.7524	1353.8	472.4
996.4512	2699.9863	1362.65	480.05
996.5737	2701.2195	1354.5	474.05
996.6961	2702.452	1353.3	468.7
996.8185	2703.6839	1349.95	467.7
996.9408	2704.9151	1353.8	474.5
997.0631	2706.1456	1341.55	459.65
997.1854	2707.3755	1352.35	469.3
997.3077	2708.6046	1347.5	466.05
997.4299	2709.8331	1340.05	457.4
997.552	2711.0609	1338.8	459.5
997.6742	2712.2881	1343.1	462.95
997.7963	2713.5145	1343.3	458.55
997.9183	2714.7403	1329.85	451.7
998.0403	2715.9654	1331.9	447.9
998.1623	2717.1899	1346.05	449.8
998.2842	2718.4136	1328.6	447.35
998.4062	2719.6367	1326.5	444.55
998.528	2720.8591	1332.65	445.9
998.6498	2722.0809	1324.65	441.7
998.7716	2723.3019	1324.3	438.55
998.8934	2724.5223	1322.8	441.75
999.0151	2725.7421	1330.45	448.3
999.1368	2726.9611	1327.9	445.3
999.2584	2728.1795	1316.85	430.45
999.38	2729.3972	1310.95	430.15
999.5016	2730.6142	1321.05	426
999.6231	2731.8306	1305.75	423.05
999.7446	2733.0462	1304.5	422.6
999.8661	2734.2612	1309.3	423.05
999.9875	2735.4756	1305.7	422.7
1000.1089	2736.6892	1299.9	418.3
1000.2302	2737.9022	1292	412.45
1000.3515	2739.1145	1293.1	412.9
1000.4728	2740.3262	1297.1	406.45
1000.594	2741.5372	1295.05	413.2
1000.7152	2742.7475	1292.85	412
1000.8363	2743.9571	1294.35	409.45
1000.9575	2745.1661	1292.4	406.3
1001.0785	2746.3744	1291.15	409.9
1001.1996	2747.582	1279.85	398.1
1001.3206	2748.7889	1282	400
1001.4415	2749.9952	1281.2	399.45
1001.5625	2751.2008	1277.45	395.3
1001.6833	2752.4057	1270.35	387.6
1001.8042	2753.61	1270.85	389.2
1001.925	2754.8136	1270.9	388.45
1002.0458	2756.0165	1270.5	390.2
1002.1665	2757.2188	1269.05	389.75
1002.2872	2758.4204	1267.3	385.1
1002.4078	2759.6213	1257.05	374.65
1002.5285	2760.8215	1264.2	378.7
1002.649	2762.0211	1261.5	378.15
1002.7696	2763.22	1261.5	377.3
1002.8901	2764.4182	1260.05	379.1
1003.0106	2765.6158	1252.35	369.8
1003.131	2766.8127	1254.7	373.6
1003.2514	2768.009	1253.55	373.85
1003.3717	2769.2045	1255.4	372.05
1003.492	2770.3994	1250.05	366.55
1003.6123	2771.5936	1249.75	367.1
1003.7325	2772.7872	1248.25	367.1
1003.8527	2773.9801	1246.4	363.85
1003.9729	2775.1723	1257.45	360.7
1004.093	2776.3639	1240.65	361.75
1004.2131	2777.5548	1242.05	358.85
1004.3331	2778.745	1238.9	356.5
1004.4531	2779.9346	1235.5	355.7
1004.5731	2781.1235	1236.45	354.5
1004.693	2782.3117	1233.7	352.65
1004.8129	2783.4992	1227.55	347.2
1004.9328	2784.6861	1234.95	353.3
1005.0526	2785.8723	1233	350.95
1005.1723	2787.0579	1225.3	344.15
1005.2921	2788.2428	1226.95	346.25
1005.4118	2789.427	1228.85	348.75
1005.5314	2790.6106	1227.15	346.2
1005.651	2791.7935	1229.8	347.6
1005.7706	2792.9757	1221.55	342.5
1005.8902	2794.1573	1225.15	343.35
1006.0097	2795.3382	1216.15	335.9
1006.1291	2796.5184	1211.7	331.35
1006.2485	2797.698	1215.8	332.4
1006.3679	2798.8769	1217.25	336.7
1006.4873	2800.0551	1214	333
1006.6066	2801.2327	1214.6	330.6
1006.7258	2802.4096	1208.95	328.1
1006.8451	2803.5859	1208.25	327.55
1006.9642	2804.7615	1209.25	327.65
1007.0834	2805.9364	1203.8	324.3
1007.2025	2807.1106	1209.3	329.4
1007.3216	2808.2842	1202.25	322.45
1007.4406	2809.4572	1204.6	324.1
1007.5596	2810.6294	1205.65	321.95
1007.6785	2811.801	1203.35	323.45
1007.7975	2812.972	1198.25	317.75
1007.9163	2814.1423	1201.2	319.05
1008.0352	2815.3119	1202.4	322.3
1008.154	2816.4808	1197.05	316.5
1008.2727	2817.6491	1200.55	320.15
1008.3914	2818.8167	1201.2	321.05
1008.5101	2819.9837	1208.8	324.05
1008.6288	2821.15	1202.45	322.25
1008.7474	2822.3157	1212.15	332
1008.8659	2823.4807	1214.15	334.35
1008.9844	2824.645	1218.6	338
1009.1029	2825.8086	1222.95	340.5
1009.2214	2826.9716	1223.1	342
1009.3398	2828.134	1230.4	349.75
1009.4581	2829.2957	1235.15	354.55
1009.5764	2830.4567	1229.7	351.5
1009.6947	2831.617	1232.95	351.35
1009.813	2832.7767	1235.35	355.75
1009.9312	2833.9358	1227.55	347.75
1010.0493	2835.0941	1233.65	350.75
1010.1675	2836.2519	1222.55	341.9
1010.2855	2837.4089	1220.2	337.9
1010.4036	2838.5653	1220.5	341.05
1010.5216	2839.7211	1213.8	334.9
1010.6396	2840.8761	1222.15	338.55
1010.7575	2842.0306	1216.05	336.45
1010.8754	2843.1843	1215.25	333.65
1010.9932	2844.3374	1211.1	330.65
1011.111	2845.4899	1216.3	334.5
1011.2288	2846.6417	1219.3	340.9
1011.3465	2847.7928	1219.85	340.35
1011.4642	2848.9433	1213.6	333
1011.5818	2850.0931	1212.95	332.1
1011.6995	2851.2422	1218.9	336.5
1011.817	2852.3907	1219.2	338.45
1011.9345	2853.5385	1225.8	345.9
1012.052	2854.6857	1224.6	333.85
1012.1695	2855.8323	1217.55	340.85
1012.2869	2856.9781	1217.4	337.2
1012.4042	2858.1233	1222.05	342.5
1012.5216	2859.2679	1223.9	344.75
1012.6389	2860.4118	1222.7	341
1012.7561	2861.555	1227	342.65
1012.8733	2862.6976	1231.3	349.15
1012.9905	2863.8395	1224.5	342.5
1013.1076	2864.9808	1225.1	345.15
1013.2247	2866.1214	1219.85	339
1013.3417	2867.2614	1221.3	342.45
1013.4587	2868.4007	1220.8	337.8
1013.5757	2869.5393	1224.85	343.6
1013.6926	2870.6773	1229.6	345.85
1013.8095	2871.8146	1227.6	344
1013.9263	2872.9513	1226.55	342.35
1014.0431	2874.0874	1217.75	337.65
1014.1599	2875.2227	1224.8	342.95
1014.2766	2876.3574	1218.25	338.7
1014.3933	2877.4915	1218.15	338.15
1014.51	2878.6249	1213.6	334.55
1014.6266	2879.7577	1222.2	341.15
1014.7431	2880.8898	1235.85	343.65
1014.8596	2882.0212	1217.8	338.85
1014.9761	2883.152	1222.6	342.3
1015.0925	2884.2821	1217.65	337.9
1015.2089	2885.4116	1219.35	340.35
1015.3253	2886.5405	1222.35	342.25
1015.4416	2887.6686	1225.65	343.7
1015.5579	2888.7962	1215.85	338.45
1015.6741	2889.923	1218	337.65
1015.7903	2891.0493	1218.85	339.6
1015.9065	2892.1748	1215.35	334.95
1016.0226	2893.2997	1213.6	330.8
1016.1387	2894.424	1214.8	336.1
1016.2547	2895.5476	1212.35	332.55
1016.3707	2896.6706	1209.2	330.85
1016.4866	2897.7929	1211.65	331.9
1016.6025	2898.9145	1210.1	331.15
1016.7184	2900.0355	1208.95	329.1
1016.8342	2901.1559	1210	329.45
1016.95	2902.2756	1206.55	326.6
1017.0658	2903.3946	1206.35	326.25
1017.1815	2904.513	1209.55	325.2
1017.2971	2905.6308	1202.3	322.15
1017.4127	2906.7479	1206.4	325.95
1017.5283	2907.8643	1202.8	322.25
1017.6439	2908.9801	1202.55	322.1
1017.7594	2910.0953	1199.25	317.7
1017.8748	2911.2098	1198.65	315.2
1017.9902	2912.3236	1205.5	320.1
1018.1056	2913.4368	1199.7	317.45
1018.2209	2914.5494	1198.5	317.45
1018.3362	2915.6613	1193.3	307.4
1018.4515	2916.7725	1194.45	311.95
1018.5667	2917.8831	1184.2	301
1018.6819	2918.9931	1190.5	309.25
1018.797	2920.1024	1186.8	306.45
1018.9121	2921.211	1184.55	303.65
1019.0271	2922.319	1183.55	302.05
1019.1421	2923.4264	1179.4	299.4
1019.2571	2924.5331	1170.8	291.2
1019.372	2925.6391	1173.55	292.8
1019.4869	2926.7445	1167.85	289.75
1019.6017	2927.8493	1173.4	294.1
1019.7165	2928.9534	1167.75	287.8
1019.8313	2930.0569	1174.3	292.65
1019.946	2931.1597	1176.9	296.1
1020.0606	2932.2619	1175.75	296.85
1020.1753	2933.3634	1173.3	292.95
1020.2899	2934.4643	1181.9	297.3
1020.4044	2935.5645	1178.55	290.6
1020.5189	2936.6641	1174.85	291.1
1020.6334	2937.763	1169.05	289.25
1020.7478	2938.8613	1169.3	287.7
1020.8622	2939.959	1167.85	282
1020.9765	2941.056	1166	286.25
1021.0908	2942.1523	1161.45	282.05
1021.2051	2943.248	1157.5	275.45
1021.3193	2944.3431	1146.85	269.25
1021.4334	2945.4375	1144.85	265.55
1021.5476	2946.5313	1144.5	265.2
1021.6617	2947.6244	1133.75	254.75
1021.7757	2948.7169	1129.05	247.85
1021.8897	2949.8087	1129.1	248.75
1022.0037	2950.8999	1122.35	242.15
1022.1176	2951.9904	1115.05	236.3
1022.2315	2953.0803	1110.45	228.8
1022.3453	2954.1696	1107.6	229.65
1022.4591	2955.2582	1101.5	223.55
1022.5728	2956.3462	1107.35	226.65
1022.6865	2957.4335	1098.35	219.5
1022.8002	2958.5202	1102.3	220.5
1022.9138	2959.6062	1100.9	221.85
1023.0274	2960.6916	1098.8	218.5
1023.141	2961.7764	1095.55	215.3
1023.2545	2962.8605	1099.75	219.25
1023.3679	2963.9439	1096.15	215.4
1023.4813	2965.0267	1091.6	210.2
1023.5947	2966.1089	1120.75	217.15
1023.708	2967.1905	1088	207.2
1023.8213	2968.2714	1084.8	205.35
1023.9346	2969.3516	1086.7	207.15
1024.0478	2970.4312	1092.25	205.3
1024.1609	2971.5102	1088.05	207.9
1024.274	2972.5885	1084.5	205.65
1024.3871	2973.6662	1089.3	206.3
1024.5002	2974.7432	1086.7	207.8
1024.6132	2975.8196	1082.4	203.6
1024.7261	2976.8954	1083.45	204.15
1024.839	2977.9705	1085.6	204.4
1024.9519	2979.045	1081.55	204.7
1025.0647	2980.1188	1082.8	203.1
1025.1775	2981.192	1078.9	202
1025.2902	2982.2645	1079.35	199.05
1025.4029	2983.3364	1078.6	199.65
1025.5156	2984.4077	1074	197.25
1025.6282	2985.4783	1079.2	193.8
1025.7407	2986.5483	1071.7	194.2
1025.8532	2987.6177	1066.3	187.45
1025.9657	2988.6864	1064.5	183.25
1026.0782	2989.7545	1064.25	183.65
1026.1906	2990.8219	1065.5	185.1
1026.3029	2991.8887	1061.1	179.1
1026.4152	2992.9548	1060.4	179.95
1026.5275	2994.0204	1055.65	176.95
1026.6397	2995.0852	1055.85	179.75
1026.7519	2996.1495	1050.5	169.5
1026.864	2997.2131	1050.05	168.85
1026.9761	2998.276	1044.2	163.75
1027.0882	2999.3383	1047.25	167.3
1027.2002	3000.4	1044.1	163.5
1027.3122	3001.4611	1043.65	164.85
1027.4241	3002.5215	1042.15	161.85
1027.536	3003.5812	1037.45	161.3
1027.6478	3004.6404	1036.5	155.25
1027.7596	3005.6989	1039.25	158.1
1027.8714	3006.7567	1030.9	151.8
1027.9831	3007.8139	1058	155.25
1028.0947	3008.8705	1034.6	155.2
1028.2064	3009.9264	1038.6	153.7
1028.3179	3010.9818	1035.15	156.05
1028.4295	3012.0364	1033.55	151.5
1028.541	3013.0905	1030.3	147.85
1028.6524	3014.1439	1030.55	152.5
1028.7638	3015.1966	1031.3	151.55
1028.8752	3016.2487	1029.65	151.55
1028.9865	3017.3002	1033.2	146.95
1029.0978	3018.3511	1021.55	141.95
1029.209	3019.4013	1024.6	144.45
1029.3202	3020.4509	1022.05	141.9
1029.4314	3021.4998	1023.8	142.35
1029.5425	3022.5481	1025.75	145.65
1029.6535	3023.5958	1022	141.8
1029.7645	3024.6428	1022.4	140.2
1029.8755	3025.6892	1017.25	138.9
1029.9864	3026.735	1017.95	139.65
1030.0973	3027.7802	1019.95	140.8
1030.2082	3028.8247	1022.5	145.4
1030.319	3029.8685	1020.75	140.8
1030.4297	3030.9118	1019.8	138.4
1030.5404	3031.9544	1014.4	134.55
1030.6511	3032.9963	1017.4	137.65
1030.7617	3034.0376	1015.3	135.7
1030.8723	3035.0783	1017.6	136.05
1030.9829	3036.1184	1017.3	138.85
1031.0934	3037.1578	1015	135.35
1031.2038	3038.1966	1017.5	137
1031.3142	3039.2348	1012.5	132.55
1031.4246	3040.2723	1018.55	130.85
1031.5349	3041.3092	1012.15	135.5
1031.6452	3042.3455	1012.2	132.2
1031.7554	3043.3811	1012.35	131.55
1031.8656	3044.4161	1010.85	132.1
1031.9758	3045.4505	1009.05	131.5
1032.0859	3046.4842	1009.6	130.2
1032.1959	3047.5173	1010.7	133.4
1032.3059	3048.5498	1010.85	132
1032.4159	3049.5816	1009.5	130.65
1032.5258	3050.6128	1006.15	126.25
1032.6357	3051.6434	1008.65	128.9
1032.7455	3052.6734	1011.5	130.7
1032.8553	3053.7027	1008.95	128.05
1032.9651	3054.7314	1007.8	126.95
1033.0748	3055.7594	1006.55	128.15
1033.1845	3056.7868	1004.8	123.5
1033.2941	3057.8136	1006	128.2
1033.4037	3058.8398	1007.15	129.05
1033.5132	3059.8653	1006.15	127.3
1033.6227	3060.8902	1005.9	126.7
1033.7321	3061.9145	1002.9	123.9
1033.8415	3062.9381	1007.35	128.5
1033.9509	3063.9612	1019.5	123.6
1034.0602	3064.9835	1008.9	129.7
1034.1694	3066.0053	1004.75	122.5
1034.2787	3067.0264	1000.7	123
1034.3878	3068.0469	1003.8	123.8
1034.497	3069.0668	1004.6	122.75
1034.6061	3070.086	1002.15	124.4
1034.7151	3071.1046	1002.05	122.25
1034.8241	3072.1226	1003.1	123.45
1034.9331	3073.1399	998.8	121.75
1035.042	3074.1567	996.3	115.75
1035.1508	3075.1727	999.95	118.15
1035.2597	3076.1882	994.7	116.9
1035.3684	3077.203	997.8	117.15
1035.4772	3078.2173	994.5	113.2
1035.5859	3079.2308	996.35	113.4
1035.6945	3080.2438	997.15	116.95
1035.8031	3081.2561	993.4	115
1035.9117	3082.2678	991.1	111.3
1036.0202	3083.2789	990.9	111.05
1036.1286	3084.2893	991.35	113.75
1036.2371	3085.2991	991.6	112.3
1036.3454	3086.3083	994.55	110.4
1036.4538	3087.3169	990.2	110.9
1036.562	3088.3248	989.85	108.2
1036.6703	3089.3321	990.7	110.7
1036.7785	3090.3388	988.1	109.95
1036.8866	3091.3449	986.8	107.8
1036.9948	3092.3503	988.7	107.7
1037.1028	3093.3551	984.8	106.35
1037.2108	3094.3593	981.1	102.65
1037.3188	3095.3629	980.25	102.5
1037.4267	3096.3658	984.85	105
1037.5346	3097.3681	983.95	104.25
1037.6425	3098.3698	984.5	103.95
1037.7503	3099.3708	985.9	100
1037.858	3100.3713	979.25	101.45
1037.9657	3101.3711	979.65	98.3
1038.0734	3102.3702	1120.65	111.05
1038.181	3103.3688	979.8	98.7
1038.2886	3104.3667	978.05	98.5
1038.3961	3105.364	980.05	100.45
1038.5036	3106.3607	975.85	94.7
1038.611	3107.3568	980.4	99.75
1038.7184	3108.3522	971.15	93.55
1038.8257	3109.347	977.05	97.6
1038.933	3110.3412	980.1	98.75
1039.0403	3111.3348	976.45	96.7
1039.1475	3112.3277	974.6	96.55
1039.2547	3113.32	972.65	94.8
1039.3618	3114.3117	972.75	94.9
1039.4689	3115.3028	969.6	91.2
1039.5759	3116.2932	974.9	92.3
1039.6829	3117.2831	974.75	89.95
1039.7898	3118.2723	970	91.45
1039.8967	3119.2608	972.4	93.95
1040.0035	3120.2488	971.35	92.3
1040.1103	3121.2361	968	89.25
1040.2171	3122.2229	967.7	87.75
1040.3238	3123.209	971.05	91.4
1040.4305	3124.1944	968.85	89.7
1040.5371	3125.1793	971.55	91.05
1040.6437	3126.1635	964.4	87.4
1040.7502	3127.1471	966.15	85.95
1040.8567	3128.1301	966.15	87.4
1040.9631	3129.1125	964.4	85.5
1041.0695	3130.0942	965.4	88.55
1041.1759	3131.0753	969.2	83.5
1041.2822	3132.0558	968.35	85.7
1041.3884	3133.0357	964.65	84
1041.4946	3134.015	963.9	83.85
1041.6008	3134.9936	967.2	84.9
1041.7069	3135.9716	982.5	80.4
1041.813	3136.949	961.8	82.2
1041.919	3137.9258	963	78.7
1042.025	3138.902	967.5	82.25
1042.1309	3139.8775	959.6	80.1
1042.2368	3140.8524	960.5	83.1
1042.3427	3141.8267	960.8	80
1042.4485	3142.8004	961.55	83.5
1042.5542	3143.7735	965.25	81
1042.6599	3144.7459	960.7	80.4
1042.7656	3145.7178	962.75	83.45
1042.8712	3146.689	952.8	76.4
1042.9768	3147.6596	960.55	76.5
1043.0823	3148.6295	958.05	77.3
1043.1878	3149.5989	955.75	76.9
1043.2932	3150.5676	951.8	72.9
1043.3986	3151.5357	953.05	75.8
1043.5039	3152.5032	952.7	75.3
1043.6092	3153.4701	955.5	76.3
1043.7145	3154.4364	958.6	78.15
1043.8197	3155.402	955.35	75.5
1043.9248	3156.367	953.6	70.7
1044.03	3157.3315	989.35	74.7
1044.135	3158.2952	953.75	75
1044.24	3159.2584	952.1	73.6
1044.345	3160.221	951	71.6
1044.4499	3161.1829	952.1	69.65
1044.5548	3162.1442	950.55	71.85
1044.6596	3163.105	950.85	70.85
1044.7644	3164.065	954.45	75.25
1044.8692	3165.0245	953.9	70.85
1044.9739	3165.9834	948.5	70.7
1045.0785	3166.9416	950.9	72.45
1045.1831	3167.8993	949.2	70.05
1045.2877	3168.8563	948.3	70.05
1045.3922	3169.8127	948.95	70.3
1045.4966	3170.7684	951.55	72.5
1045.6011	3171.7236	946	66.4
1045.7054	3172.6782	945.9	65.9
1045.8098	3173.6321	950.25	69.75
1045.914	3174.5854	952.45	69.55
1046.0183	3175.5381	945.9	67.25
1046.1224	3176.4902	944.05	64.6
1046.2266	3177.4417	944.95	69.85
1046.3307	3178.3926	944.7	64.6
1046.4347	3179.3428	942.25	64.45
1046.5387	3180.2924	943.8	66.35
1046.6427	3181.2415	941.7	64.75
1046.7466	3182.1899	946.25	66
1046.8504	3183.1377	942.05	62.6
1046.9542	3184.0848	947.05	65.25
1047.058	3185.0314	941.8	61.55
1047.1617	3185.9773	942.75	64.6
1047.2654	3186.9227	941.35	62.15
1047.369	3187.8674	942.45	64.55
1047.4726	3188.8115	948.65	63.6
1047.5761	3189.755	939.25	62.45
1047.6796	3190.6979	939.8	61
1047.783	3191.6402	940.75	61.7
1047.8864	3192.5818	938.75	60.7
1047.9898	3193.5229	956.9	62.25
1048.0931	3194.4633	939.2	61.1
1048.1963	3195.4031	938.9	60.75
1048.2995	3196.3423	939.65	61
1048.4027	3197.2809	936.1	53.8
1048.5058	3198.2189	940.65	61.9
1048.6089	3199.1563	952.6	57
1048.7119	3200.0931	940.55	63.9
1048.8148	3201.0292	936.15	56.5
1048.9178	3201.9648	939.1	58.95
1049.0206	3202.8997	943.4	61.1
1049.1235	3203.834	936.55	58.25
1049.2262	3204.7677	936.55	58.75
1049.329	3205.7008	939.45	59.9
1049.4317	3206.6333	933.8	58.1
1049.5343	3207.5652	935.95	54.2
1049.6369	3208.4964	934.55	56.15
1049.7394	3209.4271	934.45	55.6
1049.8419	3210.3571	930.6	51.05
1049.9444	3211.2865	932.4	53.4
1050.0468	3212.2154	934.85	56.05
1050.1491	3213.1436	938.9	55.1
1050.2514	3214.0712	941.1	57.4
1050.3537	3214.9982	933	53.2
1050.4559	3215.9246	932.05	53.15
1050.5581	3216.8503	932	54.7
1050.6602	3217.7755	932.5	51.75
1050.7623	3218.7001	934.3	55.3
1050.8643	3219.624	930.25	51.05
1050.9663	3220.5473	931.25	51.5
1051.0682	3221.4701	932.75	53.05
1051.1701	3222.3922	931.65	51.7
1051.2719	3223.3137	930.5	52.4
1051.3737	3224.2346	930.45	51
1051.4754	3225.1549	928.25	49.55
1051.5771	3226.0746	930.2	52.4
1051.6788	3226.9937	929.45	47.45
1051.7804	3227.9121	929.9	52.75
1051.8819	3228.83	927	48.3
1051.9834	3229.7473	928.7	48.15
1052.0849	3230.6639	924.85	44.85
1052.1863	3231.5799	927.6	48.45
1052.2876	3232.4954	928.7	48.25
1052.3889	3233.4102	928.25	49.85
1052.4902	3234.3244	927.6	46.25
1052.5914	3235.238	923.85	45.2
1052.6926	3236.151	953.25	50.55
1052.7937	3237.0634	923.9	48.8
1052.8948	3237.9752	923.2	44.35
1052.9958	3238.8864	926.7	47.2
1053.0968	3239.797	924.65	46.5
1053.1977	3240.7069	926.25	47.45
1053.2986	3241.6163	926.15	44.75
1053.3994	3242.5251	921.4	43.1
1053.5002	3243.4332	922.9	43.45
1053.6009	3244.3408	924.45	45.55
1053.7016	3245.2477	922.65	43.8
1053.8022	3246.154	924.8	45.7
1053.9028	3247.0598	925.15	45.4
1054.0034	3247.9649	923.55	44.75
1054.1039	3248.8694	922.8	43
1054.2043	3249.7733	923.85	45.25
1054.3047	3250.6766	923.35	44.25
1054.4051	3251.5793	921.6	41.8
1054.5054	3252.4814	923.8	44.2
1054.6056	3253.3829	922.05	42.9
1054.7058	3254.2838	920.25	41.2
1054.806	3255.1841	920.35	43.8
1054.9061	3256.0838	919.1	40.55
1055.0061	3256.9829	918.55	41.35
1055.1062	3257.8814	921.95	39.25
1055.2061	3258.7792	921.15	40.35
1055.306	3259.6765	920.95	39.5
1055.4059	3260.5731	918.15	39.7
1055.5057	3261.4692	919	40.35
1055.6055	3262.3647	919.65	40.45
1055.7052	3263.2595	916.5	37.25
1055.8049	3264.1538	916.45	39.1
1055.9045	3265.0474	917.45	38.2
1056.0041	3265.9404	911.9	33.8
1056.1036	3266.8329	914.05	36.15
1056.2031	3267.7247	925.2	36.6
1056.3025	3268.616	914.25	36.85
1056.4019	3269.5066	912.3	32.9
1056.5013	3270.3966	915.6	35.7
1056.6005	3271.286	910.75	32.25
