Software Version:	3.9.2.0
Unit SN:	10000200
Spectrometer SN:	6960
Date:	3/6/2024 11:06:03 AM
Data Line Index:	25
Spectral Points:	2048
Integration time (ms):	125
Averages:	20
Delay (ms):	30
Sequence Number:	1
Processing:	dark subtract
Laser Power (mW):	300
Laser Current (mA):	821
Laser Diode Temp (C):	25
Laser Case Temp (C):	28.5
System Temp (C):	28.3
Spectrometer Temp (C):	25.8
CCD Temp (C):	0.008
Secondary Temp (C):	20.006
Heatsink Temp (C):	23.974
CCDPCB Temp (C):	36.94
SecondaryPCB Temp (C):	34.973

Wavelength	RamanShift	Raw Counts	Dark Subtracted
787.061	30.1047	1076.1	663.1
787.2016	32.3739	1110.15	699.55
787.3422	34.6426	1153.75	740.8
787.4828	36.9109	1183.45	768.7
787.6235	39.1787	1244.9	827.45
787.7642	41.4461	1308.95	886.75
787.9049	43.7131	1364.8	938.6
788.0456	45.9796	1423.85	993.1
788.1863	48.2456	1491.35	1057.7
788.3271	50.5112	1558.6	1120.65
788.4679	52.7764	1622.5	1182.9
788.6087	55.0411	1684.7	1241
788.7496	57.3054	1763.55	1313.25
788.8904	59.5692	1859.4	1406
789.0313	61.8326	1956.6	1498.1
789.1722	64.0955	2046.95	1587.4
789.3132	66.3579	2164.45	1699.45
789.4541	68.6199	2320.5	1853.05
789.5951	70.8815	2537.8	2066.1
789.7361	73.1426	3012.1	2537.3
789.8771	75.4032	4208.05	3727.3
790.0181	77.6634	7235	6751.25
790.1592	79.9231	14979.55	14488.3
790.3003	82.1824	48255.95	47756.05
790.4414	84.4412	65535	65017.9
790.5825	86.6995	65535	64995.85
790.7237	88.9574	65535	64976.3
790.8648	91.2148	65535	64961.95
791.006	93.4717	65535	64951.05
791.1472	95.7282	65535	64946.05
791.2885	97.9842	65535	64944.65
791.4297	100.2398	65535	64938.65
791.571	102.4949	65535	64935.95
791.7123	104.7495	65535	64931.8
791.8536	107.0036	65535	64930
791.9949	109.2573	65535	64932.3
792.1363	111.5105	65535	64928.05
792.2777	113.7632	65535	64928.8
792.4191	116.0154	65535	64916.7
792.5605	118.2672	65535	64923.1
792.7019	120.5185	65535	64923.65
792.8434	122.7693	65535	64921.65
792.9849	125.0197	65535	64914.1
793.1264	127.2696	65535	64915.05
793.2679	129.519	65535	64910.15
793.4094	131.7679	65535	64908.15
793.551	134.0163	65535	64908.25
793.6926	136.2642	65535	64900.45
793.8342	138.5117	65535	64890.15
793.9758	140.7587	65535	64895.6
794.1175	143.0052	65535	64892.65
794.2591	145.2512	65535	64895.4
794.4008	147.4967	65535	64892.3
794.5425	149.7417	65535	64893.25
794.6842	151.9863	65535	64889.6
794.826	154.2304	65535	64886.45
794.9677	156.4739	65535	64882.55
795.1095	158.717	65535	64880.5
795.2513	160.9596	65535	64873.4
795.3931	163.2017	65535	64875.65
795.535	165.4433	65535	64871.05
795.6768	167.6844	65535	64863.05
795.8187	169.925	65535	64864.7
795.9606	172.1651	65535	64862.85
796.1025	174.4047	65535	64862.4
796.2445	176.6439	65535	64856.8
796.3864	178.8825	65535	64855.35
796.5284	181.1206	65535	64849.1
796.6704	183.3582	65535	64843.25
796.8124	185.5954	65535	64845.15
796.9544	187.832	65535	64841.75
797.0965	190.0681	65535	64841.45
797.2386	192.3037	65535	64838.85
797.3806	194.5388	65535	64831.4
797.5228	196.7734	65535	64834.5
797.6649	199.0075	65535	64827.55
797.807	201.2411	65535	64827.15
797.9492	203.4742	65535	64825.4
798.0914	205.7068	65535	64823.4
798.2336	207.9389	65535	64823.85
798.3758	210.1704	65535	64817.45
798.518	212.4015	65535	64815.1
798.6603	214.632	65535	64817.5
798.8025	216.862	65535	64827.45
798.9448	219.0915	65535	64834
799.0871	221.3205	65535	64834.25
799.2294	223.549	65535	64840.15
799.3718	225.777	65535	64842
799.5141	228.0044	65535	64837.3
799.6565	230.2314	65535	64837.65
799.7989	232.4578	65535	64838.15
799.9413	234.6837	65535	64828.8
800.0837	236.909	65535	64829.85
800.2262	239.1339	65535	64801.25
800.3687	241.3582	65535	64817.05
800.5111	243.582	65535	64785.8
800.6536	245.8053	65535	64797.85
800.7961	248.0281	65535	64805.6
800.9387	250.2503	65535	64797.85
801.0812	252.472	65535	64793.55
801.2238	254.6932	65535	64792.1
801.3664	256.9139	65535	64791.3
801.509	259.134	65535	64786.7
801.6516	261.3536	65535	64790.25
801.7942	263.5727	65535	64787.2
801.9369	265.7912	65535	64786.05
802.0795	268.0092	65535	64785.5
802.2222	270.2267	65535	64783.25
802.3649	272.4436	65535	64781.5
802.5076	274.6601	65535	64775.65
802.6504	276.8759	65535	64783
802.7931	279.0913	65535	64779.4
802.9359	281.3061	65535	64777.4
803.0787	283.5204	65535	64777.5
803.2215	285.7341	65535	64771.35
803.3643	287.9473	65535	64757.9
803.5071	290.16	65535	64763.95
803.6499	292.3721	65535	64773.05
803.7928	294.5837	65535	64772.9
803.9357	296.7947	65535	64772.25
804.0786	299.0052	65535	64771.35
804.2215	301.2152	65535	64765.7
804.3644	303.4246	65535	64769.9
804.5074	305.6334	65535	64770.05
804.6503	307.8418	65535	64767.75
804.7933	310.0495	65535	64764
804.9363	312.2568	65535	64767.55
805.0793	314.4635	65535	64767.1
805.2223	316.6696	65535	64757.75
805.3653	318.8752	65535	64752.15
805.5084	321.0802	65535	64761.25
805.6514	323.2847	65535	64761.1
805.7945	325.4887	65535	64762.2
805.9376	327.692	65535	64756.85
806.0807	329.8949	65535	64760.55
806.2238	332.0972	65535	64755.4
806.367	334.2989	65535	64753.45
806.5101	336.5001	65535	64748.1
806.6533	338.7007	65535	64751.75
806.7965	340.9008	65535	64748.25
806.9397	343.1003	65535	64749.2
807.0829	345.2992	65535	64747.9
807.2261	347.4976	65535	64747.45
807.3693	349.6955	65535	64741.65
807.5126	351.8927	65535	64740.3
807.6559	354.0895	65535	64727.9
807.7991	356.2856	65535	64739
807.9424	358.4812	65535	64739.9
808.0857	360.6763	65535	64737.05
808.2291	362.8707	65535	64737.45
808.3724	365.0646	65535	64738.95
808.5158	367.258	65535	64731.5
808.6591	369.4508	65535	64727.25
808.8025	371.643	65535	64730.25
808.9459	373.8346	65535	64728.25
809.0893	376.0257	65535	64719.9
809.2327	378.2162	65535	64723.85
809.3762	380.4062	65535	64719.7
809.5196	382.5956	65535	64719.55
809.6631	384.7844	65535	64720.6
809.8066	386.9726	65535	64719
809.9501	389.1603	65535	64722.05
810.0936	391.3474	65535	64689.1
810.2371	393.5339	65535	64722.85
810.3806	395.7199	65535	64726.05
810.5241	397.9052	65535	64729.85
810.6677	400.09	65535	64730.6
810.8113	402.2743	65535	64728.7
810.9548	404.4579	65535	64731.5
811.0984	406.641	65535	64729.4
811.2421	408.8235	65535	64730.25
811.3857	411.0054	65535	64725.6
811.5293	413.1868	65535	64728.4
811.673	415.3675	65535	64724.15
811.8166	417.5477	65535	64720.4
811.9603	419.7273	65535	64718.2
812.104	421.9064	65535	64713.4
812.2477	424.0848	65535	64716.55
812.3914	426.2627	65535	64713.1
812.5351	428.4399	65535	64710.15
812.6788	430.6166	65535	64709.75
812.8226	432.7928	65535	64705.65
812.9663	434.9683	65535	64709.25
813.1101	437.1432	65535	64705.1
813.2539	439.3176	65535	64705.65
813.3977	441.4914	65535	64704.45
813.5415	443.6645	65535	64703.2
813.6853	445.8371	65535	64701.6
813.8291	448.0091	65535	64705.25
813.973	450.1806	65535	64704.45
814.1168	452.3514	65535	64703.35
814.2607	454.5216	65535	64695.4
814.4046	456.6913	65535	64698.9
814.5485	458.8603	65535	64700
814.6924	461.0288	65535	64702.2
814.8363	463.1967	65535	64702.6
814.9802	465.3639	65535	64700.15
815.1241	467.5306	65535	64696.9
815.2681	469.6967	65535	64697.7
815.412	471.8622	65535	64697.75
815.556	474.0271	65535	64700.5
815.7	476.1914	65535	64698.9
815.844	478.3551	65535	64699.4
815.988	480.5182	65535	64695.9
816.132	482.6807	65535	64695.5
816.276	484.8426	65535	64700.1
816.4201	487.0039	65535	64696.05
816.5641	489.1647	65535	64696.35
816.7082	491.3248	65535	64697.65
816.8522	493.4843	65535	64694.25
816.9963	495.6432	65535	64695.9
817.1404	497.8015	65535	64688.2
817.2845	499.9592	65535	64688.15
817.4286	502.1163	65535	64690
817.5727	504.2728	65535	64690.8
817.7168	506.4287	65535	64694.25
817.861	508.5839	65535	64688.75
818.0051	510.7386	65535	64690.75
818.1493	512.8927	65535	64685.35
818.2935	515.0461	65535	64687.9
818.4377	517.199	65535	64690.2
818.5818	519.3512	65535	64691.25
818.726	521.5029	65535	64682.25
818.8703	523.6539	65535	64685.65
819.0145	525.8043	65535	64685.55
819.1587	527.9541	65535	64681.45
819.303	530.1033	65535	64685.9
819.4472	532.2519	65535	64682.05
819.5915	534.3999	65535	64682.35
819.7357	536.5472	65535	64684.2
819.88	538.694	65535	64682.45
820.0243	540.8401	65535	64681.25
820.1686	542.9856	65535	64681.45
820.3129	545.1305	65535	64680.1
820.4572	547.2748	65535	64679.75
820.6016	549.4185	65535	64674.55
820.7459	551.5615	65535	64680.4
820.8902	553.704	65535	64674.95
821.0346	555.8458	65535	64681.15
821.1789	557.987	65535	64678.5
821.3233	560.1276	65535	64674.2
821.4677	562.2675	65535	64679.1
821.6121	564.4069	65535	64679.4
821.7565	566.5456	65535	64678.45
821.9009	568.6837	65535	64677.1
822.0453	570.8212	65535	64678.7
822.1897	572.958	65535	64675.55
822.3342	575.0942	65535	64679.4
822.4786	577.2299	65535	64677.9
822.6231	579.3648	65535	64679.3
822.7675	581.4992	65535	64678.85
822.912	583.6329	65535	64677.8
823.0565	585.766	65535	64678.4
823.201	587.8985	65535	64682.7
823.3454	590.0304	65535	64663.7
823.4899	592.1616	65535	64673.8
823.6345	594.2922	65535	64673.85
823.779	596.4222	65535	64673.7
823.9235	598.5515	65535	64671.3
824.068	600.6802	65535	64671.9
824.2126	602.8083	65535	64674.9
824.3571	604.9358	65535	64672.45
824.5017	607.0626	65535	64672.5
824.6462	609.1888	65535	64669.05
824.7908	611.3144	65535	64672
824.9354	613.4393	65535	64668.95
825.08	615.5636	65535	64670.15
825.2246	617.6873	65535	64666.95
825.3692	619.8103	65535	64672.65
825.5138	621.9327	65535	64667
825.6584	624.0544	65535	64670.3
825.803	626.1756	65535	64674.3
825.9477	628.2961	65535	64669.65
826.0923	630.4159	65535	64668.95
826.237	632.5351	65535	64667
826.3816	634.6537	65535	64668.7
826.5263	636.7716	65535	64662.25
826.6709	638.8889	65535	64666.95
826.8156	641.0056	65535	64663.8
826.9603	643.1216	65535	64664.8
827.105	645.237	65535	64663.8
827.2497	647.3518	65535	64664.35
827.3944	649.4659	65535	64667.15
827.5391	651.5793	65535	64664.75
827.6838	653.6922	65535	64665.65
827.8285	655.8043	65535	64666.55
827.9733	657.9159	65535	64666.45
828.118	660.0268	65535	64665.85
828.2627	662.137	65535	64664.45
828.4075	664.2466	65535	64660.55
828.5522	666.3556	65535	64662.75
828.697	668.4639	65535	64658.95
828.8418	670.5716	65535	64663.55
828.9865	672.6786	65535	64660.4
829.1313	674.785	65535	64656.5
829.2761	676.8907	65535	64660
829.4209	678.9958	65535	64664.4
829.5657	681.1002	65535	64661.65
829.7105	683.204	65535	64656.95
829.8553	685.3072	65535	64656.65
830.0001	687.4097	65535	64658.3
830.1449	689.5115	65535	64658.35
830.2898	691.6127	65535	64662.7
830.4346	693.7132	65535	64659.25
830.5794	695.8131	65535	64642.4
830.7243	697.9123	65535	64657.95
830.8691	700.0109	65535	64659.75
831.014	702.1089	65535	64658.4
831.1588	704.2061	65535	64657.25
831.3037	706.3028	65535	64655.2
831.4486	708.3987	65535	64656.85
831.5935	710.4941	65535	64657.4
831.7383	712.5887	65535	64656.55
831.8832	714.6827	65535	64650.35
832.0281	716.7761	65535	64656.45
832.173	718.8688	65535	64654.55
832.3179	720.9608	65535	64653.8
832.4628	723.0522	65535	64650.95
832.6077	725.1429	65535	64656.5
832.7527	727.233	65535	64654.7
832.8976	729.3224	65535	64653.65
833.0425	731.4112	65535	64654.2
833.1874	733.4993	65535	64650.75
833.3324	735.5867	65535	64652.55
833.4773	737.6735	65535	64648.55
833.6222	739.7596	65535	64651.8
833.7672	741.845	65535	64652.9
833.9122	743.9298	65535	64651.05
834.0571	746.014	65535	64654.35
834.2021	748.0974	65535	64649.7
834.347	750.1802	65535	64651.25
834.492	752.2624	65535	64650.65
834.637	754.3439	65535	64649.95
834.782	756.4247	65535	64640.9
834.9269	758.5048	65535	64653.95
835.0719	760.5843	65535	64651.6
835.2169	762.6631	65535	64652.05
835.3619	764.7413	65535	64653
835.5069	766.8188	65535	64652.1
835.6519	768.8956	65535	64648.5
835.7969	770.9718	65535	64650.15
835.9419	773.0473	65535	64648.5
836.0869	775.1221	65535	64649.15
836.232	777.1962	65535	64648.5
836.377	779.2697	65535	64649.95
836.522	781.3426	65535	64628.8
836.667	783.4147	65535	64647.35
836.8121	785.4862	65535	64651.3
836.9571	787.557	65535	64651
837.1021	789.6271	65535	64647.65
837.2472	791.6966	65535	64650.35
837.3922	793.7654	65535	64647.3
837.5373	795.8335	65535	64647.75
837.6823	797.901	65535	64650.25
837.8274	799.9678	65535	64646.2
837.9724	802.0339	65535	64651.7
838.1175	804.0993	65535	64637.6
838.2626	806.1641	65535	64648.45
838.4076	808.2282	65535	64649.7
838.5527	810.2916	65535	64646.25
838.6978	812.3544	65535	64649.7
838.8428	814.4164	65535	64647.6
838.9879	816.4778	65535	64646.35
839.133	818.5385	65535	64648.55
839.2781	820.5986	65535	64647.5
839.4232	822.658	65535	64646.05
839.5682	824.7166	65535	64646.1
839.7133	826.7747	65535	64648.95
839.8584	828.832	65535	64647.9
840.0035	830.8886	65535	64645.75
840.1486	832.9446	65535	64645.85
840.2937	834.9999	65535	64649.7
840.4388	837.0545	65535	64643.5
840.5839	839.1085	65535	64647.15
840.729	841.1618	65535	64643.05
840.8741	843.2143	65535	64648.15
841.0192	845.2662	65535	64649.15
841.1643	847.3175	65535	64645.3
841.3095	849.368	65535	64645.75
841.4546	851.4179	65535	64644
841.5997	853.467	65535	64646.35
841.7448	855.5155	65535	64646.4
841.8899	857.5633	65535	64646.1
842.0351	859.6105	65535	64645.5
842.1802	861.6569	65535	64646.3
842.3253	863.7027	65535	64644.2
842.4704	865.7478	65535	64644.45
842.6156	867.7922	65535	64644.3
842.7607	869.8359	65535	64643.85
842.9058	871.8789	65535	64642.65
843.0509	873.9212	65535	64610.2
843.1961	875.9629	65535	64644.6
843.3412	878.0039	65535	64643.3
843.4863	880.0441	65535	64646.25
843.6315	882.0837	65535	64644.55
843.7766	884.1226	65535	64645.25
843.9218	886.1609	65535	64644.45
844.0669	888.1984	65535	64644.4
844.212	890.2352	65535	64643.85
844.3572	892.2714	65535	64638.65
844.5023	894.3069	65535	64642.95
844.6475	896.3416	65535	64641.85
844.7926	898.3757	65535	64642.8
844.9377	900.4091	65535	64643.5
845.0829	902.4418	65535	64640
845.228	904.4739	65535	64642.65
845.3732	906.5052	65535	64641.3
845.5183	908.5358	65535	64641.45
845.6635	910.5658	65535	64643.05
845.8086	912.595	65535	64642.35
845.9538	914.6236	65535	64642.5
846.0989	916.6515	65535	64639.6
846.2441	918.6786	65535	64639.9
846.3892	920.7051	65535	64640.45
846.5344	922.7309	65535	64640.4
846.6795	924.756	65535	64644.15
846.8246	926.7804	65535	64641.6
846.9698	928.8041	65535	64636.45
847.1149	930.8272	65535	64638.7
847.2601	932.8495	65535	64641.45
847.4052	934.8711	65535	64640.25
847.5504	936.892	65535	64643.05
847.6955	938.9123	65535	64640.05
847.8407	940.9318	65535	64642.7
847.9858	942.9506	65535	64638.8
848.131	944.9688	65535	64639.5
848.2761	946.9862	65535	64643.15
848.4213	949.003	65535	64641.6
848.5664	951.019	65535	64640.25
848.7115	953.0344	65535	64641.8
848.8567	955.0491	65535	64637.5
849.0018	957.063	65535	64642.6
849.147	959.0763	65535	64643.3
849.2921	961.0888	65535	64640
849.4373	963.1007	65535	64639.85
849.5824	965.1119	65535	64640.5
849.7275	967.1223	65535	64641.7
849.8727	969.1321	65535	64643.15
850.0178	971.1412	65535	64643.4
850.1629	973.1495	65535	64639.6
850.3081	975.1572	65535	64605.9
850.4532	977.1641	65535	64640.75
850.5983	979.1704	65535	64638.1
850.7435	981.1759	65535	64637.4
850.8886	983.1808	65535	64638.2
851.0337	985.1849	65535	64629.2
851.1788	987.1884	65535	64636.65
851.324	989.1911	65535	64637.35
851.4691	991.1932	65535	64638.55
851.6142	993.1945	65535	64640.3
851.7593	995.1951	65535	64640.4
851.9045	997.1951	65535	64635.15
852.0496	999.1943	65535	64641.4
852.1947	1001.1928	65535	64639.85
852.3398	1003.1906	65535	64638.05
852.4849	1005.1877	65535	64638.7
852.63	1007.1841	65535	64640.4
852.7751	1009.1798	65535	64639.75
852.9202	1011.1748	65535	64641.75
853.0653	1013.1691	65535	64640.05
853.2104	1015.1627	65535	64639.5
853.3555	1017.1556	65535	64641
853.5006	1019.1477	65535	64638.35
853.6457	1021.1392	65535	64640.2
853.7908	1023.1299	65535	64641.55
853.9359	1025.12	65535	64638.9
854.081	1027.1093	65535	64641.9
854.2261	1029.0979	65535	64643.15
854.3712	1031.0859	65535	64641.15
854.5163	1033.0731	65535	64638.65
854.6613	1035.0596	65535	64642.75
854.8064	1037.0454	65535	64640.85
854.9515	1039.0304	65535	64638.85
855.0965	1041.0148	65535	64640.2
855.2416	1042.9985	65535	64637.55
855.3867	1044.9814	65535	64639.25
855.5317	1046.9636	65535	64637.45
855.6768	1048.9452	65535	64639.7
855.8219	1050.926	65535	64641.25
855.9669	1052.9061	65535	64639.3
856.112	1054.8855	65535	64638.55
856.257	1056.8642	65535	64639.45
856.4021	1058.8421	65535	64636.15
856.5471	1060.8194	65535	64638.35
856.6921	1062.7959	65535	64639.85
856.8372	1064.7717	65535	64639.7
856.9822	1066.7469	65535	64638.05
857.1272	1068.7213	65535	64635.45
857.2723	1070.695	65535	64638.15
857.4173	1072.6679	65535	64639.9
857.5623	1074.6402	65535	64641.8
857.7073	1076.6117	65535	64632.9
857.8523	1078.5826	65535	64637.85
857.9973	1080.5527	65535	64636.5
858.1423	1082.5221	65535	64637.6
858.2873	1084.4908	65535	64635.2
858.4323	1086.4587	65535	64637.05
858.5773	1088.426	65535	64638.65
858.7223	1090.3925	65535	64633.45
858.8673	1092.3584	65535	64636.7
859.0123	1094.3235	65535	64638.5
859.1573	1096.2879	65535	64638.05
859.3022	1098.2515	65535	64638.55
859.4472	1100.2145	65535	64637.05
859.5922	1102.1767	65535	64636.75
859.7371	1104.1382	65535	64638.3
859.8821	1106.099	65535	64639.35
860.027	1108.0591	65535	64637.4
860.172	1110.0185	65535	64636.2
860.3169	1111.9771	65535	64637.4
860.4619	1113.9351	65535	64639.95
860.6068	1115.8923	65535	64638.4
860.7517	1117.8488	65535	64639.25
860.8967	1119.8045	65535	64641
861.0416	1121.7596	65535	64638
861.1865	1123.7139	65535	64640.3
861.3314	1125.6675	65535	64640.15
861.4763	1127.6204	65535	64638.25
861.6212	1129.5726	65535	64637.65
861.7661	1131.524	65535	64639.45
861.911	1133.4748	65535	64639.3
862.0559	1135.4248	65535	64636
862.2008	1137.3741	65535	64635.75
862.3457	1139.3226	65535	64636.7
862.4905	1141.2705	65535	64637.55
862.6354	1143.2176	65535	64632.8
862.7803	1145.164	65535	64636.05
862.9251	1147.1097	65535	64638.65
863.07	1149.0546	65535	64637.65
863.2148	1150.9989	65535	64639.15
863.3597	1152.9424	65535	64638.85
863.5045	1154.8852	65535	64638.6
863.6493	1156.8272	65535	64639.5
863.7942	1158.7686	65535	64630.3
863.939	1160.7092	65535	64635.95
864.0838	1162.6491	65535	64635.75
864.2286	1164.5883	65535	64637.2
864.3734	1166.5267	65535	64637.1
864.5182	1168.4644	65535	64638
864.663	1170.4014	65535	64632.4
864.8078	1172.3377	65535	64638.3
864.9526	1174.2732	65535	64637.95
865.0974	1176.2081	65535	64639.35
865.2421	1178.1421	65535	64633.75
865.3869	1180.0755	65535	64637.35
865.5317	1182.0082	65535	64637.3
865.6764	1183.9401	65535	64636.7
865.8212	1185.8713	65535	64638.85
865.9659	1187.8017	65535	64640.4
866.1106	1189.7315	65535	64639.55
866.2554	1191.6605	65535	64611.85
866.4001	1193.5888	65535	64640
866.5448	1195.5163	65535	64637.6
866.6895	1197.4432	65535	64638
866.8342	1199.3693	65535	64638.8
866.9789	1201.2947	65535	64636.4
867.1236	1203.2193	65535	64637.45
867.2683	1205.1432	65535	64637.35
867.413	1207.0664	65535	64637.3
867.5576	1208.9889	65535	64635.1
867.7023	1210.9106	65535	64638.1
867.847	1212.8316	65535	64639.2
867.9916	1214.7519	65535	64629.5
868.1363	1216.6715	65535	64638.55
868.2809	1218.5903	65535	64638.05
868.4255	1220.5084	65535	64639
868.5701	1222.4257	65535	64639.95
868.7148	1224.3424	65535	64638.85
868.8594	1226.2583	65535	64633.95
869.004	1228.1735	65535	64637.15
869.1486	1230.0879	65535	64639.6
869.2932	1232.0016	65535	64638.15
869.4377	1233.9146	65535	64636.4
869.5823	1235.8269	65535	64636.55
869.7269	1237.7384	65535	64637.15
869.8715	1239.6492	65535	64638.9
870.016	1241.5592	65535	64636.8
870.1606	1243.4686	65535	64636.3
870.3051	1245.3772	65535	64636.85
870.4496	1247.285	65535	64638.6
870.5941	1249.1922	65535	64633.8
870.7387	1251.0986	65535	64639.45
870.8832	1253.0042	65535	64636.5
871.0277	1254.9092	65535	64638.3
871.1722	1256.8134	65535	64640.9
871.3167	1258.7169	65535	64636.7
871.4611	1260.6196	65535	64639.1
871.6056	1262.5216	65535	64636
871.7501	1264.4229	65535	64636.9
871.8945	1266.3234	65535	64638.75
872.039	1268.2232	65535	64636.9
872.1834	1270.1223	65535	64637.1
872.3278	1272.0207	65535	64636.3
872.4723	1273.9183	65535	64630.75
872.6167	1275.8151	65535	64636.25
872.7611	1277.7113	65535	64636.55
872.9055	1279.6067	65535	64637.7
873.0499	1281.5014	65535	64635.75
873.1943	1283.3953	65535	64637.6
873.3386	1285.2885	65535	64638.95
873.483	1287.181	65535	64639.5
873.6274	1289.0727	65535	64636.55
873.7717	1290.9637	65535	64637.4
873.9161	1292.854	65535	64639.8
874.0604	1294.7435	65535	64637
874.2047	1296.6323	65535	64638.2
874.349	1298.5204	65535	64635
874.4933	1300.4077	65535	64637.25
874.6376	1302.2943	65535	64637.6
874.7819	1304.1802	65535	64638.35
874.9262	1306.0653	65535	64635.45
875.0705	1307.9497	65535	64638.95
875.2147	1309.8333	65535	64635.75
875.359	1311.7162	65535	64636.3
875.5032	1313.5984	65535	64635.4
875.6475	1315.4798	65535	64624.25
875.7917	1317.3605	65535	64620.45
875.9359	1319.2405	65535	64634.8
876.0801	1321.1197	65535	64633.7
876.2243	1322.9982	65535	64633.2
876.3685	1324.876	65535	64637.35
876.5127	1326.753	65535	64637.3
876.6569	1328.6293	65535	64633.1
876.801	1330.5048	65535	64635.75
876.9452	1332.3796	65535	64639.3
877.0893	1334.2537	65535	64609.2
877.2335	1336.127	65535	64637
877.3776	1337.9996	65535	64636.9
877.5217	1339.8714	65535	64636.95
877.6658	1341.7426	65535	64594.35
877.8099	1343.6129	65535	64637.05
877.954	1345.4826	65535	64638.15
878.0981	1347.3515	65535	64633.25
878.2422	1349.2196	65535	64636
878.3862	1351.087	65535	64639.35
878.5303	1352.9537	65535	64638
878.6743	1354.8197	65535	64638.85
878.8184	1356.6849	65535	64637.7
878.9624	1358.5493	65535	64636.95
879.1064	1360.4131	65535	64637
879.2504	1362.276	65535	64639.15
879.3944	1364.1383	65535	64638.75
879.5384	1365.9998	65535	64632.85
879.6823	1367.8606	65535	64636.25
879.8263	1369.7206	65535	64635.85
879.9702	1371.5799	65535	64635.65
880.1142	1373.4384	65535	64638
880.2581	1375.2962	65535	64637.7
880.402	1377.1533	65535	64636.5
880.5459	1379.0096	65535	64636.65
880.6898	1380.8652	65535	64638.45
880.8337	1382.7201	65535	64637.15
880.9776	1384.5742	65535	64637.05
881.1215	1386.4275	65535	64637.1
881.2653	1388.2802	65535	64639.5
881.4092	1390.132	65535	64637.55
881.553	1391.9832	65535	64637.65
881.6968	1393.8336	65535	64637.25
881.8406	1395.6832	65535	64635.45
881.9844	1397.5322	65535	64637.05
882.1282	1399.3803	65535	64633.4
882.272	1401.2278	65535	64637.55
882.4158	1403.0745	65535	64637.5
882.5595	1404.9204	65535	64638
882.7033	1406.7656	65535	64637.8
882.847	1408.6101	65535	64638.1
882.9908	1410.4538	65535	64637.45
883.1345	1412.2968	65535	64639.15
883.2782	1414.139	65535	64636.55
883.4219	1415.9805	65535	64639.6
883.5656	1417.8213	65535	64634.3
883.7092	1419.6613	65535	64637.65
883.8529	1421.5006	65535	64637.45
883.9965	1423.3391	65535	64635.95
884.1402	1425.1769	65535	64637.25
884.2838	1427.0139	65535	64638
884.4274	1428.8502	65535	64635.35
884.571	1430.6858	65535	64637.3
884.7146	1432.5206	65535	64637.6
884.8582	1434.3547	65535	64637.05
885.0018	1436.188	65535	64637
885.1453	1438.0206	65535	64636.5
885.2889	1439.8524	65535	64637.6
885.4324	1441.6835	65535	64638.65
885.5759	1443.5139	65535	64634.55
885.7194	1445.3435	65535	64636.2
885.8629	1447.1724	65535	64636
886.0064	1449.0005	65535	64636.85
886.1499	1450.8279	65535	64637.95
886.2933	1452.6545	65535	64637.4
886.4368	1454.4804	65535	64638.4
886.5802	1456.3056	65535	64629
886.7237	1458.13	65535	64636.75
886.8671	1459.9536	65535	64637.6
887.0105	1461.7766	65535	64637.55
887.1539	1463.5987	65535	64637.1
887.2972	1465.4202	65535	64639.05
887.4406	1467.2409	65535	64637.65
887.584	1469.0608	65535	64638.45
887.7273	1470.88	65535	64636.6
887.8706	1472.6984	65535	64640.4
888.0139	1474.5161	65535	64636.4
888.1572	1476.3331	65535	64637.7
888.3005	1478.1493	65535	64637.2
888.4438	1479.9648	65535	64638.3
888.5871	1481.7795	65535	64636.45
888.7303	1483.5935	65535	64639.5
888.8736	1485.4067	65535	64637.55
889.0168	1487.2192	65535	64638.9
889.16	1489.031	65535	64635.85
889.3032	1490.842	65535	64636.2
889.4464	1492.6522	65535	64640.3
889.5896	1494.4618	65535	64636.7
889.7327	1496.2705	65535	64640.55
889.8759	1498.0785	65535	64640.4
890.019	1499.8858	65535	64635.85
890.1622	1501.6924	65535	64639.15
890.3053	1503.4981	65535	64639.45
890.4484	1505.3032	65535	64637.3
890.5914	1507.1075	65535	64638
890.7345	1508.911	65535	64639.2
890.8776	1510.7138	65535	64635.05
891.0206	1512.5159	65535	64638.75
891.1637	1514.3172	65535	64639.6
891.3067	1516.1178	65535	64639.6
891.4497	1517.9176	65535	64635.55
891.5927	1519.7166	65535	64638.95
891.7357	1521.515	65535	64631.1
891.8786	1523.3126	65526.85	64629.65
892.0216	1525.1094	65535	64636.65
892.1645	1526.9055	65532.35	64636.3
892.3074	1528.7008	65531.85	64636
892.4503	1530.4954	65497.75	64593.75
892.5932	1532.2893	65531.35	64635.55
892.7361	1534.0824	65483	64583.2
892.879	1535.8747	65407.15	64510.85
893.0218	1537.6663	65535	64639.35
893.1647	1539.4572	65112.95	64215.1
893.3075	1541.2473	65392	64494.7
893.4503	1543.0367	65352.95	64459.3
893.5931	1544.8253	65260.15	64359.75
893.7359	1546.6132	65352.9	64452.9
893.8787	1548.4003	65131.55	64224.25
894.0214	1550.1867	64997.4	64092
894.1642	1551.9723	64866.05	63965
894.3069	1553.7572	64943.5	64046.35
894.4496	1555.5414	65172.6	64276.9
894.5923	1557.3247	63540.1	62645.85
894.735	1559.1074	64975.05	64080.1
894.8777	1560.8893	64412.65	63516.7
895.0204	1562.6705	64627.95	63733.3
895.163	1564.4509	63554.45	62659.85
895.3056	1566.2305	64072.45	63177.35
895.4482	1568.0094	64664.6	63768.5
895.5908	1569.7876	64188.5	63293.15
895.7334	1571.565	63437.6	62541.95
895.876	1573.3417	63866.25	62972.05
896.0186	1575.1176	63678.15	62782.95
896.1611	1576.8928	63308.75	62413.45
896.3036	1578.6672	62621.4	61726.95
896.4461	1580.4409	63032.85	62140.7
896.5886	1582.2138	62083.1	61187.15
896.7311	1583.986	62300.8	61404.75
896.8736	1585.7575	61526.3	60631.15
897.0161	1587.5282	61660.95	60768.7
897.1585	1589.2981	61743.05	60847.35
897.3009	1591.0673	60989.6	60096.8
897.4433	1592.8358	60577.05	59683.1
897.5857	1594.6035	61036.1	60139.35
897.7281	1596.3704	61062	60166.9
897.8705	1598.1366	60123.55	59229.85
898.0128	1599.9021	59617.65	58722.55
898.1551	1601.6668	60271	59377.05
898.2975	1603.4308	59886.05	58989.75
898.4398	1605.194	60159.05	59259.75
898.5821	1606.9564	58995.35	58101.6
898.7243	1608.7182	59570.6	58673.25
898.8666	1610.4791	58961.15	58069.25
899.0088	1612.2394	59448.55	58555.2
899.1511	1613.9988	58973.15	58078.85
899.2933	1615.7576	59660.25	58765.4
899.4355	1617.5156	59536.85	58635.8
899.5776	1619.2728	60275.2	59382.6
899.7198	1621.0293	59193	58299.9
899.862	1622.785	59175.35	58278.5
900.0041	1624.54	59550.95	58654.9
900.1462	1626.2942	58946.4	58051.25
900.2883	1628.0477	57918.4	57021.75
900.4304	1629.8005	57395.8	56497.05
900.5725	1631.5525	57832.3	56938.95
900.7145	1633.3037	56832	55938.25
900.8566	1635.0542	56748.9	55856.65
900.9986	1636.804	56786.8	55895.15
901.1406	1638.553	56216.4	55206.8
901.2826	1640.3013	56188.4	55293.85
901.4245	1642.0488	55627.95	54733.25
901.5665	1643.7955	55863.4	54969.55
901.7085	1645.5416	55456.8	54561.85
901.8504	1647.2868	55186.65	54293.55
901.9923	1649.0313	55584.8	54691.95
902.1342	1650.7751	55345.9	54447.7
902.2761	1652.5181	55063.7	54171.8
902.4179	1654.2604	55200	54308
902.5598	1656.0019	55592.2	54701
902.7016	1657.7427	55483.35	54589.25
902.8434	1659.4828	55971.6	55079
902.9852	1661.222	55777.15	54882.9
903.127	1662.9606	55893.05	55000.65
903.2687	1664.6984	55430.85	54536.35
903.4105	1666.4354	55256.7	54362.6
903.5522	1668.1717	54364.2	53470.95
903.6939	1669.9072	53691.4	52796.35
903.8356	1671.642	53319.8	52423.15
903.9773	1673.3761	53011.75	52118.15
904.119	1675.1094	52630.5	51737.35
904.2606	1676.8419	52220.05	51327.7
904.4022	1678.5737	51874	50982.05
904.5439	1680.3048	51620.3	50727.25
904.6855	1682.0351	51331.75	50440.2
904.827	1683.7646	50960	50065.6
904.9686	1685.4934	50865.85	49972.8
905.1101	1687.2215	50414.1	49519.6
905.2517	1688.9488	50437.1	49544.65
905.3932	1690.6754	49840	48948.1
905.5347	1692.4012	49962.7	49071.65
905.6761	1694.1263	49718.4	48826.3
905.8176	1695.8506	49534.3	48640.65
905.9591	1697.5742	49334.05	48441.9
906.1005	1699.297	49126	48232.6
906.2419	1701.0191	48817.65	47927.05
906.3833	1702.7404	48622.85	47729.8
906.5246	1704.461	48369.75	47475.35
906.666	1706.1808	48214.9	47320.8
906.8073	1707.8999	48102.1	47209.4
906.9487	1709.6182	47895.35	47001.55
907.09	1711.3358	47757.9	46866.65
907.2313	1713.0527	47572.9	46680.3
907.3725	1714.7688	47442.8	46544.05
907.5138	1716.4841	47175.8	46280.55
907.655	1718.1987	47150.6	46251.25
907.7962	1719.9126	46880.9	45990.35
907.9374	1721.6257	46680.55	45785.25
908.0786	1723.338	46667.3	45773.8
908.2198	1725.0496	46289.85	45396.15
908.3609	1726.7605	46198.75	45305.7
908.502	1728.4706	45994.1	45100.75
908.6431	1730.18	45717.35	44823.8
908.7842	1731.8886	45635.35	44742.45
908.9253	1733.5964	45510.6	44595.55
909.0664	1735.3036	45379.75	44485.7
909.2074	1737.0099	45293.1	44401.1
909.3484	1738.7156	45135.6	44245.2
909.4894	1740.4204	44863.95	43970.05
909.6304	1742.1246	44755.75	43861.65
909.7714	1743.8279	44647.65	43757.95
909.9123	1745.5306	44602.35	43711.8
910.0532	1747.2325	44356.6	43465.5
910.1941	1748.9336	44207.9	43315.6
910.335	1750.634	44024.8	43130.75
910.4759	1752.3336	43945.95	43054.45
910.6168	1754.0325	43870.2	42979.75
910.7576	1755.7307	43735.5	42842.65
910.8984	1757.4281	43672.05	42778.55
911.0392	1759.1247	43537.05	42636.75
911.18	1760.8206	43436.3	42539.85
911.3208	1762.5158	43327.85	42431.7
911.4615	1764.2102	43111.05	42220.8
911.6022	1765.9039	42959.2	42067.7
911.7429	1767.5968	42854.1	41963.3
911.8836	1769.289	42743.65	41852.3
912.0243	1770.9804	42570.35	41677.2
912.1649	1772.6711	42528.2	41635.2
912.3056	1774.361	42426.45	41534.15
912.4462	1776.0502	42308.4	41416.6
912.5868	1777.7386	42169.3	41273.7
912.7274	1779.4263	41942.25	41051.2
912.8679	1781.1132	41956.2	41065.65
913.0084	1782.7994	41755.75	40861.9
913.149	1784.4849	41661.95	40771.45
913.2895	1786.1696	41483.95	40584.55
913.4299	1787.8535	41401.9	40511.45
913.5704	1789.5367	41254.85	40362.35
913.7108	1791.2192	41256.2	40364.4
913.8513	1792.9009	41049.5	40126.95
913.9917	1794.5818	40902.05	40008.95
914.132	1796.2621	40796.5	39905.5
914.2724	1797.9415	40655.45	39763
914.4128	1799.6202	40556.35	39666.05
914.5531	1801.2982	40445.2	39554.2
914.6934	1802.9755	40335.7	39441.9
914.8337	1804.6519	40297.6	39403.1
914.9739	1806.3277	40009.7	39119.05
915.1142	1808.0027	39825.4	38934.85
915.2544	1809.6769	39857.6	38965.1
915.3946	1811.3504	39700.65	38808.3
915.5348	1813.0231	39617.4	38725.35
915.675	1814.6951	39534.3	38643.65
915.8151	1816.3664	39487.15	38591.6
915.9553	1818.0369	39315.2	38423.3
916.0954	1819.7067	39216.85	38325.45
916.2355	1821.3757	39133.65	38241
916.3755	1823.044	38998.05	38106.75
916.5156	1824.7115	38893	37999.6
916.6556	1826.3783	38713.35	37822.2
916.7956	1828.0443	38603.6	37713.35
916.9356	1829.7096	38496	37602.5
917.0756	1831.3741	38497.3	37602.75
917.2155	1833.0379	38309.3	37418.25
917.3555	1834.701	38213.7	37320.15
917.4954	1836.3633	38143.6	37253.05
917.6353	1838.0248	38017.05	37125
917.7751	1839.6856	37850.1	36956.75
917.915	1841.3457	37823.7	36933.5
918.0548	1843.005	37712.05	36821.05
918.1946	1844.6636	37657.45	36767.2
918.3344	1846.3214	37551.85	36660.15
918.4742	1847.9785	37473.95	36583.85
918.6139	1849.6349	37351.85	36459.85
918.7537	1851.2904	37255.95	36355.55
918.8934	1852.9453	37122.35	36230.15
919.0331	1854.5994	37003.6	36109.85
919.1727	1856.2528	37025.65	36129.4
919.3124	1857.9054	36855.05	35963.25
919.452	1859.5572	36828.45	35937.45
919.5916	1861.2083	36668.55	35776.55
919.7312	1862.8587	36592	35700.2
919.8708	1864.5084	36535.9	35644.9
920.0103	1866.1572	36364.7	35471.4
920.1498	1867.8054	36228.95	35337.85
920.2893	1869.4528	36174.85	35281.65
920.4288	1871.0994	36069.5	35177.3
920.5683	1872.7453	35958.9	35065.9
920.7077	1874.3905	35875.9	34979.6
920.8471	1876.0349	35770.95	34877.25
920.9865	1877.6786	35693.2	34800.8
921.1259	1879.3215	35685.15	34794.9
921.2653	1880.9637	35573	34678.75
921.4046	1882.6051	35538.1	34647.45
921.5439	1884.2458	35335.2	34440.65
921.6832	1885.8858	35222.8	34332.15
921.8225	1887.525	35142.9	34250.3
921.9617	1889.1634	34957.35	34066.8
922.101	1890.8011	34845.5	33954.45
922.2402	1892.4381	34747.35	33856.9
922.3794	1894.0743	34715.75	33825.85
922.5185	1895.7098	34629.4	33738.4
922.6577	1897.3446	34506.05	33613.35
922.7968	1898.9786	34433.05	33535.7
922.9359	1900.6118	34349.15	33457.9
923.075	1902.2443	34132.75	33239.4
923.214	1903.8761	34066.55	33174.15
923.3531	1905.5071	33846.55	32955.15
923.4921	1907.1374	33757.55	32865.4
923.6311	1908.7669	33709.05	32818.95
923.77	1910.3957	33637.15	32745.8
923.909	1912.0237	33394.4	32503
924.0479	1913.651	33360.15	32467.1
924.1868	1915.2776	33201.8	32312.25
924.3257	1916.9034	33129.95	32238.1
924.4646	1918.5285	32914.4	32023.9
924.6034	1920.1528	32739.5	31848.8
924.7422	1921.7764	32696.35	31806.85
924.881	1923.3992	32612.4	31722.25
925.0198	1925.0213	32387.8	31497.3
925.1586	1926.6427	32261.45	31371.45
925.2973	1928.2633	32325.35	31324.35
925.436	1929.8832	32097.2	31204.8
925.5747	1931.5023	31912.05	31020.75
925.7134	1933.1207	31857.9	30964.75
925.852	1934.7383	31823.55	30932.55
925.9906	1936.3552	31628.25	30737.4
926.1292	1937.9714	31530.4	30638.55
926.2678	1939.5868	31420.95	30529.65
926.4064	1941.2015	31234.8	30342.4
926.5449	1942.8154	31121.6	30228.55
926.6834	1944.4286	30958.4	30065.7
926.8219	1946.041	30825.45	29914.8
926.9604	1947.6528	30664.15	29766.7
927.0988	1949.2637	30604.8	29713
927.2372	1950.8739	30507.85	29616.3
927.3756	1952.4834	30385.4	29494.35
927.514	1954.0921	30352.15	29461.5
927.6523	1955.7001	30202.1	29304.8
927.7907	1957.3074	30117.4	29226.55
927.929	1958.9139	29952.75	29062.1
928.0673	1960.5197	29856.65	28965
928.2055	1962.1247	29702.1	28811.05
928.3438	1963.729	29558.2	28666.8
928.482	1965.3325	29461.15	28548.3
928.6202	1966.9353	29312.9	28422
928.7584	1968.5374	29282.25	28390.55
928.8965	1970.1387	29170.4	28279.55
929.0346	1971.7393	29028	28136.45
929.1727	1973.3392	28946	28053.95
929.3108	1974.9383	28818.4	27927.5
929.4489	1976.5366	28655.55	27763.65
929.5869	1978.1342	28614.4	27721.25
929.7249	1979.7311	28583.35	27692.05
929.8629	1981.3273	28504.65	27614.55
930.0009	1982.9227	28369.2	27476.3
930.1388	1984.5173	28212.65	27324.15
930.2767	1986.1112	28088.65	27197.9
930.4146	1987.7044	28063.95	27172.55
930.5525	1989.2968	27943.5	27051.35
930.6904	1990.8885	27849.1	26956.85
930.8282	1992.4795	27781	26890.5
930.966	1994.0697	27654.3	26763.8
931.1038	1995.6592	27565.2	26673
931.2415	1997.2479	27481.7	26589.9
931.3793	1998.8359	27419.45	26530.4
931.517	2000.4232	27256.2	26365.3
931.6547	2002.0097	27236.55	26347.55
931.7923	2003.5955	27055.9	26166.15
931.93	2005.1805	27036.95	26144.8
932.0676	2006.7648	26894.6	26003.5
932.2052	2008.3484	26813.3	25923.95
932.3427	2009.9312	26838.7	25947.35
932.4803	2011.5133	26655.85	25765.8
932.6178	2013.0946	26581.15	25691.95
932.7553	2014.6752	26525.65	25636.6
932.8928	2016.2551	26446.8	25557.3
933.0302	2017.8342	26286.75	25395.6
933.1676	2019.4126	26216.25	25326.3
933.305	2020.9902	26097.9	25207.95
933.4424	2022.5672	26070.5	25177.8
933.5798	2024.1433	25973.6	25075.9
933.7171	2025.7188	25904.85	25016.55
933.8544	2027.2935	25802.2	24910.65
933.9917	2028.8674	25668	24779
934.129	2030.4406	25608.8	24719.85
934.2662	2032.0131	25465.35	24575.8
934.4034	2033.5849	25381.65	24484
934.5406	2035.1559	25341.95	24449.15
934.6778	2036.7261	25314.7	24423.8
934.8149	2038.2957	25195.2	24304.85
934.952	2039.8645	25145.65	24256.9
935.0891	2041.4325	25136.05	24242.55
935.2262	2042.9998	25049.45	24157.35
935.3632	2044.5664	24972.65	24080.05
935.5002	2046.1323	24817.95	23925.4
935.6372	2047.6974	24767.9	23876.15
935.7742	2049.2617	24698.65	23807.7
935.9111	2050.8254	24673.8	23760.55
936.048	2052.3883	24596.05	23699
936.1849	2053.9504	24523.8	23627.45
936.3218	2055.5118	24402.9	23505.25
936.4586	2057.0725	24272.15	23369.1
936.5955	2058.6325	24237.4	23335.15
936.7323	2060.1917	24148.5	23245.7
936.869	2061.7502	24107.9	23201.55
937.0058	2063.3079	23992.85	23085.9
937.1425	2064.8649	23903.05	22998.7
937.2792	2066.4212	23834.75	22931.95
937.4159	2067.9767	23763.5	22864.2
937.5525	2069.5315	23674.5	22779.15
937.6891	2071.0856	23572.15	22677.1
937.8257	2072.6389	23454.85	22559.2
937.9623	2074.1915	23311.8	22421.15
938.0989	2075.7433	23211.55	22318.05
938.2354	2077.2945	23183.95	22293.85
938.3719	2078.8448	23090.95	22198.85
938.5084	2080.3945	23014	22122.15
938.6448	2081.9434	22959.7	22069.65
938.7812	2083.4916	22912.65	22021.7
938.9176	2085.039	22806.5	21914.35
939.054	2086.5857	22733.4	21841
939.1903	2088.1317	22706.55	21815.1
939.3267	2089.677	22615.75	21723.65
939.463	2091.2215	22571.6	21682.3
939.5992	2092.7652	22488.25	21595.65
939.7355	2094.3083	22399.15	21507.3
939.8717	2095.8506	22375.35	21485.05
940.0079	2097.3921	22349.45	21459.25
940.1441	2098.933	22256.75	21366.25
940.2802	2100.4731	22170.25	21279.25
940.4163	2102.0124	22163.85	21267.35
940.5524	2103.5511	22057	21166.05
940.6885	2105.089	22018.8	21128.9
940.8245	2106.6261	21933.3	21042.95
940.9606	2108.1626	21889.75	20994.8
941.0965	2109.6983	21845.75	20926.55
941.2325	2111.2332	21754.7	20862.25
941.3684	2112.7675	21720.65	20829.4
941.5044	2114.301	21638.5	20744.9
941.6403	2115.8337	21594.55	20704.3
941.7761	2117.3657	21481.7	20590.4
941.912	2118.897	21442.65	20550.9
942.0478	2120.4276	21338.45	20441.55
942.1835	2121.9575	21261.4	20369.95
942.3193	2123.4866	21293.2	20388.9
942.455	2125.0149	21232.9	20339.3
942.5907	2126.5426	21036.4	20147
942.7264	2128.0695	21011.35	20116.1
942.8621	2129.5956	21007.25	20118.3
942.9977	2131.1211	20919.4	20026.6
943.1333	2132.6458	20856.5	19964.35
943.2689	2134.1698	20798.4	19905
943.4044	2135.693	20736.25	19843.3
943.54	2137.2155	20657.25	19766.5
943.6755	2138.7373	20639.45	19749.6
943.8109	2140.2584	20521.05	19631.5
943.9464	2141.7787	20440.55	19544.65
944.0818	2143.2983	20350.9	19462.15
944.2172	2144.8171	20284.65	19393.9
944.3526	2146.3353	20206.4	19313.6
944.4879	2147.8527	20139.45	19249.35
944.6232	2149.3693	20121.2	19229.65
944.7585	2150.8853	19983.15	19091.45
944.8938	2152.4005	19922.05	19032.3
945.029	2153.9149	19908.95	19015.45
945.1642	2155.4287	19804.1	18912.2
945.2994	2156.9417	19758.15	18866.6
945.4346	2158.454	19720.95	18829.2
945.5697	2159.9655	19667.6	18776.6
945.7048	2161.4764	19630.9	18739.7
945.8399	2162.9865	19558.65	18665.75
945.9749	2164.4958	19508.15	18616
946.1099	2166.0045	19399.55	18504.8
946.2449	2167.5124	19424.25	18533.65
946.3799	2169.0195	19335.75	18445.55
946.5148	2170.526	19309.25	18419.05
946.6498	2172.0317	19241.9	18350.85
946.7846	2173.5367	19146.15	18254.2
946.9195	2175.0409	19115.55	18224.8
947.0543	2176.5445	19090.55	18199.55
947.1891	2178.0473	18986.1	18094.25
947.3239	2179.5494	18902.7	18009.05
947.4587	2181.0507	18792.95	17901.25
947.5934	2182.5513	18771.2	17878.95
947.7281	2184.0512	18719.75	17828.25
947.8628	2185.5504	18656.85	17765
947.9974	2187.0488	18551.7	17660.65
948.132	2188.5465	18488.75	17599.15
948.2666	2190.0435	18433.8	17542.2
948.4012	2191.5397	18353.45	17462.2
948.5357	2193.0353	18304.75	17413.25
948.6702	2194.5301	18240.25	17347
948.8047	2196.0241	18191.25	17300.05
948.9392	2197.5175	18086.55	17193.4
949.0736	2199.0101	18041.15	17145.45
949.208	2200.502	17932.3	17041.4
949.3424	2201.9931	17865.35	16975.65
949.4767	2203.4835	17802.3	16910.2
949.611	2204.9733	17716.4	16818.25
949.7453	2206.4622	17663.6	16772.2
949.8796	2207.9505	17587.2	16692.6
950.0138	2209.438	17513.2	16621.3
950.148	2210.9248	17490.9	16599.75
950.2822	2212.4109	17420.2	16528.9
950.4164	2213.8962	17364.45	16470.95
950.5505	2215.3809	17303.55	16411.2
950.6846	2216.8648	17295.9	16403.5
950.8186	2218.3479	17220.45	16325.55
950.9527	2219.8304	17164.55	16271.2
951.0867	2221.3121	17074.9	16182.65
951.2207	2222.7931	16990.55	16098.9
951.3546	2224.2733	16979.2	16087.45
951.4886	2225.7529	16906.65	16015.55
951.6225	2227.2317	16846.15	15950.85
951.7563	2228.7098	16822.5	15932.9
951.8902	2230.1872	16719.4	15828
952.024	2231.6638	16689.3	15798.45
952.1578	2233.1397	16617.4	15720.8
952.2916	2234.6149	16574.8	15683.15
952.4253	2236.0894	16486.7	15597.3
952.559	2237.5632	16469.6	15569.5
952.6927	2239.0362	16400.65	15509.9
952.8263	2240.5085	16313.15	15421
952.9599	2241.9801	16252.2	15360.25
953.0935	2243.4509	16236.35	15345.4
953.2271	2244.921	16177.3	15287.45
953.3606	2246.3904	16069.85	15177.55
953.4941	2247.8591	16047.95	15156.85
953.6276	2249.3271	15967.15	15077.15
953.7611	2250.7943	15937.75	15044.35
953.8945	2252.2608	15856.5	14965.55
954.0279	2253.7266	15794.15	14903.1
954.1612	2255.1917	15759.2	14869.65
954.2946	2256.656	15693.15	14800.7
954.4279	2258.1197	15626.8	14735.85
954.5612	2259.5826	15604.35	14708.55
954.6944	2261.0447	15597.9	14706.45
954.8276	2262.5062	15503.6	14610.1
954.9608	2263.9669	15463.8	14570.55
955.094	2265.4269	15440.45	14550.9
955.2271	2266.8862	15399.7	14508.8
955.3602	2268.3448	15351	14460.6
955.4933	2269.8026	15298.75	14408.5
955.6264	2271.2598	15233.4	14340.4
955.7594	2272.7162	15175.45	14283.65
955.8924	2274.1719	15154.9	14265.95
956.0253	2275.6268	15108.35	14217.4
956.1583	2277.0811	15080.45	14188.6
956.2912	2278.5346	14999.85	14110.4
956.4241	2279.9874	14969.45	14078.2
956.5569	2281.4395	14935.45	14044.1
956.6897	2282.8908	14854.6	13958.45
956.8225	2284.3414	14833.6	13941.3
956.9553	2285.7914	14803.55	13913.2
957.088	2287.2406	14745.1	13850.6
957.2207	2288.689	14682.85	13791.25
957.3534	2290.1368	14633.5	13739.2
957.486	2291.5838	14558.7	13663.2
957.6186	2293.0302	14542.85	13650.1
957.7512	2294.4758	14455.7	13564.75
957.8838	2295.9206	14459.45	13567.4
958.0163	2297.3648	14385.8	13494.5
958.1488	2298.8082	14381.25	13489.5
958.2813	2300.251	14325.35	13432.45
958.4137	2301.693	14283.2	13389.15
958.5461	2303.1343	14265.95	13372.6
958.6785	2304.5748	14193.05	13301
958.8108	2306.0147	14123.4	13230.9
958.9432	2307.4538	14088.75	13195.95
959.0754	2308.8922	14028.45	13139.75
959.2077	2310.3299	13963	13072.5
959.3399	2311.7669	13954.7	13063.05
959.4721	2313.2031	13891.7	13000.2
959.6043	2314.6387	13833.9	12941.55
959.7365	2316.0735	13779.1	12886.85
959.8686	2317.5076	13770.35	12879.6
960.0006	2318.941	13695.6	12803.5
960.1327	2320.3737	13680.45	12789.1
960.2647	2321.8056	13633	12739.55
960.3967	2323.2369	13588.3	12696.4
960.5287	2324.6674	13535.35	12642.7
960.6606	2326.0972	13500.2	12609.4
960.7925	2327.5263	13421	12530.5
960.9244	2328.9547	13399.9	12509
961.0562	2330.3823	13357.3	12463.9
961.1881	2331.8092	13344.2	12450.6
961.3198	2333.2355	13284.9	12391.7
961.4516	2334.661	13239.55	12347.15
961.5833	2336.0858	13222.55	12327.8
961.715	2337.5098	13158.45	12268.15
961.8467	2338.9332	13142.85	12251.05
961.9783	2340.3558	13055.65	12163.35
962.1099	2341.7778	13054.65	12165.15
962.2415	2343.199	13014.1	12119.5
962.373	2344.6195	12953.6	12060.55
962.5045	2346.0393	12923.45	12029.35
962.636	2347.4583	12867.8	11976.05
962.7675	2348.8767	12838.75	11945.55
962.8989	2350.2943	12798.2	11906.7
963.0303	2351.7113	12782.75	11890.9
963.1617	2353.1275	12738.5	11845.75
963.293	2354.543	12707.4	11791.4
963.4243	2355.9578	12629.6	11737.4
963.5556	2357.3718	12543.95	11652.9
963.6868	2358.7852	12535.2	11642.5
963.818	2360.1978	12455.1	11562.35
963.9492	2361.6098	12438.5	11548.45
964.0803	2363.021	12401.45	11509.65
964.2114	2364.4315	12342.75	11452.75
964.3425	2365.8413	12303.55	11410.95
964.4736	2367.2504	12245.85	11354.8
964.6046	2368.6587	12206.05	11315
964.7356	2370.0664	12128.2	11236.95
964.8666	2371.4733	12118.8	11229.85
964.9975	2372.8795	12037.15	11146.8
965.1284	2374.285	12002.45	11109.85
965.2593	2375.6899	11978.75	11089.75
965.3901	2377.0939	11930.75	11041.2
965.5209	2378.4973	11875.1	10986.4
965.6517	2379.9	11808.35	10917.6
965.7825	2381.3019	11793.4	10902.7
965.9132	2382.7032	11719.45	10829.9
966.0439	2384.1037	11680.1	10789.9
966.1745	2385.5035	11629	10738.2
966.3051	2386.9027	11611.55	10721.05
966.4357	2388.3011	11593.1	10699.8
966.5663	2389.6987	11544.7	10653.45
966.6968	2391.0957	11489.1	10597.7
966.8273	2392.492	11444.7	10553.55
966.9578	2393.8876	11377.2	10486.2
967.0882	2395.2824	11311.3	10421.85
967.2186	2396.6765	11282.1	10392.7
967.349	2398.07	11231.95	10342.05
967.4793	2399.4627	11210.3	10319.5
967.6097	2400.8547	11170.35	10278.6
967.7399	2402.246	11148.5	10249.55
967.8702	2403.6366	11070.4	10179.2
968.0004	2405.0265	11011.35	10122.6
968.1306	2406.4156	10997.2	10103.15
968.2607	2407.8041	10946.95	10052.8
968.3909	2409.1918	10905.25	10012.55
968.521	2410.5789	10842.85	9951.7
968.651	2411.9652	10827.5	9934.6
968.781	2413.3508	10789.4	9900.1
968.911	2414.7358	10753.2	9861.15
969.041	2416.12	10707.9	9816.95
969.1709	2417.5035	10650.85	9759.5
969.3008	2418.8863	10631.95	9738.55
969.4307	2420.2684	10586	9695
969.5606	2421.6497	10523.75	9631.55
969.6904	2423.0304	10464.45	9574.9
969.8201	2424.4104	10468.9	9579.4
969.9499	2425.7896	10417.45	9526.2
970.0796	2427.1682	10402.7	9512.2
970.2093	2428.546	10370.65	9479.3
970.3389	2429.9232	10329.2	9438.15
970.4685	2431.2996	10312.95	9422.3
970.5981	2432.6753	10304.5	9414.1
970.7277	2434.0503	10223.15	9331.4
970.8572	2435.4246	10179.25	9289.8
970.9867	2436.7982	10156.75	9263.05
971.1161	2438.1711	10144.8	9255.95
971.2456	2439.5433	10114.05	9222.9
971.375	2440.9148	10057.45	9163.4
971.5043	2442.2856	10015.05	9122.25
971.6336	2443.6557	9996	9104.45
971.7629	2445.025	9968.45	9077.45
971.8922	2446.3937	9939.7	9049.95
972.0214	2447.7617	9871.95	8981.6
972.1506	2449.1289	9872.3	8980.45
972.2798	2450.4955	9828.9	8934.4
972.4089	2451.8613	9792.6	8901.95
972.538	2453.2265	9784.9	8894.3
972.6671	2454.5909	9733.9	8841.45
972.7961	2455.9546	9713.7	8822
972.9251	2457.3177	9670.9	8780.65
973.0541	2458.68	9655.55	8763.2
973.1831	2460.0416	9639.95	8748.3
973.312	2461.4025	9618.65	8725.95
973.4408	2462.7627	9597.8	8695.25
973.5697	2464.1222	9554.75	8664.95
973.6985	2465.4811	9505.1	8613.05
973.8273	2466.8392	9484.95	8592.35
973.956	2468.1966	9476.4	8583.15
974.0847	2469.5533	9476.35	8583.2
974.2134	2470.9093	9420.2	8529.65
974.3421	2472.2645	9380.3	8488.65
974.4707	2473.6191	9386.45	8496.6
974.5993	2474.973	9306.4	8415.8
974.7278	2476.3262	9265.55	8371.55
974.8563	2477.6787	9252.25	8362.2
974.9848	2479.0305	9214.35	8323.5
975.1132	2480.3816	9176.75	8282.5
975.2417	2481.7319	9143.8	8251.75
975.37	2483.0816	9104.95	8211.9
975.4984	2484.4306	9072.2	8182.2
975.6267	2485.7789	9034.75	8144.8
975.755	2487.1264	8982.75	8091.3
975.8833	2488.4733	8959.05	8068.95
976.0115	2489.8195	8913.15	8013.45
976.1397	2491.165	8892.1	7999.3
976.2678	2492.5097	8893.95	8000
976.3959	2493.8538	8829.65	7939.05
976.524	2495.1972	8790.9	7901.4
976.6521	2496.5398	8755.25	7862.7
976.7801	2497.8818	8743.2	7850.95
976.9081	2499.2231	8696.15	7805.6
977.036	2500.5637	8652.5	7758.9
977.164	2501.9035	8630.2	7737.95
977.2918	2503.2427	8607.2	7711.5
977.4197	2504.5812	8566.1	7673.3
977.5475	2505.919	8539.15	7646.9
977.6753	2507.256	8539.05	7650
977.8031	2508.5924	8487.35	7597.4
977.9308	2509.9281	8461.85	7565.65
978.0585	2511.2631	8449.35	7558.8
978.1861	2512.5974	8406.9	7517.65
978.3137	2513.9309	8398.5	7505.4
978.4413	2515.2638	8371.65	7446.8
978.5689	2516.596	8338	7448.6
978.6964	2517.9275	8295	7404
978.8239	2519.2583	8252.45	7360.7
978.9513	2520.5884	8220.65	7327.55
979.0788	2521.9178	8173.85	7281.1
979.2062	2523.2465	8162.7	7272.85
979.3335	2524.5745	8125.75	7234.25
979.4608	2525.9018	8115.15	7222.95
979.5881	2527.2284	8092.15	7203.05
979.7154	2528.5543	8060.1	7170.85
979.8426	2529.8796	8031.2	7139.8
979.9698	2531.2041	8025.35	7132.95
980.0969	2532.5279	8020.7	7130.7
980.224	2533.851	7996.75	7104.65
980.3511	2535.1735	7971	7080.5
980.4781	2536.4952	7927.3	7036.45
980.6052	2537.8163	7900.7	7009.7
980.7321	2539.1366	7852.55	6962.3
980.8591	2540.4562	7861.65	6970
980.986	2541.7752	7846.6	6956.2
981.1129	2543.0935	7836.9	6947.85
981.2397	2544.411	7826.45	6933
981.3665	2545.7279	7789.9	6899.45
981.4933	2547.0441	7790.5	6898.65
981.62	2548.3596	7771.25	6877.3
981.7467	2549.6744	7738.65	6848.6
981.8734	2550.9885	7702.45	6809.75
982.0001	2552.3019	7678.05	6788.95
982.1267	2553.6146	7676.9	6784.55
982.2532	2554.9266	7641.05	6749.2
982.3798	2556.2379	7609.25	6716.15
982.5063	2557.5485	7608.75	6720.7
982.6327	2558.8585	7569.3	6671.8
982.7592	2560.1677	7569.85	6674.35
982.8856	2561.4762	7549.65	6656.35
983.0119	2562.7841	7549.5	6655.3
983.1383	2564.0913	7510.7	6620.1
983.2646	2565.3977	7484.8	6595.4
983.3908	2566.7035	7481.3	6592.1
983.517	2568.0086	7465.4	6573
983.6432	2569.313	7444.4	6553.8
983.7694	2570.6167	7409	6513.3
983.8955	2571.9197	7403.15	6512.2
984.0216	2573.222	7398.1	6504.9
984.1476	2574.5236	7369.3	6475.45
984.2737	2575.8246	7356.15	6463.9
984.3996	2577.1248	7311.95	6418
984.5256	2578.4244	7332	6441.7
984.6515	2579.7232	7311.4	6419.7
984.7774	2581.0214	7333.95	6419
984.9032	2582.3189	7295.85	6404
985.029	2583.6157	7264.1	6368.95
985.1548	2584.9118	7255.4	6362.6
985.2806	2586.2072	7222.45	6334.1
985.4063	2587.5019	7214.5	6323.65
985.5319	2588.7959	7168.2	6277.65
985.6576	2590.0893	7166.2	6273.65
985.7832	2591.3819	7183.8	6295.9
985.9087	2592.6739	7150.65	6258.9
986.0343	2593.9652	7092.25	6199.6
986.1597	2595.2557	7070.35	6177.5
986.2852	2596.5456	7034.8	6141.75
986.4106	2597.8348	7040.35	6148.4
986.536	2599.1234	7025.1	6137.05
986.6614	2600.4112	6990.9	6100.95
986.7867	2601.6983	6979.4	6084.15
986.912	2602.9848	6951.55	6061.3
987.0372	2604.2705	6931.45	6034.8
987.1624	2605.5556	6911.15	6018.05
987.2876	2606.84	6861.95	5970.05
987.4128	2608.1237	6836	5942.15
987.5379	2609.4067	6809.55	5919.1
987.6629	2610.689	6803.15	5903.15
987.788	2611.9707	6758	5862.4
987.913	2613.2516	6741.9	5848.55
988.0379	2614.5319	6717.95	5829.65
988.1629	2615.8115	6672	5780.3
988.2878	2617.0903	6665.25	5771.55
988.4126	2618.3685	6644.25	5753.1
988.5375	2619.6461	6604	5712.15
988.6622	2620.9229	6608.3	5717
988.787	2622.199	6573.3	5680.55
988.9117	2623.4745	6570.15	5677.85
989.0364	2624.7493	6544.6	5652.75
989.161	2626.0234	6517.85	5628.7
989.2857	2627.2968	6500.2	5608.7
989.4102	2628.5695	6478.7	5587.9
989.5348	2629.8415	6442.8	5551.5
989.6593	2631.1128	6426.45	5532.75
989.7837	2632.3835	6398.35	5507.2
989.9082	2633.6535	6371.95	5482.35
990.0326	2634.9228	6358.9	5468.05
990.1569	2636.1914	6329	5438.45
990.2812	2637.4593	6310.45	5413.4
990.4055	2638.7265	6301.05	5408.35
990.5298	2639.9931	6282.9	5390.7
990.654	2641.259	6255.85	5365
990.7782	2642.5242	6224.05	5333.05
990.9023	2643.7887	6222.8	5331.95
991.0264	2645.0525	6198.8	5306.8
991.1505	2646.3156	6178.35	5285.75
991.2745	2647.5781	6143.45	5251.2
991.3985	2648.8398	6143.75	5253.4
991.5225	2650.1009	6121.9	5224.35
991.6464	2651.3613	6097.8	5205.5
991.7703	2652.6211	6085.4	5194.3
991.8942	2653.8801	6069.2	5181.1
992.018	2655.1385	6047.15	5153.2
992.1418	2656.3961	6019.25	5127.75
992.2655	2657.6531	6021.4	5129.3
992.3892	2658.9094	6000.3	5109.8
992.5129	2660.1651	5980.3	5089.9
992.6366	2661.42	5970.3	5079.4
992.7602	2662.6743	5967.1	5073.9
992.8837	2663.9279	5952.25	5061.4
993.0073	2665.1808	5921.6	5030.8
993.1307	2666.433	5901.95	5010.45
993.2542	2667.6846	5886.35	4994.35
993.3776	2668.9354	5899.85	5005
993.501	2670.1856	5844.35	4951.5
993.6244	2671.4351	5839.75	4949.65
993.7477	2672.6839	5836.35	4944.4
993.8709	2673.9321	5822.9	4930.2
993.9942	2675.1795	5787.5	4896.4
994.1174	2676.4263	5791	4899.8
994.2405	2677.6724	5775.55	4885.7
994.3637	2678.9179	5755.25	4863.65
994.4868	2680.1626	5732.35	4840.1
994.6098	2681.4067	5737.95	4847.2
994.7328	2682.6501	5729.1	4838.85
994.8558	2683.8928	5695.45	4803.45
994.9788	2685.1348	5669.55	4779.5
995.1017	2686.3761	5657.85	4768.4
995.2245	2687.6168	5628.95	4737.3
995.3474	2688.8568	5601.7	4708.95
995.4702	2690.0961	5589.25	4700.4
995.5929	2691.3348	5569	4677.7
995.7156	2692.5727	5551.75	4661
995.8383	2693.81	5522.65	4632.9
995.961	2695.0466	5510.9	4621.35
996.0836	2696.2826	5518.25	4626.2
996.2062	2697.5178	5485.45	4592.8
996.3287	2698.7524	5483.5	4590.8
996.4512	2699.9863	5460.9	4567.1
996.5737	2701.2195	5452.35	4563.35
996.6961	2702.452	5438.25	4545.75
996.8185	2703.6839	5418.35	4526.45
996.9408	2704.9151	5402.3	4511.9
997.0631	2706.1456	5390.65	4499
997.1854	2707.3755	5374.05	4482.65
997.3077	2708.6046	5378.4	4485.1
997.4299	2709.8331	5359.2	4467.65
997.552	2711.0609	5338.35	4445.55
997.6742	2712.2881	5338.45	4447.7
997.7963	2713.5145	5323.7	4430.4
997.9183	2714.7403	5320.65	4432
998.0403	2715.9654	5295.85	4403.45
998.1623	2717.1899	5309.65	4401.75
998.2842	2718.4136	5304.35	4413.45
998.4062	2719.6367	5292.85	4402.05
998.528	2720.8591	5274.4	4376.85
998.6498	2722.0809	5254.95	4362.1
998.7716	2723.3019	5266.15	4370.15
998.8934	2724.5223	5259	4365.55
999.0151	2725.7421	5241.85	4349.1
999.1368	2726.9611	5238.4	4345.7
999.2584	2728.1795	5204.75	4310.6
999.38	2729.3972	5163.1	4271.5
999.5016	2730.6142	5170.55	4272.3
999.6231	2731.8306	5142.75	4249.1
999.7446	2733.0462	5082.4	4191.2
999.8661	2734.2612	5072.85	4176.95
999.9875	2735.4756	5018.75	4123.9
1000.1089	2736.6892	5001.6	4109.75
1000.2302	2737.9022	4971.7	4080.6
1000.3515	2739.1145	4964.55	4072.65
1000.4728	2740.3262	4930.7	4031.5
1000.594	2741.5372	4888.1	3997.85
1000.7152	2742.7475	4866.6	3976
1000.8363	2743.9571	4850.65	3957.25
1000.9575	2745.1661	4839.9	3944
1001.0785	2746.3744	4814.65	3922.05
1001.1996	2747.582	4786.35	3894.45
1001.3206	2748.7889	4761.25	3869.2
1001.4415	2749.9952	4743.8	3852.15
1001.5625	2751.2008	4703.4	3812.1
1001.6833	2752.4057	4702.05	3809.35
1001.8042	2753.61	4700.05	3809.3
1001.925	2754.8136	4671.95	3778.55
1002.0458	2756.0165	4657.7	3766.5
1002.1665	2757.2188	4647.35	3757.9
1002.2872	2758.4204	4631.55	3738.5
1002.4078	2759.6213	4610.85	3718.45
1002.5285	2760.8215	4611.65	3714.95
1002.649	2762.0211	4570.35	3676.25
1002.7696	2763.22	4572.6	3678.4
1002.8901	2764.4182	4566.25	3674.35
1003.0106	2765.6158	4551.15	3660.25
1003.131	2766.8127	4547.9	3658.35
1003.2514	2768.009	4508.55	3618
1003.3717	2769.2045	4503.3	3610.1
1003.492	2770.3994	4509.7	3616.85
1003.6123	2771.5936	4485.8	3592.65
1003.7325	2772.7872	4455	3564.05
1003.8527	2773.9801	4431.3	3537.95
1003.9729	2775.1723	4453.15	3545
1004.093	2776.3639	4412.7	3522.65
1004.2131	2777.5548	4397.7	3503.6
1004.3331	2778.745	4401.75	3510.85
1004.4531	2779.9346	4391.85	3501
1004.5731	2781.1235	4366.55	3474.6
1004.693	2782.3117	4361.2	3469.65
1004.8129	2783.4992	4352.15	3462
1004.9328	2784.6861	4348.55	3458
1005.0526	2785.8723	4348.4	3455.65
1005.1723	2787.0579	4340.55	3446.95
1005.2921	2788.2428	4306.6	3414.85
1005.4118	2789.427	4307.95	3418.15
1005.5314	2790.6106	4318.9	3428.5
1005.651	2791.7935	4311.05	3418.65
1005.7706	2792.9757	4315.4	3423.55
1005.8902	2794.1573	4292.65	3399.6
1006.0097	2795.3382	4303.2	3411.3
1006.1291	2796.5184	4300.05	3411.05
1006.2485	2797.698	4318.15	3425.55
1006.3679	2798.8769	4303.2	3411.65
1006.4873	2800.0551	4301.6	3409.75
1006.6066	2801.2327	4324.2	3430.45
1006.7258	2802.4096	4330	3439.2
1006.8451	2803.5859	4335.7	3443.5
1006.9642	2804.7615	4340.3	3447.85
1007.0834	2805.9364	4364.05	3472.1
1007.2025	2807.1106	4370.45	3479.5
1007.3216	2808.2842	4393.3	3501.6
1007.4406	2809.4572	4401.35	3507.95
1007.5596	2810.6294	4436.1	3543.15
1007.6785	2811.801	4479.75	3587.85
1007.7975	2812.972	4494.3	3606.5
1007.9163	2814.1423	4513.4	3622.55
1008.0352	2815.3119	4548.45	3655.15
1008.154	2816.4808	4582.25	3689.9
1008.2727	2817.6491	4624.6	3733.5
1008.3914	2818.8167	4683.2	3792.15
1008.5101	2819.9837	4709	3814.4
1008.6288	2821.15	4750.15	3859.4
1008.7474	2822.3157	4776.6	3884.8
1008.8659	2823.4807	4811.3	3921.35
1008.9844	2824.645	4848.6	3957.2
1009.1029	2825.8086	4884.6	3994.55
1009.2214	2826.9716	4921.3	4031.75
1009.3398	2828.134	4944.1	4053.7
1009.4581	2829.2957	4994.05	4101.55
1009.5764	2830.4567	4994	4105.35
1009.6947	2831.617	5009.8	4118
1009.813	2832.7767	4992.65	4102.25
1009.9312	2833.9358	4988.7	4098.85
1010.0493	2835.0941	4985.05	4092.8
1010.1675	2836.2519	4980.2	4089.3
1010.2855	2837.4089	4948.75	4057.4
1010.4036	2838.5653	4931.05	4042.7
1010.5216	2839.7211	4928.9	4041
1010.6396	2840.8761	4925.75	4032.7
1010.7575	2842.0306	4948.7	4059.45
1010.8754	2843.1843	4976.65	4085.5
1010.9932	2844.3374	5020.75	4130.45
1011.111	2845.4899	5077.2	4184.7
1011.2288	2846.6417	5147.2	4256
1011.3465	2847.7928	5192.25	4301.75
1011.4642	2848.9433	5285.2	4393.65
1011.5818	2850.0931	5328.05	4438.1
1011.6995	2851.2422	5410.7	4517.7
1011.817	2852.3907	5484.3	4592.65
1011.9345	2853.5385	5534.1	4642.25
1012.052	2854.6857	5593.8	4677.45
1012.1695	2855.8323	5610.95	4720.95
1012.2869	2856.9781	5667.95	4777.6
1012.4042	2858.1233	5711.05	4819.6
1012.5216	2859.2679	5738.1	4848.3
1012.6389	2860.4118	5765.3	4874.15
1012.7561	2861.555	5798.85	4904.4
1012.8733	2862.6976	5856.9	4963.65
1012.9905	2863.8395	5853.15	4961.2
1013.1076	2864.9808	5861.95	4972.1
1013.2247	2866.1214	5855.6	4967
1013.3417	2867.2614	5871.7	4982.55
1013.4587	2868.4007	5875.05	4982.75
1013.5757	2869.5393	5868.7	4974.35
1013.6926	2870.6773	5887	4993.8
1013.8095	2871.8146	5895.35	5000.55
1013.9263	2872.9513	5887.9	4993.7
1014.0431	2874.0874	5867.7	4977.05
1014.1599	2875.2227	5854.1	4962.55
1014.2766	2876.3574	5802.8	4910.95
1014.3933	2877.4915	5784.45	4894.85
1014.51	2878.6249	5752.45	4863
1014.6266	2879.7577	5719.4	4828.3
1014.7431	2880.8898	5681.95	4780.25
1014.8596	2882.0212	5649.55	4758.65
1014.9761	2883.152	5634.6	4743.9
1015.0925	2884.2821	5613.3	4723.5
1015.2089	2885.4116	5594.25	4703.9
1015.3253	2886.5405	5573.35	4681.95
1015.4416	2887.6686	5573.5	4680.35
1015.5579	2888.7962	5566.7	4676.4
1015.6741	2889.923	5565	4676.15
1015.7903	2891.0493	5575.2	4685.05
1015.9065	2892.1748	5585.05	4694.55
1016.0226	2893.2997	5571.85	4680.95
1016.1387	2894.424	5578.8	4689.15
1016.2547	2895.5476	5590.45	4698.95
1016.3707	2896.6706	5607.15	4718
1016.4866	2897.7929	5627.1	4735.9
1016.6025	2898.9145	5649.15	4758.35
1016.7184	2900.0355	5687.65	4795.25
1016.8342	2901.1559	5706.25	4812.55
1016.95	2902.2756	5723.5	4834.15
1017.0658	2903.3946	5728.7	4839.05
1017.1815	2904.513	5764.65	4871.1
1017.2971	2905.6308	5763.95	4873.1
1017.4127	2906.7479	5785.55	4895.05
1017.5283	2907.8643	5806.45	4914.1
1017.6439	2908.9801	5807.75	4915.85
1017.7594	2910.0953	5790.45	4898.5
1017.8748	2911.2098	5814.4	4921.5
1017.9902	2912.3236	5778.45	4880.8
1018.1056	2913.4368	5789.7	4894.25
1018.2209	2914.5494	5748.2	4858.95
1018.3362	2915.6613	5722.85	4826.2
1018.4515	2916.7725	5686.35	4793.7
1018.5667	2917.8831	5661.9	4769.4
1018.6819	2918.9931	5605.15	4709.85
1018.797	2920.1024	5571.25	4680.05
1018.9121	2921.211	5538.95	4647.4
1019.0271	2922.319	5508.05	4617.9
1019.1421	2923.4264	5490.4	4601.9
1019.2571	2924.5331	5477.2	4587.35
1019.372	2925.6391	5461.8	4573.15
1019.4869	2926.7445	5436.2	4548.7
1019.6017	2927.8493	5418.8	4528.45
1019.7165	2928.9534	5385.45	4492.8
1019.8313	2930.0569	5405.3	4511.75
1019.946	2931.1597	5383.7	4494.25
1020.0606	2932.2619	5364	4474.45
1020.1753	2933.3634	5351.3	4462.5
1020.2899	2934.4643	5336.5	4438.9
1020.4044	2935.5645	5289	4391.1
1020.5189	2936.6641	5243.1	4347.65
1020.6334	2937.763	5196.7	4306.85
1020.7478	2938.8613	5126.15	4236.15
1020.8622	2939.959	5073.2	4177.65
1020.9765	2941.056	4999.8	4111.9
1021.0908	2942.1523	4896.7	4005.3
1021.2051	2943.248	4808.4	3918.05
1021.3193	2944.3431	4709.6	3819.6
1021.4334	2945.4375	4596.8	3706.35
1021.5476	2946.5313	4482.85	3594.85
1021.6617	2947.6244	4381.15	3491.7
1021.7757	2948.7169	4268.8	3378.1
1021.8897	2949.8087	4175.4	3284.9
1022.0037	2950.8999	4052	3160.7
1022.1176	2951.9904	3971.1	3083.6
1022.2315	2953.0803	3905.75	3014.5
1022.3453	2954.1696	3818.9	2928.2
1022.4591	2955.2582	3768.05	2878.8
1022.5728	2956.3462	3706.45	2818.05
1022.6865	2957.4335	3649.05	2758.9
1022.8002	2958.5202	3613.2	2721.45
1022.9138	2959.6062	3591	2700.9
1023.0274	2960.6916	3555.6	2664.9
1023.141	2961.7764	3532.45	2640.4
1023.2545	2962.8605	3503.8	2613.25
1023.3679	2963.9439	3480.5	2588.7
1023.4813	2965.0267	3466.3	2574.1
1023.5947	2966.1089	3461.9	2547.2
1023.708	2967.1905	3444.45	2556.45
1023.8213	2968.2714	3438.45	2549.45
1023.9346	2969.3516	3425.75	2533.95
1024.0478	2970.4312	3420.3	2521.4
1024.1609	2971.5102	3411.2	2518.85
1024.274	2972.5885	3388.2	2496.2
1024.3871	2973.6662	3400.9	2507.15
1024.5002	2974.7432	3392	2502.9
1024.6132	2975.8196	3365.75	2475.15
1024.7261	2976.8954	3351.4	2463.15
1024.839	2977.9705	3339.15	2449
1024.9519	2979.045	3321.5	2431.15
1025.0647	2980.1188	3295.7	2406.1
1025.1775	2981.192	3270.45	2381.75
1025.2902	2982.2645	3249.85	2357.65
1025.4029	2983.3364	3216.6	2325.3
1025.5156	2984.4077	3172.75	2279.55
1025.6282	2985.4783	3145.65	2246.95
1025.7407	2986.5483	3095.45	2205.6
1025.8532	2987.6177	3076.25	2186.85
1025.9657	2988.6864	3026.35	2136.85
1026.0782	2989.7545	2988.25	2096.05
1026.1906	2990.8219	2966.45	2076.25
1026.3029	2991.8887	2904.7	2012.65
1026.4152	2992.9548	2876.3	1987.6
1026.5275	2994.0204	2850.45	1961.35
1026.6397	2995.0852	2809.75	1921.05
1026.7519	2996.1495	2771.25	1879.7
1026.864	2997.2131	2750.05	1859.95
1026.9761	2998.276	2721.8	1829.45
1027.0882	2999.3383	2693.5	1802.05
1027.2002	3000.4	2682.8	1791.5
1027.3122	3001.4611	2655.45	1763.7
1027.4241	3002.5215	2636.1	1744.5
1027.536	3003.5812	2620.1	1729.35
1027.6478	3004.6404	2597.75	1708
1027.7596	3005.6989	2595.7	1704.5
1027.8714	3006.7567	2564.8	1674.35
1027.9831	3007.8139	2581.4	1669.8
1028.0947	3008.8705	2555.4	1664.95
1028.2064	3009.9264	2547	1638.5
1028.3179	3010.9818	2530.1	1638.4
1028.4295	3012.0364	2533.2	1642.7
1028.541	3013.0905	2526.35	1635.5
1028.6524	3014.1439	2508.8	1619
1028.7638	3015.1966	2499.65	1610.35
1028.8752	3016.2487	2492.95	1601.9
1028.9865	3017.3002	2491.95	1596
1029.0978	3018.3511	2488.65	1599.6
1029.209	3019.4013	2490.7	1599
1029.3202	3020.4509	2486.4	1596.45
1029.4314	3021.4998	2466.1	1577.8
1029.5425	3022.5481	2481.1	1590.75
1029.6535	3023.5958	2468.25	1577.65
1029.7645	3024.6428	2459.7	1566.45
1029.8755	3025.6892	2454.8	1566.6
1029.9864	3026.735	2447.75	1558.55
1030.0973	3027.7802	2448.15	1558.05
1030.2082	3028.8247	2444.2	1554.2
1030.319	3029.8685	2444.25	1554.55
1030.4297	3030.9118	2444	1554.4
1030.5404	3031.9544	2442.25	1553.15
1030.6511	3032.9963	2451	1560.4
1030.7617	3034.0376	2436.05	1546.55
1030.8723	3035.0783	2440.85	1547.8
1030.9829	3036.1184	2444.5	1551.6
1031.0934	3037.1578	2441.05	1551.25
1031.2038	3038.1966	2441.5	1547.95
1031.3142	3039.2348	2428.05	1540.05
1031.4246	3040.2723	2429.2	1530.55
1031.5349	3041.3092	2419.35	1529.05
1031.6452	3042.3455	2420.5	1530.55
1031.7554	3043.3811	2405.35	1516.55
1031.8656	3044.4161	2400.9	1510.45
1031.9758	3045.4505	2382.35	1493.7
1032.0859	3046.4842	2381.1	1490.55
1032.1959	3047.5173	2367.95	1476.75
1032.3059	3048.5498	2354.4	1464.9
1032.4159	3049.5816	2338.05	1447.85
1032.5258	3050.6128	2334.15	1441.85
1032.6357	3051.6434	2330.85	1440.75
1032.7455	3052.6734	2319.6	1428.4
1032.8553	3053.7027	2301.8	1413.15
1032.9651	3054.7314	2302.05	1414.85
1033.0748	3055.7594	2270.15	1382
1033.1845	3056.7868	2270.45	1379.2
1033.2941	3057.8136	2257.8	1366.65
1033.4037	3058.8398	2251.75	1362.05
1033.5132	3059.8653	2253.1	1362.55
1033.6227	3060.8902	2233.35	1342.75
1033.7321	3061.9145	2224.85	1333.65
1033.8415	3062.9381	2219.75	1329.25
1033.9509	3063.9612	2213.65	1307.95
1034.0602	3064.9835	2195.3	1304.3
1034.1694	3066.0053	2187.55	1296.95
1034.2787	3067.0264	2187.05	1295.95
1034.3878	3068.0469	2168.05	1277.25
1034.497	3069.0668	2157.3	1266.45
1034.6061	3070.086	2148.4	1259.9
1034.7151	3071.1046	2138.5	1248.5
1034.8241	3072.1226	2130.35	1239.8
1034.9331	3073.1399	2109	1221.4
1035.042	3074.1567	2095.15	1204.35
1035.1508	3075.1727	2087	1196.65
1035.2597	3076.1882	2061.3	1169.05
1035.3684	3077.203	2057.3	1166.5
1035.4772	3078.2173	2038.4	1146.4
1035.5859	3079.2308	2025.65	1133.4
1035.6945	3080.2438	2026.4	1135
1035.8031	3081.2561	2012.35	1123.5
1035.9117	3082.2678	1998.35	1110.15
1036.0202	3083.2789	1994.45	1105.3
1036.1286	3084.2893	1982	1092.35
1036.2371	3085.2991	1981.1	1091.2
1036.3454	3086.3083	1964	1070.25
1036.4538	3087.3169	1963.35	1071.35
1036.562	3088.3248	1944.05	1052.85
1036.6703	3089.3321	1937.1	1045.55
1036.7785	3090.3388	1918.75	1029.9
1036.8866	3091.3449	1921.2	1030.15
1036.9948	3092.3503	1903.3	1011
1037.1028	3093.3551	1902.15	1011.7
1037.2108	3094.3593	1911.95	1022.7
1037.3188	3095.3629	1887.45	999.6
1037.4267	3096.3658	1884.2	993.4
1037.5346	3097.3681	1877.85	988.35
1037.6425	3098.3698	1868.2	977.75
1037.7503	3099.3708	1876.65	982.45
1037.858	3100.3713	1851.3	960.1
1037.9657	3101.3711	1849.35	960.15
1038.0734	3102.3702	1948.85	945.9
1038.181	3103.3688	1845.95	954.75
1038.2886	3104.3667	1835.9	946.6
1038.3961	3105.364	1822.7	932.2
1038.5036	3106.3607	1820.7	930
1038.611	3107.3568	1816.2	925.05
1038.7184	3108.3522	1808	919.7
1038.8257	3109.347	1810.45	918.4
1038.933	3110.3412	1810.45	917.2
1039.0403	3111.3348	1787	896.6
1039.1475	3112.3277	1784.25	895.3
1039.2547	3113.32	1786.85	897.4
1039.3618	3114.3117	1780.65	890.4
1039.4689	3115.3028	1767.05	878.8
1039.5759	3116.2932	1766.35	875.15
1039.6829	3117.2831	1766.2	868.5
1039.7898	3118.2723	1761.3	870.4
1039.8967	3119.2608	1751.45	860.55
1040.0035	3120.2488	1747.3	858.6
1040.1103	3121.2361	1743.8	853.85
1040.2171	3122.2229	1741.1	850.7
1040.3238	3123.209	1739	847.65
1040.4305	3124.1944	1733	844.75
1040.5371	3125.1793	1724.75	832
1040.6437	3126.1635	1712.6	822.45
1040.7502	3127.1471	1705.75	816.55
1040.8567	3128.1301	1703.15	814.7
1040.9631	3129.1125	1699.65	811.45
1041.0695	3130.0942	1691.05	801.4
1041.1759	3131.0753	1707.4	808.65
1041.2822	3132.0558	1695.05	801.2
1041.3884	3133.0357	1685.35	795.8
1041.4946	3134.015	1681.4	790.9
1041.6008	3134.9936	1678.8	787.85
1041.7069	3135.9716	1697.3	785.9
1041.813	3136.949	1677.35	788.4
1041.919	3137.9258	1671.8	775.25
1042.025	3138.902	1671.2	773.9
1042.1309	3139.8775	1660.8	770.65
1042.2368	3140.8524	1661.15	770.85
1042.3427	3141.8267	1659.45	770.55
1042.4485	3142.8004	1648.85	756.6
1042.5542	3143.7735	1652.8	756.25
1042.6599	3144.7459	1647.85	754.35
1042.7656	3145.7178	1649.1	760.65
1042.8712	3146.689	1632.2	743.25
1042.9768	3147.6596	1635.55	745.35
1043.0823	3148.6295	1632.05	743
1043.1878	3149.5989	1614.6	723.9
1043.2932	3150.5676	1617.85	728.7
1043.3986	3151.5357	1607.95	719.85
1043.5039	3152.5032	1615.95	725.95
1043.6092	3153.4701	1599.1	708.3
1043.7145	3154.4364	1613.85	722.75
1043.8197	3155.402	1589.9	701.95
1043.9248	3156.367	1589.05	698.4
1044.03	3157.3315	1623.95	696.7
1044.135	3158.2952	1586.8	696.9
1044.24	3159.2584	1569.15	680.2
1044.345	3160.221	1577.05	686.6
1044.4499	3161.1829	1568.95	677.75
1044.5548	3162.1442	1566.4	676.25
1044.6596	3163.105	1559.95	670.35
1044.7644	3164.065	1559.45	669.3
1044.8692	3165.0245	1564.9	673.6
1044.9739	3165.9834	1550.75	661.8
1045.0785	3166.9416	1543.4	654.55
1045.1831	3167.8993	1542.35	652.65
1045.2877	3168.8563	1538.05	647.5
1045.3922	3169.8127	1539.25	648.2
1045.4966	3170.7684	1540	650.35
1045.6011	3171.7236	1534.35	642.15
1045.7054	3172.6782	1516.55	625.85
1045.8098	3173.6321	1521.95	632.45
1045.914	3174.5854	1522.75	628.9
1046.0183	3175.5381	1514.65	626.15
1046.1224	3176.4902	1506.5	617.8
1046.2266	3177.4417	1507.55	619.45
1046.3307	3178.3926	1509.15	620.75
1046.4347	3179.3428	1508.55	622.05
1046.5387	3180.2924	1495	604.4
1046.6427	3181.2415	1500.15	609.65
1046.7466	3182.1899	1499.35	607.7
1046.8504	3183.1377	1489.35	600.6
1046.9542	3184.0848	1479	587.2
1047.058	3185.0314	1487.95	597
1047.1617	3185.9773	1478.95	588.25
1047.2654	3186.9227	1478.9	589.95
1047.369	3187.8674	1473.7	584.65
1047.4726	3188.8115	1469.85	576.6
1047.5761	3189.755	1467.05	576.5
1047.6796	3190.6979	1465.15	574.7
1047.783	3191.6402	1467.15	579.35
1047.8864	3192.5818	1460.1	571.8
1047.9898	3193.5229	1474.35	562.1
1048.0931	3194.4633	1451.4	562.75
1048.1963	3195.4031	1451.4	563.45
1048.2995	3196.3423	1441.15	552.7
1048.4027	3197.2809	1439.35	548.9
1048.5058	3198.2189	1443.95	554.5
1048.6089	3199.1563	1446	541.4
1048.7119	3200.0931	1431.7	541.5
1048.8148	3201.0292	1427.85	539
1048.9178	3201.9648	1428	538.75
1049.0206	3202.8997	1424.3	533.75
1049.1235	3203.834	1419.15	530.45
1049.2262	3204.7677	1425.15	535.65
1049.329	3205.7008	1416.8	525
1049.4317	3206.6333	1411.8	525.05
1049.5343	3207.5652	1412.5	523.35
1049.6369	3208.4964	1411.5	522.1
1049.7394	3209.4271	1399.55	511.2
1049.8419	3210.3571	1407.9	519.45
1049.9444	3211.2865	1403.8	513.05
1050.0468	3212.2154	1398.6	508
1050.1491	3213.1436	1399.2	506.2
1050.2514	3214.0712	1404	507.95
1050.3537	3214.9982	1400.3	508.05
1050.4559	3215.9246	1386.15	496.1
1050.5581	3216.8503	1383.3	495.8
1050.6602	3217.7755	1387.75	496.95
1050.7623	3218.7001	1382.5	492.25
1050.8643	3219.624	1382.3	491.8
1050.9663	3220.5473	1377.85	487.6
1051.0682	3221.4701	1379.95	489.85
1051.1701	3222.3922	1368.45	476.2
1051.2719	3223.3137	1373.7	483.4
1051.3737	3224.2346	1368.15	479.1
1051.4754	3225.1549	1361.15	473.9
1051.5771	3226.0746	1363.45	477.55
1051.6788	3226.9937	1359.1	471.15
1051.7804	3227.9121	1355.7	467.2
1051.8819	3228.83	1360.6	470.75
1051.9834	3229.7473	1349.7	461.9
1052.0849	3230.6639	1355.75	466.6
1052.1863	3231.5799	1351.75	462.95
1052.2876	3232.4954	1344.7	452.3
1052.3889	3233.4102	1349.6	461.25
1052.4902	3234.3244	1338.9	448.55
1052.5914	3235.238	1333.25	443.65
1052.6926	3236.151	1355.8	442.8
1052.7937	3237.0634	1331.45	443.2
1052.8948	3237.9752	1326.5	437.85
1052.9958	3238.8864	1327.8	439.3
1053.0968	3239.797	1328.7	439.85
1053.1977	3240.7069	1319.65	430.15
1053.2986	3241.6163	1323.9	432.15
1053.3994	3242.5251	1320.55	430.55
1053.5002	3243.4332	1312.5	423.35
1053.6009	3244.3408	1313.95	424.65
1053.7016	3245.2477	1305	417.35
1053.8022	3246.154	1315.45	424.8
1053.9028	3247.0598	1306.85	418.2
1054.0034	3247.9649	1302.2	413.05
1054.1039	3248.8694	1295.85	405.65
1054.2043	3249.7733	1297.85	408.15
1054.3047	3250.6766	1287.95	398.65
1054.4051	3251.5793	1288.7	398.3
1054.5054	3252.4814	1289.45	399.85
1054.6056	3253.3829	1282.3	394.4
1054.7058	3254.2838	1285.25	396.7
1054.806	3255.1841	1282.15	393.3
1054.9061	3256.0838	1274.25	386.15
1055.0061	3256.9829	1273.6	384.2
1055.1062	3257.8814	1274.75	383.15
1055.2061	3258.7792	1261.8	370
1055.306	3259.6765	1262.1	373.05
1055.4059	3260.5731	1254.75	367.1
1055.5057	3261.4692	1259	370.25
1055.6055	3262.3647	1251.5	362.1
1055.7052	3263.2595	1241.4	353.55
1055.8049	3264.1538	1239.45	350.9
1055.9045	3265.0474	1231.05	343.05
1056.0041	3265.9404	1228.2	340.8
1056.1036	3266.8329	1223.75	333.55
1056.2031	3267.7247	1228.15	328
1056.3025	3268.616	1209	321.45
1056.4019	3269.5066	1203	313.3
1056.5013	3270.3966	1194	303.6
1056.6005	3271.286	1187.85	299.85
