Software Version:	3.9.2.0
Unit SN:	10000200
Spectrometer SN:	6960
Date:	3/6/2024 10:23:04 AM
Data Line Index:	25
Spectral Points:	2048
Integration time (ms):	125
Averages:	20
Delay (ms):	30
Sequence Number:	1
Processing:	dark subtract
Laser Power (mW):	305
Laser Current (mA):	825
Laser Diode Temp (C):	25.1
Laser Case Temp (C):	25.6
System Temp (C):	25.4
Spectrometer Temp (C):	22.9
CCD Temp (C):	0.002
Secondary Temp (C):	20.011
Heatsink Temp (C):	21.021
CCDPCB Temp (C):	33.639
SecondaryPCB Temp (C):	27.681

Wavelength	RamanShift	Raw Counts	Dark Subtracted
787.061	30.1047	1083.6	673.9
787.2016	32.3739	1098.95	690.9
787.3422	34.6426	1142.75	732.8
787.4828	36.9109	1183.6	772.4
787.6235	39.1787	1237.25	820.4
787.7642	41.4461	1287.95	868.8
787.9049	43.7131	1362.65	937.95
788.0456	45.9796	1402.75	974.8
788.1863	48.2456	1461.35	1030.05
788.3271	50.5112	1534.45	1100.1
788.4679	52.7764	1594.8	1157
788.6087	55.0411	1668.85	1229.5
788.7496	57.3054	1749.85	1301.05
788.8904	59.5692	1820.95	1373.05
789.0313	61.8326	1918.5	1467.9
789.1722	64.0955	2011.9	1555.95
789.3132	66.3579	2136.75	1678.75
789.4541	68.6199	2270.35	1806.5
789.5951	70.8815	2530.4	2061.6
789.7361	73.1426	3025.85	2553.6
789.8771	75.4032	4328.9	3852.45
790.0181	77.6634	7683.35	7205.35
790.1592	79.9231	16502	16017.25
790.3003	82.1824	52064.85	51565.2
790.4414	84.4412	65535	65015.9
790.5825	86.6995	65535	64988.05
790.7237	88.9574	65535	64964.3
790.8648	91.2148	65535	64949.55
791.006	93.4717	65535	64936.25
791.1472	95.7282	65535	64933.25
791.2885	97.9842	65535	64927.6
791.4297	100.2398	65535	64925.05
791.571	102.4949	65535	64921.65
791.7123	104.7495	65535	64916.5
791.8536	107.0036	65535	64917.65
791.9949	109.2573	65535	64921.2
792.1363	111.5105	65535	64913.35
792.2777	113.7632	65535	64913.8
792.4191	116.0154	65535	64904.5
792.5605	118.2672	65535	64910.75
792.7019	120.5185	65535	64910.4
792.8434	122.7693	65535	64903.3
792.9849	125.0197	65535	64900.95
793.1264	127.2696	65535	64896.55
793.2679	129.519	65535	64898
793.4094	131.7679	65535	64890.05
793.551	134.0163	65535	64890.55
793.6926	136.2642	65535	64888.85
793.8342	138.5117	65535	64875.7
793.9758	140.7587	65535	64883.4
794.1175	143.0052	65535	64877.45
794.2591	145.2512	65535	64879.8
794.4008	147.4967	65535	64876.5
794.5425	149.7417	65535	64877.4
794.6842	151.9863	65535	64871
794.826	154.2304	65535	64867.55
794.9677	156.4739	65535	64862.3
795.1095	158.717	65535	64861.75
795.2513	160.9596	65535	64857.65
795.3931	163.2017	65535	64858.4
795.535	165.4433	65535	64851
795.6768	167.6844	65535	64853.35
795.8187	169.925	65535	64848.8
795.9606	172.1651	65535	64846.9
796.1025	174.4047	65535	64840.6
796.2445	176.6439	65535	64840.8
796.3864	178.8825	65535	64835.85
796.5284	181.1206	65535	64837.5
796.6704	183.3582	65535	64828.35
796.8124	185.5954	65535	64831.1
796.9544	187.832	65535	64826.15
797.0965	190.0681	65535	64823.7
797.2386	192.3037	65535	64821.55
797.3806	194.5388	65535	64814.55
797.5228	196.7734	65535	64815.8
797.6649	199.0075	65535	64812.65
797.807	201.2411	65535	64808.85
797.9492	203.4742	65535	64814.95
798.0914	205.7068	65535	64808.75
798.2336	207.9389	65535	64803.3
798.3758	210.1704	65535	64804.95
798.518	212.4015	65535	64810.7
798.6603	214.632	65535	64822.45
798.8025	216.862	65535	64827.75
798.9448	219.0915	65535	64827.95
799.0871	221.3205	65535	64823.4
799.2294	223.549	65535	64831.75
799.3718	225.777	65535	64828.35
799.5141	228.0044	65535	64821.8
799.6565	230.2314	65535	64820.75
799.7989	232.4578	65535	64816.65
799.9413	234.6837	65535	64805.25
800.0837	236.909	65535	64805.45
800.2262	239.1339	65535	64781.9
800.3687	241.3582	65535	64794.5
800.5111	243.582	65535	64769.45
800.6536	245.8053	65535	64779.8
800.7961	248.0281	65535	64783.25
800.9387	250.2503	65535	64776.1
801.0812	252.472	65535	64777.9
801.2238	254.6932	65535	64779.75
801.3664	256.9139	65535	64776.9
801.509	259.134	65535	64771.65
801.6516	261.3536	65535	64772.15
801.7942	263.5727	65535	64774.15
801.9369	265.7912	65535	64773.6
802.0795	268.0092	65535	64771.55
802.2222	270.2267	65535	64770.6
802.3649	272.4436	65535	64773.65
802.5076	274.6601	65535	64760.85
802.6504	276.8759	65535	64766.75
802.7931	279.0913	65535	64764.4
802.9359	281.3061	65535	64765.65
803.0787	283.5204	65535	64760.9
803.2215	285.7341	65535	64756.35
803.3643	287.9473	65535	64745.9
803.5071	290.16	65535	64753.75
803.6499	292.3721	65535	64760.3
803.7928	294.5837	65535	64757.2
803.9357	296.7947	65535	64758.8
804.0786	299.0052	65535	64759.25
804.2215	301.2152	65535	64754.05
804.3644	303.4246	65535	64756.5
804.5074	305.6334	65535	64757.3
804.6503	307.8418	65535	64751.85
804.7933	310.0495	65535	64755.95
804.9363	312.2568	65535	64750.95
805.0793	314.4635	65535	64751.05
805.2223	316.6696	65535	64748.05
805.3653	318.8752	65535	64739.75
805.5084	321.0802	65535	64747.55
805.6514	323.2847	65535	64746.4
805.7945	325.4887	65535	64746.9
805.9376	327.692	65535	64743.6
806.0807	329.8949	65535	64738.65
806.2238	332.0972	65535	64743.95
806.367	334.2989	65535	64737.85
806.5101	336.5001	65535	64736.8
806.6533	338.7007	65535	64734.6
806.7965	340.9008	65535	64730.2
806.9397	343.1003	65535	64732.85
807.0829	345.2992	65535	64733.75
807.2261	347.4976	65535	64728
807.3693	349.6955	65535	64730.85
807.5126	351.8927	65535	64728.6
807.6559	354.0895	65535	64716.25
807.7991	356.2856	65535	64723.85
807.9424	358.4812	65535	64727.5
808.0857	360.6763	65535	64724.3
808.2291	362.8707	65535	64721.35
808.3724	365.0646	65535	64718.45
808.5158	367.258	65535	64718.75
808.6591	369.4508	65535	64715.3
808.8025	371.643	65535	64713.15
808.9459	373.8346	65535	64711.6
809.0893	376.0257	65535	64707.65
809.2327	378.2162	65535	64709.3
809.3762	380.4062	65535	64704.6
809.5196	382.5956	65535	64709
809.6631	384.7844	65535	64712.65
809.8066	386.9726	65535	64712.6
809.9501	389.1603	65535	64714.65
810.0936	391.3474	65535	64672.6
810.2371	393.5339	65535	64714.9
810.3806	395.7199	65535	64714.85
810.5241	397.9052	65535	64718.65
810.6677	400.09	65535	64717.65
810.8113	402.2743	65535	64715.95
810.9548	404.4579	65535	64717.55
811.0984	406.641	65535	64716.5
811.2421	408.8235	65535	64712.3
811.3857	411.0054	65535	64711.4
811.5293	413.1868	65535	64706.6
811.673	415.3675	65535	64703
811.8166	417.5477	65535	64702.3
811.9603	419.7273	65535	64699.75
812.104	421.9064	65535	64696.75
812.2477	424.0848	65535	64697.55
812.3914	426.2627	65535	64698.1
812.5351	428.4399	65535	64697.5
812.6788	430.6166	65535	64696.7
812.8226	432.7928	65535	64696.8
812.9663	434.9683	65535	64693.65
813.1101	437.1432	65535	64691.9
813.2539	439.3176	65535	64693.25
813.3977	441.4914	65535	64693.5
813.5415	443.6645	65535	64699
813.6853	445.8371	65535	64690.65
813.8291	448.0091	65535	64695.9
813.973	450.1806	65535	64691.55
814.1168	452.3514	65535	64689.25
814.2607	454.5216	65535	64683.8
814.4046	456.6913	65535	64688.6
814.5485	458.8603	65535	64688.75
814.6924	461.0288	65535	64686.95
814.8363	463.1967	65535	64690.65
814.9802	465.3639	65535	64687.7
815.1241	467.5306	65535	64687.15
815.2681	469.6967	65535	64690.75
815.412	471.8622	65535	64691.25
815.556	474.0271	65535	64689.25
815.7	476.1914	65535	64686.2
815.844	478.3551	65535	64686.65
815.988	480.5182	65535	64689
816.132	482.6807	65535	64687.8
816.276	484.8426	65535	64685.7
816.4201	487.0039	65535	64687.25
816.5641	489.1647	65535	64682.6
816.7082	491.3248	65535	64684
816.8522	493.4843	65535	64682
816.9963	495.6432	65535	64680.55
817.1404	497.8015	65535	64676.7
817.2845	499.9592	65535	64680.35
817.4286	502.1163	65535	64678.65
817.5727	504.2728	65535	64677
817.7168	506.4287	65535	64679.05
817.861	508.5839	65535	64681.65
818.0051	510.7386	65535	64682.3
818.1493	512.8927	65535	64674.1
818.2935	515.0461	65535	64676.25
818.4377	517.199	65535	64674
818.5818	519.3512	65535	64676.65
818.726	521.5029	65535	64670.8
818.8703	523.6539	65535	64675.7
819.0145	525.8043	65535	64673.9
819.1587	527.9541	65535	64671.6
819.303	530.1033	65535	64676.15
819.4472	532.2519	65535	64671.6
819.5915	534.3999	65535	64670.7
819.7357	536.5472	65535	64672.65
819.88	538.694	65535	64674
820.0243	540.8401	65535	64672.2
820.1686	542.9856	65535	64668.55
820.3129	545.1305	65535	64667.2
820.4572	547.2748	65535	64667.2
820.6016	549.4185	65535	64664.65
820.7459	551.5615	65535	64666.3
820.8902	553.704	65535	64666.1
821.0346	555.8458	65535	64668.95
821.1789	557.987	65535	64668.95
821.3233	560.1276	65535	64667.8
821.4677	562.2675	65535	64669.95
821.6121	564.4069	65535	64666.65
821.7565	566.5456	65535	64667.3
821.9009	568.6837	65535	64666.4
822.0453	570.8212	65535	64668.45
822.1897	572.958	65535	64665.9
822.3342	575.0942	65535	64668.85
822.4786	577.2299	65535	64668.7
822.6231	579.3648	65535	64668.65
822.7675	581.4992	65535	64667.5
822.912	583.6329	65535	64669.05
823.0565	585.766	65535	64667.95
823.201	587.8985	65535	64670.2
823.3454	590.0304	65535	64643.75
823.4899	592.1616	65535	64663.6
823.6345	594.2922	65535	64662.45
823.779	596.4222	65535	64663.05
823.9235	598.5515	65535	64661.3
824.068	600.6802	65535	64662.5
824.2126	602.8083	65535	64660.6
824.3571	604.9358	65535	64663
824.5017	607.0626	65535	64660.5
824.6462	609.1888	65535	64662.6
824.7908	611.3144	65535	64658.55
824.9354	613.4393	65535	64658.35
825.08	615.5636	65535	64659.8
825.2246	617.6873	65535	64658.5
825.3692	619.8103	65535	64659.35
825.5138	621.9327	65535	64657.2
825.6584	624.0544	65535	64657.4
825.803	626.1756	65535	64659.65
825.9477	628.2961	65535	64659.4
826.0923	630.4159	65535	64656
826.237	632.5351	65535	64659.75
826.3816	634.6537	65535	64654.35
826.5263	636.7716	65535	64654.95
826.6709	638.8889	65535	64659.2
826.8156	641.0056	65535	64654.1
826.9603	643.1216	65535	64653.25
827.105	645.237	65535	64652.3
827.2497	647.3518	65535	64655.65
827.3944	649.4659	65535	64657.25
827.5391	651.5793	65535	64655.85
827.6838	653.6922	65535	64658.3
827.8285	655.8043	65535	64653.5
827.9733	657.9159	65535	64656.1
828.118	660.0268	65535	64654.75
828.2627	662.137	65535	64651.8
828.4075	664.2466	65535	64652.15
828.5522	666.3556	65535	64651.4
828.697	668.4639	65535	64647.3
828.8418	670.5716	65535	64653.25
828.9865	672.6786	65535	64651.7
829.1313	674.785	65535	64647.2
829.2761	676.8907	65535	64648.65
829.4209	678.9958	65535	64651.15
829.5657	681.1002	65535	64649.75
829.7105	683.204	65535	64646.85
829.8553	685.3072	65535	64648.4
830.0001	687.4097	65535	64648.95
830.1449	689.5115	65535	64647.25
830.2898	691.6127	65535	64650.6
830.4346	693.7132	65535	64649.5
830.5794	695.8131	65535	64640.05
830.7243	697.9123	65535	64646.95
830.8691	700.0109	65535	64644
831.014	702.1089	65535	64648.75
831.1588	704.2061	65535	64646.35
831.3037	706.3028	65535	64643.95
831.4486	708.3987	65535	64645.8
831.5935	710.4941	65535	64648.1
831.7383	712.5887	65535	64643.75
831.8832	714.6827	65535	64642
832.0281	716.7761	65535	64643.5
832.173	718.8688	65535	64644.2
832.3179	720.9608	65535	64638.6
832.4628	723.0522	65535	64644.45
832.6077	725.1429	65535	64643.5
832.7527	727.233	65535	64642.2
832.8976	729.3224	65535	64643.05
833.0425	731.4112	65535	64643.15
833.1874	733.4993	65535	64643.1
833.3324	735.5867	65535	64643.3
833.4773	737.6735	65535	64644
833.6222	739.7596	65535	64644.45
833.7672	741.845	65535	64644.6
833.9122	743.9298	65535	64642.65
834.0571	746.014	65535	64644.75
834.2021	748.0974	65535	64642.15
834.347	750.1802	65535	64640.6
834.492	752.2624	65535	64642.4
834.637	754.3439	65535	64641.8
834.782	756.4247	65535	64630.95
834.9269	758.5048	65535	64643.45
835.0719	760.5843	65535	64640
835.2169	762.6631	65535	64640.3
835.3619	764.7413	65535	64641.8
835.5069	766.8188	65535	64637.75
835.6519	768.8956	65535	64637.1
835.7969	770.9718	65535	64640.6
835.9419	773.0473	65535	64641.7
836.0869	775.1221	65535	64642
836.232	777.1962	65535	64640.4
836.377	779.2697	65535	64639.65
836.522	781.3426	65535	64622.4
836.667	783.4147	65535	64639.5
836.8121	785.4862	65535	64644.65
836.9571	787.557	65535	64639.95
837.1021	789.6271	65535	64639.6
837.2472	791.6966	65535	64641.5
837.3922	793.7654	65535	64637.8
837.5373	795.8335	65535	64642.2
837.6823	797.901	65535	64641
837.8274	799.9678	65535	64633.6
837.9724	802.0339	65535	64642.15
838.1175	804.0993	65535	64627.5
838.2626	806.1641	65535	64637.45
838.4076	808.2282	65535	64640.55
838.5527	810.2916	65535	64639.2
838.6978	812.3544	65535	64639.7
838.8428	814.4164	65535	64638.5
838.9879	816.4778	65535	64635.4
839.133	818.5385	65535	64639.15
839.2781	820.5986	65535	64639.9
839.4232	822.658	65535	64638.15
839.5682	824.7166	65535	64639.35
839.7133	826.7747	65535	64639.05
839.8584	828.832	65535	64638.7
840.0035	830.8886	65535	64638.1
840.1486	832.9446	65535	64637.2
840.2937	834.9999	65535	64640.7
840.4388	837.0545	65535	64632.7
840.5839	839.1085	65535	64637.7
840.729	841.1618	65535	64631.5
840.8741	843.2143	65535	64637.65
841.0192	845.2662	65535	64637.15
841.1643	847.3175	65535	64640.55
841.3095	849.368	65535	64637.9
841.4546	851.4179	65535	64636.95
841.5997	853.467	65535	64636.25
841.7448	855.5155	65535	64636.55
841.8899	857.5633	65535	64637.7
842.0351	859.6105	65535	64637.5
842.1802	861.6569	65535	64636.3
842.3253	863.7027	65535	64634.6
842.4704	865.7478	65535	64637.05
842.6156	867.7922	65535	64635.5
842.7607	869.8359	65535	64635.1
842.9058	871.8789	65535	64634
843.0509	873.9212	65535	64603.2
843.1961	875.9629	65535	64634.6
843.3412	878.0039	65535	64632.65
843.4863	880.0441	65535	64634.3
843.6315	882.0837	65535	64636.45
843.7766	884.1226	65535	64633.1
843.9218	886.1609	65535	64635.2
844.0669	888.1984	65535	64636.95
844.212	890.2352	65535	64636.1
844.3572	892.2714	65535	64632.8
844.5023	894.3069	65535	64635.1
844.6475	896.3416	65535	64635.45
844.7926	898.3757	65535	64632.95
844.9377	900.4091	65535	64635.75
845.0829	902.4418	65535	64626.85
845.228	904.4739	65535	64634.75
845.3732	906.5052	65535	64634.35
845.5183	908.5358	65535	64636.1
845.6635	910.5658	65535	64632.3
845.8086	912.595	65535	64636
845.9538	914.6236	65535	64635.1
846.0989	916.6515	65535	64634.65
846.2441	918.6786	65535	64634.65
846.3892	920.7051	65535	64632.1
846.5344	922.7309	65535	64634.5
846.6795	924.756	65535	64633.65
846.8246	926.7804	65535	64630.75
846.9698	928.8041	65535	64627.65
847.1149	930.8272	65535	64633.8
847.2601	932.8495	65535	64629.95
847.4052	934.8711	65535	64632.65
847.5504	936.892	65535	64633.1
847.6955	938.9123	65535	64629.25
847.8407	940.9318	65535	64632.4
847.9858	942.9506	65535	64633.35
848.131	944.9688	65535	64630.9
848.2761	946.9862	65535	64631.25
848.4213	949.003	65535	64634.05
848.5664	951.019	65535	64631.55
848.7115	953.0344	65535	64633.6
848.8567	955.0491	65535	64634.55
849.0018	957.063	65535	64630.75
849.147	959.0763	65535	64632.1
849.2921	961.0888	65535	64630.55
849.4373	963.1007	65535	64630.75
849.5824	965.1119	65535	64637.15
849.7275	967.1223	65535	64635.8
849.8727	969.1321	65535	64635.85
850.0178	971.1412	65535	64633.95
850.1629	973.1495	65535	64634.2
850.3081	975.1572	65535	64599.5
850.4532	977.1641	65535	64631.75
850.5983	979.1704	65535	64633
850.7435	981.1759	65535	64629.6
850.8886	983.1808	65535	64631.4
851.0337	985.1849	65535	64620.6
851.1788	987.1884	65535	64631.1
851.324	989.1911	65535	64631.95
851.4691	991.1932	65535	64632.7
851.6142	993.1945	65535	64632.95
851.7593	995.1951	65535	64633.4
851.9045	997.1951	65535	64627.3
852.0496	999.1943	65535	64632.7
852.1947	1001.1928	65535	64631.5
852.3398	1003.1906	65535	64632.55
852.4849	1005.1877	65535	64630.85
852.63	1007.1841	65535	64633.3
852.7751	1009.1798	65535	64632.4
852.9202	1011.1748	65535	64634.95
853.0653	1013.1691	65535	64633.35
853.2104	1015.1627	65535	64630.85
853.3555	1017.1556	65535	64634.1
853.5006	1019.1477	65535	64631.35
853.6457	1021.1392	65535	64635.8
853.7908	1023.1299	65535	64633.65
853.9359	1025.12	65535	64634
854.081	1027.1093	65535	64638.85
854.2261	1029.0979	65535	64639.1
854.3712	1031.0859	65535	64639.35
854.5163	1033.0731	65535	64633.05
854.6613	1035.0596	65535	64636.05
854.8064	1037.0454	65535	64634.9
854.9515	1039.0304	65535	64633.7
855.0965	1041.0148	65535	64631.6
855.2416	1042.9985	65535	64633.55
855.3867	1044.9814	65535	64633.1
855.5317	1046.9636	65535	64631.45
855.6768	1048.9452	65535	64634.35
855.8219	1050.926	65535	64635.05
855.9669	1052.9061	65535	64633.9
856.112	1054.8855	65535	64632.55
856.257	1056.8642	65535	64635.15
856.4021	1058.8421	65535	64627.5
856.5471	1060.8194	65535	64631.05
856.6921	1062.7959	65535	64633.45
856.8372	1064.7717	65535	64631.05
856.9822	1066.7469	65535	64632.6
857.1272	1068.7213	65535	64632.95
857.2723	1070.695	65535	64636.85
857.4173	1072.6679	65535	64631.95
857.5623	1074.6402	65535	64631.25
857.7073	1076.6117	65535	64629
857.8523	1078.5826	65535	64632.3
857.9973	1080.5527	65535	64629.75
858.1423	1082.5221	65535	64632.75
858.2873	1084.4908	65535	64633.15
858.4323	1086.4587	65535	64631.1
858.5773	1088.426	65535	64631.3
858.7223	1090.3925	65535	64628.5
858.8673	1092.3584	65535	64633.35
859.0123	1094.3235	65535	64633.95
859.1573	1096.2879	65535	64632.75
859.3022	1098.2515	65535	64632.3
859.4472	1100.2145	65535	64631.85
859.5922	1102.1767	65535	64632.95
859.7371	1104.1382	65535	64633
859.8821	1106.099	65535	64630.05
860.027	1108.0591	65535	64634.15
860.172	1110.0185	65535	64631
860.3169	1111.9771	65535	64635.25
860.4619	1113.9351	65535	64632.55
860.6068	1115.8923	65535	64631.2
860.7517	1117.8488	65535	64631.6
860.8967	1119.8045	65535	64632.35
861.0416	1121.7596	65535	64630.8
861.1865	1123.7139	65535	64633.55
861.3314	1125.6675	65535	64633.5
861.4763	1127.6204	65535	64635.75
861.6212	1129.5726	65535	64629.25
861.7661	1131.524	65535	64635.9
861.911	1133.4748	65535	64633.55
862.0559	1135.4248	65535	64630.85
862.2008	1137.3741	65535	64632.8
862.3457	1139.3226	65535	64631.5
862.4905	1141.2705	65535	64634.65
862.6354	1143.2176	65535	64627.5
862.7803	1145.164	65535	64630.15
862.9251	1147.1097	65535	64633.25
863.07	1149.0546	65535	64629.3
863.2148	1150.9989	65535	64632.4
863.3597	1152.9424	65535	64633.45
863.5045	1154.8852	65535	64631.6
863.6493	1156.8272	65535	64634.1
863.7942	1158.7686	65535	64623.5
863.939	1160.7092	65535	64631.4
864.0838	1162.6491	65535	64632.95
864.2286	1164.5883	65535	64631.5
864.3734	1166.5267	65535	64631.4
864.5182	1168.4644	65535	64632.2
864.663	1170.4014	65535	64627.8
864.8078	1172.3377	65535	64634.85
864.9526	1174.2732	65535	64633.85
865.0974	1176.2081	65535	64632.55
865.2421	1178.1421	65535	64631.15
865.3869	1180.0755	65535	64633.9
865.5317	1182.0082	65535	64631.6
865.6764	1183.9401	65535	64633.6
865.8212	1185.8713	65535	64638.05
865.9659	1187.8017	65535	64634.3
866.1106	1189.7315	65535	64637.5
866.2554	1191.6605	65535	64610.3
866.4001	1193.5888	65535	64635.95
866.5448	1195.5163	65535	64635.9
866.6895	1197.4432	65535	64636.55
866.8342	1199.3693	65535	64633.75
866.9789	1201.2947	65535	64631.45
867.1236	1203.2193	65535	64631.85
867.2683	1205.1432	65535	64634.8
867.413	1207.0664	65535	64634.15
867.5576	1208.9889	65535	64632.15
867.7023	1210.9106	65535	64634.55
867.847	1212.8316	65535	64636.85
867.9916	1214.7519	65535	64624.55
868.1363	1216.6715	65535	64632.9
868.2809	1218.5903	65535	64634
868.4255	1220.5084	65535	64634.75
868.5701	1222.4257	65535	64634.15
868.7148	1224.3424	65535	64635.9
868.8594	1226.2583	65535	64628.75
869.004	1228.1735	65535	64633.85
869.1486	1230.0879	65535	64633.95
869.2932	1232.0016	65535	64634.2
869.4377	1233.9146	65535	64633.05
869.5823	1235.8269	65535	64634.55
869.7269	1237.7384	65535	64636.45
869.8715	1239.6492	65535	64635.05
870.016	1241.5592	65535	64631.45
870.1606	1243.4686	65535	64635.9
870.3051	1245.3772	65535	64634.65
870.4496	1247.285	65535	64633.45
870.5941	1249.1922	65535	64634.5
870.7387	1251.0986	65535	64635.05
870.8832	1253.0042	65535	64635.7
871.0277	1254.9092	65535	64633.1
871.1722	1256.8134	65535	64635.1
871.3167	1258.7169	65535	64633.45
871.4611	1260.6196	65535	64637.2
871.6056	1262.5216	65535	64632.5
871.7501	1264.4229	65535	64635.35
871.8945	1266.3234	65535	64635.65
872.039	1268.2232	65535	64633.3
872.1834	1270.1223	65535	64633.05
872.3278	1272.0207	65535	64633.6
872.4723	1273.9183	65535	64627.9
872.6167	1275.8151	65535	64634.25
872.7611	1277.7113	65535	64633.75
872.9055	1279.6067	65535	64634.6
873.0499	1281.5014	65535	64632.15
873.1943	1283.3953	65535	64631.3
873.3386	1285.2885	65535	64633.45
873.483	1287.181	65535	64632.55
873.6274	1289.0727	65535	64634.8
873.7717	1290.9637	65535	64635.05
873.9161	1292.854	65535	64633.3
874.0604	1294.7435	65535	64632.7
874.2047	1296.6323	65535	64633.5
874.349	1298.5204	65535	64630.45
874.4933	1300.4077	65535	64633.6
874.6376	1302.2943	65535	64635.55
874.7819	1304.1802	65535	64636.15
874.9262	1306.0653	65535	64634.35
875.0705	1307.9497	65535	64635.4
875.2147	1309.8333	65535	64635.8
875.359	1311.7162	65535	64634.65
875.5032	1313.5984	65535	64633.4
875.6475	1315.4798	65535	64633.7
875.7917	1317.3605	65535	64619.55
875.9359	1319.2405	65535	64631.95
876.0801	1321.1197	65535	64634.3
876.2243	1322.9982	65535	64630.8
876.3685	1324.876	65535	64634.55
876.5127	1326.753	65535	64634.4
876.6569	1328.6293	65535	64634.1
876.801	1330.5048	65535	64632.7
876.9452	1332.3796	65535	64636.35
877.0893	1334.2537	65535	64608.95
877.2335	1336.127	65535	64633.75
877.3776	1337.9996	65535	64633.65
877.5217	1339.8714	65535	64633
877.6658	1341.7426	65535	64593.5
877.8099	1343.6129	65535	64635.85
877.954	1345.4826	65535	64634.1
878.0981	1347.3515	65535	64631.2
878.2422	1349.2196	65535	64635.45
878.3862	1351.087	65535	64633.5
878.5303	1352.9537	65535	64634.65
878.6743	1354.8197	65535	64631.85
878.8184	1356.6849	65535	64633.9
878.9624	1358.5493	65535	64637.55
879.1064	1360.4131	65535	64635.95
879.2504	1362.276	65535	64635.9
879.3944	1364.1383	65535	64634.6
879.5384	1365.9998	65535	64630.05
879.6823	1367.8606	65535	64633.9
879.8263	1369.7206	65535	64635.55
879.9702	1371.5799	65535	64629.55
880.1142	1373.4384	65535	64632.05
880.2581	1375.2962	65535	64631.05
880.402	1377.1533	65535	64636.8
880.5459	1379.0096	65535	64636.15
880.6898	1380.8652	65535	64634.9
880.8337	1382.7201	65535	64633.9
880.9776	1384.5742	65535	64635.3
881.1215	1386.4275	65535	64634.25
881.2653	1388.2802	65535	64634.95
881.4092	1390.132	65535	64634.85
881.553	1391.9832	65535	64632.4
881.6968	1393.8336	65535	64633.5
881.8406	1395.6832	65535	64633.6
881.9844	1397.5322	65535	64634.25
882.1282	1399.3803	65535	64630.9
882.272	1401.2278	65535	64636.1
882.4158	1403.0745	65535	64635.2
882.5595	1404.9204	65535	64636.1
882.7033	1406.7656	65535	64635.7
882.847	1408.6101	65535	64633.75
882.9908	1410.4538	65535	64635.35
883.1345	1412.2968	65535	64634.95
883.2782	1414.139	65535	64634.5
883.4219	1415.9805	65535	64634.95
883.5656	1417.8213	65535	64627
883.7092	1419.6613	65535	64635.9
883.8529	1421.5006	65535	64635.7
883.9965	1423.3391	65535	64634.55
884.1402	1425.1769	65535	64635.85
884.2838	1427.0139	65535	64634.6
884.4274	1428.8502	65535	64635.85
884.571	1430.6858	65535	64634.85
884.7146	1432.5206	65535	64635.1
884.8582	1434.3547	65535	64635.85
885.0018	1436.188	65535	64636.65
885.1453	1438.0206	65535	64632.95
885.2889	1439.8524	65535	64634.9
885.4324	1441.6835	65535	64634.65
885.5759	1443.5139	65535	64631.1
885.7194	1445.3435	65535	64635.75
885.8629	1447.1724	65535	64635.45
886.0064	1449.0005	65535	64635.35
886.1499	1450.8279	65535	64633.05
886.2933	1452.6545	65535	64634.9
886.4368	1454.4804	65535	64638.6
886.5802	1456.3056	65535	64628.25
886.7237	1458.13	65535	64635.55
886.8671	1459.9536	65535	64633.4
887.0105	1461.7766	65535	64634.15
887.1539	1463.5987	65535	64633.25
887.2972	1465.4202	65535	64636.8
887.4406	1467.2409	65535	64635.65
887.584	1469.0608	65535	64634.05
887.7273	1470.88	65535	64635.3
887.8706	1472.6984	65535	64635.9
888.0139	1474.5161	65535	64633.65
888.1572	1476.3331	65535	64636.65
888.3005	1478.1493	65535	64635.65
888.4438	1479.9648	65535	64637.6
888.5871	1481.7795	65535	64634.2
888.7303	1483.5935	65535	64637.95
888.8736	1485.4067	65535	64637.8
889.0168	1487.2192	65535	64634.7
889.16	1489.031	65535	64633.75
889.3032	1490.842	65535	64635.55
889.4464	1492.6522	65535	64635.95
889.5896	1494.4618	65535	64635.9
889.7327	1496.2705	65535	64634.5
889.8759	1498.0785	65521.5	64622.5
890.019	1499.8858	65535	64635.75
890.1622	1501.6924	65535	64634.9
890.3053	1503.4981	65530.95	64632.8
890.4484	1505.3032	65535	64636.1
890.5914	1507.1075	65527.25	64627.25
890.7345	1508.911	65530.1	64631.95
890.8776	1510.7138	65526.35	64627.45
891.0206	1512.5159	65532.05	64631.7
891.1637	1514.3172	65481.4	64583.1
891.3067	1516.1178	65512.2	64613.95
891.4497	1517.9176	65526.7	64626.2
891.5927	1519.7166	65511.45	64612.95
891.7357	1521.515	65494.95	64590.85
891.8786	1523.3126	65434.95	64536.2
892.0216	1525.1094	65500.4	64602
892.1645	1526.9055	65469.45	64570.75
892.3074	1528.7008	65481.85	64583.05
892.4503	1530.4954	65427.75	64527.95
892.5932	1532.2893	65477.5	64579.95
892.7361	1534.0824	65427.45	64526.35
892.879	1535.8747	65398.85	64500.95
893.0218	1537.6663	65493.75	64596.15
893.1647	1539.4572	65346.4	64446.45
893.3075	1541.2473	65394.2	64496.5
893.4503	1543.0367	65371.7	64473.35
893.5931	1544.8253	65367.8	64466.25
893.7359	1546.6132	65380.75	64481.7
893.8787	1548.4003	65354.95	64448.4
894.0214	1550.1867	65349.85	64443.25
894.1642	1551.9723	65334.65	64433.35
894.3069	1553.7572	65336.2	64438.75
894.4496	1555.5414	65350.75	64454.55
894.5923	1557.3247	65270.9	64374.95
894.735	1559.1074	65342.4	64446.5
894.8777	1560.8893	65311.6	64413.85
895.0204	1562.6705	65325.5	64427.6
895.163	1564.4509	65270.5	64375.8
895.3056	1566.2305	65292.25	64397.35
895.4482	1568.0094	65326.4	64431.5
895.5908	1569.7876	65295	64399.35
895.7334	1571.565	65267.75	64372.4
895.876	1573.3417	65281.45	64383.9
896.0186	1575.1176	65264.35	64368.8
896.1611	1576.8928	65253.65	64358.4
896.3036	1578.6672	65227.1	64331.65
896.4461	1580.4409	65248.35	64353.6
896.5886	1582.2138	65215.75	64316.65
896.7311	1583.986	65229.95	64333.15
896.8736	1585.7575	65202.6	64307.55
897.0161	1587.5282	65216.65	64321.35
897.1585	1589.2981	65230.1	64336.6
897.3009	1591.0673	65185	64289.85
897.4433	1592.8358	65165.45	64270
897.5857	1594.6035	65196.9	64299.05
897.7281	1596.3704	65192.4	64295.65
897.8705	1598.1366	65157.2	64262.8
898.0128	1599.9021	65135.4	64240
898.1551	1601.6668	65148.55	64252.05
898.2975	1603.4308	65132.05	64235.95
898.4398	1605.194	65152.35	64252.45
898.5821	1606.9564	65106	64213.65
898.7243	1608.7182	65144.9	64246.6
898.8666	1610.4791	65119	64224.55
899.0088	1612.2394	65130.8	64237.7
899.1511	1613.9988	65106.7	64214.4
899.2933	1615.7576	65144.5	64251.8
899.4355	1617.5156	65131.6	64230.7
899.5776	1619.2728	65150.7	64255.2
899.7198	1621.0293	65107.55	64213.8
899.862	1622.785	65099.3	64201.8
900.0041	1624.54	65114.6	64218.1
900.1462	1626.2942	65099	64203
900.2883	1628.0477	65063.9	64165.2
900.4304	1629.8005	65036.65	64137.15
900.5725	1631.5525	65042.7	64147.8
900.7145	1633.3037	65011.15	64116.55
900.8566	1635.0542	65006.5	64113.2
900.9986	1636.804	65023.1	64128
901.1406	1638.553	64992.55	64008.95
901.2826	1640.3013	65006.95	64112.1
901.4245	1642.0488	64979.75	64086.2
901.5665	1643.7955	64992.35	64100.8
901.7085	1645.5416	64978.85	64085.45
901.8504	1647.2868	64962.5	64069.6
901.9923	1649.0313	64991.5	64097.05
902.1342	1650.7751	64973.85	64078.65
902.2761	1652.5181	64941.9	64049.8
902.4179	1654.2604	64946.15	64050.9
902.5598	1656.0019	64961.3	64069.55
902.7016	1657.7427	64948.3	64055.6
902.8434	1659.4828	64954.95	64062.1
902.9852	1661.222	64954.35	64060.2
903.127	1662.9606	64952.95	64059.1
903.2687	1664.6984	64942	64046.6
903.4105	1666.4354	64938.7	64043.6
903.5522	1668.1717	64885.25	63991.55
903.6939	1669.9072	64809.95	63916.05
903.8356	1671.642	64820.2	63924.3
903.9773	1673.3761	64787.7	63896.25
904.119	1675.1094	64735	63843.55
904.2606	1676.8419	64608.9	63716.6
904.4022	1678.5737	64668.1	63776.3
904.5439	1680.3048	64608.3	63715.55
904.6855	1682.0351	64541	63650
904.827	1683.7646	64494.55	63599.2
904.9686	1685.4934	64544.7	63651.5
905.1101	1687.2215	64346.25	63451.4
905.2517	1688.9488	64508.25	63616.65
905.3932	1690.6754	64215.95	63324.1
905.5347	1692.4012	64324.15	63432.4
905.6761	1694.1263	64354.2	63461.15
905.8176	1695.8506	64243.15	63350.3
905.9591	1697.5742	64249.55	63356.7
906.1005	1699.297	64221.45	63330.85
906.2419	1701.0191	64222.7	63329.65
906.3833	1702.7404	64083.3	63192.1
906.5246	1704.461	64034.45	63140.55
906.666	1706.1808	64100.5	63206.1
906.8073	1707.8999	64054.5	63159.1
906.9487	1709.6182	64030.45	63137.5
907.09	1711.3358	64007.15	63114.75
907.2313	1713.0527	63987.1	63096.4
907.3725	1714.7688	63978.85	63083.5
907.5138	1716.4841	63807.45	62914.8
907.655	1718.1987	63904	63004.8
907.7962	1719.9126	63800.2	62908.95
907.9374	1721.6257	63852.2	62958.55
908.0786	1723.338	63859.55	62967.65
908.2198	1725.0496	63588.6	62694.65
908.3609	1726.7605	63636.35	62742.65
908.502	1728.4706	63544.75	62651.35
908.6431	1730.18	63626.7	62733.15
908.7842	1731.8886	63489.5	62598.65
908.9253	1733.5964	63413.75	62517.35
909.0664	1735.3036	63575.25	62680.9
909.2074	1737.0099	63433.35	62540.6
909.3484	1738.7156	63296.6	62406.35
909.4894	1740.4204	63217.45	62323.95
909.6304	1742.1246	63269.5	62374.85
909.7714	1743.8279	63332.3	62441.15
909.9123	1745.5306	63310.35	62417.8
910.0532	1747.2325	62807.3	61915.9
910.1941	1748.9336	62841.7	61952.2
910.335	1750.634	62963.65	62071.35
910.4759	1752.3336	63072.1	62180.45
910.6168	1754.0325	62710.95	61820.05
910.7576	1755.7307	63066.9	62177.05
910.8984	1757.4281	62624	61733
911.0392	1759.1247	62938.4	62039.65
911.18	1760.8206	62427.25	61530.25
911.3208	1762.5158	62514.2	61618.75
911.4615	1764.2102	62630.15	61736.65
911.6022	1765.9039	62504.7	61613.65
911.7429	1767.5968	62376.4	61485.65
911.8836	1769.289	62267.8	61377
912.0243	1770.9804	62389.95	61498.55
912.1649	1772.6711	62223	61332
912.3056	1774.361	62100.5	61206.65
912.4462	1776.0502	62113.35	61220.6
912.5868	1777.7386	61611.8	60719.4
912.7274	1779.4263	61922.65	61031.95
912.8679	1781.1132	61953.15	61062.55
913.0084	1782.7994	61826.2	60935.25
913.149	1784.4849	61817.4	60925.55
913.2895	1786.1696	61251	60354.15
913.4299	1787.8535	61618.7	60728.7
913.5704	1789.5367	61642.45	60752
913.7108	1791.2192	61269.75	60379.1
913.8513	1792.9009	60984.2	60063.85
913.9917	1794.5818	61267	60375
914.132	1796.2621	60929.25	60039.35
914.2724	1797.9415	60970.45	60080.25
914.4128	1799.6202	60911.25	60018.7
914.5531	1801.2982	60916.55	60026.45
914.6934	1802.9755	60560.75	59668.6
914.8337	1804.6519	60440.05	59550
914.9739	1806.3277	60927.85	60037.05
915.1142	1808.0027	60147.75	59256.75
915.2544	1809.6769	60395.6	59503.8
915.3946	1811.3504	60448.75	59557.15
915.5348	1813.0231	59840.45	58948.9
915.675	1814.6951	60223.35	59334
915.8151	1816.3664	60001.75	59107.55
915.9553	1818.0369	60001.5	59109.35
916.0954	1819.7067	59793.05	58904.35
916.2355	1821.3757	60112.5	59218.55
916.3755	1823.044	59655.8	58765.35
916.5156	1824.7115	59281.55	58389.5
916.6556	1826.3783	59483.5	58594.05
916.7956	1828.0443	59491.85	58601.8
916.9356	1829.7096	59316.6	58424.8
917.0756	1831.3741	58787.05	57894.15
917.2155	1833.0379	59098.1	58205.9
917.3555	1834.701	59088.2	58197.15
917.4954	1836.3633	58626.05	57734.65
917.6353	1838.0248	58858.7	57965.5
917.7751	1839.6856	58738.9	57850.1
917.915	1841.3457	58272.3	57382.1
918.0548	1843.005	58790.9	57901.15
918.1946	1844.6636	58485.9	57596.45
918.3344	1846.3214	57788.6	56897.75
918.4742	1847.9785	57976.1	57085.35
918.6139	1849.6349	57885.35	56992.25
918.7537	1851.2904	58330.6	57430.45
918.8934	1852.9453	57495.15	56603.25
919.0331	1854.5994	57871.9	56979.4
919.1727	1856.2528	57890	56992.35
919.3124	1857.9054	57385.55	56495.3
919.452	1859.5572	57064.25	56172.4
919.5916	1861.2083	57344.15	56451.05
919.7312	1862.8587	57830.15	56938.9
919.8708	1864.5084	56438.05	55545.6
920.0103	1866.1572	57125.15	56234.65
920.1498	1867.8054	56357.1	55466.25
920.2893	1869.4528	56708	55816.65
920.4288	1871.0994	56207.8	55317.2
920.5683	1872.7453	56095.05	55203.15
920.7077	1874.3905	56414.55	55515.55
920.8471	1876.0349	55767.35	54874.55
920.9865	1877.6786	56222.65	55330.75
921.1259	1879.3215	55612.5	54722.15
921.2653	1880.9637	56234.6	55343.55
921.4046	1882.6051	55608.3	54715.85
921.5439	1884.2458	55368.4	54476
921.6832	1885.8858	54993.6	54101.75
921.8225	1887.525	55242.1	54349.85
921.9617	1889.1634	55119.35	54228.4
922.101	1890.8011	54843.55	53952.15
922.2402	1892.4381	54221.6	53330.05
922.3794	1894.0743	54894.6	54006.55
922.5185	1895.7098	54449.35	53558.55
922.6577	1897.3446	54062.15	53170
922.7968	1898.9786	54252.5	53358.45
922.9359	1900.6118	53929.8	53039.6
923.075	1902.2443	53615.65	52723.65
923.214	1903.8761	53961.25	53071.75
923.3531	1905.5071	53534.4	52643.25
923.4921	1907.1374	52789.85	51897.9
923.6311	1908.7669	53108.75	52218.55
923.77	1910.3957	53351.65	52461.35
923.909	1912.0237	52682.9	51793.15
924.0479	1913.651	52432.6	51540.55
924.1868	1915.2776	52228.8	51340.95
924.3257	1916.9034	52223.85	51334.15
924.4646	1918.5285	51998.95	51109.65
924.6034	1920.1528	51950.35	51059.65
924.7422	1921.7764	51770.4	50880.8
924.881	1923.3992	51672.75	50784
925.0198	1925.0213	51298.35	50408.85
925.1586	1926.6427	50827.3	49938.6
925.2973	1928.2633	51050.35	50080.55
925.436	1929.8832	50848.25	49955.45
925.5747	1931.5023	50640.05	49750.05
925.7134	1933.1207	50228	49335.3
925.852	1934.7383	50428.75	49538.65
925.9906	1936.3552	50089.05	49198.7
926.1292	1937.9714	50028.15	49137.85
926.2678	1939.5868	49945.7	49053.3
926.4064	1941.2015	49515.45	48623.8
926.5449	1942.8154	49237.75	48346.45
926.6834	1944.4286	49175.8	48285.95
926.8219	1946.041	49100.65	48189.3
926.9604	1947.6528	48842.45	47946.3
927.0988	1949.2637	48627.25	47739.1
927.2372	1950.8739	48408.1	47518.05
927.3756	1952.4834	48465.7	47575.85
927.514	1954.0921	48368.8	47477.6
927.6523	1955.7001	48041.3	47146
927.7907	1957.3074	48083.55	47192.6
927.929	1958.9139	47681.2	46791.55
928.0673	1960.5197	47711.9	46820.2
928.2055	1962.1247	47481.75	46591.55
928.3438	1963.729	47216.6	46328.9
928.482	1965.3325	47049.3	46137.9
928.6202	1966.9353	47058.85	46169.35
928.7584	1968.5374	46660.6	45770.75
928.8965	1970.1387	46596.35	45706.75
929.0346	1971.7393	46491.75	45600.95
929.1727	1973.3392	46281.2	45392.05
929.3108	1974.9383	46106.9	45218.1
929.4489	1976.5366	45915.7	45028.35
929.5869	1978.1342	45869.25	44978.2
929.7249	1979.7311	45679.45	44788.45
929.8629	1981.3273	45615	44725.8
930.0009	1982.9227	45421.65	44530.65
930.1388	1984.5173	45341.1	44452.95
930.2767	1986.1112	45090.45	44201.65
930.4146	1987.7044	45113.25	44222.7
930.5525	1989.2968	44743.6	43854.95
930.6904	1990.8885	44787.3	43892.85
930.8282	1992.4795	44659.35	43767.6
930.966	1994.0697	44451.3	43561.7
931.1038	1995.6592	44279.8	43390.8
931.2415	1997.2479	44208.2	43319.2
931.3793	1998.8359	44086.5	43196.85
931.517	2000.4232	43839.6	42950.95
931.6547	2002.0097	43725.1	42838.2
931.7923	2003.5955	43522.8	42633.25
931.93	2005.1805	43509.8	42618.7
932.0676	2006.7648	43352.95	42462
932.2052	2008.3484	43198.3	42306.05
932.3427	2009.9312	43228.85	42338.7
932.4803	2011.5133	42999.4	42112.25
932.6178	2013.0946	42829.45	41941.85
932.7553	2014.6752	42732.25	41845
932.8928	2016.2551	42642.5	41752.55
933.0302	2017.8342	42414.4	41524.05
933.1676	2019.4126	42260.1	41372.4
933.305	2020.9902	42133.5	41245.05
933.4424	2022.5672	42062.1	41172.5
933.5798	2024.1433	41919.15	41024.55
933.7171	2025.7188	41839.6	40954.55
933.8544	2027.2935	41678.1	40788.25
933.9917	2028.8674	41525.95	40638.9
934.129	2030.4406	41374.15	40488.95
934.2662	2032.0131	41177.7	40290.05
934.4034	2033.5849	41071.2	40176.35
934.5406	2035.1559	40975.45	40087.4
934.6778	2036.7261	40911.45	40023.2
934.8149	2038.2957	40786.2	39897.1
934.952	2039.8645	40716.55	39827.65
935.0891	2041.4325	40804.35	39912.8
935.2262	2042.9998	40476.5	39589.65
935.3632	2044.5664	40359	39469.55
935.5002	2046.1323	40249.8	39362.15
935.6372	2047.6974	40114.25	39225.2
935.7742	2049.2617	40054.65	39167.3
935.9111	2050.8254	40012.95	39118.6
936.048	2052.3883	39901.9	39012.55
936.1849	2053.9504	39785.3	38895.65
936.3218	2055.5118	39658.75	38770.3
936.4586	2057.0725	39461.65	38568.85
936.5955	2058.6325	39363.55	38475.95
936.7323	2060.1917	39232.35	38343.55
936.869	2061.7502	39142.3	38250.7
937.0058	2063.3079	38976.65	38089
937.1425	2064.8649	38837.75	37946.1
937.2792	2066.4212	38750.15	37860.4
937.4159	2067.9767	38647	37758.3
937.5525	2069.5315	38466.3	37577.6
937.6891	2071.0856	38270.75	37382.6
937.8257	2072.6389	38135.3	37245.15
937.9623	2074.1915	37949.2	37062.7
938.0989	2075.7433	37821.2	36929.65
938.2354	2077.2945	37725.8	36838.7
938.3719	2078.8448	37656.5	36768.25
938.5084	2080.3945	37477.3	36589.4
938.6448	2081.9434	37450.75	36562.5
938.7812	2083.4916	37308.55	36419.15
938.9176	2085.039	37131.7	36241.75
939.054	2086.5857	37089.15	36199.55
939.1903	2088.1317	37009.55	36120.7
939.3267	2089.677	36926.65	36036.9
939.463	2091.2215	36791.85	35902.9
939.5992	2092.7652	36667.25	35776.15
939.7355	2094.3083	36566.4	35678.45
939.8717	2095.8506	36512.05	35623.55
940.0079	2097.3921	36528.75	35640.15
940.1441	2098.933	36346	35456.9
940.2802	2100.4731	36274.8	35385.35
940.4163	2102.0124	36199.7	35304.05
940.5524	2103.5511	36099.7	35211.25
940.6885	2105.089	36017.75	35127.95
940.8245	2106.6261	35929.3	35040.45
940.9606	2108.1626	35819.8	34932.1
941.0965	2109.6983	35790	34872.8
941.2325	2111.2332	35669.55	34779.5
941.3684	2112.7675	35566.3	34676.75
941.5044	2114.301	35413.55	34522.75
941.6403	2115.8337	35395.5	34507.05
941.7761	2117.3657	35247.05	34357.35
941.912	2118.897	35221.2	34331.55
942.0478	2120.4276	35078.85	34184.5
942.1835	2121.9575	34862.05	33972.55
942.3193	2123.4866	34903.2	33999.65
942.455	2125.0149	34782.25	33889.65
942.5907	2126.5426	34591.4	33702.2
942.7264	2128.0695	34474.1	33580.45
942.8621	2129.5956	34405.15	33518.6
942.9977	2131.1211	34328.05	33434.35
943.1333	2132.6458	34266.8	33380.75
943.2689	2134.1698	34156.2	33268.25
943.4044	2135.693	34066.5	33175.9
943.54	2137.2155	33980.65	33087.95
943.6755	2138.7373	33876.25	32987.2
943.8109	2140.2584	33807.65	32918
943.9464	2141.7787	33661.65	32766.55
944.0818	2143.2983	33516.2	32629
944.2172	2144.8171	33317.95	32432.65
944.3526	2146.3353	33242.8	32352.15
944.4879	2147.8527	33092.15	32202.8
944.6232	2149.3693	33099.2	32210.6
944.7585	2150.8853	32974.25	32084.85
944.8938	2152.4005	32818.05	31927.55
945.029	2153.9149	32796	31905.65
945.1642	2155.4287	32678.95	31789.95
945.2994	2156.9417	32576.9	31686.95
945.4346	2158.454	32512.6	31620.7
945.5697	2159.9655	32380.5	31490.65
945.7048	2161.4764	32358.75	31469.35
945.8399	2162.9865	32240.1	31351.8
945.9749	2164.4958	32098.9	31209.75
946.1099	2166.0045	31992.5	31102.05
946.2449	2167.5124	31960.8	31070.5
946.3799	2169.0195	31881.3	30992.7
946.5148	2170.526	31811.4	30921.95
946.6498	2172.0317	31732.1	30843.4
946.7846	2173.5367	31637.45	30747.7
946.9195	2175.0409	31564.35	30675.25
947.0543	2176.5445	31496.6	30609.45
947.1891	2178.0473	31365.05	30475.55
947.3239	2179.5494	31273.5	30380.05
947.4587	2181.0507	31098.9	30208.45
947.5934	2182.5513	31009	30120.75
947.7281	2184.0512	30999.15	30108.05
947.8628	2185.5504	30837.05	29947.85
947.9974	2187.0488	30655.85	29767.65
948.132	2188.5465	30590.25	29702.7
948.2666	2190.0435	30474.2	29586.35
948.4012	2191.5397	30338.75	29449.75
948.5357	2193.0353	30304.75	29415.8
948.6702	2194.5301	30121	29232.35
948.8047	2196.0241	30034	29143.65
948.9392	2197.5175	29934.4	29044.4
949.0736	2199.0101	29792.7	28898.25
949.208	2200.502	29709.25	28822.65
949.3424	2201.9931	29608.8	28719.65
949.4767	2203.4835	29472.85	28581.9
949.611	2204.9733	29427.2	28533.4
949.7453	2206.4622	29318.15	28429.8
949.8796	2207.9505	29206.4	28314.35
950.0138	2209.438	29098.25	28211.7
950.148	2210.9248	29047.95	28158.65
950.2822	2212.4109	28880.45	27991.05
950.4164	2213.8962	28766.25	27874.95
950.5505	2215.3809	28703.5	27811.75
950.6846	2216.8648	28644.05	27754.65
950.8186	2218.3479	28561.7	27668.9
950.9527	2219.8304	28456.25	27563.35
951.0867	2221.3121	28325.55	27434.6
951.2207	2222.7931	28268.2	27378.4
951.3546	2224.2733	28137.4	27248.8
951.4886	2225.7529	28065.8	27179.05
951.6225	2227.2317	27927.6	27036.5
951.7563	2228.7098	27887.15	26998.35
951.8902	2230.1872	27713.6	26825.15
952.024	2231.6638	27677.55	26788.15
952.1578	2233.1397	27556.5	26662.65
952.2916	2234.6149	27490.1	26600.85
952.4253	2236.0894	27384.95	26496.25
952.559	2237.5632	27354.35	26464.85
952.6927	2239.0362	27198.35	26310.2
952.8263	2240.5085	27131.9	26243.85
952.9599	2241.9801	27032.15	26142.2
953.0935	2243.4509	26964.15	26075.2
953.2271	2244.921	26854.9	25965.55
953.3606	2246.3904	26711.15	25819.65
953.4941	2247.8591	26653.8	25763.05
953.6276	2249.3271	26586.75	25698.95
953.7611	2250.7943	26492.35	25603.85
953.8945	2252.2608	26381.85	25493.8
954.0279	2253.7266	26343.5	25454.85
954.1612	2255.1917	26286.65	25396.95
954.2946	2256.656	26119.35	25229.15
954.4279	2258.1197	26031.95	25144.75
954.5612	2259.5826	25986.95	25096.85
954.6944	2261.0447	25952.5	25059.2
954.8276	2262.5062	25824.05	24934.25
954.9608	2263.9669	25807.95	24916.05
955.094	2265.4269	25758	24868.3
955.2271	2266.8862	25619.85	24731.5
955.3602	2268.3448	25587.65	24699.05
955.4933	2269.8026	25525.8	24635.65
955.6264	2271.2598	25418.45	24528.6
955.7594	2272.7162	25295.7	24405
955.8924	2274.1719	25282.65	24393.25
956.0253	2275.6268	25191.6	24303.05
956.1583	2277.0811	25130	24241.85
956.2912	2278.5346	25042.75	24155
956.4241	2279.9874	24996.45	24107.15
956.5569	2281.4395	24948.75	24061.55
956.6897	2282.8908	24833.45	23939.1
956.8225	2284.3414	24806.6	23915.7
956.9553	2285.7914	24699.65	23812.7
957.088	2287.2406	24596.1	23707.7
957.2207	2288.689	24542.15	23653.35
957.3534	2290.1368	24479.95	23590.55
957.486	2291.5838	24402.5	23511.1
957.6186	2293.0302	24322.55	23431
957.7512	2294.4758	24180.7	23291.4
957.8838	2295.9206	24078.35	23187.6
958.0163	2297.3648	24042.8	23153
958.1488	2298.8082	24014.15	23122.85
958.2813	2300.251	23929.25	23039.7
958.4137	2301.693	23847.35	22957.35
958.5461	2303.1343	23835.65	22946.7
958.6785	2304.5748	23731.25	22841.95
958.8108	2306.0147	23636.4	22748
958.9432	2307.4538	23555.65	22664.55
959.0754	2308.8922	23472.4	22585.35
959.2077	2310.3299	23402.45	22515.2
959.3399	2311.7669	23318.25	22430.15
959.4721	2313.2031	23264	22375.35
959.6043	2314.6387	23174.25	22284.8
959.7365	2316.0735	23121.75	22232.8
959.8686	2317.5076	23025.8	22137.2
960.0006	2318.941	22998.3	22109.45
960.1327	2320.3737	22923.8	22033.35
960.2647	2321.8056	22856.3	21965.1
960.3967	2323.2369	22746	21854.2
960.5287	2324.6674	22662.85	21772.55
960.6606	2326.0972	22563.65	21672.35
960.7925	2327.5263	22491.1	21604.1
960.9244	2328.9547	22430	21542.45
961.0562	2330.3823	22375	21486.25
961.1881	2331.8092	22324.85	21433.4
961.3198	2333.2355	22230.75	21343.4
961.4516	2334.661	22221.1	21330.55
961.5833	2336.0858	22131.05	21239.6
961.715	2337.5098	22084.9	21197.55
961.8467	2338.9332	22034.3	21142.35
961.9783	2340.3558	21944.9	21051.4
962.1099	2341.7778	21911.2	21023.45
962.2415	2343.199	21793.25	20901.55
962.373	2344.6195	21731.25	20843.45
962.5045	2346.0393	21682.2	20793.45
962.636	2347.4583	21638.05	20748.75
962.7675	2348.8767	21553.65	20665.45
962.8989	2350.2943	21472.1	20581.55
963.0303	2351.7113	21439.15	20550.7
963.1617	2353.1275	21347.8	20458.7
963.293	2354.543	21290.45	20392.25
963.4243	2355.9578	21234.35	20344.45
963.5556	2357.3718	21099.15	20210.9
963.6868	2358.7852	21015.85	20126.45
963.818	2360.1978	20960.2	20071.05
963.9492	2361.6098	20943.6	20054.65
964.0803	2363.021	20820.6	19924.55
964.2114	2364.4315	20777	19888
964.3425	2365.8413	20700.95	19809.7
964.4736	2367.2504	20637.4	19748.95
964.6046	2368.6587	20524.5	19637.6
964.7356	2370.0664	20456.3	19566.4
964.8666	2371.4733	20404.2	19515.15
964.9975	2372.8795	20306.4	19417.95
965.1284	2374.285	20245.3	19355.85
965.2593	2375.6899	20111	19224.2
965.3901	2377.0939	20008.2	19120.65
965.5209	2378.4973	19989.85	19102.75
965.6517	2379.9	19924.05	19035.75
965.7825	2381.3019	19835.4	18948.2
965.9132	2382.7032	19765.2	18877.5
966.0439	2384.1037	19747.85	18860.15
966.1745	2385.5035	19644.15	18755.15
966.3051	2386.9027	19603.15	18717.8
966.4357	2388.3011	19549.4	18658.9
966.5663	2389.6987	19498.45	18609.6
966.6968	2391.0957	19419.7	18532.45
966.8273	2392.492	19325.85	18437.25
966.9578	2393.8876	19225.55	18338.65
967.0882	2395.2824	19158.1	18271.4
967.2186	2396.6765	19052.25	18164.4
967.349	2398.07	19000	18114.45
967.4793	2399.4627	18967	18075.3
967.6097	2400.8547	18934.6	18046.55
967.7399	2402.246	18885.7	17990.3
967.8702	2403.6366	18712.25	17824.8
968.0004	2405.0265	18639.8	17751.65
968.1306	2406.4156	18609.75	17717.8
968.2607	2407.8041	18508.8	17616.3
968.3909	2409.1918	18432.2	17540.55
968.521	2410.5789	18346.35	17456
968.651	2411.9652	18270.4	17379.95
968.781	2413.3508	18213.75	17324.65
968.911	2414.7358	18145.65	17258.3
969.041	2416.12	18067.45	17180.3
969.1709	2417.5035	18031.95	17145.15
969.3008	2418.8863	17948.25	17060
969.4307	2420.2684	17911.25	17022.8
969.5606	2421.6497	17842.5	16953.5
969.6904	2423.0304	17708.55	16820.5
969.8201	2424.4104	17649.8	16759.45
969.9499	2425.7896	17611.4	16721.7
970.0796	2427.1682	17563.45	16675.3
970.2093	2428.546	17526.95	16639
970.3389	2429.9232	17457.85	16567.45
970.4685	2431.2996	17428.15	16540.75
970.5981	2432.6753	17352.85	16464.65
970.7277	2434.0503	17327.5	16438.3
970.8572	2435.4246	17232.3	16347.3
970.9867	2436.7982	17193.05	16303.25
971.1161	2438.1711	17135.15	16244.85
971.2456	2439.5433	17110.1	16221.1
971.375	2440.9148	17014.6	16120.5
971.5043	2442.2856	16914.9	16025.3
971.6336	2443.6557	16883.2	15994.95
971.7629	2445.025	16807.35	15918.95
971.8922	2446.3937	16810.6	15921.55
972.0214	2447.7617	16755.45	15866
972.1506	2449.1289	16689.1	15802.25
972.2798	2450.4955	16629.9	15736.85
972.4089	2451.8613	16582.25	15694
972.538	2453.2265	16520.2	15633.1
972.6671	2454.5909	16483.2	15595.95
972.7961	2455.9546	16454.2	15566.9
972.9251	2457.3177	16359.6	15471.7
973.0541	2458.68	16299.85	15407.55
973.1831	2460.0416	16324.45	15435.9
973.312	2461.4025	16266.8	15377.4
973.4408	2462.7627	16211.9	15312.65
973.5697	2464.1222	16139.95	15252.4
973.6985	2465.4811	16095.4	15205.8
973.8273	2466.8392	16022.4	15136.3
973.956	2468.1966	15979.35	15089.75
974.0847	2469.5533	15981.75	15090.8
974.2134	2470.9093	15937	15048.25
974.3421	2472.2645	15869.9	14978.7
974.4707	2473.6191	15810.75	14921.55
974.5993	2474.973	15752.2	14864.5
974.7278	2476.3262	15664.05	14774.4
974.8563	2477.6787	15637.15	14749.65
974.9848	2479.0305	15553.8	14665.15
975.1132	2480.3816	15507.4	14617.3
975.2417	2481.7319	15461.6	14572.7
975.37	2483.0816	15377.3	14486.15
975.4984	2484.4306	15359.25	14470.7
975.6267	2485.7789	15279.8	14391.75
975.755	2487.1264	15197.7	14308.4
975.8833	2488.4733	15153.9	14266.5
976.0115	2489.8195	15087.3	14191.45
976.1397	2491.165	15049.4	14157.55
976.2678	2492.5097	14996.1	14106.1
976.3959	2493.8538	14908.6	14020.1
976.524	2495.1972	14822.95	13933.6
976.6521	2496.5398	14765.4	13877.25
976.7801	2497.8818	14734.1	13843.85
976.9081	2499.2231	14709.6	13822.5
977.036	2500.5637	14637	13744.6
977.164	2501.9035	14606.25	13717
977.2918	2503.2427	14560.25	13669.3
977.4197	2504.5812	14501.95	13613.95
977.5475	2505.919	14459.25	13568.4
977.6753	2507.256	14430.1	13540.05
977.8031	2508.5924	14352.35	13463.45
977.9308	2509.9281	14306.75	13411.15
978.0585	2511.2631	14253.3	13365.35
978.1861	2512.5974	14229.6	13340.5
978.3137	2513.9309	14185.75	13298.45
978.4413	2515.2638	14136.65	13222.6
978.5689	2516.596	14073.15	13183.3
978.6964	2517.9275	13995.05	13105
978.8239	2519.2583	13950.35	13062.1
978.9513	2520.5884	13900.3	13012.1
979.0788	2521.9178	13833.55	12945.35
979.2062	2523.2465	13815.25	12925.95
979.3335	2524.5745	13716.1	12830.15
979.4608	2525.9018	13732.1	12840.75
979.5881	2527.2284	13672.5	12785
979.7154	2528.5543	13629.4	12741.45
979.8426	2529.8796	13568.35	12678.45
979.9698	2531.2041	13538.45	12650.7
980.0969	2532.5279	13532.3	12645.7
980.224	2533.851	13504.8	12616.7
980.3511	2535.1735	13443	12555.2
980.4781	2536.4952	13426.95	12539.45
980.6052	2537.8163	13380.95	12492.95
980.7321	2539.1366	13330.05	12440.65
980.8591	2540.4562	13302.45	12413.05
980.986	2541.7752	13258.8	12369.75
981.1129	2543.0935	13224.1	12334.75
981.2397	2544.411	13207.8	12320.35
981.3665	2545.7279	13176	12286.9
981.4933	2547.0441	13162.05	12273.9
981.62	2548.3596	13143.6	12253.6
981.7467	2549.6744	13086	12197.35
981.8734	2550.9885	13028.55	12132.95
982.0001	2552.3019	13008.35	12120.8
982.1267	2553.6146	12969.1	12079.85
982.2532	2554.9266	12938.1	12050.7
982.3798	2556.2379	12848.95	11958.95
982.5063	2557.5485	12857.25	11970.35
982.6327	2558.8585	12796.2	11900.25
982.7592	2560.1677	12790.3	11898.9
982.8856	2561.4762	12762.1	11874.25
983.0119	2562.7841	12754.65	11865.5
983.1383	2564.0913	12712.5	11828.25
983.2646	2565.3977	12665.8	11777.25
983.3908	2566.7035	12650.75	11762.7
983.517	2568.0086	12615.2	11725
983.6432	2569.313	12590.1	11702.2
983.7694	2570.6167	12569.35	11677.45
983.8955	2571.9197	12510.75	11623.45
984.0216	2573.222	12482.4	11591.05
984.1476	2574.5236	12470	11581.7
984.2737	2575.8246	12426.35	11536.9
984.3996	2577.1248	12399.2	11508.6
984.5256	2578.4244	12364.5	11476.85
984.6515	2579.7232	12361.5	11474.8
984.7774	2581.0214	12338.65	11427.4
984.9032	2582.3189	12300	11411.45
985.029	2583.6157	12263.8	11370.65
985.1548	2584.9118	12240.7	11352.25
985.2806	2586.2072	12211.5	11324.75
985.4063	2587.5019	12161	11274.3
985.5319	2588.7959	12114.9	11226.3
985.6576	2590.0893	12136.05	11247.3
985.7832	2591.3819	12084.9	11197.1
985.9087	2592.6739	12008.95	11120.75
986.0343	2593.9652	11996.7	11106.75
986.1597	2595.2557	11972.95	11085.8
986.2852	2596.5456	11886.15	10997.35
986.4106	2597.8348	11836.45	10947.05
986.536	2599.1234	11825.3	10938.15
986.6614	2600.4112	11749.8	10862.7
986.7867	2601.6983	11724.5	10833
986.912	2602.9848	11676.3	10786.4
987.0372	2604.2705	11622.7	10727.35
987.1624	2605.5556	11606.45	10717.45
987.2876	2606.84	11545.85	10657.3
987.4128	2608.1237	11489.55	10601.45
987.5379	2609.4067	11451.6	10563.25
987.6629	2610.689	11410.95	10513.6
987.788	2611.9707	11393.7	10502.35
987.913	2613.2516	11348.2	10455.4
988.0379	2614.5319	11310.6	10421.25
988.1629	2615.8115	11229.55	10339.45
988.2878	2617.0903	11224.7	10335.2
988.4126	2618.3685	11167.45	10280.2
988.5375	2619.6461	11118.25	10230.55
988.6622	2620.9229	11061.5	10173.05
988.787	2622.199	11046.2	10155.75
988.9117	2623.4745	11043.55	10156.5
989.0364	2624.7493	10978.2	10091.65
989.161	2626.0234	10939.25	10051.2
989.2857	2627.2968	10886.75	10000.95
989.4102	2628.5695	10847.65	9956.45
989.5348	2629.8415	10756.7	9868.85
989.6593	2631.1128	10740.4	9849.35
989.7837	2632.3835	10695.75	9807.5
989.9082	2633.6535	10636.75	9748.55
990.0326	2634.9228	10608.35	9720.8
990.1569	2636.1914	10593.2	9705.95
990.2812	2637.4593	10582.25	9690.3
990.4055	2638.7265	10530.1	9640.05
990.5298	2639.9931	10492.65	9605.65
990.654	2641.259	10475.05	9585.65
990.7782	2642.5242	10420.85	9532.85
990.9023	2643.7887	10411.4	9521.85
991.0264	2645.0525	10384.75	9495.75
991.1505	2646.3156	10353	9464.65
991.2745	2647.5781	10287.85	9399.85
991.3985	2648.8398	10246.8	9358.4
991.5225	2650.1009	10230.85	9305.75
991.6464	2651.3613	10172.6	9282.4
991.7703	2652.6211	10164.05	9279.35
991.8942	2653.8801	10103.4	9215.05
992.018	2655.1385	10086.35	9193.85
992.1418	2656.3961	10099.05	9212.05
992.2655	2657.6531	10068.45	9180.15
992.3892	2658.9094	10033.75	9146.7
992.5129	2660.1651	10001.95	9112.8
992.6366	2661.42	9940.5	9051.75
992.7602	2662.6743	9952.55	9065.65
992.8837	2663.9279	9926.45	9040.3
993.0073	2665.1808	9868.05	8980.45
993.1307	2666.433	9849.75	8959.5
993.2542	2667.6846	9832.15	8945.5
993.3776	2668.9354	9781.6	8890.3
993.501	2670.1856	9748.85	8860.1
993.6244	2671.4351	9745.1	8855.85
993.7477	2672.6839	9741.85	8851.45
993.8709	2673.9321	9697.4	8809.35
993.9942	2675.1795	9654.1	8765.9
994.1174	2676.4263	9613.5	8727.4
994.2405	2677.6724	9599.85	8714
994.3637	2678.9179	9569.9	8681.4
994.4868	2680.1626	9526.9	8639.45
994.6098	2681.4067	9530.5	8642.85
994.7328	2682.6501	9479.9	8589.95
994.8558	2683.8928	9446.55	8557.5
994.9788	2685.1348	9421.2	8533.25
995.1017	2686.3761	9371.9	8484
995.2245	2687.6168	9324.65	8436.75
995.3474	2688.8568	9315.25	8428.85
995.4702	2690.0961	9268.1	8383.65
995.5929	2691.3348	9267	8377.9
995.7156	2692.5727	9225.4	8335.75
995.8383	2693.81	9186.2	8298.55
995.961	2695.0466	9167.95	8280.4
996.0836	2696.2826	9132.2	8243.95
996.2062	2697.5178	9106.2	8215.2
996.3287	2698.7524	9065.35	8177.4
996.4512	2699.9863	9044.45	8153.15
996.5737	2701.2195	9011.75	8125.9
996.6961	2702.452	8972.3	8082.65
996.8185	2703.6839	8969.25	8078.95
996.9408	2704.9151	8934.2	8046.7
997.0631	2706.1456	8893.3	8007.1
997.1854	2707.3755	8878.3	7990.05
997.3077	2708.6046	8861.5	7971.1
997.4299	2709.8331	8839.95	7950.4
997.552	2711.0609	8787.55	7898.45
997.6742	2712.2881	8775.25	7884.95
997.7963	2713.5145	8746	7856.85
997.9183	2714.7403	8715.2	7826.15
998.0403	2715.9654	8692.2	7804.75
998.1623	2717.1899	8700.55	7804.45
998.2842	2718.4136	8657.4	7771
998.4062	2719.6367	8615	7726.65
998.528	2720.8591	8608.45	7712.7
998.6498	2722.0809	8570.7	7683.7
998.7716	2723.3019	8543.9	7651.85
998.8934	2724.5223	8535.9	7647.45
999.0151	2725.7421	8504.9	7616.55
999.1368	2726.9611	8471	7580.55
999.2584	2728.1795	8463.05	7570.55
999.38	2729.3972	8423.35	7535.6
999.5016	2730.6142	8366.9	7471.7
999.6231	2731.8306	8328.7	7439.55
999.7446	2733.0462	8284.7	7396.1
999.8661	2734.2612	8256.9	7366.95
999.9875	2735.4756	8200.85	7311.4
1000.1089	2736.6892	8149.05	7262.55
1000.2302	2737.9022	8115.7	7228.75
1000.3515	2739.1145	8079	7190.75
1000.4728	2740.3262	8046.35	7149.4
1000.594	2741.5372	7982.45	7094.85
1000.7152	2742.7475	7959.05	7072.7
1000.8363	2743.9571	7924.55	7034.85
1000.9575	2745.1661	7898.45	7006.2
1001.0785	2746.3744	7875.8	6988.25
1001.1996	2747.582	7837.7	6948.85
1001.3206	2748.7889	7825	6933.55
1001.4415	2749.9952	7806.2	6920.2
1001.5625	2751.2008	7740.35	6852.5
1001.6833	2752.4057	7725.45	6835.1
1001.8042	2753.61	7687.25	6796.8
1001.925	2754.8136	7668.9	6779.55
1002.0458	2756.0165	7626.05	6737.85
1002.1665	2757.2188	7620.75	6734.2
1002.2872	2758.4204	7585.45	6697.65
1002.4078	2759.6213	7567.75	6679.65
1002.5285	2760.8215	7561.45	6670.55
1002.649	2762.0211	7513.9	6622.8
1002.7696	2763.22	7495.1	6603.4
1002.8901	2764.4182	7470.75	6581.2
1003.0106	2765.6158	7424.9	6536.8
1003.131	2766.8127	7396.7	6508.6
1003.2514	2768.009	7370.2	6482.9
1003.3717	2769.2045	7343	6453.15
1003.492	2770.3994	7340.15	6451.25
1003.6123	2771.5936	7311.1	6420.55
1003.7325	2772.7872	7278.6	6390.3
1003.8527	2773.9801	7251.85	6363.35
1003.9729	2775.1723	7231.25	6326.6
1004.093	2776.3639	7207.25	6321.05
1004.2131	2777.5548	7184.15	6294.55
1004.3331	2778.745	7144.85	6255.2
1004.4531	2779.9346	7126.4	6237.95
1004.5731	2781.1235	7121.8	6232.45
1004.693	2782.3117	7094.05	6205.9
1004.8129	2783.4992	7074.05	6184.8
1004.9328	2784.6861	7053.4	6165
1005.0526	2785.8723	7021.25	6132.65
1005.1723	2787.0579	7002.15	6113.75
1005.2921	2788.2428	6977.95	6091.55
1005.4118	2789.427	6954.35	6067.6
1005.5314	2790.6106	6944.7	6057.05
1005.651	2791.7935	6924.05	6035.1
1005.7706	2792.9757	6908.5	6022.45
1005.8902	2794.1573	6881.45	5991.15
1006.0097	2795.3382	6874.65	5985.5
1006.1291	2796.5184	6849.8	5962.85
1006.2485	2797.698	6824.05	5936.05
1006.3679	2798.8769	6832.2	5945.75
1006.4873	2800.0551	6813.8	5926.2
1006.6066	2801.2327	6796	5906.4
1006.7258	2802.4096	6800.2	5911.5
1006.8451	2803.5859	6774.05	5885.2
1006.9642	2804.7615	6771.1	5883.3
1007.0834	2805.9364	6765.55	5878.65
1007.2025	2807.1106	6752.45	5868.05
1007.3216	2808.2842	6752.8	5863.8
1007.4406	2809.4572	6771.25	5884.1
1007.5596	2810.6294	6780.75	5892.55
1007.6785	2811.801	6781.15	5895.1
1007.7975	2812.972	6800.05	5915.15
1007.9163	2814.1423	6813.25	5925.9
1008.0352	2815.3119	6842.3	5952.75
1008.154	2816.4808	6853.85	5966.8
1008.2727	2817.6491	6874.05	5985.65
1008.3914	2818.8167	6882.5	5997.15
1008.5101	2819.9837	6941.1	6047.85
1008.6288	2821.15	6946.25	6058.3
1008.7474	2822.3157	6949.9	6063.9
1008.8659	2823.4807	6992.9	6105.9
1008.9844	2824.645	7036.3	6149.05
1009.1029	2825.8086	7066.35	6181
1009.2214	2826.9716	7092.05	6205.85
1009.3398	2828.134	7113.8	6227.75
1009.4581	2829.2957	7127	6238.85
1009.5764	2830.4567	7148.6	6261.9
1009.6947	2831.617	7148.25	6261.75
1009.813	2832.7767	7159.15	6272.5
1009.9312	2833.9358	7128.45	6240
1010.0493	2835.0941	7096.8	6208.3
1010.1675	2836.2519	7098.85	6212.85
1010.2855	2837.4089	7065	6177.1
1010.4036	2838.5653	7031.15	6143.2
1010.5216	2839.7211	7029.6	6142
1010.6396	2840.8761	7002.85	6113.45
1010.7575	2842.0306	6982.3	6095.25
1010.8754	2843.1843	6986.9	6097.95
1010.9932	2844.3374	7019.75	6132.35
1011.111	2845.4899	7062	6172.95
1011.2288	2846.6417	7118.5	6230.1
1011.3465	2847.7928	7136.45	6251.6
1011.4642	2848.9433	7189.15	6301.3
1011.5818	2850.0931	7248.75	6361.8
1011.6995	2851.2422	7281.4	6392.75
1011.817	2852.3907	7318.5	6430.15
1011.9345	2853.5385	7356.05	6466.9
1012.052	2854.6857	7364.8	6467.55
1012.1695	2855.8323	7393	6506.6
1012.2869	2856.9781	7428.95	6541.95
1012.4042	2858.1233	7444.8	6558.25
1012.5216	2859.2679	7464.65	6577.75
1012.6389	2860.4118	7496.7	6609.55
1012.7561	2861.555	7513.15	6621.2
1012.8733	2862.6976	7517.85	6628.1
1012.9905	2863.8395	7539.3	6651.65
1013.1076	2864.9808	7557.2	6669.7
1013.2247	2866.1214	7549.35	6662.95
1013.3417	2867.2614	7532.25	6643.6
1013.4587	2868.4007	7512.55	6624.1
1013.5757	2869.5393	7524.55	6635.25
1013.6926	2870.6773	7497.65	6607.1
1013.8095	2871.8146	7508.35	6618.95
1013.9263	2872.9513	7492.5	6602
1014.0431	2874.0874	7450.75	6562.8
1014.1599	2875.2227	7429.95	6541.95
1014.2766	2876.3574	7393.55	6506.5
1014.3933	2877.4915	7352.7	6465.2
1014.51	2878.6249	7296.2	6410.35
1014.6266	2879.7577	7283.05	6393.3
1014.7431	2880.8898	7242.55	6343.05
1014.8596	2882.0212	7181.85	6296.2
1014.9761	2883.152	7190.75	6304.9
1015.0925	2884.2821	7122.8	6236.4
1015.2089	2885.4116	7102.65	6215.75
1015.3253	2886.5405	7095.45	6207.65
1015.4416	2887.6686	7073.5	6182.95
1015.5579	2888.7962	7062.05	6175.6
1015.6741	2889.923	7042.85	6159.4
1015.7903	2891.0493	7062.3	6175.5
1015.9065	2892.1748	7030.1	6142.6
1016.0226	2893.2997	7020.1	6131.9
1016.1387	2894.424	7001.35	6115.95
1016.2547	2895.5476	7013.7	6126.5
1016.3707	2896.6706	7003.35	6115.85
1016.4866	2897.7929	7017.5	6130.25
1016.6025	2898.9145	7021.3	6133.2
1016.7184	2900.0355	7017.35	6130.8
1016.8342	2901.1559	7036.4	6148.65
1016.95	2902.2756	7035.15	6149.1
1017.0658	2903.3946	7048.4	6161.25
1017.1815	2904.513	7067.3	6176.45
1017.2971	2905.6308	7047.25	6160.45
1017.4127	2906.7479	7058.35	6169.75
1017.5283	2907.8643	7071.8	6185.5
1017.6439	2908.9801	7070.6	6182.9
1017.7594	2910.0953	7029.75	6143.9
1017.8748	2911.2098	7020.9	6129.8
1017.9902	2912.3236	7003	6107.25
1018.1056	2913.4368	6972.65	6081.45
1018.2209	2914.5494	6959.65	6072.05
1018.3362	2915.6613	6888.9	5996.6
1018.4515	2916.7725	6866.5	5976
1018.5667	2917.8831	6833.5	5944.35
1018.6819	2918.9931	6790.4	5900.35
1018.797	2920.1024	6742.05	5852.6
1018.9121	2921.211	6720.2	5833.3
1019.0271	2922.319	6688.45	5800.6
1019.1421	2923.4264	6674.15	5788.4
1019.2571	2924.5331	6642.7	5757.6
1019.372	2925.6391	6624.5	5737.85
1019.4869	2926.7445	6609.9	5724
1019.6017	2927.8493	6573.05	5683.6
1019.7165	2928.9534	6566.55	5678.6
1019.8313	2930.0569	6555.1	5665.5
1019.946	2931.1597	6538.95	5649.5
1020.0606	2932.2619	6519.6	5631.65
1020.1753	2933.3634	6505.8	5618.25
1020.2899	2934.4643	6497.35	5604.9
1020.4044	2935.5645	6480.05	5587.35
1020.5189	2936.6641	6424.9	5533.6
1020.6334	2937.763	6361.55	5475.85
1020.7478	2938.8613	6349.1	5463.55
1020.8622	2939.959	6292.5	5400.15
1020.9765	2941.056	6203.8	5316.45
1021.0908	2942.1523	6119.5	5231.4
1021.2051	2943.248	6052.05	5163.05
1021.3193	2944.3431	5962.35	5075.3
1021.4334	2945.4375	5846.1	4958.1
1021.5476	2946.5313	5747.95	4861.35
1021.6617	2947.6244	5649.05	4761.35
1021.7757	2948.7169	5554.1	4666
1021.8897	2949.8087	5448.7	4560.45
1022.0037	2950.8999	5354.4	4467.9
1022.1176	2951.9904	5260.3	4376.3
1022.2315	2953.0803	5200.05	4313.35
1022.3453	2954.1696	5112.65	4227.45
1022.4591	2955.2582	5066.85	4182.15
1022.5728	2956.3462	5023.25	4136.35
1022.6865	2957.4335	4959.5	4072
1022.8002	2958.5202	4923.05	4034.25
1022.9138	2959.6062	4862.2	3975.2
1023.0274	2960.6916	4843.85	3957.7
1023.141	2961.7764	4821.5	3932.65
1023.2545	2962.8605	4792.8	3905.15
1023.3679	2963.9439	4769.65	3883.2
1023.4813	2965.0267	4741.9	3854.45
1023.5947	2966.1089	4745.8	3836.9
1023.708	2967.1905	4700	3812.8
1023.8213	2968.2714	4684.75	3799.1
1023.9346	2969.3516	4665.35	3778.7
1024.0478	2970.4312	4662.35	3768.05
1024.1609	2971.5102	4643.9	3756.7
1024.274	2972.5885	4618.25	3732.1
1024.3871	2973.6662	4625.85	3734.15
1024.5002	2974.7432	4598.6	3713.35
1024.6132	2975.8196	4575.4	3688.95
1024.7261	2976.8954	4550.85	3666.65
1024.839	2977.9705	4537.75	3648.6
1024.9519	2979.045	4528.15	3641.6
1025.0647	2980.1188	4500.7	3615.95
1025.1775	2981.192	4448.2	3561.95
1025.2902	2982.2645	4430.35	3541.45
1025.4029	2983.3364	4397	3508.65
1025.5156	2984.4077	4355.1	3468.1
1025.6282	2985.4783	4338.05	3445.45
1025.7407	2986.5483	4287.4	3402.45
1025.8532	2987.6177	4255.15	3369.7
1025.9657	2988.6864	4215.05	3327.05
1026.0782	2989.7545	4187.25	3299.35
1026.1906	2990.8219	4146.05	3259.15
1026.3029	2991.8887	4113.55	3223.8
1026.4152	2992.9548	4067.55	3177.9
1026.5275	2994.0204	4035.2	3149.15
1026.6397	2995.0852	3991.5	3105.35
1026.7519	2996.1495	3963.1	3075.8
1026.864	2997.2131	3920.35	3033.6
1026.9761	2998.276	3908.5	3022.1
1027.0882	2999.3383	3882.55	2995.4
1027.2002	3000.4	3845.5	2957.4
1027.3122	3001.4611	3819.25	2931.7
1027.4241	3002.5215	3800.15	2913.6
1027.536	3003.5812	3763.4	2877.65
1027.6478	3004.6404	3747.2	2859.8
1027.7596	3005.6989	3737.15	2847.9
1027.8714	3006.7567	3715.95	2830.3
1027.9831	3007.8139	3719.05	2811.8
1028.0947	3008.8705	3675.05	2788.4
1028.2064	3009.9264	3651.75	2762.05
1028.3179	3010.9818	3644.6	2758.2
1028.4295	3012.0364	3636.3	2747
1028.541	3013.0905	3613.15	2724.95
1028.6524	3014.1439	3615.25	2727.4
1028.7638	3015.1966	3590.45	2702.85
1028.8752	3016.2487	3581	2692.4
1028.9865	3017.3002	3571.25	2680.15
1029.0978	3018.3511	3544.9	2659.15
1029.209	3019.4013	3549.05	2663.25
1029.3202	3020.4509	3548.15	2660.05
1029.4314	3021.4998	3537.35	2651.45
1029.5425	3022.5481	3531.6	2645.15
1029.6535	3023.5958	3501.25	2615.45
1029.7645	3024.6428	3510.3	2623.05
1029.8755	3025.6892	3478.1	2592.25
1029.9864	3026.735	3483	2595.95
1030.0973	3027.7802	3450.9	2564.55
1030.2082	3028.8247	3456.6	2570.4
1030.319	3029.8685	3435.75	2549.85
1030.4297	3030.9118	3420.3	2531.95
1030.5404	3031.9544	3425.5	2538.75
1030.6511	3032.9963	3416.4	2529
1030.7617	3034.0376	3404.25	2517.7
1030.8723	3035.0783	3414.1	2525.8
1030.9829	3036.1184	3397.15	2509.2
1031.0934	3037.1578	3386.35	2498.4
1031.2038	3038.1966	3381.25	2493.4
1031.3142	3039.2348	3378.85	2493.4
1031.4246	3040.2723	3382.95	2487.9
1031.5349	3041.3092	3361.15	2474.25
1031.6452	3042.3455	3348.3	2462.25
1031.7554	3043.3811	3335.15	2446.5
1031.8656	3044.4161	3319.2	2432.4
1031.9758	3045.4505	3309.55	2425.35
1032.0859	3046.4842	3311.35	2425.4
1032.1959	3047.5173	3290.85	2404.85
1032.3059	3048.5498	3278.4	2390.95
1032.4159	3049.5816	3271.15	2383.85
1032.5258	3050.6128	3262.1	2373.9
1032.6357	3051.6434	3245.05	2356.15
1032.7455	3052.6734	3229.65	2343.8
1032.8553	3053.7027	3218.15	2330.75
1032.9651	3054.7314	3207.15	2320.8
1033.0748	3055.7594	3197.7	2314.05
1033.1845	3056.7868	3181.85	2294.6
1033.2941	3057.8136	3169.55	2282.8
1033.4037	3058.8398	3157.9	2272.65
1033.5132	3059.8653	3129.4	2241.95
1033.6227	3060.8902	3124.75	2237.55
1033.7321	3061.9145	3115.5	2227.2
1033.8415	3062.9381	3109.25	2223.55
1033.9509	3063.9612	3109	2206.1
1034.0602	3064.9835	3088.5	2202.35
1034.1694	3066.0053	3068.2	2179.65
1034.2787	3067.0264	3081.5	2194.6
1034.3878	3068.0469	3056.75	2169.85
1034.497	3069.0668	3044	2154.1
1034.6061	3070.086	3029.1	2142.55
1034.7151	3071.1046	3011.65	2125.15
1034.8241	3072.1226	2996.95	2108.8
1034.9331	3073.1399	2976.8	2090.3
1035.042	3074.1567	2969.45	2084
1035.1508	3075.1727	2955.55	2065.8
1035.2597	3076.1882	2924.25	2036.7
1035.3684	3077.203	2929.35	2044.15
1035.4772	3078.2173	2919.25	2031.35
1035.5859	3079.2308	2908.3	2018.15
1035.6945	3080.2438	2890.85	2001.7
1035.8031	3081.2561	2873.5	1986.55
1035.9117	3082.2678	2858.7	1972.55
1036.0202	3083.2789	2846.2	1960.7
1036.1286	3084.2893	2842.4	1957.95
1036.2371	3085.2991	2818.35	1929.3
1036.3454	3086.3083	2821.05	1931.85
1036.4538	3087.3169	2806.45	1918.9
1036.562	3088.3248	2785.35	1896.2
1036.6703	3089.3321	2772.2	1883.35
1036.7785	3090.3388	2776.15	1888.9
1036.8866	3091.3449	2761.3	1874.85
1036.9948	3092.3503	2746.3	1856
1037.1028	3093.3551	2733.05	1847.9
1037.2108	3094.3593	2727.05	1843.05
1037.3188	3095.3629	2707.65	1821.2
1037.4267	3096.3658	2712.7	1823.35
1037.5346	3097.3681	2693.55	1805.95
1037.6425	3098.3698	2680.15	1790.4
1037.7503	3099.3708	2676.55	1783.55
1037.858	3100.3713	2671.15	1786.15
1037.9657	3101.3711	2652.35	1763.8
1038.0734	3102.3702	2757.05	1731.05
1038.181	3103.3688	2649.65	1761.2
1038.2886	3104.3667	2622.8	1735.9
1038.3961	3105.364	2613.3	1727.05
1038.5036	3106.3607	2597	1710.2
1038.611	3107.3568	2587.2	1697.4
1038.7184	3108.3522	2569.7	1683.15
1038.8257	3109.347	2571.7	1684.55
1038.933	3110.3412	2563.2	1672.95
1039.0403	3111.3348	2553.1	1666.9
1039.1475	3112.3277	2534	1647.4
1039.2547	3113.32	2534.95	1649
1039.3618	3114.3117	2515.95	1629.5
1039.4689	3115.3028	2503.35	1616.3
1039.5759	3116.2932	2501.5	1612.55
1039.6829	3117.2831	2504.85	1611.55
1039.7898	3118.2723	2487.55	1600.95
1039.8967	3119.2608	2470.6	1586.3
1040.0035	3120.2488	2467.7	1581.25
1040.1103	3121.2361	2451.4	1564
1040.2171	3122.2229	2434.85	1549
1040.3238	3123.209	2429.9	1543.55
1040.4305	3124.1944	2427.45	1540.7
1040.5371	3125.1793	2423.95	1536.45
1040.6437	3126.1635	2397.9	1511.8
1040.7502	3127.1471	2403.5	1516.75
1040.8567	3128.1301	2392	1504.65
1040.9631	3129.1125	2382.65	1498.1
1041.0695	3130.0942	2385.5	1499.75
1041.1759	3131.0753	2385.65	1492
1041.2822	3132.0558	2364.8	1476.5
1041.3884	3133.0357	2356.95	1470
1041.4946	3134.015	2348.9	1464.75
1041.6008	3134.9936	2356.45	1468.75
1041.7069	3135.9716	2362.7	1456.85
1041.813	3136.949	2338.05	1450.85
1041.919	3137.9258	2332.65	1441.6
1042.025	3138.902	2329.05	1437
1042.1309	3139.8775	2312.65	1427.4
1042.2368	3140.8524	2308.9	1422.15
1042.3427	3141.8267	2309.85	1423.65
1042.4485	3142.8004	2301.8	1414.9
1042.5542	3143.7735	2297	1404.05
1042.6599	3144.7459	2285.5	1395.5
1042.7656	3145.7178	2294.95	1407.6
1042.8712	3146.689	2269.75	1383.35
1042.9768	3147.6596	2261.7	1374.15
1043.0823	3148.6295	2250.45	1365.05
1043.1878	3149.5989	2248.8	1363.65
1043.2932	3150.5676	2237.2	1351.2
1043.3986	3151.5357	2231.6	1346.1
1043.5039	3152.5032	2220.3	1334.2
1043.6092	3153.4701	2219.55	1334
1043.7145	3154.4364	2209.65	1320.1
1043.8197	3155.402	2216.2	1330.85
1043.9248	3156.367	2199.3	1309.4
1044.03	3157.3315	2239	1308.2
1044.135	3158.2952	2189.7	1299.75
1044.24	3159.2584	2168.25	1282.9
1044.345	3160.221	2168.15	1280.95
1044.4499	3161.1829	2160.7	1274.3
1044.5548	3162.1442	2144.8	1259.2
1044.6596	3163.105	2142.25	1255.2
1044.7644	3164.065	2143.1	1255.45
1044.8692	3165.0245	2129.55	1241.55
1044.9739	3165.9834	2123.8	1236.8
1045.0785	3166.9416	2119.8	1234.8
1045.1831	3167.8993	2111.6	1223.2
1045.2877	3168.8563	2093.45	1207
1045.3922	3169.8127	2093.75	1207.2
1045.4966	3170.7684	2097.35	1212.7
1045.6011	3171.7236	2075.75	1189.4
1045.7054	3172.6782	2074.7	1185.9
1045.8098	3173.6321	2069.45	1180.9
1045.914	3174.5854	2066.05	1175.6
1046.0183	3175.5381	2052.2	1166.65
1046.1224	3176.4902	2051	1164.95
1046.2266	3177.4417	2038.55	1152.35
1046.3307	3178.3926	2033.9	1149.4
1046.4347	3179.3428	2037.4	1151.75
1046.5387	3180.2924	2027.05	1141.95
1046.6427	3181.2415	2017.65	1129.8
1046.7466	3182.1899	2015.6	1128.15
1046.8504	3183.1377	2011.1	1125.7
1046.9542	3184.0848	1999.25	1108.35
1047.058	3185.0314	1995	1107.85
1047.1617	3185.9773	1985.8	1099.55
1047.2654	3186.9227	1984.3	1095.55
1047.369	3187.8674	1974.2	1087.3
1047.4726	3188.8115	1968	1077.25
1047.5761	3189.755	1973.9	1086.25
1047.6796	3190.6979	1964.45	1077.2
1047.783	3191.6402	1952.05	1067.3
1047.8864	3192.5818	1945.45	1060.65
1047.9898	3193.5229	1973	1061.35
1048.0931	3194.4633	1944.75	1057.95
1048.1963	3195.4031	1940.1	1054.5
1048.2995	3196.3423	1928.2	1041
1048.4027	3197.2809	1918.75	1033.25
1048.5058	3198.2189	1931.2	1043.25
1048.6089	3199.1563	1918.05	1024.05
1048.7119	3200.0931	1908.9	1023.3
1048.8148	3201.0292	1894.2	1007.75
1048.9178	3201.9648	1894.3	1008.3
1049.0206	3202.8997	1890.45	1002.2
1049.1235	3203.834	1885.2	998.75
1049.2262	3204.7677	1887.55	1001.35
1049.329	3205.7008	1874.4	984.95
1049.4317	3206.6333	1858.15	972.15
1049.5343	3207.5652	1865.15	978.55
1049.6369	3208.4964	1864.55	977.25
1049.7394	3209.4271	1854.1	968.55
1049.8419	3210.3571	1847.95	963.1
1049.9444	3211.2865	1844.75	956.55
1050.0468	3212.2154	1835.65	948.35
1050.1491	3213.1436	1839	948.7
1050.2514	3214.0712	1842.6	950.8
1050.3537	3214.9982	1815.75	929.75
1050.4559	3215.9246	1826.95	939.3
1050.5581	3216.8503	1814.95	931.6
1050.6602	3217.7755	1816.1	927.7
1050.7623	3218.7001	1803.85	919.5
1050.8643	3219.624	1809.45	921.8
1050.9663	3220.5473	1791.3	905.25
1051.0682	3221.4701	1789.9	901.8
1051.1701	3222.3922	1788.95	901
1051.2719	3223.3137	1780.2	893.45
1051.3737	3224.2346	1784.55	899.25
1051.4754	3225.1549	1774.7	888.5
1051.5771	3226.0746	1761.15	874.9
1051.6788	3226.9937	1765.75	878.15
1051.7804	3227.9121	1761.25	877.1
1051.8819	3228.83	1759.75	874.2
1051.9834	3229.7473	1752.2	865.8
1052.0849	3230.6639	1743.75	857.15
1052.1863	3231.5799	1740.15	853.65
1052.2876	3232.4954	1736.75	849.75
1052.3889	3233.4102	1727.85	843.45
1052.4902	3234.3244	1727.95	839.6
1052.5914	3235.238	1719.2	833.15
1052.6926	3236.151	1742.2	832.15
1052.7937	3237.0634	1711.55	825.2
1052.8948	3237.9752	1702.75	817.1
1052.9958	3238.8864	1694.35	806.8
1053.0968	3239.797	1696.6	810.85
1053.1977	3240.7069	1685.6	798.8
1053.2986	3241.6163	1686.85	798.35
1053.3994	3242.5251	1673.85	786.75
1053.5002	3243.4332	1676.85	789.6
1053.6009	3244.3408	1663.5	778.85
1053.7016	3245.2477	1673.85	787.1
1053.8022	3246.154	1662.95	776.2
1053.9028	3247.0598	1652.9	765.15
1054.0034	3247.9649	1651.4	764.95
1054.1039	3248.8694	1639.75	753.05
1054.2043	3249.7733	1638.5	752.4
1054.3047	3250.6766	1638.1	749.65
1054.4051	3251.5793	1633.25	746.55
1054.5054	3252.4814	1617.6	731
1054.6056	3253.3829	1623.35	737.75
1054.7058	3254.2838	1621.85	737.55
1054.806	3255.1841	1615.95	730.8
1054.9061	3256.0838	1614.35	726.65
1055.0061	3256.9829	1599.6	712.9
1055.1062	3257.8814	1604.5	716.2
1055.2061	3258.7792	1587.75	700.9
1055.306	3259.6765	1591.65	705
1055.4059	3260.5731	1574.5	687.3
1055.5057	3261.4692	1567.05	681.05
1055.6055	3262.3647	1555.1	669.55
1055.7052	3263.2595	1551.55	666.3
1055.8049	3264.1538	1543.9	658.35
1055.9045	3265.0474	1529.3	642.35
1056.0041	3265.9404	1521.75	638.45
1056.1036	3266.8329	1514	628.05
1056.2031	3267.7247	1505.7	610.9
1056.3025	3268.616	1487.25	601.6
1056.4019	3269.5066	1472.35	584.5
1056.5013	3270.3966	1456.7	568.55
1056.6005	3271.286	1439.3	553.7
