Software Version:	3.9.2.0
Unit SN:	10000200
Spectrometer SN:	6960
Date:	3/6/2024 10:10:28 AM
Data Line Index:	25
Spectral Points:	2048
Integration time (ms):	125
Averages:	20
Delay (ms):	30
Sequence Number:	1
Processing:	dark subtract
Laser Power (mW):	305
Laser Current (mA):	825
Laser Diode Temp (C):	25
Laser Case Temp (C):	24.9
System Temp (C):	24.7
Spectrometer Temp (C):	22.4
CCD Temp (C):	-0.003
Secondary Temp (C):	20.004
Heatsink Temp (C):	18.613
CCDPCB Temp (C):	32.372
SecondaryPCB Temp (C):	25.869

Wavelength	RamanShift	Raw Counts	Dark Subtracted
787.061	30.1047	904.8	496.95
787.2016	32.3739	933.55	526.85
787.3422	34.6426	949.95	543.75
787.4828	36.9109	990.9	581.9
787.6235	39.1787	1028.55	614.5
787.7642	41.4461	1074.7	655.5
787.9049	43.7131	1113.75	693.3
788.0456	45.9796	1163.7	739.5
788.1863	48.2456	1210.15	784.85
788.3271	50.5112	1260.5	831.25
788.4679	52.7764	1301.55	868
788.6087	55.0411	1361.4	920.4
788.7496	57.3054	1417.7	972.8
788.8904	59.5692	1482.3	1035.55
789.0313	61.8326	1549.8	1103.15
789.1722	64.0955	1621.8	1170.85
789.3132	66.3579	1714.5	1257.95
789.4541	68.6199	1827	1366.05
789.5951	70.8815	2010.9	1545.65
789.7361	73.1426	2422.6	1952.05
789.8771	75.4032	3465.15	2992.3
790.0181	77.6634	6130.55	5654.65
790.1592	79.9231	13024.35	12540.15
790.3003	82.1824	37028.35	36532.6
790.4414	84.4412	59521.05	59003.55
790.5825	86.6995	64308.65	63766.55
790.7237	88.9574	64982.75	64414.05
790.8648	91.2148	65387.2	64803.25
791.006	93.4717	65489.8	64898.15
791.1472	95.7282	65522.65	64923.2
791.2885	97.9842	65531.45	64929.9
791.4297	100.2398	65531.25	64926.25
791.571	102.4949	65535	64927.1
791.7123	104.7495	65535	64921.85
791.8536	107.0036	65531.9	64918.6
791.9949	109.2573	65535	64924.55
792.1363	111.5105	65535	64922.5
792.2777	113.7632	65535	64920.85
792.4191	116.0154	65535	64908.8
792.5605	118.2672	65535	64916.15
792.7019	120.5185	65535	64913.8
792.8434	122.7693	65535	64911.65
792.9849	125.0197	65535	64909.3
793.1264	127.2696	65535	64902.8
793.2679	129.519	65535	64899.8
793.4094	131.7679	65535	64892.75
793.551	134.0163	65535	64891.1
793.6926	136.2642	65535	64889.9
793.8342	138.5117	65535	64889.85
793.9758	140.7587	65535	64885.1
794.1175	143.0052	65535	64880.15
794.2591	145.2512	65535	64878.85
794.4008	147.4967	65535	64880.45
794.5425	149.7417	65535	64875.65
794.6842	151.9863	65535	64873.2
794.826	154.2304	65535	64868.1
794.9677	156.4739	65535	64860.45
795.1095	158.717	65535	64863.3
795.2513	160.9596	65535	64859.5
795.3931	163.2017	65535	64859.3
795.535	165.4433	65535	64857.6
795.6768	167.6844	65535	64855.9
795.8187	169.925	65535	64849.1
795.9606	172.1651	65535	64849.05
796.1025	174.4047	65535	64841.95
796.2445	176.6439	65535	64847.15
796.3864	178.8825	65535	64840.75
796.5284	181.1206	65535	64837.65
796.6704	183.3582	65535	64826.45
796.8124	185.5954	65535	64825.85
796.9544	187.832	65535	64826.2
797.0965	190.0681	65535	64822.5
797.2386	192.3037	65535	64822.15
797.3806	194.5388	65535	64814.95
797.5228	196.7734	65535	64815.15
797.6649	199.0075	65535	64814.2
797.807	201.2411	65535	64808.8
797.9492	203.4742	65535	64810.2
798.0914	205.7068	65535	64804.3
798.2336	207.9389	65535	64806.7
798.3758	210.1704	65535	64810.95
798.518	212.4015	65535	64818.15
798.6603	214.632	65535	64824.55
798.8025	216.862	65535	64824.3
798.9448	219.0915	65535	64828.65
799.0871	221.3205	65535	64823.25
799.2294	223.549	65535	64825.1
799.3718	225.777	65535	64825.3
799.5141	228.0044	65535	64820.45
799.6565	230.2314	65535	64817.85
799.7989	232.4578	65535	64816.25
799.9413	234.6837	65535	64808.45
800.0837	236.909	65535	64806.7
800.2262	239.1339	65535	64776.95
800.3687	241.3582	65535	64793.15
800.5111	243.582	65535	64763.85
800.6536	245.8053	65535	64778.35
800.7961	248.0281	65535	64784.2
800.9387	250.2503	65535	64780.35
801.0812	252.472	65535	64778.75
801.2238	254.6932	65535	64778.9
801.3664	256.9139	65535	64774.25
801.509	259.134	65535	64768.6
801.6516	261.3536	65535	64772
801.7942	263.5727	65535	64770.35
801.9369	265.7912	65535	64769.75
802.0795	268.0092	65535	64767.85
802.2222	270.2267	65535	64772.35
802.3649	272.4436	65535	64771.45
802.5076	274.6601	65535	64761.9
802.6504	276.8759	65535	64769.15
802.7931	279.0913	65535	64762.95
802.9359	281.3061	65535	64761.95
803.0787	283.5204	65535	64760.35
803.2215	285.7341	65535	64754.7
803.3643	287.9473	65535	64745.55
803.5071	290.16	65535	64748.6
803.6499	292.3721	65535	64756
803.7928	294.5837	65535	64756.25
803.9357	296.7947	65535	64756.8
804.0786	299.0052	65535	64758.35
804.2215	301.2152	65535	64753.65
804.3644	303.4246	65535	64755.4
804.5074	305.6334	65535	64755.8
804.6503	307.8418	65535	64750.9
804.7933	310.0495	65535	64751.9
804.9363	312.2568	65535	64749.55
805.0793	314.4635	65535	64744.5
805.2223	316.6696	65535	64741.2
805.3653	318.8752	65535	64734.45
805.5084	321.0802	65535	64741
805.6514	323.2847	65535	64740.55
805.7945	325.4887	65535	64740.45
805.9376	327.692	65535	64738.25
806.0807	329.8949	65535	64738.45
806.2238	332.0972	65535	64734.35
806.367	334.2989	65535	64732
806.5101	336.5001	65535	64733.6
806.6533	338.7007	65535	64731.45
806.7965	340.9008	65535	64730.45
806.9397	343.1003	65535	64729.35
807.0829	345.2992	65535	64728.3
807.2261	347.4976	65535	64724.5
807.3693	349.6955	65535	64722.8
807.5126	351.8927	65535	64721.4
807.6559	354.0895	65535	64710.5
807.7991	356.2856	65535	64719
807.9424	358.4812	65535	64718.85
808.0857	360.6763	65535	64718.75
808.2291	362.8707	65535	64716.05
808.3724	365.0646	65535	64714.45
808.5158	367.258	65535	64710.9
808.6591	369.4508	65535	64711
808.8025	371.643	65535	64709.05
808.9459	373.8346	65535	64705.85
809.0893	376.0257	65535	64705.25
809.2327	378.2162	65535	64707.35
809.3762	380.4062	65535	64702.45
809.5196	382.5956	65535	64705.95
809.6631	384.7844	65535	64709.15
809.8066	386.9726	65535	64711.1
809.9501	389.1603	65535	64716.2
810.0936	391.3474	65535	64671.8
810.2371	393.5339	65535	64711.2
810.3806	395.7199	65535	64711.9
810.5241	397.9052	65535	64710.95
810.6677	400.09	65535	64713.8
810.8113	402.2743	65535	64712.1
810.9548	404.4579	65535	64709
811.0984	406.641	65535	64707.7
811.2421	408.8235	65535	64708.3
811.3857	411.0054	65535	64704.15
811.5293	413.1868	65535	64701.65
811.673	415.3675	65535	64699.4
811.8166	417.5477	65535	64694.2
811.9603	419.7273	65535	64694.75
812.104	421.9064	65535	64688.6
812.2477	424.0848	65535	64693.55
812.3914	426.2627	65535	64692.75
812.5351	428.4399	65535	64690.3
812.6788	430.6166	65535	64693.65
812.8226	432.7928	65535	64688.95
812.9663	434.9683	65535	64687.85
813.1101	437.1432	65535	64691.2
813.2539	439.3176	65535	64690.75
813.3977	441.4914	65535	64697.4
813.5415	443.6645	65535	64689.2
813.6853	445.8371	65535	64689.75
813.8291	448.0091	65535	64690.4
813.973	450.1806	65535	64688.75
814.1168	452.3514	65535	64690.2
814.2607	454.5216	65535	64679.05
814.4046	456.6913	65535	64684.65
814.5485	458.8603	65535	64687.15
814.6924	461.0288	65535	64689.7
814.8363	463.1967	65535	64692.75
814.9802	465.3639	65535	64686.8
815.1241	467.5306	65535	64688
815.2681	469.6967	65535	64687.25
815.412	471.8622	65535	64688.2
815.556	474.0271	65535	64688.3
815.7	476.1914	65535	64680.6
815.844	478.3551	65535	64684.1
815.988	480.5182	65535	64685
816.132	482.6807	65535	64689
816.276	484.8426	65535	64694.05
816.4201	487.0039	65535	64688.25
816.5641	489.1647	65535	64683.25
816.7082	491.3248	65535	64681.7
816.8522	493.4843	65535	64685.35
816.9963	495.6432	65535	64687.2
817.1404	497.8015	65535	64676.5
817.2845	499.9592	65535	64676.15
817.4286	502.1163	65535	64675.5
817.5727	504.2728	65535	64677.05
817.7168	506.4287	65535	64682.5
817.861	508.5839	65535	64683
818.0051	510.7386	65535	64679.6
818.1493	512.8927	65535	64674.55
818.2935	515.0461	65535	64673.65
818.4377	517.199	65535	64676.4
818.5818	519.3512	65535	64669.2
818.726	521.5029	65535	64667.7
818.8703	523.6539	65535	64671.5
819.0145	525.8043	65535	64671.05
819.1587	527.9541	65535	64668.35
819.303	530.1033	65535	64667.85
819.4472	532.2519	65535	64668.9
819.5915	534.3999	65535	64667.5
819.7357	536.5472	65535	64670.1
819.88	538.694	65535	64671.95
820.0243	540.8401	65535	64670
820.1686	542.9856	65535	64661.45
820.3129	545.1305	65535	64662.25
820.4572	547.2748	65535	64655.6
820.6016	549.4185	65535	64655.15
820.7459	551.5615	65535	64657.4
820.8902	553.704	65535	64657
821.0346	555.8458	65535	64663.95
821.1789	557.987	65535	64664.4
821.3233	560.1276	65535	64663.6
821.4677	562.2675	65535	64663.7
821.6121	564.4069	65535	64664.75
821.7565	566.5456	65535	64667
821.9009	568.6837	65535	64665.25
822.0453	570.8212	65535	64665.55
822.1897	572.958	65535	64661.65
822.3342	575.0942	65535	64665.65
822.4786	577.2299	65535	64669
822.6231	579.3648	65535	64673.05
822.7675	581.4992	65535	64676.25
822.912	583.6329	65535	64675.55
823.0565	585.766	65535	64671.05
823.201	587.8985	65535	64669.8
823.3454	590.0304	65535	64638.9
823.4899	592.1616	65535	64656.75
823.6345	594.2922	65535	64655.15
823.779	596.4222	65535	64655.4
823.9235	598.5515	65535	64653.65
824.068	600.6802	65535	64655.25
824.2126	602.8083	65535	64655.2
824.3571	604.9358	65535	64652.6
824.5017	607.0626	65535	64654.45
824.6462	609.1888	65535	64653.35
824.7908	611.3144	65535	64650.15
824.9354	613.4393	65535	64650
825.08	615.5636	65535	64652.2
825.2246	617.6873	65535	64648.9
825.3692	619.8103	65535	64650.5
825.5138	621.9327	65535	64652.55
825.6584	624.0544	65535	64653.95
825.803	626.1756	65535	64654.5
825.9477	628.2961	65535	64651.1
826.0923	630.4159	65535	64647.35
826.237	632.5351	65535	64648.6
826.3816	634.6537	65535	64646.3
826.5263	636.7716	65535	64644.1
826.6709	638.8889	65535	64642.65
826.8156	641.0056	65535	64645.35
826.9603	643.1216	65535	64647.1
827.105	645.237	65535	64643.75
827.2497	647.3518	65535	64647.75
827.3944	649.4659	65535	64656.1
827.5391	651.5793	65535	64651.55
827.6838	653.6922	65535	64652.55
827.8285	655.8043	65535	64649.35
827.9733	657.9159	65535	64647
828.118	660.0268	65535	64647.15
828.2627	662.137	65535	64647.3
828.4075	664.2466	65535	64641.75
828.5522	666.3556	65535	64641.9
828.697	668.4639	65535	64644.5
828.8418	670.5716	65535	64649.8
828.9865	672.6786	65535	64641.55
829.1313	674.785	65535	64640.25
829.2761	676.8907	65535	64646.3
829.4209	678.9958	65535	64646.85
829.5657	681.1002	65535	64642.65
829.7105	683.204	65535	64638.95
829.8553	685.3072	65535	64638.35
830.0001	687.4097	65535	64639
830.1449	689.5115	65535	64639.7
830.2898	691.6127	65535	64643.9
830.4346	693.7132	65535	64643.85
830.5794	695.8131	65535	64621.5
830.7243	697.9123	65535	64635.35
830.8691	700.0109	65535	64637.45
831.014	702.1089	65535	64639.25
831.1588	704.2061	65535	64640.05
831.3037	706.3028	65535	64636.35
831.4486	708.3987	65535	64637.5
831.5935	710.4941	65535	64637.45
831.7383	712.5887	65535	64641.7
831.8832	714.6827	65534.65	64634.7
832.0281	716.7761	65535	64638.2
832.173	718.8688	65535	64636.95
832.3179	720.9608	65535	64632.2
832.4628	723.0522	65535	64631.65
832.6077	725.1429	65530.75	64630.8
832.7527	727.233	65535	64634.45
832.8976	729.3224	65503.65	64602.75
833.0425	731.4112	65532.45	64634.45
833.1874	733.4993	65533.5	64632.55
833.3324	735.5867	65534.55	64634.6
833.4773	737.6735	65525.35	64623.85
833.6222	739.7596	65520	64617.8
833.7672	741.845	65518	64616.65
833.9122	743.9298	65535	64632.9
834.0571	746.014	65518.7	64616.5
834.2021	748.0974	65496	64591.7
834.347	750.1802	65528.95	64621
834.492	752.2624	65480.45	64576.95
834.637	754.3439	65481.95	64576.1
834.782	756.4247	65504.8	64591.35
834.9269	758.5048	65471.9	64565.05
835.0719	760.5843	65478.2	64574.35
835.2169	762.6631	65508.85	64602.6
835.3619	764.7413	65468.55	64562.95
835.5069	766.8188	65457	64553.1
835.6519	768.8956	65489.6	64582.5
835.7969	770.9718	65481.45	64576.15
835.9419	773.0473	65469	64563.8
836.0869	775.1221	65430.05	64525.4
836.232	777.1962	65440.3	64535.95
836.377	779.2697	65385.45	64477.55
836.522	781.3426	65417.4	64491.95
836.667	783.4147	65424.35	64514.65
836.8121	785.4862	65400.5	64495.05
836.9571	787.557	65364.05	64458.35
837.1021	789.6271	65418.75	64511.35
837.2472	791.6966	65400.65	64493.75
837.3922	793.7654	65354.35	64447.3
837.5373	795.8335	65367	64462.6
837.6823	797.901	65383.6	64475.4
837.8274	799.9678	65351.65	64441.75
837.9724	802.0339	65344.2	64436.4
838.1175	804.0993	65345.35	64425.85
838.2626	806.1641	65331.05	64422.7
838.4076	808.2282	65323.25	64417.25
838.5527	810.2916	65309.1	64402.1
838.6978	812.3544	65352.1	64447.3
838.8428	814.4164	65301.6	64392.85
838.9879	816.4778	65308.1	64396.3
839.133	818.5385	65307.4	64394.7
839.2781	820.5986	65297.2	64390.15
839.4232	822.658	65306.15	64395
839.5682	824.7166	65320.05	64410.3
839.7133	826.7747	65258.15	64346.15
839.8584	828.832	65283.25	64373.9
840.0035	830.8886	65314.65	64403.15
840.1486	832.9446	65303.15	64389.75
840.2937	834.9999	65238.5	64328.85
840.4388	837.0545	65266.95	64352.35
840.5839	839.1085	65296.35	64388.5
840.729	841.1618	65280.25	64365.55
840.8741	843.2143	65225.95	64317.95
841.0192	845.2662	65230.65	64318.25
841.1643	847.3175	65251	64339
841.3095	849.368	65197.25	64283.5
841.4546	851.4179	65237.6	64328.4
841.5997	853.467	65194.1	64281.9
841.7448	855.5155	65225.25	64311.7
841.8899	857.5633	65204.75	64294.25
842.0351	859.6105	65186.5	64273.45
842.1802	861.6569	65214.7	64301.9
842.3253	863.7027	65169.1	64257.1
842.4704	865.7478	65178.7	64265.1
842.6156	867.7922	65170.7	64258.2
842.7607	869.8359	65195.75	64281.1
842.9058	871.8789	65140.9	64227.9
843.0509	873.9212	65167.6	64222.75
843.1961	875.9629	65149.6	64235.9
843.3412	878.0039	65153.15	64239.55
843.4863	880.0441	65132.3	64218.95
843.6315	882.0837	65144.5	64229.6
843.7766	884.1226	65146.7	64231.95
843.9218	886.1609	65138.55	64227.65
844.0669	888.1984	65125.05	64212.5
844.212	890.2352	65155.85	64243.25
844.3572	892.2714	65120.15	64201.55
844.5023	894.3069	65128.7	64215.55
844.6475	896.3416	65116.05	64200.45
844.7926	898.3757	65122.5	64206.6
844.9377	900.4091	65088.1	64171.3
845.0829	902.4418	65126.35	64209.45
845.228	904.4739	65091.15	64174.35
845.3732	906.5052	65092.5	64178.35
845.5183	908.5358	65076.95	64160.75
845.6635	910.5658	65069.6	64152.35
845.8086	912.595	65075.35	64160.1
845.9538	914.6236	65046.35	64128.8
846.0989	916.6515	65084.3	64169.7
846.2441	918.6786	65030.4	64111.55
846.3892	920.7051	65039.6	64121.25
846.5344	922.7309	65031.25	64112.15
846.6795	924.756	65044.2	64128.5
846.8246	926.7804	65015.8	64101.85
846.9698	928.8041	64995.7	64076.3
847.1149	930.8272	65014.05	64098.35
847.2601	932.8495	65006.75	64086.45
847.4052	934.8711	64975.8	64059.55
847.5504	936.892	64966	64048.15
847.6955	938.9123	64972.3	64052.95
847.8407	940.9318	64958.45	64044.35
847.9858	942.9506	64946.2	64027.85
848.131	944.9688	64951.05	64032.65
848.2761	946.9862	64921	64001.9
848.4213	949.003	64930.55	64011.9
848.5664	951.019	64905.75	63988
848.7115	953.0344	64905.85	63990
848.8567	955.0491	64892.9	63974.35
849.0018	957.063	64913.95	63997.6
849.147	959.0763	64914.2	63995.25
849.2921	961.0888	64892.65	63972.1
849.4373	963.1007	64893.85	63975.7
849.5824	965.1119	64888.9	63977.45
849.7275	967.1223	64871.7	63962.1
849.8727	969.1321	64878.7	63971.5
850.0178	971.1412	64860.5	63948.75
850.1629	973.1495	64849.1	63933.1
850.3081	975.1572	64871.8	63914.55
850.4532	977.1641	64862.4	63948.8
850.5983	979.1704	64838.1	63919.85
850.7435	981.1759	64844.15	63922.15
850.8886	983.1808	64832.45	63913.65
851.0337	985.1849	64832.25	63904.4
851.1788	987.1884	64825.1	63903
851.324	989.1911	64822	63904.6
851.4691	991.1932	64817.05	63899.95
851.6142	993.1945	64800.7	63883.2
851.7593	995.1951	64795.15	63877.9
851.9045	997.1951	64789.85	63863.15
852.0496	999.1943	64769.55	63854.2
852.1947	1001.1928	64760.35	63844.35
852.3398	1003.1906	64750.7	63833.05
852.4849	1005.1877	64756.25	63838.5
852.63	1007.1841	64743.55	63827.95
852.7751	1009.1798	64732.9	63815.5
852.9202	1011.1748	64715.95	63802.5
853.0653	1013.1691	64710.25	63792.3
853.2104	1015.1627	64701.6	63783.9
853.3555	1017.1556	64695.75	63780.2
853.5006	1019.1477	64685.6	63768.8
853.6457	1021.1392	64669.1	63757
853.7908	1023.1299	64670.35	63760.8
853.9359	1025.12	64653.35	63744.25
854.081	1027.1093	64634.35	63732.4
854.2261	1029.0979	64627.8	63725.25
854.3712	1031.0859	64614.9	63707.85
854.5163	1033.0731	64614.5	63706.2
854.6613	1035.0596	64605.45	63692.4
854.8064	1037.0454	64586.05	63671
854.9515	1039.0304	64583.8	63666.5
855.0965	1041.0148	64572.1	63659.65
855.2416	1042.9985	64575.6	63660.1
855.3867	1044.9814	64565.15	63650.85
855.5317	1046.9636	64555.15	63640.1
855.6768	1048.9452	64546.25	63631.6
855.8219	1050.926	64533.9	63620.4
855.9669	1052.9061	64525.95	63611.8
856.112	1054.8855	64527.5	63611.1
856.257	1056.8642	64525.05	63606.25
856.4021	1058.8421	64512.15	63590.55
856.5471	1060.8194	64499.25	63578.2
856.6921	1062.7959	64500.7	63584.45
856.8372	1064.7717	64497.3	63579.5
856.9822	1066.7469	64493.05	63577.55
857.1272	1068.7213	64492.7	63571.5
857.2723	1070.695	64477.8	63564.5
857.4173	1072.6679	64475.85	63557.6
857.5623	1074.6402	64481.6	63563.5
857.7073	1076.6117	64462.8	63541.15
857.8523	1078.5826	64462.35	63545.1
857.9973	1080.5527	64454.25	63533.9
858.1423	1082.5221	64446.25	63529.35
858.2873	1084.4908	64432.4	63514.85
858.4323	1086.4587	64438.85	63519.7
858.5773	1088.426	64432.75	63515.6
858.7223	1090.3925	64431.65	63512.2
858.8673	1092.3584	64436.2	63518.25
859.0123	1094.3235	64411.25	63494.2
859.1573	1096.2879	64410.15	63491.95
859.3022	1098.2515	64410.1	63492.85
859.4472	1100.2145	64404.55	63486.35
859.5922	1102.1767	64388.55	63468.9
859.7371	1104.1382	64390.8	63473.2
859.8821	1106.099	64383.25	63464.8
860.027	1108.0591	64372.9	63458.65
860.172	1110.0185	64381.2	63464.95
860.3169	1111.9771	64374.85	63457.55
860.4619	1113.9351	64362.7	63447.85
860.6068	1115.8923	64359.6	63442.65
860.7517	1117.8488	64346.85	63430.1
860.8967	1119.8045	64333.85	63415.5
861.0416	1121.7596	64330.55	63414.75
861.1865	1123.7139	64320.75	63403.4
861.3314	1125.6675	64307.05	63392.6
861.4763	1127.6204	64307.9	63393.95
861.6212	1129.5726	64306.4	63389.85
861.7661	1131.524	64300.15	63384.8
861.911	1133.4748	64313.15	63395.85
862.0559	1135.4248	64291.15	63375.35
862.2008	1137.3741	64278.05	63362.7
862.3457	1139.3226	64280.05	63359.2
862.4905	1141.2705	64287.7	63373
862.6354	1143.2176	64267.1	63342.3
862.7803	1145.164	64264.35	63348.3
862.9251	1147.1097	64250.85	63332.95
863.07	1149.0546	64258.9	63339.7
863.2148	1150.9989	64242	63323.5
863.3597	1152.9424	64254.15	63338.65
863.5045	1154.8852	64250	63334.05
863.6493	1156.8272	64249.85	63332.45
863.7942	1158.7686	64238.85	63315.5
863.939	1160.7092	64239.85	63322.05
864.0838	1162.6491	64227.6	63307.9
864.2286	1164.5883	64225.45	63310.4
864.3734	1166.5267	64223.65	63307.8
864.5182	1168.4644	64217.05	63302
864.663	1170.4014	64219.9	63300.4
864.8078	1172.3377	64217.8	63301.3
864.9526	1174.2732	64218.7	63303.25
865.0974	1176.2081	64218.5	63303.1
865.2421	1178.1421	64212.45	63291.5
865.3869	1180.0755	64208	63293.6
865.5317	1182.0082	64202.15	63286.9
865.6764	1183.9401	64204.8	63292.1
865.8212	1185.8713	64182.05	63269.5
865.9659	1187.8017	64195.05	63284.7
866.1106	1189.7315	64179.9	63275.45
866.2554	1191.6605	64165.95	63233.2
866.4001	1193.5888	64148.4	63238.65
866.5448	1195.5163	64129.55	63218.45
866.6895	1197.4432	64136.3	63221.75
866.8342	1199.3693	64109.25	63194.55
866.9789	1201.2947	64108.2	63193.2
867.1236	1203.2193	64124.65	63211.6
867.2683	1205.1432	64065.3	63152.75
867.413	1207.0664	64061.75	63146
867.5576	1208.9889	64051	63133.3
867.7023	1210.9106	64048.7	63136.95
867.847	1212.8316	64015.35	63103.1
867.9916	1214.7519	64016.45	63090.4
868.1363	1216.6715	63982.85	63069.35
868.2809	1218.5903	63976.5	63064.8
868.4255	1220.5084	63970.25	63057.05
868.5701	1222.4257	63973.85	63058.4
868.7148	1224.3424	63964.2	63050.5
868.8594	1226.2583	63921.85	63003.2
869.004	1228.1735	63951.35	63035.65
869.1486	1230.0879	63872.55	62958.3
869.2932	1232.0016	63913.75	63000.1
869.4377	1233.9146	63870.35	62953.6
869.5823	1235.8269	63873	62957.1
869.7269	1237.7384	63864.9	62948.6
869.8715	1239.6492	63853.05	62941.3
870.016	1241.5592	63807.95	62892
870.1606	1243.4686	63835.85	62922.9
870.3051	1245.3772	63772.65	62858.4
870.4496	1247.285	63814.05	62898.55
870.5941	1249.1922	63760.85	62848.8
870.7387	1251.0986	63781.8	62867.05
870.8832	1253.0042	63763.65	62849.95
871.0277	1254.9092	63768.85	62854.45
871.1722	1256.8134	63704.95	62794.4
871.3167	1258.7169	63752.9	62839.45
871.4611	1260.6196	63711.6	62796.6
871.6056	1262.5216	63698	62784.05
871.7501	1264.4229	63723.15	62810.7
871.8945	1266.3234	63746.45	62831.8
872.039	1268.2232	63723.95	62809.45
872.1834	1270.1223	63677.45	62763.2
872.3278	1272.0207	63664.3	62748.25
872.4723	1273.9183	63671.2	62750.85
872.6167	1275.8151	63667.2	62750.65
872.7611	1277.7113	63656.15	62743.2
872.9055	1279.6067	63609.95	62699.15
873.0499	1281.5014	63610.7	62695.95
873.1943	1283.3953	63653.15	62738.35
873.3386	1285.2885	63623.4	62712.35
873.483	1287.181	63632.4	62720.35
873.6274	1289.0727	63624.9	62712.7
873.7717	1290.9637	63496.35	62581.75
873.9161	1292.854	63652.7	62738.25
874.0604	1294.7435	63611.4	62696.2
874.2047	1296.6323	63615.7	62700
874.349	1298.5204	63582.05	62663.55
874.4933	1300.4077	63605.85	62691.65
874.6376	1302.2943	63545.65	62631.75
874.7819	1304.1802	63489.25	62574.85
874.9262	1306.0653	63464.4	62550.45
875.0705	1307.9497	63456.7	62545
875.2147	1309.8333	63458.9	62547.5
875.359	1311.7162	63390	62476.85
875.5032	1313.5984	63433.15	62515.75
875.6475	1315.4798	63331.55	62408.7
875.7917	1317.3605	63336.95	62411
875.9359	1319.2405	63330.15	62414.6
876.0801	1321.1197	63168.2	62251.5
876.2243	1322.9982	63252.9	62334.3
876.3685	1324.876	63176.45	62263.85
876.5127	1326.753	63047.1	62135.3
876.6569	1328.6293	63294.45	62381.45
876.801	1330.5048	63187.5	62272.45
876.9452	1332.3796	63043.7	62131.4
877.0893	1334.2537	62970.15	62032.4
877.2335	1336.127	63072	62157.6
877.3776	1337.9996	62922.8	62010.7
877.5217	1339.8714	63076.95	62164.05
877.6658	1341.7426	62757.05	61797.65
877.8099	1343.6129	62932.9	62019.05
877.954	1345.4826	62934.6	62023.5
878.0981	1347.3515	62701.6	61785.5
878.2422	1349.2196	62894.5	61980.95
878.3862	1351.087	62840.7	61927.15
878.5303	1352.9537	62844.6	61929.15
878.6743	1354.8197	62858.55	61945.75
878.8184	1356.6849	62830.65	61917.85
878.9624	1358.5493	62789.7	61875.55
879.1064	1360.4131	62678.8	61762.65
879.2504	1362.276	62879.1	61967.55
879.3944	1364.1383	62651.6	61739.45
879.5384	1365.9998	62536.65	61616.4
879.6823	1367.8606	62651	61738.6
879.8263	1369.7206	62531.5	61617.45
879.9702	1371.5799	62467.85	61551.75
880.1142	1373.4384	62349.65	61434.2
880.2581	1375.2962	62428.15	61515.85
880.402	1377.1533	62208.05	61297.15
880.5459	1379.0096	62131.95	61217.9
880.6898	1380.8652	62124.45	61213.65
880.8337	1382.7201	62034.55	61120.4
880.9776	1384.5742	62048.55	61137.9
881.1215	1386.4275	61833.55	60919.65
881.2653	1388.2802	61892.1	60981.05
881.4092	1390.132	61934.6	61021.05
881.553	1391.9832	61726.8	60814.75
881.6968	1393.8336	61622.05	60709.4
881.8406	1395.6832	61656.2	60740.3
881.9844	1397.5322	61734.55	60820.85
882.1282	1399.3803	61526.4	60610.3
882.272	1401.2278	61506.1	60592.8
882.4158	1403.0745	61448.9	60536.35
882.5595	1404.9204	61405.5	60496.65
882.7033	1406.7656	61407.05	60495.85
882.847	1408.6101	61240.7	60330.05
882.9908	1410.4538	61262.55	60350.95
883.1345	1412.2968	61286	60373.25
883.2782	1414.139	61120.2	60207.2
883.4219	1415.9805	61188.3	60278.4
883.5656	1417.8213	61062.5	60144.5
883.7092	1419.6613	61144.7	60232.35
883.8529	1421.5006	61035.5	60121.9
883.9965	1423.3391	60997.75	60087.2
884.1402	1425.1769	60982.6	60069.9
884.2838	1427.0139	61104.35	60192.15
884.4274	1428.8502	61042.05	60130.25
884.571	1430.6858	61065.85	60155.35
884.7146	1432.5206	61195.6	60286.25
884.8582	1434.3547	61036.65	60123
885.0018	1436.188	60965.35	60054.5
885.1453	1438.0206	61021.15	60108.65
885.2889	1439.8524	60955	60044.45
885.4324	1441.6835	60887.95	59975.95
885.5759	1443.5139	60926	60010.6
885.7194	1445.3435	60834.3	59924.9
885.8629	1447.1724	60856.2	59945.25
886.0064	1449.0005	60689.6	59778.15
886.1499	1450.8279	60774.7	59865.05
886.2933	1452.6545	60772.8	59859.85
886.4368	1454.4804	60708.1	59800.25
886.5802	1456.3056	60624.65	59706.35
886.7237	1458.13	60645	59735.6
886.8671	1459.9536	60718.75	59808.7
887.0105	1461.7766	60571.75	59663
887.1539	1463.5987	60417.35	59505.45
887.2972	1465.4202	60414.55	59506.65
887.4406	1467.2409	60317.7	59408.25
887.584	1469.0608	60159.65	59252.3
887.7273	1470.88	60210.35	59299.25
887.8706	1472.6984	60199.15	59288.75
888.0139	1474.5161	59916.6	59003.45
888.1572	1476.3331	59994.5	59084.75
888.3005	1478.1493	59839.6	58929.45
888.4438	1479.9648	59791.95	58881.9
888.5871	1481.7795	59858.8	58946.45
888.7303	1483.5935	59880.85	58972.85
888.8736	1485.4067	59613.8	58704.85
889.0168	1487.2192	59712.9	58802.3
889.16	1489.031	59563.75	58651.25
889.3032	1490.842	59627.7	58718.1
889.4464	1492.6522	59633.45	58725.05
889.5896	1494.4618	59487.55	58574.6
889.7327	1496.2705	59543.65	58631.15
889.8759	1498.0785	59278.7	58368.6
890.019	1499.8858	59387.65	58478.5
890.1622	1501.6924	59495.15	58587.45
890.3053	1503.4981	59259.25	58350.1
890.4484	1505.3032	59326.85	58418.45
890.5914	1507.1075	59153.15	58243.5
890.7345	1508.911	59146	58239.7
890.8776	1510.7138	59132.55	58221.15
891.0206	1512.5159	59176.5	58266.5
891.1637	1514.3172	58841.8	57933.1
891.3067	1516.1178	58855.05	57948.65
891.4497	1517.9176	58980	58066.9
891.5927	1519.7166	58835.8	57927.4
891.7357	1521.515	58758.15	57846.95
891.8786	1523.3126	58577.75	57669.4
892.0216	1525.1094	58679.8	57771.35
892.1645	1526.9055	58595.55	57687.8
892.3074	1528.7008	58579.05	57671.8
892.4503	1530.4954	58345.3	57437
892.5932	1532.2893	58483.2	57577.8
892.7361	1534.0824	58266.7	57357
892.879	1535.8747	58167.65	57264.5
893.0218	1537.6663	58381.1	57475.6
893.1647	1539.4572	57904	57000.65
893.3075	1541.2473	58080.45	57174.15
893.4503	1543.0367	57978.2	57074.5
893.5931	1544.8253	57908.6	56996.75
893.7359	1546.6132	57959.2	57050.65
893.8787	1548.4003	57791.3	56874
894.0214	1550.1867	57735.7	56824.1
894.1642	1551.9723	57665.25	56757
894.3069	1553.7572	57673.2	56766.6
894.4496	1555.5414	57730.65	56827.55
894.5923	1557.3247	57462.65	56560.05
894.735	1559.1074	57609	56705.65
894.8777	1560.8893	57530.15	56629.65
895.0204	1562.6705	57541.55	56638.25
895.163	1564.4509	57370.6	56468.35
895.3056	1566.2305	57393.5	56494
895.4482	1568.0094	57537.25	56638.75
895.5908	1569.7876	57440.05	56540.45
895.7334	1571.565	57252.45	56351.2
895.876	1573.3417	57293	56392.55
896.0186	1575.1176	57253.65	56353.6
896.1611	1576.8928	57176.15	56276.3
896.3036	1578.6672	57044.9	56149.9
896.4461	1580.4409	57032.3	56137.85
896.5886	1582.2138	56903.35	56003.45
896.7311	1583.986	56925.65	56027.3
896.8736	1585.7575	56832.7	55932.1
897.0161	1587.5282	56827.5	55930.6
897.1585	1589.2981	56876.25	55981.3
897.3009	1591.0673	56695.7	55799.25
897.4433	1592.8358	56615.3	55718.65
897.5857	1594.6035	56697.05	55796.65
897.7281	1596.3704	56708.65	55808.25
897.8705	1598.1366	56493.35	55594.35
898.0128	1599.9021	56418.65	55520.05
898.1551	1601.6668	56490.85	55589.45
898.2975	1603.4308	56398.6	55496.75
898.4398	1605.194	56461.45	55559.1
898.5821	1606.9564	56233.7	55337.05
898.7243	1608.7182	56317.15	55421.5
898.8666	1610.4791	56258.55	55369.1
899.0088	1612.2394	56344.35	55455.8
899.1511	1613.9988	56236.6	55346.05
899.2933	1615.7576	56350.4	55457.65
899.4355	1617.5156	56331.6	55424.85
899.5776	1619.2728	56473.05	55574.65
899.7198	1621.0293	56225.95	55327.3
899.862	1622.785	56150	55247.45
900.0041	1624.54	56140.65	55244.85
900.1462	1626.2942	55958.05	55063.1
900.2883	1628.0477	55698.8	54801.8
900.4304	1629.8005	55547.25	54650.35
900.5725	1631.5525	55579.85	54685
900.7145	1633.3037	55348.65	54454.45
900.8566	1635.0542	55320.8	54424.7
900.9986	1636.804	55298.5	54402.05
901.1406	1638.553	55181.15	54242.5
901.2826	1640.3013	55105.65	54211.6
901.4245	1642.0488	54997.9	54104.5
901.5665	1643.7955	55018.25	54125.2
901.7085	1645.5416	54953.25	54059.5
901.8504	1647.2868	54884.1	53992.7
901.9923	1649.0313	54948.55	54052.25
902.1342	1650.7751	54881.8	53984.1
902.2761	1652.5181	54802.25	53906.35
902.4179	1654.2604	54778.9	53886.4
902.5598	1656.0019	54816.95	53924.55
902.7016	1657.7427	54801.25	53906.9
902.8434	1659.4828	54856.3	53963.05
902.9852	1661.222	54784	53886.95
903.127	1662.9606	54802	53908.55
903.2687	1664.6984	54672.45	53776.95
903.4105	1666.4354	54585.4	53687.85
903.5522	1668.1717	54347.4	53449.2
903.6939	1669.9072	54103.2	53205.4
903.8356	1671.642	53985.55	53085.45
903.9773	1673.3761	53886.15	52991.25
904.119	1675.1094	53761.4	52867.4
904.2606	1676.8419	53605.05	52713.1
904.4022	1678.5737	53505.6	52610.9
904.5439	1680.3048	53428.4	52533.2
904.6855	1682.0351	53252.5	52358.05
904.827	1683.7646	53138.45	52239.35
904.9686	1685.4934	53143.65	52251.2
905.1101	1687.2215	52911.7	52018.1
905.2517	1688.9488	52947.95	52056.35
905.3932	1690.6754	52615.85	51725.35
905.5347	1692.4012	52704.95	51809.7
905.6761	1694.1263	52665.55	51772.25
905.8176	1695.8506	52516.25	51620.75
905.9591	1697.5742	52467.6	51574.5
906.1005	1699.297	52351.8	51458.3
906.2419	1701.0191	52299.1	51409.35
906.3833	1702.7404	52132.55	51241.65
906.5246	1704.461	51954.05	51060.5
906.666	1706.1808	51995.4	51101.6
906.8073	1707.8999	51947.5	51054.95
906.9487	1709.6182	51838.25	50945.95
907.09	1711.3358	51766.1	50877.6
907.2313	1713.0527	51659.95	50772.8
907.3725	1714.7688	51609.45	50714.45
907.5138	1716.4841	51351.4	50461
907.655	1718.1987	51430.75	50531.7
907.7962	1719.9126	51362.05	50472.15
907.9374	1721.6257	51297.25	50406.35
908.0786	1723.338	51301.3	50410.2
908.2198	1725.0496	50992.15	50101.1
908.3609	1726.7605	51015.4	50123.95
908.502	1728.4706	50879.05	49987.8
908.6431	1730.18	50868.4	49976.65
908.7842	1731.8886	50760.2	49871.5
908.9253	1733.5964	50698.3	49802.45
909.0664	1735.3036	50708.75	49816.1
909.2074	1737.0099	50600.3	49709.45
909.3484	1738.7156	50462.8	49573.5
909.4894	1740.4204	50319.4	49427.7
909.6304	1742.1246	50391.35	49500
909.7714	1743.8279	50349.55	49459.1
909.9123	1745.5306	50312.55	49424.85
910.0532	1747.2325	49948.7	49060.05
910.1941	1748.9336	49934.8	49043.4
910.335	1750.634	49934.25	49041.9
910.4759	1752.3336	49971.8	49082.2
910.6168	1754.0325	49711.2	48824.25
910.7576	1755.7307	49896.4	49009.85
910.8984	1757.4281	49623	48733.3
911.0392	1759.1247	49768.2	48869.6
911.18	1760.8206	49441.9	48543.65
911.3208	1762.5158	49450.6	48556
911.4615	1764.2102	49444.8	48553.9
911.6022	1765.9039	49332.5	48441.25
911.7429	1767.5968	49235.5	48347.35
911.8836	1769.289	49126.35	48237.1
912.0243	1770.9804	49146.7	48257.6
912.1649	1772.6711	49079.35	48188.6
912.3056	1774.361	48939.65	48046.1
912.4462	1776.0502	48963.8	48071.85
912.5868	1777.7386	48673.05	47778.8
912.7274	1779.4263	48752.9	47861.45
912.8679	1781.1132	48735.85	47849.25
913.0084	1782.7994	48612.65	47721.95
913.149	1784.4849	48637.9	47751.25
913.2895	1786.1696	48210.15	47316.6
913.4299	1787.8535	48396	47509
913.5704	1789.5367	48366.85	47481.7
913.7108	1791.2192	48146.85	47257.7
913.8513	1792.9009	47925	47009.4
913.9917	1794.5818	48075.8	47185.65
914.132	1796.2621	47842.4	46952.65
914.2724	1797.9415	47819.45	46930.45
914.4128	1799.6202	47726.05	46834.35
914.5531	1801.2982	47697.1	46806.15
914.6934	1802.9755	47366.25	46473.45
914.8337	1804.6519	47260.75	46370.45
914.9739	1806.3277	47622.55	46735
915.1142	1808.0027	46939.7	46052.3
915.2544	1809.6769	47130.35	46242.25
915.3946	1811.3504	47167	46280.5
915.5348	1813.0231	46606.65	45719.4
915.675	1814.6951	46929.8	46042.15
915.8151	1816.3664	46763.5	45871.9
915.9553	1818.0369	46679.3	45789.5
916.0954	1819.7067	46497.85	45612.5
916.2355	1821.3757	46758.05	45867.8
916.3755	1823.044	46376.6	45486.6
916.5156	1824.7115	46040.65	45150.9
916.6556	1826.3783	46173.95	45285.6
916.7956	1828.0443	46127.2	45238.1
916.9356	1829.7096	45950.65	45058
917.0756	1831.3741	45625.5	44733.9
917.2155	1833.0379	45738.25	44849.6
917.3555	1834.701	45690.4	44801.8
917.4954	1836.3633	45410.3	44524
917.6353	1838.0248	45570.7	44680.05
917.7751	1839.6856	45398.3	44508.2
917.915	1841.3457	45096.95	44209
918.0548	1843.005	45338	44448.75
918.1946	1844.6636	45121.9	44232.55
918.3344	1846.3214	44758.2	43868.75
918.4742	1847.9785	44877.4	43988.95
918.6139	1849.6349	44780.9	43890.85
918.7537	1851.2904	44990	44089.65
918.8934	1852.9453	44525.7	43633.1
919.0331	1854.5994	44643.75	43752.95
919.1727	1856.2528	44591.45	43694.35
919.3124	1857.9054	44322.45	43431.7
919.452	1859.5572	44156.95	43266.65
919.5916	1861.2083	44270.25	43381.6
919.7312	1862.8587	44562.65	43673.8
919.8708	1864.5084	43774.4	42883.1
920.0103	1866.1572	44079.7	43190.45
920.1498	1867.8054	43626.7	42735.5
920.2893	1869.4528	43818.5	42927.45
920.4288	1871.0994	43435.5	42545.7
920.5683	1872.7453	43427.45	42537.4
920.7077	1874.3905	43520.75	42622.9
920.8471	1876.0349	43177.35	42288.4
920.9865	1877.6786	43426.25	42534.5
921.1259	1879.3215	43073.05	42183.05
921.2653	1880.9637	43376.75	42485.85
921.4046	1882.6051	43041.8	42152.25
921.5439	1884.2458	42827.7	41936.2
921.6832	1885.8858	42619.75	41730.25
921.8225	1887.525	42697.4	41809.45
921.9617	1889.1634	42534.4	41643.85
922.101	1890.8011	42391.4	41502.75
922.2402	1892.4381	42094.3	41205.6
922.3794	1894.0743	42366.8	41477.05
922.5185	1895.7098	42148	41258.75
922.6577	1897.3446	41912.85	41021.75
922.7968	1898.9786	41924.1	41031.75
922.9359	1900.6118	41757.1	40868.25
923.075	1902.2443	41521.6	40629.6
923.214	1903.8761	41648.5	40758.95
923.3531	1905.5071	41352.65	40459.95
923.4921	1907.1374	40962.45	40073.5
923.6311	1908.7669	41088.45	40200.65
923.77	1910.3957	41155.95	40268
923.909	1912.0237	40778.1	39890.45
924.0479	1913.651	40692.15	39804.65
924.1868	1915.2776	40606.4	39718.95
924.3257	1916.9034	40524.65	39638.8
924.4646	1918.5285	40332.85	39447.65
924.6034	1920.1528	40227.4	39337.85
924.7422	1921.7764	40171.4	39282.8
924.881	1923.3992	39965.3	39079.95
925.0198	1925.0213	39744	38855.25
925.1586	1926.6427	39467.75	38579.95
925.2973	1928.2633	39618.35	38525.8
925.436	1929.8832	39385.2	38491.4
925.5747	1931.5023	39184.35	38297.75
925.7134	1933.1207	39031	38140.85
925.852	1934.7383	39127.45	38239
925.9906	1936.3552	38829.25	37941.7
926.1292	1937.9714	38819.55	37931.6
926.2678	1939.5868	38694.25	37803.6
926.4064	1941.2015	38413.6	37524.4
926.5449	1942.8154	38224.4	37336.5
926.6834	1944.4286	38175.75	37287.35
926.8219	1946.041	38081.25	37166.2
926.9604	1947.6528	37854.35	36962.1
927.0988	1949.2637	37743.2	36855.15
927.2372	1950.8739	37587.75	36700.35
927.3756	1952.4834	37583	36693.25
927.514	1954.0921	37531	36642.15
927.6523	1955.7001	37317.7	36426.85
927.7907	1957.3074	37225.45	36340.6
927.929	1958.9139	37023.45	36138.3
928.0673	1960.5197	36995.35	36109.2
928.2055	1962.1247	36798.8	35914.55
928.3438	1963.729	36631.7	35750.1
928.482	1965.3325	36525.7	35616.55
928.6202	1966.9353	36449.05	35563.3
928.7584	1968.5374	36227.4	35341.25
928.8965	1970.1387	36154.5	35267.85
929.0346	1971.7393	36083.75	35199.05
929.1727	1973.3392	35907.65	35023.05
929.3108	1974.9383	35774.6	34888.75
929.4489	1976.5366	35607.6	34722.7
929.5869	1978.1342	35592.55	34708.05
929.7249	1979.7311	35501.65	34615.7
929.8629	1981.3273	35422.95	34539.45
930.0009	1982.9227	35292.6	34406.3
930.1388	1984.5173	35168.2	34285.95
930.2767	1986.1112	34956.7	34073.35
930.4146	1987.7044	35003.7	34121.15
930.5525	1989.2968	34774.05	33888.5
930.6904	1990.8885	34774.75	33887.55
930.8282	1992.4795	34647.3	33761.6
930.966	1994.0697	34518.25	33634.85
931.1038	1995.6592	34415.6	33530
931.2415	1997.2479	34289.1	33405.65
931.3793	1998.8359	34210.5	33326.5
931.517	2000.4232	34027.3	33146.15
931.6547	2002.0097	33974.05	33093
931.7923	2003.5955	33797.65	32915.3
931.93	2005.1805	33756	32870.55
932.0676	2006.7648	33642.7	32759.45
932.2052	2008.3484	33566.55	32684.05
932.3427	2009.9312	33624.5	32743.1
932.4803	2011.5133	33412.8	32532.15
932.6178	2013.0946	33316.9	32435.5
932.7553	2014.6752	33179.1	32294.7
932.8928	2016.2551	33119.25	32235.2
933.0302	2017.8342	32984.75	32101.2
933.1676	2019.4126	32849.55	31967.3
933.305	2020.9902	32718.6	31837.2
933.4424	2022.5672	32648.65	31766.1
933.5798	2024.1433	32659.55	31771.95
933.7171	2025.7188	32505.95	31626.7
933.8544	2027.2935	32366.75	31485.85
933.9917	2028.8674	32284.8	31402.7
934.129	2030.4406	32212.35	31331.35
934.2662	2032.0131	32028.7	31147.9
934.4034	2033.5849	31935.45	31047
934.5406	2035.1559	31856.45	30975.2
934.6778	2036.7261	31837.95	30956.65
934.8149	2038.2957	31720.9	30836.3
934.952	2039.8645	31615.9	30734
935.0891	2041.4325	31686.15	30799.4
935.2262	2042.9998	31527.65	30644.3
935.3632	2044.5664	31360.1	30476.3
935.5002	2046.1323	31331.45	30450
935.6372	2047.6974	31229.25	30348.25
935.7742	2049.2617	31161.4	30280.8
935.9111	2050.8254	31141.65	30254.1
936.048	2052.3883	31046.45	30165
936.1849	2053.9504	30924	30040.1
936.3218	2055.5118	30822	29940.2
936.4586	2057.0725	30718.4	29832
936.5955	2058.6325	30618.5	29736.65
936.7323	2060.1917	30548.35	29666.9
936.869	2061.7502	30443.65	29558.9
937.0058	2063.3079	30310.7	29430.15
937.1425	2064.8649	30258.85	29372.25
937.2792	2066.4212	30144.5	29260.55
937.4159	2067.9767	30123.4	29241.85
937.5525	2069.5315	29973.25	29093.1
937.6891	2071.0856	29850.6	28967.05
937.8257	2072.6389	29748.6	28868.75
937.9623	2074.1915	29610.05	28729.85
938.0989	2075.7433	29469.75	28586.45
938.2354	2077.2945	29412.55	28531.25
938.3719	2078.8448	29276.25	28393.4
938.5084	2080.3945	29180.8	28299.45
938.6448	2081.9434	29201.1	28317.2
938.7812	2083.4916	29061.9	28177.7
938.9176	2085.039	28903.45	28017.05
939.054	2086.5857	28894.6	28006
939.1903	2088.1317	28824.7	27937.85
939.3267	2089.677	28742.55	27856.45
939.463	2091.2215	28675.85	27791.75
939.5992	2092.7652	28589.3	27701.05
939.7355	2094.3083	28525.05	27638.55
939.8717	2095.8506	28462.55	27580.15
940.0079	2097.3921	28519.15	27635.35
940.1441	2098.933	28368.5	27485.35
940.2802	2100.4731	28302.45	27418.2
940.4163	2102.0124	28258.35	27354.05
940.5524	2103.5511	28151.55	27268.1
940.6885	2105.089	28103.05	27217.7
940.8245	2106.6261	28058.25	27175.6
940.9606	2108.1626	27922.15	27037.5
941.0965	2109.6983	27918.25	27004.95
941.2325	2111.2332	27756.5	26869.7
941.3684	2112.7675	27692.15	26804.1
941.5044	2114.301	27612.95	26726.75
941.6403	2115.8337	27565.1	26678.65
941.7761	2117.3657	27498.4	26614.3
941.912	2118.897	27455.3	26569.6
942.0478	2120.4276	27324.6	26431.3
942.1835	2121.9575	27204.1	26318.15
942.3193	2123.4866	27215.05	26316.4
942.455	2125.0149	27178.35	26290.4
942.5907	2126.5426	26953	26071.25
942.7264	2128.0695	26907.1	26020.4
942.8621	2129.5956	26851.85	25972
942.9977	2131.1211	26855.7	25967.75
943.1333	2132.6458	26748.45	25864.4
943.2689	2134.1698	26697.5	25814.75
943.4044	2135.693	26585.8	25697.4
943.54	2137.2155	26550.15	25663.3
943.6755	2138.7373	26494.3	25610.6
943.8109	2140.2584	26365.8	25483.1
943.9464	2141.7787	26284.45	25396.35
944.0818	2143.2983	26156.8	25276.3
944.2172	2144.8171	26020.75	25139.85
944.3526	2146.3353	25973.15	25090.55
944.4879	2147.8527	25891.95	25010
944.6232	2149.3693	25888.45	25006.25
944.7585	2150.8853	25795.6	24910.5
944.8938	2152.4005	25620.85	24736.1
945.029	2153.9149	25629	24744.6
945.1642	2155.4287	25556.15	24671.2
945.2994	2156.9417	25505.75	24620.5
945.4346	2158.454	25400.5	24514.35
945.5697	2159.9655	25289.8	24406.25
945.7048	2161.4764	25287.65	24405.1
945.8399	2162.9865	25197.05	24313.65
945.9749	2164.4958	25130.85	24249.25
946.1099	2166.0045	25041.05	24155.05
946.2449	2167.5124	25002.7	24118.8
946.3799	2169.0195	24928.4	24044.65
946.5148	2170.526	24867.8	23983.7
946.6498	2172.0317	24798.5	23914.55
946.7846	2173.5367	24698.8	23815.15
946.9195	2175.0409	24651.85	23770.5
947.0543	2176.5445	24663.6	23780.15
947.1891	2178.0473	24545.25	23658.3
947.3239	2179.5494	24403.2	23514.65
947.4587	2181.0507	24331.4	23448.55
947.5934	2182.5513	24248.6	23362.05
947.7281	2184.0512	24199.6	23315.55
947.8628	2185.5504	24150.55	23266.75
947.9974	2187.0488	23987.4	23104.15
948.132	2188.5465	23902.05	23018.3
948.2666	2190.0435	23831.05	22947.5
948.4012	2191.5397	23773.8	22889.15
948.5357	2193.0353	23706.65	22822.6
948.6702	2194.5301	23598.5	22713.9
948.8047	2196.0241	23552.6	22665.6
948.9392	2197.5175	23500.3	22612.9
949.0736	2199.0101	23389.75	22499.85
949.208	2200.502	23245.05	22361.9
949.3424	2201.9931	23168.35	22284.85
949.4767	2203.4835	23099.95	22218.15
949.611	2204.9733	23026.2	22137.9
949.7453	2206.4622	22998.6	22117.1
949.8796	2207.9505	22868.55	21981.05
950.0138	2209.438	22761.45	21880.15
950.148	2210.9248	22724.4	21839.7
950.2822	2212.4109	22639.1	21755.4
950.4164	2213.8962	22569.15	21682.2
950.5505	2215.3809	22516.65	21628.65
950.6846	2216.8648	22463.2	21576.85
950.8186	2218.3479	22394.5	21503.5
950.9527	2219.8304	22290.9	21401.2
951.0867	2221.3121	22239	21348.3
951.2207	2222.7931	22177.7	21289.95
951.3546	2224.2733	22068.6	21182.3
951.4886	2225.7529	21997.1	21112.25
951.6225	2227.2317	21886.95	20999.3
951.7563	2228.7098	21856.35	20974.75
951.8902	2230.1872	21753.5	20871.75
952.024	2231.6638	21742.1	20861.55
952.1578	2233.1397	21628.15	20739.35
952.2916	2234.6149	21551.3	20669.05
952.4253	2236.0894	21511.6	20630.8
952.559	2237.5632	21441.1	20554.6
952.6927	2239.0362	21345.3	20462.9
952.8263	2240.5085	21306.1	20419.85
952.9599	2241.9801	21237.4	20351.6
953.0935	2243.4509	21164.35	20280.5
953.2271	2244.921	21078.35	20191
953.3606	2246.3904	20983.45	20095.15
953.4941	2247.8591	20903.45	20018.65
953.6276	2249.3271	20873.9	19988.5
953.7611	2250.7943	20771.7	19887.75
953.8945	2252.2608	20717.05	19832.65
954.0279	2253.7266	20662.4	19777.55
954.1612	2255.1917	20628.6	19742.35
954.2946	2256.656	20507.85	19623.8
954.4279	2258.1197	20454.25	19571.65
954.5612	2259.5826	20356.95	19472.6
954.6944	2261.0447	20377.1	19491.5
954.8276	2262.5062	20274.85	19388
954.9608	2263.9669	20248.6	19361.85
955.094	2265.4269	20200.05	19315.15
955.2271	2266.8862	20144.3	19260
955.3602	2268.3448	20095.8	19212.4
955.4933	2269.8026	20076.65	19193.3
955.6264	2271.2598	19961.75	19077.55
955.7594	2272.7162	19889.55	19006.1
955.8924	2274.1719	19839.5	18952.75
956.0253	2275.6268	19786.75	18901.45
956.1583	2277.0811	19779.8	18893.65
956.2912	2278.5346	19698.85	18817.05
956.4241	2279.9874	19671.25	18787.55
956.5569	2281.4395	19614.45	18730.95
956.6897	2282.8908	19566.55	18678.6
956.8225	2284.3414	19483.15	18596.5
956.9553	2285.7914	19413.55	18529.55
957.088	2287.2406	19353.1	18468.15
957.2207	2288.689	19297.55	18412.75
957.3534	2290.1368	19221.45	18333.6
957.486	2291.5838	19155.1	18265.25
957.6186	2293.0302	19119.65	18230.3
957.7512	2294.4758	19003.95	18118.05
957.8838	2295.9206	18973.3	18088.45
958.0163	2297.3648	18908.35	18023.2
958.1488	2298.8082	18884.5	18000.1
958.2813	2300.251	18841.5	17954.85
958.4137	2301.693	18749.05	17861.35
958.5461	2303.1343	18713.6	17828.35
958.6785	2304.5748	18651.75	17765.8
958.8108	2306.0147	18609.2	17724.45
958.9432	2307.4538	18531.15	17645.25
959.0754	2308.8922	18486.7	17604.45
959.2077	2310.3299	18415.55	17529.8
959.3399	2311.7669	18345.15	17462.7
959.4721	2313.2031	18295.25	17409.25
959.6043	2314.6387	18239.7	17356.15
959.7365	2316.0735	18194.25	17309.2
959.8686	2317.5076	18195.95	17310.5
960.0006	2318.941	18081.3	17196
960.1327	2320.3737	18044.2	17157.8
960.2647	2321.8056	17968.3	17079.25
960.3967	2323.2369	17944.6	17058.5
960.5287	2324.6674	17879	16991.65
960.6606	2326.0972	17801.6	16914.65
960.7925	2327.5263	17745.6	16863.85
960.9244	2328.9547	17686.9	16801
961.0562	2330.3823	17646.75	16761.35
961.1881	2331.8092	17643.8	16752.2
961.3198	2333.2355	17527.15	16638.85
961.4516	2334.661	17539.8	16653.55
961.5833	2336.0858	17469.35	16579.4
961.715	2337.5098	17392.85	16507.1
961.8467	2338.9332	17364.75	16479.3
961.9783	2340.3558	17321.9	16434.7
962.1099	2341.7778	17255.2	16370.6
962.2415	2343.199	17201.15	16316
962.373	2344.6195	17131.7	16246.3
962.5045	2346.0393	17068.15	16183.15
962.636	2347.4583	17038.6	16153.55
962.7675	2348.8767	16997.1	16109.75
962.8989	2350.2943	16956.7	16070.6
963.0303	2351.7113	16933.9	16043.45
963.1617	2353.1275	16838.3	15950.05
963.293	2354.543	16824.45	15927.3
963.4243	2355.9578	16751.55	15862.95
963.5556	2357.3718	16643.75	15759.2
963.6868	2358.7852	16579.3	15692.35
963.818	2360.1978	16555.4	15671.35
963.9492	2361.6098	16502	15616.6
964.0803	2363.021	16463.35	15575.05
964.2114	2364.4315	16405.85	15520.25
964.3425	2365.8413	16354.7	15461.25
964.4736	2367.2504	16297.5	15413.75
964.6046	2368.6587	16205.9	15321.1
964.7356	2370.0664	16199.2	15315.6
964.8666	2371.4733	16125.15	15241.3
964.9975	2372.8795	16076.25	15190.3
965.1284	2374.285	15987.55	15101.9
965.2593	2375.6899	15889.35	15007.25
965.3901	2377.0939	15815.35	14928.85
965.5209	2378.4973	15786.5	14902.55
965.6517	2379.9	15747.35	14861.2
965.7825	2381.3019	15665.35	14781.7
965.9132	2382.7032	15633.4	14748.75
966.0439	2384.1037	15596.55	14713.85
966.1745	2385.5035	15528.05	14644
966.3051	2386.9027	15518.6	14635.25
966.4357	2388.3011	15478.65	14591.35
966.5663	2389.6987	15410.75	14528.4
966.6968	2391.0957	15383.2	14499.9
966.8273	2392.492	15294.45	14412.2
966.9578	2393.8876	15210.4	14325.5
967.0882	2395.2824	15149.15	14265.05
967.2186	2396.6765	15081.25	14196.25
967.349	2398.07	15069.75	14184.3
967.4793	2399.4627	14988.4	14102.95
967.6097	2400.8547	14952	14066.2
967.7399	2402.246	14940	14049.05
967.8702	2403.6366	14811.9	13925.35
968.0004	2405.0265	14764.4	13879.4
968.1306	2406.4156	14733	13844.85
968.2607	2407.8041	14648.5	13759.3
968.3909	2409.1918	14612	13724.3
968.521	2410.5789	14519.8	13632.65
968.651	2411.9652	14463.35	13576.5
968.781	2413.3508	14419.65	13532.75
968.911	2414.7358	14397.35	13511.1
969.041	2416.12	14315	13427.45
969.1709	2417.5035	14325.65	13439.95
969.3008	2418.8863	14257.1	13369.9
969.4307	2420.2684	14204.8	13318.95
969.5606	2421.6497	14139.5	13254.25
969.6904	2423.0304	14040.85	13158.2
969.8201	2424.4104	14015.8	13128.5
969.9499	2425.7896	13961.95	13074.35
970.0796	2427.1682	13948.5	13062.4
970.2093	2428.546	13916.45	13031.85
970.3389	2429.9232	13871.65	12984.5
970.4685	2431.2996	13859.65	12975.45
970.5981	2432.6753	13808.65	12924.15
970.7277	2434.0503	13735.45	12849.15
970.8572	2435.4246	13696.7	12812.3
970.9867	2436.7982	13618.7	12731.5
971.1161	2438.1711	13585.15	12698.5
971.2456	2439.5433	13541.6	12655.4
971.375	2440.9148	13490.8	12604.45
971.5043	2442.2856	13417.65	12534.1
971.6336	2443.6557	13413.7	12525.15
971.7629	2445.025	13352.6	12468.3
971.8922	2446.3937	13333.9	12446.95
972.0214	2447.7617	13257.45	12372.05
972.1506	2449.1289	13279.7	12394.1
972.2798	2450.4955	13210.05	12320.6
972.4089	2451.8613	13168.55	12284.55
972.538	2453.2265	13114.25	12229.5
972.6671	2454.5909	13095.25	12208.85
972.7961	2455.9546	13062.25	12178.15
972.9251	2457.3177	13011.8	12125.15
973.0541	2458.68	12972.05	12085.05
973.1831	2460.0416	12949.85	12065.55
973.312	2461.4025	12950.65	12063.35
973.4408	2462.7627	12893.65	11998.9
973.5697	2464.1222	12826.9	11942.5
973.6985	2465.4811	12797.65	11914.15
973.8273	2466.8392	12753.45	11869.55
973.956	2468.1966	12700.85	11813.8
974.0847	2469.5533	12695.8	11809.5
974.2134	2470.9093	12677.7	11793
974.3421	2472.2645	12604.35	11718.4
974.4707	2473.6191	12592.45	11707.9
974.5993	2474.973	12547.2	11661.15
974.7278	2476.3262	12503.35	11616.8
974.8563	2477.6787	12422.05	11538.15
974.9848	2479.0305	12376.6	11491.05
975.1132	2480.3816	12349.35	11462.05
975.2417	2481.7319	12277.55	11391.35
975.37	2483.0816	12248.65	11361.65
975.4984	2484.4306	12229.1	11342.75
975.6267	2485.7789	12132.9	11250.15
975.755	2487.1264	12089.5	11203.2
975.8833	2488.4733	12053.5	11169.8
976.0115	2489.8195	12032.5	11140.3
976.1397	2491.165	11996.75	11107.15
976.2678	2492.5097	11950.55	11065.35
976.3959	2493.8538	11895.2	11010.45
976.524	2495.1972	11815.1	10928.15
976.6521	2496.5398	11766.3	10880.85
976.7801	2497.8818	11749.85	10864.15
976.9081	2499.2231	11725.55	10840.8
977.036	2500.5637	11655.65	10770
977.164	2501.9035	11651	10765
977.2918	2503.2427	11600	10710.85
977.4197	2504.5812	11560.95	10675
977.5475	2505.919	11537.75	10649.3
977.6753	2507.256	11509.65	10623.2
977.8031	2508.5924	11450.7	10565.45
977.9308	2509.9281	11399.05	10508.7
978.0585	2511.2631	11407.3	10524.55
978.1861	2512.5974	11345.4	10462.8
978.3137	2513.9309	11315.5	10429.35
978.4413	2515.2638	11279	10363.6
978.5689	2516.596	11202.5	10317.65
978.6964	2517.9275	11156.95	10271.05
978.8239	2519.2583	11136.85	10248.9
978.9513	2520.5884	11091.55	10205.55
979.0788	2521.9178	11034.1	10148.65
979.2062	2523.2465	11009.45	10124.6
979.3335	2524.5745	10945.45	10062.1
979.4608	2525.9018	10937.65	10053
979.5881	2527.2284	10898.6	10014.95
979.7154	2528.5543	10908.95	10023.1
979.8426	2529.8796	10825.8	9941.3
979.9698	2531.2041	10823.3	9939.1
980.0969	2532.5279	10799.85	9915.3
980.224	2533.851	10768.6	9882.7
980.3511	2535.1735	10718.25	9833.5
980.4781	2536.4952	10684.85	9798.65
980.6052	2537.8163	10684.55	9798.05
980.7321	2539.1366	10632.65	9746.9
980.8591	2540.4562	10609.45	9723.75
980.986	2541.7752	10622.05	9738.05
981.1129	2543.0935	10569.25	9683.95
981.2397	2544.411	10564.75	9678.75
981.3665	2545.7279	10540.1	9653.5
981.4933	2547.0441	10492.4	9607.7
981.62	2548.3596	10509.4	9619.8
981.7467	2549.6744	10500.35	9614.6
981.8734	2550.9885	10436.35	9541.2
982.0001	2552.3019	10391.05	9503.75
982.1267	2553.6146	10371.3	9483.75
982.2532	2554.9266	10333.45	9447.35
982.3798	2556.2379	10279.8	9392.8
982.5063	2557.5485	10272.05	9389
982.6327	2558.8585	10235.1	9342.35
982.7592	2560.1677	10237.3	9347.7
982.8856	2561.4762	10215.05	9330.75
983.0119	2562.7841	10208.5	9319.35
983.1383	2564.0913	10154.1	9269.5
983.2646	2565.3977	10149.45	9262.05
983.3908	2566.7035	10106.85	9220.05
983.517	2568.0086	10076.75	9188.8
983.6432	2569.313	10083.2	9196.4
983.7694	2570.6167	10079.65	9189.95
983.8955	2571.9197	10008.45	9124.15
984.0216	2573.222	10037.4	9151
984.1476	2574.5236	10009.3	9124.45
984.2737	2575.8246	9956.1	9065.9
984.3996	2577.1248	9924	9035.9
984.5256	2578.4244	9924.4	9037.05
984.6515	2579.7232	9889.55	9004.45
984.7774	2581.0214	9898.35	8989.15
984.9032	2582.3189	9850.1	8964.8
985.029	2583.6157	9837.05	8947.9
985.1548	2584.9118	9806.95	8921.35
985.2806	2586.2072	9787	8902.7
985.4063	2587.5019	9725.35	8840.35
985.5319	2588.7959	9721.1	8836.15
985.6576	2590.0893	9686.25	8799.8
985.7832	2591.3819	9691.5	8807
985.9087	2592.6739	9626.65	8741.35
986.0343	2593.9652	9603.65	8715.55
986.1597	2595.2557	9585.95	8699.65
986.2852	2596.5456	9509.7	8623.2
986.4106	2597.8348	9496.1	8612.95
986.536	2599.1234	9458.35	8574.55
986.6614	2600.4112	9429.3	8544.6
986.7867	2601.6983	9401.05	8513.2
986.912	2602.9848	9369.4	8486.2
987.0372	2604.2705	9308	8416.3
987.1624	2605.5556	9309.95	8424.45
987.2876	2606.84	9284.75	8400.95
987.4128	2608.1237	9238.15	8352.55
987.5379	2609.4067	9190.55	8305.25
987.6629	2610.689	9181.95	8288.35
987.788	2611.9707	9127.65	8238.3
987.913	2613.2516	9102.2	8213.2
988.0379	2614.5319	9028.8	8144.25
988.1629	2615.8115	9009.35	8125.45
988.2878	2617.0903	8984.25	8097.3
988.4126	2618.3685	8951	8062.85
988.5375	2619.6461	8920.25	8035.4
988.6622	2620.9229	8893	8006.85
988.787	2622.199	8879.1	7994.4
988.9117	2623.4745	8851.2	7965.7
989.0364	2624.7493	8816.45	7930.05
989.161	2626.0234	8802.9	7918.05
989.2857	2627.2968	8750.25	7866.45
989.4102	2628.5695	8709.55	7823.7
989.5348	2629.8415	8667.8	7785.75
989.6593	2631.1128	8647.95	7761.1
989.7837	2632.3835	8607.4	7724.1
989.9082	2633.6535	8578.4	7692.05
990.0326	2634.9228	8544.55	7660.8
990.1569	2636.1914	8506.85	7623.5
990.2812	2637.4593	8507.25	7615.4
990.4055	2638.7265	8488.25	7602.85
990.5298	2639.9931	8448.05	7562.2
990.654	2641.259	8446.2	7559.05
990.7782	2642.5242	8396.15	7511.3
990.9023	2643.7887	8350.1	7465.95
991.0264	2645.0525	8360.9	7477.4
991.1505	2646.3156	8315.2	7429.1
991.2745	2647.5781	8273.05	7388.7
991.3985	2648.8398	8247.95	7363.35
991.5225	2650.1009	8220.75	7296.05
991.6464	2651.3613	8194.8	7311
991.7703	2652.6211	8172	7287.25
991.8942	2653.8801	8166.55	7282.95
992.018	2655.1385	8135.85	7248.35
992.1418	2656.3961	8126.15	7243
992.2655	2657.6531	8131.7	7247.85
992.3892	2658.9094	8071.35	7186.5
992.5129	2660.1651	8065.6	7179.55
992.6366	2661.42	8019.75	7136.7
992.7602	2662.6743	8026.15	7140.6
992.8837	2663.9279	8005.95	7123.75
993.0073	2665.1808	7961.75	7076.25
993.1307	2666.433	7949.1	7064.1
993.2542	2667.6846	7905.65	7020.05
993.3776	2668.9354	7904.8	7015.55
993.501	2670.1856	7892	7006.85
993.6244	2671.4351	7875	6990.15
993.7477	2672.6839	7838.6	6953.9
993.8709	2673.9321	7804.6	6922.2
993.9942	2675.1795	7776.65	6891.6
994.1174	2676.4263	7747.95	6863.45
994.2405	2677.6724	7718	6834.9
994.3637	2678.9179	7714.3	6829.1
994.4868	2680.1626	7706.85	6823.05
994.6098	2681.4067	7667.85	6783.15
994.7328	2682.6501	7653.4	6768.85
994.8558	2683.8928	7614.75	6730.7
994.9788	2685.1348	7617.9	6733.6
995.1017	2686.3761	7569.45	6685.85
995.2245	2687.6168	7537.15	6653.25
995.3474	2688.8568	7507.8	6622.5
995.4702	2690.0961	7488.1	6605.3
995.5929	2691.3348	7469.9	6585.75
995.7156	2692.5727	7435.9	6549.3
995.8383	2693.81	7422.05	6538.1
995.961	2695.0466	7387	6502.75
996.0836	2696.2826	7392.3	6509.1
996.2062	2697.5178	7375.65	6488.15
996.3287	2698.7524	7329.95	6445.7
996.4512	2699.9863	7318.8	6433.25
996.5737	2701.2195	7285.05	6400.75
996.6961	2702.452	7269.65	6382.6
996.8185	2703.6839	7262.85	6377.8
996.9408	2704.9151	7238.6	6355.3
997.0631	2706.1456	7214.9	6329.75
997.1854	2707.3755	7192.25	6307.95
997.3077	2708.6046	7174.1	6288
997.4299	2709.8331	7155	6271.8
997.552	2711.0609	7116.3	6231.75
997.6742	2712.2881	7072.4	6187.25
997.7963	2713.5145	7077.5	6189.9
997.9183	2714.7403	7066	6183.05
998.0403	2715.9654	7029.5	6144.7
998.1623	2717.1899	7049.55	6164.8
998.2842	2718.4136	6987.2	6105.35
998.4062	2719.6367	6996.75	6112.75
998.528	2720.8591	6961.8	6071.3
998.6498	2722.0809	6949.2	6065.65
998.7716	2723.3019	6933.8	6047.25
998.8934	2724.5223	6912.45	6028.45
999.0151	2725.7421	6900.7	6015.05
999.1368	2726.9611	6865.45	5978.8
999.2584	2728.1795	6861.3	5972.9
999.38	2729.3972	6825.9	5943.55
999.5016	2730.6142	6765.8	5877.3
999.6231	2731.8306	6745.1	5860.05
999.7446	2733.0462	6706.05	5819.5
999.8661	2734.2612	6687.65	5798.3
999.9875	2735.4756	6649.15	5762.45
1000.1089	2736.6892	6609.8	5725
1000.2302	2737.9022	6577.6	5696.45
1000.3515	2739.1145	6564.95	5680.65
1000.4728	2740.3262	6531.5	5638.4
1000.594	2741.5372	6498.95	5615.5
1000.7152	2742.7475	6466.85	5582.95
1000.8363	2743.9571	6443.55	5558.95
1000.9575	2745.1661	6419.6	5530.1
1001.0785	2746.3744	6427.8	5539.45
1001.1996	2747.582	6355.25	5472.6
1001.3206	2748.7889	6343.8	5457.5
1001.4415	2749.9952	6328.7	5445.55
1001.5625	2751.2008	6287	5403.15
1001.6833	2752.4057	6285.85	5401.25
1001.8042	2753.61	6257.35	5374.25
1001.925	2754.8136	6221.6	5335.95
1002.0458	2756.0165	6225.3	5342.4
1002.1665	2757.2188	6188.85	5305.2
1002.2872	2758.4204	6174.8	5290.65
1002.4078	2759.6213	6140.75	5255
1002.5285	2760.8215	6138.85	5251.1
1002.649	2762.0211	6117.05	5231.05
1002.7696	2763.22	6104.05	5218.25
1002.8901	2764.4182	6094.95	5210.25
1003.0106	2765.6158	6052	5168.35
1003.131	2766.8127	6037.5	5154.3
1003.2514	2768.009	6003.8	5119.75
1003.3717	2769.2045	5997.95	5111.7
1003.492	2770.3994	5967.1	5082.3
1003.6123	2771.5936	5962.45	5079.45
1003.7325	2772.7872	5930.5	5046.75
1003.8527	2773.9801	5909.9	5024.55
1003.9729	2775.1723	5917.7	5019.05
1004.093	2776.3639	5856.4	4974.65
1004.2131	2777.5548	5852.65	4966.45
1004.3331	2778.745	5834	4949.55
1004.4531	2779.9346	5809.45	4925.9
1004.5731	2781.1235	5813.25	4928.95
1004.693	2782.3117	5793.65	4910.5
1004.8129	2783.4992	5775.75	4892.55
1004.9328	2784.6861	5751.55	4868.3
1005.0526	2785.8723	5734.65	4850.3
1005.1723	2787.0579	5713.35	4830.5
1005.2921	2788.2428	5684.9	4801.7
1005.4118	2789.427	5663.55	4780.8
1005.5314	2790.6106	5663.3	4780.9
1005.651	2791.7935	5647.45	4764.05
1005.7706	2792.9757	5633.7	4752.9
1005.8902	2794.1573	5608.45	4722.25
1006.0097	2795.3382	5585.9	4701.65
1006.1291	2796.5184	5591.05	4709.9
1006.2485	2797.698	5584.6	4699.2
1006.3679	2798.8769	5560.25	4677.65
1006.4873	2800.0551	5567.75	4684
1006.6066	2801.2327	5533.5	4646.55
1006.7258	2802.4096	5526.05	4645.2
1006.8451	2803.5859	5522	4639.6
1006.9642	2804.7615	5512.2	4629.3
1007.0834	2805.9364	5505.6	4623.65
1007.2025	2807.1106	5492.95	4609.75
1007.3216	2808.2842	5505	4622.5
1007.4406	2809.4572	5524.6	4641.65
1007.5596	2810.6294	5511.4	4626.8
1007.6785	2811.801	5527.4	4644.65
1007.7975	2812.972	5520.05	4638.65
1007.9163	2814.1423	5544.3	4664
1008.0352	2815.3119	5550.35	4667.2
1008.154	2816.4808	5571.45	4690.6
1008.2727	2817.6491	5583.85	4701.6
1008.3914	2818.8167	5610.65	4727.8
1008.5101	2819.9837	5638.5	4753.4
1008.6288	2821.15	5664.7	4782.4
1008.7474	2822.3157	5694.7	4812.75
1008.8659	2823.4807	5695.05	4813.8
1008.9844	2824.645	5724.75	4841.15
1009.1029	2825.8086	5738.9	4857.15
1009.2214	2826.9716	5765.3	4883.35
1009.3398	2828.134	5797.65	4915.25
1009.4581	2829.2957	5834.1	4950.6
1009.5764	2830.4567	5834.2	4953.4
1009.6947	2831.617	5846.7	4965.1
1009.813	2832.7767	5844.95	4963.25
1009.9312	2833.9358	5815.65	4936.85
1010.0493	2835.0941	5796.15	4912.2
1010.1675	2836.2519	5768.65	4886.85
1010.2855	2837.4089	5768.55	4884.9
1010.4036	2838.5653	5736.3	4854.2
1010.5216	2839.7211	5727.1	4846.4
1010.6396	2840.8761	5705.8	4822.35
1010.7575	2842.0306	5694.3	4814.15
1010.8754	2843.1843	5721.15	4841.2
1010.9932	2844.3374	5706.45	4824.75
1011.111	2845.4899	5731.9	4851.5
1011.2288	2846.6417	5764.55	4883.45
1011.3465	2847.7928	5769.15	4885.9
1011.4642	2848.9433	5808.55	4927.05
1011.5818	2850.0931	5848.9	4966
1011.6995	2851.2422	5885.5	5000.9
1011.817	2852.3907	5920.9	5037.3
1011.9345	2853.5385	5940.2	5058.05
1012.052	2854.6857	5987.05	5096.9
1012.1695	2855.8323	5992.6	5113.9
1012.2869	2856.9781	6015.6	5131.4
1012.4042	2858.1233	6029.15	5147.75
1012.5216	2859.2679	6043.55	5163.1
1012.6389	2860.4118	6082.85	5200
1012.7561	2861.555	6081.75	5197.7
1012.8733	2862.6976	6093.4	5208.65
1012.9905	2863.8395	6113	5233.05
1013.1076	2864.9808	6121.3	5239.7
1013.2247	2866.1214	6113	5230.35
1013.3417	2867.2614	6101.05	5218.05
1013.4587	2868.4007	6122.95	5240.55
1013.5757	2869.5393	6080.3	5196.1
1013.6926	2870.6773	6093.9	5208.55
1013.8095	2871.8146	6106.85	5221
1013.9263	2872.9513	6089.75	5204.95
1014.0431	2874.0874	6038.15	5155.3
1014.1599	2875.2227	6011.35	5127.2
1014.2766	2876.3574	5980.7	5099.35
1014.3933	2877.4915	5962.35	5081.1
1014.51	2878.6249	5924.1	5042.85
1014.6266	2879.7577	5890.8	5006.3
1014.7431	2880.8898	5870.5	4979.9
1014.8596	2882.0212	5853.95	4973.35
1014.9761	2883.152	5803.1	4918.7
1015.0925	2884.2821	5800.5	4920.3
1015.2089	2885.4116	5769.3	4888.8
1015.3253	2886.5405	5767	4885.4
1015.4416	2887.6686	5751.6	4867.9
1015.5579	2888.7962	5724.35	4843.45
1015.6741	2889.923	5719.85	4839.6
1015.7903	2891.0493	5715.05	4833.75
1015.9065	2892.1748	5706.7	4826.6
1016.0226	2893.2997	5685.85	4803.8
1016.1387	2894.424	5689.85	4810.5
1016.2547	2895.5476	5696.3	4813.5
1016.3707	2896.6706	5690.95	4810.55
1016.4866	2897.7929	5715.35	4832.6
1016.6025	2898.9145	5701.45	4820.55
1016.7184	2900.0355	5695.15	4812.8
1016.8342	2901.1559	5702.4	4819.5
1016.95	2902.2756	5709.3	4828.3
1017.0658	2903.3946	5714.95	4832.7
1017.1815	2904.513	5717.6	4833.25
1017.2971	2905.6308	5729.1	4848.25
1017.4127	2906.7479	5729.5	4847.15
1017.5283	2907.8643	5743.75	4861.85
1017.6439	2908.9801	5736.5	4854.55
1017.7594	2910.0953	5730.8	4848.25
1017.8748	2911.2098	5713.55	4829.05
1017.9902	2912.3236	5675.5	4783.85
1018.1056	2913.4368	5654.7	4769.9
1018.2209	2914.5494	5640.2	4759.95
1018.3362	2915.6613	5598.9	4710.65
1018.4515	2916.7725	5569.05	4685.4
1018.5667	2917.8831	5544.25	4661
1018.6819	2918.9931	5512.15	4629.05
1018.797	2920.1024	5477.05	4593.55
1018.9121	2921.211	5460.4	4579.75
1019.0271	2922.319	5462.2	4580.55
1019.1421	2923.4264	5421.55	4539.25
1019.2571	2924.5331	5390.25	4512
1019.372	2925.6391	5394.05	4511.3
1019.4869	2926.7445	5362.6	4485.1
1019.6017	2927.8493	5354.65	4473.35
1019.7165	2928.9534	5346.65	4466.35
1019.8313	2930.0569	5322.15	4438.45
1019.946	2931.1597	5319.35	4435.1
1020.0606	2932.2619	5309.55	4428.45
1020.1753	2933.3634	5308.15	4426.65
1020.2899	2934.4643	5305.75	4416.55
1020.4044	2935.5645	5274.65	4387.8
1020.5189	2936.6641	5257.7	4372.45
1020.6334	2937.763	5223.15	4343.3
1020.7478	2938.8613	5181.6	4301.4
1020.8622	2939.959	5117.45	4230.6
1020.9765	2941.056	5072	4193.3
1021.0908	2942.1523	5016.55	4134.1
1021.2051	2943.248	4954.4	4072.8
1021.3193	2944.3431	4870.65	3989
1021.4334	2945.4375	4804.2	3923.2
1021.5476	2946.5313	4716.2	3837.25
1021.6617	2947.6244	4648.25	3767.9
1021.7757	2948.7169	4560.7	3678.95
1021.8897	2949.8087	4486.65	3607.2
1022.0037	2950.8999	4413.7	3533.45
1022.1176	2951.9904	4350.1	3470.45
1022.2315	2953.0803	4287.4	3404.9
1022.3453	2954.1696	4235.15	3353.1
1022.4591	2955.2582	4195.3	3315.4
1022.5728	2956.3462	4147.35	3265.4
1022.6865	2957.4335	4105.05	3223.35
1022.8002	2958.5202	4076.05	3193.5
1022.9138	2959.6062	4035.35	3152.05
1023.0274	2960.6916	4008.3	3130.1
1023.141	2961.7764	3996.3	3115
1023.2545	2962.8605	3964.5	3083.15
1023.3679	2963.9439	3951.7	3071.45
1023.4813	2965.0267	3931.4	3046.2
1023.5947	2966.1089	3939.35	3034
1023.708	2967.1905	3902.6	3023.15
1023.8213	2968.2714	3884.5	3003.85
1023.9346	2969.3516	3865.2	2985
1024.0478	2970.4312	3874.6	2986.2
1024.1609	2971.5102	3842.35	2962.9
1024.274	2972.5885	3842.4	2962.4
1024.3871	2973.6662	3840.65	2955.15
1024.5002	2974.7432	3829.3	2949.8
1024.6132	2975.8196	3809.05	2925.2
1024.7261	2976.8954	3791.15	2913.45
1024.839	2977.9705	3773.65	2893.05
1024.9519	2979.045	3759.4	2879.2
1025.0647	2980.1188	3757.7	2878.55
1025.1775	2981.192	3730.8	2851.25
1025.2902	2982.2645	3680.75	2801
1025.4029	2983.3364	3673.35	2794.65
1025.5156	2984.4077	3654.15	2771.6
1025.6282	2985.4783	3616.6	2731.45
1025.7407	2986.5483	3585.35	2705.2
1025.8532	2987.6177	3565.35	2684.85
1025.9657	2988.6864	3521.1	2639.7
1026.0782	2989.7545	3498.8	2618.2
1026.1906	2990.8219	3464.05	2585
1026.3029	2991.8887	3441.15	2558.35
1026.4152	2992.9548	3409.7	2528
1026.5275	2994.0204	3375.75	2496.95
1026.6397	2995.0852	3349.8	2470
1026.7519	2996.1495	3330.85	2449.25
1026.864	2997.2131	3294.25	2412.65
1026.9761	2998.276	3274.8	2392.25
1027.0882	2999.3383	3254.9	2373.4
1027.2002	3000.4	3219.95	2339.6
1027.3122	3001.4611	3229.4	2349.4
1027.4241	3002.5215	3204	2322.05
1027.536	3003.5812	3160.35	2280.75
1027.6478	3004.6404	3153.9	2274.25
1027.7596	3005.6989	3137.65	2254
1027.8714	3006.7567	3116.45	2236.75
1027.9831	3007.8139	3133.05	2218.8
1028.0947	3008.8705	3104.9	2223.35
1028.2064	3009.9264	3079.95	2195.8
1028.3179	3010.9818	3075.95	2194.7
1028.4295	3012.0364	3057.3	2175.35
1028.541	3013.0905	3053.2	2173.45
1028.6524	3014.1439	3041.35	2161.5
1028.7638	3015.1966	3012.7	2133.7
1028.8752	3016.2487	3002.95	2121.1
1028.9865	3017.3002	3009.1	2124.1
1029.0978	3018.3511	2983.45	2104.55
1029.209	3019.4013	2990.65	2109.35
1029.3202	3020.4509	2982.6	2103.9
1029.4314	3021.4998	2980.6	2098.7
1029.5425	3022.5481	2959.8	2079.3
1029.6535	3023.5958	2950.05	2070.5
1029.7645	3024.6428	2950.35	2068.8
1029.8755	3025.6892	2935.5	2056.35
1029.9864	3026.735	2931.15	2051.15
1030.0973	3027.7802	2917.15	2036.9
1030.2082	3028.8247	2901.95	2022.85
1030.319	3029.8685	2895.85	2012.8
1030.4297	3030.9118	2894.5	2012.55
1030.5404	3031.9544	2874.85	1996.8
1030.6511	3032.9963	2872.6	1992.45
1030.7617	3034.0376	2869.25	1989.85
1030.8723	3035.0783	2859.9	1976.55
1030.9829	3036.1184	2874.7	1993.4
1031.0934	3037.1578	2856.4	1974.3
1031.2038	3038.1966	2844.65	1963.25
1031.3142	3039.2348	2839.85	1961.25
1031.4246	3040.2723	2841.8	1952.6
1031.5349	3041.3092	2815.25	1937.05
1031.6452	3042.3455	2817.75	1937.4
1031.7554	3043.3811	2820	1938.4
1031.8656	3044.4161	2797.15	1918
1031.9758	3045.4505	2802.75	1921.6
1032.0859	3046.4842	2786.55	1906.95
1032.1959	3047.5173	2761.25	1882.75
1032.3059	3048.5498	2751.5	1869.95
1032.4159	3049.5816	2754.4	1874.5
1032.5258	3050.6128	2762.9	1880.3
1032.6357	3051.6434	2734.7	1854.7
1032.7455	3052.6734	2733.6	1852.25
1032.8553	3053.7027	2716.7	1839.25
1032.9651	3054.7314	2704.85	1823.85
1033.0748	3055.7594	2711.1	1831.75
1033.1845	3056.7868	2684	1803
1033.2941	3057.8136	2671.65	1790.7
1033.4037	3058.8398	2679.4	1799.6
1033.5132	3059.8653	2660.8	1781.2
1033.6227	3060.8902	2658.9	1780.6
1033.7321	3061.9145	2656.5	1773.85
1033.8415	3062.9381	2642.4	1762.5
1033.9509	3063.9612	2649.95	1754.4
1034.0602	3064.9835	2625.7	1746.7
1034.1694	3066.0053	2612.8	1730.25
1034.2787	3067.0264	2616.35	1735.15
1034.3878	3068.0469	2610.6	1730
1034.497	3069.0668	2595	1713.2
1034.6061	3070.086	2574.8	1694.25
1034.7151	3071.1046	2568.1	1687.5
1034.8241	3072.1226	2564.1	1683.55
1034.9331	3073.1399	2544.5	1663.95
1035.042	3074.1567	2533.15	1651.55
1035.1508	3075.1727	2520.2	1638.8
1035.2597	3076.1882	2522.3	1641.65
1035.3684	3077.203	2508.9	1629.35
1035.4772	3078.2173	2500.9	1621.45
1035.5859	3079.2308	2499.95	1617.65
1035.6945	3080.2438	2481.1	1599.15
1035.8031	3081.2561	2478.95	1598.35
1035.9117	3082.2678	2445.1	1565.15
1036.0202	3083.2789	2441.9	1561.9
1036.1286	3084.2893	2441.35	1561.45
1036.2371	3085.2991	2428.2	1548.35
1036.3454	3086.3083	2425.95	1541.85
1036.4538	3087.3169	2404.65	1523.9
1036.562	3088.3248	2403.55	1522.55
1036.6703	3089.3321	2387.6	1505.4
1036.7785	3090.3388	2383.3	1505.35
1036.8866	3091.3449	2372.3	1491.5
1036.9948	3092.3503	2365.5	1482.75
1037.1028	3093.3551	2349.25	1471
1037.2108	3094.3593	2349.15	1470.4
1037.3188	3095.3629	2332.15	1453.35
1037.4267	3096.3658	2335.8	1456.1
1037.5346	3097.3681	2324.05	1444.25
1037.6425	3098.3698	2310.3	1430.5
1037.7503	3099.3708	2306.9	1421.75
1037.858	3100.3713	2292.5	1414.85
1037.9657	3101.3711	2288.75	1407.15
1038.0734	3102.3702	2401.05	1384.65
1038.181	3103.3688	2284.55	1403.4
1038.2886	3104.3667	2259.4	1381.4
1038.3961	3105.364	2255.1	1375.45
1038.5036	3106.3607	2246.75	1366.5
1038.611	3107.3568	2236.6	1356.05
1038.7184	3108.3522	2221.55	1343.85
1038.8257	3109.347	2217.9	1335.65
1038.933	3110.3412	2216.25	1332.65
1039.0403	3111.3348	2209.55	1331.75
1039.1475	3112.3277	2196.25	1316.7
1039.2547	3113.32	2185.55	1307.5
1039.3618	3114.3117	2191.35	1309.2
1039.4689	3115.3028	2173.8	1296.6
1039.5759	3116.2932	2165	1283.8
1039.6829	3117.2831	2160.65	1274.95
1039.7898	3118.2723	2140.05	1262.6
1039.8967	3119.2608	2144.65	1262.15
1040.0035	3120.2488	2137.35	1256.35
1040.1103	3121.2361	2130.75	1249.95
1040.2171	3122.2229	2121.6	1242.35
1040.3238	3123.209	2112	1231.3
1040.4305	3124.1944	2106.85	1228.2
1040.5371	3125.1793	2110.45	1229.6
1040.6437	3126.1635	2088	1209.55
1040.7502	3127.1471	2073.85	1192.85
1040.8567	3128.1301	2081.05	1201.25
1040.9631	3129.1125	2071.35	1191.4
1041.0695	3130.0942	2074.6	1193.6
1041.1759	3131.0753	2077.5	1189.15
1041.2822	3132.0558	2070.6	1188.75
1041.3884	3133.0357	2060.2	1180.75
1041.4946	3134.015	2050.25	1168.95
1041.6008	3134.9936	2049	1167.55
1041.7069	3135.9716	2057.2	1156.15
1041.813	3136.949	2028.65	1148.25
1041.919	3137.9258	2032.15	1146.05
1042.025	3138.902	2024.55	1138.9
1042.1309	3139.8775	2024.7	1145.1
1042.2368	3140.8524	2014.2	1134.8
1042.3427	3141.8267	2002.5	1121.05
1042.4485	3142.8004	1996.15	1115.45
1042.5542	3143.7735	2000.55	1114.75
1042.6599	3144.7459	1997.8	1117.7
1042.7656	3145.7178	1987.75	1106.5
1042.8712	3146.689	1974.55	1095.75
1042.9768	3147.6596	1973.35	1089.75
1043.0823	3148.6295	1967.4	1086.8
1043.1878	3149.5989	1952.95	1071.45
1043.2932	3150.5676	1960.75	1083.8
1043.3986	3151.5357	1950.8	1074.8
1043.5039	3152.5032	1946.25	1067
1043.6092	3153.4701	1937.55	1058.8
1043.7145	3154.4364	1950.1	1069.4
1043.8197	3155.402	1921.95	1045.2
1043.9248	3156.367	1916.7	1033.9
1044.03	3157.3315	1954.35	1036.9
1044.135	3158.2952	1909.4	1029.05
1044.24	3159.2584	1911.45	1032.5
1044.345	3160.221	1900.15	1019.05
1044.4499	3161.1829	1892.65	1012.4
1044.5548	3162.1442	1895.05	1016.6
1044.6596	3163.105	1882.2	1003.4
1044.7644	3164.065	1875.3	995.05
1044.8692	3165.0245	1873.35	989.2
1044.9739	3165.9834	1864.45	987.65
1045.0785	3166.9416	1858.2	978.4
1045.1831	3167.8993	1848.8	969.55
1045.2877	3168.8563	1854.7	974.5
1045.3922	3169.8127	1841.85	962.1
1045.4966	3170.7684	1834.5	955.1
1045.6011	3171.7236	1829	947.25
1045.7054	3172.6782	1829.9	951.4
1045.8098	3173.6321	1817.15	936.75
1045.914	3174.5854	1822.55	940.05
1046.0183	3175.5381	1813.6	936
1046.1224	3176.4902	1813.05	933.4
1046.2266	3177.4417	1788.2	910.45
1046.3307	3178.3926	1791.7	913.9
1046.4347	3179.3428	1793	914.35
1046.5387	3180.2924	1778.95	901.4
1046.6427	3181.2415	1772.65	891.6
1046.7466	3182.1899	1772.9	892.95
1046.8504	3183.1377	1773.4	894.85
1046.9542	3184.0848	1763.75	881.05
1047.058	3185.0314	1767	888.45
1047.1617	3185.9773	1756.15	875.8
1047.2654	3186.9227	1753.55	876.15
1047.369	3187.8674	1746.05	868.05
1047.4726	3188.8115	1740.25	855.1
1047.5761	3189.755	1731.25	850.85
1047.6796	3190.6979	1729.7	850.55
1047.783	3191.6402	1726.5	850.25
1047.8864	3192.5818	1723.1	843.9
1047.9898	3193.5229	1731.05	834.1
1048.0931	3194.4633	1713.55	834.55
1048.1963	3195.4031	1705.8	825.8
1048.2995	3196.3423	1700.55	820.1
1048.4027	3197.2809	1701.35	821.5
1048.5058	3198.2189	1708	828.4
1048.6089	3199.1563	1708.85	812.95
1048.7119	3200.0931	1685.2	805.2
1048.8148	3201.0292	1680.6	801.3
1048.9178	3201.9648	1682.95	803.45
1049.0206	3202.8997	1692.1	809.55
1049.1235	3203.834	1673.6	794.2
1049.2262	3204.7677	1670.5	791.15
1049.329	3205.7008	1664.65	783.2
1049.4317	3206.6333	1658.1	781.7
1049.5343	3207.5652	1656.25	773.4
1049.6369	3208.4964	1653.5	774.3
1049.7394	3209.4271	1641.7	761.3
1049.8419	3210.3571	1652.55	775
1049.9444	3211.2865	1647.55	767.4
1050.0468	3212.2154	1634.65	755.9
1050.1491	3213.1436	1639.9	756.2
1050.2514	3214.0712	1634.9	748.85
1050.3537	3214.9982	1627.15	747.65
1050.4559	3215.9246	1628.55	747.3
1050.5581	3216.8503	1615.95	737.65
1050.6602	3217.7755	1616.1	737.1
1050.7623	3218.7001	1621.45	743
1050.8643	3219.624	1607.65	728.4
1050.9663	3220.5473	1610.45	731.4
1051.0682	3221.4701	1596.45	716.55
1051.1701	3222.3922	1603.45	722.75
1051.2719	3223.3137	1596.25	717.85
1051.3737	3224.2346	1588.45	709.65
1051.4754	3225.1549	1587.85	708.7
1051.5771	3226.0746	1583.15	704.3
1051.6788	3226.9937	1582.05	701.9
1051.7804	3227.9121	1575.95	698.75
1051.8819	3228.83	1570.75	691.85
1051.9834	3229.7473	1566.3	687.5
1052.0849	3230.6639	1565.6	685.9
1052.1863	3231.5799	1562.2	683
1052.2876	3232.4954	1552.55	674.85
1052.3889	3233.4102	1545.8	667.75
1052.4902	3234.3244	1549.55	670.4
1052.5914	3235.238	1542.6	662.4
1052.6926	3236.151	1556.9	656.5
1052.7937	3237.0634	1525.4	645.75
1052.8948	3237.9752	1527.3	648.3
1052.9958	3238.8864	1536.9	657.9
1053.0968	3239.797	1521.25	641.45
1053.1977	3240.7069	1520.1	638.8
1053.2986	3241.6163	1515.65	636.1
1053.3994	3242.5251	1511.45	633.35
1053.5002	3243.4332	1508.6	632.15
1053.6009	3244.3408	1506.7	625.85
1053.7016	3245.2477	1498.1	621.25
1053.8022	3246.154	1495.55	615.5
1053.9028	3247.0598	1498.95	620.6
1054.0034	3247.9649	1488.5	610.8
1054.1039	3248.8694	1484.6	605.85
1054.2043	3249.7733	1475.75	597.05
1054.3047	3250.6766	1474.5	594.65
1054.4051	3251.5793	1473.3	593.95
1054.5054	3252.4814	1465.45	587.6
1054.6056	3253.3829	1463.35	586.1
1054.7058	3254.2838	1465.3	586
1054.806	3255.1841	1454.9	576.9
1054.9061	3256.0838	1449.8	570.5
1055.0061	3256.9829	1454.45	578.3
1055.1062	3257.8814	1448.3	566.7
1055.2061	3258.7792	1434.7	552.6
1055.306	3259.6765	1435.55	556.05
1055.4059	3260.5731	1429.1	549.45
1055.5057	3261.4692	1419.1	539.75
1055.6055	3262.3647	1415.95	534.8
1055.7052	3263.2595	1411.75	533.05
1055.8049	3264.1538	1404.8	525.8
1055.9045	3265.0474	1385.65	506.5
1056.0041	3265.9404	1388.9	509.2
1056.1036	3266.8329	1382	504.1
1056.2031	3267.7247	1376.45	488.6
1056.3025	3268.616	1355.5	478.7
1056.4019	3269.5066	1346.3	465.6
1056.5013	3270.3966	1334.25	452.3
1056.6005	3271.286	1316.7	439.65
