Software Version:	3.9.2.0
Unit SN:	10000200
Spectrometer SN:	6960
Date:	3/6/2024 10:05:03 AM
Data Line Index:	25
Spectral Points:	2048
Integration time (ms):	125
Averages:	20
Delay (ms):	30
Sequence Number:	1
Processing:	dark subtract
Laser Power (mW):	300
Laser Current (mA):	826
Laser Diode Temp (C):	25
Laser Case Temp (C):	24.7
System Temp (C):	24.6
Spectrometer Temp (C):	22.1
CCD Temp (C):	0.001
Secondary Temp (C):	20.01
Heatsink Temp (C):	18.53
CCDPCB Temp (C):	31.416
SecondaryPCB Temp (C):	26.136

Wavelength	RamanShift	Raw Counts	Dark Subtracted
787.061	30.1047	591.15	185.3
787.2016	32.3739	595	188.4
787.3422	34.6426	604.75	198.65
787.4828	36.9109	616.55	208.55
787.6235	39.1787	634.65	222.2
787.7642	41.4461	658.95	240.8
787.9049	43.7131	671.95	251.75
788.0456	45.9796	688	266.15
788.1863	48.2456	707.2	280.6
788.3271	50.5112	727.25	295.7
788.4679	52.7764	747	314.15
788.6087	55.0411	772.2	333.15
788.7496	57.3054	800.65	356.55
788.8904	59.5692	820.05	373.5
789.0313	61.8326	849.25	401.25
789.1722	64.0955	871.7	422.05
789.3132	66.3579	919.65	463.8
789.4541	68.6199	962.5	501.75
789.5951	70.8815	1037.15	572.45
789.7361	73.1426	1201.9	732.35
789.8771	75.4032	1625.7	1153.45
790.0181	77.6634	2687.05	2210.25
790.1592	79.9231	5300.2	4820.2
790.3003	82.1824	11186.4	10698.4
790.4414	84.4412	23632.3	23125.3
790.5825	86.6995	38756.6	38230.05
790.7237	88.9574	47029.45	46484.4
790.8648	91.2148	51650	51095
791.006	93.4717	53194.2	52631.3
791.1472	95.7282	53941.25	53371.4
791.2885	97.9842	54333.5	53764.1
791.4297	100.2398	54370.95	53801.5
791.571	102.4949	54373.1	53796.45
791.7123	104.7495	54420.7	53840.55
791.8536	107.0036	54237.45	53655.55
791.9949	109.2573	54543.15	53963.8
792.1363	111.5105	54349.15	53768.7
792.2777	113.7632	54421.75	53839
792.4191	116.0154	54540.85	53944.65
792.5605	118.2672	54775.45	54186.75
792.7019	120.5185	54777.05	54186.4
792.8434	122.7693	54801.35	54206.3
792.9849	125.0197	54560.8	53960.9
793.1264	127.2696	55127.15	54525.35
793.2679	129.519	55039.9	54431.1
793.4094	131.7679	55329.95	54723.15
793.551	134.0163	54751.6	54140.8
793.6926	136.2642	54988.9	54374.4
793.8342	138.5117	55352.05	54737.95
793.9758	140.7587	55246.6	54629.55
794.1175	143.0052	55270.4	54649.65
794.2591	145.2512	54929.2	54309.65
794.4008	147.4967	55343.65	54723.15
794.5425	149.7417	55232.4	54607.75
794.6842	151.9863	55232	54603.2
794.826	154.2304	55060.35	54423.35
794.9677	156.4739	55174.65	54533.95
795.1095	158.717	55471.95	54831.8
795.2513	160.9596	55278.5	54633.05
795.3931	163.2017	55018.7	54372.4
795.535	165.4433	55299.15	54652.25
795.6768	167.6844	55119.4	54470
795.8187	169.925	55302.45	54648.9
795.9606	172.1651	55128.3	54470.6
796.1025	174.4047	55275.5	54614.85
796.2445	176.6439	55273.65	54612
796.3864	178.8825	55140.05	54475.45
796.5284	181.1206	55475.2	54806.1
796.6704	183.3582	55426.25	54753.75
796.8124	185.5954	55302.55	54629.2
796.9544	187.832	55358.35	54678.85
797.0965	190.0681	55154.65	54473.6
797.2386	192.3037	55501.35	54816.4
797.3806	194.5388	55872.05	55183.7
797.5228	196.7734	55011.6	54320.6
797.6649	199.0075	55858.45	55168
797.807	201.2411	55632.1	54940.35
797.9492	203.4742	56007.2	55313.5
798.0914	205.7068	55937.8	55241.05
798.2336	207.9389	55927.9	55227.3
798.3758	210.1704	55871.4	55178.55
798.518	212.4015	56117.25	55430.5
798.6603	214.632	55850.95	55173.6
798.8025	216.862	56178.3	55505.1
798.9448	219.0915	56040.65	55363.3
799.0871	221.3205	55998.4	55319.4
799.2294	223.549	56298.75	55624.8
799.3718	225.777	56247.9	55569.2
799.5141	228.0044	56357.5	55670.75
799.6565	230.2314	56289.7	55604.05
799.7989	232.4578	56312.7	55623.9
799.9413	234.6837	56359.5	55662.35
800.0837	236.909	56659.1	55961.35
800.2262	239.1339	56190.85	55467.9
800.3687	241.3582	56457	55747.4
800.5111	243.582	56458.4	55717.25
800.6536	245.8053	56475.15	55750.1
800.7961	248.0281	56477.95	55757.15
800.9387	250.2503	56512.75	55785.05
801.0812	252.472	56413.65	55684.9
801.2238	254.6932	56504.1	55775.35
801.3664	256.9139	56457.7	55729.6
801.509	259.134	56721.85	55986.75
801.6516	261.3536	56407.4	55676
801.7942	263.5727	56601.75	55869.85
801.9369	265.7912	56510.2	55778.7
802.0795	268.0092	56567.15	55835.5
802.2222	270.2267	56586.9	55852.25
802.3649	272.4436	56467.9	55730.9
802.5076	274.6601	56601.95	55856.1
802.6504	276.8759	56646.1	55901.1
802.7931	279.0913	56587.55	55842.9
802.9359	281.3061	56611.5	55868.95
803.0787	283.5204	56666.55	55920.05
803.2215	285.7341	56629.9	55882
803.3643	287.9473	56754.7	55993.8
803.5071	290.16	56642.55	55889.6
803.6499	292.3721	56756.5	56010.5
803.7928	294.5837	56590.8	55840.2
803.9357	296.7947	56487.6	55740.95
804.0786	299.0052	56706.65	55957
804.2215	301.2152	56642.35	55885.9
804.3644	303.4246	56733.4	55981.6
804.5074	305.6334	56717.6	55965.4
804.6503	307.8418	56558.85	55804.5
804.7933	310.0495	56596.95	55840.75
804.9363	312.2568	56565.4	55806.15
805.0793	314.4635	56555	55796.6
805.2223	316.6696	56598.35	55837.55
805.3653	318.8752	56659.55	55889.15
805.5084	321.0802	56362.05	55599.15
805.6514	323.2847	56510.3	55745.25
805.7945	325.4887	56479.1	55714.75
805.9376	327.692	56405.75	55637.05
806.0807	329.8949	56519.95	55753.8
806.2238	332.0972	56433.95	55663.25
806.367	334.2989	56511.8	55737.8
806.5101	336.5001	56585.4	55810.8
806.6533	338.7007	56387.35	55613.95
806.7965	340.9008	56508.6	55733.15
806.9397	343.1003	56493.4	55717.95
807.0829	345.2992	56572.5	55794.7
807.2261	347.4976	56461.15	55680.85
807.3693	349.6955	56519.9	55738.4
807.5126	351.8927	56456.2	55672.45
807.6559	354.0895	56514.4	55718.45
807.7991	356.2856	56507.45	55721.3
807.9424	358.4812	56571.8	55785.25
808.0857	360.6763	56464.4	55675.05
808.2291	362.8707	56533.35	55742.1
808.3724	365.0646	56493.1	55698.8
808.5158	367.258	56493.25	55698.55
808.6591	369.4508	56380.6	55580.15
808.8025	371.643	56544.95	55745.2
808.9459	373.8346	56459.7	55660.05
809.0893	376.0257	56439	55633.9
809.2327	378.2162	56390.2	55585.05
809.3762	380.4062	56277.25	55474.05
809.5196	382.5956	56394.2	55593.05
809.6631	384.7844	56356.4	55564.1
809.8066	386.9726	56418.6	55625
809.9501	389.1603	56371.5	55575.75
810.0936	391.3474	56308.25	55474.2
810.2371	393.5339	56386.15	55590.6
810.3806	395.7199	56190.55	55396.6
810.5241	397.9052	56236.2	55444
810.6677	400.09	56257.75	55461.25
810.8113	402.2743	56333.5	55537.35
810.9548	404.4579	56250.35	55455.55
811.0984	406.641	56239.45	55438.55
811.2421	408.8235	56284.85	55484.25
811.3857	411.0054	56287.45	55484.4
811.5293	413.1868	56353.25	55546.4
811.673	415.3675	56311.75	55500.55
811.8166	417.5477	56290.95	55480.8
811.9603	419.7273	56306.95	55492.75
812.104	421.9064	56218.6	55400.45
812.2477	424.0848	56257	55441.9
812.3914	426.2627	56296.4	55481.45
812.5351	428.4399	56145.9	55330.5
812.6788	430.6166	55996.8	55175.2
812.8226	432.7928	56147.9	55323.4
812.9663	434.9683	56025.75	55205.05
813.1101	437.1432	56029.45	55207.1
813.2539	439.3176	56087.05	55270.45
813.3977	441.4914	55857.2	55041.15
813.5415	443.6645	55919.45	55099.65
813.6853	445.8371	55887.4	55067.5
813.8291	448.0091	55754.65	54937
813.973	450.1806	55688.85	54867.4
814.1168	452.3514	55697.55	54873.4
814.2607	454.5216	55577.85	54747.8
814.4046	456.6913	55677.45	54852.25
814.5485	458.8603	55725.9	54904.45
814.6924	461.0288	55567	54743.7
814.8363	463.1967	55698.8	54879.65
814.9802	465.3639	55665.1	54839.8
815.1241	467.5306	55320.4	54494.3
815.2681	469.6967	55520.75	54698.55
815.412	471.8622	55630.15	54807.35
815.556	474.0271	55503.85	54680.3
815.7	476.1914	55515.65	54689.1
815.844	478.3551	55482.75	54654.85
815.988	480.5182	55686.6	54860.35
816.132	482.6807	55419.4	54594.4
816.276	484.8426	55454.7	54633.2
816.4201	487.0039	55676.15	54849.3
816.5641	489.1647	55676.55	54846.15
816.7082	491.3248	55432.05	54600.8
816.8522	493.4843	55713.7	54882.75
816.9963	495.6432	55700.05	54873.7
817.1404	497.8015	55392.55	54556.65
817.2845	499.9592	55579.75	54744.3
817.4286	502.1163	55553.7	54715.5
817.5727	504.2728	55537.45	54703.05
817.7168	506.4287	55514.3	54684.1
817.861	508.5839	55355.4	54523.25
818.0051	510.7386	55483.6	54652.55
818.1493	512.8927	55495	54652.85
818.2935	515.0461	55466.15	54628.6
818.4377	517.199	55578.1	54739
818.5818	519.3512	55416.35	54575.75
818.726	521.5029	55406.3	54561.15
818.8703	523.6539	55428.35	54589.35
819.0145	525.8043	55226.7	54381.7
819.1587	527.9541	55416.75	54573.65
819.303	530.1033	55422.4	54581.4
819.4472	532.2519	55276.75	54433.6
819.5915	534.3999	55417.45	54570.85
819.7357	536.5472	55505.75	54660.8
819.88	538.694	55185.85	54346.55
820.0243	540.8401	55356.05	54512.15
820.1686	542.9856	55414.65	54567.25
820.3129	545.1305	55487.05	54638.2
820.4572	547.2748	55334.75	54481.85
820.6016	549.4185	55304.4	54450.8
820.7459	551.5615	55429.8	54582.65
820.8902	553.704	55380.45	54530
821.0346	555.8458	55242.7	54395.05
821.1789	557.987	55265.65	54417.8
821.3233	560.1276	55337.95	54489.95
821.4677	562.2675	55258.4	54406.95
821.6121	564.4069	55279.8	54430.05
821.7565	566.5456	55387.85	54539.75
821.9009	568.6837	55176.05	54322.2
822.0453	570.8212	55252.5	54401.1
822.1897	572.958	54865.05	54010.55
822.3342	575.0942	55126.3	54273.7
822.4786	577.2299	54911.35	54063.55
822.6231	579.3648	54818.55	53973.95
822.7675	581.4992	54753.05	53909
822.912	583.6329	54703.55	53863.35
823.0565	585.766	54720.05	53875.65
823.201	587.8985	54756.4	53910.6
823.3454	590.0304	54372.45	53495.9
823.4899	592.1616	54658.2	53802.05
823.6345	594.2922	54473.15	53617.05
823.779	596.4222	54269.85	53411.05
823.9235	598.5515	54316.95	53460.5
824.068	600.6802	54441.95	53585.35
824.2126	602.8083	54126.05	53269.25
824.3571	604.9358	54096.3	53239.55
824.5017	607.0626	54326.25	53467.6
824.6462	609.1888	53917.3	53057.15
824.7908	611.3144	54140	53278.95
824.9354	613.4393	54004.9	53145
825.08	615.5636	53853.45	52991.25
825.2246	617.6873	54030.2	53166.8
825.3692	619.8103	53804.8	52941.3
825.5138	621.9327	54030.7	53164.8
825.6584	624.0544	54011.85	53152.05
825.803	626.1756	53874.9	53014.75
825.9477	628.2961	53876.85	53012.4
826.0923	630.4159	53732.55	52866.3
826.237	632.5351	53691.95	52828.55
826.3816	634.6537	54086.3	53220.55
826.5263	636.7716	53642.55	52773.95
826.6709	638.8889	53744.85	52874.45
826.8156	641.0056	53738	52870
826.9603	643.1216	53761.4	52891.35
827.105	645.237	53825.9	52956
827.2497	647.3518	53560.4	52695.4
827.3944	649.4659	53635.4	52772.4
827.5391	651.5793	53681.95	52816.75
827.6838	653.6922	53713.3	52849
827.8285	655.8043	53389.55	52523.3
827.9733	657.9159	53798.3	52930.25
828.118	660.0268	53134.7	52268
828.2627	662.137	53510.45	52642.95
828.4075	664.2466	53537.55	52662.7
828.5522	666.3556	53333.05	52460.35
828.697	668.4639	53445.45	52573.1
828.8418	670.5716	53289.45	52423.4
828.9865	672.6786	53418.1	52546.75
829.1313	674.785	53188.05	52316.7
829.2761	676.8907	53164.05	52291.25
829.4209	678.9958	53244.15	52378.2
829.5657	681.1002	53277.5	52405.2
829.7105	683.204	53045.2	52166.65
829.8553	685.3072	52923.9	52050.25
830.0001	687.4097	52994.25	52122.25
830.1449	689.5115	52927.95	52049.35
830.2898	691.6127	53065.55	52192.5
830.4346	693.7132	52867.9	51996.3
830.5794	695.8131	52940.2	52042.55
830.7243	697.9123	52955.4	52077
830.8691	700.0109	52985.15	52107.7
831.014	702.1089	52726.4	51852.95
831.1588	704.2061	52784.8	51910.35
831.3037	706.3028	52810	51932.8
831.4486	708.3987	52789.55	51913.75
831.5935	710.4941	52683.25	51807.35
831.7383	712.5887	52818.15	51940.2
831.8832	714.6827	52694.8	51812.4
832.0281	716.7761	52814.5	51940.9
832.173	718.8688	52816.05	51936.55
832.3179	720.9608	52600.7	51715.7
832.4628	723.0522	52643.3	51759.45
832.6077	725.1429	52492.75	51610.25
832.7527	727.233	52873.5	51992
832.8976	729.3224	52299.1	51419.5
833.0425	731.4112	52458.1	51576.9
833.1874	733.4993	52441.25	51561.35
833.3324	735.5867	52409.55	51527.6
833.4773	737.6735	52267.45	51385.85
833.6222	739.7596	52090	51208.35
833.7672	741.845	52096	51214.75
833.9122	743.9298	52263.85	51379.75
834.0571	746.014	52075.55	51193.7
834.2021	748.0974	51922.1	51036.6
834.347	750.1802	52132.4	51245.75
834.492	752.2624	51714.65	50829.7
834.637	754.3439	51738.05	50854.6
834.782	756.4247	51772.65	50877.7
834.9269	758.5048	51563.8	50680.6
835.0719	760.5843	51582.4	50696.6
835.2169	762.6631	51613.75	50727.05
835.3619	764.7413	51547.45	50663.95
835.5069	766.8188	51494.85	50607.4
835.6519	768.8956	51559.5	50671.55
835.7969	770.9718	51553.7	50667.35
835.9419	773.0473	51390.4	50508.2
836.0869	775.1221	51253.75	50369.1
836.232	777.1962	51207.6	50319.05
836.377	779.2697	51008.05	50121.1
836.522	781.3426	51029.45	50123.65
836.667	783.4147	51045.15	50157.55
836.8121	785.4862	50987.15	50101.65
836.9571	787.557	50858.75	49971.3
837.1021	789.6271	51015.85	50125.55
837.2472	791.6966	50823.05	49937.45
837.3922	793.7654	50616.35	49728.4
837.5373	795.8335	50611.25	49726.5
837.6823	797.901	50582.35	49695.35
837.8274	799.9678	50474.2	49583.9
837.9724	802.0339	50454.35	49565.9
838.1175	804.0993	50453.55	49555.45
838.2626	806.1641	50310	49420.35
838.4076	808.2282	50270	49384.2
838.5527	810.2916	50253.55	49363.3
838.6978	812.3544	50299.9	49412.55
838.8428	814.4164	50084.15	49195
838.9879	816.4778	50179.7	49289
839.133	818.5385	50074.3	49184.4
839.2781	820.5986	50020.15	49129.9
839.4232	822.658	50089.95	49196.25
839.5682	824.7166	49993.25	49101.65
839.7133	826.7747	49933	49043
839.8584	828.832	49974.35	49083.55
840.0035	830.8886	49939.7	49046.75
840.1486	832.9446	49937.8	49043.6
840.2937	834.9999	49718.8	48829.9
840.4388	837.0545	49780.15	48882.8
840.5839	839.1085	49750.55	48856.7
840.729	841.1618	49676.5	48781.5
840.8741	843.2143	49512.65	48623
841.0192	845.2662	49416.35	48525.2
841.1643	847.3175	49481.45	48589.65
841.3095	849.368	49312.85	48420.7
841.4546	851.4179	49335.5	48441.55
841.5997	853.467	49157.45	48264.3
841.7448	855.5155	49238.75	48343.75
841.8899	857.5633	49044.55	48150
842.0351	859.6105	48942.15	48049
842.1802	861.6569	49001.2	48106.35
842.3253	863.7027	48912.2	48016.75
842.4704	865.7478	48923.55	48028.1
842.6156	867.7922	48869.2	47975.5
842.7607	869.8359	48896.8	48000.2
842.9058	871.8789	48749.4	47852.55
843.0509	873.9212	48772.55	47847.95
843.1961	875.9629	48707.25	47810.45
843.3412	878.0039	48706.75	47812.2
843.4863	880.0441	48638.75	47746.35
843.6315	882.0837	48641.95	47750.1
843.7766	884.1226	48623.8	47730
843.9218	886.1609	48620.9	47725.65
844.0669	888.1984	48567.65	47670.7
844.212	890.2352	48618.75	47723.05
844.3572	892.2714	48469.4	47568.4
844.5023	894.3069	48508.15	47609.35
844.6475	896.3416	48342.8	47444.85
844.7926	898.3757	48334.5	47437.75
844.9377	900.4091	48230.2	47331.95
845.0829	902.4418	48267.6	47365.7
845.228	904.4739	48141.55	47244.1
845.3732	906.5052	48195.75	47293.05
845.5183	908.5358	48104.25	47206.75
845.6635	910.5658	47999	47098.5
845.8086	912.595	47980.85	47083.5
845.9538	914.6236	47861.15	46962.25
846.0989	916.6515	47902	47003.1
846.2441	918.6786	47732	46829.95
846.3892	920.7051	47717.45	46816.85
846.5344	922.7309	47731.65	46832.95
846.6795	924.756	47608.5	46707.8
846.8246	926.7804	47584.4	46685
846.9698	928.8041	47404.05	46504.4
847.1149	930.8272	47471.2	46571.9
847.2601	932.8495	47340.85	46441.55
847.4052	934.8711	47280.15	46378.8
847.5504	936.892	47126.8	46226.75
847.6955	938.9123	47133.35	46231.95
847.8407	940.9318	47041.5	46143.7
847.9858	942.9506	46954.95	46052.45
848.131	944.9688	46878.4	45980.05
848.2761	946.9862	46745.1	45845.6
848.4213	949.003	46695.85	45797.25
848.5664	951.019	46546.25	45647.05
848.7115	953.0344	46550.9	45648.55
848.8567	955.0491	46471.95	45570.95
849.0018	957.063	46496.3	45597.5
849.147	959.0763	46542.25	45642.2
849.2921	961.0888	46355.25	45453.9
849.4373	963.1007	46391.35	45492.25
849.5824	965.1119	46348.25	45451.2
849.7275	967.1223	46279.9	45386
849.8727	969.1321	46307.55	45414.6
850.0178	971.1412	46195	45298.25
850.1629	973.1495	46072.9	45175.05
850.3081	975.1572	46119.35	45182.6
850.4532	977.1641	46030.9	45131
850.5983	979.1704	45939.25	45038.55
850.7435	981.1759	45870.7	44966.25
850.8886	983.1808	45839.5	44937.4
851.0337	985.1849	45753.95	44843.05
851.1788	987.1884	45723.75	44820.95
851.324	989.1911	45733.85	44830.95
851.4691	991.1932	45589.75	44686.4
851.6142	993.1945	45505.35	44603.8
851.7593	995.1951	45420.65	44520.9
851.9045	997.1951	45350.4	44442.4
852.0496	999.1943	45245.45	44346.45
852.1947	1001.1928	45131.2	44227.6
852.3398	1003.1906	45025.9	44123.15
852.4849	1005.1877	44955.9	44055
852.63	1007.1841	44832.2	43932.9
852.7751	1009.1798	44749.4	43848.2
852.9202	1011.1748	44702.2	43803.6
853.0653	1013.1691	44636.45	43735.05
853.2104	1015.1627	44262.9	43360.5
853.3555	1017.1556	44323.9	43422.05
853.5006	1019.1477	44285.35	43384.7
853.6457	1021.1392	44022.6	43125.65
853.7908	1023.1299	43761.2	42862
853.9359	1025.12	43875.9	42978.6
854.081	1027.1093	43698	42807.6
854.2261	1029.0979	43627.7	42736.65
854.3712	1031.0859	43529.55	42636.2
854.5163	1033.0731	43319.85	42422.2
854.6613	1035.0596	43391.8	42495.1
854.8064	1037.0454	43220.8	42321.4
854.9515	1039.0304	43086.5	42185.45
855.0965	1041.0148	42779.05	41879.65
855.2416	1042.9985	42806.55	41902.7
855.3867	1044.9814	42944.9	42044.5
855.5317	1046.9636	42603.15	41700.75
855.6768	1048.9452	42574.2	41673.8
855.8219	1050.926	42505.9	41605.3
855.9669	1052.9061	42436.65	41535.15
856.112	1054.8855	42425.95	41523.65
856.257	1056.8642	42325.9	41424.05
856.4021	1058.8421	42248.1	41341.65
856.5471	1060.8194	42205.85	41302.3
856.6921	1062.7959	42076.75	41176.2
856.8372	1064.7717	42175	41268.7
856.9822	1066.7469	42071.3	41166.8
857.1272	1068.7213	42021.1	41115.45
857.2723	1070.695	41932.9	41032.4
857.4173	1072.6679	41773	40870.2
857.5623	1074.6402	41798.5	40894.95
857.7073	1076.6117	41707.9	40800.65
857.8523	1078.5826	41674.7	40772.95
857.9973	1080.5527	41614.2	40708.85
858.1423	1082.5221	41465.05	40562.25
858.2873	1084.4908	41448.3	40543.35
858.4323	1086.4587	41326.5	40424.75
858.5773	1088.426	41326.15	40423.15
858.7223	1090.3925	41196.4	40289.9
858.8673	1092.3584	41175.5	40272.85
859.0123	1094.3235	41012.85	40113.8
859.1573	1096.2879	40993.05	40093.25
859.3022	1098.2515	40955.15	40054.5
859.4472	1100.2145	40863.35	39962.3
859.5922	1102.1767	40807.95	39902.3
859.7371	1104.1382	40873.3	39971.55
859.8821	1106.099	40765.3	39861.5
860.027	1108.0591	40680.5	39778.7
860.172	1110.0185	40500.9	39597.1
860.3169	1111.9771	40669.3	39767.85
860.4619	1113.9351	40512.55	39612.05
860.6068	1115.8923	40376.7	39472.2
860.7517	1117.8488	40216.85	39312.55
860.8967	1119.8045	40016.75	39111.4
861.0416	1121.7596	40089.8	39186.1
861.1865	1123.7139	39908.6	39006.7
861.3314	1125.6675	39898.55	38996.8
861.4763	1127.6204	39833.3	38932.25
861.6212	1129.5726	39639.05	38733.45
861.7661	1131.524	39692	38788.5
861.911	1133.4748	39667.5	38763.6
862.0559	1135.4248	39460.3	38557.75
862.2008	1137.3741	39438	38536.3
862.3457	1139.3226	39347.1	38445.5
862.4905	1141.2705	39361.25	38459.7
862.6354	1143.2176	39249.2	38341.55
862.7803	1145.164	38963.75	38059.6
862.9251	1147.1097	39043.15	38136.9
863.07	1149.0546	39065.55	38162.3
863.2148	1150.9989	39051.5	38148.45
863.3597	1152.9424	38786.8	37883.95
863.5045	1154.8852	38881.5	37980
863.6493	1156.8272	38680.4	37779.25
863.7942	1158.7686	38851.55	37940.2
863.939	1160.7092	38538.35	37635.05
864.0838	1162.6491	38511.6	37606.45
864.2286	1164.5883	38590.75	37690.1
864.3734	1166.5267	38392.05	37490.05
864.5182	1168.4644	38484.2	37583.35
864.663	1170.4014	38438.2	37528.55
864.8078	1172.3377	38482.9	37583.2
864.9526	1174.2732	38509.25	37605.1
865.0974	1176.2081	38439.7	37536.25
865.2421	1178.1421	38391.9	37487.5
865.3869	1180.0755	38551.5	37649.95
865.5317	1182.0082	38367.45	37465.35
865.6764	1183.9401	38377.9	37475.4
865.8212	1185.8713	38131.5	37232
865.9659	1187.8017	38119.45	37222.15
866.1106	1189.7315	38057.15	37164.15
866.2554	1191.6605	37906.9	36985.4
866.4001	1193.5888	37702.2	36804.75
866.5448	1195.5163	37517.85	36618.9
866.6895	1197.4432	37446.65	36546.3
866.8342	1199.3693	37408.15	36507.4
866.9789	1201.2947	37248.05	36342.65
867.1236	1203.2193	37209.4	36309.85
867.2683	1205.1432	36995.05	36093.55
867.413	1207.0664	36964.9	36061.75
867.5576	1208.9889	36898.3	35994.45
867.7023	1210.9106	36825.25	35925.3
867.847	1212.8316	36645.7	35743.2
867.9916	1214.7519	36602.7	35692.95
868.1363	1216.6715	36511.35	35609.9
868.2809	1218.5903	36502.1	35601.45
868.4255	1220.5084	36358.95	35458.55
868.5701	1222.4257	36467.2	35567.85
868.7148	1224.3424	36260.1	35360
868.8594	1226.2583	36177.45	35269.05
869.004	1228.1735	36247.15	35342.9
869.1486	1230.0879	35981	35077.35
869.2932	1232.0016	36058.4	35157.7
869.4377	1233.9146	35908.2	35006.3
869.5823	1235.8269	35864.45	34963.6
869.7269	1237.7384	35804.8	34905.2
869.8715	1239.6492	35693.05	34791.15
870.016	1241.5592	35552.75	34651.55
870.1606	1243.4686	35542.1	34641.65
870.3051	1245.3772	35412.7	34508.15
870.4496	1247.285	35468.7	34566.6
870.5941	1249.1922	35283.55	34381
870.7387	1251.0986	35363.75	34462.15
870.8832	1253.0042	35175.7	34274.35
871.0277	1254.9092	35246.85	34344.1
871.1722	1256.8134	35016.4	34116.9
871.3167	1258.7169	35189.3	34288.7
871.4611	1260.6196	34970.7	34070.3
871.6056	1262.5216	35019.45	34116.35
871.7501	1264.4229	35017.65	34114.2
871.8945	1266.3234	35066.75	34164.45
872.039	1268.2232	35019.15	34114.35
872.1834	1270.1223	34891.15	33990.25
872.3278	1272.0207	34845.1	33945.9
872.4723	1273.9183	34820.25	33911.35
872.6167	1275.8151	34738.2	33836.3
872.7611	1277.7113	34677.7	33776.8
872.9055	1279.6067	34523.25	33624.25
873.0499	1281.5014	34511.4	33608.85
873.1943	1283.3953	34609.95	33705.7
873.3386	1285.2885	34598.1	33697.1
873.483	1287.181	34663.8	33761.7
873.6274	1289.0727	34690.4	33791.35
873.7717	1290.9637	34534.35	33629.3
873.9161	1292.854	34761.85	33861.85
874.0604	1294.7435	34612.15	33713.35
874.2047	1296.6323	34540.95	33640.15
874.349	1298.5204	34471.8	33568
874.4933	1300.4077	34497.75	33595.8
874.6376	1302.2943	34304.15	33406.2
874.7819	1304.1802	34236.7	33336.8
874.9262	1306.0653	34067.15	33165.15
875.0705	1307.9497	33961.1	33059.3
875.2147	1309.8333	33839.7	32938.95
875.359	1311.7162	33734.7	32835.25
875.5032	1313.5984	33703.8	32799.9
875.6475	1315.4798	33566.4	32662.65
875.7917	1317.3605	33549.95	32631.45
875.9359	1319.2405	33489.1	32586.2
876.0801	1321.1197	33295.1	32393.4
876.2243	1322.9982	33243.8	32339.3
876.3685	1324.876	33197.55	32297.5
876.5127	1326.753	33050.55	32148.55
876.6569	1328.6293	33094.55	32192.3
876.801	1330.5048	32964.1	32060.3
876.9452	1332.3796	32865.35	31964.45
877.0893	1334.2537	32814.45	31886.3
877.2335	1336.127	32771.75	31868.75
877.3776	1337.9996	32692.25	31790.15
877.5217	1339.8714	32643.9	31742.05
877.6658	1341.7426	32546.25	31602.6
877.8099	1343.6129	32549.1	31647.25
877.954	1345.4826	32505.9	31606.75
878.0981	1347.3515	32422.65	31516.8
878.2422	1349.2196	32410.25	31507.4
878.3862	1351.087	32409.1	31505.75
878.5303	1352.9537	32357.95	31455.75
878.6743	1354.8197	32340.4	31437.1
878.8184	1356.6849	32337.7	31436.85
878.9624	1358.5493	32311.3	31409.65
879.1064	1360.4131	32257.75	31357.1
879.2504	1362.276	32289.25	31389.55
879.3944	1364.1383	32107.85	31207.55
879.5384	1365.9998	32031.55	31124.85
879.6823	1367.8606	31928.6	31027.1
879.8263	1369.7206	31769.2	30868.8
879.9702	1371.5799	31612.35	30706.95
880.1142	1373.4384	31487.6	30586.05
880.2581	1375.2962	31475.55	30572.45
880.402	1377.1533	31244.6	30341.4
880.5459	1379.0096	31064	30163.35
880.6898	1380.8652	30969.6	30070.3
880.8337	1382.7201	30802.1	29900.9
880.9776	1384.5742	30663.4	29762.8
881.1215	1386.4275	30476.35	29575.55
881.2653	1388.2802	30378.5	29477.15
881.4092	1390.132	30313.95	29413.35
881.553	1391.9832	30242.05	29337.55
881.6968	1393.8336	30069.3	29166.05
881.8406	1395.6832	29984.65	29083.05
881.9844	1397.5322	29877.35	28975.6
882.1282	1399.3803	29771.6	28866.9
882.272	1401.2278	29601.5	28700.1
882.4158	1403.0745	29589.15	28687.75
882.5595	1404.9204	29479.25	28579.65
882.7033	1406.7656	29466.55	28563.65
882.847	1408.6101	29245.15	28343.15
882.9908	1410.4538	29197.2	28295.4
883.1345	1412.2968	29164.55	28263.6
883.2782	1414.139	28997.4	28097.4
883.4219	1415.9805	28981.45	28081.65
883.5656	1417.8213	28875.75	27967.2
883.7092	1419.6613	28876.3	27975.75
883.8529	1421.5006	28795.85	27894.5
883.9965	1423.3391	28771.3	27870.85
884.1402	1425.1769	28758.05	27855.25
884.2838	1427.0139	28819.85	27919.55
884.4274	1428.8502	28868.1	27964
884.571	1430.6858	28892.1	27992.45
884.7146	1432.5206	28919.3	28016.2
884.8582	1434.3547	28897.1	27993.8
885.0018	1436.188	28840.65	27939.8
885.1453	1438.0206	28833.85	27931.2
885.2889	1439.8524	28663.2	27763.15
885.4324	1441.6835	28624	27723.4
885.5759	1443.5139	28536	27635.25
885.7194	1445.3435	28400.35	27499.8
885.8629	1447.1724	28406.4	27506.55
886.0064	1449.0005	28325.8	27426.15
886.1499	1450.8279	28263.8	27361.25
886.2933	1452.6545	28223.05	27323.95
886.4368	1454.4804	28210.8	27311.35
886.5802	1456.3056	28185.75	27278.75
886.7237	1458.13	28149.95	27251.75
886.8671	1459.9536	28121.6	27222.3
887.0105	1461.7766	27956.9	27057.45
887.1539	1463.5987	27804.05	26902
887.2972	1465.4202	27659.15	26758.3
887.4406	1467.2409	27513.1	26613
887.584	1469.0608	27459.8	26561
887.7273	1470.88	27364.95	26464.65
887.8706	1472.6984	27259.75	26360.7
888.0139	1474.5161	27096.3	26194.3
888.1572	1476.3331	27007	26108.7
888.3005	1478.1493	26933.9	26032.5
888.4438	1479.9648	26881.55	25981.95
888.5871	1481.7795	26847.15	25948.9
888.7303	1483.5935	26835.9	25936.3
888.8736	1485.4067	26698.15	25797.45
889.0168	1487.2192	26700.8	25801.2
889.16	1489.031	26663.25	25761.3
889.3032	1490.842	26605	25705.35
889.4464	1492.6522	26587.25	25688.1
889.5896	1494.4618	26466.7	25564.55
889.7327	1496.2705	26418.35	25518.55
889.8759	1498.0785	26341.3	25442.1
890.019	1499.8858	26307.4	25408.4
890.1622	1501.6924	26243.2	25344
890.3053	1503.4981	26181.15	25280.8
890.4484	1505.3032	26146.65	25247.25
890.5914	1507.1075	26051	25150.75
890.7345	1508.911	26008.75	25108.95
890.8776	1510.7138	25931.9	25029.15
891.0206	1512.5159	25871.25	24971.3
891.1637	1514.3172	25765	24866.25
891.3067	1516.1178	25689.95	24792.9
891.4497	1517.9176	25728.2	24826.75
891.5927	1519.7166	25585.45	24687.95
891.7357	1521.515	25502.3	24598.25
891.8786	1523.3126	25456.9	24558.55
892.0216	1525.1094	25402.5	24501.85
892.1645	1526.9055	25279.7	24384.65
892.3074	1528.7008	25238.35	24341.25
892.4503	1530.4954	25062.65	24163.45
892.5932	1532.2893	25088.65	24191.25
892.7361	1534.0824	24878.85	23977.15
892.879	1535.8747	24872.45	23976.55
893.0218	1537.6663	24879.7	23982.05
893.1647	1539.4572	24704.55	23809.2
893.3075	1541.2473	24697.55	23800.75
893.4503	1543.0367	24626.4	23728.8
893.5931	1544.8253	24504.6	23603.65
893.7359	1546.6132	24501.95	23602.3
893.8787	1548.4003	24422.05	23514.05
894.0214	1550.1867	24368.5	23463.35
894.1642	1551.9723	24318.65	23418.85
894.3069	1553.7572	24342.45	23447.4
894.4496	1555.5414	24272.15	23378.1
894.5923	1557.3247	24174.7	23279.95
894.735	1559.1074	24154.55	23259.9
894.8777	1560.8893	24156.65	23262.55
895.0204	1562.6705	24093.95	23200.25
895.163	1564.4509	24057.3	23162.6
895.3056	1566.2305	24021.4	23129.55
895.4482	1568.0094	24072.45	23179.85
895.5908	1569.7876	24013.85	23121.2
895.7334	1571.565	23930.05	23035.85
895.876	1573.3417	23886.75	22993.95
896.0186	1575.1176	23799.4	22903.75
896.1611	1576.8928	23762.5	22870.8
896.3036	1578.6672	23677.65	22789.85
896.4461	1580.4409	23624.4	22735.75
896.5886	1582.2138	23531.7	22639.95
896.7311	1583.986	23491.2	22598.1
896.8736	1585.7575	23489.6	22598.45
897.0161	1587.5282	23413	22524.4
897.1585	1589.2981	23391.65	22502.55
897.3009	1591.0673	23302.25	22411.5
897.4433	1592.8358	23302.7	22412.2
897.5857	1594.6035	23272.25	22378.35
897.7281	1596.3704	23206.65	22314.8
897.8705	1598.1366	23171.85	22280.2
898.0128	1599.9021	23105	22215.9
898.1551	1601.6668	23026.7	22132.95
898.2975	1603.4308	23017.25	22124.3
898.4398	1605.194	23019.1	22121.85
898.5821	1606.9564	22994.45	22103.95
898.7243	1608.7182	22969.25	22078.45
898.8666	1610.4791	23000.8	22115.2
899.0088	1612.2394	22957.05	22071.75
899.1511	1613.9988	22969.25	22082.2
899.2933	1615.7576	23016.6	22127.2
899.4355	1617.5156	23050.05	22155.45
899.5776	1619.2728	23044.85	22154.25
899.7198	1621.0293	22948.55	22058.4
899.862	1622.785	22857.95	21966.75
900.0041	1624.54	22740.85	21848.75
900.1462	1626.2942	22611.05	21721.75
900.2883	1628.0477	22404.45	21511.45
900.4304	1629.8005	22292.05	21398.15
900.5725	1631.5525	22168.65	21279.25
900.7145	1633.3037	22046.95	21156.8
900.8566	1635.0542	21946	21057.85
900.9986	1636.804	21858.1	20967.4
901.1406	1638.553	21851.75	20918.4
901.2826	1640.3013	21697.05	20809.45
901.4245	1642.0488	21626.4	20736.25
901.5665	1643.7955	21603.15	20717.5
901.7085	1645.5416	21523.2	20635.65
901.8504	1647.2868	21556.45	20667.45
901.9923	1649.0313	21504.3	20614.5
902.1342	1650.7751	21501.2	20609.5
902.2761	1652.5181	21462.8	20575.95
902.4179	1654.2604	21398.15	20512.5
902.5598	1656.0019	21417.05	20528.85
902.7016	1657.7427	21405.65	20519.9
902.8434	1659.4828	21446.25	20557.7
902.9852	1661.222	21465.15	20573.05
903.127	1662.9606	21398.6	20509.55
903.2687	1664.6984	21331.65	20442.3
903.4105	1666.4354	21180.7	20291.7
903.5522	1668.1717	21001.2	20108.85
903.6939	1669.9072	20772	19883.15
903.8356	1671.642	20623.6	19732.5
903.9773	1673.3761	20558.45	19669.4
904.119	1675.1094	20449.3	19561.05
904.2606	1676.8419	20315.7	19427.45
904.4022	1678.5737	20206.75	19318.95
904.5439	1680.3048	20095.9	19207.5
904.6855	1682.0351	19967.75	19078.75
904.827	1683.7646	19874.35	18982.35
904.9686	1685.4934	19791.6	18902.6
905.1101	1687.2215	19747.7	18856.85
905.2517	1688.9488	19644.4	18757.65
905.3932	1690.6754	19550.35	18663.9
905.5347	1692.4012	19505.95	18619.75
905.6761	1694.1263	19424.3	18534.8
905.8176	1695.8506	19369.5	18478.5
905.9591	1697.5742	19322.2	18434.6
906.1005	1699.297	19237.55	18352.25
906.2419	1701.0191	19129.45	18243.4
906.3833	1702.7404	19051.35	18164.65
906.5246	1704.461	18971.3	18083.35
906.666	1706.1808	18898.35	18009.4
906.8073	1707.8999	18839.65	17952.35
906.9487	1709.6182	18788.2	17901.75
907.09	1711.3358	18743.9	17860.2
907.2313	1713.0527	18695.4	17811.35
907.3725	1714.7688	18638.35	17746.3
907.5138	1716.4841	18572.55	17683.65
907.655	1718.1987	18548.65	17656.9
907.7962	1719.9126	18488.3	17603.15
907.9374	1721.6257	18420.7	17531.8
908.0786	1723.338	18368.35	17482.4
908.2198	1725.0496	18260.45	17373.35
908.3609	1726.7605	18229.8	17343.25
908.502	1728.4706	18164.45	17277.3
908.6431	1730.18	18047.65	17160.8
908.7842	1731.8886	18039.05	17152.8
908.9253	1733.5964	18011.8	17121.9
909.0664	1735.3036	17983.8	17096.25
909.2074	1737.0099	17960	17074.4
909.3484	1738.7156	17908.2	17026.4
909.4894	1740.4204	17861.8	16970.8
909.6304	1742.1246	17809.8	16924.3
909.7714	1743.8279	17766.2	16880.05
909.9123	1745.5306	17737.3	16852.75
910.0532	1747.2325	17651.55	16767.5
910.1941	1748.9336	17619.8	16734.1
910.335	1750.634	17545.3	16656.75
910.4759	1752.3336	17521.45	16637.1
910.6168	1754.0325	17485.7	16600.65
910.7576	1755.7307	17427.95	16542.85
910.8984	1757.4281	17476.3	16591.2
911.0392	1759.1247	17434.35	16541.8
911.18	1760.8206	17342.25	16449.7
911.3208	1762.5158	17348.9	16458.8
911.4615	1764.2102	17281.1	16394.8
911.6022	1765.9039	17213.2	16328.5
911.7429	1767.5968	17173.15	16287.6
911.8836	1769.289	17098.25	16212.1
912.0243	1770.9804	17062.1	16174.55
912.1649	1772.6711	17053	16165.7
912.3056	1774.361	17001.5	16113
912.4462	1776.0502	16958.8	16072.7
912.5868	1777.7386	16922	16031.05
912.7274	1779.4263	16870.45	15983.3
912.8679	1781.1132	16846.95	15962.9
913.0084	1782.7994	16838.85	15952.15
913.149	1784.4849	16766.7	15882.6
913.2895	1786.1696	16712.5	15809
913.4299	1787.8535	16704.7	15821.7
913.5704	1789.5367	16685.25	15798.95
913.7108	1791.2192	16624.1	15740.6
913.8513	1792.9009	16555.65	15639.4
913.9917	1794.5818	16531.5	15644.55
914.132	1796.2621	16483.85	15601.35
914.2724	1797.9415	16464	15578.4
914.4128	1799.6202	16409.55	15522.9
914.5531	1801.2982	16380.35	15495.85
914.6934	1802.9755	16348.2	15458.9
914.8337	1804.6519	16313.75	15428.05
914.9739	1806.3277	16247.1	15360.8
915.1142	1808.0027	16191.8	15307.85
915.2544	1809.6769	16140.95	15257.3
915.3946	1811.3504	16152.75	15268.3
915.5348	1813.0231	16103.7	15220.2
915.675	1814.6951	16079.25	15194.75
915.8151	1816.3664	16096.75	15208.25
915.9553	1818.0369	16013.25	15128.3
916.0954	1819.7067	15935.55	15050.3
916.2355	1821.3757	15938.2	15051
916.3755	1823.044	15917.6	15031.5
916.5156	1824.7115	15867.7	14980.6
916.6556	1826.3783	15821.9	14936.05
916.7956	1828.0443	15765.5	14880.8
916.9356	1829.7096	15700.8	14813.75
917.0756	1831.3741	15695.05	14807.45
917.2155	1833.0379	15685.6	14801.7
917.3555	1834.701	15628.55	14743.05
917.4954	1836.3633	15597.85	14711.75
917.6353	1838.0248	15576.7	14691.4
917.7751	1839.6856	15543.75	14659.45
917.915	1841.3457	15527.3	14645.05
918.0548	1843.005	15488.75	14603.05
918.1946	1844.6636	15448.65	14564.5
918.3344	1846.3214	15409.55	14523.8
918.4742	1847.9785	15388.5	14503.85
918.6139	1849.6349	15371.1	14485.75
918.7537	1851.2904	15331	14435.85
918.8934	1852.9453	15273.5	14387.4
919.0331	1854.5994	15220.4	14331.05
919.1727	1856.2528	15266.45	14377.2
919.3124	1857.9054	15208.15	14321.15
919.452	1859.5572	15192.7	14309.45
919.5916	1861.2083	15137.8	14251.4
919.7312	1862.8587	15145.35	14259.95
919.8708	1864.5084	15138.9	14252.8
920.0103	1866.1572	15048	14161.5
920.1498	1867.8054	14990.45	14103
920.2893	1869.4528	14960.55	14074.9
920.4288	1871.0994	14968.6	14082.55
920.5683	1872.7453	14922.3	14035.35
920.7077	1874.3905	14845.5	13951.2
920.8471	1876.0349	14818.65	13932.55
920.9865	1877.6786	14840.1	13955.5
921.1259	1879.3215	14800.8	13916.15
921.2653	1880.9637	14773	13888.9
921.4046	1882.6051	14768.9	13886.1
921.5439	1884.2458	14731.3	13844.55
921.6832	1885.8858	14652.55	13769.05
921.8225	1887.525	14644.85	13757.95
921.9617	1889.1634	14567.2	13682.65
922.101	1890.8011	14514.55	13628.45
922.2402	1892.4381	14481.45	13596.85
922.3794	1894.0743	14492.7	13607.85
922.5185	1895.7098	14462.5	13577.6
922.6577	1897.3446	14408.35	13522.65
922.7968	1898.9786	14361.2	13471.95
922.9359	1900.6118	14340.75	13456.05
923.075	1902.2443	14277.7	13389.85
923.214	1903.8761	14253.85	13370.2
923.3531	1905.5071	14143.85	13257.1
923.4921	1907.1374	14121	13235.9
923.6311	1908.7669	14127.95	13243.2
923.77	1910.3957	14112.55	13228.1
923.909	1912.0237	14037.9	13153.55
924.0479	1913.651	13999.8	13113.5
924.1868	1915.2776	13969.85	13086.65
924.3257	1916.9034	13882.35	12997.7
924.4646	1918.5285	13836.9	12953.45
924.6034	1920.1528	13780.35	12894.85
924.7422	1921.7764	13778.1	12893.95
924.881	1923.3992	13731.15	12845.15
925.0198	1925.0213	13633.85	12749.55
925.1586	1926.6427	13576.7	12693.55
925.2973	1928.2633	13766.95	12635.9
925.436	1929.8832	13571.55	12682.95
925.5747	1931.5023	13473.55	12588.6
925.7134	1933.1207	13456.1	12573.7
925.852	1934.7383	13387.55	12502.1
925.9906	1936.3552	13357.8	12473.85
926.1292	1937.9714	13343.5	12457.2
926.2678	1939.5868	13285.6	12399.4
926.4064	1941.2015	13216	12330.15
926.5449	1942.8154	13178.1	12291.8
926.6834	1944.4286	13137.35	12253.6
926.8219	1946.041	13110.15	12201.5
926.9604	1947.6528	13022.5	12134.55
927.0988	1949.2637	13019.1	12136.6
927.2372	1950.8739	12962	12077.1
927.3756	1952.4834	12930.15	12045.6
927.514	1954.0921	12904.9	12021
927.6523	1955.7001	12868.9	11980
927.7907	1957.3074	12847.9	11965.15
927.929	1958.9139	12752.6	11870.25
928.0673	1960.5197	12704.25	11819.3
928.2055	1962.1247	12675.25	11791.95
928.3438	1963.729	12626.75	11745.55
928.482	1965.3325	12615.3	11706.1
928.6202	1966.9353	12562.45	11679.6
928.7584	1968.5374	12535.2	11651
928.8965	1970.1387	12475	11590.85
929.0346	1971.7393	12443.45	11560.7
929.1727	1973.3392	12400.05	11515.9
929.3108	1974.9383	12354.1	11472.3
929.4489	1976.5366	12285.35	11401.6
929.5869	1978.1342	12301.95	11417.1
929.7249	1979.7311	12247.5	11364.15
929.8629	1981.3273	12205.3	11321.9
930.0009	1982.9227	12153.25	11268.5
930.1388	1984.5173	12115.7	11234.15
930.2767	1986.1112	12076.1	11195.45
930.4146	1987.7044	12052.4	11170.95
930.5525	1989.2968	12048.55	11165.05
930.6904	1990.8885	11996.75	11109.25
930.8282	1992.4795	12000.7	11117.45
930.966	1994.0697	11947.55	11067.1
931.1038	1995.6592	11901.45	11020.45
931.2415	1997.2479	11874.15	10988.95
931.3793	1998.8359	11837.9	10956.5
931.517	2000.4232	11789.9	10907.85
931.6547	2002.0097	11771.3	10891.5
931.7923	2003.5955	11699.35	10815.8
931.93	2005.1805	11707.25	10826.1
932.0676	2006.7648	11668.45	10787.85
932.2052	2008.3484	11629.7	10748.15
932.3427	2009.9312	11630.6	10746.9
932.4803	2011.5133	11584.45	10706.7
932.6178	2013.0946	11548.25	10665.85
932.7553	2014.6752	11525	10644.15
932.8928	2016.2551	11480.25	10597.6
933.0302	2017.8342	11453.5	10574.65
933.1676	2019.4126	11394.2	10513.4
933.305	2020.9902	11346.3	10467.6
933.4424	2022.5672	11309.15	10426.3
933.5798	2024.1433	11301.65	10415.7
933.7171	2025.7188	11280.65	10402.75
933.8544	2027.2935	11232.7	10352.95
933.9917	2028.8674	11212.55	10333
934.129	2030.4406	11188.6	10310.2
934.2662	2032.0131	11131.95	10254.75
934.4034	2033.5849	11101.4	10214.25
934.5406	2035.1559	11076.85	10197.25
934.6778	2036.7261	11049.3	10168.95
934.8149	2038.2957	11011.05	10127.5
934.952	2039.8645	10987.3	10107.75
935.0891	2041.4325	10971.55	10085.2
935.2262	2042.9998	10952.3	10071.5
935.3632	2044.5664	10953	10069.4
935.5002	2046.1323	10892.75	10012.75
935.6372	2047.6974	10880.25	10001.85
935.7742	2049.2617	10834.65	9955.8
935.9111	2050.8254	10801.3	9916.35
936.048	2052.3883	10785.75	9902.15
936.1849	2053.9504	10765.9	9883.95
936.3218	2055.5118	10714.4	9831.7
936.4586	2057.0725	10682.95	9797.75
936.5955	2058.6325	10680.3	9799.1
936.7323	2060.1917	10633.15	9752.65
936.869	2061.7502	10618.5	9735.45
937.0058	2063.3079	10574.75	9695.9
937.1425	2064.8649	10539.2	9656.45
937.2792	2066.4212	10524.95	9643.6
937.4159	2067.9767	10503.65	9620.95
937.5525	2069.5315	10443.95	9564.9
937.6891	2071.0856	10395.35	9512.75
937.8257	2072.6389	10357.7	9474.95
937.9623	2074.1915	10302.85	9425.45
938.0989	2075.7433	10282.95	9400.7
938.2354	2077.2945	10243.45	9364.6
938.3719	2078.8448	10207.75	9325.35
938.5084	2080.3945	10180.4	9298.5
938.6448	2081.9434	10179.7	9297.25
938.7812	2083.4916	10148.45	9265
938.9176	2085.039	10129.9	9244.6
939.054	2086.5857	10110.6	9226.2
939.1903	2088.1317	10106.5	9222.05
939.3267	2089.677	10046.05	9162.1
939.463	2091.2215	10007.8	9127.05
939.5992	2092.7652	9994.85	9109.1
939.7355	2094.3083	9980.1	9094.1
939.8717	2095.8506	9964.5	9081.95
940.0079	2097.3921	9940.5	9060.15
940.1441	2098.933	9885.05	9003.35
940.2802	2100.4731	9872.35	8990.45
940.4163	2102.0124	9887.9	8990.8
940.5524	2103.5511	9849.2	8966.75
940.6885	2105.089	9832.8	8949.15
940.8245	2106.6261	9816.65	8935.5
940.9606	2108.1626	9769.65	8887.35
941.0965	2109.6983	9773.15	8863.95
941.2325	2111.2332	9732.45	8849.15
941.3684	2112.7675	9688.8	8804.5
941.5044	2114.301	9670.25	8784.85
941.6403	2115.8337	9678.15	8795.75
941.7761	2117.3657	9655.4	8773.05
941.912	2118.897	9628.2	8745.9
942.0478	2120.4276	9612.6	8725.1
942.1835	2121.9575	9556	8674.45
942.3193	2123.4866	9561.3	8663.45
942.455	2125.0149	9536.4	8651.45
942.5907	2126.5426	9476.75	8593
942.7264	2128.0695	9463.5	8577.45
942.8621	2129.5956	9435.9	8557.25
942.9977	2131.1211	9430.3	8543.5
943.1333	2132.6458	9426.55	8545.75
943.2689	2134.1698	9403.45	8521.85
943.4044	2135.693	9369.7	8486.75
943.54	2137.2155	9346.4	8462
943.6755	2138.7373	9318.35	8436.5
943.8109	2140.2584	9270.7	8389
943.9464	2141.7787	9257.75	8372.2
944.0818	2143.2983	9187.6	8307.4
944.2172	2144.8171	9146.25	8267
944.3526	2146.3353	9152.75	8269.35
944.4879	2147.8527	9118.9	8237.05
944.6232	2149.3693	9105.85	8222.5
944.7585	2150.8853	9091.25	8209.05
944.8938	2152.4005	9026	8143.1
945.029	2153.9149	9018.25	8136.45
945.1642	2155.4287	8990.4	8109.65
945.2994	2156.9417	8990.5	8107.55
945.4346	2158.454	8971.25	8086.7
945.5697	2159.9655	8931.25	8049.15
945.7048	2161.4764	8902.25	8022.1
945.8399	2162.9865	8873.6	7991.8
945.9749	2164.4958	8869.1	7984.7
946.1099	2166.0045	8822.5	7937
946.2449	2167.5124	8824.4	7941.2
946.3799	2169.0195	8789.25	7908.1
946.5148	2170.526	8805.3	7921.5
946.6498	2172.0317	8747.8	7865.05
946.7846	2173.5367	8715.75	7832.2
946.9195	2175.0409	8712	7831.5
947.0543	2176.5445	8710.15	7829.65
947.1891	2178.0473	8649.65	7764.85
947.3239	2179.5494	8622.1	7735.8
947.4587	2181.0507	8603.75	7720.1
947.5934	2182.5513	8590.45	7708.8
947.7281	2184.0512	8564.55	7682.55
947.8628	2185.5504	8527.7	7642.45
947.9974	2187.0488	8480	7597.4
948.132	2188.5465	8450.05	7568.1
948.2666	2190.0435	8434.75	7551.3
948.4012	2191.5397	8417.55	7537.35
948.5357	2193.0353	8402.15	7520.95
948.6702	2194.5301	8329.35	7443.65
948.8047	2196.0241	8320.95	7435.9
948.9392	2197.5175	8305.3	7421.5
949.0736	2199.0101	8265.05	7376.8
949.208	2200.502	8230.7	7347.65
949.3424	2201.9931	8195.95	7312.65
949.4767	2203.4835	8181.55	7299.1
949.611	2204.9733	8165.1	7274.45
949.7453	2206.4622	8152.55	7272.85
949.8796	2207.9505	8132.05	7249.25
950.0138	2209.438	8090.55	7211.05
950.148	2210.9248	8071.65	7189.5
950.2822	2212.4109	8054.35	7173.5
950.4164	2213.8962	8029.8	7144
950.5505	2215.3809	8021.9	7136.7
950.6846	2216.8648	8005.9	7121.6
950.8186	2218.3479	7962.35	7072.7
950.9527	2219.8304	7937.9	7050.55
951.0867	2221.3121	7911.9	7025.6
951.2207	2222.7931	7889.75	7005.85
951.3546	2224.2733	7863.3	6980.35
951.4886	2225.7529	7827.35	6945
951.6225	2227.2317	7817.35	6932.15
951.7563	2228.7098	7806.25	6925.65
951.8902	2230.1872	7758.35	6876.4
952.024	2231.6638	7753.5	6872.9
952.1578	2233.1397	7724.1	6837.85
952.2916	2234.6149	7696.15	6816.35
952.4253	2236.0894	7666.55	6784.6
952.559	2237.5632	7675.7	6782.65
952.6927	2239.0362	7610.7	6729.6
952.8263	2240.5085	7613.2	6729.5
952.9599	2241.9801	7588.3	6704.55
953.0935	2243.4509	7570.85	6687.85
953.2271	2244.921	7541.2	6655.45
953.3606	2246.3904	7512.3	6625.45
953.4941	2247.8591	7482.4	6599.6
953.6276	2249.3271	7466.2	6584.95
953.7611	2250.7943	7438	6552.1
953.8945	2252.2608	7423.95	6540.1
954.0279	2253.7266	7389	6506
954.1612	2255.1917	7386.85	6504.1
954.2946	2256.656	7361.1	6476.65
954.4279	2258.1197	7318.85	6435.6
954.5612	2259.5826	7315.35	6432.55
954.6944	2261.0447	7314.9	6431.3
954.8276	2262.5062	7285	6398.65
954.9608	2263.9669	7245.75	6359.85
955.094	2265.4269	7235.8	6352
955.2271	2266.8862	7213.65	6328.7
955.3602	2268.3448	7213.25	6329.35
955.4933	2269.8026	7204.9	6322.95
955.6264	2271.2598	7168.4	6286.5
955.7594	2272.7162	7147.05	6264
955.8924	2274.1719	7118.55	6235.2
956.0253	2275.6268	7122.05	6237.6
956.1583	2277.0811	7093.05	6211.7
956.2912	2278.5346	7090.05	6208.6
956.4241	2279.9874	7078.9	6196.35
956.5569	2281.4395	7059.55	6178.7
956.6897	2282.8908	7016.9	6130.45
956.8225	2284.3414	7010.25	6125.1
956.9553	2285.7914	6978.05	6095.65
957.088	2287.2406	6964.2	6077.4
957.2207	2288.689	6950.7	6068.8
957.3534	2290.1368	6924.05	6037.65
957.486	2291.5838	6911.3	6025.1
957.6186	2293.0302	6881.9	5995.15
957.7512	2294.4758	6873	5988
957.8838	2295.9206	6838.9	5953
958.0163	2297.3648	6818.85	5937.6
958.1488	2298.8082	6811.7	5927.45
958.2813	2300.251	6798.4	5914
958.4137	2301.693	6778.55	5891.5
958.5461	2303.1343	6768.9	5884.7
958.6785	2304.5748	6738.25	5856.35
958.8108	2306.0147	6725.9	5841.7
958.9432	2307.4538	6714.25	5830.4
959.0754	2308.8922	6685.65	5806.7
959.2077	2310.3299	6641.6	5760.6
959.3399	2311.7669	6639.8	5756.95
959.4721	2313.2031	6637.6	5752.65
959.6043	2314.6387	6608.65	5725.85
959.7365	2316.0735	6578.4	5695.4
959.8686	2317.5076	6563.15	5680.65
960.0006	2318.941	6564.8	5680.75
960.1327	2320.3737	6553.85	5667.4
960.2647	2321.8056	6535.8	5649.05
960.3967	2323.2369	6501.25	5615.6
960.5287	2324.6674	6484.95	5601.25
960.6606	2326.0972	6484.35	5599.6
960.7925	2327.5263	6458.5	5575.2
960.9244	2328.9547	6412.65	5529.8
961.0562	2330.3823	6403.5	5518.65
961.1881	2331.8092	6394.6	5506.3
961.3198	2333.2355	6373.2	5487.4
961.4516	2334.661	6347.05	5460.45
961.5833	2336.0858	6343.6	5458.8
961.715	2337.5098	6334.25	5452.05
961.8467	2338.9332	6321.55	5438.2
961.9783	2340.3558	6283	5395.45
962.1099	2341.7778	6271.5	5390.6
962.2415	2343.199	6273.35	5387.25
962.373	2344.6195	6230.15	5346.15
962.5045	2346.0393	6222.65	5338.95
962.636	2347.4583	6218.9	5335.05
962.7675	2348.8767	6175.65	5292.65
962.8989	2350.2943	6167.4	5282.55
963.0303	2351.7113	6157.05	5270.35
963.1617	2353.1275	6148	5263.75
963.293	2354.543	6125.15	5232.35
963.4243	2355.9578	6120.55	5236.3
963.5556	2357.3718	6084.85	5202.05
963.6868	2358.7852	6037.3	5151
963.818	2360.1978	6036.1	5153.05
963.9492	2361.6098	6018.45	5134.05
964.0803	2363.021	6010.65	5123
964.2114	2364.4315	5992.25	5108.85
964.3425	2365.8413	5975.4	5091.5
964.4736	2367.2504	5940.05	5060.3
964.6046	2368.6587	5916.4	5033.65
964.7356	2370.0664	5888.25	5005.2
964.8666	2371.4733	5877.4	4993.2
964.9975	2372.8795	5857.4	4974.85
965.1284	2374.285	5864.6	4978.8
965.2593	2375.6899	5818.35	4935.15
965.3901	2377.0939	5803	4919.7
965.5209	2378.4973	5773.45	4892.7
965.6517	2379.9	5778.9	4894.3
965.7825	2381.3019	5769.45	4886.9
965.9132	2382.7032	5726.55	4845.15
966.0439	2384.1037	5727.7	4847.55
966.1745	2385.5035	5731.1	4849.55
966.3051	2386.9027	5693.15	4812.85
966.4357	2388.3011	5680.15	4794.7
966.5663	2389.6987	5645.4	4764.05
966.6968	2391.0957	5634.6	4752.55
966.8273	2392.492	5608.05	4725.7
966.9578	2393.8876	5583.05	4697.15
967.0882	2395.2824	5571.15	4687.95
967.2186	2396.6765	5558.8	4675.8
967.349	2398.07	5533.15	4649.9
967.4793	2399.4627	5529.45	4645.7
967.6097	2400.8547	5496.9	4613.95
967.7399	2402.246	5493.7	4604.6
967.8702	2403.6366	5452.25	4569.45
968.0004	2405.0265	5429.95	4546.55
968.1306	2406.4156	5431.4	4544.8
968.2607	2407.8041	5399.2	4513.3
968.3909	2409.1918	5395.2	4509.9
968.521	2410.5789	5365.45	4481
968.651	2411.9652	5359.8	4473
968.781	2413.3508	5320.5	4436.25
968.911	2414.7358	5321.75	4435.45
969.041	2416.12	5292.8	4410.35
969.1709	2417.5035	5278.65	4397
969.3008	2418.8863	5254.2	4371.95
969.4307	2420.2684	5254.1	4370.3
969.5606	2421.6497	5209.8	4327.6
969.6904	2423.0304	5201.7	4319.95
969.8201	2424.4104	5199.7	4316.3
969.9499	2425.7896	5170.6	4286
970.0796	2427.1682	5164.3	4281.4
970.2093	2428.546	5158	4271.35
970.3389	2429.9232	5150.7	4269.45
970.4685	2431.2996	5122.35	4240.3
970.5981	2432.6753	5127.25	4243.35
970.7277	2434.0503	5088.15	4203.4
970.8572	2435.4246	5092.45	4209.3
970.9867	2436.7982	5079.2	4193.85
971.1161	2438.1711	5064.15	4183.2
971.2456	2439.5433	5058.2	4172.25
971.375	2440.9148	5038.8	4149.85
971.5043	2442.2856	5012.1	4129.1
971.6336	2443.6557	4990.1	4105.1
971.7629	2445.025	4964.5	4081.15
971.8922	2446.3937	4965.05	4081.4
972.0214	2447.7617	4955.15	4071.4
972.1506	2449.1289	4946.4	4063.2
972.2798	2450.4955	4941.25	4054.25
972.4089	2451.8613	4920.35	4037.25
972.538	2453.2265	4892.05	4010.85
972.6671	2454.5909	4889.2	4005.55
972.7961	2455.9546	4893.65	4013.05
972.9251	2457.3177	4855.85	3972.25
973.0541	2458.68	4852.4	3967.75
973.1831	2460.0416	4859.3	3976.4
973.312	2461.4025	4849.55	3964.7
973.4408	2462.7627	4831.15	3936.95
973.5697	2464.1222	4807.7	3926.3
973.6985	2465.4811	4802.75	3917.7
973.8273	2466.8392	4783.5	3899.95
973.956	2468.1966	4780	3894.45
974.0847	2469.5533	4778.15	3892.65
974.2134	2470.9093	4743.4	3861.3
974.3421	2472.2645	4737.65	3853.5
974.4707	2473.6191	4722.4	3838.1
974.5993	2474.973	4706	3823.75
974.7278	2476.3262	4690.75	3806.4
974.8563	2477.6787	4690.3	3809.25
974.9848	2479.0305	4653.35	3772.85
975.1132	2480.3816	4658.35	3772.7
975.2417	2481.7319	4626.9	3742.6
975.37	2483.0816	4618.25	3734.15
975.4984	2484.4306	4587.9	3704.05
975.6267	2485.7789	4590.15	3708.9
975.755	2487.1264	4575.9	3691
975.8833	2488.4733	4559.95	3677.4
976.0115	2489.8195	4541.6	3653.3
976.1397	2491.165	4535.7	3649.45
976.2678	2492.5097	4508.2	3625.2
976.3959	2493.8538	4488.65	3607.85
976.524	2495.1972	4473.95	3589.3
976.6521	2496.5398	4458.15	3573.05
976.7801	2497.8818	4457.55	3573.05
976.9081	2499.2231	4433.55	3550.85
977.036	2500.5637	4423.9	3539.8
977.164	2501.9035	4410.75	3525.75
977.2918	2503.2427	4422.4	3536.45
977.4197	2504.5812	4392.2	3508.55
977.5475	2505.919	4384.6	3498.3
977.6753	2507.256	4372.2	3489.2
977.8031	2508.5924	4346.1	3462.2
977.9308	2509.9281	4349.15	3461.8
978.0585	2511.2631	4331.1	3447.95
978.1861	2512.5974	4323.35	3441.4
978.3137	2513.9309	4299.1	3416.85
978.4413	2515.2638	4329.9	3416.6
978.5689	2516.596	4288.4	3406.8
978.6964	2517.9275	4257.4	3371
978.8239	2519.2583	4260.8	3377.5
978.9513	2520.5884	4243.25	3358.5
979.0788	2521.9178	4231.5	3348.25
979.2062	2523.2465	4207.2	3327.05
979.3335	2524.5745	4203.3	3319.95
979.4608	2525.9018	4193.35	3310.3
979.5881	2527.2284	4174.3	3294.2
979.7154	2528.5543	4168.85	3287.7
979.8426	2529.8796	4149.25	3265.85
979.9698	2531.2041	4138.85	3256
980.0969	2532.5279	4147.7	3266.9
980.224	2533.851	4157.35	3274.4
980.3511	2535.1735	4135.55	3254.25
980.4781	2536.4952	4114.45	3230.85
980.6052	2537.8163	4113.15	3228.85
980.7321	2539.1366	4103	3219.6
980.8591	2540.4562	4079.3	3193.8
980.986	2541.7752	4085.6	3202.2
981.1129	2543.0935	4061.95	3178.2
981.2397	2544.411	4051.35	3167.15
981.3665	2545.7279	4026.35	3142.9
981.4933	2547.0441	4053.7	3170.6
981.62	2548.3596	4037.3	3153.5
981.7467	2549.6744	4033.25	3149.1
981.8734	2550.9885	4034.1	3142.8
982.0001	2552.3019	4013.55	3129.85
982.1267	2553.6146	3998.95	3117.2
982.2532	2554.9266	3985.35	3101.5
982.3798	2556.2379	3971.35	3087.45
982.5063	2557.5485	3976.25	3094.25
982.6327	2558.8585	3960.75	3069.35
982.7592	2560.1677	3957.55	3070.55
982.8856	2561.4762	3949.55	3066.45
983.0119	2562.7841	3951.8	3064.8
983.1383	2564.0913	3939.35	3058.1
983.2646	2565.3977	3930.9	3046.75
983.3908	2566.7035	3917.6	3033.65
983.517	2568.0086	3911.9	3026.6
983.6432	2569.313	3906.95	3022.9
983.7694	2570.6167	3905.3	3017.95
983.8955	2571.9197	3894.95	3012.8
984.0216	2573.222	3896.6	3008.85
984.1476	2574.5236	3872.8	2987.1
984.2737	2575.8246	3878.15	2992.3
984.3996	2577.1248	3855.7	2970.7
984.5256	2578.4244	3858.85	2977.35
984.6515	2579.7232	3843.7	2959.95
984.7774	2581.0214	3864.45	2959.1
984.9032	2582.3189	3832.9	2950
985.029	2583.6157	3821.15	2932.7
985.1548	2584.9118	3817.7	2934.05
985.2806	2586.2072	3801.2	2916.25
985.4063	2587.5019	3781.45	2897.4
985.5319	2588.7959	3782.55	2898.4
985.6576	2590.0893	3786.8	2903.55
985.7832	2591.3819	3778	2895.6
985.9087	2592.6739	3765.55	2883.7
986.0343	2593.9652	3750.85	2867.35
986.1597	2595.2557	3750.3	2868.5
986.2852	2596.5456	3726.65	2841.4
986.4106	2597.8348	3725.2	2842.4
986.536	2599.1234	3712.1	2830.8
986.6614	2600.4112	3693.35	2810.25
986.7867	2601.6983	3683.15	2796.2
986.912	2602.9848	3671.1	2787
987.0372	2604.2705	3658.85	2768.85
987.1624	2605.5556	3658.05	2774.7
987.2876	2606.84	3641.7	2760.15
987.4128	2608.1237	3625.15	2740.3
987.5379	2609.4067	3607.1	2724.7
987.6629	2610.689	3626.8	2735.15
987.788	2611.9707	3591.2	2705.8
987.913	2613.2516	3582.4	2695.5
988.0379	2614.5319	3575.65	2693.95
988.1629	2615.8115	3540.75	2656.2
988.2878	2617.0903	3544.85	2659.85
988.4126	2618.3685	3533.15	2650.4
988.5375	2619.6461	3517.55	2635.45
988.6622	2620.9229	3501.7	2617.3
988.787	2622.199	3501.95	2618.8
988.9117	2623.4745	3504.2	2620.7
989.0364	2624.7493	3508.15	2625
989.161	2626.0234	3486.9	2603.65
989.2857	2627.2968	3457.15	2574.85
989.4102	2628.5695	3450.9	2566.25
989.5348	2629.8415	3441.45	2559.9
989.6593	2631.1128	3424.95	2541.5
989.7837	2632.3835	3420.75	2536.8
989.9082	2633.6535	3416.35	2533.8
990.0326	2634.9228	3411.8	2529.55
990.1569	2636.1914	3398.4	2516.55
990.2812	2637.4593	3391.4	2502.7
990.4055	2638.7265	3377.65	2493.3
990.5298	2639.9931	3363.35	2481.85
990.654	2641.259	3366.65	2482.2
990.7782	2642.5242	3359.45	2476.75
990.9023	2643.7887	3335.15	2450.9
991.0264	2645.0525	3325.6	2444.9
991.1505	2646.3156	3317.65	2434.95
991.2745	2647.5781	3317.85	2437.25
991.3985	2648.8398	3310.2	2429.35
991.5225	2650.1009	3305.25	2413.4
991.6464	2651.3613	3284.65	2403.7
991.7703	2652.6211	3279	2395.55
991.8942	2653.8801	3270.85	2387.85
992.018	2655.1385	3255	2372.15
992.1418	2656.3961	3265.25	2382.4
992.2655	2657.6531	3241.95	2357.8
992.3892	2658.9094	3238.55	2352.6
992.5129	2660.1651	3231.4	2350.25
992.6366	2661.42	3216.95	2335.15
992.7602	2662.6743	3215.75	2332.4
992.8837	2663.9279	3220.5	2340.6
993.0073	2665.1808	3207.75	2323.95
993.1307	2666.433	3191.1	2306.8
993.2542	2667.6846	3185.55	2303.1
993.3776	2668.9354	3192.35	2307.4
993.501	2670.1856	3183.25	2298.7
993.6244	2671.4351	3158.4	2277.55
993.7477	2672.6839	3166.8	2283.15
993.8709	2673.9321	3172.45	2291.1
993.9942	2675.1795	3155	2272.65
994.1174	2676.4263	3138.4	2255.2
994.2405	2677.6724	3130.4	2248.15
994.3637	2678.9179	3125.2	2242.1
994.4868	2680.1626	3118.85	2237.6
994.6098	2681.4067	3120.75	2238.35
994.7328	2682.6501	3093.45	2211.8
994.8558	2683.8928	3100.95	2216.95
994.9788	2685.1348	3100	2218.8
995.1017	2686.3761	3090.8	2207.15
995.2245	2687.6168	3080.9	2200.45
995.3474	2688.8568	3058.65	2176.8
995.4702	2690.0961	3042.85	2161.1
995.5929	2691.3348	3051.45	2165.9
995.7156	2692.5727	3040.8	2157.3
995.8383	2693.81	3024.2	2140.55
995.961	2695.0466	3017.3	2135.5
996.0836	2696.2826	3019.85	2135.45
996.2062	2697.5178	3034.8	2131.75
996.3287	2698.7524	3005.4	2122.75
996.4512	2699.9863	2997.4	2114.4
996.5737	2701.2195	2976.6	2095.2
996.6961	2702.452	2985.9	2104
996.8185	2703.6839	2975.2	2093.45
996.9408	2704.9151	2964.65	2081.55
997.0631	2706.1456	2957.6	2074.85
997.1854	2707.3755	2953.45	2070.7
997.3077	2708.6046	2958.75	2075.65
997.4299	2709.8331	2948.95	2067.6
997.552	2711.0609	2930.35	2048.4
997.6742	2712.2881	2926	2042.5
997.7963	2713.5145	2919.05	2033.85
997.9183	2714.7403	2910.95	2029.9
998.0403	2715.9654	2898.5	2014.95
998.1623	2717.1899	2898.2	2015.5
998.2842	2718.4136	2898.15	2017.1
998.4062	2719.6367	2896.05	2013.95
998.528	2720.8591	2883.3	1995
998.6498	2722.0809	2871.9	1989.7
998.7716	2723.3019	2879.1	1993.5
998.8934	2724.5223	2858.95	1974.5
999.0151	2725.7421	2847.55	1963.9
999.1368	2726.9611	2847.7	1964.75
999.2584	2728.1795	2842.45	1954.7
999.38	2729.3972	2843.8	1962
999.5016	2730.6142	2814.55	1929.15
999.6231	2731.8306	2805.2	1921.1
999.7446	2733.0462	2792.95	1907.55
999.8661	2734.2612	2792	1905.05
999.9875	2735.4756	2781.1	1895.75
1000.1089	2736.6892	2759.8	1878.75
1000.2302	2737.9022	2750.85	1868.25
1000.3515	2739.1145	2739.3	1856.75
1000.4728	2740.3262	2729.25	1838.75
1000.594	2741.5372	2718.8	1838.7
1000.7152	2742.7475	2720.7	1837.85
1000.8363	2743.9571	2700.45	1817.95
1000.9575	2745.1661	2708.25	1823.8
1001.0785	2746.3744	2691.15	1807.3
1001.1996	2747.582	2684.95	1803.9
1001.3206	2748.7889	2671.2	1788.25
1001.4415	2749.9952	2663.75	1780.3
1001.5625	2751.2008	2658.25	1776
1001.6833	2752.4057	2651.15	1766.15
1001.8042	2753.61	2650.65	1768.85
1001.925	2754.8136	2646.65	1762.4
1002.0458	2756.0165	2636.1	1754.25
1002.1665	2757.2188	2633.4	1751.7
1002.2872	2758.4204	2614.2	1733.45
1002.4078	2759.6213	2608.6	1723
1002.5285	2760.8215	2616.95	1731.35
1002.649	2762.0211	2607.2	1722.9
1002.7696	2763.22	2589.8	1704
1002.8901	2764.4182	2591.6	1708.5
1003.0106	2765.6158	2578.8	1696.5
1003.131	2766.8127	2558.9	1678.45
1003.2514	2768.009	2563.95	1680.5
1003.3717	2769.2045	2558.8	1676.35
1003.492	2770.3994	2552.6	1667.45
1003.6123	2771.5936	2548.65	1665.9
1003.7325	2772.7872	2538.5	1658.65
1003.8527	2773.9801	2522.3	1639.4
1003.9729	2775.1723	2526.2	1627.8
1004.093	2776.3639	2524.65	1645.6
1004.2131	2777.5548	2524.65	1641.15
1004.3331	2778.745	2513.9	1631.5
1004.4531	2779.9346	2498.55	1616.3
1004.5731	2781.1235	2492.95	1610.1
1004.693	2782.3117	2480.85	1601.25
1004.8129	2783.4992	2485	1603.3
1004.9328	2784.6861	2470.15	1588.4
1005.0526	2785.8723	2483.8	1600.1
1005.1723	2787.0579	2467.7	1585.2
1005.2921	2788.2428	2469.45	1587.6
1005.4118	2789.427	2467.05	1586.75
1005.5314	2790.6106	2450.7	1567.55
1005.651	2791.7935	2458.35	1575.8
1005.7706	2792.9757	2440.5	1558.7
1005.8902	2794.1573	2432	1547.6
1006.0097	2795.3382	2428.9	1549.8
1006.1291	2796.5184	2429.9	1549.75
1006.2485	2797.698	2416.7	1532.35
1006.3679	2798.8769	2415.65	1535.5
1006.4873	2800.0551	2410.35	1529.3
1006.6066	2801.2327	2423.2	1539.05
1006.7258	2802.4096	2406.1	1525.7
1006.8451	2803.5859	2403.45	1521.8
1006.9642	2804.7615	2406.65	1525.5
1007.0834	2805.9364	2397.1	1519.15
1007.2025	2807.1106	2396.2	1515.45
1007.3216	2808.2842	2399.15	1516.15
1007.4406	2809.4572	2394.25	1510.5
1007.5596	2810.6294	2405.5	1522.95
1007.6785	2811.801	2398.1	1517.95
1007.7975	2812.972	2406.2	1524.9
1007.9163	2814.1423	2404.7	1523.35
1008.0352	2815.3119	2414.45	1532.55
1008.154	2816.4808	2417.85	1536
1008.2727	2817.6491	2433.45	1553.25
1008.3914	2818.8167	2421.8	1540.2
1008.5101	2819.9837	2447.05	1561.5
1008.6288	2821.15	2438.2	1558.5
1008.7474	2822.3157	2446.55	1567.25
1008.8659	2823.4807	2464.95	1582.45
1008.9844	2824.645	2481.5	1599.8
1009.1029	2825.8086	2475.7	1596.15
1009.2214	2826.9716	2487.5	1608.7
1009.3398	2828.134	2498.5	1617.75
1009.4581	2829.2957	2495	1613.25
1009.5764	2830.4567	2502.15	1621.7
1009.6947	2831.617	2501.65	1619.55
1009.813	2832.7767	2509.2	1630.6
1009.9312	2833.9358	2503.95	1623.1
1010.0493	2835.0941	2494.1	1612.7
1010.1675	2836.2519	2489.3	1609.65
1010.2855	2837.4089	2477.2	1594.45
1010.4036	2838.5653	2466.65	1584.7
1010.5216	2839.7211	2458.75	1578.9
1010.6396	2840.8761	2468.95	1586.35
1010.7575	2842.0306	2455.35	1575
1010.8754	2843.1843	2450.05	1568.6
1010.9932	2844.3374	2472	1591.15
1011.111	2845.4899	2472.65	1590.75
1011.2288	2846.6417	2484	1603
1011.3465	2847.7928	2494.25	1614.1
1011.4642	2848.9433	2492	1611.85
1011.5818	2850.0931	2514.45	1634.6
1011.6995	2851.2422	2531.3	1649.2
1011.817	2852.3907	2527.45	1645.95
1011.9345	2853.5385	2542.6	1660.15
1012.052	2854.6857	2558.6	1668.3
1012.1695	2855.8323	2552.25	1671.6
1012.2869	2856.9781	2576.15	1693.65
1012.4042	2858.1233	2564.3	1682.25
1012.5216	2859.2679	2575.5	1694.65
1012.6389	2860.4118	2586	1705.5
1012.7561	2861.555	2594.25	1708.25
1012.8733	2862.6976	2588.45	1705
1012.9905	2863.8395	2584.6	1702.9
1013.1076	2864.9808	2592.3	1712.05
1013.2247	2866.1214	2593.9	1713.8
1013.3417	2867.2614	2591.6	1710.4
1013.4587	2868.4007	2585.7	1703.75
1013.5757	2869.5393	2585.9	1703.8
1013.6926	2870.6773	2581.4	1699.25
1013.8095	2871.8146	2590.25	1706.3
1013.9263	2872.9513	2578.7	1694
1014.0431	2874.0874	2560.4	1679.75
1014.1599	2875.2227	2559.85	1676.4
1014.2766	2876.3574	2562.45	1681.15
1014.3933	2877.4915	2549.85	1669.45
1014.51	2878.6249	2535.15	1654.7
1014.6266	2879.7577	2522.25	1640.4
1014.7431	2880.8898	2523.4	1632.75
1014.8596	2882.0212	2498.15	1619.85
1014.9761	2883.152	2490.75	1610.6
1015.0925	2884.2821	2485.35	1604.6
1015.2089	2885.4116	2479.2	1595.9
1015.3253	2886.5405	2481.6	1602.25
1015.4416	2887.6686	2481.1	1599.5
1015.5579	2888.7962	2471.55	1591
1015.6741	2889.923	2454.75	1574.55
1015.7903	2891.0493	2460.85	1581.25
1015.9065	2892.1748	2458.15	1578.7
1016.0226	2893.2997	2459.3	1578
1016.1387	2894.424	2449.2	1569.55
1016.2547	2895.5476	2444.8	1563.6
1016.3707	2896.6706	2451.7	1568.05
1016.4866	2897.7929	2460.5	1579.95
1016.6025	2898.9145	2461.2	1579.4
1016.7184	2900.0355	2452.35	1571.15
1016.8342	2901.1559	2449.05	1567.8
1016.95	2902.2756	2459.15	1579.55
1017.0658	2903.3946	2461.55	1581.25
1017.1815	2904.513	2462.7	1577.95
1017.2971	2905.6308	2457.95	1578.05
1017.4127	2906.7479	2465.35	1583.1
1017.5283	2907.8643	2470.85	1589
1017.6439	2908.9801	2473	1592.3
1017.7594	2910.0953	2464.5	1583.9
1017.8748	2911.2098	2457.3	1573.95
1017.9902	2912.3236	2455.55	1564.55
1018.1056	2913.4368	2449.9	1566.5
1018.2209	2914.5494	2435.4	1554.5
1018.3362	2915.6613	2427.85	1542.05
1018.4515	2916.7725	2413.6	1530.25
1018.5667	2917.8831	2402.8	1520.8
1018.6819	2918.9931	2382.65	1499.9
1018.797	2920.1024	2378.6	1496.55
1018.9121	2921.211	2369.55	1489.45
1019.0271	2922.319	2362.8	1483.1
1019.1421	2923.4264	2356.65	1476
1019.2571	2924.5331	2357.25	1479.25
1019.372	2925.6391	2362.75	1481.75
1019.4869	2926.7445	2356.75	1476.95
1019.6017	2927.8493	2347.75	1466.7
1019.7165	2928.9534	2337.8	1457.4
1019.8313	2930.0569	2349.6	1466.3
1019.946	2931.1597	2338.6	1458.55
1020.0606	2932.2619	2326.1	1444.85
1020.1753	2933.3634	2327.55	1448.85
1020.2899	2934.4643	2332.55	1444.95
1020.4044	2935.5645	2327.6	1439.5
1020.5189	2936.6641	2317.75	1431.25
1020.6334	2937.763	2304.75	1425.5
1020.7478	2938.8613	2281.15	1399.45
1020.8622	2939.959	2282.1	1397.15
1020.9765	2941.056	2253.9	1373.9
1021.0908	2942.1523	2236.35	1355.1
1021.2051	2943.248	2219.85	1339.1
1021.3193	2944.3431	2189.55	1310
1021.4334	2945.4375	2163.9	1284.05
1021.5476	2946.5313	2136.05	1258.15
1021.6617	2947.6244	2114.2	1232.65
1021.7757	2948.7169	2082.6	1199.8
1021.8897	2949.8087	2054.75	1173.85
1022.0037	2950.8999	2031.7	1150.55
1022.1176	2951.9904	2016.7	1137
1022.2315	2953.0803	1994.6	1114.15
1022.3453	2954.1696	1984.5	1104.15
1022.4591	2955.2582	1967.9	1087.6
1022.5728	2956.3462	1956.9	1076.65
1022.6865	2957.4335	1931.8	1049.15
1022.8002	2958.5202	1937.15	1052.2
1022.9138	2959.6062	1917.3	1035.25
1023.0274	2960.6916	1905.55	1023.75
1023.141	2961.7764	1894.15	1013.95
1023.2545	2962.8605	1896.15	1015
1023.3679	2963.9439	1886.4	1007.7
1023.4813	2965.0267	1889.4	1007.65
1023.5947	2966.1089	1902.05	999.15
1023.708	2967.1905	1866.65	986.65
1023.8213	2968.2714	1869.2	988.65
1023.9346	2969.3516	1862.95	982.35
1024.0478	2970.4312	1873.5	986
1024.1609	2971.5102	1861.8	982.2
1024.274	2972.5885	1865.15	985.9
1024.3871	2973.6662	1853.2	968.3
1024.5002	2974.7432	1852.25	973.65
1024.6132	2975.8196	1845.05	965.5
1024.7261	2976.8954	1832.4	953.9
1024.839	2977.9705	1841.4	959.45
1024.9519	2979.045	1839.8	961.45
1025.0647	2980.1188	1825.3	944.55
1025.1775	2981.192	1822.65	944.75
1025.2902	2982.2645	1812.25	931.5
1025.4029	2983.3364	1794.4	914.05
1025.5156	2984.4077	1793.15	914.5
1025.6282	2985.4783	1787.65	901.65
1025.7407	2986.5483	1768.8	889.4
1025.8532	2987.6177	1760	881
1025.9657	2988.6864	1755	874.9
1026.0782	2989.7545	1740.7	860.75
1026.1906	2990.8219	1729	850.15
1026.3029	2991.8887	1727.75	845.7
1026.4152	2992.9548	1715.35	834.3
1026.5275	2994.0204	1700.85	820.25
1026.6397	2995.0852	1690.15	811.2
1026.7519	2996.1495	1687.05	803.9
1026.864	2997.2131	1677	797.15
1026.9761	2998.276	1669.7	790.1
1027.0882	2999.3383	1657	776.45
1027.2002	3000.4	1648.75	769.6
1027.3122	3001.4611	1643.15	762.7
1027.4241	3002.5215	1646.6	767.95
1027.536	3003.5812	1635.8	757.45
1027.6478	3004.6404	1631.6	751.05
1027.7596	3005.6989	1623.15	740.25
1027.8714	3006.7567	1614	735.15
1027.9831	3007.8139	1638.15	729.4
1028.0947	3008.8705	1608.6	728.7
1028.2064	3009.9264	1608.35	724.8
1028.3179	3010.9818	1594.9	716.75
1028.4295	3012.0364	1597.05	714.5
1028.541	3013.0905	1596.65	716.55
1028.6524	3014.1439	1593.35	712.1
1028.7638	3015.1966	1580.9	700.85
1028.8752	3016.2487	1580.85	700.25
1028.9865	3017.3002	1576.75	693.45
1029.0978	3018.3511	1573.45	694.45
1029.209	3019.4013	1561.4	680.75
1029.3202	3020.4509	1565.25	685.85
1029.4314	3021.4998	1564.25	684.7
1029.5425	3022.5481	1562.65	683.35
1029.6535	3023.5958	1561.85	681.9
1029.7645	3024.6428	1564.75	684.4
1029.8755	3025.6892	1554.65	677.35
1029.9864	3026.735	1546.1	666.75
1030.0973	3027.7802	1552.55	670.65
1030.2082	3028.8247	1542.75	662.35
1030.319	3029.8685	1546.2	667.2
1030.4297	3030.9118	1542.4	661.75
1030.5404	3031.9544	1541.2	660.8
1030.6511	3032.9963	1536.2	654.25
1030.7617	3034.0376	1532.8	655.45
1030.8723	3035.0783	1536.2	653.95
1030.9829	3036.1184	1531.85	652.9
1031.0934	3037.1578	1530.8	650.85
1031.2038	3038.1966	1527.05	644.25
1031.3142	3039.2348	1525.15	645.05
1031.4246	3040.2723	1530.45	645
1031.5349	3041.3092	1516.75	639.45
1031.6452	3042.3455	1512.85	635
1031.7554	3043.3811	1511.7	631.6
1031.8656	3044.4161	1504.75	624.9
1031.9758	3045.4505	1501.65	622.7
1032.0859	3046.4842	1510.4	628.55
1032.1959	3047.5173	1495.05	616.15
1032.3059	3048.5498	1494.25	612.05
1032.4159	3049.5816	1491.7	611.6
1032.5258	3050.6128	1488.4	606.7
1032.6357	3051.6434	1492.95	612.85
1032.7455	3052.6734	1484.25	604.25
1032.8553	3053.7027	1485.9	606.8
1032.9651	3054.7314	1482.9	601.95
1033.0748	3055.7594	1478.8	600.15
1033.1845	3056.7868	1482.75	602.05
1033.2941	3057.8136	1471.2	592.45
1033.4037	3058.8398	1470.5	592.25
1033.5132	3059.8653	1467.1	587.2
1033.6227	3060.8902	1455.3	574.55
1033.7321	3061.9145	1464.9	585.4
1033.8415	3062.9381	1455.5	576.4
1033.9509	3063.9612	1469.85	576.3
1034.0602	3064.9835	1453.15	573.9
1034.1694	3066.0053	1457.2	575.15
1034.2787	3067.0264	1447.05	566.7
1034.3878	3068.0469	1450.2	570.15
1034.497	3069.0668	1439.55	556.5
1034.6061	3070.086	1434.5	557.95
1034.7151	3071.1046	1445.95	566.65
1034.8241	3072.1226	1429.95	550.35
1034.9331	3073.1399	1427.8	549.4
1035.042	3074.1567	1426.75	546.05
1035.1508	3075.1727	1419.7	538.65
1035.2597	3076.1882	1419.4	540.45
1035.3684	3077.203	1405.3	525.85
1035.4772	3078.2173	1414.35	533.25
1035.5859	3079.2308	1405.25	522.55
1035.6945	3080.2438	1408.9	526
1035.8031	3081.2561	1396.9	516.75
1035.9117	3082.2678	1399.25	518.7
1036.0202	3083.2789	1391.3	511.6
1036.1286	3084.2893	1385.35	505.15
1036.2371	3085.2991	1383.55	505.05
1036.3454	3086.3083	1390.7	507.65
1036.4538	3087.3169	1387.75	509.35
1036.562	3088.3248	1376.65	494.75
1036.6703	3089.3321	1383.4	500.75
1036.7785	3090.3388	1373	494.75
1036.8866	3091.3449	1368.4	489.45
1036.9948	3092.3503	1366.7	483.85
1037.1028	3093.3551	1359.95	484.25
1037.2108	3094.3593	1358.65	479.45
1037.3188	3095.3629	1355.5	476.7
1037.4267	3096.3658	1360.75	479.6
1037.5346	3097.3681	1353.65	473.8
1037.6425	3098.3698	1352.6	471.75
1037.7503	3099.3708	1352.2	467.35
1037.858	3100.3713	1339.25	458.7
1037.9657	3101.3711	1339.6	459.65
1038.0734	3102.3702	1472.95	457.85
1038.181	3103.3688	1338.8	459.05
1038.2886	3104.3667	1333.5	455.25
1038.3961	3105.364	1331.65	452.95
1038.5036	3106.3607	1325.15	444.9
1038.611	3107.3568	1328.95	448.45
1038.7184	3108.3522	1323.25	441.6
1038.8257	3109.347	1319.8	438.55
1038.933	3110.3412	1324.5	441.3
1039.0403	3111.3348	1311.35	431.95
1039.1475	3112.3277	1314.75	434.15
1039.2547	3113.32	1311	433.9
1039.3618	3114.3117	1310.05	429.15
1039.4689	3115.3028	1306.1	426.5
1039.5759	3116.2932	1305.1	425.8
1039.6829	3117.2831	1299.2	415.15
1039.7898	3118.2723	1294.3	414.7
1039.8967	3119.2608	1290.6	410.95
1040.0035	3120.2488	1293.65	412.35
1040.1103	3121.2361	1291.75	410.35
1040.2171	3122.2229	1284.7	406.25
1040.3238	3123.209	1287.15	407
1040.4305	3124.1944	1281.4	400.65
1040.5371	3125.1793	1285.95	405.4
1040.6437	3126.1635	1286.6	409.4
1040.7502	3127.1471	1269.45	391.15
1040.8567	3128.1301	1277.1	398.3
1040.9631	3129.1125	1270.75	392.95
1041.0695	3130.0942	1270.95	392.1
1041.1759	3131.0753	1279.95	392.6
1041.2822	3132.0558	1273.95	391.25
1041.3884	3133.0357	1265.9	383.85
1041.4946	3134.015	1266.35	384.7
1041.6008	3134.9936	1261.1	379.35
1041.7069	3135.9716	1279.45	379.45
1041.813	3136.949	1254.6	377.2
1041.919	3137.9258	1260.2	374.75
1042.025	3138.902	1259.5	373.1
1042.1309	3139.8775	1248.5	368.9
1042.2368	3140.8524	1252.2	373.9
1042.3427	3141.8267	1258.85	379.15
1042.4485	3142.8004	1247.9	367.85
1042.5542	3143.7735	1251	364.8
1042.6599	3144.7459	1247.35	366.3
1042.7656	3145.7178	1248	369.75
1042.8712	3146.689	1242.35	365.4
1042.9768	3147.6596	1234.45	354.6
1043.0823	3148.6295	1237.8	359.25
1043.1878	3149.5989	1232.3	353.95
1043.2932	3150.5676	1230.4	353.25
1043.3986	3151.5357	1226.15	347.2
1043.5039	3152.5032	1229.85	350.85
1043.6092	3153.4701	1233.1	354.75
1043.7145	3154.4364	1228.7	346.2
1043.8197	3155.402	1229.6	350.45
1043.9248	3156.367	1229.65	348.8
1044.03	3157.3315	1258.5	341.45
1044.135	3158.2952	1223	344.95
1044.24	3159.2584	1210.85	332.45
1044.345	3160.221	1217.95	338.75
1044.4499	3161.1829	1216.95	337.45
1044.5548	3162.1442	1209.35	330.5
1044.6596	3163.105	1209.8	330.05
1044.7644	3164.065	1206.2	326.9
1044.8692	3165.0245	1209.6	326.15
1044.9739	3165.9834	1207.85	331.6
1045.0785	3166.9416	1204.35	326
1045.1831	3167.8993	1198.9	320.9
1045.2877	3168.8563	1194.55	315.6
1045.3922	3169.8127	1192.15	314.35
1045.4966	3170.7684	1193.75	316.1
1045.6011	3171.7236	1197.75	317.7
1045.7054	3172.6782	1193.15	314.95
1045.8098	3173.6321	1191.15	311.75
1045.914	3174.5854	1191.9	309.1
1046.0183	3175.5381	1188.75	309.4
1046.1224	3176.4902	1182.7	304.1
1046.2266	3177.4417	1181.4	301.9
1046.3307	3178.3926	1182.65	303.3
1046.4347	3179.3428	1181.65	303.3
1046.5387	3180.2924	1178.15	299.8
1046.6427	3181.2415	1173.75	293.1
1046.7466	3182.1899	1176.4	294.8
1046.8504	3183.1377	1170.4	292.65
1046.9542	3184.0848	1172.25	292.4
1047.058	3185.0314	1169.2	290.5
1047.1617	3185.9773	1164.9	284.5
1047.2654	3186.9227	1174.75	296.55
1047.369	3187.8674	1166.5	286.3
1047.4726	3188.8115	1170.25	289.25
1047.5761	3189.755	1166.8	288.15
1047.6796	3190.6979	1160.3	280.15
1047.783	3191.6402	1161.55	281.45
1047.8864	3192.5818	1159.8	280.5
1047.9898	3193.5229	1169.8	272.75
1048.0931	3194.4633	1152.75	273.05
1048.1963	3195.4031	1152.75	272.4
1048.2995	3196.3423	1149.2	269.85
1048.4027	3197.2809	1148.4	269.2
1048.5058	3198.2189	1146.6	266.55
1048.6089	3199.1563	1165.7	268.7
1048.7119	3200.0931	1144.2	265.95
1048.8148	3201.0292	1144	265.85
1048.9178	3201.9648	1146.15	267.35
1049.0206	3202.8997	1140.45	256.75
1049.1235	3203.834	1139.15	259.35
1049.2262	3204.7677	1144.7	267.15
1049.329	3205.7008	1142.05	260.5
1049.4317	3206.6333	1135.9	258.95
1049.5343	3207.5652	1133.45	252.15
1049.6369	3208.4964	1139.65	259.9
1049.7394	3209.4271	1132.45	253.5
1049.8419	3210.3571	1123.15	243.2
1049.9444	3211.2865	1133.45	255.2
1050.0468	3212.2154	1127.3	247.85
1050.1491	3213.1436	1132.7	251.2
1050.2514	3214.0712	1133.35	248.65
1050.3537	3214.9982	1127.45	248.5
1050.4559	3215.9246	1123.4	243.4
1050.5581	3216.8503	1119.65	241.8
1050.6602	3217.7755	1118.45	238.8
1050.7623	3218.7001	1117.35	239.5
1050.8643	3219.624	1118.5	238.7
1050.9663	3220.5473	1117.2	238.4
1051.0682	3221.4701	1117.05	236.45
1051.1701	3222.3922	1119.65	238.55
1051.2719	3223.3137	1117.8	239.2
1051.3737	3224.2346	1112	231.75
1051.4754	3225.1549	1107.3	229.15
1051.5771	3226.0746	1111.1	232.5
1051.6788	3226.9937	1107.4	227.65
1051.7804	3227.9121	1105.55	227
1051.8819	3228.83	1105.35	226.3
1051.9834	3229.7473	1103.9	226.8
1052.0849	3230.6639	1101.75	221.95
1052.1863	3231.5799	1098.75	218.3
1052.2876	3232.4954	1103.4	224.15
1052.3889	3233.4102	1099.2	220.6
1052.4902	3234.3244	1100.75	220.6
1052.5914	3235.238	1097.4	219.85
1052.6926	3236.151	1116.85	214.6
1052.7937	3237.0634	1094	217.5
1052.8948	3237.9752	1088.65	210.15
1052.9958	3238.8864	1094.9	215.35
1053.0968	3239.797	1088.9	210.25
1053.1977	3240.7069	1086.35	206.3
1053.2986	3241.6163	1087.1	207.65
1053.3994	3242.5251	1087.55	210.35
1053.5002	3243.4332	1085.15	207.15
1053.6009	3244.3408	1088.3	207.95
1053.7016	3245.2477	1081.75	204.4
1053.8022	3246.154	1081.55	202.4
1053.9028	3247.0598	1078.6	200.05
1054.0034	3247.9649	1076.35	195.45
1054.1039	3248.8694	1079	201.45
1054.2043	3249.7733	1073.5	196.2
1054.3047	3250.6766	1078	200.25
1054.4051	3251.5793	1076	194.8
1054.5054	3252.4814	1071.2	193.3
1054.6056	3253.3829	1072.6	194.5
1054.7058	3254.2838	1068.95	190.45
1054.806	3255.1841	1071.1	191.3
1054.9061	3256.0838	1068.15	188.7
1055.0061	3256.9829	1066.85	189.2
1055.1062	3257.8814	1071.35	189.6
1055.2061	3258.7792	1063.4	185.25
1055.306	3259.6765	1062.5	183.25
1055.4059	3260.5731	1056.25	178.05
1055.5057	3261.4692	1056.4	177.85
1055.6055	3262.3647	1054.2	173.35
1055.7052	3263.2595	1050.6	169.7
1055.8049	3264.1538	1046.9	169.15
1055.9045	3265.0474	1049.4	170.05
1056.0041	3265.9404	1045.05	166.9
1056.1036	3266.8329	1042.05	164.55
1056.2031	3267.7247	1045.45	157.45
1056.3025	3268.616	1035.1	159.1
1056.4019	3269.5066	1031.55	152.5
1056.5013	3270.3966	1028.95	146.25
1056.6005	3271.286	1020.2	142.6
