Software Version:	3.9.2.0
Unit SN:	10000200
Spectrometer SN:	6960
Date:	3/6/2024 10:33:49 AM
Data Line Index:	25
Spectral Points:	2048
Integration time (ms):	125
Averages:	20
Delay (ms):	30
Sequence Number:	1
Processing:	dark subtract
Laser Power (mW):	305
Laser Current (mA):	825
Laser Diode Temp (C):	25.1
Laser Case Temp (C):	26.5
System Temp (C):	26.3
Spectrometer Temp (C):	23.7
CCD Temp (C):	-0.005
Secondary Temp (C):	20.004
Heatsink Temp (C):	21.834
CCDPCB Temp (C):	36.351
SecondaryPCB Temp (C):	30.215

Wavelength	RamanShift	Raw Counts	Dark Subtracted
787.061	30.1047	1138.1	724.3
787.2016	32.3739	1185.95	774.7
787.3422	34.6426	1224.35	810.5
787.4828	36.9109	1270.95	854.75
787.6235	39.1787	1332.3	915.25
787.7642	41.4461	1394.9	970.8
787.9049	43.7131	1457.6	1033.3
788.0456	45.9796	1523.4	1094.55
788.1863	48.2456	1598.9	1165.75
788.3271	50.5112	1658.4	1222.35
788.4679	52.7764	1737.25	1298.6
788.6087	55.0411	1806.9	1365.05
788.7496	57.3054	1893.35	1447.3
788.8904	59.5692	1979.05	1526.4
789.0313	61.8326	2102.4	1648.2
789.1722	64.0955	2200.3	1742.3
789.3132	66.3579	2320.2	1857.85
789.4541	68.6199	2487.3	2022.5
789.5951	70.8815	2737.05	2269
789.7361	73.1426	3281.25	2809
789.8771	75.4032	4636.45	4158.1
790.0181	77.6634	8151.9	7668.75
790.1592	79.9231	17588.8	17099.45
790.3003	82.1824	56900.3	56399.9
790.4414	84.4412	65535	65016.65
790.5825	86.6995	65535	64986.5
790.7237	88.9574	65535	64956.6
790.8648	91.2148	65535	64937.55
791.006	93.4717	65535	64926.95
791.1472	95.7282	65535	64917.25
791.2885	97.9842	65535	64915.4
791.4297	100.2398	65535	64916.3
791.571	102.4949	65535	64910.5
791.7123	104.7495	65535	64907.8
791.8536	107.0036	65535	64906.7
791.9949	109.2573	65535	64909.2
792.1363	111.5105	65535	64905.35
792.2777	113.7632	65535	64901.5
792.4191	116.0154	65535	64893.8
792.5605	118.2672	65535	64901.3
792.7019	120.5185	65535	64900.1
792.8434	122.7693	65535	64898.25
792.9849	125.0197	65535	64890.35
793.1264	127.2696	65535	64888.6
793.2679	129.519	65535	64884.2
793.4094	131.7679	65535	64881.05
793.551	134.0163	65535	64880.1
793.6926	136.2642	65535	64875.05
793.8342	138.5117	65535	64867.8
793.9758	140.7587	65535	64868.6
794.1175	143.0052	65535	64870.35
794.2591	145.2512	65535	64869.15
794.4008	147.4967	65535	64867.55
794.5425	149.7417	65535	64861.35
794.6842	151.9863	65535	64860.65
794.826	154.2304	65535	64856.9
794.9677	156.4739	65535	64850.65
795.1095	158.717	65535	64854.35
795.2513	160.9596	65535	64849.4
795.3931	163.2017	65535	64843.95
795.535	165.4433	65535	64844.55
795.6768	167.6844	65535	64842.95
795.8187	169.925	65535	64835.9
795.9606	172.1651	65535	64837.75
796.1025	174.4047	65535	64830.45
796.2445	176.6439	65535	64833.15
796.3864	178.8825	65535	64827.15
796.5284	181.1206	65535	64828.85
796.6704	183.3582	65535	64823.75
796.8124	185.5954	65535	64818.55
796.9544	187.832	65535	64814.1
797.0965	190.0681	65535	64811.75
797.2386	192.3037	65535	64812.85
797.3806	194.5388	65535	64806.5
797.5228	196.7734	65535	64807.9
797.6649	199.0075	65535	64804.45
797.807	201.2411	65535	64802.55
797.9492	203.4742	65535	64802.2
798.0914	205.7068	65535	64797.9
798.2336	207.9389	65535	64792.65
798.3758	210.1704	65535	64796.65
798.518	212.4015	65535	64799.25
798.6603	214.632	65535	64802.65
798.8025	216.862	65535	64814.05
798.9448	219.0915	65535	64815.55
799.0871	221.3205	65535	64815.95
799.2294	223.549	65535	64817.5
799.3718	225.777	65535	64815.05
799.5141	228.0044	65535	64810.8
799.6565	230.2314	65535	64810.2
799.7989	232.4578	65535	64809.4
799.9413	234.6837	65535	64801.05
800.0837	236.909	65535	64796.15
800.2262	239.1339	65535	64771.75
800.3687	241.3582	65535	64787.05
800.5111	243.582	65535	64757.05
800.6536	245.8053	65535	64769.2
800.7961	248.0281	65535	64774.55
800.9387	250.2503	65535	64772.2
801.0812	252.472	65535	64768.9
801.2238	254.6932	65535	64768.2
801.3664	256.9139	65535	64766.55
801.509	259.134	65535	64766.2
801.6516	261.3536	65535	64766.7
801.7942	263.5727	65535	64763.8
801.9369	265.7912	65535	64764.35
802.0795	268.0092	65535	64762.05
802.2222	270.2267	65535	64761.5
802.3649	272.4436	65535	64759.3
802.5076	274.6601	65535	64753.65
802.6504	276.8759	65535	64758.1
802.7931	279.0913	65535	64758.85
802.9359	281.3061	65535	64755.95
803.0787	283.5204	65535	64752.35
803.2215	285.7341	65535	64749.3
803.3643	287.9473	65535	64733.55
803.5071	290.16	65535	64744.65
803.6499	292.3721	65535	64747.35
803.7928	294.5837	65535	64746.4
803.9357	296.7947	65535	64750.65
804.0786	299.0052	65535	64748.2
804.2215	301.2152	65535	64743.65
804.3644	303.4246	65535	64749.65
804.5074	305.6334	65535	64749.45
804.6503	307.8418	65535	64743.75
804.7933	310.0495	65535	64746.85
804.9363	312.2568	65535	64741.55
805.0793	314.4635	65535	64739.75
805.2223	316.6696	65535	64738.1
805.3653	318.8752	65535	64728.6
805.5084	321.0802	65535	64737.25
805.6514	323.2847	65535	64736.55
805.7945	325.4887	65535	64734.85
805.9376	327.692	65535	64734.85
806.0807	329.8949	65535	64731.9
806.2238	332.0972	65535	64733.7
806.367	334.2989	65535	64728.95
806.5101	336.5001	65535	64727.6
806.6533	338.7007	65535	64726.65
806.7965	340.9008	65535	64726.8
806.9397	343.1003	65535	64727.2
807.0829	345.2992	65535	64723.8
807.2261	347.4976	65535	64721.85
807.3693	349.6955	65535	64715.25
807.5126	351.8927	65535	64714.4
807.6559	354.0895	65535	64710.15
807.7991	356.2856	65535	64713.9
807.9424	358.4812	65535	64718.35
808.0857	360.6763	65535	64715.4
808.2291	362.8707	65535	64714.15
808.3724	365.0646	65535	64712.7
808.5158	367.258	65535	64709.85
808.6591	369.4508	65535	64706
808.8025	371.643	65535	64706.25
808.9459	373.8346	65535	64706.1
809.0893	376.0257	65535	64699.4
809.2327	378.2162	65535	64702.8
809.3762	380.4062	65535	64697.6
809.5196	382.5956	65535	64699.55
809.6631	384.7844	65535	64701.6
809.8066	386.9726	65535	64702.8
809.9501	389.1603	65535	64710.15
810.0936	391.3474	65535	64661.1
810.2371	393.5339	65535	64704.9
810.3806	395.7199	65535	64706.95
810.5241	397.9052	65535	64709.15
810.6677	400.09	65535	64708
810.8113	402.2743	65535	64708.95
810.9548	404.4579	65535	64707.75
811.0984	406.641	65535	64709.65
811.2421	408.8235	65535	64704.4
811.3857	411.0054	65535	64703.3
811.5293	413.1868	65535	64697.9
811.673	415.3675	65535	64697
811.8166	417.5477	65535	64697.65
811.9603	419.7273	65535	64696.25
812.104	421.9064	65535	64687.4
812.2477	424.0848	65535	64690.15
812.3914	426.2627	65535	64694.5
812.5351	428.4399	65535	64693.25
812.6788	430.6166	65535	64689.1
812.8226	432.7928	65535	64687.35
812.9663	434.9683	65535	64683.05
813.1101	437.1432	65535	64683.7
813.2539	439.3176	65535	64685.35
813.3977	441.4914	65535	64689.7
813.5415	443.6645	65535	64685.2
813.6853	445.8371	65535	64686.9
813.8291	448.0091	65535	64684.3
813.973	450.1806	65535	64683.5
814.1168	452.3514	65535	64681.2
814.2607	454.5216	65535	64675.75
814.4046	456.6913	65535	64682.35
814.5485	458.8603	65535	64681.45
814.6924	461.0288	65535	64684.95
814.8363	463.1967	65535	64680.9
814.9802	465.3639	65535	64680.75
815.1241	467.5306	65535	64679.55
815.2681	469.6967	65535	64681.15
815.412	471.8622	65535	64683.85
815.556	474.0271	65535	64679.85
815.7	476.1914	65535	64678.6
815.844	478.3551	65535	64677.6
815.988	480.5182	65535	64677.65
816.132	482.6807	65535	64680.55
816.276	484.8426	65535	64679.9
816.4201	487.0039	65535	64680.55
816.5641	489.1647	65535	64678.15
816.7082	491.3248	65535	64679.4
816.8522	493.4843	65535	64674.45
816.9963	495.6432	65535	64675.9
817.1404	497.8015	65535	64672.5
817.2845	499.9592	65535	64670.5
817.4286	502.1163	65535	64669.85
817.5727	504.2728	65535	64672.9
817.7168	506.4287	65535	64675.95
817.861	508.5839	65535	64674.3
818.0051	510.7386	65535	64673.3
818.1493	512.8927	65535	64668.4
818.2935	515.0461	65535	64671.2
818.4377	517.199	65535	64671.35
818.5818	519.3512	65535	64670.25
818.726	521.5029	65535	64663.9
818.8703	523.6539	65535	64669.7
819.0145	525.8043	65535	64668.05
819.1587	527.9541	65535	64662.15
819.303	530.1033	65535	64667.3
819.4472	532.2519	65535	64665.65
819.5915	534.3999	65535	64665.1
819.7357	536.5472	65535	64669.65
819.88	538.694	65535	64666.95
820.0243	540.8401	65535	64665.15
820.1686	542.9856	65535	64661.1
820.3129	545.1305	65535	64657.9
820.4572	547.2748	65535	64659.55
820.6016	549.4185	65535	64659.15
820.7459	551.5615	65535	64660.25
820.8902	553.704	65535	64660.2
821.0346	555.8458	65535	64662
821.1789	557.987	65535	64660.7
821.3233	560.1276	65535	64660.55
821.4677	562.2675	65535	64659.55
821.6121	564.4069	65535	64655.4
821.7565	566.5456	65535	64660.95
821.9009	568.6837	65535	64662.3
822.0453	570.8212	65535	64661.15
822.1897	572.958	65535	64658.5
822.3342	575.0942	65535	64663.6
822.4786	577.2299	65535	64657.65
822.6231	579.3648	65535	64664.3
822.7675	581.4992	65535	64663.15
822.912	583.6329	65535	64662.7
823.0565	585.766	65535	64664
823.201	587.8985	65535	64662.4
823.3454	590.0304	65535	64637.85
823.4899	592.1616	65535	64654.45
823.6345	594.2922	65535	64656.75
823.779	596.4222	65535	64655.15
823.9235	598.5515	65535	64656.8
824.068	600.6802	65535	64655.85
824.2126	602.8083	65535	64657.7
824.3571	604.9358	65535	64655.3
824.5017	607.0626	65535	64657.25
824.6462	609.1888	65535	64653.7
824.7908	611.3144	65535	64645.45
824.9354	613.4393	65535	64651.95
825.08	615.5636	65535	64651.6
825.2246	617.6873	65535	64652.6
825.3692	619.8103	65535	64652.2
825.5138	621.9327	65535	64650.25
825.6584	624.0544	65535	64655.25
825.803	626.1756	65535	64649.65
825.9477	628.2961	65535	64653.05
826.0923	630.4159	65535	64651.1
826.237	632.5351	65535	64649.95
826.3816	634.6537	65535	64651.75
826.5263	636.7716	65535	64649.05
826.6709	638.8889	65535	64648.75
826.8156	641.0056	65535	64645.35
826.9603	643.1216	65535	64647.8
827.105	645.237	65535	64648.55
827.2497	647.3518	65535	64646.25
827.3944	649.4659	65535	64648.15
827.5391	651.5793	65535	64650.5
827.6838	653.6922	65535	64652.25
827.8285	655.8043	65535	64650.7
827.9733	657.9159	65535	64647.15
828.118	660.0268	65535	64649.85
828.2627	662.137	65535	64651.45
828.4075	664.2466	65535	64645.9
828.5522	666.3556	65535	64645.9
828.697	668.4639	65535	64644.1
828.8418	670.5716	65535	64647.75
828.9865	672.6786	65535	64646.65
829.1313	674.785	65535	64642.6
829.2761	676.8907	65535	64641.85
829.4209	678.9958	65535	64647.95
829.5657	681.1002	65535	64644.65
829.7105	683.204	65535	64638.25
829.8553	685.3072	65535	64643.65
830.0001	687.4097	65535	64644.35
830.1449	689.5115	65535	64639.85
830.2898	691.6127	65535	64645.55
830.4346	693.7132	65535	64642.55
830.5794	695.8131	65535	64633
830.7243	697.9123	65535	64641.8
830.8691	700.0109	65535	64642.85
831.014	702.1089	65535	64640.65
831.1588	704.2061	65535	64645.15
831.3037	706.3028	65535	64639.8
831.4486	708.3987	65535	64639.45
831.5935	710.4941	65535	64641.65
831.7383	712.5887	65535	64640.95
831.8832	714.6827	65535	64637
832.0281	716.7761	65535	64641.65
832.173	718.8688	65535	64638.05
832.3179	720.9608	65535	64639.15
832.4628	723.0522	65535	64636.45
832.6077	725.1429	65535	64641.2
832.7527	727.233	65535	64637.25
832.8976	729.3224	65535	64637.6
833.0425	731.4112	65535	64637.95
833.1874	733.4993	65535	64639.9
833.3324	735.5867	65535	64636.45
833.4773	737.6735	65535	64634.85
833.6222	739.7596	65535	64636.05
833.7672	741.845	65535	64639.95
833.9122	743.9298	65535	64635.9
834.0571	746.014	65535	64641.3
834.2021	748.0974	65535	64636.75
834.347	750.1802	65535	64636.8
834.492	752.2624	65535	64637.95
834.637	754.3439	65535	64632.7
834.782	756.4247	65535	64624.3
834.9269	758.5048	65535	64635.6
835.0719	760.5843	65535	64638.7
835.2169	762.6631	65535	64633.25
835.3619	764.7413	65535	64637.75
835.5069	766.8188	65535	64636.2
835.6519	768.8956	65535	64636.45
835.7969	770.9718	65535	64635.45
835.9419	773.0473	65535	64634.7
836.0869	775.1221	65535	64636.85
836.232	777.1962	65535	64636.7
836.377	779.2697	65535	64634
836.522	781.3426	65535	64616.2
836.667	783.4147	65535	64633.3
836.8121	785.4862	65535	64637.25
836.9571	787.557	65535	64638.15
837.1021	789.6271	65535	64634.25
837.2472	791.6966	65535	64636.05
837.3922	793.7654	65535	64630.7
837.5373	795.8335	65535	64634.75
837.6823	797.901	65535	64633.55
837.8274	799.9678	65535	64633.9
837.9724	802.0339	65535	64633.2
838.1175	804.0993	65535	64621.45
838.2626	806.1641	65535	64631.9
838.4076	808.2282	65535	64632.6
838.5527	810.2916	65535	64631.7
838.6978	812.3544	65535	64632.35
838.8428	814.4164	65535	64633.2
838.9879	816.4778	65535	64631
839.133	818.5385	65535	64633.4
839.2781	820.5986	65535	64631.45
839.4232	822.658	65535	64632.1
839.5682	824.7166	65535	64635.8
839.7133	826.7747	65535	64631.1
839.8584	828.832	65535	64631.7
840.0035	830.8886	65535	64629.75
840.1486	832.9446	65535	64632
840.2937	834.9999	65535	64630.55
840.4388	837.0545	65535	64630.4
840.5839	839.1085	65535	64633.7
840.729	841.1618	65535	64627.85
840.8741	843.2143	65535	64635.45
841.0192	845.2662	65535	64633.75
841.1643	847.3175	65535	64633.65
841.3095	849.368	65535	64632.9
841.4546	851.4179	65535	64631.5
841.5997	853.467	65535	64631.2
841.7448	855.5155	65535	64631.5
841.8899	857.5633	65535	64631.9
842.0351	859.6105	65535	64630.2
842.1802	861.6569	65535	64630.75
842.3253	863.7027	65535	64630.65
842.4704	865.7478	65535	64632.35
842.6156	867.7922	65535	64633.75
842.7607	869.8359	65535	64629.45
842.9058	871.8789	65535	64632.35
843.0509	873.9212	65535	64598.1
843.1961	875.9629	65535	64629.2
843.3412	878.0039	65535	64630.8
843.4863	880.0441	65535	64632.8
843.6315	882.0837	65535	64628.75
843.7766	884.1226	65535	64630.9
843.9218	886.1609	65535	64635.7
844.0669	888.1984	65535	64630.2
844.212	890.2352	65535	64631.35
844.3572	892.2714	65535	64626.9
844.5023	894.3069	65535	64628.35
844.6475	896.3416	65535	64629.1
844.7926	898.3757	65535	64629.4
844.9377	900.4091	65535	64626.9
845.0829	902.4418	65535	64625.45
845.228	904.4739	65535	64627.5
845.3732	906.5052	65535	64628.6
845.5183	908.5358	65535	64630.15
845.6635	910.5658	65535	64628.45
845.8086	912.595	65535	64627.35
845.9538	914.6236	65535	64628
846.0989	916.6515	65535	64628.3
846.2441	918.6786	65535	64627.25
846.3892	920.7051	65535	64625.7
846.5344	922.7309	65535	64631.25
846.6795	924.756	65535	64626.25
846.8246	926.7804	65535	64627.75
846.9698	928.8041	65535	64622.65
847.1149	930.8272	65535	64629.85
847.2601	932.8495	65535	64630.65
847.4052	934.8711	65535	64630.3
847.5504	936.892	65535	64629.4
847.6955	938.9123	65535	64627.3
847.8407	940.9318	65535	64628.45
847.9858	942.9506	65535	64628.55
848.131	944.9688	65535	64627.8
848.2761	946.9862	65535	64629.4
848.4213	949.003	65535	64628.45
848.5664	951.019	65535	64630.8
848.7115	953.0344	65535	64628.85
848.8567	955.0491	65535	64627.25
849.0018	957.063	65535	64629.65
849.147	959.0763	65535	64630.8
849.2921	961.0888	65535	64626.55
849.4373	963.1007	65535	64628.3
849.5824	965.1119	65535	64628.5
849.7275	967.1223	65535	64628.95
849.8727	969.1321	65535	64631.6
850.0178	971.1412	65535	64632.1
850.1629	973.1495	65535	64630.95
850.3081	975.1572	65535	64595.9
850.4532	977.1641	65535	64628.75
850.5983	979.1704	65535	64626.6
850.7435	981.1759	65535	64625.25
850.8886	983.1808	65535	64626.7
851.0337	985.1849	65535	64617.35
851.1788	987.1884	65535	64625.85
851.324	989.1911	65535	64623.9
851.4691	991.1932	65535	64627.1
851.6142	993.1945	65535	64630.35
851.7593	995.1951	65535	64631.4
851.9045	997.1951	65535	64622.65
852.0496	999.1943	65535	64629.55
852.1947	1001.1928	65535	64624.95
852.3398	1003.1906	65535	64626.95
852.4849	1005.1877	65535	64627.95
852.63	1007.1841	65535	64628
852.7751	1009.1798	65535	64630.5
852.9202	1011.1748	65535	64627.8
853.0653	1013.1691	65535	64628.55
853.2104	1015.1627	65535	64626.2
853.3555	1017.1556	65535	64629.4
853.5006	1019.1477	65535	64629.4
853.6457	1021.1392	65535	64630.9
853.7908	1023.1299	65535	64630.05
853.9359	1025.12	65535	64630.85
854.081	1027.1093	65535	64634.2
854.2261	1029.0979	65535	64636.1
854.3712	1031.0859	65535	64632.9
854.5163	1033.0731	65535	64630.4
854.6613	1035.0596	65535	64632.65
854.8064	1037.0454	65535	64629.8
854.9515	1039.0304	65535	64627.2
855.0965	1041.0148	65535	64629.15
855.2416	1042.9985	65535	64627.85
855.3867	1044.9814	65535	64627.85
855.5317	1046.9636	65535	64626.9
855.6768	1048.9452	65535	64629.05
855.8219	1050.926	65535	64626.95
855.9669	1052.9061	65535	64629.05
856.112	1054.8855	65535	64628.7
856.257	1056.8642	65535	64630.45
856.4021	1058.8421	65535	64622.65
856.5471	1060.8194	65535	64626.5
856.6921	1062.7959	65535	64629.35
856.8372	1064.7717	65535	64627.45
856.9822	1066.7469	65535	64627.4
857.1272	1068.7213	65535	64627.5
857.2723	1070.695	65535	64629.2
857.4173	1072.6679	65535	64628.15
857.5623	1074.6402	65535	64627.2
857.7073	1076.6117	65535	64623.95
857.8523	1078.5826	65535	64626.3
857.9973	1080.5527	65535	64625
858.1423	1082.5221	65535	64625.75
858.2873	1084.4908	65535	64628.45
858.4323	1086.4587	65535	64624.35
858.5773	1088.426	65535	64627.25
858.7223	1090.3925	65535	64623.6
858.8673	1092.3584	65535	64630.55
859.0123	1094.3235	65535	64629.75
859.1573	1096.2879	65535	64625.8
859.3022	1098.2515	65535	64628.65
859.4472	1100.2145	65535	64630.1
859.5922	1102.1767	65535	64624.65
859.7371	1104.1382	65535	64630.5
859.8821	1106.099	65535	64623.55
860.027	1108.0591	65535	64627.05
860.172	1110.0185	65535	64628.7
860.3169	1111.9771	65535	64627.75
860.4619	1113.9351	65535	64628.7
860.6068	1115.8923	65535	64626.3
860.7517	1117.8488	65535	64627.4
860.8967	1119.8045	65535	64631.3
861.0416	1121.7596	65535	64627.55
861.1865	1123.7139	65535	64628.25
861.3314	1125.6675	65535	64630.75
861.4763	1127.6204	65535	64630.25
861.6212	1129.5726	65535	64627.25
861.7661	1131.524	65535	64627.8
861.911	1133.4748	65535	64628.05
862.0559	1135.4248	65535	64626.4
862.2008	1137.3741	65535	64629.1
862.3457	1139.3226	65535	64627.15
862.4905	1141.2705	65535	64628.3
862.6354	1143.2176	65535	64623.6
862.7803	1145.164	65535	64627.35
862.9251	1147.1097	65535	64629.2
863.07	1149.0546	65535	64628.3
863.2148	1150.9989	65535	64628.5
863.3597	1152.9424	65535	64627.95
863.5045	1154.8852	65535	64627.75
863.6493	1156.8272	65535	64627.9
863.7942	1158.7686	65535	64621.15
863.939	1160.7092	65535	64629
864.0838	1162.6491	65535	64628.75
864.2286	1164.5883	65535	64628.45
864.3734	1166.5267	65535	64627.7
864.5182	1168.4644	65535	64629.25
864.663	1170.4014	65535	64623.55
864.8078	1172.3377	65535	64632.25
864.9526	1174.2732	65535	64631.1
865.0974	1176.2081	65535	64627.3
865.2421	1178.1421	65535	64624.45
865.3869	1180.0755	65535	64628.65
865.5317	1182.0082	65535	64627.2
865.6764	1183.9401	65535	64628.8
865.8212	1185.8713	65535	64632.8
865.9659	1187.8017	65535	64632.3
866.1106	1189.7315	65535	64632.7
866.2554	1191.6605	65535	64601.75
866.4001	1193.5888	65535	64633.5
866.5448	1195.5163	65535	64629
866.6895	1197.4432	65535	64627.05
866.8342	1199.3693	65535	64631.6
866.9789	1201.2947	65535	64626.95
867.1236	1203.2193	65535	64629.35
867.2683	1205.1432	65535	64628.45
867.413	1207.0664	65535	64627.65
867.5576	1208.9889	65535	64625
867.7023	1210.9106	65535	64629.2
867.847	1212.8316	65535	64632.1
867.9916	1214.7519	65535	64621.2
868.1363	1216.6715	65535	64631.6
868.2809	1218.5903	65535	64630.9
868.4255	1220.5084	65535	64628.5
868.5701	1222.4257	65535	64630.05
868.7148	1224.3424	65535	64631.05
868.8594	1226.2583	65535	64626.9
869.004	1228.1735	65535	64629.3
869.1486	1230.0879	65535	64629.15
869.2932	1232.0016	65535	64631.45
869.4377	1233.9146	65535	64630.3
869.5823	1235.8269	65535	64627.95
869.7269	1237.7384	65535	64629.65
869.8715	1239.6492	65535	64630.05
870.016	1241.5592	65535	64630.6
870.1606	1243.4686	65535	64629.6
870.3051	1245.3772	65535	64629.25
870.4496	1247.285	65535	64630.9
870.5941	1249.1922	65535	64629.8
870.7387	1251.0986	65535	64632.35
870.8832	1253.0042	65535	64629.7
871.0277	1254.9092	65535	64631.25
871.1722	1256.8134	65535	64634.5
871.3167	1258.7169	65535	64628.75
871.4611	1260.6196	65535	64629.75
871.6056	1262.5216	65535	64629.4
871.7501	1264.4229	65535	64631.9
871.8945	1266.3234	65535	64630.9
872.039	1268.2232	65535	64630.7
872.1834	1270.1223	65535	64627.3
872.3278	1272.0207	65535	64629.25
872.4723	1273.9183	65535	64625.15
872.6167	1275.8151	65535	64631.95
872.7611	1277.7113	65535	64630.9
872.9055	1279.6067	65535	64631.2
873.0499	1281.5014	65535	64628.3
873.1943	1283.3953	65535	64626.55
873.3386	1285.2885	65535	64629.8
873.483	1287.181	65535	64630.45
873.6274	1289.0727	65535	64631.75
873.7717	1290.9637	65535	64630
873.9161	1292.854	65535	64629.25
874.0604	1294.7435	65535	64633.25
874.2047	1296.6323	65535	64629.75
874.349	1298.5204	65535	64626.1
874.4933	1300.4077	65535	64631.55
874.6376	1302.2943	65535	64631.05
874.7819	1304.1802	65535	64629.75
874.9262	1306.0653	65535	64626.55
875.0705	1307.9497	65535	64632.2
875.2147	1309.8333	65535	64629.2
875.359	1311.7162	65535	64632.65
875.5032	1313.5984	65535	64628.45
875.6475	1315.4798	65535	64627.55
875.7917	1317.3605	65535	64615.2
875.9359	1319.2405	65535	64628.4
876.0801	1321.1197	65535	64629.35
876.2243	1322.9982	65535	64625.6
876.3685	1324.876	65535	64630.9
876.5127	1326.753	65535	64630.85
876.6569	1328.6293	65535	64628.1
876.801	1330.5048	65535	64629.3
876.9452	1332.3796	65535	64630.2
877.0893	1334.2537	65535	64603.65
877.2335	1336.127	65535	64631.3
877.3776	1337.9996	65535	64631.1
877.5217	1339.8714	65535	64630.05
877.6658	1341.7426	65535	64585
877.8099	1343.6129	65535	64631.25
877.954	1345.4826	65535	64632.45
878.0981	1347.3515	65535	64629.3
878.2422	1349.2196	65535	64627
878.3862	1351.087	65535	64632.65
878.5303	1352.9537	65535	64630.15
878.6743	1354.8197	65535	64630.7
878.8184	1356.6849	65535	64632.15
878.9624	1358.5493	65535	64631.75
879.1064	1360.4131	65535	64632.9
879.2504	1362.276	65535	64632.2
879.3944	1364.1383	65535	64630.5
879.5384	1365.9998	65535	64624.9
879.6823	1367.8606	65535	64628
879.8263	1369.7206	65535	64629.05
879.9702	1371.5799	65535	64629.75
880.1142	1373.4384	65535	64630.6
880.2581	1375.2962	65535	64629.1
880.402	1377.1533	65535	64630.25
880.5459	1379.0096	65535	64630.2
880.6898	1380.8652	65535	64631.55
880.8337	1382.7201	65535	64630.95
880.9776	1384.5742	65535	64630.3
881.1215	1386.4275	65535	64629.85
881.2653	1388.2802	65535	64632.25
881.4092	1390.132	65535	64631.95
881.553	1391.9832	65535	64628.75
881.6968	1393.8336	65535	64632
881.8406	1395.6832	65535	64629.1
881.9844	1397.5322	65535	64633.25
882.1282	1399.3803	65535	64625.55
882.272	1401.2278	65535	64628
882.4158	1403.0745	65535	64630.55
882.5595	1404.9204	65535	64634
882.7033	1406.7656	65535	64631.6
882.847	1408.6101	65535	64629.6
882.9908	1410.4538	65535	64631.75
883.1345	1412.2968	65535	64630.55
883.2782	1414.139	65535	64630.65
883.4219	1415.9805	65535	64632.5
883.5656	1417.8213	65535	64624.85
883.7092	1419.6613	65535	64632.3
883.8529	1421.5006	65535	64632.95
883.9965	1423.3391	65535	64630.45
884.1402	1425.1769	65535	64628.15
884.2838	1427.0139	65535	64630
884.4274	1428.8502	65535	64631.9
884.571	1430.6858	65535	64631.35
884.7146	1432.5206	65535	64630.85
884.8582	1434.3547	65535	64632.1
885.0018	1436.188	65535	64632.55
885.1453	1438.0206	65535	64630.05
885.2889	1439.8524	65535	64629.35
885.4324	1441.6835	65535	64632.6
885.5759	1443.5139	65535	64627.15
885.7194	1445.3435	65535	64632.2
885.8629	1447.1724	65535	64634.6
886.0064	1449.0005	65535	64631.45
886.1499	1450.8279	65535	64631.4
886.2933	1452.6545	65535	64631.75
886.4368	1454.4804	65535	64634.15
886.5802	1456.3056	65535	64623.35
886.7237	1458.13	65535	64632.65
886.8671	1459.9536	65535	64632.05
887.0105	1461.7766	65535	64633.95
887.1539	1463.5987	65535	64631.85
887.2972	1465.4202	65535	64631.25
887.4406	1467.2409	65535	64632.6
887.584	1469.0608	65535	64633.6
887.7273	1470.88	65535	64631.4
887.8706	1472.6984	65535	64635.75
888.0139	1474.5161	65535	64628.7
888.1572	1476.3331	65535	64631.8
888.3005	1478.1493	65535	64633.35
888.4438	1479.9648	65535	64631.65
888.5871	1481.7795	65535	64632.15
888.7303	1483.5935	65535	64631.85
888.8736	1485.4067	65535	64632.55
889.0168	1487.2192	65535	64630.9
889.16	1489.031	65535	64629
889.3032	1490.842	65535	64634
889.4464	1492.6522	65535	64631.6
889.5896	1494.4618	65535	64632.9
889.7327	1496.2705	65535	64633.55
889.8759	1498.0785	65535	64632.1
890.019	1499.8858	65535	64632.15
890.1622	1501.6924	65535	64635.1
890.3053	1503.4981	65535	64630.85
890.4484	1505.3032	65535	64632.15
890.5914	1507.1075	65535	64631.8
890.7345	1508.911	65535	64634.1
890.8776	1510.7138	65535	64630.55
891.0206	1512.5159	65535	64633.4
891.1637	1514.3172	65535	64633.75
891.3067	1516.1178	65535	64632.9
891.4497	1517.9176	65535	64631.55
891.5927	1519.7166	65535	64632.15
891.7357	1521.515	65535	64629.3
891.8786	1523.3126	65535	64631.5
892.0216	1525.1094	65535	64631.75
892.1645	1526.9055	65535	64635.1
892.3074	1528.7008	65535	64635.65
892.4503	1530.4954	65535	64627.7
892.5932	1532.2893	65535	64636.45
892.7361	1534.0824	65535	64626.6
892.879	1535.8747	65535	64633.45
893.0218	1537.6663	65535	64634.05
893.1647	1539.4572	65535	64634.9
893.3075	1541.2473	65535	64634.65
893.4503	1543.0367	65535	64636
893.5931	1544.8253	65535	64629.2
893.7359	1546.6132	65535	64631.5
893.8787	1548.4003	65535	64624.35
894.0214	1550.1867	65535	64625.2
894.1642	1551.9723	65535	64632.85
894.3069	1553.7572	65535	64633.95
894.4496	1555.5414	65535	64633.95
894.5923	1557.3247	65535	64636.9
894.735	1559.1074	65535	64636.2
894.8777	1560.8893	65535	64635.65
895.0204	1562.6705	65535	64637.2
895.163	1564.4509	65535	64636.95
895.3056	1566.2305	65535	64637.1
895.4482	1568.0094	65535	64637.65
895.5908	1569.7876	65535	64635.4
895.7334	1571.565	65535	64634.65
895.876	1573.3417	65535	64637.4
896.0186	1575.1176	65535	64637.85
896.1611	1576.8928	65535	64636.45
896.3036	1578.6672	65535	64635.7
896.4461	1580.4409	65535	64638.05
896.5886	1582.2138	65535	64634.2
896.7311	1583.986	65535	64633.8
896.8736	1585.7575	65535	64638.6
897.0161	1587.5282	65535	64640.05
897.1585	1589.2981	65535	64637.5
897.3009	1591.0673	65535	64638.15
897.4433	1592.8358	65535	64638.15
897.5857	1594.6035	65535	64632.9
897.7281	1596.3704	65535	64634.2
897.8705	1598.1366	65535	64637.3
898.0128	1599.9021	65535	64638.95
898.1551	1601.6668	65535	64633.65
898.2975	1603.4308	65535	64634.7
898.4398	1605.194	65535	64632.9
898.5821	1606.9564	65535	64636.9
898.7243	1608.7182	65535	64637.45
898.8666	1610.4791	65535	64640.05
899.0088	1612.2394	65535	64640.7
899.1511	1613.9988	65535	64637.6
899.2933	1615.7576	65535	64637.95
899.4355	1617.5156	65535	64633.1
899.5776	1619.2728	65535	64637.45
899.7198	1621.0293	65535	64636.55
899.862	1622.785	65535	64636
900.0041	1624.54	65535	64635.65
900.1462	1626.2942	65535	64638.3
900.2883	1628.0477	65535	64635.85
900.4304	1629.8005	65535	64635.2
900.5725	1631.5525	65535	64637.65
900.7145	1633.3037	65535	64636.95
900.8566	1635.0542	65535	64636.95
900.9986	1636.804	65535	64639.55
901.1406	1638.553	65535	64550.85
901.2826	1640.3013	65535	64640.2
901.4245	1642.0488	65535	64641.05
901.5665	1643.7955	65535	64640.3
901.7085	1645.5416	65535	64639.75
901.8504	1647.2868	65535	64640.35
901.9923	1649.0313	65535	64639.15
902.1342	1650.7751	65535	64633.9
902.2761	1652.5181	65535	64638.15
902.4179	1654.2604	65535	64639.35
902.5598	1656.0019	65535	64640.2
902.7016	1657.7427	65535	64639.6
902.8434	1659.4828	65535	64640.45
902.9852	1661.222	65535	64636.5
903.127	1662.9606	65535	64638.5
903.2687	1664.6984	65535	64637.85
903.4105	1666.4354	65535	64637.35
903.5522	1668.1717	65535	64638.65
903.6939	1669.9072	65535	64638.75
903.8356	1671.642	65535	64637.45
903.9773	1673.3761	65535	64637.8
904.119	1675.1094	65535	64639.05
904.2606	1676.8419	65515.65	64617.55
904.4022	1678.5737	65529.05	64631.65
904.5439	1680.3048	65521.8	64624.55
904.6855	1682.0351	65511.45	64616
904.827	1683.7646	65495.25	64597.6
904.9686	1685.4934	65515.8	64620.6
905.1101	1687.2215	65414.1	64518.5
905.2517	1688.9488	65507.7	64614.6
905.3932	1690.6754	65268.35	64372.95
905.5347	1692.4012	65431.25	64533.5
905.6761	1694.1263	65461.05	64567.05
905.8176	1695.8506	65337.65	64443.5
905.9591	1697.5742	65395.4	64500.6
906.1005	1699.297	65348.8	64454.5
906.2419	1701.0191	65385.85	64491.9
906.3833	1702.7404	65184.55	64293.05
906.5246	1704.461	65151.6	64256.5
906.666	1706.1808	65283.45	64389.6
906.8073	1707.8999	65187.35	64291
906.9487	1709.6182	65153.7	64258.65
907.09	1711.3358	65136.55	64241.3
907.2313	1713.0527	65101.95	64209.8
907.3725	1714.7688	65130.1	64230.1
907.5138	1716.4841	64853.4	63957.9
907.655	1718.1987	64981.45	64081.15
907.7962	1719.9126	64886.2	63993.55
907.9374	1721.6257	64988.55	64092.9
908.0786	1723.338	64985	64092.15
908.2198	1725.0496	64540.75	63647.1
908.3609	1726.7605	64621.05	63726.5
908.502	1728.4706	64457	63564.4
908.6431	1730.18	64680.8	63782.8
908.7842	1731.8886	64441.3	63550.45
908.9253	1733.5964	64307.95	63408.6
909.0664	1735.3036	64580.8	63682.5
909.2074	1737.0099	64359.85	63468.1
909.3484	1738.7156	64145.3	63251.15
909.4894	1740.4204	64080.5	63185.05
909.6304	1742.1246	64190.55	63294.95
909.7714	1743.8279	64256.05	63363.3
909.9123	1745.5306	64193.65	63299.25
910.0532	1747.2325	63332.6	62439.55
910.1941	1748.9336	63370.85	62475.85
910.335	1750.634	63702.8	62807.95
910.4759	1752.3336	63915.55	63022.45
910.6168	1754.0325	63181	62290.6
910.7576	1755.7307	63872.5	62979
910.8984	1757.4281	62876.9	61983.55
911.0392	1759.1247	63652.3	62750.2
911.18	1760.8206	62528.95	61628.95
911.3208	1762.5158	62641.6	61744.35
911.4615	1764.2102	62971.05	62078.05
911.6022	1765.9039	62760.4	61868
911.7429	1767.5968	62466.2	61575.15
911.8836	1769.289	62308.6	61415.45
912.0243	1770.9804	62564.55	61671.3
912.1649	1772.6711	62284.1	61389.45
912.3056	1774.361	62062.4	61168.7
912.4462	1776.0502	62067.2	61173.8
912.5868	1777.7386	61116.55	60219.85
912.7274	1779.4263	61688.4	60793.9
912.8679	1781.1132	61655.8	60761.6
913.0084	1782.7994	61506.05	60610.6
913.149	1784.4849	61517.5	60626.8
913.2895	1786.1696	60391	59493.2
913.4299	1787.8535	61069.6	60178.95
913.5704	1789.5367	61184.4	60290.3
913.7108	1791.2192	60447.6	59554.15
913.8513	1792.9009	60038.65	59114.6
913.9917	1794.5818	60567.7	59672.75
914.132	1796.2621	60011	59118.4
914.2724	1797.9415	60069	59174.7
914.4128	1799.6202	59965.6	59073.55
914.5531	1801.2982	59980.55	59086.4
914.6934	1802.9755	59269.2	58375.6
914.8337	1804.6519	59047.05	58151.7
914.9739	1806.3277	60050.8	59158.1
915.1142	1808.0027	58506.65	57613.85
915.2544	1809.6769	58956.65	58063.7
915.3946	1811.3504	59116.95	58222.35
915.5348	1813.0231	58016.75	57123.45
915.675	1814.6951	58721.5	57830.45
915.8151	1816.3664	58228.1	57333.3
915.9553	1818.0369	58291.95	57398.35
916.0954	1819.7067	57947.65	57056.3
916.2355	1821.3757	58507.8	57612.1
916.3755	1823.044	57590.5	56696.95
916.5156	1824.7115	57335.5	56439.9
916.6556	1826.3783	57502.8	56610.35
916.7956	1828.0443	57491.45	56600.25
916.9356	1829.7096	57173.55	56277.75
917.0756	1831.3741	56650.85	55756.55
917.2155	1833.0379	56912	56017.95
917.3555	1834.701	56859.65	55966.5
917.4954	1836.3633	56393.85	55501.45
917.6353	1838.0248	56601.15	55705.85
917.7751	1839.6856	56364.8	55472.2
917.915	1841.3457	55911.2	55018.3
918.0548	1843.005	56400.35	55510.25
918.1946	1844.6636	56012.5	55122.05
918.3344	1846.3214	55475.15	54583.5
918.4742	1847.9785	55616.3	54724.2
918.6139	1849.6349	55549.7	54654.4
918.7537	1851.2904	55781.7	54878.6
918.8934	1852.9453	55114.4	54220.85
919.0331	1854.5994	55266.35	54368.7
919.1727	1856.2528	55342.4	54447.55
919.3124	1857.9054	54896.5	54005.75
919.452	1859.5572	54665.5	53772.65
919.5916	1861.2083	54805.45	53913.25
919.7312	1862.8587	55270.35	54377.6
919.8708	1864.5084	54094.25	53199.9
920.0103	1866.1572	54445.85	53552.5
920.1498	1867.8054	53854.45	52961.5
920.2893	1869.4528	54256.85	53363.3
920.4288	1871.0994	53678.15	52785.85
920.5683	1872.7453	53692.7	52799.65
920.7077	1874.3905	53703.3	52803.5
920.8471	1876.0349	53315.1	52421
920.9865	1877.6786	53563.4	52668.8
921.1259	1879.3215	53248.7	52357.7
921.2653	1880.9637	53462.25	52569.8
921.4046	1882.6051	53105.85	52213.65
921.5439	1884.2458	52857.65	51964.05
921.6832	1885.8858	52574.4	51683.3
921.8225	1887.525	52718.8	51824.85
921.9617	1889.1634	52460.5	51569.75
922.101	1890.8011	52270.15	51378.35
922.2402	1892.4381	51829.75	50937.45
922.3794	1894.0743	52184.35	51293.1
922.5185	1895.7098	51858.8	50967.2
922.6577	1897.3446	51635.25	50742.5
922.7968	1898.9786	51617.55	50720.35
922.9359	1900.6118	51388.9	50496.2
923.075	1902.2443	51104.4	50209.1
923.214	1903.8761	51172.75	50278.7
923.3531	1905.5071	50865.3	49971.25
923.4921	1907.1374	50450.25	49557.6
923.6311	1908.7669	50573.15	49680
923.77	1910.3957	50668.5	49775.2
923.909	1912.0237	50152.25	49259.65
924.0479	1913.651	49993	49100.6
924.1868	1915.2776	49868.75	48978.35
924.3257	1916.9034	49711.6	48819.8
924.4646	1918.5285	49495.7	48604.55
924.6034	1920.1528	49318.65	48425.7
924.7422	1921.7764	49231.55	48338.65
924.881	1923.3992	49037.35	48146.1
925.0198	1925.0213	48669.95	47779.05
925.1586	1926.6427	48468.45	47578
925.2973	1928.2633	48516.6	47518.85
925.436	1929.8832	48299.95	47406.4
925.5747	1931.5023	48025.95	47132.35
925.7134	1933.1207	47878.05	46985.05
925.852	1934.7383	47883.95	46989.7
925.9906	1936.3552	47668.2	46775.85
926.1292	1937.9714	47602.65	46711.05
926.2678	1939.5868	47401.75	46507.2
926.4064	1941.2015	47029.1	46139.15
926.5449	1942.8154	46867.9	45975.8
926.6834	1944.4286	46652.8	45760.85
926.8219	1946.041	46582.8	45672.05
926.9604	1947.6528	46323.05	45426.8
927.0988	1949.2637	46202.95	45309.2
927.2372	1950.8739	45999.3	45108.85
927.3756	1952.4834	45936.2	45043
927.514	1954.0921	45907.35	45014.05
927.6523	1955.7001	45612.9	44713.9
927.7907	1957.3074	45536.05	44643.9
927.929	1958.9139	45299.1	44408.2
928.0673	1960.5197	45176.65	44285.4
928.2055	1962.1247	44983.6	44091.95
928.3438	1963.729	44803.4	43912.1
928.482	1965.3325	44608.4	43694.2
928.6202	1966.9353	44461.35	43572.25
928.7584	1968.5374	44326.4	43435.4
928.8965	1970.1387	44215.45	43324.15
929.0346	1971.7393	43974.9	43084.3
929.1727	1973.3392	43852.85	42961
929.3108	1974.9383	43624.2	42733.65
929.4489	1976.5366	43464.45	42572.95
929.5869	1978.1342	43489.4	42598.75
929.7249	1979.7311	43351.75	42458.65
929.8629	1981.3273	43215.65	42325.65
930.0009	1982.9227	43005.2	42112.15
930.1388	1984.5173	42852.35	41962.25
930.2767	1986.1112	42704.95	41815.3
930.4146	1987.7044	42616.4	41725.1
930.5525	1989.2968	42451.05	41561.1
930.6904	1990.8885	42349.3	41455.7
930.8282	1992.4795	42231.3	41340.75
930.966	1994.0697	42075.95	41185.85
931.1038	1995.6592	41856.25	40966.3
931.2415	1997.2479	41752.1	40860.65
931.3793	1998.8359	41674.75	40783.25
931.517	2000.4232	41451.95	40564.2
931.6547	2002.0097	41329.25	40441.6
931.7923	2003.5955	41141.1	40251.65
931.93	2005.1805	41149.1	40258.35
932.0676	2006.7648	40962.35	40071.9
932.2052	2008.3484	40797.55	39907.75
932.3427	2009.9312	40822.55	39930.7
932.4803	2011.5133	40593.5	39705.05
932.6178	2013.0946	40494.3	39604.55
932.7553	2014.6752	40375.75	39485.95
932.8928	2016.2551	40263.25	39373.15
933.0302	2017.8342	40065.85	39176.25
933.1676	2019.4126	39986	39095.75
933.305	2020.9902	39840.35	38949.65
933.4424	2022.5672	39741.7	38850.85
933.5798	2024.1433	39629.4	38734.35
933.7171	2025.7188	39476	38586.85
933.8544	2027.2935	39371.65	38481.35
933.9917	2028.8674	39238.5	38349.5
934.129	2030.4406	39106.75	38218.45
934.2662	2032.0131	38900.25	38011.15
934.4034	2033.5849	38749.95	37850.65
934.5406	2035.1559	38674.75	37786.15
934.6778	2036.7261	38623.85	37731.65
934.8149	2038.2957	38450.85	37559.3
934.952	2039.8645	38428.85	37538.55
935.0891	2041.4325	38462.35	37569.15
935.2262	2042.9998	38244.8	37355.2
935.3632	2044.5664	38077.85	37186.05
935.5002	2046.1323	38004.6	37112.95
935.6372	2047.6974	37841.15	36950.8
935.7742	2049.2617	37711.4	36822.45
935.9111	2050.8254	37657.05	36764.25
936.048	2052.3883	37588.6	36697.4
936.1849	2053.9504	37482.85	36592.5
936.3218	2055.5118	37358.25	36467.05
936.4586	2057.0725	37184.5	36291.6
936.5955	2058.6325	37108.05	36217.15
936.7323	2060.1917	36997.3	36108.85
936.869	2061.7502	36880.25	35987.45
937.0058	2063.3079	36750.6	35861.45
937.1425	2064.8649	36634.85	35742.6
937.2792	2066.4212	36516.4	35624.2
937.4159	2067.9767	36345.65	35457
937.5525	2069.5315	36255.95	35367.9
937.6891	2071.0856	36078.8	35189.5
937.8257	2072.6389	36015.05	35122.25
937.9623	2074.1915	35783.55	34894.8
938.0989	2075.7433	35597.7	34706
938.2354	2077.2945	35539.55	34650.5
938.3719	2078.8448	35382.9	34492.15
938.5084	2080.3945	35309.7	34420.75
938.6448	2081.9434	35240.3	34351.15
938.7812	2083.4916	35127.75	34237.05
938.9176	2085.039	34977.45	34082.95
939.054	2086.5857	34910.4	34018.7
939.1903	2088.1317	34855.95	33964.4
939.3267	2089.677	34723.9	33831.7
939.463	2091.2215	34630.05	33740.8
939.5992	2092.7652	34512.25	33621.25
939.7355	2094.3083	34416.7	33523.65
939.8717	2095.8506	34331.1	33439.7
940.0079	2097.3921	34333.95	33445.45
940.1441	2098.933	34178.3	33288.3
940.2802	2100.4731	34100.5	33210.85
940.4163	2102.0124	34032.5	33134.4
940.5524	2103.5511	33885.8	32995.5
940.6885	2105.089	33874.15	32982.55
940.8245	2106.6261	33733.45	32841
940.9606	2108.1626	33635.8	32744.45
941.0965	2109.6983	33570.55	32652.1
941.2325	2111.2332	33492.2	32599.7
941.3684	2112.7675	33360.5	32468.65
941.5044	2114.301	33250.4	32359.15
941.6403	2115.8337	33229.55	32338.85
941.7761	2117.3657	33090.9	32201.45
941.912	2118.897	33037.1	32145.3
942.0478	2120.4276	32883.45	31985.6
942.1835	2121.9575	32731.95	31840.35
942.3193	2123.4866	32722.65	31817.55
942.455	2125.0149	32583.9	31693.75
942.5907	2126.5426	32400.8	31512.65
942.7264	2128.0695	32364.55	31471.55
942.8621	2129.5956	32296.2	31407.7
942.9977	2131.1211	32235.1	31340.45
943.1333	2132.6458	32137.6	31247.4
943.2689	2134.1698	32012.65	31123
943.4044	2135.693	31914	31020.35
943.54	2137.2155	31848.05	30953.95
943.6755	2138.7373	31784.15	30892.85
943.8109	2140.2584	31663.25	30773.75
943.9464	2141.7787	31609.45	30715.45
944.0818	2143.2983	31401.55	30512.45
944.2172	2144.8171	31282.4	30393.8
944.3526	2146.3353	31177.15	30283.8
944.4879	2147.8527	31098.1	30207.45
944.6232	2149.3693	31056.5	30166.15
944.7585	2150.8853	30938.95	30048.2
944.8938	2152.4005	30736.4	29845.75
945.029	2153.9149	30697.1	29804.95
945.1642	2155.4287	30613.1	29723.55
945.2994	2156.9417	30556	29665.3
945.4346	2158.454	30447.9	29554.45
945.5697	2159.9655	30376.8	29485.55
945.7048	2161.4764	30305.5	29415.35
945.8399	2162.9865	30146.55	29257.7
945.9749	2164.4958	30131.75	29240.2
946.1099	2166.0045	29972.35	29078.5
946.2449	2167.5124	29947.4	29057.75
946.3799	2169.0195	29849.2	28957.85
946.5148	2170.526	29840.45	28950.65
946.6498	2172.0317	29714.75	28823.25
946.7846	2173.5367	29613.45	28721.95
946.9195	2175.0409	29473	28583.95
947.0543	2176.5445	29487.7	28597.85
947.1891	2178.0473	29382.55	28490.95
947.3239	2179.5494	29244.95	28351
947.4587	2181.0507	29117.55	28225.95
947.5934	2182.5513	29052.25	28161.85
947.7281	2184.0512	28981.45	28092.1
947.8628	2185.5504	28831.15	27942.7
947.9974	2187.0488	28710.2	27821.3
948.132	2188.5465	28623.7	27734.95
948.2666	2190.0435	28490.55	27600.45
948.4012	2191.5397	28437.25	27545.2
948.5357	2193.0353	28352.55	27460.45
948.6702	2194.5301	28207.05	27313.95
948.8047	2196.0241	28102.55	27211.3
948.9392	2197.5175	27993.8	27103
949.0736	2199.0101	27915.3	27021.8
949.208	2200.502	27750	26860.75
949.3424	2201.9931	27668.85	26777.75
949.4767	2203.4835	27549.9	26658.6
949.611	2204.9733	27534.35	26636.5
949.7453	2206.4622	27476.3	26586.1
949.8796	2207.9505	27310.4	26417.95
950.0138	2209.438	27160.45	26271.7
950.148	2210.9248	27053.1	26163.5
950.2822	2212.4109	26995.75	26105.15
950.4164	2213.8962	26886.15	25992.3
950.5505	2215.3809	26892.75	25999.75
950.6846	2216.8648	26771.5	25881.7
950.8186	2218.3479	26674.5	25778.6
950.9527	2219.8304	26566.25	25672.75
951.0867	2221.3121	26482.35	25588.05
951.2207	2222.7931	26403.4	25513.15
951.3546	2224.2733	26277.95	25387.4
951.4886	2225.7529	26187.1	25295.15
951.6225	2227.2317	26096.65	25202.9
951.7563	2228.7098	26064.05	25174.3
951.8902	2230.1872	25947.1	25056.7
952.024	2231.6638	25909.5	25018.6
952.1578	2233.1397	25785.2	24890.85
952.2916	2234.6149	25715	24825.1
952.4253	2236.0894	25571.65	24681.35
952.559	2237.5632	25531.8	24637.5
952.6927	2239.0362	25438.5	24548.75
952.8263	2240.5085	25374.35	24485.15
952.9599	2241.9801	25237.1	24346.55
953.0935	2243.4509	25172.05	24282.45
953.2271	2244.921	25096.75	24204.8
953.3606	2246.3904	24983.15	24090.65
953.4941	2247.8591	24902.8	24012.9
953.6276	2249.3271	24823.85	23935.85
953.7611	2250.7943	24739.8	23849.4
953.8945	2252.2608	24657.4	23767.1
954.0279	2253.7266	24570.85	23681.15
954.1612	2255.1917	24491.3	23601.6
954.2946	2256.656	24386.75	23495.3
954.4279	2258.1197	24309.35	23420.1
954.5612	2259.5826	24248.85	23358.2
954.6944	2261.0447	24212.6	23319.9
954.8276	2262.5062	24088.05	23194.1
954.9608	2263.9669	24065.55	23171.9
955.094	2265.4269	24016.6	23127.8
955.2271	2266.8862	23908.5	23018.75
955.3602	2268.3448	23842.05	22951.45
955.4933	2269.8026	23818.55	22925.65
955.6264	2271.2598	23711.25	22821.3
955.7594	2272.7162	23642.9	22751.15
955.8924	2274.1719	23554.8	22662.25
956.0253	2275.6268	23486.6	22595.8
956.1583	2277.0811	23437.9	22546.4
956.2912	2278.5346	23338.05	22448.95
956.4241	2279.9874	23288.1	22396
956.5569	2281.4395	23253.2	22363.3
956.6897	2282.8908	23181.4	22285.65
956.8225	2284.3414	23086.5	22193.65
956.9553	2285.7914	23035.05	22145.9
957.088	2287.2406	22914.75	22023.3
957.2207	2288.689	22891.1	22001.85
957.3534	2290.1368	22782.85	21891.5
957.486	2291.5838	22694.1	21800.35
957.6186	2293.0302	22632.65	21741.25
957.7512	2294.4758	22527.5	21635.2
957.8838	2295.9206	22435.4	21543.8
958.0163	2297.3648	22370.8	21480.2
958.1488	2298.8082	22355.75	21464.75
958.2813	2300.251	22294.05	21403.05
958.4137	2301.693	22220.85	21327.4
958.5461	2303.1343	22213.4	21323.55
958.6785	2304.5748	22090.85	21199.1
958.8108	2306.0147	22017.2	21125.2
958.9432	2307.4538	21967.2	21074.25
959.0754	2308.8922	21874.75	20986.3
959.2077	2310.3299	21815.05	20925.7
959.3399	2311.7669	21732.15	20840.4
959.4721	2313.2031	21669.75	20777.35
959.6043	2314.6387	21591.55	20700.3
959.7365	2316.0735	21500.6	20608.4
959.8686	2317.5076	21470.55	20579.95
960.0006	2318.941	21395.75	20503.75
960.1327	2320.3737	21294.4	20402.75
960.2647	2321.8056	21252.6	20359.65
960.3967	2323.2369	21199	20305.6
960.5287	2324.6674	21119.1	20227.35
960.6606	2326.0972	21053.35	20161.95
960.7925	2327.5263	20946.6	20056.75
960.9244	2328.9547	20885.7	19995.65
961.0562	2330.3823	20798.6	19907
961.1881	2331.8092	20802.05	19909.35
961.3198	2333.2355	20690.65	19796.9
961.4516	2334.661	20674.35	19781
961.5833	2336.0858	20613.75	19718.25
961.715	2337.5098	20536.5	19647.55
961.8467	2338.9332	20513.15	19620.8
961.9783	2340.3558	20393.1	19496.5
962.1099	2341.7778	20355	19464.25
962.2415	2343.199	20279.05	19387.1
962.373	2344.6195	20225.25	19334.2
962.5045	2346.0393	20161.45	19270.85
962.636	2347.4583	20069.1	19178.15
962.7675	2348.8767	20048.15	19155.25
962.8989	2350.2943	19974.25	19082
963.0303	2351.7113	19945.8	19051.6
963.1617	2353.1275	19862.25	18970.25
963.293	2354.543	19778.45	18880.4
963.4243	2355.9578	19708.2	18818.1
963.5556	2357.3718	19588.05	18699.1
963.6868	2358.7852	19505.95	18612.35
963.818	2360.1978	19477.55	18586.3
963.9492	2361.6098	19400.75	18510.85
964.0803	2363.021	19350.3	18456.75
964.2114	2364.4315	19230.5	18341.05
964.3425	2365.8413	19217.05	18326.45
964.4736	2367.2504	19126.45	18236.25
964.6046	2368.6587	19018.15	18127.3
964.7356	2370.0664	18972.1	18082.4
964.8666	2371.4733	18864.5	17973.6
964.9975	2372.8795	18838.95	17948.5
965.1284	2374.285	18766.85	17876.55
965.2593	2375.6899	18634.7	17744.7
965.3901	2377.0939	18580.65	17689.95
965.5209	2378.4973	18510.65	17620.7
965.6517	2379.9	18466.1	17576.25
965.7825	2381.3019	18401.7	17511
965.9132	2382.7032	18332.1	17443.3
966.0439	2384.1037	18322.45	17434.2
966.1745	2385.5035	18204.7	17316.2
966.3051	2386.9027	18154.15	17264.9
966.4357	2388.3011	18128.25	17235.1
966.5663	2389.6987	18046.5	17156.7
966.6968	2391.0957	17991.6	17102.85
966.8273	2392.492	17908.4	17019
966.9578	2393.8876	17782.3	16891.9
967.0882	2395.2824	17721.85	16830.8
967.2186	2396.6765	17657.5	16767.05
967.349	2398.07	17544.2	16655.65
967.4793	2399.4627	17571	16679.05
967.6097	2400.8547	17473.4	16583.25
967.7399	2402.246	17407.4	16510.75
967.8702	2403.6366	17301.85	16411
968.0004	2405.0265	17245	16355.55
968.1306	2406.4156	17142.65	16248
968.2607	2407.8041	17092	16199
968.3909	2409.1918	17044.25	16152.25
968.521	2410.5789	16952.2	16063.45
968.651	2411.9652	16906.8	16014.7
968.781	2413.3508	16849.7	15960.15
968.911	2414.7358	16735.9	15845.35
969.041	2416.12	16714.75	15824.55
969.1709	2417.5035	16688.2	15799.85
969.3008	2418.8863	16611.3	15721.1
969.4307	2420.2684	16561.95	15672.4
969.5606	2421.6497	16505.8	15614.95
969.6904	2423.0304	16357.15	15467.25
969.8201	2424.4104	16345.5	15454.3
969.9499	2425.7896	16278.5	15387.45
970.0796	2427.1682	16275.45	15387.05
970.2093	2428.546	16195	15303.7
970.3389	2429.9232	16173.2	15282.3
970.4685	2431.2996	16136.15	15247.15
970.5981	2432.6753	16095.2	15206.3
970.7277	2434.0503	16013.65	15122.9
970.8572	2435.4246	15917.65	15028.2
970.9867	2436.7982	15874.2	14980.95
971.1161	2438.1711	15854.6	14966.9
971.2456	2439.5433	15803.9	14913.3
971.375	2440.9148	15735.4	14839.05
971.5043	2442.2856	15656.7	14766.3
971.6336	2443.6557	15626.55	14734
971.7629	2445.025	15587.25	14697.5
971.8922	2446.3937	15499.1	14609.6
972.0214	2447.7617	15421.45	14531.25
972.1506	2449.1289	15414.3	14526.1
972.2798	2450.4955	15342.25	14450.7
972.4089	2451.8613	15305.05	14415.85
972.538	2453.2265	15286	14393.4
972.6671	2454.5909	15218.75	14326.4
972.7961	2455.9546	15207.1	14315.95
972.9251	2457.3177	15126.85	14238.35
973.0541	2458.68	15076.65	14186.1
973.1831	2460.0416	15043.95	14152.85
973.312	2461.4025	15070.05	14179.5
973.4408	2462.7627	14979.6	14077.8
973.5697	2464.1222	14950.7	14063.05
973.6985	2465.4811	14881.4	13990.9
973.8273	2466.8392	14819.65	13930
973.956	2468.1966	14797.25	13905.6
974.0847	2469.5533	14763.7	13872
974.2134	2470.9093	14721.7	13830.65
974.3421	2472.2645	14665.6	13773.95
974.4707	2473.6191	14609.1	13719.95
974.5993	2474.973	14547.5	13658.2
974.7278	2476.3262	14504.35	13612.55
974.8563	2477.6787	14450.95	13561.85
974.9848	2479.0305	14352	13462.05
975.1132	2480.3816	14322.55	13432.15
975.2417	2481.7319	14271.6	13382.05
975.37	2483.0816	14213.7	13324.7
975.4984	2484.4306	14160.95	13269.3
975.6267	2485.7789	14102.25	13211.85
975.755	2487.1264	14057.65	13166.95
975.8833	2488.4733	13998.95	13110.9
976.0115	2489.8195	13958.2	13052.35
976.1397	2491.165	13886.4	12990.95
976.2678	2492.5097	13858.85	12966.1
976.3959	2493.8538	13764.5	12875.95
976.524	2495.1972	13694.1	12804.95
976.6521	2496.5398	13665.5	12776.55
976.7801	2497.8818	13634.55	12743.3
976.9081	2499.2231	13590.8	12699.85
977.036	2500.5637	13515.55	12625.3
977.164	2501.9035	13468.6	12577.9
977.2918	2503.2427	13454.85	12560.7
977.4197	2504.5812	13367.15	12476.4
977.5475	2505.919	13378.45	12486.55
977.6753	2507.256	13364.9	12474.5
977.8031	2508.5924	13245.65	12356.9
977.9308	2509.9281	13192.15	12294.9
978.0585	2511.2631	13155.65	12267.35
978.1861	2512.5974	13131.5	12241.85
978.3137	2513.9309	13057.5	12167.7
978.4413	2515.2638	13021.35	12106.15
978.5689	2516.596	12999.4	12110.55
978.6964	2517.9275	12919.25	12027.8
978.8239	2519.2583	12869.2	11977.55
978.9513	2520.5884	12816.1	11925.4
979.0788	2521.9178	12786.75	11895.75
979.2062	2523.2465	12759.25	11868.7
979.3335	2524.5745	12698.35	11807.65
979.4608	2525.9018	12630.4	11741.2
979.5881	2527.2284	12614.1	11726.2
979.7154	2528.5543	12573.75	11684.2
979.8426	2529.8796	12541.1	11649.65
979.9698	2531.2041	12501.2	11608.85
980.0969	2532.5279	12482.45	11593.25
980.224	2533.851	12455.55	11565.95
980.3511	2535.1735	12429.9	11540.6
980.4781	2536.4952	12373.45	11483.9
980.6052	2537.8163	12349.6	11459.5
980.7321	2539.1366	12314	11423.45
980.8591	2540.4562	12261.2	11370.55
980.986	2541.7752	12246.1	11356.2
981.1129	2543.0935	12242.5	11353.05
981.2397	2544.411	12185.3	11293.25
981.3665	2545.7279	12143	11253.3
981.4933	2547.0441	12152.8	11262.25
981.62	2548.3596	12142.85	11250.25
981.7467	2549.6744	12078.1	11188
981.8734	2550.9885	12019.75	11120.75
982.0001	2552.3019	11995.2	11105.2
982.1267	2553.6146	11982	11089.2
982.2532	2554.9266	11934.1	11044.15
982.3798	2556.2379	11885.6	10994.35
982.5063	2557.5485	11835.45	10947.65
982.6327	2558.8585	11786.65	10889.3
982.7592	2560.1677	11836.45	10941.4
982.8856	2561.4762	11769.2	10878.85
983.0119	2562.7841	11721.5	10827.9
983.1383	2564.0913	11701.75	10812.65
983.2646	2565.3977	11696.05	10806.45
983.3908	2566.7035	11648.2	10757.95
983.517	2568.0086	11633.45	10742.55
983.6432	2569.313	11608.55	10717.55
983.7694	2570.6167	11574.95	10684.45
983.8955	2571.9197	11569.1	10679.95
984.0216	2573.222	11527.6	10634.2
984.1476	2574.5236	11480.15	10588.85
984.2737	2575.8246	11435.45	10541.8
984.3996	2577.1248	11430.95	10535.15
984.5256	2578.4244	11406.1	10516.15
984.6515	2579.7232	11392.1	10500.85
984.7774	2581.0214	11391.6	10477.4
984.9032	2582.3189	11351.7	10462.3
985.029	2583.6157	11304.4	10409.6
985.1548	2584.9118	11289.35	10398.2
985.2806	2586.2072	11246.9	10356.15
985.4063	2587.5019	11183.65	10293.3
985.5319	2588.7959	11181.2	10291.1
985.6576	2590.0893	11153.4	10260.25
985.7832	2591.3819	11126.4	10236.85
985.9087	2592.6739	11070.05	10179.3
986.0343	2593.9652	11032.15	10140.2
986.1597	2595.2557	11034.75	10145
986.2852	2596.5456	10943.25	10051.9
986.4106	2597.8348	10946.05	10056.4
986.536	2599.1234	10851.75	9963.6
986.6614	2600.4112	10854.65	9964.15
986.7867	2601.6983	10814.1	9918.9
986.912	2602.9848	10764.7	9875.9
987.0372	2604.2705	10728.55	9832.6
987.1624	2605.5556	10704.4	9814.55
987.2876	2606.84	10637.2	9747.8
987.4128	2608.1237	10593.35	9702.65
987.5379	2609.4067	10570.9	9680.85
987.6629	2610.689	10557	9656.2
987.788	2611.9707	10493.65	9598.8
987.913	2613.2516	10472.45	9578.1
988.0379	2614.5319	10430.5	9541.5
988.1629	2615.8115	10392.1	9502.1
988.2878	2617.0903	10317.15	9426.95
988.4126	2618.3685	10264.35	9372.25
988.5375	2619.6461	10267.95	9377.7
988.6622	2620.9229	10221.6	9329.55
988.787	2622.199	10203.5	9313.45
988.9117	2623.4745	10175.25	9283.4
989.0364	2624.7493	10157.45	9265.75
989.161	2626.0234	10103.8	9214.65
989.2857	2627.2968	10070.85	9180.6
989.4102	2628.5695	10016.25	9124.6
989.5348	2629.8415	9945	9055.95
989.6593	2631.1128	9928.15	9037.15
989.7837	2632.3835	9865.7	8977.15
989.9082	2633.6535	9820.35	8930.15
990.0326	2634.9228	9792.55	8903.3
990.1569	2636.1914	9787.05	8896.05
990.2812	2637.4593	9761.6	8871.1
990.4055	2638.7265	9715.15	8824.85
990.5298	2639.9931	9676.35	8785.9
990.654	2641.259	9669.65	8776.95
990.7782	2642.5242	9656	8764.95
990.9023	2643.7887	9594.5	8703.6
991.0264	2645.0525	9570.6	8681.2
991.1505	2646.3156	9528.8	8637.4
991.2745	2647.5781	9483.4	8593.35
991.3985	2648.8398	9446.15	8559.05
991.5225	2650.1009	9417.5	8519.15
991.6464	2651.3613	9399	8509.75
991.7703	2652.6211	9360.4	8471.2
991.8942	2653.8801	9352.15	8463.2
992.018	2655.1385	9315.35	8423.1
992.1418	2656.3961	9276.65	8385.65
992.2655	2657.6531	9284.65	8394.45
992.3892	2658.9094	9267.4	8378.6
992.5129	2660.1651	9206	8316.05
992.6366	2661.42	9212.25	8322.25
992.7602	2662.6743	9172.5	8279.95
992.8837	2663.9279	9141.5	8252.3
993.0073	2665.1808	9099.25	8208.1
993.1307	2666.433	9092.05	8200.15
993.2542	2667.6846	9053.15	8164.9
993.3776	2668.9354	9051.7	8156.9
993.501	2670.1856	9022.7	8129.7
993.6244	2671.4351	8990.5	8101.55
993.7477	2672.6839	8972.35	8081.25
993.8709	2673.9321	8909.6	8021.4
993.9942	2675.1795	8909.4	8019.95
994.1174	2676.4263	8880.1	7990.2
994.2405	2677.6724	8847.8	7958.8
994.3637	2678.9179	8836.35	7944.45
994.4868	2680.1626	8813.15	7924.3
994.6098	2681.4067	8792.55	7901.2
994.7328	2682.6501	8758.9	7867.8
994.8558	2683.8928	8715.15	7824.7
994.9788	2685.1348	8681.25	7792.75
995.1017	2686.3761	8645	7755.8
995.2245	2687.6168	8627.7	7739.65
995.3474	2688.8568	8603.9	7714.2
995.4702	2690.0961	8562.45	7674.2
995.5929	2691.3348	8530.4	7639.1
995.7156	2692.5727	8514.9	7623.8
995.8383	2693.81	8468.1	7575.25
995.961	2695.0466	8451.55	7562.5
996.0836	2696.2826	8428.1	7538.35
996.2062	2697.5178	8436.6	7544.5
996.3287	2698.7524	8401.7	7513.45
996.4512	2699.9863	8359.65	7468.9
996.5737	2701.2195	8318.55	7428.9
996.6961	2702.452	8319.25	7428.05
996.8185	2703.6839	8287.5	7395.75
996.9408	2704.9151	8267.65	7379.25
997.0631	2706.1456	8224.85	7334.9
997.1854	2707.3755	8200.95	7310.65
997.3077	2708.6046	8167.95	7278.05
997.4299	2709.8331	8172.7	7282.15
997.552	2711.0609	8136.9	7246.05
997.6742	2712.2881	8122.65	7233.45
997.7963	2713.5145	8091.9	7197.9
997.9183	2714.7403	8067.15	7178.35
998.0403	2715.9654	8030.85	7140
998.1623	2717.1899	8015.75	7109.45
998.2842	2718.4136	8023.35	7135.1
998.4062	2719.6367	7982.4	7092.1
998.528	2720.8591	7972.8	7079.1
998.6498	2722.0809	7942.3	7051.8
998.7716	2723.3019	7909.4	7016.15
998.8934	2724.5223	7899.5	7008.45
999.0151	2725.7421	7887.25	6995.1
999.1368	2726.9611	7870.15	6977.15
999.2584	2728.1795	7849.1	6954.35
999.38	2729.3972	7803.3	6913
999.5016	2730.6142	7764.2	6860.35
999.6231	2731.8306	7708.8	6816.05
999.7446	2733.0462	7671.75	6781.75
999.8661	2734.2612	7643.15	6748.3
999.9875	2735.4756	7568.5	6677.5
1000.1089	2736.6892	7543.8	6653.2
1000.2302	2737.9022	7500.3	6611.8
1000.3515	2739.1145	7460.45	6570.8
1000.4728	2740.3262	7439.4	6543.2
1000.594	2741.5372	7383.35	6494.55
1000.7152	2742.7475	7361.55	6472.55
1000.8363	2743.9571	7331.7	6440.2
1000.9575	2745.1661	7317	6422.55
1001.0785	2746.3744	7283.2	6390.35
1001.1996	2747.582	7244.45	6354
1001.3206	2748.7889	7216.25	6327.25
1001.4415	2749.9952	7191.85	6302.6
1001.5625	2751.2008	7156.45	6265.05
1001.6833	2752.4057	7139.55	6246.8
1001.8042	2753.61	7101.3	6210.9
1001.925	2754.8136	7083.05	6191.05
1002.0458	2756.0165	7057.95	6168.95
1002.1665	2757.2188	7034.8	6145.5
1002.2872	2758.4204	7006.75	6117.1
1002.4078	2759.6213	6996.15	6104
1002.5285	2760.8215	6973.1	6079
1002.649	2762.0211	6947.85	6056.05
1002.7696	2763.22	6921.95	6026
1002.8901	2764.4182	6902.3	6011.6
1003.0106	2765.6158	6878.8	5988.9
1003.131	2766.8127	6855.9	5966.4
1003.2514	2768.009	6834.4	5944.7
1003.3717	2769.2045	6790.6	5899.25
1003.492	2770.3994	6785	5890.45
1003.6123	2771.5936	6772.75	5882.05
1003.7325	2772.7872	6740.45	5851.6
1003.8527	2773.9801	6682.8	5793.6
1003.9729	2775.1723	6683.3	5777.95
1004.093	2776.3639	6666.75	5778.1
1004.2131	2777.5548	6649.45	5758.75
1004.3331	2778.745	6619.8	5728.65
1004.4531	2779.9346	6577.85	5687.55
1004.5731	2781.1235	6597.8	5706.6
1004.693	2782.3117	6583.9	5694.8
1004.8129	2783.4992	6540.95	5652.35
1004.9328	2784.6861	6510.95	5621
1005.0526	2785.8723	6503.45	5611.6
1005.1723	2787.0579	6477.75	5587.25
1005.2921	2788.2428	6463.9	5576.45
1005.4118	2789.427	6439.5	5550.35
1005.5314	2790.6106	6420.75	5531.3
1005.651	2791.7935	6395.75	5505.3
1005.7706	2792.9757	6405.3	5516.05
1005.8902	2794.1573	6402.15	5509.85
1006.0097	2795.3382	6393.4	5504.1
1006.1291	2796.5184	6384.05	5493.85
1006.2485	2797.698	6380.6	5489.2
1006.3679	2798.8769	6356.65	5467.7
1006.4873	2800.0551	6354.7	5465.85
1006.6066	2801.2327	6344.2	5451.5
1006.7258	2802.4096	6325.8	5436.4
1006.8451	2803.5859	6323.4	5434.25
1006.9642	2804.7615	6312.65	5422.95
1007.0834	2805.9364	6315	5426.7
1007.2025	2807.1106	6330.45	5441.3
1007.3216	2808.2842	6355.75	5466.95
1007.4406	2809.4572	6352.45	5462
1007.5596	2810.6294	6365.65	5476.1
1007.6785	2811.801	6371.85	5483.2
1007.7975	2812.972	6409.15	5519.8
1007.9163	2814.1423	6418.75	5529.35
1008.0352	2815.3119	6457.75	5566.4
1008.154	2816.4808	6474	5585.4
1008.2727	2817.6491	6517.9	5627.2
1008.3914	2818.8167	6537.85	5649.65
1008.5101	2819.9837	6581.5	5688.75
1008.6288	2821.15	6577.3	5688.35
1008.7474	2822.3157	6613.05	5724.85
1008.8659	2823.4807	6632.45	5743.4
1008.9844	2824.645	6685.35	5795.4
1009.1029	2825.8086	6709.25	5820.6
1009.2214	2826.9716	6742.95	5854.5
1009.3398	2828.134	6767.2	5878.15
1009.4581	2829.2957	6805.1	5916.2
1009.5764	2830.4567	6805.85	5918.1
1009.6947	2831.617	6806.3	5917.05
1009.813	2832.7767	6787.75	5900.1
1009.9312	2833.9358	6770.9	5881.65
1010.0493	2835.0941	6759	5868.55
1010.1675	2836.2519	6744.25	5855.1
1010.2855	2837.4089	6732.85	5843.4
1010.4036	2838.5653	6687.75	5798.6
1010.5216	2839.7211	6685.3	5798.4
1010.6396	2840.8761	6670.75	5782
1010.7575	2842.0306	6679.7	5791.3
1010.8754	2843.1843	6695.7	5805.4
1010.9932	2844.3374	6728.2	5839.4
1011.111	2845.4899	6770.35	5880.65
1011.2288	2846.6417	6852	5963
1011.3465	2847.7928	6884.15	5994.4
1011.4642	2848.9433	6940.65	6052.95
1011.5818	2850.0931	7004.7	6116.25
1011.6995	2851.2422	7077.15	6186.4
1011.817	2852.3907	7123.45	6233.65
1011.9345	2853.5385	7174.55	6283.4
1012.052	2854.6857	7230.85	6316.05
1012.1695	2855.8323	7257.75	6370.2
1012.2869	2856.9781	7256	6366.6
1012.4042	2858.1233	7307.4	6418.6
1012.5216	2859.2679	7308.8	6418.6
1012.6389	2860.4118	7348.85	6460.15
1012.7561	2861.555	7364.05	6467.55
1012.8733	2862.6976	7379.2	6487.55
1012.9905	2863.8395	7400.05	6512.2
1013.1076	2864.9808	7405.4	6516.7
1013.2247	2866.1214	7373.25	6485.65
1013.3417	2867.2614	7358.6	6469.5
1013.4587	2868.4007	7379.9	6488.25
1013.5757	2869.5393	7366.95	6475.75
1013.6926	2870.6773	7371.75	6481.05
1013.8095	2871.8146	7356.5	6463.55
1013.9263	2872.9513	7327.25	6436.5
1014.0431	2874.0874	7312.3	6422.95
1014.1599	2875.2227	7298.2	6407
1014.2766	2876.3574	7265.95	6375.65
1014.3933	2877.4915	7215.5	6328.7
1014.51	2878.6249	7185.2	6297.15
1014.6266	2879.7577	7140.7	6248.6
1014.7431	2880.8898	7117.2	6218.4
1014.8596	2882.0212	7074.25	6187.55
1014.9761	2883.152	7044	6155.35
1015.0925	2884.2821	6993.45	6106.2
1015.2089	2885.4116	6969.05	6080.65
1015.3253	2886.5405	6959.25	6073.45
1015.4416	2887.6686	6954.4	6062.85
1015.5579	2888.7962	6956.35	6066.7
1015.6741	2889.923	6949.45	6061.25
1015.7903	2891.0493	6929.7	6040.9
1015.9065	2892.1748	6912.45	6022.6
1016.0226	2893.2997	6895.45	6004.85
1016.1387	2894.424	6920.3	6031.15
1016.2547	2895.5476	6906.1	6018.25
1016.3707	2896.6706	6926.4	6039.7
1016.4866	2897.7929	6912.75	6024.15
1016.6025	2898.9145	6931.9	6040.95
1016.7184	2900.0355	6958.1	6067.7
1016.8342	2901.1559	6967.5	6076.8
1016.95	2902.2756	6974.95	6085.2
1017.0658	2903.3946	6978.7	6090
1017.1815	2904.513	7000.6	6107.95
1017.2971	2905.6308	7010.7	6122.1
1017.4127	2906.7479	7006.85	6119.2
1017.5283	2907.8643	7027.5	6136.9
1017.6439	2908.9801	7016.45	6128.2
1017.7594	2910.0953	7022.5	6131.9
1017.8748	2911.2098	6974.85	6081.7
1017.9902	2912.3236	6959.35	6062.7
1018.1056	2913.4368	6942.2	6049.7
1018.2209	2914.5494	6917.05	6027.6
1018.3362	2915.6613	6888	5995.2
1018.4515	2916.7725	6835.3	5941.45
1018.5667	2917.8831	6817.25	5928.1
1018.6819	2918.9931	6764.55	5872.9
1018.797	2920.1024	6717.7	5827.4
1018.9121	2921.211	6686.4	5798.1
1019.0271	2922.319	6675.35	5785.1
1019.1421	2923.4264	6645.85	5757.3
1019.2571	2924.5331	6619.9	5732.3
1019.372	2925.6391	6577	5687.85
1019.4869	2926.7445	6573.1	5685.25
1019.6017	2927.8493	6537.35	5647.1
1019.7165	2928.9534	6521.75	5633.45
1019.8313	2930.0569	6515.6	5625.85
1019.946	2931.1597	6470.9	5581.3
1020.0606	2932.2619	6460.9	5573.3
1020.1753	2933.3634	6457.45	5568.05
1020.2899	2934.4643	6429.15	5532.5
1020.4044	2935.5645	6420.1	5523.05
1020.5189	2936.6641	6369.65	5475.05
1020.6334	2937.763	6292.1	5405.05
1020.7478	2938.8613	6257	5368.75
1020.8622	2939.959	6186.9	5294.95
1020.9765	2941.056	6084.25	5196.8
1021.0908	2942.1523	5983.35	5092.6
1021.2051	2943.248	5932.7	5045.35
1021.3193	2944.3431	5821.7	4932.95
1021.4334	2945.4375	5697.45	4808.5
1021.5476	2946.5313	5594.9	4705.7
1021.6617	2947.6244	5486.55	4596.6
1021.7757	2948.7169	5378.75	4489.35
1021.8897	2949.8087	5275.4	4384.8
1022.0037	2950.8999	5183.2	4293.1
1022.1176	2951.9904	5080	4192.4
1022.2315	2953.0803	4999.45	4108.75
1022.3453	2954.1696	4919.4	4032.85
1022.4591	2955.2582	4851.65	3966.05
1022.5728	2956.3462	4819.4	3929.35
1022.6865	2957.4335	4779.75	3888.95
1022.8002	2958.5202	4725.65	3833.35
1022.9138	2959.6062	4688.3	3798.85
1023.0274	2960.6916	4631.5	3743.95
1023.141	2961.7764	4594.5	3703.75
1023.2545	2962.8605	4582.8	3694.25
1023.3679	2963.9439	4580.85	3692.7
1023.4813	2965.0267	4528.85	3641.35
1023.5947	2966.1089	4529.95	3616.3
1023.708	2967.1905	4496.6	3605.4
1023.8213	2968.2714	4474.75	3587.2
1023.9346	2969.3516	4453.45	3566.05
1024.0478	2970.4312	4447.65	3552.55
1024.1609	2971.5102	4440.35	3552.05
1024.274	2972.5885	4410.85	3521.75
1024.3871	2973.6662	4425.9	3532.75
1024.5002	2974.7432	4392	3504.05
1024.6132	2975.8196	4379.35	3490.65
1024.7261	2976.8954	4375.25	3488.25
1024.839	2977.9705	4347.9	3459.4
1024.9519	2979.045	4337.5	3449.15
1025.0647	2980.1188	4296.8	3408.85
1025.1775	2981.192	4255.3	3365.2
1025.2902	2982.2645	4231.1	3343.9
1025.4029	2983.3364	4195.6	3307.7
1025.5156	2984.4077	4153.35	3266.6
1025.6282	2985.4783	4134.65	3241.95
1025.7407	2986.5483	4073.95	3185.75
1025.8532	2987.6177	4048	3160
1025.9657	2988.6864	4017.95	3127.2
1026.0782	2989.7545	3967.75	3078.5
1026.1906	2990.8219	3927.15	3038.75
1026.3029	2991.8887	3866.65	2976.65
1026.4152	2992.9548	3849.2	2960.65
1026.5275	2994.0204	3806.9	2918.6
1026.6397	2995.0852	3764.25	2876.75
1026.7519	2996.1495	3732.25	2842
1026.864	2997.2131	3702.15	2813.75
1026.9761	2998.276	3677.7	2790.25
1027.0882	2999.3383	3650.45	2761.05
1027.2002	3000.4	3616.65	2727.15
1027.3122	3001.4611	3592.85	2702.6
1027.4241	3002.5215	3573.95	2685.85
1027.536	3003.5812	3534.9	2646.6
1027.6478	3004.6404	3535.65	2647.3
1027.7596	3005.6989	3527.45	2634.55
1027.8714	3006.7567	3505.5	2615.8
1027.9831	3007.8139	3497.9	2587.15
1028.0947	3008.8705	3464.25	2575.1
1028.2064	3009.9264	3470	2577.45
1028.3179	3010.9818	3446.85	2558.65
1028.4295	3012.0364	3436	2547.15
1028.541	3013.0905	3404.35	2517.65
1028.6524	3014.1439	3388.65	2502.45
1028.7638	3015.1966	3391.05	2501.45
1028.8752	3016.2487	3375	2485.75
1028.9865	3017.3002	3386	2490.75
1029.0978	3018.3511	3366.95	2478.9
1029.209	3019.4013	3366.05	2477.9
1029.3202	3020.4509	3349.5	2461.05
1029.4314	3021.4998	3344.7	2454.5
1029.5425	3022.5481	3332	2443
1029.6535	3023.5958	3327.2	2439.85
1029.7645	3024.6428	3321.35	2431.25
1029.8755	3025.6892	3313.5	2426.55
1029.9864	3026.735	3307.25	2420.8
1030.0973	3027.7802	3293.55	2404.55
1030.2082	3028.8247	3275.15	2386
1030.319	3029.8685	3265.2	2376.85
1030.4297	3030.9118	3272.7	2383.45
1030.5404	3031.9544	3258.35	2370.55
1030.6511	3032.9963	3255.1	2368.4
1030.7617	3034.0376	3243.75	2355.7
1030.8723	3035.0783	3245.1	2354.8
1030.9829	3036.1184	3242.6	2353.15
1031.0934	3037.1578	3240	2352.55
1031.2038	3038.1966	3232.1	2343.6
1031.3142	3039.2348	3232.25	2344.9
1031.4246	3040.2723	3211.5	2315
1031.5349	3041.3092	3199.6	2310.55
1031.6452	3042.3455	3190.95	2303.3
1031.7554	3043.3811	3181.35	2294
1031.8656	3044.4161	3159.25	2268.85
1031.9758	3045.4505	3158.25	2269.85
1032.0859	3046.4842	3138.5	2250
1032.1959	3047.5173	3117.95	2230.05
1032.3059	3048.5498	3116.6	2228.8
1032.4159	3049.5816	3112	2225.4
1032.5258	3050.6128	3099.85	2210.85
1032.6357	3051.6434	3097.65	2207.25
1032.7455	3052.6734	3073.05	2185
1032.8553	3053.7027	3063.55	2174.2
1032.9651	3054.7314	3048.05	2159.85
1033.0748	3055.7594	3024.4	2138.25
1033.1845	3056.7868	3025.2	2137.4
1033.2941	3057.8136	3010.3	2122.65
1033.4037	3058.8398	2993.95	2105.45
1033.5132	3059.8653	2977.9	2090.65
1033.6227	3060.8902	2971.25	2081.65
1033.7321	3061.9145	2951.05	2062.95
1033.8415	3062.9381	2943.3	2054.3
1033.9509	3063.9612	2943.4	2041.05
1034.0602	3064.9835	2931.8	2043.15
1034.1694	3066.0053	2908.85	2019.15
1034.2787	3067.0264	2900	2011.85
1034.3878	3068.0469	2881.3	1992.05
1034.497	3069.0668	2867.5	1975.1
1034.6061	3070.086	2866.35	1976.6
1034.7151	3071.1046	2835.85	1946.9
1034.8241	3072.1226	2832.1	1942.85
1034.9331	3073.1399	2807.7	1918.25
1035.042	3074.1567	2791.45	1904.05
1035.1508	3075.1727	2785.5	1895.75
1035.2597	3076.1882	2758.15	1870.6
1035.3684	3077.203	2761	1874.55
1035.4772	3078.2173	2751.55	1862.95
1035.5859	3079.2308	2734.65	1842.75
1035.6945	3080.2438	2712.2	1821.95
1035.8031	3081.2561	2698.35	1809.15
1035.9117	3082.2678	2683.1	1795.15
1036.0202	3083.2789	2673.4	1784.9
1036.1286	3084.2893	2666.95	1779.2
1036.2371	3085.2991	2650.45	1760.45
1036.3454	3086.3083	2645.55	1752.7
1036.4538	3087.3169	2628.05	1738.45
1036.562	3088.3248	2620.85	1732.85
1036.6703	3089.3321	2607.3	1718.8
1036.7785	3090.3388	2595.5	1707.35
1036.8866	3091.3449	2570.25	1682.75
1036.9948	3092.3503	2565.1	1673.3
1037.1028	3093.3551	2562.4	1673.3
1037.2108	3094.3593	2554.5	1668.6
1037.3188	3095.3629	2543.2	1656.7
1037.4267	3096.3658	2533.55	1643.3
1037.5346	3097.3681	2526.9	1638.7
1037.6425	3098.3698	2522.65	1632.55
1037.7503	3099.3708	2516.55	1623.15
1037.858	3100.3713	2503.25	1614.75
1037.9657	3101.3711	2474.7	1587.2
1038.0734	3102.3702	2590	1560.8
1038.181	3103.3688	2481.9	1592.45
1038.2886	3104.3667	2462.35	1575.45
1038.3961	3105.364	2457.3	1571.55
1038.5036	3106.3607	2434.95	1544.65
1038.611	3107.3568	2430.45	1539.65
1038.7184	3108.3522	2423.45	1534.65
1038.8257	3109.347	2411.7	1523.15
1038.933	3110.3412	2411.2	1519.7
1039.0403	3111.3348	2385.05	1496.1
1039.1475	3112.3277	2386.75	1501.45
1039.2547	3113.32	2373.35	1489.05
1039.3618	3114.3117	2373.15	1483.2
1039.4689	3115.3028	2358.6	1472.3
1039.5759	3116.2932	2358.65	1468.75
1039.6829	3117.2831	2348.35	1453.85
1039.7898	3118.2723	2337.7	1448.45
1039.8967	3119.2608	2313.15	1428.35
1040.0035	3120.2488	2308.85	1421.95
1040.1103	3121.2361	2297.75	1409.85
1040.2171	3122.2229	2294.55	1405.05
1040.3238	3123.209	2290.1	1402
1040.4305	3124.1944	2279.55	1392.35
1040.5371	3125.1793	2281.15	1392.5
1040.6437	3126.1635	2251.05	1363.5
1040.7502	3127.1471	2265.95	1378.75
1040.8567	3128.1301	2242.75	1354.6
1040.9631	3129.1125	2235.2	1347.1
1041.0695	3130.0942	2240.2	1352.3
1041.1759	3131.0753	2235.7	1338.35
1041.2822	3132.0558	2231.25	1338.5
1041.3884	3133.0357	2219.2	1330.6
1041.4946	3134.015	2217.1	1328.75
1041.6008	3134.9936	2218.2	1329.15
1041.7069	3135.9716	2221.9	1311.55
1041.813	3136.949	2195.45	1307.9
1041.919	3137.9258	2202.35	1311.05
1042.025	3138.902	2180.35	1284.15
1042.1309	3139.8775	2171.2	1283.85
1042.2368	3140.8524	2168.3	1279.9
1042.3427	3141.8267	2163.05	1272.05
1042.4485	3142.8004	2164.7	1275.05
1042.5542	3143.7735	2162.15	1267
1042.6599	3144.7459	2159.25	1268.2
1042.7656	3145.7178	2155.4	1266.5
1042.8712	3146.689	2145	1259.65
1042.9768	3147.6596	2127.8	1239.1
1043.0823	3148.6295	2133.25	1244.7
1043.1878	3149.5989	2116.8	1228.9
1043.2932	3150.5676	2108.2	1221.05
1043.3986	3151.5357	2100.15	1213.6
1043.5039	3152.5032	2101.05	1212.15
1043.6092	3153.4701	2089.55	1200.5
1043.7145	3154.4364	2084	1192.6
1043.8197	3155.402	2072.9	1184.7
1043.9248	3156.367	2061.45	1172.55
1044.03	3157.3315	2100.3	1167.35
1044.135	3158.2952	2057.9	1169.7
1044.24	3159.2584	2050.9	1165.15
1044.345	3160.221	2047.35	1159.95
1044.4499	3161.1829	2027.15	1139.35
1044.5548	3162.1442	2025.8	1137.8
1044.6596	3163.105	2022.25	1131.9
1044.7644	3164.065	2014.9	1125.85
1044.8692	3165.0245	2016.95	1126.75
1044.9739	3165.9834	2013	1125.65
1045.0785	3166.9416	1989.55	1101.5
1045.1831	3167.8993	1982	1093.25
1045.2877	3168.8563	1982.1	1093.7
1045.3922	3169.8127	1969.35	1081.35
1045.4966	3170.7684	1975.55	1088.8
1045.6011	3171.7236	1969.4	1079.45
1045.7054	3172.6782	1960.9	1071.9
1045.8098	3173.6321	1952.9	1063.75
1045.914	3174.5854	1949.7	1057.4
1046.0183	3175.5381	1950.35	1061.55
1046.1224	3176.4902	1934.25	1047.75
1046.2266	3177.4417	1929.4	1040.75
1046.3307	3178.3926	1927.8	1041.05
1046.4347	3179.3428	1918	1029.4
1046.5387	3180.2924	1913.95	1026.25
1046.6427	3181.2415	1906	1018.4
1046.7466	3182.1899	1899.7	1010.55
1046.8504	3183.1377	1902.25	1016.2
1046.9542	3184.0848	1893.65	1003.65
1047.058	3185.0314	1878.95	992.15
1047.1617	3185.9773	1876.15	990.4
1047.2654	3186.9227	1880.65	993.55
1047.369	3187.8674	1873.1	984
1047.4726	3188.8115	1869.3	977.75
1047.5761	3189.755	1859.55	972.25
1047.6796	3190.6979	1851	964.4
1047.783	3191.6402	1851.1	964.45
1047.8864	3192.5818	1849.65	962.4
1047.9898	3193.5229	1861	946.4
1048.0931	3194.4633	1833.1	943.85
1048.1963	3195.4031	1832.9	945.95
1048.2995	3196.3423	1831.05	944.5
1048.4027	3197.2809	1827.45	938.85
1048.5058	3198.2189	1826.35	939.65
1048.6089	3199.1563	1811.6	918.25
1048.7119	3200.0931	1809.05	922.1
1048.8148	3201.0292	1797.8	911.5
1048.9178	3201.9648	1802.35	912.7
1049.0206	3202.8997	1802.4	911.9
1049.1235	3203.834	1789.9	902.05
1049.2262	3204.7677	1783.75	896.8
1049.329	3205.7008	1771.8	881.85
1049.4317	3206.6333	1774.45	887.8
1049.5343	3207.5652	1772.15	882.45
1049.6369	3208.4964	1765.95	878.75
1049.7394	3209.4271	1767.15	879.8
1049.8419	3210.3571	1743.1	855.5
1049.9444	3211.2865	1758	869.5
1050.0468	3212.2154	1753	865.9
1050.1491	3213.1436	1748.6	857.8
1050.2514	3214.0712	1744.1	851.45
1050.3537	3214.9982	1744.65	857.5
1050.4559	3215.9246	1737.05	848.75
1050.5581	3216.8503	1727.1	839.3
1050.6602	3217.7755	1727.45	838.75
1050.7623	3218.7001	1715.55	827.45
1050.8643	3219.624	1711.45	824.15
1050.9663	3220.5473	1711.45	823.6
1051.0682	3221.4701	1698.4	809.2
1051.1701	3222.3922	1697.45	806.6
1051.2719	3223.3137	1699.5	811.25
1051.3737	3224.2346	1687.25	798.4
1051.4754	3225.1549	1690.2	802.7
1051.5771	3226.0746	1683.8	797.7
1051.6788	3226.9937	1675.6	787.1
1051.7804	3227.9121	1687.9	803.95
1051.8819	3228.83	1673.35	786.95
1051.9834	3229.7473	1668.15	777.8
1052.0849	3230.6639	1664.05	777.15
1052.1863	3231.5799	1666.85	779.4
1052.2876	3232.4954	1659.65	771.8
1052.3889	3233.4102	1651	763.25
1052.4902	3234.3244	1648.45	760.8
1052.5914	3235.238	1638.6	751.75
1052.6926	3236.151	1667.6	754.15
1052.7937	3237.0634	1627.9	740.4
1052.8948	3237.9752	1634.2	746.7
1052.9958	3238.8864	1625.05	735.65
1053.0968	3239.797	1616.8	729.55
1053.1977	3240.7069	1616.5	728.7
1053.2986	3241.6163	1602.75	714.4
1053.3994	3242.5251	1600.7	714.2
1053.5002	3243.4332	1603.9	716.2
1053.6009	3244.3408	1601.55	713.25
1053.7016	3245.2477	1584.55	697.7
1053.8022	3246.154	1586.35	697.8
1053.9028	3247.0598	1579.65	692.35
1054.0034	3247.9649	1580.75	692.9
1054.1039	3248.8694	1575.95	687.45
1054.2043	3249.7733	1566.7	678.55
1054.3047	3250.6766	1564.4	676.45
1054.4051	3251.5793	1565.05	676.8
1054.5054	3252.4814	1556.5	671.75
1054.6056	3253.3829	1558	673.7
1054.7058	3254.2838	1548.45	661.55
1054.806	3255.1841	1548.8	661.4
1054.9061	3256.0838	1539.35	652.9
1055.0061	3256.9829	1531.35	643.85
1055.1062	3257.8814	1530.95	641.25
1055.2061	3258.7792	1525.05	635.5
1055.306	3259.6765	1521.6	633.85
1055.4059	3260.5731	1514.5	626.9
1055.5057	3261.4692	1511.65	623.7
1055.6055	3262.3647	1498.8	609.65
1055.7052	3263.2595	1493.35	606.95
1055.8049	3264.1538	1481.6	594.3
1055.9045	3265.0474	1476.1	588
1056.0041	3265.9404	1458.35	571.6
1056.1036	3266.8329	1451.6	567.1
1056.2031	3267.7247	1444.95	549.2
1056.3025	3268.616	1429.35	542.25
1056.4019	3269.5066	1419.1	531.35
1056.5013	3270.3966	1404.8	513.95
1056.6005	3271.286	1381.3	496.6
