Software Version:	3.9.2.0
Unit SN:	10000200
Spectrometer SN:	6960
Date:	3/6/2024 9:53:20 AM
Data Line Index:	25
Spectral Points:	2048
Integration time (ms):	125
Averages:	20
Delay (ms):	30
Sequence Number:	1
Processing:	dark subtract
Laser Power (mW):	305
Laser Current (mA):	825
Laser Diode Temp (C):	25.1
Laser Case Temp (C):	24.5
System Temp (C):	24.2
Spectrometer Temp (C):	21.9
CCD Temp (C):	-0.008
Secondary Temp (C):	20.008
Heatsink Temp (C):	18.277
CCDPCB Temp (C):	31.116
SecondaryPCB Temp (C):	26.191

Wavelength	RamanShift	Raw Counts	Dark Subtracted
787.061	30.1047	439.85	32.55
787.2016	32.3739	438.2	33.2
787.3422	34.6426	441.45	35.15
787.4828	36.9109	446.75	38.7
787.6235	39.1787	451.2	37.95
787.7642	41.4461	456.45	39.5
787.9049	43.7131	464.4	45.15
788.0456	45.9796	468.35	45.25
788.1863	48.2456	477.6	50.7
788.3271	50.5112	484.3	52.5
788.4679	52.7764	489.35	56.7
788.6087	55.0411	494.3	56.3
788.7496	57.3054	503.2	60.85
788.8904	59.5692	511.75	67.25
789.0313	61.8326	518.75	73.15
789.1722	64.0955	522.25	72.5
789.3132	66.3579	534.8	77.65
789.4541	68.6199	545.05	88
789.5951	70.8815	569.8	106.05
789.7361	73.1426	605.1	137.95
789.8771	75.4032	696.2	224.05
790.0181	77.6634	915.15	439.25
790.1592	79.9231	1441.75	962.55
790.3003	82.1824	2553	2064.05
790.4414	84.4412	4471.35	3966.4
790.5825	86.6995	7104.35	6581.8
790.7237	88.9574	9673.8	9134.75
790.8648	91.2148	11598.65	11050.5
791.006	93.4717	12669.6	12114.3
791.1472	95.7282	13134.05	12574.15
791.2885	97.9842	13398.3	12835.75
791.4297	100.2398	13467	12903.15
791.571	102.4949	13498.7	12928.1
791.7123	104.7495	13500.3	12924.55
791.8536	107.0036	13512.7	12939.65
791.9949	109.2573	13490.35	12919.85
792.1363	111.5105	13497.5	12924.7
792.2777	113.7632	13474	12897.5
792.4191	116.0154	13476.05	12888.05
792.5605	118.2672	13503	12921.6
792.7019	120.5185	13489.75	12905.75
792.8434	122.7693	13513.5	12927.15
792.9849	125.0197	13528.8	12936.7
793.1264	127.2696	13529.05	12931.85
793.2679	129.519	13589.3	12990.25
793.4094	131.7679	13621.2	13018.6
793.551	134.0163	13638.4	13036.85
793.6926	136.2642	13679.75	13072.8
793.8342	138.5117	13685.35	13076.1
793.9758	140.7587	13702.8	13091.25
794.1175	143.0052	13682.2	13070.15
794.2591	145.2512	13640.8	13027.55
794.4008	147.4967	13637.65	13024.4
794.5425	149.7417	13646.1	13028.05
794.6842	151.9863	13598.2	12978
794.826	154.2304	13637.4	13009.8
794.9677	156.4739	13619.5	12987.75
795.1095	158.717	13650.3	13016.05
795.2513	160.9596	13659.45	13022.75
795.3931	163.2017	13663.05	13022.95
795.535	165.4433	13655.35	13011.65
795.6768	167.6844	13670.65	13025.4
795.8187	169.925	13681.45	13036.2
795.9606	172.1651	13615.15	12964.95
796.1025	174.4047	13626.05	12977.4
796.2445	176.6439	13630.75	12978.35
796.3864	178.8825	13636.95	12980.55
796.5284	181.1206	13640.6	12980
796.6704	183.3582	13650.45	12984.45
796.8124	185.5954	13668.75	13006.25
796.9544	187.832	13704.35	13034.05
797.0965	190.0681	13711.95	13041.9
797.2386	192.3037	13723.75	13046.45
797.3806	194.5388	13742.7	13065.2
797.5228	196.7734	13775.95	13093.5
797.6649	199.0075	13801.75	13118.5
797.807	201.2411	13853.75	13170.25
797.9492	203.4742	13873.75	13189.7
798.0914	205.7068	13961.75	13273.3
798.2336	207.9389	13948.55	13259.75
798.3758	210.1704	13975.85	13289.2
798.518	212.4015	13932.15	13253.8
798.6603	214.632	13986.3	13314.75
798.8025	216.862	13997.2	13329.6
798.9448	219.0915	14010.1	13337.85
799.0871	221.3205	14026.45	13350.75
799.2294	223.549	14062	13395.05
799.3718	225.777	14087.5	13418.35
799.5141	228.0044	14113.65	13437.05
799.6565	230.2314	14132.25	13452.7
799.7989	232.4578	14121.9	13442.7
799.9413	234.6837	14124.3	13435
800.0837	236.909	14180	13488.95
800.2262	239.1339	14188.25	13474.1
800.3687	241.3582	14189.95	13489.5
800.5111	243.582	14178.75	13445.5
800.6536	245.8053	14206	13487.55
800.7961	248.0281	14187.1	13474.95
800.9387	250.2503	14210.5	13490.15
801.0812	252.472	14240.45	13520.05
801.2238	254.6932	14239.3	13522.85
801.3664	256.9139	14202.55	13481.45
801.509	259.134	14240.45	13515.6
801.6516	261.3536	14257.6	13532.35
801.7942	263.5727	14311.4	13582.4
801.9369	265.7912	14272	13548.5
802.0795	268.0092	14318.9	13591.1
802.2222	270.2267	14350.05	13627.2
802.3649	272.4436	14376.65	13647.95
802.5076	274.6601	14371	13630.45
802.6504	276.8759	14354.6	13620.4
802.7931	279.0913	14372.55	13634.35
802.9359	281.3061	14390.65	13655.15
803.0787	283.5204	14426.65	13688.15
803.2215	285.7341	14459.9	13717.95
803.3643	287.9473	14470.7	13717
803.5071	290.16	14458.1	13711.55
803.6499	292.3721	14425.1	13685.2
803.7928	294.5837	14436.45	13692.1
803.9357	296.7947	14391.05	13647.65
804.0786	299.0052	14400.4	13659.1
804.2215	301.2152	14361.85	13616.9
804.3644	303.4246	14362.75	13618.1
804.5074	305.6334	14365.25	13621.9
804.6503	307.8418	14343	13592.9
804.7933	310.0495	14356.7	13606.25
804.9363	312.2568	14307.4	13558.4
805.0793	314.4635	14267.3	13516.9
805.2223	316.6696	14215	13458.9
805.3653	318.8752	14170.85	13407.6
805.5084	321.0802	14168.2	13412.7
805.6514	323.2847	14152.35	13395.1
805.7945	325.4887	14145.25	13386.65
805.9376	327.692	14150.1	13391.6
806.0807	329.8949	14181.6	13421.45
806.2238	332.0972	14184.45	13419.95
806.367	334.2989	14209.15	13443.55
806.5101	336.5001	14184.5	13418.35
806.6533	338.7007	14225.35	13459.55
806.7965	340.9008	14216.15	13446.05
806.9397	343.1003	14144.55	13374.65
807.0829	345.2992	14180.6	13408.9
807.2261	347.4976	14116.4	13343.8
807.3693	349.6955	14099.55	13321.65
807.5126	351.8927	14147.15	13371.25
807.6559	354.0895	14111.45	13324
807.7991	356.2856	14094.7	13316.85
807.9424	358.4812	14059.85	13282.5
808.0857	360.6763	14091.85	13309.05
808.2291	362.8707	14043.75	13259.5
808.3724	365.0646	14082.55	13297.9
808.5158	367.258	14083.4	13295.35
808.6591	369.4508	14049.5	13258.3
808.8025	371.643	14056.15	13265.95
808.9459	373.8346	14038.55	13243.6
809.0893	376.0257	14022.4	13227.4
809.2327	378.2162	14013.05	13217.35
809.3762	380.4062	14018.45	13224.25
809.5196	382.5956	13949.45	13154
809.6631	384.7844	13959.15	13171.2
809.8066	386.9726	13905.4	13118.35
809.9501	389.1603	13878.75	13095.45
810.0936	391.3474	13891.85	13074.9
810.2371	393.5339	13875.8	13087.1
810.3806	395.7199	13789.75	13003.35
810.5241	397.9052	13815.25	13027.75
810.6677	400.09	13820.65	13032.65
810.8113	402.2743	13816.4	13024.55
810.9548	404.4579	13831.25	13040.8
811.0984	406.641	13864.95	13069.2
811.2421	408.8235	13872.45	13080.55
811.3857	411.0054	13885.45	13089.9
811.5293	413.1868	13995.75	13193.35
811.673	415.3675	14006.15	13202.6
811.8166	417.5477	13996.75	13189.85
811.9603	419.7273	13935.8	13126.65
812.104	421.9064	13837.85	13024.3
812.2477	424.0848	13786.2	12976.05
812.3914	426.2627	13756.75	12949.25
812.5351	428.4399	13703.65	12894.55
812.6788	430.6166	13641.75	12830.85
812.8226	432.7928	13612.55	12796.15
812.9663	434.9683	13550.05	12736.15
813.1101	437.1432	13545.05	12728.55
813.2539	439.3176	13495.7	12685.05
813.3977	441.4914	13440.5	12633.7
813.5415	443.6645	13415.25	12601.1
813.6853	445.8371	13365.9	12550
813.8291	448.0091	13318.8	12502.6
813.973	450.1806	13289.75	12475
814.1168	452.3514	13251.25	12433.4
814.2607	454.5216	13265.25	12440.85
814.4046	456.6913	13188.1	12367.6
814.5485	458.8603	13188.35	12374.2
814.6924	461.0288	13195.35	12380.65
814.8363	463.1967	13163.7	12347.8
814.9802	465.3639	13167.2	12348.6
815.1241	467.5306	13152.05	12335.4
815.2681	469.6967	13135.75	12319.7
815.412	471.8622	13071.05	12254.85
815.556	474.0271	13070.15	12254.2
815.7	476.1914	13074.35	12250.6
815.844	478.3551	13037.85	12213.65
815.988	480.5182	13066.25	12246.75
816.132	482.6807	13043.25	12226.45
816.276	484.8426	13046	12226.9
816.4201	487.0039	13065.9	12249.2
816.5641	489.1647	13114.15	12292.95
816.7082	491.3248	13115.2	12289.75
816.8522	493.4843	13103.05	12280.2
816.9963	495.6432	13094.6	12271.05
817.1404	497.8015	13076.05	12246.2
817.2845	499.9592	13084.75	12253.95
817.4286	502.1163	13052.8	12221.85
817.5727	504.2728	13019.4	12189.9
817.7168	506.4287	12982.75	12160.2
817.861	508.5839	12949.9	12124.2
818.0051	510.7386	12935.3	12107.8
818.1493	512.8927	12946.55	12115.7
818.2935	515.0461	12963.05	12129.65
818.4377	517.199	12963.95	12129.5
818.5818	519.3512	12921.15	12088.15
818.726	521.5029	12968	12133.2
818.8703	523.6539	12967.15	12132.1
819.0145	525.8043	12943.65	12109.35
819.1587	527.9541	12949.5	12112.35
819.303	530.1033	12897	12062
819.4472	532.2519	12863.4	12026.15
819.5915	534.3999	12819.8	11981.05
819.7357	536.5472	12834.95	12000.75
819.88	538.694	12806.1	11972.65
820.0243	540.8401	12856.65	12021.25
820.1686	542.9856	12847.5	12005.8
820.3129	545.1305	12816.1	11974.15
820.4572	547.2748	12847.35	12002.25
820.6016	549.4185	12814.55	11968.15
820.7459	551.5615	12805.3	11960.4
820.8902	553.704	12815.7	11969.15
821.0346	555.8458	12788.4	11947.5
821.1789	557.987	12793.65	11953.4
821.3233	560.1276	12799.6	11959.1
821.4677	562.2675	12795.9	11954.05
821.6121	564.4069	12782.1	11938.1
821.7565	566.5456	12785.8	11941.1
821.9009	568.6837	12798.5	11954.55
822.0453	570.8212	12740.5	11895.8
822.1897	572.958	12706.75	11858.6
822.3342	575.0942	12663.4	11817.45
822.4786	577.2299	12593	11748.75
822.6231	579.3648	12570.15	11730.4
822.7675	581.4992	12487.65	11652.6
822.912	583.6329	12458.25	11621.95
823.0565	585.766	12445.35	11606.8
823.201	587.8985	12415.1	11575.8
823.3454	590.0304	12403.75	11546.2
823.4899	592.1616	12402.75	11550.2
823.6345	594.2922	12356.2	11504
823.779	596.4222	12339.65	11485.95
823.9235	598.5515	12297.1	11445.5
824.068	600.6802	12243.9	11391.05
824.2126	602.8083	12175.4	11325.25
824.3571	604.9358	12177.1	11324.35
824.5017	607.0626	12128.25	11273.3
824.6462	609.1888	12131.4	11274.75
824.7908	611.3144	12125.9	11268.85
824.9354	613.4393	12126.05	11268.75
825.08	615.5636	12131.55	11273.25
825.2246	617.6873	12138.45	11280.15
825.3692	619.8103	12147.8	11289.7
825.5138	621.9327	12108.75	11249.3
825.6584	624.0544	12112.05	11259
825.803	626.1756	12082.7	11226.85
825.9477	628.2961	12051.95	11194.3
826.0923	630.4159	12008.95	11149.65
826.237	632.5351	12014.7	11156.65
826.3816	634.6537	11975.5	11116.7
826.5263	636.7716	11953.1	11088.05
826.6709	638.8889	11971.8	11107.85
826.8156	641.0056	11983.55	11117.55
826.9603	643.1216	11931.2	11066
827.105	645.237	11980.25	11113.85
827.2497	647.3518	11930.85	11072.4
827.3944	649.4659	11923.7	11068.25
827.5391	651.5793	11905	11049.15
827.6838	653.6922	11867.3	11011.2
827.8285	655.8043	11844.85	10984.65
827.9733	657.9159	11839.05	10977.95
828.118	660.0268	11812.8	10948.15
828.2627	662.137	11775.3	10911.2
828.4075	664.2466	11767.85	10900.3
828.5522	666.3556	11767.65	10902.95
828.697	668.4639	11727	10859.6
828.8418	670.5716	11725.1	10866.7
828.9865	672.6786	11716.95	10850.55
829.1313	674.785	11683.8	10814.65
829.2761	676.8907	11637.85	10771.35
829.4209	678.9958	11667.65	10804.75
829.5657	681.1002	11622.45	10756.35
829.7105	683.204	11619	10748.45
829.8553	685.3072	11589.15	10720.5
830.0001	687.4097	11567.3	10699.05
830.1449	689.5115	11596.1	10723.2
830.2898	691.6127	11593.25	10726.85
830.4346	693.7132	11533.6	10668.6
830.5794	695.8131	11550.8	10674.85
830.7243	697.9123	11566.15	10694.45
830.8691	700.0109	11509.1	10633.55
831.014	702.1089	11509.2	10637.7
831.1588	704.2061	11483.7	10611.7
831.3037	706.3028	11503.65	10629.9
831.4486	708.3987	11479.85	10607.35
831.5935	710.4941	11470.9	10599
831.7383	712.5887	11468.5	10594.75
831.8832	714.6827	11486.4	10612.6
832.0281	716.7761	11454.25	10582.2
832.173	718.8688	11454	10580.35
832.3179	720.9608	11435.3	10555.6
832.4628	723.0522	11436.5	10557.1
832.6077	725.1429	11401.75	10527.45
832.7527	727.233	11414.15	10539
832.8976	729.3224	11449.3	10575.25
833.0425	731.4112	11434	10556.2
833.1874	733.4993	11406.95	10528.45
833.3324	735.5867	11378.5	10501.4
833.4773	737.6735	11353.8	10474.55
833.6222	739.7596	11288.9	10409.8
833.7672	741.845	11286.2	10406.5
833.9122	743.9298	11244.4	10364.5
834.0571	746.014	11256.45	10380.1
834.2021	748.0974	11253.15	10371.4
834.347	750.1802	11246.15	10364.55
834.492	752.2624	11202.9	10322.2
834.637	754.3439	11160.65	10281.85
834.782	756.4247	11124.45	10237.1
834.9269	758.5048	11065	10187.7
835.0719	760.5843	11059.8	10177.85
835.2169	762.6631	11019.8	10138
835.3619	764.7413	11010.85	10130.4
835.5069	766.8188	11046.6	10161.15
835.6519	768.8956	11009.8	10126.9
835.7969	770.9718	11035.5	10156.8
835.9419	773.0473	10985	10105.1
836.0869	775.1221	10972.05	10087.85
836.232	777.1962	10923	10041
836.377	779.2697	10922.1	10037.45
836.522	781.3426	10947.55	10040.55
836.667	783.4147	10948.05	10064.25
836.8121	785.4862	10944.6	10061.6
836.9571	787.557	10870.9	9985.9
837.1021	789.6271	10838.7	9954
837.2472	791.6966	10748.1	9864.7
837.3922	793.7654	10697.7	9813.45
837.5373	795.8335	10665.35	9782.55
837.6823	797.901	10644.05	9760.25
837.8274	799.9678	10617.25	9730
837.9724	802.0339	10605.7	9721.35
838.1175	804.0993	10600.5	9701.2
838.2626	806.1641	10545.65	9659.2
838.4076	808.2282	10539.55	9654.75
838.5527	810.2916	10547.15	9659.55
838.6978	812.3544	10511.1	9629.5
838.8428	814.4164	10478.8	9591.5
838.9879	816.4778	10493	9606.2
839.133	818.5385	10455.3	9568.25
839.2781	820.5986	10463.8	9581.6
839.4232	822.658	10482.5	9593.05
839.5682	824.7166	10477.15	9592
839.7133	826.7747	10520	9630.35
839.8584	828.832	10509	9623.05
840.0035	830.8886	10475.95	9586.3
840.1486	832.9446	10506.2	9617.05
840.2937	834.9999	10481.15	9593.4
840.4388	837.0545	10438.05	9545.75
840.5839	839.1085	10388.4	9500.45
840.729	841.1618	10349.1	9458.05
840.8741	843.2143	10305.55	9417.9
841.0192	845.2662	10295	9407.35
841.1643	847.3175	10258.5	9369.45
841.3095	849.368	10233.1	9345.1
841.4546	851.4179	10221.85	9333.05
841.5997	853.467	10180.95	9289.65
841.7448	855.5155	10182.3	9293
841.8899	857.5633	10162	9270.3
842.0351	859.6105	10140.85	9249.5
842.1802	861.6569	10114.3	9225.65
842.3253	863.7027	10092.25	9201.85
842.4704	865.7478	10092.4	9198.7
842.6156	867.7922	10085.3	9195.85
842.7607	869.8359	10054.25	9163.25
842.9058	871.8789	10025.35	9129.3
843.0509	873.9212	10060.95	9137.1
843.1961	875.9629	9994.5	9103.9
843.3412	878.0039	9983.55	9089.55
843.4863	880.0441	9978.7	9088.7
843.6315	882.0837	9987.05	9095.25
843.7766	884.1226	9973.85	9083.25
843.9218	886.1609	9975.05	9083.15
844.0669	888.1984	10010.65	9119.3
844.212	890.2352	10045.45	9153.4
844.3572	892.2714	10012	9113.3
844.5023	894.3069	9996.95	9101.75
844.6475	896.3416	9940.95	9047.4
844.7926	898.3757	9927.6	9035.2
844.9377	900.4091	9932.45	9036.4
845.0829	902.4418	9910.8	9011
845.228	904.4739	9881.85	8984.85
845.3732	906.5052	9850.55	8953.4
845.5183	908.5358	9864.75	8968.7
845.6635	910.5658	9822	8924.7
845.8086	912.595	9791.8	8895.55
845.9538	914.6236	9754.45	8860.8
846.0989	916.6515	9747.95	8854.75
846.2441	918.6786	9719.5	8822.05
846.3892	920.7051	9697.45	8800.5
846.5344	922.7309	9682.55	8786.6
846.6795	924.756	9666.05	8771.25
846.8246	926.7804	9676.5	8781.25
846.9698	928.8041	9593.6	8696.5
847.1149	930.8272	9618.25	8722
847.2601	932.8495	9570.65	8673.05
847.4052	934.8711	9579.45	8682.4
847.5504	936.892	9512.5	8615.9
847.6955	938.9123	9511.4	8612.75
847.8407	940.9318	9512.25	8615.9
847.9858	942.9506	9465.35	8569.3
848.131	944.9688	9433.55	8535.3
848.2761	946.9862	9428.2	8529.2
848.4213	949.003	9361	8461.6
848.5664	951.019	9331.9	8437.75
848.7115	953.0344	9298.5	8401.25
848.8567	955.0491	9294.65	8396.5
849.0018	957.063	9297.35	8400.35
849.147	959.0763	9320.95	8423.05
849.2921	961.0888	9291.2	8392.3
849.4373	963.1007	9259.15	8363.05
849.5824	965.1119	9263.85	8371.1
849.7275	967.1223	9231.45	8339.75
849.8727	969.1321	9228.65	8338.6
850.0178	971.1412	9192.6	8301.25
850.1629	973.1495	9165.75	8266.6
850.3081	975.1572	9202.75	8273.35
850.4532	977.1641	9159.45	8260.2
850.5983	979.1704	9140.25	8240.75
850.7435	981.1759	9099.4	8199.75
850.8886	983.1808	9096.7	8197.85
851.0337	985.1849	9063.15	8156.2
851.1788	987.1884	9013.3	8111.05
851.324	989.1911	9042.75	8141.4
851.4691	991.1932	9018.45	8119.75
851.6142	993.1945	8980.65	8084.95
851.7593	995.1951	8935.55	8036.85
851.9045	997.1951	8930.25	8026.7
852.0496	999.1943	8904.7	8008.5
852.1947	1001.1928	8853.1	7953.95
852.3398	1003.1906	8844.85	7945.35
852.4849	1005.1877	8859.85	7957.4
852.63	1007.1841	8802.85	7903.35
852.7751	1009.1798	8777.7	7879.7
852.9202	1011.1748	8757.5	7858.75
853.0653	1013.1691	8752.9	7850.65
853.2104	1015.1627	8714.65	7815.65
853.3555	1017.1556	8643.15	7745.25
853.5006	1019.1477	8608.15	7708.05
853.6457	1021.1392	8571.2	7673
853.7908	1023.1299	8525.7	7627.6
853.9359	1025.12	8509.3	7613.5
854.081	1027.1093	8465.35	7575.6
854.2261	1029.0979	8431.25	7546
854.3712	1031.0859	8423.95	7533.75
854.5163	1033.0731	8423.35	7528.8
854.6613	1035.0596	8391.6	7497.2
854.8064	1037.0454	8354.1	7458.65
854.9515	1039.0304	8340.2	7442
855.0965	1041.0148	8299.25	7398.05
855.2416	1042.9985	8284.6	7381.6
855.3867	1044.9814	8258.4	7361.05
855.5317	1046.9636	8240.05	7339.15
855.6768	1048.9452	8191	7291.2
855.8219	1050.926	8205.35	7307.7
855.9669	1052.9061	8179.35	7279.95
856.112	1054.8855	8145.3	7247.05
856.257	1056.8642	8140.25	7240.45
856.4021	1058.8421	8156.25	7256.4
856.5471	1060.8194	8105.15	7204.5
856.6921	1062.7959	8091.55	7190.05
856.8372	1064.7717	8082.05	7179.6
856.9822	1066.7469	8077.1	7173.55
857.1272	1068.7213	8061.05	7159.85
857.2723	1070.695	8031.55	7131.15
857.4173	1072.6679	8023.25	7122.9
857.5623	1074.6402	8020.4	7121.3
857.7073	1076.6117	8029.75	7123.3
857.8523	1078.5826	7989.5	7087.45
857.9973	1080.5527	7950.9	7046.2
858.1423	1082.5221	7931.55	7031.15
858.2873	1084.4908	7901.55	6999.2
858.4323	1086.4587	7896.25	6996.25
858.5773	1088.426	7886.1	6986.75
858.7223	1090.3925	7833.55	6929.25
858.8673	1092.3584	7850.1	6949.95
859.0123	1094.3235	7802.45	6904.8
859.1573	1096.2879	7803.85	6902.1
859.3022	1098.2515	7776.25	6874.75
859.4472	1100.2145	7788	6887.8
859.5922	1102.1767	7783.85	6882.35
859.7371	1104.1382	7787.7	6887.6
859.8821	1106.099	7792.6	6890.3
860.027	1108.0591	7795.05	6895
860.172	1110.0185	7780.8	6879.4
860.3169	1111.9771	7777.7	6875.55
860.4619	1113.9351	7774.95	6872.9
860.6068	1115.8923	7762.7	6861.05
860.7517	1117.8488	7770.8	6869.9
860.8967	1119.8045	7709.85	6808.65
861.0416	1121.7596	7682.55	6782.3
861.1865	1123.7139	7627.15	6726.15
861.3314	1125.6675	7613.85	6710.75
861.4763	1127.6204	7581.45	6681
861.6212	1129.5726	7568.55	6662.55
861.7661	1131.524	7554.8	6653.05
861.911	1133.4748	7531.55	6631.45
862.0559	1135.4248	7499.95	6599.3
862.2008	1137.3741	7463.35	6563.5
862.3457	1139.3226	7438.2	6536.7
862.4905	1141.2705	7420.2	6519.65
862.6354	1143.2176	7409.55	6502.3
862.7803	1145.164	7391.35	6488.7
862.9251	1147.1097	7386.4	6487.7
863.07	1149.0546	7366.8	6462.5
863.2148	1150.9989	7339.05	6436.7
863.3597	1152.9424	7360.45	6458.35
863.5045	1154.8852	7328	6425.3
863.6493	1156.8272	7314.55	6412.45
863.7942	1158.7686	7318.05	6407.3
863.939	1160.7092	7277.5	6376.4
864.0838	1162.6491	7260.6	6357
864.2286	1164.5883	7258.35	6357.5
864.3734	1166.5267	7253.1	6351.15
864.5182	1168.4644	7245.9	6343.6
864.663	1170.4014	7243.95	6341.25
864.8078	1172.3377	7260.55	6360.4
864.9526	1174.2732	7270.3	6369.25
865.0974	1176.2081	7296.75	6393.3
865.2421	1178.1421	7341.15	6435.5
865.3869	1180.0755	7355.8	6454.95
865.5317	1182.0082	7371.15	6468.3
865.6764	1183.9401	7330.85	6427.35
865.8212	1185.8713	7279.6	6382.6
865.9659	1187.8017	7225.9	6328.4
866.1106	1189.7315	7175.4	6283.3
866.2554	1191.6605	7106.7	6212.15
866.4001	1193.5888	7081.8	6185.75
866.5448	1195.5163	7041.7	6144.8
866.6895	1197.4432	7014.05	6112.5
866.8342	1199.3693	6996.6	6096.05
866.9789	1201.2947	6978.25	6069.5
867.1236	1203.2193	6923.5	6020.95
867.2683	1205.1432	6927.3	6026.7
867.413	1207.0664	6905.3	6002.65
867.5576	1208.9889	6898.2	5993.5
867.7023	1210.9106	6869.65	5965.6
867.847	1212.8316	6850.35	5949.05
867.9916	1214.7519	6855	5945.75
868.1363	1216.6715	6821.65	5921.65
868.2809	1218.5903	6816.95	5917
868.4255	1220.5084	6815.75	5913.7
868.5701	1222.4257	6826.7	5924.5
868.7148	1224.3424	6788	5887.4
868.8594	1226.2583	6799.75	5894.7
869.004	1228.1735	6794.5	5892.8
869.1486	1230.0879	6764.65	5863.9
869.2932	1232.0016	6750.4	5849.15
869.4377	1233.9146	6763.95	5861.3
869.5823	1235.8269	6739.85	5838.15
869.7269	1237.7384	6733.35	5830.95
869.8715	1239.6492	6716.85	5815.8
870.016	1241.5592	6723.15	5819.65
870.1606	1243.4686	6717.85	5817.95
870.3051	1245.3772	6732.65	5829.85
870.4496	1247.285	6745.5	5841.7
870.5941	1249.1922	6777.5	5875.95
870.7387	1251.0986	6783.95	5883.6
870.8832	1253.0042	6824.8	5923.5
871.0277	1254.9092	6838.15	5936.5
871.1722	1256.8134	6851.15	5950.8
871.3167	1258.7169	6878.95	5976.6
871.4611	1260.6196	6852.65	5953.95
871.6056	1262.5216	6876.7	5975.4
871.7501	1264.4229	6838.55	5937.1
871.8945	1266.3234	6845.9	5943.8
872.039	1268.2232	6804.5	5900.7
872.1834	1270.1223	6773.45	5870.9
872.3278	1272.0207	6747.05	5847.85
872.4723	1273.9183	6713.4	5806.35
872.6167	1275.8151	6707.2	5806.15
872.7611	1277.7113	6719.6	5817.7
872.9055	1279.6067	6732.7	5832.85
873.0499	1281.5014	6795.95	5892.1
873.1943	1283.3953	6830.6	5928.1
873.3386	1285.2885	6907.9	6006.65
873.483	1287.181	6945.8	6045.3
873.6274	1289.0727	6960.4	6063.1
873.7717	1290.9637	6919.4	6019.8
873.9161	1292.854	6899.9	5999.55
874.0604	1294.7435	6860.45	5957.3
874.2047	1296.6323	6809.05	5907.5
874.349	1298.5204	6780.05	5874.7
874.4933	1300.4077	6751.05	5846.25
874.6376	1302.2943	6726.75	5824.1
874.7819	1304.1802	6686.5	5783.35
874.9262	1306.0653	6656.5	5752.7
875.0705	1307.9497	6620.75	5719.2
875.2147	1309.8333	6604.8	5703.9
875.359	1311.7162	6590.2	5686.9
875.5032	1313.5984	6577.95	5671.5
875.6475	1315.4798	6554.4	5653.05
875.7917	1317.3605	6542.65	5623.85
875.9359	1319.2405	6531.4	5628.15
876.0801	1321.1197	6496.1	5593.7
876.2243	1322.9982	6470.6	5564.45
876.3685	1324.876	6447.45	5544.9
876.5127	1326.753	6388.35	5486.65
876.6569	1328.6293	6351.25	5446.95
876.801	1330.5048	6325	5419.15
876.9452	1332.3796	6276.5	5373.3
877.0893	1334.2537	6283.9	5358.05
877.2335	1336.127	6233	5332.75
877.3776	1337.9996	6201.1	5295.45
877.5217	1339.8714	6199.8	5298.7
877.6658	1341.7426	6217.25	5271.5
877.8099	1343.6129	6176.85	5272.35
877.954	1345.4826	6152.75	5249.8
878.0981	1347.3515	6150.05	5244.8
878.2422	1349.2196	6129.7	5225.95
878.3862	1351.087	6128.25	5227.2
878.5303	1352.9537	6134.15	5232.6
878.6743	1354.8197	6104.4	5201.3
878.8184	1356.6849	6121.85	5218
878.9624	1358.5493	6112.3	5208.2
879.1064	1360.4131	6100.95	5198.05
879.2504	1362.276	6096.95	5194.8
879.3944	1364.1383	6100.6	5199.95
879.5384	1365.9998	6102.5	5195.3
879.6823	1367.8606	6093.55	5188.9
879.8263	1369.7206	6068.15	5163.45
879.9702	1371.5799	6066.25	5160.55
880.1142	1373.4384	6035.9	5133.15
880.2581	1375.2962	6021.8	5119.95
880.402	1377.1533	5970.8	5069.25
880.5459	1379.0096	5939.45	5038.5
880.6898	1380.8652	5911.6	5012.05
880.8337	1382.7201	5875.3	4975.75
880.9776	1384.5742	5848.6	4945.9
881.1215	1386.4275	5801.15	4899.6
881.2653	1388.2802	5778	4875.45
881.4092	1390.132	5765.95	4866.45
881.553	1391.9832	5769.65	4866.4
881.6968	1393.8336	5735.2	4831.9
881.8406	1395.6832	5715.15	4813.15
881.9844	1397.5322	5704.1	4801.25
882.1282	1399.3803	5674.2	4766.8
882.272	1401.2278	5638.8	4738.5
882.4158	1403.0745	5637	4734.15
882.5595	1404.9204	5613.9	4712.9
882.7033	1406.7656	5608.15	4706.95
882.847	1408.6101	5568.3	4663.95
882.9908	1410.4538	5565.5	4664.4
883.1345	1412.2968	5549.1	4648
883.2782	1414.139	5534.95	4632.9
883.4219	1415.9805	5525.05	4622.7
883.5656	1417.8213	5518	4610.9
883.7092	1419.6613	5500.6	4601.5
883.8529	1421.5006	5509.8	4608.55
883.9965	1423.3391	5491.65	4589
884.1402	1425.1769	5503.4	4599.9
884.2838	1427.0139	5528	4623.9
884.4274	1428.8502	5547.65	4646.55
884.571	1430.6858	5556.7	4654.15
884.7146	1432.5206	5560.1	4657
884.8582	1434.3547	5549.55	4648.4
885.0018	1436.188	5539.85	4639.05
885.1453	1438.0206	5547.35	4646.15
885.2889	1439.8524	5513.5	4611.75
885.4324	1441.6835	5488.55	4588.05
885.5759	1443.5139	5509.9	4607.45
885.7194	1445.3435	5470.4	4569.8
885.8629	1447.1724	5487.85	4589.1
886.0064	1449.0005	5477.7	4579.1
886.1499	1450.8279	5463.9	4560.3
886.2933	1452.6545	5457.75	4555.1
886.4368	1454.4804	5467.05	4568.4
886.5802	1456.3056	5439.1	4534.9
886.7237	1458.13	5401.2	4501.1
886.8671	1459.9536	5380.75	4478.75
887.0105	1461.7766	5370	4471.75
887.1539	1463.5987	5347.8	4445.85
887.2972	1465.4202	5320.35	4419.1
887.4406	1467.2409	5296.7	4395.45
887.584	1469.0608	5281.35	4381.5
887.7273	1470.88	5252.3	4352.55
887.8706	1472.6984	5247.3	4345.2
888.0139	1474.5161	5216.8	4313.45
888.1572	1476.3331	5203.35	4301.95
888.3005	1478.1493	5192.25	4290.5
888.4438	1479.9648	5178.6	4280.05
888.5871	1481.7795	5151	4250.15
888.7303	1483.5935	5163.55	4264.25
888.8736	1485.4067	5152.4	4252.05
889.0168	1487.2192	5157.4	4256.15
889.16	1489.031	5135.8	4233
889.3032	1490.842	5109	4207.1
889.4464	1492.6522	5113.3	4214.35
889.5896	1494.4618	5101.65	4198.3
889.7327	1496.2705	5094.95	4192.75
889.8759	1498.0785	5096.7	4197
890.019	1499.8858	5065.05	4162.55
890.1622	1501.6924	5063.3	4161.35
890.3053	1503.4981	5057.1	4155.65
890.4484	1505.3032	5043.5	4144.3
890.5914	1507.1075	5022.7	4124
890.7345	1508.911	5001	4099.7
890.8776	1510.7138	5002	4101.1
891.0206	1512.5159	4983.05	4084.05
891.1637	1514.3172	4954.45	4054.9
891.3067	1516.1178	4951.05	4054.4
891.4497	1517.9176	4944.55	4043.45
891.5927	1519.7166	4913.65	4014.8
891.7357	1521.515	4911.8	4005.4
891.8786	1523.3126	4889	3989.25
892.0216	1525.1094	4882.05	3984.85
892.1645	1526.9055	4847.85	3950.05
892.3074	1528.7008	4845.05	3948.95
892.4503	1530.4954	4817.2	3915.75
892.5932	1532.2893	4811.6	3914.5
892.7361	1534.0824	4794.9	3892.5
892.879	1535.8747	4768.35	3872.1
893.0218	1537.6663	4753	3853.5
893.1647	1539.4572	4747.05	3848.65
893.3075	1541.2473	4739.4	3841.45
893.4503	1543.0367	4725.5	3828.55
893.5931	1544.8253	4706.35	3802.35
893.7359	1546.6132	4713.95	3813.6
893.8787	1548.4003	4682.4	3775.75
894.0214	1550.1867	4700.85	3794.7
894.1642	1551.9723	4666.9	3766.15
894.3069	1553.7572	4658.3	3759.8
894.4496	1555.5414	4662.65	3765.4
894.5923	1557.3247	4664.25	3769.15
894.735	1559.1074	4656.75	3761.9
894.8777	1560.8893	4648.75	3755.8
895.0204	1562.6705	4656.6	3761.85
895.163	1564.4509	4666.2	3771.9
895.3056	1566.2305	4636.95	3742.9
895.4482	1568.0094	4641	3747.4
895.5908	1569.7876	4646.85	3752.7
895.7334	1571.565	4622.5	3729.6
895.876	1573.3417	4612.55	3718.45
896.0186	1575.1176	4606.7	3713.85
896.1611	1576.8928	4584.15	3691.45
896.3036	1578.6672	4586.3	3695.15
896.4461	1580.4409	4597.3	3706.1
896.5886	1582.2138	4588.7	3693.4
896.7311	1583.986	4591.55	3698.4
896.8736	1585.7575	4590.8	3698.1
897.0161	1587.5282	4586.2	3696.8
897.1585	1589.2981	4597	3707.4
897.3009	1591.0673	4580.5	3689.95
897.4433	1592.8358	4570.8	3679.8
897.5857	1594.6035	4571.7	3677.1
897.7281	1596.3704	4561.4	3668.25
897.8705	1598.1366	4527.25	3633.65
898.0128	1599.9021	4504.55	3614.2
898.1551	1601.6668	4492.15	3599.45
898.2975	1603.4308	4470.5	3577.4
898.4398	1605.194	4473.45	3577.15
898.5821	1606.9564	4466	3578.35
898.7243	1608.7182	4482.5	3592.65
898.8666	1610.4791	4500.4	3614.75
899.0088	1612.2394	4532.1	3646.9
899.1511	1613.9988	4552.35	3665
899.2933	1615.7576	4583.4	3693.4
899.4355	1617.5156	4593.55	3696.55
899.5776	1619.2728	4579.15	3685.2
899.7198	1621.0293	4518.3	3626.75
899.862	1622.785	4461.35	3566
900.0041	1624.54	4397.85	3506.85
900.1462	1626.2942	4336.55	3447.35
900.2883	1628.0477	4273.9	3381.9
900.4304	1629.8005	4224.4	3332.45
900.5725	1631.5525	4179.8	3290
900.7145	1633.3037	4173.75	3284.3
900.8566	1635.0542	4126.5	3237.35
900.9986	1636.804	4103.5	3215.4
901.1406	1638.553	4135.15	3165.15
901.2826	1640.3013	4067.25	3178
901.4245	1642.0488	4039.95	3150
901.5665	1643.7955	4015.85	3126
901.7085	1645.5416	4014.85	3126.7
901.8504	1647.2868	3989.3	3103.45
901.9923	1649.0313	3979.5	3088.6
902.1342	1650.7751	3971.45	3078.1
902.2761	1652.5181	3948.45	3059.35
902.4179	1654.2604	3936.2	3048.05
902.5598	1656.0019	3933.2	3046.25
902.7016	1657.7427	3924.35	3036.1
902.8434	1659.4828	3938.95	3050.05
902.9852	1661.222	3932.75	3043.85
903.127	1662.9606	3938.55	3049.1
903.2687	1664.6984	3942.9	3051.05
903.4105	1666.4354	3938.95	3045.9
903.5522	1668.1717	3901.55	3011.05
903.6939	1669.9072	3880.2	2989.8
903.8356	1671.642	3848	2954.65
903.9773	1673.3761	3826.25	2938.1
904.119	1675.1094	3801.2	2910.3
904.2606	1676.8419	3771.95	2884.05
904.4022	1678.5737	3755.55	2864.6
904.5439	1680.3048	3746.05	2853.85
904.6855	1682.0351	3721.9	2831.9
904.827	1683.7646	3702.05	2809.1
904.9686	1685.4934	3686.15	2796.95
905.1101	1687.2215	3678.15	2788.6
905.2517	1688.9488	3650.9	2760.4
905.3932	1690.6754	3647.35	2759.4
905.5347	1692.4012	3648.95	2759.75
905.6761	1694.1263	3641.2	2751.9
905.8176	1695.8506	3609.2	2717.5
905.9591	1697.5742	3597.8	2708.45
906.1005	1699.297	3597.4	2709.25
906.2419	1701.0191	3576.15	2689.5
906.3833	1702.7404	3565.05	2678.05
906.5246	1704.461	3545.7	2654.6
906.666	1706.1808	3533.2	2642.05
906.8073	1707.8999	3529.95	2640.75
906.9487	1709.6182	3519.8	2632.75
907.09	1711.3358	3524.3	2638.15
907.2313	1713.0527	3519.35	2635.6
907.3725	1714.7688	3483.15	2588.95
907.5138	1716.4841	3472.25	2581.1
907.655	1718.1987	3486.9	2593.9
907.7962	1719.9126	3465	2577.9
907.9374	1721.6257	3467.4	2577.85
908.0786	1723.338	3446.8	2558.9
908.2198	1725.0496	3434.45	2547.3
908.3609	1726.7605	3443	2553.05
908.502	1728.4706	3429.4	2542.05
908.6431	1730.18	3413.7	2524.3
908.7842	1731.8886	3399.85	2511.55
908.9253	1733.5964	3396.6	2502.85
909.0664	1735.3036	3403.1	2510.85
909.2074	1737.0099	3388.15	2500.5
909.3484	1738.7156	3378.25	2491.15
909.4894	1740.4204	3388.5	2499.8
909.6304	1742.1246	3375.25	2487.1
909.7714	1743.8279	3367.6	2481.5
909.9123	1745.5306	3366.8	2479.4
910.0532	1747.2325	3360.75	2476.7
910.1941	1748.9336	3353.95	2467.05
910.335	1750.634	3353.5	2462.55
910.4759	1752.3336	3353.9	2467.35
910.6168	1754.0325	3343.3	2459.5
910.7576	1755.7307	3331.9	2446.5
910.8984	1757.4281	3343.2	2454.8
911.0392	1759.1247	3352.35	2455.9
911.18	1760.8206	3327.9	2435.3
911.3208	1762.5158	3327.6	2434.9
911.4615	1764.2102	3317	2429.9
911.6022	1765.9039	3288.2	2402
911.7429	1767.5968	3319.4	2432.1
911.8836	1769.289	3285.95	2399.75
912.0243	1770.9804	3276.3	2387.95
912.1649	1772.6711	3277.45	2386.55
912.3056	1774.361	3292.1	2400.9
912.4462	1776.0502	3275.45	2387.55
912.5868	1777.7386	3275.45	2384.75
912.7274	1779.4263	3262.75	2376.3
912.8679	1781.1132	3239.8	2354
913.0084	1782.7994	3251.15	2364.95
913.149	1784.4849	3234.75	2350.7
913.2895	1786.1696	3242.8	2337.5
913.4299	1787.8535	3238.2	2353
913.5704	1789.5367	3225.05	2341.45
913.7108	1791.2192	3211.75	2326.75
913.8513	1792.9009	3244.35	2328.5
913.9917	1794.5818	3218.65	2328.35
914.132	1796.2621	3198.65	2313.05
914.2724	1797.9415	3198.85	2310.45
914.4128	1799.6202	3195.3	2309.15
914.5531	1801.2982	3182.1	2294.5
914.6934	1802.9755	3171.65	2283.95
914.8337	1804.6519	3165.35	2277.3
914.9739	1806.3277	3152.7	2267.2
915.1142	1808.0027	3154.35	2269.95
915.2544	1809.6769	3147.3	2263.65
915.3946	1811.3504	3146.45	2260.8
915.5348	1813.0231	3144.25	2260
915.675	1814.6951	3133.3	2247.95
915.8151	1816.3664	3130.95	2243.8
915.9553	1818.0369	3128.7	2242.4
916.0954	1819.7067	3108.9	2222.45
916.2355	1821.3757	3115.35	2226.45
916.3755	1823.044	3101.95	2216.1
916.5156	1824.7115	3083.25	2193.45
916.6556	1826.3783	3078.15	2190.1
916.7956	1828.0443	3085.9	2200.65
916.9356	1829.7096	3079.7	2193.4
917.0756	1831.3741	3084	2194.7
917.2155	1833.0379	3073.7	2187.4
917.3555	1834.701	3070.35	2183.45
917.4954	1836.3633	3064	2179.5
917.6353	1838.0248	3043.7	2156.15
917.7751	1839.6856	3035.8	2151.85
917.915	1841.3457	3049.75	2164.95
918.0548	1843.005	3028.95	2142.15
918.1946	1844.6636	3030.4	2145.8
918.3344	1846.3214	3026.05	2140.2
918.4742	1847.9785	3031.95	2145.25
918.6139	1849.6349	3015.1	2126.3
918.7537	1851.2904	3025.6	2129.5
918.8934	1852.9453	3003	2112.2
919.0331	1854.5994	2999.75	2107.6
919.1727	1856.2528	3006.6	2114.35
919.3124	1857.9054	2994.5	2107.15
919.452	1859.5572	2990.2	2103.8
919.5916	1861.2083	2989.15	2103.3
919.7312	1862.8587	2991.45	2102.15
919.8708	1864.5084	2980.5	2092.85
920.0103	1866.1572	2982.05	2094.55
920.1498	1867.8054	2972.9	2086.7
920.2893	1869.4528	2961.4	2074.75
920.4288	1871.0994	2949.7	2060.45
920.5683	1872.7453	2937.9	2050.25
920.7077	1874.3905	2944.3	2048.4
920.8471	1876.0349	2934.6	2046.25
920.9865	1877.6786	2940.15	2050.55
921.1259	1879.3215	2954.75	2067.3
921.2653	1880.9637	2947.3	2059.55
921.4046	1882.6051	2920.85	2034.2
921.5439	1884.2458	2919.8	2031
921.6832	1885.8858	2910.2	2022.45
921.8225	1887.525	2917.45	2028.05
921.9617	1889.1634	2903	2016.35
922.101	1890.8011	2893.05	2006.55
922.2402	1892.4381	2900.15	2011.45
922.3794	1894.0743	2893.1	2005.65
922.5185	1895.7098	2879.1	1992.45
922.6577	1897.3446	2872.25	1983.85
922.7968	1898.9786	2869.5	1978.6
922.9359	1900.6118	2870.65	1983.4
923.075	1902.2443	2862.15	1971.7
923.214	1903.8761	2863.95	1978.95
923.3531	1905.5071	2838.05	1950.65
923.4921	1907.1374	2839.6	1951.2
923.6311	1908.7669	2856.55	1969.7
923.77	1910.3957	2831.45	1944.25
923.909	1912.0237	2827.35	1939.1
924.0479	1913.651	2824.9	1938.05
924.1868	1915.2776	2807.7	1922.75
924.3257	1916.9034	2809.35	1923.05
924.4646	1918.5285	2794.55	1910.7
924.6034	1920.1528	2780.35	1892.9
924.7422	1921.7764	2773.8	1888.1
924.881	1923.3992	2797.05	1909.65
925.0198	1925.0213	2781.7	1894.05
925.1586	1926.6427	2761.3	1875.6
925.2973	1928.2633	2967.1	1836.35
925.436	1929.8832	2790.9	1898.65
925.5747	1931.5023	2746.55	1859.65
925.7134	1933.1207	2744.4	1859
925.852	1934.7383	2737	1850.6
925.9906	1936.3552	2732.35	1847.6
926.1292	1937.9714	2732.3	1844.6
926.2678	1939.5868	2727.1	1836.45
926.4064	1941.2015	2710.6	1823.7
926.5449	1942.8154	2712.1	1823.45
926.6834	1944.4286	2700.3	1812.4
926.8219	1946.041	2716.85	1808.9
926.9604	1947.6528	2696.4	1803.75
927.0988	1949.2637	2681.6	1795.5
927.2372	1950.8739	2687.55	1799.9
927.3756	1952.4834	2679.05	1792.2
927.514	1954.0921	2669.95	1781.8
927.6523	1955.7001	2673.65	1783.35
927.7907	1957.3074	2665.95	1780
927.929	1958.9139	2652.9	1768.05
928.0673	1960.5197	2652.6	1766.05
928.2055	1962.1247	2645.95	1761.8
928.3438	1963.729	2637.65	1752.55
928.482	1965.3325	2642.7	1734.9
928.6202	1966.9353	2619.65	1737.1
928.7584	1968.5374	2624.65	1737.3
928.8965	1970.1387	2609.95	1722.7
929.0346	1971.7393	2603.65	1718.35
929.1727	1973.3392	2602.7	1718.7
929.3108	1974.9383	2591.75	1708.15
929.4489	1976.5366	2575.7	1690.6
929.5869	1978.1342	2591.45	1708.5
929.7249	1979.7311	2589.8	1703.4
929.8629	1981.3273	2589.25	1705
930.0009	1982.9227	2579.35	1696.05
930.1388	1984.5173	2573.2	1687.9
930.2767	1986.1112	2556.65	1671.6
930.4146	1987.7044	2558.1	1676.35
930.5525	1989.2968	2562.05	1677.65
930.6904	1990.8885	2559.05	1673.4
930.8282	1992.4795	2549.2	1664.4
930.966	1994.0697	2544.05	1662.25
931.1038	1995.6592	2540.4	1658
931.2415	1997.2479	2541.9	1657.6
931.3793	1998.8359	2541.6	1659.2
931.517	2000.4232	2527.1	1646.45
931.6547	2002.0097	2515.75	1636.55
931.7923	2003.5955	2507.2	1624.35
931.93	2005.1805	2519.2	1633.95
932.0676	2006.7648	2516.85	1635.75
932.2052	2008.3484	2513.5	1631.05
932.3427	2009.9312	2504.7	1621
932.4803	2011.5133	2503.65	1625.4
932.6178	2013.0946	2504.15	1620.9
932.7553	2014.6752	2498.65	1618.4
932.8928	2016.2551	2490.6	1607.75
933.0302	2017.8342	2484.75	1602.55
933.1676	2019.4126	2474.85	1596.65
933.305	2020.9902	2472.6	1592.75
933.4424	2022.5672	2475.95	1593.8
933.5798	2024.1433	2488.55	1601.1
933.7171	2025.7188	2469.05	1590.55
933.8544	2027.2935	2458.05	1575.75
933.9917	2028.8674	2456.75	1575.4
934.129	2030.4406	2451.85	1572.15
934.2662	2032.0131	2439.15	1558
934.4034	2033.5849	2440.2	1552.85
934.5406	2035.1559	2436.65	1557.5
934.6778	2036.7261	2435.55	1554.65
934.8149	2038.2957	2434.35	1552.45
934.952	2039.8645	2437.25	1555.35
935.0891	2041.4325	2437.7	1552.2
935.2262	2042.9998	2435.7	1555.8
935.3632	2044.5664	2434.25	1554.5
935.5002	2046.1323	2427.1	1545.3
935.6372	2047.6974	2420.15	1539.55
935.7742	2049.2617	2410.2	1528.1
935.9111	2050.8254	2426.6	1538.55
936.048	2052.3883	2416.75	1534.7
936.1849	2053.9504	2405.65	1523.45
936.3218	2055.5118	2415.95	1534.65
936.4586	2057.0725	2396.4	1510.4
936.5955	2058.6325	2395.45	1513.5
936.7323	2060.1917	2383.8	1503.35
936.869	2061.7502	2391.85	1507.85
937.0058	2063.3079	2395.8	1516.5
937.1425	2064.8649	2387.1	1501.25
937.2792	2066.4212	2387.8	1504.7
937.4159	2067.9767	2376.3	1495
937.5525	2069.5315	2372.35	1491.15
937.6891	2071.0856	2368.15	1486.85
937.8257	2072.6389	2376.05	1494.45
937.9623	2074.1915	2351.45	1471.5
938.0989	2075.7433	2343.85	1461.3
938.2354	2077.2945	2344.05	1465.85
938.3719	2078.8448	2343.05	1461.75
938.5084	2080.3945	2345.2	1466.05
938.6448	2081.9434	2351.95	1469.9
938.7812	2083.4916	2345	1462.3
938.9176	2085.039	2331.5	1447
939.054	2086.5857	2334.45	1447.35
939.1903	2088.1317	2330.05	1446.2
939.3267	2089.677	2340.55	1455.95
939.463	2091.2215	2331.8	1449
939.5992	2092.7652	2323.55	1436.15
939.7355	2094.3083	2323.1	1440.8
939.8717	2095.8506	2324.5	1441.75
940.0079	2097.3921	2327.85	1445.8
940.1441	2098.933	2309.65	1426.1
940.2802	2100.4731	2313	1428.85
940.4163	2102.0124	2330.75	1431.05
940.5524	2103.5511	2321.3	1437.7
940.6885	2105.089	2312.55	1427.45
940.8245	2106.6261	2307.65	1425.9
940.9606	2108.1626	2294.45	1412
941.0965	2109.6983	2328.35	1415.45
941.2325	2111.2332	2313.3	1428.9
941.3684	2112.7675	2286.2	1401.15
941.5044	2114.301	2290.4	1405.55
941.6403	2115.8337	2287.05	1405.15
941.7761	2117.3657	2286.8	1404.8
941.912	2118.897	2279.65	1395.25
942.0478	2120.4276	2285.8	1395.65
942.1835	2121.9575	2273	1390.45
942.3193	2123.4866	2291.1	1394.4
942.455	2125.0149	2273.7	1386.45
942.5907	2126.5426	2260.6	1379.3
942.7264	2128.0695	2257.15	1369.1
942.8621	2129.5956	2259	1379.45
942.9977	2131.1211	2263.9	1378.85
943.1333	2132.6458	2255.05	1372.4
943.2689	2134.1698	2256.45	1373.1
943.4044	2135.693	2254.5	1367.65
943.54	2137.2155	2255.25	1369.9
943.6755	2138.7373	2237.75	1353.85
943.8109	2140.2584	2242.95	1360.95
943.9464	2141.7787	2231.65	1344.25
944.0818	2143.2983	2227.15	1346.8
944.2172	2144.8171	2216.45	1335.5
944.3526	2146.3353	2217.6	1333.15
944.4879	2147.8527	2214.9	1334.25
944.6232	2149.3693	2226.35	1343.7
944.7585	2150.8853	2213.8	1332.2
944.8938	2152.4005	2214.9	1331.8
945.029	2153.9149	2208.05	1323.7
945.1642	2155.4287	2210.05	1327.75
945.2994	2156.9417	2205.8	1323.7
945.4346	2158.454	2204	1318.4
945.5697	2159.9655	2201.05	1319.6
945.7048	2161.4764	2197.9	1316.25
945.8399	2162.9865	2190.15	1308.15
945.9749	2164.4958	2183.4	1302.45
946.1099	2166.0045	2169.9	1284.9
946.2449	2167.5124	2189.8	1308.15
946.3799	2169.0195	2176.25	1294.2
946.5148	2170.526	2186.25	1302.25
946.6498	2172.0317	2182.55	1299.4
946.7846	2173.5367	2172.75	1289.55
946.9195	2175.0409	2164.05	1280.4
947.0543	2176.5445	2164.45	1282.1
947.1891	2178.0473	2152.95	1268.3
947.3239	2179.5494	2161.2	1275.15
947.4587	2181.0507	2143.55	1259.65
947.5934	2182.5513	2140	1259.1
947.7281	2184.0512	2152.8	1270.7
947.8628	2185.5504	2146.5	1261.35
947.9974	2187.0488	2130.4	1246.7
948.132	2188.5465	2124.3	1242.45
948.2666	2190.0435	2120.95	1238.4
948.4012	2191.5397	2117.2	1233
948.5357	2193.0353	2116.8	1233.15
948.6702	2194.5301	2109.95	1225.95
948.8047	2196.0241	2104.6	1220
948.9392	2197.5175	2120.45	1238.1
949.0736	2199.0101	2114	1227.4
949.208	2200.502	2099.2	1217.35
949.3424	2201.9931	2098.25	1216.3
949.4767	2203.4835	2093.85	1210.65
949.611	2204.9733	2090.6	1201.45
949.7453	2206.4622	2089.15	1209.25
949.8796	2207.9505	2079.65	1196.25
950.0138	2209.438	2077	1196.45
950.148	2210.9248	2070.6	1187.45
950.2822	2212.4109	2076.95	1196.15
950.4164	2213.8962	2075.45	1188.25
950.5505	2215.3809	2069.9	1186.85
950.6846	2216.8648	2051.7	1166.05
950.8186	2218.3479	2071.85	1183.9
950.9527	2219.8304	2055.35	1167.15
951.0867	2221.3121	2046.25	1157.8
951.2207	2222.7931	2046.95	1162.6
951.3546	2224.2733	2051	1166.75
951.4886	2225.7529	2039.1	1156.15
951.6225	2227.2317	2037.85	1154.65
951.7563	2228.7098	2027.05	1146.45
951.8902	2230.1872	2032.6	1150
952.024	2231.6638	2025.2	1144.2
952.1578	2233.1397	2029.2	1141.15
952.2916	2234.6149	2011.9	1130.95
952.4253	2236.0894	2012.85	1128.65
952.559	2237.5632	2023.9	1131.25
952.6927	2239.0362	2009.6	1126.8
952.8263	2240.5085	2002.3	1118.85
952.9599	2241.9801	2000.15	1117.9
953.0935	2243.4509	2000.95	1117.45
953.2271	2244.921	1999.05	1115.8
953.3606	2246.3904	1999.4	1113.2
953.4941	2247.8591	1984.65	1100.45
953.6276	2249.3271	1984.5	1100.05
953.7611	2250.7943	1984.8	1098.65
953.8945	2252.2608	1965	1079.65
954.0279	2253.7266	1962.15	1080.6
954.1612	2255.1917	1967.65	1084.7
954.2946	2256.656	1962.05	1080.45
954.4279	2258.1197	1963.3	1080.5
954.5612	2259.5826	1959.45	1075.25
954.6944	2261.0447	1958.7	1072.7
954.8276	2262.5062	1951.2	1066.75
954.9608	2263.9669	1944.3	1058.65
955.094	2265.4269	1951	1068.3
955.2271	2266.8862	1946.15	1061.1
955.3602	2268.3448	1933.75	1049.7
955.4933	2269.8026	1940.1	1056.05
955.6264	2271.2598	1935.4	1052.1
955.7594	2272.7162	1931.6	1049.75
955.8924	2274.1719	1930.7	1046.75
956.0253	2275.6268	1930.9	1048.25
956.1583	2277.0811	1933.3	1051.75
956.2912	2278.5346	1914.7	1032.65
956.4241	2279.9874	1910.95	1029.3
956.5569	2281.4395	1918.4	1038.55
956.6897	2282.8908	1915.35	1027.35
956.8225	2284.3414	1917.95	1033.55
956.9553	2285.7914	1908.35	1027.4
957.088	2287.2406	1910.45	1024.4
957.2207	2288.689	1906.6	1023.75
957.3534	2290.1368	1899.35	1014.1
957.486	2291.5838	1900.3	1013.35
957.6186	2293.0302	1898.2	1011.25
957.7512	2294.4758	1894.5	1008.45
957.8838	2295.9206	1888.55	1001.4
958.0163	2297.3648	1880.45	995.65
958.1488	2298.8082	1885.95	1002.4
958.2813	2300.251	1879.35	993.55
958.4137	2301.693	1878.85	993.15
958.5461	2303.1343	1879.05	992.75
958.6785	2304.5748	1875.25	992.85
958.8108	2306.0147	1863.25	980.55
958.9432	2307.4538	1863.4	979.05
959.0754	2308.8922	1852	970.15
959.2077	2310.3299	1863.9	981.6
959.3399	2311.7669	1846.85	966.3
959.4721	2313.2031	1848.4	968.3
959.6043	2314.6387	1849.35	965.75
959.7365	2316.0735	1838.8	955.25
959.8686	2317.5076	1841.55	959.6
960.0006	2318.941	1840	957.25
960.1327	2320.3737	1835.15	950.95
960.2647	2321.8056	1837.95	951.1
960.3967	2323.2369	1824.4	939.5
960.5287	2324.6674	1829.95	944.75
960.6606	2326.0972	1826.4	942.85
960.7925	2327.5263	1824.7	940.5
960.9244	2328.9547	1824.65	940.2
961.0562	2330.3823	1820.65	935.95
961.1881	2331.8092	1823.65	935.4
961.3198	2333.2355	1805.45	920.8
961.4516	2334.661	1808.05	922.6
961.5833	2336.0858	1809.85	924.35
961.715	2337.5098	1803.25	921.1
961.8467	2338.9332	1799	912.35
961.9783	2340.3558	1803.5	915.9
962.1099	2341.7778	1786.85	903.3
962.2415	2343.199	1791.65	905
962.373	2344.6195	1779.85	897.5
962.5045	2346.0393	1773.95	891
962.636	2347.4583	1779.55	894.7
962.7675	2348.8767	1777.9	893.15
962.8989	2350.2943	1767.65	882.2
963.0303	2351.7113	1779.55	891.55
963.1617	2353.1275	1767.4	881.55
963.293	2354.543	1768.7	874.7
963.4243	2355.9578	1758.65	873.85
963.5556	2357.3718	1753.5	869.5
963.6868	2358.7852	1761.7	874.6
963.818	2360.1978	1739.25	853.5
963.9492	2361.6098	1747.8	865.3
964.0803	2363.021	1743.9	856.65
964.2114	2364.4315	1748.45	863.95
964.3425	2365.8413	1742.35	855.3
964.4736	2367.2504	1731.4	848.85
964.6046	2368.6587	1724.75	840.55
964.7356	2370.0664	1723.05	840.1
964.8666	2371.4733	1733.65	848.05
964.9975	2372.8795	1710.75	826.05
965.1284	2374.285	1714.1	828.55
965.2593	2375.6899	1719.7	835.75
965.3901	2377.0939	1714.15	829.6
965.5209	2378.4973	1701.8	818.3
965.6517	2379.9	1703.6	819.85
965.7825	2381.3019	1693.9	812.25
965.9132	2382.7032	1695.4	810.6
966.0439	2384.1037	1682.75	801.1
966.1745	2385.5035	1695.45	812.45
966.3051	2386.9027	1689.15	805.7
966.4357	2388.3011	1687.45	801.55
966.5663	2389.6987	1678.65	792.6
966.6968	2391.0957	1669.3	786.2
966.8273	2392.492	1663.8	780.65
966.9578	2393.8876	1664.75	780.7
967.0882	2395.2824	1652.7	766.7
967.2186	2396.6765	1660.75	777.05
967.349	2398.07	1658.05	770.75
967.4793	2399.4627	1658.95	773.45
967.6097	2400.8547	1653.6	766.45
967.7399	2402.246	1659.3	767.3
967.8702	2403.6366	1649.7	764.1
968.0004	2405.0265	1642.05	757.5
968.1306	2406.4156	1639.25	750.45
968.2607	2407.8041	1637.65	748.3
968.3909	2409.1918	1634.45	747.05
968.521	2410.5789	1634.85	749.85
968.651	2411.9652	1623.85	737.1
968.781	2413.3508	1622.5	737.55
968.911	2414.7358	1617.9	729.05
969.041	2416.12	1613.75	729.8
969.1709	2417.5035	1615.65	729
969.3008	2418.8863	1617.7	730.45
969.4307	2420.2684	1609.6	723.1
969.5606	2421.6497	1606	719.65
969.6904	2423.0304	1603.3	719.6
969.8201	2424.4104	1604.4	719.3
969.9499	2425.7896	1603.25	716.65
970.0796	2427.1682	1597.7	712.95
970.2093	2428.546	1593.35	707.7
970.3389	2429.9232	1594.15	705.85
970.4685	2431.2996	1591.3	706.75
970.5981	2432.6753	1592.4	708.75
970.7277	2434.0503	1586.75	701.4
970.8572	2435.4246	1580.7	696.55
970.9867	2436.7982	1582.4	694.5
971.1161	2438.1711	1580.3	694.55
971.2456	2439.5433	1579.2	693.4
971.375	2440.9148	1581.45	689.5
971.5043	2442.2856	1570.85	685.8
971.6336	2443.6557	1562.2	676.25
971.7629	2445.025	1571.45	684.7
971.8922	2446.3937	1566.25	679.15
972.0214	2447.7617	1566.85	679.1
972.1506	2449.1289	1555.3	673.1
972.2798	2450.4955	1560.55	669.35
972.4089	2451.8613	1561.75	677.55
972.538	2453.2265	1557.2	673.25
972.6671	2454.5909	1547.5	661.6
972.7961	2455.9546	1553.45	669.05
972.9251	2457.3177	1544.8	658.55
973.0541	2458.68	1548.45	660.5
973.1831	2460.0416	1548.55	663.5
973.312	2461.4025	1548.05	661.4
973.4408	2462.7627	1550.1	654.6
973.5697	2464.1222	1535.2	655.5
973.6985	2465.4811	1542.2	658.4
973.8273	2466.8392	1528.7	644.9
973.956	2468.1966	1521.1	635.6
974.0847	2469.5533	1543.65	656.6
974.2134	2470.9093	1531.1	646.8
974.3421	2472.2645	1529.1	642.4
974.4707	2473.6191	1527.65	642.85
974.5993	2474.973	1521.7	636.45
974.7278	2476.3262	1523.55	636.1
974.8563	2477.6787	1520.85	636.5
974.9848	2479.0305	1509.3	626.75
975.1132	2480.3816	1515.7	629.05
975.2417	2481.7319	1504.25	620.7
975.37	2483.0816	1508.2	621.3
975.4984	2484.4306	1506.15	619.85
975.6267	2485.7789	1502.3	619.55
975.755	2487.1264	1503	618.05
975.8833	2488.4733	1487.9	604.95
976.0115	2489.8195	1493.55	602.6
976.1397	2491.165	1496.15	609.05
976.2678	2492.5097	1486.75	602.7
976.3959	2493.8538	1494.5	612.3
976.524	2495.1972	1481.5	594.85
976.6521	2496.5398	1480.7	592.3
976.7801	2497.8818	1487.95	602.8
976.9081	2499.2231	1483.15	597.15
977.036	2500.5637	1479.25	591.2
977.164	2501.9035	1482.3	595.05
977.2918	2503.2427	1482.8	594.5
977.4197	2504.5812	1476.7	591.55
977.5475	2505.919	1471.55	583.95
977.6753	2507.256	1471.7	588.55
977.8031	2508.5924	1469.1	584.8
977.9308	2509.9281	1460.15	569.5
978.0585	2511.2631	1467.9	583.95
978.1861	2512.5974	1459.3	573.95
978.3137	2513.9309	1456	570.3
978.4413	2515.2638	1484.15	568.15
978.5689	2516.596	1456.6	571.35
978.6964	2517.9275	1447	561.85
978.8239	2519.2583	1447.1	559.3
978.9513	2520.5884	1451.95	567.1
979.0788	2521.9178	1444.35	558.5
979.2062	2523.2465	1442.45	560.45
979.3335	2524.5745	1441.2	555.55
979.4608	2525.9018	1424.4	539.45
979.5881	2527.2284	1435.15	552.35
979.7154	2528.5543	1436.7	553.2
979.8426	2529.8796	1430.2	544.35
979.9698	2531.2041	1432.1	548.9
980.0969	2532.5279	1425.2	542.35
980.224	2533.851	1426.95	540.8
980.3511	2535.1735	1424.95	540.25
980.4781	2536.4952	1420.25	535.65
980.6052	2537.8163	1425.2	538.95
980.7321	2539.1366	1425.2	539.6
980.8591	2540.4562	1423.7	538.55
980.986	2541.7752	1423.3	538.45
981.1129	2543.0935	1414.25	528.5
981.2397	2544.411	1415.25	527.9
981.3665	2545.7279	1420.7	537.25
981.4933	2547.0441	1416.15	529.4
981.62	2548.3596	1421.55	531.65
981.7467	2549.6744	1405.25	520.4
981.8734	2550.9885	1417.9	523
982.0001	2552.3019	1408.75	523.6
982.1267	2553.6146	1404.65	518.6
982.2532	2554.9266	1392.45	509.85
982.3798	2556.2379	1396.85	510.1
982.5063	2557.5485	1399.8	516.9
982.6327	2558.8585	1405.35	515
982.7592	2560.1677	1402.7	514
982.8856	2561.4762	1401	517.15
983.0119	2562.7841	1388.2	499.9
983.1383	2564.0913	1388.7	503.35
983.2646	2565.3977	1394.05	508.65
983.3908	2566.7035	1387.9	504.8
983.517	2568.0086	1383.85	495.75
983.6432	2569.313	1392.05	505.5
983.7694	2570.6167	1392.1	501.7
983.8955	2571.9197	1382.55	497.2
984.0216	2573.222	1385	497.75
984.1476	2574.5236	1387.6	500.65
984.2737	2575.8246	1376.25	487.25
984.3996	2577.1248	1392	501.4
984.5256	2578.4244	1378.8	495.15
984.6515	2579.7232	1384.05	500.4
984.7774	2581.0214	1391.2	478.8
984.9032	2582.3189	1366.4	481.7
985.029	2583.6157	1375.15	485.7
985.1548	2584.9118	1369.5	483.45
985.2806	2586.2072	1369.5	483.2
985.4063	2587.5019	1372.45	489.05
985.5319	2588.7959	1368.95	481.85
985.6576	2590.0893	1372.3	485.15
985.7832	2591.3819	1361.2	476.4
985.9087	2592.6739	1364.05	477.65
986.0343	2593.9652	1361.2	473.4
986.1597	2595.2557	1362	476.45
986.2852	2596.5456	1359.35	473.3
986.4106	2597.8348	1353.8	470.3
986.536	2599.1234	1348.55	463.95
986.6614	2600.4112	1356	471.75
986.7867	2601.6983	1352.85	463.9
986.912	2602.9848	1343.95	458.7
987.0372	2604.2705	1348.05	456.35
987.1624	2605.5556	1345.75	460.1
987.2876	2606.84	1345.55	460.45
987.4128	2608.1237	1340.05	453.2
987.5379	2609.4067	1337.9	449.25
987.6629	2610.689	1345.7	452.55
987.788	2611.9707	1332.7	442.45
987.913	2613.2516	1334.35	445.05
988.0379	2614.5319	1321.4	437.6
988.1629	2615.8115	1325.25	441.5
988.2878	2617.0903	1325	438.9
988.4126	2618.3685	1322.45	437.75
988.5375	2619.6461	1319.45	433.4
988.6622	2620.9229	1319.3	434.75
988.787	2622.199	1316.95	431.3
988.9117	2623.4745	1315.9	428.25
989.0364	2624.7493	1314.45	431.85
989.161	2626.0234	1306.2	423.05
989.2857	2627.2968	1312.9	429.1
989.4102	2628.5695	1314.45	428.55
989.5348	2629.8415	1305.85	421.3
989.6593	2631.1128	1304.7	419.55
989.7837	2632.3835	1303.3	418.45
989.9082	2633.6535	1296.65	410
990.0326	2634.9228	1295.35	411.85
990.1569	2636.1914	1291.8	409.1
990.2812	2637.4593	1297.25	405.75
990.4055	2638.7265	1292	406.85
990.5298	2639.9931	1294.2	408.15
990.654	2641.259	1292.25	406.8
990.7782	2642.5242	1289.05	402.15
990.9023	2643.7887	1285.05	399.95
991.0264	2645.0525	1283.9	399.7
991.1505	2646.3156	1280.9	394.85
991.2745	2647.5781	1279.5	393.5
991.3985	2648.8398	1278.65	394.85
991.5225	2650.1009	1288.45	395.15
991.6464	2651.3613	1271.45	387.35
991.7703	2652.6211	1271.15	387.25
991.8942	2653.8801	1266.85	385.15
992.018	2655.1385	1278.95	392.75
992.1418	2656.3961	1274.45	389.7
992.2655	2657.6531	1270.2	386.55
992.3892	2658.9094	1270.35	384.65
992.5129	2660.1651	1272.3	389.3
992.6366	2661.42	1271.05	384.85
992.7602	2662.6743	1266.55	381.85
992.8837	2663.9279	1264.75	381.9
993.0073	2665.1808	1261.95	375.95
993.1307	2666.433	1260.8	374.35
993.2542	2667.6846	1257.05	371.75
993.3776	2668.9354	1266.3	380.4
993.501	2670.1856	1262.25	377.9
993.6244	2671.4351	1262.1	379.45
993.7477	2672.6839	1254.7	367.45
993.8709	2673.9321	1251.65	369.45
993.9942	2675.1795	1245.45	360.35
994.1174	2676.4263	1255.5	372.3
994.2405	2677.6724	1251.05	366.9
994.3637	2678.9179	1256.7	372.3
994.4868	2680.1626	1248.5	366.35
994.6098	2681.4067	1245.1	360.6
994.7328	2682.6501	1246.3	360.6
994.8558	2683.8928	1240.1	355.65
994.9788	2685.1348	1241.55	358.6
995.1017	2686.3761	1237.8	354.5
995.2245	2687.6168	1242.85	359.8
995.3474	2688.8568	1232.1	346.45
995.4702	2690.0961	1235.9	352.4
995.5929	2691.3348	1236	349.75
995.7156	2692.5727	1226.5	342.65
995.8383	2693.81	1231	345.7
995.961	2695.0466	1233.55	351.95
996.0836	2696.2826	1227.4	343.3
996.2062	2697.5178	1246.35	347.75
996.3287	2698.7524	1230.8	345
996.4512	2699.9863	1223	336.15
996.5737	2701.2195	1225.05	341.25
996.6961	2702.452	1225.65	342.55
996.8185	2703.6839	1218.75	333.25
996.9408	2704.9151	1223.85	342.15
997.0631	2706.1456	1221.95	338.55
997.1854	2707.3755	1226.05	342.5
997.3077	2708.6046	1220.8	335.7
997.4299	2709.8331	1216.5	333.35
997.552	2711.0609	1220.5	337.7
997.6742	2712.2881	1216.35	332.95
997.7963	2713.5145	1220.35	335.6
997.9183	2714.7403	1211.3	328.6
998.0403	2715.9654	1209.5	325.75
998.1623	2717.1899	1223.55	325.5
998.2842	2718.4136	1209.15	325.2
998.4062	2719.6367	1209.75	325.55
998.528	2720.8591	1212.8	320.1
998.6498	2722.0809	1206.8	320.8
998.7716	2723.3019	1208.2	320.65
998.8934	2724.5223	1202.8	315.95
999.0151	2725.7421	1202.85	318
999.1368	2726.9611	1201.05	316.3
999.2584	2728.1795	1202.25	312.95
999.38	2729.3972	1198.05	314.15
999.5016	2730.6142	1207.25	311.05
999.6231	2731.8306	1199.6	315.3
999.7446	2733.0462	1194.65	312.05
999.8661	2734.2612	1196.1	307.5
999.9875	2735.4756	1188.1	305.05
1000.1089	2736.6892	1181.9	299.1
1000.2302	2737.9022	1180.95	299
1000.3515	2739.1145	1187	303.05
1000.4728	2740.3262	1188.55	294.15
1000.594	2741.5372	1178.25	294.2
1000.7152	2742.7475	1178.45	294.55
1000.8363	2743.9571	1175.3	291.1
1000.9575	2745.1661	1180.6	290.8
1001.0785	2746.3744	1174.35	291.4
1001.1996	2747.582	1172.65	291.8
1001.3206	2748.7889	1174.05	288.15
1001.4415	2749.9952	1169.4	285.35
1001.5625	2751.2008	1172.6	289.85
1001.6833	2752.4057	1169	283.9
1001.8042	2753.61	1165.2	283.3
1001.925	2754.8136	1167.75	282.65
1002.0458	2756.0165	1169.1	284.45
1002.1665	2757.2188	1163.7	280.9
1002.2872	2758.4204	1161.2	279.5
1002.4078	2759.6213	1160.9	275.35
1002.5285	2760.8215	1162.4	273.45
1002.649	2762.0211	1160.7	274.5
1002.7696	2763.22	1161.35	276.1
1002.8901	2764.4182	1160.85	274.85
1003.0106	2765.6158	1154.25	271.75
1003.131	2766.8127	1159.85	278.1
1003.2514	2768.009	1148.85	267.1
1003.3717	2769.2045	1154.8	270.6
1003.492	2770.3994	1156.25	272.3
1003.6123	2771.5936	1152.65	269.35
1003.7325	2772.7872	1144.05	261.35
1003.8527	2773.9801	1147.05	261.6
1003.9729	2775.1723	1163.4	264.5
1004.093	2776.3639	1145.95	264.15
1004.2131	2777.5548	1145.9	260.1
1004.3331	2778.745	1142.3	259.35
1004.4531	2779.9346	1146.35	262.55
1004.5731	2781.1235	1134.9	251.2
1004.693	2782.3117	1137.1	254.3
1004.8129	2783.4992	1140.65	259.2
1004.9328	2784.6861	1137.55	255.7
1005.0526	2785.8723	1137.85	253.9
1005.1723	2787.0579	1135.85	254.15
1005.2921	2788.2428	1135.2	251.15
1005.4118	2789.427	1132.55	251.6
1005.5314	2790.6106	1131.35	250.4
1005.651	2791.7935	1132.6	247.2
1005.7706	2792.9757	1130.95	248.85
1005.8902	2794.1573	1128.15	243.45
1006.0097	2795.3382	1125.65	244.35
1006.1291	2796.5184	1122.75	240.35
1006.2485	2797.698	1128.25	242.35
1006.3679	2798.8769	1123.35	241.25
1006.4873	2800.0551	1125.45	242.35
1006.6066	2801.2327	1121.9	237.5
1006.7258	2802.4096	1122.55	239.45
1006.8451	2803.5859	1123.45	241.05
1006.9642	2804.7615	1117.9	235.25
1007.0834	2805.9364	1121.6	238.05
1007.2025	2807.1106	1123.4	241.6
1007.3216	2808.2842	1118.95	233.65
1007.4406	2809.4572	1122.05	238.4
1007.5596	2810.6294	1115.35	232.85
1007.6785	2811.801	1114.4	231.8
1007.7975	2812.972	1121.8	240.15
1007.9163	2814.1423	1119.15	235.75
1008.0352	2815.3119	1116.35	235.15
1008.154	2816.4808	1120.15	238.85
1008.2727	2817.6491	1121.05	236.75
1008.3914	2818.8167	1113.1	232.75
1008.5101	2819.9837	1129.25	240.75
1008.6288	2821.15	1125.55	242.95
1008.7474	2822.3157	1122.1	240.6
1008.8659	2823.4807	1127.15	245.6
1008.9844	2824.645	1128	244
1009.1029	2825.8086	1133.35	252.3
1009.2214	2826.9716	1134	254.7
1009.3398	2828.134	1136.65	254.45
1009.4581	2829.2957	1141.8	258.5
1009.5764	2830.4567	1135.5	253.35
1009.6947	2831.617	1142.5	260
1009.813	2832.7767	1140.95	259.65
1009.9312	2833.9358	1145.25	264.9
1010.0493	2835.0941	1142.95	260
1010.1675	2836.2519	1139.9	257.65
1010.2855	2837.4089	1139.2	255.65
1010.4036	2838.5653	1134.65	252.5
1010.5216	2839.7211	1130.55	249.75
1010.6396	2840.8761	1130.85	245.55
1010.7575	2842.0306	1129.55	249.25
1010.8754	2843.1843	1133	248.4
1010.9932	2844.3374	1128.05	246.15
1011.111	2845.4899	1132.3	249.95
1011.2288	2846.6417	1130.7	249.45
1011.3465	2847.7928	1132.2	250.95
1011.4642	2848.9433	1126.25	243.7
1011.5818	2850.0931	1130.55	250.15
1011.6995	2851.2422	1136.4	251.25
1011.817	2852.3907	1134.2	251.85
1011.9345	2853.5385	1136.3	252.5
1012.052	2854.6857	1143.9	254
1012.1695	2855.8323	1132.35	250.9
1012.2869	2856.9781	1135.2	252.8
1012.4042	2858.1233	1133.45	249.8
1012.5216	2859.2679	1133.8	251.5
1012.6389	2860.4118	1132.55	248.9
1012.7561	2861.555	1143.25	257.75
1012.8733	2862.6976	1141.35	259.8
1012.9905	2863.8395	1137.2	254.55
1013.1076	2864.9808	1139.6	258.9
1013.2247	2866.1214	1132.95	251.15
1013.3417	2867.2614	1137.55	255.2
1013.4587	2868.4007	1134.95	251.2
1013.5757	2869.5393	1139.65	255.85
1013.6926	2870.6773	1142	255.9
1013.8095	2871.8146	1138.6	255.8
1013.9263	2872.9513	1140.7	257.45
1014.0431	2874.0874	1139.35	257.8
1014.1599	2875.2227	1136.3	252.4
1014.2766	2876.3574	1142	259.5
1014.3933	2877.4915	1132.45	250.6
1014.51	2878.6249	1135.7	253.45
1014.6266	2879.7577	1141.4	257.25
1014.7431	2880.8898	1147.35	256.05
1014.8596	2882.0212	1141.2	261.45
1014.9761	2883.152	1133.15	250.3
1015.0925	2884.2821	1134.5	253.35
1015.2089	2885.4116	1135.45	253.85
1015.3253	2886.5405	1138.85	256.6
1015.4416	2887.6686	1144.65	261.45
1015.5579	2888.7962	1131.4	249.75
1015.6741	2889.923	1132.15	251.15
1015.7903	2891.0493	1134.8	253.25
1015.9065	2892.1748	1132.8	250.55
1016.0226	2893.2997	1129.45	247.65
1016.1387	2894.424	1131.4	251.25
1016.2547	2895.5476	1126	246.45
1016.3707	2896.6706	1131.45	249.3
1016.4866	2897.7929	1136.15	254.1
1016.6025	2898.9145	1131.9	249.75
1016.7184	2900.0355	1127.55	245.8
1016.8342	2901.1559	1129.4	247.1
1016.95	2902.2756	1125.35	243.5
1017.0658	2903.3946	1129.25	246.95
1017.1815	2904.513	1124.8	240.05
1017.2971	2905.6308	1127.6	248.15
1017.4127	2906.7479	1126.85	244.05
1017.5283	2907.8643	1125.25	243.15
1017.6439	2908.9801	1126.45	242.9
1017.7594	2910.0953	1121.2	239.5
1017.8748	2911.2098	1121.55	236.8
1017.9902	2912.3236	1129.3	240.9
1018.1056	2913.4368	1123.6	238.45
1018.2209	2914.5494	1120.25	237.3
1018.3362	2915.6613	1118.8	232.05
1018.4515	2916.7725	1120.2	236.3
1018.5667	2917.8831	1113.15	230.1
1018.6819	2918.9931	1109.75	225.75
1018.797	2920.1024	1112	230.55
1018.9121	2921.211	1107.8	226.6
1019.0271	2922.319	1103.65	219.9
1019.1421	2923.4264	1099.4	221.05
1019.2571	2924.5331	1105.45	225.15
1019.372	2925.6391	1105.45	227.3
1019.4869	2926.7445	1105.6	224.95
1019.6017	2927.8493	1101.35	218
1019.7165	2928.9534	1103.85	223.15
1019.8313	2930.0569	1107.8	224.15
1019.946	2931.1597	1107.65	224.2
1020.0606	2932.2619	1106.1	224.85
1020.1753	2933.3634	1100.5	218.45
1020.2899	2934.4643	1109.15	221.3
1020.4044	2935.5645	1112.15	222.85
1020.5189	2936.6641	1106.8	220.8
1020.6334	2937.763	1103.6	222.55
1020.7478	2938.8613	1103.35	223.4
1020.8622	2939.959	1106.8	220.25
1020.9765	2941.056	1097.75	217.5
1021.0908	2942.1523	1092.05	210.25
1021.2051	2943.248	1090.2	209.85
1021.3193	2944.3431	1081.4	201.8
1021.4334	2945.4375	1080	198.05
1021.5476	2946.5313	1070.65	191
1021.6617	2947.6244	1074.7	193.6
1021.7757	2948.7169	1070.35	190.9
1021.8897	2949.8087	1061.95	180.25
1022.0037	2950.8999	1062.3	179.55
1022.1176	2951.9904	1051.65	171.5
1022.2315	2953.0803	1058.35	176.2
1022.3453	2954.1696	1052	169.35
1022.4591	2955.2582	1048.55	168.55
1022.5728	2956.3462	1045.25	164.7
1022.6865	2957.4335	1045.65	165.05
1022.8002	2958.5202	1048	165.5
1022.9138	2959.6062	1040.05	160.4
1023.0274	2960.6916	1042.3	162.2
1023.141	2961.7764	1042.45	160.9
1023.2545	2962.8605	1042.5	158.85
1023.3679	2963.9439	1037.55	157
1023.4813	2965.0267	1042.05	159.3
1023.5947	2966.1089	1062.35	158.55
1023.708	2967.1905	1039.25	159.55
1023.8213	2968.2714	1034.9	156.15
1023.9346	2969.3516	1038.95	158.9
1024.0478	2970.4312	1039.55	151.15
1024.1609	2971.5102	1035.7	153.9
1024.274	2972.5885	1034.7	153.3
1024.3871	2973.6662	1035.75	148.55
1024.5002	2974.7432	1034.15	152.35
1024.6132	2975.8196	1034.2	152.7
1024.7261	2976.8954	1029.6	150.8
1024.839	2977.9705	1036.3	155.4
1024.9519	2979.045	1027.25	148
1025.0647	2980.1188	1025.65	145
1025.1775	2981.192	1028.8	146.6
1025.2902	2982.2645	1027.65	145.45
1025.4029	2983.3364	1029.85	148.85
1025.5156	2984.4077	1027.7	147.85
1025.6282	2985.4783	1031.85	146.1
1025.7407	2986.5483	1024	146.3
1025.8532	2987.6177	1020.8	142.7
1025.9657	2988.6864	1017.4	137.95
1026.0782	2989.7545	1016.4	134.2
1026.1906	2990.8219	1014.15	132.65
1026.3029	2991.8887	1017.3	133.05
1026.4152	2992.9548	1012.2	130.9
1026.5275	2994.0204	1008.65	126.8
1026.6397	2995.0852	1009.6	132.25
1026.7519	2996.1495	1008	125.95
1026.864	2997.2131	1007.85	127.85
1026.9761	2998.276	1007.45	127.7
1027.0882	2999.3383	1005.7	125.4
1027.2002	3000.4	1003.3	122.9
1027.3122	3001.4611	999.65	120.1
1027.4241	3002.5215	996.4	114.95
1027.536	3003.5812	998.85	117.1
1027.6478	3004.6404	996.35	115.25
1027.7596	3005.6989	1000.25	119
1027.8714	3006.7567	994	113.95
1027.9831	3007.8139	1017.5	115.05
1028.0947	3008.8705	993.4	112
1028.2064	3009.9264	999	113.5
1028.3179	3010.9818	995.7	114.95
1028.4295	3012.0364	994.35	112.2
1028.541	3013.0905	990.8	108.75
1028.6524	3014.1439	991.85	112.3
1028.7638	3015.1966	986.95	104.45
1028.8752	3016.2487	989.65	109.9
1028.9865	3017.3002	995.55	109.9
1029.0978	3018.3511	986.15	107.65
1029.209	3019.4013	986.65	106.75
1029.3202	3020.4509	988.65	109.95
1029.4314	3021.4998	989	107.25
1029.5425	3022.5481	985.75	104.7
1029.6535	3023.5958	987	107.2
1029.7645	3024.6428	986.55	105.4
1029.8755	3025.6892	983.75	104.4
1029.9864	3026.735	984.6	103.9
1030.0973	3027.7802	983.9	103.8
1030.2082	3028.8247	982.95	100.4
1030.319	3029.8685	987.7	106.85
1030.4297	3030.9118	982.9	101.2
1030.5404	3031.9544	975.7	95.9
1030.6511	3032.9963	982.45	102.25
1030.7617	3034.0376	981.65	101.5
1030.8723	3035.0783	984.6	101
1030.9829	3036.1184	982.95	101.55
1031.0934	3037.1578	980.8	100.45
1031.2038	3038.1966	979	98.35
1031.3142	3039.2348	979.55	101.75
1031.4246	3040.2723	992.1	104.35
1031.5349	3041.3092	979.75	100.75
1031.6452	3042.3455	977.65	98
1031.7554	3043.3811	979.25	98.7
1031.8656	3044.4161	976.3	94.35
1031.9758	3045.4505	974.1	95.75
1032.0859	3046.4842	981.85	100.75
1032.1959	3047.5173	972.35	94.6
1032.3059	3048.5498	975.5	95.6
1032.4159	3049.5816	977.3	96.5
1032.5258	3050.6128	978.6	95.8
1032.6357	3051.6434	976.65	94.9
1032.7455	3052.6734	976.05	93.45
1032.8553	3053.7027	972.55	92.9
1032.9651	3054.7314	974.6	95.1
1033.0748	3055.7594	974.3	95.1
1033.1845	3056.7868	973.6	92.05
1033.2941	3057.8136	970.5	89.7
1033.4037	3058.8398	972.8	94.55
1033.5132	3059.8653	971.8	90.4
1033.6227	3060.8902	971.3	90.6
1033.7321	3061.9145	975.4	95.25
1033.8415	3062.9381	969.05	88.35
1033.9509	3063.9612	988.65	93.05
1034.0602	3064.9835	972.95	93.25
1034.1694	3066.0053	971.3	86.05
1034.2787	3067.0264	970.25	90.65
1034.3878	3068.0469	967.35	84.75
1034.497	3069.0668	971.9	90.25
1034.6061	3070.086	972.45	92.6
1034.7151	3071.1046	970.95	90
1034.8241	3072.1226	972.15	90.85
1034.9331	3073.1399	970.95	90.85
1035.042	3074.1567	966.75	85.05
1035.1508	3075.1727	969.45	86.85
1035.2597	3076.1882	968.1	88.25
1035.3684	3077.203	965.4	85.5
1035.4772	3078.2173	967.7	86.8
1035.5859	3079.2308	967.05	84.35
1035.6945	3080.2438	966.25	85.3
1035.8031	3081.2561	963.4	82.9
1035.9117	3082.2678	961.45	79.75
1036.0202	3083.2789	963.95	83.4
1036.1286	3084.2893	959.6	79.55
1036.2371	3085.2991	961.05	80.95
1036.3454	3086.3083	964.3	79.75
1036.4538	3087.3169	963.15	81.8
1036.562	3088.3248	965.2	82.95
1036.6703	3089.3321	960.55	79.55
1036.7785	3090.3388	957.85	77.55
1036.8866	3091.3449	960.05	78.1
1036.9948	3092.3503	958.85	75.1
1037.1028	3093.3551	957.6	78.45
1037.2108	3094.3593	956.9	76.9
1037.3188	3095.3629	957.6	78.25
1037.4267	3096.3658	955.95	73.35
1037.5346	3097.3681	958.85	79.7
1037.6425	3098.3698	956.65	75.4
1037.7503	3099.3708	960.4	75.2
1037.858	3100.3713	953.25	73.7
1037.9657	3101.3711	953.35	71.1
1038.0734	3102.3702	1088.5	70.35
1038.181	3103.3688	953.9	71.85
1038.2886	3104.3667	953.05	72.85
1038.3961	3105.364	955.4	76.65
1038.5036	3106.3607	954.9	72.6
1038.611	3107.3568	954	73.75
1038.7184	3108.3522	950.15	71
1038.8257	3109.347	953.6	73.15
1038.933	3110.3412	955.35	71.7
1039.0403	3111.3348	950.3	70.1
1039.1475	3112.3277	948.2	68.2
1039.2547	3113.32	948.35	69.5
1039.3618	3114.3117	947.05	66.95
1039.4689	3115.3028	948.9	69.2
1039.5759	3116.2932	949.65	68.2
1039.6829	3117.2831	953.9	66.7
1039.7898	3118.2723	946.85	66.9
1039.8967	3119.2608	943.6	63.45
1040.0035	3120.2488	944.5	64.85
1040.1103	3121.2361	946.55	65.3
1040.2171	3122.2229	942.55	62
1040.3238	3123.209	942.9	62.4
1040.4305	3124.1944	942.9	63.1
1040.5371	3125.1793	945	64.1
1040.6437	3126.1635	944.7	64.4
1040.7502	3127.1471	943.5	63.2
1040.8567	3128.1301	944.05	65.35
1040.9631	3129.1125	942.75	61.55
1041.0695	3130.0942	943.55	64.05
1041.1759	3131.0753	951.8	61.45
1041.2822	3132.0558	947.35	63.75
1041.3884	3133.0357	943.1	61.6
1041.4946	3134.015	940.45	59.55
1041.6008	3134.9936	941.85	59.85
1041.7069	3135.9716	964.1	62.1
1041.813	3136.949	940.95	62
1041.919	3137.9258	947.5	63.5
1042.025	3138.902	946.05	61.6
1042.1309	3139.8775	939.15	60.4
1042.2368	3140.8524	939.9	59.5
1042.3427	3141.8267	938.8	57.5
1042.4485	3142.8004	939	59.4
1042.5542	3143.7735	945.3	58.2
1042.6599	3144.7459	941.7	60.55
1042.7656	3145.7178	940.3	60.2
1042.8712	3146.689	935.6	56.35
1042.9768	3147.6596	938.75	56.55
1043.0823	3148.6295	938.8	57.35
1043.1878	3149.5989	936.65	56.5
1043.2932	3150.5676	936.2	56.85
1043.3986	3151.5357	932.4	54.15
1043.5039	3152.5032	935.05	55.05
1043.6092	3153.4701	933.75	54.2
1043.7145	3154.4364	938.95	56.35
1043.8197	3155.402	933.25	55.15
1043.9248	3156.367	938.1	57.45
1044.03	3157.3315	973.85	56.7
1044.135	3158.2952	934.6	55.45
1044.24	3159.2584	932.15	51.1
1044.345	3160.221	934.3	53.45
1044.4499	3161.1829	933.1	53.65
1044.5548	3162.1442	929.75	50.25
1044.6596	3163.105	933.25	52.45
1044.7644	3164.065	933.4	54.95
1044.8692	3165.0245	933.05	52.1
1044.9739	3165.9834	932.2	53.55
1045.0785	3166.9416	934.05	53.75
1045.1831	3167.8993	930.1	49.7
1045.2877	3168.8563	931.6	51.4
1045.3922	3169.8127	928.95	49.6
1045.4966	3170.7684	927.95	48.4
1045.6011	3171.7236	933	51.5
1045.7054	3172.6782	930.85	51.1
1045.8098	3173.6321	929	47.5
1045.914	3174.5854	932.1	47.6
1046.0183	3175.5381	930.8	51.9
1046.1224	3176.4902	928.7	51.3
1046.2266	3177.4417	926.4	48.6
1046.3307	3178.3926	926.4	47.9
1046.4347	3179.3428	924.95	44.15
1046.5387	3180.2924	924.95	46.2
1046.6427	3181.2415	927.35	47.9
1046.7466	3182.1899	931.95	49.35
1046.8504	3183.1377	924.8	46.45
1046.9542	3184.0848	932.55	49.5
1047.058	3185.0314	926.25	45.85
1047.1617	3185.9773	922.6	42.9
1047.2654	3186.9227	929.1	47.85
1047.369	3187.8674	926.15	45.65
1047.4726	3188.8115	926.3	40.9
1047.5761	3189.755	925.8	48.5
1047.6796	3190.6979	926.7	47.65
1047.783	3191.6402	926.5	45.85
1047.8864	3192.5818	921.85	44.1
1047.9898	3193.5229	940.15	42.25
1048.0931	3194.4633	924.7	43.35
1048.1963	3195.4031	925.3	46.05
1048.2995	3196.3423	925.05	45.3
1048.4027	3197.2809	923.25	43
1048.5058	3198.2189	924.4	43.4
1048.6089	3199.1563	940.85	42
1048.7119	3200.0931	922.2	42.6
1048.8148	3201.0292	920	40.5
1048.9178	3201.9648	920.4	40.1
1049.0206	3202.8997	924.3	39.8
1049.1235	3203.834	919.9	38.2
1049.2262	3204.7677	918.05	37.75
1049.329	3205.7008	923.45	43.85
1049.4317	3206.6333	919.8	40.7
1049.5343	3207.5652	920.85	38.05
1049.6369	3208.4964	919.45	38.7
1049.7394	3209.4271	918.75	41.8
1049.8419	3210.3571	920.5	43.05
1049.9444	3211.2865	918.65	36.85
1050.0468	3212.2154	919.75	38.95
1050.1491	3213.1436	923.05	40.25
1050.2514	3214.0712	928.6	41.45
1050.3537	3214.9982	920.5	40.9
1050.4559	3215.9246	918.35	36.7
1050.5581	3216.8503	916.75	38.75
1050.6602	3217.7755	917.65	36.55
1050.7623	3218.7001	919.2	38.7
1050.8643	3219.624	918.2	36.3
1050.9663	3220.5473	920	39.8
1051.0682	3221.4701	919.8	39.15
1051.1701	3222.3922	920.2	38.2
1051.2719	3223.3137	915.85	35.8
1051.3737	3224.2346	918.05	37.9
1051.4754	3225.1549	916.8	35.45
1051.5771	3226.0746	915.95	39
1051.6788	3226.9937	918.1	36.85
1051.7804	3227.9121	916.1	39.4
1051.8819	3228.83	915.7	36.65
1051.9834	3229.7473	915.25	33.9
1052.0849	3230.6639	918.3	36.7
1052.1863	3231.5799	918.6	39.65
1052.2876	3232.4954	913.95	32.25
1052.3889	3233.4102	913.1	32.8
1052.4902	3234.3244	915.8	36.4
1052.5914	3235.238	914.4	35.75
1052.6926	3236.151	940.35	35.4
1052.7937	3237.0634	913.35	35
1052.8948	3237.9752	916.95	37.2
1052.9958	3238.8864	914.25	36.05
1053.0968	3239.797	914.1	35.6
1053.1977	3240.7069	915.1	35.45
1053.2986	3241.6163	914.55	31.2
1053.3994	3242.5251	912.1	34
1053.5002	3243.4332	913.4	35.15
1053.6009	3244.3408	913.65	33.45
1053.7016	3245.2477	910.1	31.8
1053.8022	3246.154	912.55	31.1
1053.9028	3247.0598	913.4	34.7
1054.0034	3247.9649	911.1	31.65
1054.1039	3248.8694	911.75	33.15
1054.2043	3249.7733	910.45	30.1
1054.3047	3250.6766	911.4	32.3
1054.4051	3251.5793	912.35	32.25
1054.5054	3252.4814	911.15	30.85
1054.6056	3253.3829	909.25	30.3
1054.7058	3254.2838	910.95	32.2
1054.806	3255.1841	910.75	31.2
1054.9061	3256.0838	909.9	30.5
1055.0061	3256.9829	907.9	30.05
1055.1062	3257.8814	909.2	28
1055.2061	3258.7792	911.1	30.65
1055.306	3259.6765	908.15	28.95
1055.4059	3260.5731	908.15	28.25
1055.5057	3261.4692	910.4	30.05
1055.6055	3262.3647	908.65	27.7
1055.7052	3263.2595	907.25	25.95
1055.8049	3264.1538	908.4	28.7
1055.9045	3265.0474	905.25	25.85
1056.0041	3265.9404	904	25.5
1056.1036	3266.8329	903.8	27.55
1056.2031	3267.7247	917.65	29.25
1056.3025	3268.616	905.45	28.65
1056.4019	3269.5066	906.2	27.5
1056.5013	3270.3966	906.95	25
1056.6005	3271.286	902.3	24.85
