Software Version:	3.9.2.0
Unit SN:	10000200
Spectrometer SN:	6960
Date:	3/6/2024 10:44:03 AM
Data Line Index:	25
Spectral Points:	2048
Integration time (ms):	125
Averages:	20
Delay (ms):	30
Sequence Number:	1
Processing:	dark subtract
Laser Power (mW):	305
Laser Current (mA):	821
Laser Diode Temp (C):	25.1
Laser Case Temp (C):	27.2
System Temp (C):	27
Spectrometer Temp (C):	24.4
CCD Temp (C):	-0.008
Secondary Temp (C):	20.004
Heatsink Temp (C):	22.84
CCDPCB Temp (C):	36.574
SecondaryPCB Temp (C):	33.85

Wavelength	RamanShift	Raw Counts	Dark Subtracted
787.061	30.1047	1117.25	704.6
787.2016	32.3739	1145.65	733.7
787.3422	34.6426	1184.6	771.4
787.4828	36.9109	1244.85	829.95
787.6235	39.1787	1300.55	881.75
787.7642	41.4461	1351.95	927.6
787.9049	43.7131	1428.45	1002.85
788.0456	45.9796	1490.15	1061.35
788.1863	48.2456	1548.8	1115.7
788.3271	50.5112	1619.2	1181.95
788.4679	52.7764	1690.05	1251.5
788.6087	55.0411	1775.35	1331.95
788.7496	57.3054	1851.85	1402.15
788.8904	59.5692	1941.3	1489.45
789.0313	61.8326	2043.5	1591
789.1722	64.0955	2148.55	1690
789.3132	66.3579	2275.05	1812.05
789.4541	68.6199	2428.1	1961.75
789.5951	70.8815	2678	2209
789.7361	73.1426	3191.2	2717.7
789.8771	75.4032	4487.25	4008.35
790.0181	77.6634	7783.95	7300.3
790.1592	79.9231	16434.1	15945.35
790.3003	82.1824	53870.9	53371.6
790.4414	84.4412	65535	65018.2
790.5825	86.6995	65535	64989.55
790.7237	88.9574	65535	64965.9
790.8648	91.2148	65535	64947.05
791.006	93.4717	65535	64935.9
791.1472	95.7282	65535	64933.2
791.2885	97.9842	65535	64927.25
791.4297	100.2398	65535	64928.6
791.571	102.4949	65535	64921
791.7123	104.7495	65535	64915.05
791.8536	107.0036	65535	64915.4
791.9949	109.2573	65535	64920.35
792.1363	111.5105	65535	64914.35
792.2777	113.7632	65535	64913.9
792.4191	116.0154	65535	64903.55
792.5605	118.2672	65535	64911
792.7019	120.5185	65535	64907.75
792.8434	122.7693	65535	64906.2
792.9849	125.0197	65535	64900.15
793.1264	127.2696	65535	64896.65
793.2679	129.519	65535	64894.25
793.4094	131.7679	65535	64889.95
793.551	134.0163	65535	64889.25
793.6926	136.2642	65535	64883.4
793.8342	138.5117	65535	64876.95
793.9758	140.7587	65535	64883.6
794.1175	143.0052	65535	64875.65
794.2591	145.2512	65535	64878.7
794.4008	147.4967	65535	64881.95
794.5425	149.7417	65535	64876.4
794.6842	151.9863	65535	64874.7
794.826	154.2304	65535	64871.5
794.9677	156.4739	65535	64859.15
795.1095	158.717	65535	64864.75
795.2513	160.9596	65535	64858.35
795.3931	163.2017	65535	64857
795.535	165.4433	65535	64857.4
795.6768	167.6844	65535	64852.55
795.8187	169.925	65535	64853.85
795.9606	172.1651	65535	64851.7
796.1025	174.4047	65535	64844.25
796.2445	176.6439	65535	64844.05
796.3864	178.8825	65535	64841.35
796.5284	181.1206	65535	64834.75
796.6704	183.3582	65535	64831.4
796.8124	185.5954	65535	64830.6
796.9544	187.832	65535	64826.6
797.0965	190.0681	65535	64822.2
797.2386	192.3037	65535	64821.15
797.3806	194.5388	65535	64819.2
797.5228	196.7734	65535	64813.9
797.6649	199.0075	65535	64815.7
797.807	201.2411	65535	64810.55
797.9492	203.4742	65535	64810.1
798.0914	205.7068	65535	64808
798.2336	207.9389	65535	64807.9
798.3758	210.1704	65535	64806.15
798.518	212.4015	65535	64804.35
798.6603	214.632	65535	64810.25
798.8025	216.862	65535	64819.15
798.9448	219.0915	65535	64821.5
799.0871	221.3205	65535	64822.4
799.2294	223.549	65535	64826.2
799.3718	225.777	65535	64824.85
799.5141	228.0044	65535	64822.45
799.6565	230.2314	65535	64823.8
799.7989	232.4578	65535	64823.2
799.9413	234.6837	65535	64813.25
800.0837	236.909	65535	64811.25
800.2262	239.1339	65535	64786.65
800.3687	241.3582	65535	64798.7
800.5111	243.582	65535	64770.3
800.6536	245.8053	65535	64781.75
800.7961	248.0281	65535	64785.55
800.9387	250.2503	65535	64784.75
801.0812	252.472	65535	64779.95
801.2238	254.6932	65535	64779.5
801.3664	256.9139	65535	64776.85
801.509	259.134	65535	64773.1
801.6516	261.3536	65535	64774.4
801.7942	263.5727	65535	64772.05
801.9369	265.7912	65535	64773.6
802.0795	268.0092	65535	64770.5
802.2222	270.2267	65535	64772.85
802.3649	272.4436	65535	64771.95
802.5076	274.6601	65535	64766.3
802.6504	276.8759	65535	64769.05
802.7931	279.0913	65535	64766.5
802.9359	281.3061	65535	64760.75
803.0787	283.5204	65535	64763
803.2215	285.7341	65535	64758.25
803.3643	287.9473	65535	64742.1
803.5071	290.16	65535	64750.4
803.6499	292.3721	65535	64760.5
803.7928	294.5837	65535	64757.05
803.9357	296.7947	65535	64754.8
804.0786	299.0052	65535	64755.45
804.2215	301.2152	65535	64757
804.3644	303.4246	65535	64756.4
804.5074	305.6334	65535	64754.25
804.6503	307.8418	65535	64753.5
804.7933	310.0495	65535	64751.4
804.9363	312.2568	65535	64756.15
805.0793	314.4635	65535	64749.85
805.2223	316.6696	65535	64751.45
805.3653	318.8752	65535	64738.5
805.5084	321.0802	65535	64747.1
805.6514	323.2847	65535	64746.1
805.7945	325.4887	65535	64745.35
805.9376	327.692	65535	64744.9
806.0807	329.8949	65535	64744.6
806.2238	332.0972	65535	64741.3
806.367	334.2989	65535	64739.8
806.5101	336.5001	65535	64735.8
806.6533	338.7007	65535	64736.75
806.7965	340.9008	65535	64737.4
806.9397	343.1003	65535	64733.4
807.0829	345.2992	65535	64735.45
807.2261	347.4976	65535	64734.2
807.3693	349.6955	65535	64730.75
807.5126	351.8927	65535	64727.5
807.6559	354.0895	65535	64714.25
807.7991	356.2856	65535	64726.2
807.9424	358.4812	65535	64723.8
808.0857	360.6763	65535	64723.15
808.2291	362.8707	65535	64720.3
808.3724	365.0646	65535	64720.95
808.5158	367.258	65535	64720.75
808.6591	369.4508	65535	64713.7
808.8025	371.643	65535	64716.3
808.9459	373.8346	65535	64713.1
809.0893	376.0257	65535	64714.7
809.2327	378.2162	65535	64713.35
809.3762	380.4062	65535	64708.75
809.5196	382.5956	65535	64707.4
809.6631	384.7844	65535	64710.5
809.8066	386.9726	65535	64710.45
809.9501	389.1603	65535	64713.05
810.0936	391.3474	65535	64670.6
810.2371	393.5339	65535	64714.15
810.3806	395.7199	65535	64718.85
810.5241	397.9052	65535	64716.3
810.6677	400.09	65535	64717.15
810.8113	402.2743	65535	64714.35
810.9548	404.4579	65535	64717.95
811.0984	406.641	65535	64714.8
811.2421	408.8235	65535	64713.4
811.3857	411.0054	65535	64715.7
811.5293	413.1868	65535	64709.1
811.673	415.3675	65535	64712.65
811.8166	417.5477	65535	64707.35
811.9603	419.7273	65535	64704.75
812.104	421.9064	65535	64695.7
812.2477	424.0848	65535	64698.05
812.3914	426.2627	65535	64700.35
812.5351	428.4399	65535	64699.35
812.6788	430.6166	65535	64696.15
812.8226	432.7928	65535	64694.85
812.9663	434.9683	65535	64695.25
813.1101	437.1432	65535	64694.1
813.2539	439.3176	65535	64691.9
813.3977	441.4914	65535	64697.35
813.5415	443.6645	65535	64691.85
813.6853	445.8371	65535	64692.2
813.8291	448.0091	65535	64691.7
813.973	450.1806	65535	64691.9
814.1168	452.3514	65535	64691.05
814.2607	454.5216	65535	64685.65
814.4046	456.6913	65535	64687.75
814.5485	458.8603	65535	64687.95
814.6924	461.0288	65535	64692.5
814.8363	463.1967	65535	64690.5
814.9802	465.3639	65535	64688.25
815.1241	467.5306	65535	64685.25
815.2681	469.6967	65535	64688.35
815.412	471.8622	65535	64690.55
815.556	474.0271	65535	64689.2
815.7	476.1914	65535	64684.5
815.844	478.3551	65535	64686.85
815.988	480.5182	65535	64685.65
816.132	482.6807	65535	64687.95
816.276	484.8426	65535	64686.15
816.4201	487.0039	65535	64687.3
816.5641	489.1647	65535	64684.55
816.7082	491.3248	65535	64681.5
816.8522	493.4843	65535	64684.25
816.9963	495.6432	65535	64682.85
817.1404	497.8015	65535	64678.3
817.2845	499.9592	65535	64681.6
817.4286	502.1163	65535	64680
817.5727	504.2728	65535	64677.5
817.7168	506.4287	65535	64683.65
817.861	508.5839	65535	64681.05
818.0051	510.7386	65535	64680.4
818.1493	512.8927	65535	64674.4
818.2935	515.0461	65535	64677.05
818.4377	517.199	65535	64678.8
818.5818	519.3512	65535	64677.3
818.726	521.5029	65535	64669.4
818.8703	523.6539	65535	64675.85
819.0145	525.8043	65535	64676.75
819.1587	527.9541	65535	64671.85
819.303	530.1033	65535	64674.75
819.4472	532.2519	65535	64673.3
819.5915	534.3999	65535	64669.2
819.7357	536.5472	65535	64671.4
819.88	538.694	65535	64673.85
820.0243	540.8401	65535	64673.1
820.1686	542.9856	65535	64667.65
820.3129	545.1305	65535	64666.8
820.4572	547.2748	65535	64667.1
820.6016	549.4185	65535	64667.4
820.7459	551.5615	65535	64667
820.8902	553.704	65535	64665.45
821.0346	555.8458	65535	64665.15
821.1789	557.987	65535	64671.15
821.3233	560.1276	65535	64665.7
821.4677	562.2675	65535	64667.85
821.6121	564.4069	65535	64666.4
821.7565	566.5456	65535	64669.6
821.9009	568.6837	65535	64671.3
822.0453	570.8212	65535	64671.2
822.1897	572.958	65535	64664.25
822.3342	575.0942	65535	64670.4
822.4786	577.2299	65535	64669.9
822.6231	579.3648	65535	64671.3
822.7675	581.4992	65535	64670.2
822.912	583.6329	65535	64667.65
823.0565	585.766	65535	64671
823.201	587.8985	65535	64669.45
823.3454	590.0304	65535	64644.55
823.4899	592.1616	65535	64661.55
823.6345	594.2922	65535	64664.75
823.779	596.4222	65535	64661.25
823.9235	598.5515	65535	64664.15
824.068	600.6802	65535	64661.35
824.2126	602.8083	65535	64660.7
824.3571	604.9358	65535	64659.15
824.5017	607.0626	65535	64658.2
824.6462	609.1888	65535	64660.2
824.7908	611.3144	65535	64660.45
824.9354	613.4393	65535	64660.3
825.08	615.5636	65535	64659.05
825.2246	617.6873	65535	64660.45
825.3692	619.8103	65535	64656.2
825.5138	621.9327	65535	64654.6
825.6584	624.0544	65535	64663
825.803	626.1756	65535	64658.45
825.9477	628.2961	65535	64655.05
826.0923	630.4159	65535	64658.95
826.237	632.5351	65535	64655.65
826.3816	634.6537	65535	64658.55
826.5263	636.7716	65535	64653.8
826.6709	638.8889	65535	64654.8
826.8156	641.0056	65535	64655.8
826.9603	643.1216	65535	64652.25
827.105	645.237	65535	64651.3
827.2497	647.3518	65535	64654.65
827.3944	649.4659	65535	64655.35
827.5391	651.5793	65535	64656.35
827.6838	653.6922	65535	64656.2
827.8285	655.8043	65535	64655.15
827.9733	657.9159	65535	64655.7
828.118	660.0268	65535	64653.5
828.2627	662.137	65535	64652.75
828.4075	664.2466	65535	64651.4
828.5522	666.3556	65535	64652.05
828.697	668.4639	65535	64648.65
828.8418	670.5716	65535	64654.85
828.9865	672.6786	65535	64654.25
829.1313	674.785	65535	64649.2
829.2761	676.8907	65535	64649.9
829.4209	678.9958	65535	64651.95
829.5657	681.1002	65535	64651.7
829.7105	683.204	65535	64647.15
829.8553	685.3072	65535	64645.35
830.0001	687.4097	65535	64648
830.1449	689.5115	65535	64647.15
830.2898	691.6127	65535	64650.2
830.4346	693.7132	65535	64649.05
830.5794	695.8131	65535	64632.3
830.7243	697.9123	65535	64645.25
830.8691	700.0109	65535	64649.15
831.014	702.1089	65535	64649.95
831.1588	704.2061	65535	64646.35
831.3037	706.3028	65535	64646.15
831.4486	708.3987	65535	64644.5
831.5935	710.4941	65535	64650.25
831.7383	712.5887	65535	64645.4
831.8832	714.6827	65535	64642.25
832.0281	716.7761	65535	64646.7
832.173	718.8688	65535	64648.45
832.3179	720.9608	65535	64642.4
832.4628	723.0522	65535	64641.9
832.6077	725.1429	65535	64644.25
832.7527	727.233	65535	64641.6
832.8976	729.3224	65535	64645.55
833.0425	731.4112	65535	64646.2
833.1874	733.4993	65535	64640.05
833.3324	735.5867	65535	64642.95
833.4773	737.6735	65535	64640.35
833.6222	739.7596	65535	64640.95
833.7672	741.845	65535	64641.65
833.9122	743.9298	65535	64640.55
834.0571	746.014	65535	64646
834.2021	748.0974	65535	64639.35
834.347	750.1802	65535	64641.15
834.492	752.2624	65535	64643.35
834.637	754.3439	65535	64638.85
834.782	756.4247	65535	64630.2
834.9269	758.5048	65535	64640.95
835.0719	760.5843	65535	64643.65
835.2169	762.6631	65535	64644
835.3619	764.7413	65535	64643.8
835.5069	766.8188	65535	64636.9
835.6519	768.8956	65535	64637.9
835.7969	770.9718	65535	64642.5
835.9419	773.0473	65535	64642.75
836.0869	775.1221	65535	64641.55
836.232	777.1962	65535	64642.35
836.377	779.2697	65535	64638.7
836.522	781.3426	65535	64621.15
836.667	783.4147	65535	64641.1
836.8121	785.4862	65535	64641.2
836.9571	787.557	65535	64642.65
837.1021	789.6271	65535	64639.25
837.2472	791.6966	65535	64640.15
837.3922	793.7654	65535	64638.6
837.5373	795.8335	65535	64639.9
837.6823	797.901	65535	64641.2
837.8274	799.9678	65535	64637.6
837.9724	802.0339	65535	64637.5
838.1175	804.0993	65535	64628.5
838.2626	806.1641	65535	64640.55
838.4076	808.2282	65535	64641.2
838.5527	810.2916	65535	64637.2
838.6978	812.3544	65535	64642.3
838.8428	814.4164	65535	64642.5
838.9879	816.4778	65535	64636.5
839.133	818.5385	65535	64638.95
839.2781	820.5986	65535	64639.2
839.4232	822.658	65535	64637.25
839.5682	824.7166	65535	64637.8
839.7133	826.7747	65535	64639.35
839.8584	828.832	65535	64637.65
840.0035	830.8886	65535	64638.7
840.1486	832.9446	65535	64636.7
840.2937	834.9999	65535	64638.75
840.4388	837.0545	65535	64634.25
840.5839	839.1085	65535	64636.05
840.729	841.1618	65535	64633.7
840.8741	843.2143	65535	64637.4
841.0192	845.2662	65535	64636.1
841.1643	847.3175	65535	64638.6
841.3095	849.368	65535	64637.75
841.4546	851.4179	65535	64636.05
841.5997	853.467	65535	64634.75
841.7448	855.5155	65535	64636.4
841.8899	857.5633	65535	64640
842.0351	859.6105	65535	64636.25
842.1802	861.6569	65535	64635.15
842.3253	863.7027	65535	64636.15
842.4704	865.7478	65535	64634.05
842.6156	867.7922	65535	64638.1
842.7607	869.8359	65535	64632.75
842.9058	871.8789	65535	64636.15
843.0509	873.9212	65535	64600.85
843.1961	875.9629	65535	64635.55
843.3412	878.0039	65535	64637.2
843.4863	880.0441	65535	64637.45
843.6315	882.0837	65535	64633.4
843.7766	884.1226	65535	64633.6
843.9218	886.1609	65535	64636.65
844.0669	888.1984	65535	64635.2
844.212	890.2352	65535	64637.15
844.3572	892.2714	65535	64630.2
844.5023	894.3069	65535	64634.6
844.6475	896.3416	65535	64634.85
844.7926	898.3757	65535	64633.55
844.9377	900.4091	65535	64633.35
845.0829	902.4418	65535	64630
845.228	904.4739	65535	64633.3
845.3732	906.5052	65535	64634.1
845.5183	908.5358	65535	64634.6
845.6635	910.5658	65535	64631.4
845.8086	912.595	65535	64631.05
845.9538	914.6236	65535	64635.05
846.0989	916.6515	65535	64633.75
846.2441	918.6786	65535	64632.65
846.3892	920.7051	65535	64632
846.5344	922.7309	65535	64631.7
846.6795	924.756	65535	64634.2
846.8246	926.7804	65535	64629.5
846.9698	928.8041	65535	64631.7
847.1149	930.8272	65535	64633.35
847.2601	932.8495	65535	64631.3
847.4052	934.8711	65535	64632.3
847.5504	936.892	65535	64630.95
847.6955	938.9123	65535	64632.1
847.8407	940.9318	65535	64631.3
847.9858	942.9506	65535	64631.95
848.131	944.9688	65535	64633.2
848.2761	946.9862	65535	64633.25
848.4213	949.003	65535	64634.5
848.5664	951.019	65535	64634.75
848.7115	953.0344	65535	64631.55
848.8567	955.0491	65535	64632.65
849.0018	957.063	65535	64631.7
849.147	959.0763	65535	64634.95
849.2921	961.0888	65535	64628.8
849.4373	963.1007	65535	64631.9
849.5824	965.1119	65535	64636.5
849.7275	967.1223	65535	64634.45
849.8727	969.1321	65535	64635.75
850.0178	971.1412	65535	64632.15
850.1629	973.1495	65535	64631.25
850.3081	975.1572	65535	64585.5
850.4532	977.1641	65535	64633.85
850.5983	979.1704	65535	64630.4
850.7435	981.1759	65535	64629.6
850.8886	983.1808	65535	64630.35
851.0337	985.1849	65535	64622.3
851.1788	987.1884	65535	64630.85
851.324	989.1911	65535	64629.65
851.4691	991.1932	65535	64633
851.6142	993.1945	65535	64633.25
851.7593	995.1951	65535	64633.3
851.9045	997.1951	65535	64624.35
852.0496	999.1943	65535	64631.5
852.1947	1001.1928	65535	64631.4
852.3398	1003.1906	65535	64633.6
852.4849	1005.1877	65535	64628.55
852.63	1007.1841	65535	64631.1
852.7751	1009.1798	65535	64632.2
852.9202	1011.1748	65535	64632.8
853.0653	1013.1691	65535	64632.25
853.2104	1015.1627	65535	64629.45
853.3555	1017.1556	65535	64631
853.5006	1019.1477	65535	64628.15
853.6457	1021.1392	65535	64635.7
853.7908	1023.1299	65535	64633.45
853.9359	1025.12	65535	64632.05
854.081	1027.1093	65535	64637.15
854.2261	1029.0979	65535	64636.55
854.3712	1031.0859	65535	64635.05
854.5163	1033.0731	65535	64634.6
854.6613	1035.0596	65535	64633.55
854.8064	1037.0454	65535	64630.1
854.9515	1039.0304	65535	64628.55
855.0965	1041.0148	65535	64634.3
855.2416	1042.9985	65535	64633.75
855.3867	1044.9814	65535	64633.6
855.5317	1046.9636	65535	64629.65
855.6768	1048.9452	65535	64633.85
855.8219	1050.926	65535	64633.4
855.9669	1052.9061	65535	64631.15
856.112	1054.8855	65535	64631.4
856.257	1056.8642	65535	64633.45
856.4021	1058.8421	65535	64627.5
856.5471	1060.8194	65535	64630.5
856.6921	1062.7959	65535	64632.1
856.8372	1064.7717	65535	64631.3
856.9822	1066.7469	65535	64630.45
857.1272	1068.7213	65535	64631.35
857.2723	1070.695	65535	64631.2
857.4173	1072.6679	65535	64631.7
857.5623	1074.6402	65535	64632
857.7073	1076.6117	65535	64626.3
857.8523	1078.5826	65535	64630.4
857.9973	1080.5527	65535	64628.6
858.1423	1082.5221	65535	64632.25
858.2873	1084.4908	65535	64632.5
858.4323	1086.4587	65535	64631.35
858.5773	1088.426	65535	64630.75
858.7223	1090.3925	65535	64625.5
858.8673	1092.3584	65535	64631
859.0123	1094.3235	65535	64632.65
859.1573	1096.2879	65535	64629.45
859.3022	1098.2515	65535	64630.95
859.4472	1100.2145	65535	64634.45
859.5922	1102.1767	65535	64629.15
859.7371	1104.1382	65535	64632.35
859.8821	1106.099	65535	64629.35
860.027	1108.0591	65535	64631.3
860.172	1110.0185	65535	64632.3
860.3169	1111.9771	65535	64633.55
860.4619	1113.9351	65535	64631.65
860.6068	1115.8923	65535	64630.35
860.7517	1117.8488	65535	64629.75
860.8967	1119.8045	65535	64631.7
861.0416	1121.7596	65535	64633.8
861.1865	1123.7139	65535	64630.95
861.3314	1125.6675	65535	64632.6
861.4763	1127.6204	65535	64632.7
861.6212	1129.5726	65535	64632
861.7661	1131.524	65535	64631.95
861.911	1133.4748	65535	64632.5
862.0559	1135.4248	65535	64629.9
862.2008	1137.3741	65535	64631.3
862.3457	1139.3226	65535	64630.7
862.4905	1141.2705	65535	64632.25
862.6354	1143.2176	65535	64626.65
862.7803	1145.164	65535	64628.4
862.9251	1147.1097	65535	64631.15
863.07	1149.0546	65535	64630.75
863.2148	1150.9989	65535	64632.2
863.3597	1152.9424	65535	64633.55
863.5045	1154.8852	65535	64632.75
863.6493	1156.8272	65535	64632.25
863.7942	1158.7686	65535	64623.85
863.939	1160.7092	65535	64630.45
864.0838	1162.6491	65535	64630.2
864.2286	1164.5883	65535	64632.3
864.3734	1166.5267	65535	64631.7
864.5182	1168.4644	65535	64631.9
864.663	1170.4014	65535	64628.9
864.8078	1172.3377	65535	64632.45
864.9526	1174.2732	65535	64633.15
865.0974	1176.2081	65535	64634
865.2421	1178.1421	65535	64627.8
865.3869	1180.0755	65535	64633.1
865.5317	1182.0082	65535	64630.95
865.6764	1183.9401	65535	64630.9
865.8212	1185.8713	65535	64631.35
865.9659	1187.8017	65535	64634.4
866.1106	1189.7315	65535	64634.75
866.2554	1191.6605	65535	64605.15
866.4001	1193.5888	65535	64634.5
866.5448	1195.5163	65535	64633.65
866.6895	1197.4432	65535	64633.25
866.8342	1199.3693	65535	64632.2
866.9789	1201.2947	65535	64629.2
867.1236	1203.2193	65535	64632.6
867.2683	1205.1432	65535	64633.65
867.413	1207.0664	65535	64633.3
867.5576	1208.9889	65535	64627.4
867.7023	1210.9106	65535	64633.6
867.847	1212.8316	65535	64632.85
867.9916	1214.7519	65535	64619.7
868.1363	1216.6715	65535	64631.1
868.2809	1218.5903	65535	64632.35
868.4255	1220.5084	65535	64632.2
868.5701	1222.4257	65535	64633.45
868.7148	1224.3424	65535	64633
868.8594	1226.2583	65535	64628.75
869.004	1228.1735	65535	64630.15
869.1486	1230.0879	65535	64630.15
869.2932	1232.0016	65535	64630.3
869.4377	1233.9146	65535	64632.55
869.5823	1235.8269	65535	64634.2
869.7269	1237.7384	65535	64634
869.8715	1239.6492	65535	64631.6
870.016	1241.5592	65535	64631.25
870.1606	1243.4686	65535	64633.5
870.3051	1245.3772	65535	64635.5
870.4496	1247.285	65535	64631.35
870.5941	1249.1922	65535	64632.55
870.7387	1251.0986	65535	64632.5
870.8832	1253.0042	65535	64631.25
871.0277	1254.9092	65535	64631.75
871.1722	1256.8134	65535	64635.05
871.3167	1258.7169	65535	64628.55
871.4611	1260.6196	65535	64633.55
871.6056	1262.5216	65535	64631.45
871.7501	1264.4229	65535	64633.4
871.8945	1266.3234	65535	64633.7
872.039	1268.2232	65535	64630.7
872.1834	1270.1223	65535	64631.15
872.3278	1272.0207	65535	64633.05
872.4723	1273.9183	65535	64626
872.6167	1275.8151	65535	64630.95
872.7611	1277.7113	65535	64633
872.9055	1279.6067	65535	64631.9
873.0499	1281.5014	65535	64631.5
873.1943	1283.3953	65535	64630.55
873.3386	1285.2885	65535	64632.5
873.483	1287.181	65535	64630.6
873.6274	1289.0727	65535	64633.15
873.7717	1290.9637	65535	64631.75
873.9161	1292.854	65535	64633.1
874.0604	1294.7435	65535	64634.6
874.2047	1296.6323	65535	64633.25
874.349	1298.5204	65535	64631.45
874.4933	1300.4077	65535	64632.1
874.6376	1302.2943	65535	64633.1
874.7819	1304.1802	65535	64633.6
874.9262	1306.0653	65535	64630.9
875.0705	1307.9497	65535	64632.1
875.2147	1309.8333	65535	64634.25
875.359	1311.7162	65535	64633.4
875.5032	1313.5984	65535	64628.8
875.6475	1315.4798	65535	64623.05
875.7917	1317.3605	65535	64618.1
875.9359	1319.2405	65535	64631.35
876.0801	1321.1197	65535	64632.25
876.2243	1322.9982	65535	64628.35
876.3685	1324.876	65535	64632
876.5127	1326.753	65535	64634.6
876.6569	1328.6293	65535	64633.95
876.801	1330.5048	65535	64630.6
876.9452	1332.3796	65535	64633.5
877.0893	1334.2537	65535	64608.35
877.2335	1336.127	65535	64630.75
877.3776	1337.9996	65535	64635.75
877.5217	1339.8714	65535	64632.7
877.6658	1341.7426	65535	64589.8
877.8099	1343.6129	65535	64633.1
877.954	1345.4826	65535	64632.55
878.0981	1347.3515	65535	64630.95
878.2422	1349.2196	65535	64630.65
878.3862	1351.087	65535	64630.65
878.5303	1352.9537	65535	64631.2
878.6743	1354.8197	65535	64631.9
878.8184	1356.6849	65535	64632.6
878.9624	1358.5493	65535	64633.95
879.1064	1360.4131	65535	64633.1
879.2504	1362.276	65535	64633.1
879.3944	1364.1383	65535	64630.9
879.5384	1365.9998	65535	64625.95
879.6823	1367.8606	65535	64631.2
879.8263	1369.7206	65535	64633.3
879.9702	1371.5799	65535	64632.15
880.1142	1373.4384	65535	64632.2
880.2581	1375.2962	65535	64634.35
880.402	1377.1533	65535	64632.45
880.5459	1379.0096	65535	64632.4
880.6898	1380.8652	65535	64633.9
880.8337	1382.7201	65535	64632.2
880.9776	1384.5742	65535	64631.9
881.1215	1386.4275	65535	64633.25
881.2653	1388.2802	65535	64633.9
881.4092	1390.132	65535	64633.9
881.553	1391.9832	65535	64631.85
881.6968	1393.8336	65535	64632.85
881.8406	1395.6832	65535	64631.5
881.9844	1397.5322	65535	64632.2
882.1282	1399.3803	65535	64629.7
882.272	1401.2278	65535	64631.45
882.4158	1403.0745	65535	64631.95
882.5595	1404.9204	65535	64631.4
882.7033	1406.7656	65535	64632.65
882.847	1408.6101	65535	64633.05
882.9908	1410.4538	65535	64632.3
883.1345	1412.2968	65535	64632.95
883.2782	1414.139	65535	64633.7
883.4219	1415.9805	65535	64633.2
883.5656	1417.8213	65535	64628.3
883.7092	1419.6613	65535	64633.85
883.8529	1421.5006	65535	64631.95
883.9965	1423.3391	65535	64633.75
884.1402	1425.1769	65535	64629.3
884.2838	1427.0139	65535	64634.7
884.4274	1428.8502	65535	64632.3
884.571	1430.6858	65535	64633.1
884.7146	1432.5206	65535	64633.95
884.8582	1434.3547	65535	64632.6
885.0018	1436.188	65535	64631.45
885.1453	1438.0206	65535	64632.15
885.2889	1439.8524	65535	64631.9
885.4324	1441.6835	65535	64633.3
885.5759	1443.5139	65535	64630.25
885.7194	1445.3435	65535	64630.95
885.8629	1447.1724	65535	64634.2
886.0064	1449.0005	65535	64634.05
886.1499	1450.8279	65535	64632.1
886.2933	1452.6545	65535	64632.35
886.4368	1454.4804	65535	64635
886.5802	1456.3056	65535	64626.35
886.7237	1458.13	65535	64631.75
886.8671	1459.9536	65535	64635.4
887.0105	1461.7766	65535	64632.15
887.1539	1463.5987	65535	64632.45
887.2972	1465.4202	65535	64634.25
887.4406	1467.2409	65535	64632
887.584	1469.0608	65535	64632.8
887.7273	1470.88	65535	64629.95
887.8706	1472.6984	65535	64633.25
888.0139	1474.5161	65535	64632.1
888.1572	1476.3331	65535	64634.4
888.3005	1478.1493	65535	64632.9
888.4438	1479.9648	65535	64634.6
888.5871	1481.7795	65535	64635.05
888.7303	1483.5935	65535	64633.85
888.8736	1485.4067	65535	64633.2
889.0168	1487.2192	65535	64634.8
889.16	1489.031	65535	64630.2
889.3032	1490.842	65535	64632.8
889.4464	1492.6522	65535	64632.95
889.5896	1494.4618	65535	64633.2
889.7327	1496.2705	65535	64637.65
889.8759	1498.0785	65535	64632.2
890.019	1499.8858	65535	64631.8
890.1622	1501.6924	65535	64635.3
890.3053	1503.4981	65535	64632.4
890.4484	1505.3032	65535	64634.25
890.5914	1507.1075	65535	64634.6
890.7345	1508.911	65535	64634.9
890.8776	1510.7138	65535	64633.6
891.0206	1512.5159	65535	64632.85
891.1637	1514.3172	65535	64633.6
891.3067	1516.1178	65535	64636.2
891.4497	1517.9176	65535	64631.8
891.5927	1519.7166	65535	64636.15
891.7357	1521.515	65535	64627.45
891.8786	1523.3126	65535	64634.2
892.0216	1525.1094	65535	64633.25
892.1645	1526.9055	65535	64637.1
892.3074	1528.7008	65535	64635.4
892.4503	1530.4954	65535	64629.05
892.5932	1532.2893	65535	64635.25
892.7361	1534.0824	65535	64633.3
892.879	1535.8747	65535	64634.75
893.0218	1537.6663	65535	64634.9
893.1647	1539.4572	65535	64634.85
893.3075	1541.2473	65535	64633.9
893.4503	1543.0367	65535	64636.7
893.5931	1544.8253	65535	64629.75
893.7359	1546.6132	65535	64632.3
893.8787	1548.4003	65535	64625.6
894.0214	1550.1867	65535	64625.2
894.1642	1551.9723	65535	64630.95
894.3069	1553.7572	65535	64634.7
894.4496	1555.5414	65535	64636.35
894.5923	1557.3247	65534.8	64636.5
894.735	1559.1074	65535	64636.75
894.8777	1560.8893	65535	64637.3
895.0204	1562.6705	65535	64635.4
895.163	1564.4509	65535	64635.9
895.3056	1566.2305	65535	64638.35
895.4482	1568.0094	65535	64636
895.5908	1569.7876	65535	64636.9
895.7334	1571.565	65535	64634.35
895.876	1573.3417	65535	64635.2
896.0186	1575.1176	65535	64635.9
896.1611	1576.8928	65535	64634.05
896.3036	1578.6672	65525.6	64628.85
896.4461	1580.4409	65535	64637.5
896.5886	1582.2138	65504.65	64603.1
896.7311	1583.986	65520.35	64621.8
896.8736	1585.7575	65471.6	64575
897.0161	1587.5282	65507.6	64610.05
897.1585	1589.2981	65499.05	64603.15
897.3009	1591.0673	65404.45	64507.95
897.4433	1592.8358	65279.65	64383.95
897.5857	1594.6035	65408.95	64509.2
897.7281	1596.3704	65426.2	64527.25
897.8705	1598.1366	65110.85	64215.6
898.0128	1599.9021	64869.1	63972.55
898.1551	1601.6668	65244	64345.6
898.2975	1603.4308	65071.75	64172.5
898.4398	1605.194	65080.25	64179.25
898.5821	1606.9564	64444.6	63546.2
898.7243	1608.7182	64821.15	63922.3
898.8666	1610.4791	64465.6	63571.9
899.0088	1612.2394	64860	63966.25
899.1511	1613.9988	64315	63420.05
899.2933	1615.7576	64902.95	64006.65
899.4355	1617.5156	64877.35	63972.85
899.5776	1619.2728	65247.3	64348.6
899.7198	1621.0293	64494.8	63599.3
899.862	1622.785	64538.25	63638
900.0041	1624.54	64802.3	63905.25
900.1462	1626.2942	64316	63418.8
900.2883	1628.0477	63478.5	62577.95
900.4304	1629.8005	62616.1	61715.05
900.5725	1631.5525	63516.6	62621.55
900.7145	1633.3037	62236.15	61340.4
900.8566	1635.0542	62058.05	61162.7
900.9986	1636.804	62606.7	61709.85
901.1406	1638.553	61355.1	60375.85
901.2826	1640.3013	61765.35	60869.2
901.4245	1642.0488	60929	60032.35
901.5665	1643.7955	61531.65	60636.95
901.7085	1645.5416	60952.25	60056.75
901.8504	1647.2868	60468.4	59572.2
901.9923	1649.0313	61322.7	60425.8
902.1342	1650.7751	60832	59932.35
902.2761	1652.5181	60365.75	59469.4
902.4179	1654.2604	60518.2	59621.5
902.5598	1656.0019	60976.1	60081.6
902.7016	1657.7427	60725.8	59830.7
902.8434	1659.4828	61395.4	60501.2
902.9852	1661.222	60901.3	60007.3
903.127	1662.9606	61479.5	60584.75
903.2687	1664.6984	60536.55	59638.9
903.4105	1666.4354	60798.4	59899.9
903.5522	1668.1717	59626.45	58729.8
903.6939	1669.9072	58758.95	57861.45
903.8356	1671.642	58497.85	57599.2
903.9773	1673.3761	58161	57266.85
904.119	1675.1094	57864.55	56968.95
904.2606	1676.8419	57311.35	56415.25
904.4022	1678.5737	57093.15	56196.75
904.5439	1680.3048	56820.15	55924.05
904.6855	1682.0351	56461.6	55563.65
904.827	1683.7646	56180.05	55281.25
904.9686	1685.4934	56318.15	55423.8
905.1101	1687.2215	55290.3	54394.8
905.2517	1688.9488	55821	54926.25
905.3932	1690.6754	54451	53557.1
905.5347	1692.4012	54915.85	54017.85
905.6761	1694.1263	54807.35	53911.8
905.8176	1695.8506	54467.2	53571.05
905.9591	1697.5742	54342.4	53447.65
906.1005	1699.297	54059.25	53161.85
906.2419	1701.0191	53992.15	53097.15
906.3833	1702.7404	53458.4	52565.2
906.5246	1704.461	53170.9	52274.6
906.666	1706.1808	53116.65	52219.85
906.8073	1707.8999	52990.8	52095.15
906.9487	1709.6182	52687.05	51791.3
907.09	1711.3358	52625	51731.95
907.2313	1713.0527	52437.2	51544.5
907.3725	1714.7688	52310.9	51410.3
907.5138	1716.4841	51763.4	50867.2
907.655	1718.1987	51866.5	50966.75
907.7962	1719.9126	51653	50760.2
907.9374	1721.6257	51510.2	50612.5
908.0786	1723.338	51517.35	50623.1
908.2198	1725.0496	50878.35	49984.75
908.3609	1726.7605	50859.5	49964.2
908.502	1728.4706	50642	49745.5
908.6431	1730.18	50410.5	49515
908.7842	1731.8886	50255.4	49361.85
908.9253	1733.5964	50103.6	49190.65
909.0664	1735.3036	50028.2	49132.65
909.2074	1737.0099	49891	48997.35
909.3484	1738.7156	49673	48781.3
909.4894	1740.4204	49450.95	48555.6
909.6304	1742.1246	49396.95	48501.05
909.7714	1743.8279	49200.7	48308.95
909.9123	1745.5306	49234.5	48338.85
910.0532	1747.2325	48881.95	47986.45
910.1941	1748.9336	48721.8	47828.25
910.335	1750.634	48547.9	47650.9
910.4759	1752.3336	48458.1	47565.45
910.6168	1754.0325	48336.55	47444.4
910.7576	1755.7307	48230.6	47336.55
910.8984	1757.4281	48086.25	47192.4
911.0392	1759.1247	48040.35	47137.95
911.18	1760.8206	47764.8	46864.8
911.3208	1762.5158	47745.6	46846.7
911.4615	1764.2102	47584.1	46689.95
911.6022	1765.9039	47308	46414.3
911.7429	1767.5968	47226.95	46332.55
911.8836	1769.289	47108.25	46214.3
912.0243	1770.9804	46948.8	46054.85
912.1649	1772.6711	46904.95	46010.5
912.3056	1774.361	46720.65	45825.85
912.4462	1776.0502	46627.75	45733.8
912.5868	1777.7386	46509.55	45612.6
912.7274	1779.4263	46283.35	45387.65
912.8679	1781.1132	46283.95	45389.15
913.0084	1782.7994	46082.45	45188.15
913.149	1784.4849	46045.25	45153.1
913.2895	1786.1696	45756.8	44857
913.4299	1787.8535	45663	44770.25
913.5704	1789.5367	45566.85	44673.15
913.7108	1791.2192	45437.25	44544.35
913.8513	1792.9009	45225.5	44304
913.9917	1794.5818	45166.1	44270.05
914.132	1796.2621	44994.1	44102.6
914.2724	1797.9415	44926.15	44030.5
914.4128	1799.6202	44745.1	43852.1
914.5531	1801.2982	44626.1	43731.55
914.6934	1802.9755	44509.85	43613.85
914.8337	1804.6519	44403.5	43510.2
914.9739	1806.3277	44140.3	43248.9
915.1142	1808.0027	43916.65	43023.8
915.2544	1809.6769	43908.25	43014.2
915.3946	1811.3504	43763.25	42866.25
915.5348	1813.0231	43626.45	42731.3
915.675	1814.6951	43627.15	42733.65
915.8151	1816.3664	43588.2	42693.75
915.9553	1818.0369	43448.95	42555.05
916.0954	1819.7067	43241.55	42348.9
916.2355	1821.3757	43120.9	42228.2
916.3755	1823.044	43084.95	42192.05
916.5156	1824.7115	42951.9	42059.35
916.6556	1826.3783	42745.55	41854.15
916.7956	1828.0443	42575.1	41680.55
916.9356	1829.7096	42473.55	41578.75
917.0756	1831.3741	42448.1	41551.6
917.2155	1833.0379	42302.75	41410.25
917.3555	1834.701	42124.9	41229.25
917.4954	1836.3633	42046.35	41153.25
917.6353	1838.0248	41954.2	41059.45
917.7751	1839.6856	41814.5	40919.55
917.915	1841.3457	41746.95	40855.9
918.0548	1843.005	41611.95	40718.45
918.1946	1844.6636	41530.45	40638.25
918.3344	1846.3214	41385.45	40492.1
918.4742	1847.9785	41319.6	40426.75
918.6139	1849.6349	41211.75	40315.65
918.7537	1851.2904	41097	40194.45
918.8934	1852.9453	40987.65	40093.1
919.0331	1854.5994	40842.5	39947.25
919.1727	1856.2528	40876.1	39978.6
919.3124	1857.9054	40726.45	39832.65
919.452	1859.5572	40661	39770.2
919.5916	1861.2083	40538.65	39643.85
919.7312	1862.8587	40492.1	39598.65
919.8708	1864.5084	40324.55	39429.2
920.0103	1866.1572	40111.85	39216.5
920.1498	1867.8054	39993.9	39101.3
920.2893	1869.4528	39987.75	39095.05
920.4288	1871.0994	39815.6	38922.85
920.5683	1872.7453	39718.8	38823.5
920.7077	1874.3905	39629.45	38729.75
920.8471	1876.0349	39432.75	38537.35
920.9865	1877.6786	39432.95	38537.75
921.1259	1879.3215	39395.85	38501.05
921.2653	1880.9637	39248.65	38356.35
921.4046	1882.6051	39195.6	38303.55
921.5439	1884.2458	39043.25	38149.35
921.6832	1885.8858	38887.65	37994.8
921.8225	1887.525	38763.5	37867.4
921.9617	1889.1634	38624.45	37731.75
922.101	1890.8011	38448.1	37552.55
922.2402	1892.4381	38351.45	37457.05
922.3794	1894.0743	38335.55	37441.95
922.5185	1895.7098	38221.9	37329.45
922.6577	1897.3446	38063.2	37171
922.7968	1898.9786	37941.5	37044.4
922.9359	1900.6118	37869.3	36978.75
923.075	1902.2443	37623.75	36729.3
923.214	1903.8761	37585.95	36694.45
923.3531	1905.5071	37374.25	36480.45
923.4921	1907.1374	37244.1	36349.45
923.6311	1908.7669	37133.2	36240.8
923.77	1910.3957	37062.35	36168
923.909	1912.0237	36841	35948.25
924.0479	1913.651	36789.55	35895.8
924.1868	1915.2776	36655.5	35763.55
924.3257	1916.9034	36533.05	35641.3
924.4646	1918.5285	36341.7	35450.45
924.6034	1920.1528	36169.05	35274.85
924.7422	1921.7764	36107.1	35212.5
924.881	1923.3992	35966.5	35073.2
925.0198	1925.0213	35706.6	34813.75
925.1586	1926.6427	35587.35	34695.75
925.2973	1928.2633	35602.45	34592.55
925.436	1929.8832	35393.35	34499.3
925.5747	1931.5023	35162.35	34267.9
925.7134	1933.1207	35128	34234.2
925.852	1934.7383	35029.1	34134.15
925.9906	1936.3552	34859.2	33966.05
926.1292	1937.9714	34768.35	33873.5
926.2678	1939.5868	34629.3	33736.5
926.4064	1941.2015	34449.75	33554.7
926.5449	1942.8154	34336.7	33443.05
926.6834	1944.4286	34136.6	33245.25
926.8219	1946.041	33988.8	33077.25
926.9604	1947.6528	33854	32955.45
927.0988	1949.2637	33765.2	32871.8
927.2372	1950.8739	33649.7	32756.75
927.3756	1952.4834	33577.75	32683.95
927.514	1954.0921	33523	32631.2
927.6523	1955.7001	33307.5	32411.95
927.7907	1957.3074	33203.25	32311.15
927.929	1958.9139	33048.5	32157.7
928.0673	1960.5197	32977.1	32083.3
928.2055	1962.1247	32783.2	31888.55
928.3438	1963.729	32645.55	31753.3
928.482	1965.3325	32519.1	31603.3
928.6202	1966.9353	32356.65	31463.85
928.7584	1968.5374	32294.15	31401.7
928.8965	1970.1387	32142.3	31249.9
929.0346	1971.7393	32051.5	31157.65
929.1727	1973.3392	31934.3	31041.55
929.3108	1974.9383	31845.35	30952.4
929.4489	1976.5366	31632.1	30738.45
929.5869	1978.1342	31588.95	30695.6
929.7249	1979.7311	31543.4	30650.15
929.8629	1981.3273	31429.9	30539.25
930.0009	1982.9227	31323.9	30430.3
930.1388	1984.5173	31180.7	30289.6
930.2767	1986.1112	31040.85	30148.75
930.4146	1987.7044	31004.85	30112.6
930.5525	1989.2968	30846.45	29951.85
930.6904	1990.8885	30838	29940.7
930.8282	1992.4795	30759.95	29865.1
930.966	1994.0697	30597.05	29706.55
931.1038	1995.6592	30446.4	29553.35
931.2415	1997.2479	30340.5	29449
931.3793	1998.8359	30285.6	29394.6
931.517	2000.4232	30110.9	29220.6
931.6547	2002.0097	29991.2	29101.3
931.7923	2003.5955	29829.95	28938.75
931.93	2005.1805	29841.95	28947.9
932.0676	2006.7648	29712.9	28821.55
932.2052	2008.3484	29631.05	28737.6
932.3427	2009.9312	29584.2	28690.1
932.4803	2011.5133	29448.8	28557.7
932.6178	2013.0946	29356.75	28464.4
932.7553	2014.6752	29291.75	28401.55
932.8928	2016.2551	29207.9	28317
933.0302	2017.8342	29056	28163.05
933.1676	2019.4126	28979.65	28088.95
933.305	2020.9902	28834	27943.15
933.4424	2022.5672	28773.6	27880.9
933.5798	2024.1433	28730.45	27833.4
933.7171	2025.7188	28566.4	27674.85
933.8544	2027.2935	28501.85	27610.2
933.9917	2028.8674	28382.2	27491.5
934.129	2030.4406	28279.45	27389.65
934.2662	2032.0131	28080.05	27189.65
934.4034	2033.5849	28022.8	27127.9
934.5406	2035.1559	27945.9	27053.25
934.6778	2036.7261	27945.05	27052.45
934.8149	2038.2957	27805.3	26915.05
934.952	2039.8645	27740.95	26849.45
935.0891	2041.4325	27734.95	26841.4
935.2262	2042.9998	27589.5	26698
935.3632	2044.5664	27531.85	26638.05
935.5002	2046.1323	27436.15	26544.3
935.6372	2047.6974	27303.85	26413.2
935.7742	2049.2617	27237.75	26347.1
935.9111	2050.8254	27234.25	26320.5
936.048	2052.3883	27176.6	26284.35
936.1849	2053.9504	27055.9	26163.2
936.3218	2055.5118	26941.95	26049.6
936.4586	2057.0725	26785.85	25890.7
936.5955	2058.6325	26754.15	25861.7
936.7323	2060.1917	26705.7	25816.15
936.869	2061.7502	26558.3	25663.75
937.0058	2063.3079	26466.8	25576.4
937.1425	2064.8649	26378.2	25482.3
937.2792	2066.4212	26319.6	25426.1
937.4159	2067.9767	26247.45	25356.7
937.5525	2069.5315	26101.85	25210.25
937.6891	2071.0856	26005.7	25114.3
937.8257	2072.6389	25891.8	25000.3
937.9623	2074.1915	25783.75	24893.8
938.0989	2075.7433	25610.45	24717.6
938.2354	2077.2945	25600.2	24709.15
938.3719	2078.8448	25491.15	24600
938.5084	2080.3945	25428.7	24538.1
938.6448	2081.9434	25384.35	24492.6
938.7812	2083.4916	25266.6	24375.65
938.9176	2085.039	25170.9	24278
939.054	2086.5857	25098.05	24203.7
939.1903	2088.1317	25038.5	24145.95
939.3267	2089.677	24970.25	24077.95
939.463	2091.2215	24890.55	24000.3
939.5992	2092.7652	24795.7	23900.95
939.7355	2094.3083	24728.95	23836.65
939.8717	2095.8506	24664	23772.5
940.0079	2097.3921	24642.8	23751.35
940.1441	2098.933	24567.5	23674.8
940.2802	2100.4731	24475.05	23585.05
940.4163	2102.0124	24441.5	23542.65
940.5524	2103.5511	24330.7	23438.85
940.6885	2105.089	24283.25	23391
940.8245	2106.6261	24219.5	23329.85
940.9606	2108.1626	24193.25	23301.35
941.0965	2109.6983	24089.8	23168.75
941.2325	2111.2332	23987.4	23094.55
941.3684	2112.7675	23903.85	23012.55
941.5044	2114.301	23833.9	22940.5
941.6403	2115.8337	23815.65	22921.5
941.7761	2117.3657	23713.45	22821.15
941.912	2118.897	23640.25	22747.5
942.0478	2120.4276	23553.85	22656.75
942.1835	2121.9575	23421.65	22528.45
942.3193	2123.4866	23462.85	22569.15
942.455	2125.0149	23369.15	22475
942.5907	2126.5426	23239.3	22348.6
942.7264	2128.0695	23175.45	22279.4
942.8621	2129.5956	23112.9	22222
942.9977	2131.1211	23061.1	22164.8
943.1333	2132.6458	22995.2	22104.15
943.2689	2134.1698	22952.8	22060.8
943.4044	2135.693	22859.1	21964.3
943.54	2137.2155	22808.9	21913.55
943.6755	2138.7373	22742.8	21849.5
943.8109	2140.2584	22646.7	21753.85
943.9464	2141.7787	22576.45	21679.75
944.0818	2143.2983	22485.05	21594.05
944.2172	2144.8171	22351.1	21462.35
944.3526	2146.3353	22308.7	21414.9
944.4879	2147.8527	22198.75	21306.8
944.6232	2149.3693	22161.95	21269.9
944.7585	2150.8853	22092.4	21199.5
944.8938	2152.4005	21989.65	21098.15
945.029	2153.9149	21912.8	21021.3
945.1642	2155.4287	21844.95	20952.65
945.2994	2156.9417	21790.85	20897.9
945.4346	2158.454	21765.2	20873.45
945.5697	2159.9655	21646.1	20756.05
945.7048	2161.4764	21632.65	20741.9
945.8399	2162.9865	21526.1	20634.45
945.9749	2164.4958	21503.5	20609.2
946.1099	2166.0045	21400.7	20505.4
946.2449	2167.5124	21400.75	20508.65
946.3799	2169.0195	21312.1	20421.4
946.5148	2170.526	21280.5	20389.95
946.6498	2172.0317	21186.45	20295.45
946.7846	2173.5367	21102.15	20210.25
946.9195	2175.0409	21032.05	20141.7
947.0543	2176.5445	21055.95	20163.9
947.1891	2178.0473	20954.45	20062.3
947.3239	2179.5494	20857.75	19960.2
947.4587	2181.0507	20802.6	19908.75
947.5934	2182.5513	20711.6	19821.05
947.7281	2184.0512	20686.35	19794.45
947.8628	2185.5504	20565.65	19674.9
947.9974	2187.0488	20454.75	19564
948.132	2188.5465	20394.15	19502.75
948.2666	2190.0435	20309.4	19417
948.4012	2191.5397	20236.6	19343.85
948.5357	2193.0353	20211	19320.5
948.6702	2194.5301	20116.15	19223
948.8047	2196.0241	20043.2	19150.2
948.9392	2197.5175	19963.75	19071.65
949.0736	2199.0101	19873.55	18977.1
949.208	2200.502	19746.45	18855.4
949.3424	2201.9931	19677.4	18784.85
949.4767	2203.4835	19629.35	18736.45
949.611	2204.9733	19570.75	18672.95
949.7453	2206.4622	19503.3	18611.2
949.8796	2207.9505	19447.85	18552.25
950.0138	2209.438	19315.8	18424.2
950.148	2210.9248	19261.55	18368.35
950.2822	2212.4109	19193.3	18301.95
950.4164	2213.8962	19139.35	18244.9
950.5505	2215.3809	19119.4	18228.7
950.6846	2216.8648	19040.75	18147.2
950.8186	2218.3479	18975.8	18077.2
950.9527	2219.8304	18899.85	18005.6
951.0867	2221.3121	18826.75	17932.4
951.2207	2222.7931	18744.65	17850.6
951.3546	2224.2733	18696.25	17803.25
951.4886	2225.7529	18592.9	17698.75
951.6225	2227.2317	18540.5	17646.75
951.7563	2228.7098	18511.05	17619.9
951.8902	2230.1872	18431.65	17539.75
952.024	2231.6638	18418.35	17527.65
952.1578	2233.1397	18311.75	17413.3
952.2916	2234.6149	18268.35	17377.65
952.4253	2236.0894	18186.45	17293.7
952.559	2237.5632	18174.75	17274.45
952.6927	2239.0362	18078.65	17185.8
952.8263	2240.5085	17996.45	17103.7
952.9599	2241.9801	17922.3	17030.9
953.0935	2243.4509	17854.75	16960.75
953.2271	2244.921	17805.35	16913.6
953.3606	2246.3904	17707.6	16813.4
953.4941	2247.8591	17671.65	16780.7
953.6276	2249.3271	17616.25	16725.75
953.7611	2250.7943	17547.9	16655.9
953.8945	2252.2608	17454.1	16561.25
954.0279	2253.7266	17445.35	16553.7
954.1612	2255.1917	17396.5	16502.3
954.2946	2256.656	17304.3	16411.95
954.4279	2258.1197	17262.2	16369.8
954.5612	2259.5826	17185.3	16290.35
954.6944	2261.0447	17146.9	16255.15
954.8276	2262.5062	17062.15	16167.65
954.9608	2263.9669	17047	16152.55
955.094	2265.4269	17022.25	16131.2
955.2271	2266.8862	16944.65	16052.2
955.3602	2268.3448	16896.9	16004.35
955.4933	2269.8026	16870.35	15980.05
955.6264	2271.2598	16803.55	15911.45
955.7594	2272.7162	16682.15	15789.85
955.8924	2274.1719	16662.2	15769.45
956.0253	2275.6268	16624.05	15730.7
956.1583	2277.0811	16585.05	15692.55
956.2912	2278.5346	16536.9	15646.2
956.4241	2279.9874	16491.2	15598.45
956.5569	2281.4395	16455.9	15565.2
956.6897	2282.8908	16383.75	15488.75
956.8225	2284.3414	16368.1	15473.35
956.9553	2285.7914	16282.1	15391.5
957.088	2287.2406	16224.95	15331.45
957.2207	2288.689	16186.55	15294.65
957.3534	2290.1368	16112.8	15219.2
957.486	2291.5838	16053.75	15158.5
957.6186	2293.0302	15977.55	15085.05
957.7512	2294.4758	15934.75	15043.65
957.8838	2295.9206	15870.45	14977.5
958.0163	2297.3648	15830.75	14937.7
958.1488	2298.8082	15816.35	14924.3
958.2813	2300.251	15757.25	14865.05
958.4137	2301.693	15711.55	14816.5
958.5461	2303.1343	15691.7	14797.9
958.6785	2304.5748	15621.9	14730.95
958.8108	2306.0147	15543.75	14652.95
958.9432	2307.4538	15503.9	14610.55
959.0754	2308.8922	15443.1	14551.4
959.2077	2310.3299	15404.75	14513.1
959.3399	2311.7669	15349.6	14459
959.4721	2313.2031	15299.8	14407.65
959.6043	2314.6387	15240.05	14348.25
959.7365	2316.0735	15176.5	14283.65
959.8686	2317.5076	15146.4	14254.55
960.0006	2318.941	15101.8	14209.15
960.1327	2320.3737	15054.15	14159.6
960.2647	2321.8056	15010.7	14117.2
960.3967	2323.2369	14906.75	14013.4
960.5287	2324.6674	14897.05	14003.7
960.6606	2326.0972	14829.25	13936.4
960.7925	2327.5263	14766.75	13876.2
960.9244	2328.9547	14737.55	13844.45
961.0562	2330.3823	14704.7	13812.55
961.1881	2331.8092	14668.95	13774.3
961.3198	2333.2355	14581.6	13689.15
961.4516	2334.661	14579.15	13686.4
961.5833	2336.0858	14530.1	13638.55
961.715	2337.5098	14484.7	13592.05
961.8467	2338.9332	14458.75	13566.35
961.9783	2340.3558	14381.45	13484.85
962.1099	2341.7778	14323.65	13432.7
962.2415	2343.199	14303.4	13410.4
962.373	2344.6195	14248.75	13355.75
962.5045	2346.0393	14225.7	13335.7
962.636	2347.4583	14178.55	13284.65
962.7675	2348.8767	14128.9	13236.55
962.8989	2350.2943	14082.5	13188.65
963.0303	2351.7113	14049	13152.8
963.1617	2353.1275	13997.2	13104.25
963.293	2354.543	13955.9	13055.2
963.4243	2355.9578	13901.9	13010.45
963.5556	2357.3718	13802.6	12911.15
963.6868	2358.7852	13721.95	12828.1
963.818	2360.1978	13707.25	12812.95
963.9492	2361.6098	13677.35	12783.65
964.0803	2363.021	13629.35	12733.2
964.2114	2364.4315	13564.2	12671
964.3425	2365.8413	13539.15	12646.75
964.4736	2367.2504	13486.5	12593.7
964.6046	2368.6587	13410.25	12518.25
964.7356	2370.0664	13331.55	12437.9
964.8666	2371.4733	13286.95	12395.35
964.9975	2372.8795	13257.95	12366.3
965.1284	2374.285	13188.75	12295.6
965.2593	2375.6899	13122.65	12231.7
965.3901	2377.0939	13068.35	12175.95
965.5209	2378.4973	13017.65	12126.7
965.6517	2379.9	12964.55	12070.6
965.7825	2381.3019	12954.3	12063.7
965.9132	2382.7032	12911.9	12018.65
966.0439	2384.1037	12850.9	11962.6
966.1745	2385.5035	12814.55	11924.95
966.3051	2386.9027	12769.35	11877.7
966.4357	2388.3011	12711.95	11817.7
966.5663	2389.6987	12686.9	11795.25
966.6968	2391.0957	12626.05	11735.45
966.8273	2392.492	12578.9	11688.6
966.9578	2393.8876	12514.95	11624.35
967.0882	2395.2824	12444.65	11553.4
967.2186	2396.6765	12362.15	11472.85
967.349	2398.07	12318	11426.25
967.4793	2399.4627	12298.55	11407.45
967.6097	2400.8547	12248.9	11358.65
967.7399	2402.246	12251.05	11353.8
967.8702	2403.6366	12138.5	11245.35
968.0004	2405.0265	12097.55	11207.3
968.1306	2406.4156	12065.1	11168.7
968.2607	2407.8041	12012.6	11119.05
968.3909	2409.1918	11975.05	11082.55
968.521	2410.5789	11926.5	11035.55
968.651	2411.9652	11886.7	10990.9
968.781	2413.3508	11858	10966.75
968.911	2414.7358	11796.95	10906.5
969.041	2416.12	11741	10851.05
969.1709	2417.5035	11704.05	10812.8
969.3008	2418.8863	11642.9	10752.45
969.4307	2420.2684	11603.8	10712.15
969.5606	2421.6497	11563.95	10670.65
969.6904	2423.0304	11507.3	10617.05
969.8201	2424.4104	11462.25	10570
969.9499	2425.7896	11450.65	10556.2
970.0796	2427.1682	11394.2	10502.25
970.2093	2428.546	11396.4	10504.7
970.3389	2429.9232	11337.2	10444.4
970.4685	2431.2996	11313.3	10422.2
970.5981	2432.6753	11295.7	10405.35
970.7277	2434.0503	11265.9	10375.6
970.8572	2435.4246	11210.35	10319.05
970.9867	2436.7982	11145.7	10252.95
971.1161	2438.1711	11135	10244.15
971.2456	2439.5433	11078.25	10186.45
971.375	2440.9148	11034.45	10140.9
971.5043	2442.2856	10984.5	10093.5
971.6336	2443.6557	10952.9	10060.05
971.7629	2445.025	10915.2	10024.1
971.8922	2446.3937	10896.4	10005.6
972.0214	2447.7617	10864.15	9972.4
972.1506	2449.1289	10816.45	9923.45
972.2798	2450.4955	10805.65	9912.05
972.4089	2451.8613	10736.35	9844.5
972.538	2453.2265	10696.8	9805.65
972.6671	2454.5909	10712.6	9820.85
972.7961	2455.9546	10674.45	9783.9
972.9251	2457.3177	10624.1	9733.15
973.0541	2458.68	10593	9701.7
973.1831	2460.0416	10567.95	9677.05
973.312	2461.4025	10563.75	9669.85
973.4408	2462.7627	10522.15	9619.15
973.5697	2464.1222	10477.35	9586.6
973.6985	2465.4811	10431.3	9537.6
973.8273	2466.8392	10396.65	9503.35
973.956	2468.1966	10388.15	9495.85
974.0847	2469.5533	10356.55	9464.2
974.2134	2470.9093	10338.45	9445
974.3421	2472.2645	10303.15	9411.25
974.4707	2473.6191	10255.15	9364.3
974.5993	2474.973	10218.3	9327.2
974.7278	2476.3262	10172.3	9279.3
974.8563	2477.6787	10141.55	9252.85
974.9848	2479.0305	10086.45	9196.3
975.1132	2480.3816	10068.65	9175.85
975.2417	2481.7319	10028.45	9137.8
975.37	2483.0816	9987.45	9094.85
975.4984	2484.4306	9954.9	9062.45
975.6267	2485.7789	9922.45	9032
975.755	2487.1264	9865.9	8973.9
975.8833	2488.4733	9822.6	8932.5
976.0115	2489.8195	9771.7	8861.3
976.1397	2491.165	9723.7	8827.65
976.2678	2492.5097	9706.3	8812.3
976.3959	2493.8538	9665.75	8773.85
976.524	2495.1972	9620.25	8729.15
976.6521	2496.5398	9590	8698.25
976.7801	2497.8818	9565.25	8671.35
976.9081	2499.2231	9541.45	8649.05
977.036	2500.5637	9471.35	8577.65
977.164	2501.9035	9466.05	8571.15
977.2918	2503.2427	9437.85	8541.65
977.4197	2504.5812	9392.6	8502.25
977.5475	2505.919	9362.05	8468
977.6753	2507.256	9363	8471.95
977.8031	2508.5924	9300.25	8408.3
977.9308	2509.9281	9265.6	8368.5
978.0585	2511.2631	9228.8	8336.5
978.1861	2512.5974	9236.9	8345.9
978.3137	2513.9309	9175.9	8282.6
978.4413	2515.2638	9164.7	8247.65
978.5689	2516.596	9136.6	8245.4
978.6964	2517.9275	9092.15	8198.45
978.8239	2519.2583	9061.75	8168.85
978.9513	2520.5884	9026.3	8132.3
979.0788	2521.9178	8998.8	8108.45
979.2062	2523.2465	8951.4	8059.45
979.3335	2524.5745	8884.55	7990.9
979.4608	2525.9018	8869.65	7976.85
979.5881	2527.2284	8839.15	7949.3
979.7154	2528.5543	8820.5	7929.9
979.8426	2529.8796	8795.9	7903.5
979.9698	2531.2041	8767.7	7874.1
980.0969	2532.5279	8726.45	7836.25
980.224	2533.851	8721.05	7829
980.3511	2535.1735	8677.4	7786.5
980.4781	2536.4952	8680.7	7789.1
980.6052	2537.8163	8667.55	7774.4
980.7321	2539.1366	8614.45	7724.25
980.8591	2540.4562	8610.65	7717.15
980.986	2541.7752	8589.75	7700.05
981.1129	2543.0935	8559.2	7668.55
981.2397	2544.411	8565.95	7673.2
981.3665	2545.7279	8525.55	7633.6
981.4933	2547.0441	8533.05	7639.05
981.62	2548.3596	8515.85	7619.75
981.7467	2549.6744	8466	7574.05
981.8734	2550.9885	8434.25	7541.5
982.0001	2552.3019	8388.35	7495.4
982.1267	2553.6146	8401.1	7508.85
982.2532	2554.9266	8351.75	7460.7
982.3798	2556.2379	8342.25	7447.5
982.5063	2557.5485	8323.85	7433.05
982.6327	2558.8585	8290	7390.45
982.7592	2560.1677	8270.2	7371.75
982.8856	2561.4762	8269.55	7376.2
983.0119	2562.7841	8233.4	7339.15
983.1383	2564.0913	8222.65	7332.05
983.2646	2565.3977	8181.3	7290.7
983.3908	2566.7035	8172.5	7279.8
983.517	2568.0086	8145.5	7250.2
983.6432	2569.313	8120.4	7228.95
983.7694	2570.6167	8129.05	7234.75
983.8955	2571.9197	8101.9	7211.65
984.0216	2573.222	8076.35	7180.55
984.1476	2574.5236	8083.5	7190.25
984.2737	2575.8246	8037.65	7145.1
984.3996	2577.1248	8023.6	7128.05
984.5256	2578.4244	8006.15	7112.9
984.6515	2579.7232	7988.15	7094.1
984.7774	2581.0214	7997.35	7082.55
984.9032	2582.3189	7966.4	7074.65
985.029	2583.6157	7929.8	7032.5
985.1548	2584.9118	7915.3	7023.7
985.2806	2586.2072	7890.9	6998.75
985.4063	2587.5019	7873.45	6982.55
985.5319	2588.7959	7847.2	6953.9
985.6576	2590.0893	7843.5	6948.95
985.7832	2591.3819	7825.2	6932.9
985.9087	2592.6739	7781.9	6890.15
986.0343	2593.9652	7769.1	6875.2
986.1597	2595.2557	7741.75	6849.75
986.2852	2596.5456	7708.75	6814.85
986.4106	2597.8348	7683.25	6791.6
986.536	2599.1234	7643.25	6753.7
986.6614	2600.4112	7635	6743.9
986.7867	2601.6983	7609.7	6714.15
986.912	2602.9848	7571.25	6677.7
987.0372	2604.2705	7531.15	6631.85
987.1624	2605.5556	7534.55	6640.6
987.2876	2606.84	7499.05	6610.05
987.4128	2608.1237	7475.65	6581.85
987.5379	2609.4067	7441.45	6548.7
987.6629	2610.689	7423.6	6524.15
987.788	2611.9707	7386.85	6491.15
987.913	2613.2516	7357.2	6459.55
988.0379	2614.5319	7314.5	6423.05
988.1629	2615.8115	7290	6396.9
988.2878	2617.0903	7268.9	6374.75
988.4126	2618.3685	7255.4	6362.95
988.5375	2619.6461	7219.75	6327.3
988.6622	2620.9229	7204.35	6309.85
988.787	2622.199	7178.9	6289.3
988.9117	2623.4745	7166	6273
989.0364	2624.7493	7152.05	6259.5
989.161	2626.0234	7099.25	6208.3
989.2857	2627.2968	7081.35	6190.3
989.4102	2628.5695	7054.9	6162
989.5348	2629.8415	7013.4	6122.05
989.6593	2631.1128	7003.55	6110.65
989.7837	2632.3835	6967.9	6075.55
989.9082	2633.6535	6949.4	6057.85
990.0326	2634.9228	6926.85	6035.8
990.1569	2636.1914	6889.1	5996.9
990.2812	2637.4593	6898.8	5999.7
990.4055	2638.7265	6861.2	5968.65
990.5298	2639.9931	6810.95	5919.25
990.654	2641.259	6826.6	5932.9
990.7782	2642.5242	6814.9	5920.6
990.9023	2643.7887	6758.8	5866.55
991.0264	2645.0525	6748.75	5857.3
991.1505	2646.3156	6722.45	5828.4
991.2745	2647.5781	6700.95	5809.95
991.3985	2648.8398	6679.05	5787.45
991.5225	2650.1009	6653.25	5752.65
991.6464	2651.3613	6636.9	5746.35
991.7703	2652.6211	6595	5702.05
991.8942	2653.8801	6603.75	5712.6
992.018	2655.1385	6600.95	5703.6
992.1418	2656.3961	6570.15	5678.4
992.2655	2657.6531	6552.2	5660.9
992.3892	2658.9094	6528.45	5635.45
992.5129	2660.1651	6505	5615.25
992.6366	2661.42	6480	5587.85
992.7602	2662.6743	6477.65	5584.4
992.8837	2663.9279	6474.05	5582.4
993.0073	2665.1808	6444.45	5551
993.1307	2666.433	6438.9	5546.6
993.2542	2667.6846	6413.25	5522.05
993.3776	2668.9354	6415.5	5521.85
993.501	2670.1856	6361.65	5467.05
993.6244	2671.4351	6364.8	5475.1
993.7477	2672.6839	6358.1	5465.4
993.8709	2673.9321	6327.6	5436.2
993.9942	2675.1795	6324.1	5432.85
994.1174	2676.4263	6307.7	5417.45
994.2405	2677.6724	6276.85	5384.45
994.3637	2678.9179	6264.6	5372.5
994.4868	2680.1626	6257.3	5367.55
994.6098	2681.4067	6249.5	5359.3
994.7328	2682.6501	6224.1	5333.9
994.8558	2683.8928	6196.05	5304.6
994.9788	2685.1348	6172.6	5281.1
995.1017	2686.3761	6144.35	5253.35
995.2245	2687.6168	6114	5222.7
995.3474	2688.8568	6118.1	5226.45
995.4702	2690.0961	6060.3	5169.4
995.5929	2691.3348	6074.8	5183
995.7156	2692.5727	6045.8	5154.3
995.8383	2693.81	6004	5110.8
995.961	2695.0466	5978.65	5085.95
996.0836	2696.2826	5985.95	5091.15
996.2062	2697.5178	5951.5	5056.4
996.3287	2698.7524	5945.85	5052.45
996.4512	2699.9863	5937.05	5043
996.5737	2701.2195	5915.95	5025.65
996.6961	2702.452	5904.7	5011.5
996.8185	2703.6839	5876.55	4984.9
996.9408	2704.9151	5872.75	4981.95
997.0631	2706.1456	5854.6	4962.45
997.1854	2707.3755	5848.95	4955.8
997.3077	2708.6046	5828.25	4932.95
997.4299	2709.8331	5816	4923.25
997.552	2711.0609	5782	4889.05
997.6742	2712.2881	5776.75	4884.7
997.7963	2713.5145	5780.5	4886.85
997.9183	2714.7403	5764.95	4875.6
998.0403	2715.9654	5753.25	4860.5
998.1623	2717.1899	5746.75	4840.35
998.2842	2718.4136	5737.65	4843.8
998.4062	2719.6367	5731.6	4839.5
998.528	2720.8591	5719.85	4820.45
998.6498	2722.0809	5710.35	4816.3
998.7716	2723.3019	5683.95	4789.9
998.8934	2724.5223	5697.8	4803.65
999.0151	2725.7421	5660.45	4767.55
999.1368	2726.9611	5666.55	4772.5
999.2584	2728.1795	5645.6	4750.05
999.38	2729.3972	5614	4721.95
999.5016	2730.6142	5606.7	4702.55
999.6231	2731.8306	5563.7	4668.45
999.7446	2733.0462	5522.2	4627.4
999.8661	2734.2612	5491.5	4594.15
999.9875	2735.4756	5472.75	4579
1000.1089	2736.6892	5403.8	4512
1000.2302	2737.9022	5378.5	4486.1
1000.3515	2739.1145	5361.15	4469.7
1000.4728	2740.3262	5323.85	4424.1
1000.594	2741.5372	5305	4411.65
1000.7152	2742.7475	5272.1	4378.05
1000.8363	2743.9571	5255.65	4360.9
1000.9575	2745.1661	5229	4333.35
1001.0785	2746.3744	5221.1	4326.95
1001.1996	2747.582	5191.45	4301.5
1001.3206	2748.7889	5163.7	4269.8
1001.4415	2749.9952	5136.45	4245.5
1001.5625	2751.2008	5140.2	4248
1001.6833	2752.4057	5117.25	4221.65
1001.8042	2753.61	5085.7	4194.35
1001.925	2754.8136	5063.4	4166.35
1002.0458	2756.0165	5047.1	4153.85
1002.1665	2757.2188	5050.5	4159.15
1002.2872	2758.4204	5032.15	4140
1002.4078	2759.6213	4984	4089.95
1002.5285	2760.8215	4984.05	4089.1
1002.649	2762.0211	4977.15	4083.8
1002.7696	2763.22	4953.55	4059.35
1002.8901	2764.4182	4929.45	4035.45
1003.0106	2765.6158	4930.1	4038.1
1003.131	2766.8127	4917.25	4025.9
1003.2514	2768.009	4890.2	3997.25
1003.3717	2769.2045	4873.55	3981.35
1003.492	2770.3994	4859.95	3966.5
1003.6123	2771.5936	4846.75	3952.95
1003.7325	2772.7872	4822	3931.6
1003.8527	2773.9801	4796.6	3903.95
1003.9729	2775.1723	4795.7	3887.35
1004.093	2776.3639	4766.05	3875.75
1004.2131	2777.5548	4751.65	3858.5
1004.3331	2778.745	4734.95	3840.85
1004.4531	2779.9346	4729.05	3838.25
1004.5731	2781.1235	4720.3	3826.65
1004.693	2782.3117	4713.25	3820.55
1004.8129	2783.4992	4696.15	3805.25
1004.9328	2784.6861	4685.65	3791.6
1005.0526	2785.8723	4706.45	3813.1
1005.1723	2787.0579	4678.2	3786.15
1005.2921	2788.2428	4660.35	3769.85
1005.4118	2789.427	4663.9	3773
1005.5314	2790.6106	4653.45	3762.15
1005.651	2791.7935	4645.8	3752.1
1005.7706	2792.9757	4642.4	3752.9
1005.8902	2794.1573	4644.65	3751.75
1006.0097	2795.3382	4633.3	3740.15
1006.1291	2796.5184	4631.8	3741.45
1006.2485	2797.698	4632.8	3738.7
1006.3679	2798.8769	4656.65	3764.45
1006.4873	2800.0551	4647.9	3757.1
1006.6066	2801.2327	4641.2	3747.8
1006.7258	2802.4096	4653.6	3762.1
1006.8451	2803.5859	4653.5	3760.75
1006.9642	2804.7615	4645	3750.85
1007.0834	2805.9364	4660.15	3769.1
1007.2025	2807.1106	4687.05	3796.5
1007.3216	2808.2842	4691	3799.65
1007.4406	2809.4572	4731.85	3838.6
1007.5596	2810.6294	4744.35	3851.2
1007.6785	2811.801	4762.55	3870.85
1007.7975	2812.972	4785.55	3893.3
1007.9163	2814.1423	4822.85	3931.2
1008.0352	2815.3119	4860.85	3971.3
1008.154	2816.4808	4892.85	4002.55
1008.2727	2817.6491	4948.6	4056.1
1008.3914	2818.8167	4978.05	4087.7
1008.5101	2819.9837	5012.45	4118.05
1008.6288	2821.15	5041.95	4150.7
1008.7474	2822.3157	5095.2	4203.1
1008.8659	2823.4807	5112.9	4220.3
1008.9844	2824.645	5139.1	4245.75
1009.1029	2825.8086	5179.9	4290.1
1009.2214	2826.9716	5200.85	4310.75
1009.3398	2828.134	5231.2	4340.95
1009.4581	2829.2957	5267.85	4375.75
1009.5764	2830.4567	5297.4	4407.5
1009.6947	2831.617	5288.65	4398
1009.813	2832.7767	5306.35	4415.1
1009.9312	2833.9358	5293.85	4402.8
1010.0493	2835.0941	5291.05	4396.9
1010.1675	2836.2519	5239.6	4348.4
1010.2855	2837.4089	5229	4337.3
1010.4036	2838.5653	5231.4	4339.95
1010.5216	2839.7211	5225.8	4336.25
1010.6396	2840.8761	5221.15	4328.65
1010.7575	2842.0306	5243.2	4351.25
1010.8754	2843.1843	5277.45	4385.65
1010.9932	2844.3374	5297.55	4404.95
1011.111	2845.4899	5351.65	4460.9
1011.2288	2846.6417	5405.65	4514.55
1011.3465	2847.7928	5474.7	4583.5
1011.4642	2848.9433	5548.3	4659.55
1011.5818	2850.0931	5619.45	4727.25
1011.6995	2851.2422	5691.35	4797.8
1011.817	2852.3907	5745.7	4853.4
1011.9345	2853.5385	5792.9	4897.5
1012.052	2854.6857	5876.3	4959.65
1012.1695	2855.8323	5885.9	4995.55
1012.2869	2856.9781	5939.9	5050.05
1012.4042	2858.1233	5969	5077.4
1012.5216	2859.2679	6005.1	5113.55
1012.6389	2860.4118	6041.4	5149.8
1012.7561	2861.555	6069.4	5173.2
1012.8733	2862.6976	6095.65	5199.3
1012.9905	2863.8395	6104.8	5214.2
1013.1076	2864.9808	6118.6	5227.4
1013.2247	2866.1214	6136.4	5248
1013.3417	2867.2614	6130.65	5239.45
1013.4587	2868.4007	6124.6	5230.3
1013.5757	2869.5393	6123.1	5229.9
1013.6926	2870.6773	6127.5	5233.55
1013.8095	2871.8146	6135.55	5241.35
1013.9263	2872.9513	6131.45	5237.2
1014.0431	2874.0874	6094.9	5204.8
1014.1599	2875.2227	6076.1	5184.35
1014.2766	2876.3574	6062.85	5171.45
1014.3933	2877.4915	6011.6	5120.75
1014.51	2878.6249	5985.75	5095.05
1014.6266	2879.7577	5951.5	5057.9
1014.7431	2880.8898	5934.35	5029.25
1014.8596	2882.0212	5880.1	4988.55
1014.9761	2883.152	5863.9	4971.15
1015.0925	2884.2821	5854.5	4963.3
1015.2089	2885.4116	5840.4	4948.4
1015.3253	2886.5405	5825.75	4935.8
1015.4416	2887.6686	5812.9	4918.9
1015.5579	2888.7962	5812.45	4922.65
1015.6741	2889.923	5804.55	4913.5
1015.7903	2891.0493	5801.7	4911.1
1015.9065	2892.1748	5808.4	4918
1016.0226	2893.2997	5788.65	4894.25
1016.1387	2894.424	5803.25	4911.15
1016.2547	2895.5476	5812.35	4922.55
1016.3707	2896.6706	5825.35	4934
1016.4866	2897.7929	5834.5	4942.6
1016.6025	2898.9145	5848	4957.65
1016.7184	2900.0355	5889.3	4997
1016.8342	2901.1559	5910.25	5019.4
1016.95	2902.2756	5932	5041.95
1017.0658	2903.3946	5939.3	5048.95
1017.1815	2904.513	5955.3	5062
1017.2971	2905.6308	5971.3	5080.55
1017.4127	2906.7479	5997.8	5104.7
1017.5283	2907.8643	6006.15	5113.65
1017.6439	2908.9801	6018	5128.9
1017.7594	2910.0953	6013	5122.45
1017.8748	2911.2098	6008.05	5114.25
1017.9902	2912.3236	5986.9	5089.35
1018.1056	2913.4368	5966.75	5072.55
1018.2209	2914.5494	5955.6	5062.6
1018.3362	2915.6613	5907.05	5010.4
1018.4515	2916.7725	5876.4	4982.55
1018.5667	2917.8831	5844.7	4952.1
1018.6819	2918.9931	5791.05	4896.05
1018.797	2920.1024	5762.05	4870.3
1018.9121	2921.211	5737.2	4844.9
1019.0271	2922.319	5698.3	4808
1019.1421	2923.4264	5681.25	4789.4
1019.2571	2924.5331	5649.45	4758.65
1019.372	2925.6391	5618.7	4728
1019.4869	2926.7445	5629.05	4737.35
1019.6017	2927.8493	5602.7	4711.6
1019.7165	2928.9534	5584.4	4693.25
1019.8313	2930.0569	5563.95	4667.5
1019.946	2931.1597	5550.65	4658.35
1020.0606	2932.2619	5523.8	4633.6
1020.1753	2933.3634	5530.1	4639.7
1020.2899	2934.4643	5506.9	4609.3
1020.4044	2935.5645	5474.75	4576.7
1020.5189	2936.6641	5432.4	4537.15
1020.6334	2937.763	5387.75	4495.8
1020.7478	2938.8613	5328.9	4435.6
1020.8622	2939.959	5266.6	4371.85
1020.9765	2941.056	5177.85	4287.95
1021.0908	2942.1523	5089.75	4199.15
1021.2051	2943.248	4984.95	4095.15
1021.3193	2944.3431	4882.1	3990.5
1021.4334	2945.4375	4777.35	3884.85
1021.5476	2946.5313	4671.2	3782.35
1021.6617	2947.6244	4548	3656.45
1021.7757	2948.7169	4460.8	3569.4
1021.8897	2949.8087	4362.2	3469.55
1022.0037	2950.8999	4249.5	3357.65
1022.1176	2951.9904	4149.6	3259.2
1022.2315	2953.0803	4077.9	3185.9
1022.3453	2954.1696	4001.55	3110.05
1022.4591	2955.2582	3947.05	3057.5
1022.5728	2956.3462	3890.45	2999.65
1022.6865	2957.4335	3835.8	2943.3
1022.8002	2958.5202	3800.35	2907.9
1022.9138	2959.6062	3759.65	2868.45
1023.0274	2960.6916	3718.75	2826.95
1023.141	2961.7764	3697.5	2803.85
1023.2545	2962.8605	3663	2770.65
1023.3679	2963.9439	3659.65	2766.2
1023.4813	2965.0267	3639.75	2748.25
1023.5947	2966.1089	3638.95	2725.55
1023.708	2967.1905	3608.6	2715.9
1023.8213	2968.2714	3610.9	2721.5
1023.9346	2969.3516	3574.95	2684.95
1024.0478	2970.4312	3581.55	2683.9
1024.1609	2971.5102	3573.6	2681.85
1024.274	2972.5885	3565.2	2674.45
1024.3871	2973.6662	3577.65	2684.4
1024.5002	2974.7432	3557.55	2665.05
1024.6132	2975.8196	3527.35	2637
1024.7261	2976.8954	3522.2	2632
1024.839	2977.9705	3499.25	2609.3
1024.9519	2979.045	3474.9	2585.1
1025.0647	2980.1188	3445.15	2555.95
1025.1775	2981.192	3425.45	2534.65
1025.2902	2982.2645	3401.2	2509.3
1025.4029	2983.3364	3362.25	2471.35
1025.5156	2984.4077	3326.7	2437.05
1025.6282	2985.4783	3300.7	2403.25
1025.7407	2986.5483	3265.25	2375.7
1025.8532	2987.6177	3211.5	2320.7
1025.9657	2988.6864	3189.95	2299
1026.0782	2989.7545	3146.85	2254.45
1026.1906	2990.8219	3100.95	2209.95
1026.3029	2991.8887	3062.5	2168.95
1026.4152	2992.9548	3028.05	2138.9
1026.5275	2994.0204	2988.55	2099.1
1026.6397	2995.0852	2951.25	2063.45
1026.7519	2996.1495	2932.5	2038.7
1026.864	2997.2131	2895.65	2005.9
1026.9761	2998.276	2871	1981
1027.0882	2999.3383	2847.35	1955.25
1027.2002	3000.4	2826.05	1934.5
1027.3122	3001.4611	2801.7	1911.1
1027.4241	3002.5215	2782.4	1891.7
1027.536	3003.5812	2771.5	1881.9
1027.6478	3004.6404	2749.65	1860.05
1027.7596	3005.6989	2739.95	1848.55
1027.8714	3006.7567	2728.05	1836.55
1027.9831	3007.8139	2723.4	1809.3
1028.0947	3008.8705	2698.3	1806.3
1028.2064	3009.9264	2692.55	1798.35
1028.3179	3010.9818	2671.2	1780.7
1028.4295	3012.0364	2666	1773.95
1028.541	3013.0905	2651.6	1760.7
1028.6524	3014.1439	2646.2	1756.7
1028.7638	3015.1966	2633.05	1743.05
1028.8752	3016.2487	2634.5	1745
1028.9865	3017.3002	2637.05	1743.7
1029.0978	3018.3511	2625	1735.3
1029.209	3019.4013	2620.2	1730.2
1029.3202	3020.4509	2615.25	1725.05
1029.4314	3021.4998	2612.45	1722.95
1029.5425	3022.5481	2598.2	1707.6
1029.6535	3023.5958	2603.9	1714.05
1029.7645	3024.6428	2596.5	1706.65
1029.8755	3025.6892	2591.3	1702.45
1029.9864	3026.735	2590	1700.7
1030.0973	3027.7802	2585.15	1694.4
1030.2082	3028.8247	2573.9	1681.85
1030.319	3029.8685	2571.95	1682.15
1030.4297	3030.9118	2580.55	1686.75
1030.5404	3031.9544	2574.45	1683.35
1030.6511	3032.9963	2571.9	1680.15
1030.7617	3034.0376	2580.4	1691.55
1030.8723	3035.0783	2571.9	1679.5
1030.9829	3036.1184	2559.35	1668.35
1031.0934	3037.1578	2563.35	1674
1031.2038	3038.1966	2567.85	1675.75
1031.3142	3039.2348	2558.3	1670.65
1031.4246	3040.2723	2561.55	1663.1
1031.5349	3041.3092	2540.95	1650.7
1031.6452	3042.3455	2535.75	1643
1031.7554	3043.3811	2532.95	1640.65
1031.8656	3044.4161	2517.15	1625.35
1031.9758	3045.4505	2509.45	1620.1
1032.0859	3046.4842	2503.65	1613.7
1032.1959	3047.5173	2494.3	1604.3
1032.3059	3048.5498	2479.95	1588.8
1032.4159	3049.5816	2464.75	1574.3
1032.5258	3050.6128	2465.45	1574.85
1032.6357	3051.6434	2455.95	1566.15
1032.7455	3052.6734	2442.25	1550.75
1032.8553	3053.7027	2420.85	1530.2
1032.9651	3054.7314	2413.7	1522.95
1033.0748	3055.7594	2396.95	1507.8
1033.1845	3056.7868	2393.1	1501.2
1033.2941	3057.8136	2379.5	1489.75
1033.4037	3058.8398	2373.6	1483.75
1033.5132	3059.8653	2362.95	1472.65
1033.6227	3060.8902	2353.55	1463.5
1033.7321	3061.9145	2341.9	1451.5
1033.8415	3062.9381	2333.4	1443.3
1033.9509	3063.9612	2330.35	1423.95
1034.0602	3064.9835	2316.15	1426.1
1034.1694	3066.0053	2314.15	1421.85
1034.2787	3067.0264	2292.4	1402.6
1034.3878	3068.0469	2284.15	1390.5
1034.497	3069.0668	2278.15	1385.25
1034.6061	3070.086	2257.9	1368.1
1034.7151	3071.1046	2245.8	1354.4
1034.8241	3072.1226	2241.65	1350.45
1034.9331	3073.1399	2213.45	1323.95
1035.042	3074.1567	2207.65	1319.15
1035.1508	3075.1727	2192.95	1300.7
1035.2597	3076.1882	2176.8	1285.45
1035.3684	3077.203	2162.4	1271.4
1035.4772	3078.2173	2162.65	1272.45
1035.5859	3079.2308	2148.65	1255.25
1035.6945	3080.2438	2133.65	1241.25
1035.8031	3081.2561	2126.45	1237.1
1035.9117	3082.2678	2110.4	1220.1
1036.0202	3083.2789	2102	1213.6
1036.1286	3084.2893	2087.25	1194.8
1036.2371	3085.2991	2082.85	1190.8
1036.3454	3086.3083	2071.05	1177
1036.4538	3087.3169	2053.15	1160.85
1036.562	3088.3248	2056.4	1164.2
1036.6703	3089.3321	2048	1155.1
1036.7785	3090.3388	2031.1	1141.6
1036.8866	3091.3449	2024.05	1132.3
1036.9948	3092.3503	2015.25	1124.55
1037.1028	3093.3551	2011.65	1123.05
1037.2108	3094.3593	2010.2	1120.4
1037.3188	3095.3629	1988.7	1098.1
1037.4267	3096.3658	1994.65	1102.1
1037.5346	3097.3681	1969.3	1077.55
1037.6425	3098.3698	1963.15	1070.55
1037.7503	3099.3708	1973.75	1077.45
1037.858	3100.3713	1955.6	1065.45
1037.9657	3101.3711	1947.1	1057.2
1038.0734	3102.3702	2057.25	1031.55
1038.181	3103.3688	1949.4	1057.05
1038.2886	3104.3667	1930.05	1041.6
1038.3961	3105.364	1928.65	1039.2
1038.5036	3106.3607	1917.5	1025.2
1038.611	3107.3568	1909.95	1019.05
1038.7184	3108.3522	1908.05	1018.5
1038.8257	3109.347	1902.05	1010
1038.933	3110.3412	1894.05	1000.25
1039.0403	3111.3348	1885.4	994.4
1039.1475	3112.3277	1880.45	991.15
1039.2547	3113.32	1876.5	986.3
1039.3618	3114.3117	1867.05	976.95
1039.4689	3115.3028	1862.55	972.65
1039.5759	3116.2932	1862.75	969.15
1039.6829	3117.2831	1858.5	962.9
1039.7898	3118.2723	1842.4	951.55
1039.8967	3119.2608	1838.8	949
1040.0035	3120.2488	1837.5	945.85
1040.1103	3121.2361	1828.45	937.15
1040.2171	3122.2229	1821.15	932.25
1040.3238	3123.209	1822.25	929.65
1040.4305	3124.1944	1810.25	920.95
1040.5371	3125.1793	1810.75	918.75
1040.6437	3126.1635	1801.7	912.6
1040.7502	3127.1471	1795.1	905.7
1040.8567	3128.1301	1784.75	893.6
1040.9631	3129.1125	1791.6	902.5
1041.0695	3130.0942	1786.1	897
1041.1759	3131.0753	1791.25	892.45
1041.2822	3132.0558	1780.35	888.8
1041.3884	3133.0357	1765.5	873.75
1041.4946	3134.015	1769.05	878.05
1041.6008	3134.9936	1763.7	871.35
1041.7069	3135.9716	1775.1	864.25
1041.813	3136.949	1749.6	859.25
1041.919	3137.9258	1760.5	864
1042.025	3138.902	1752.65	855.85
1042.1309	3139.8775	1744.7	855.2
1042.2368	3140.8524	1734.7	844.65
1042.3427	3141.8267	1733.55	842.65
1042.4485	3142.8004	1735.25	844.65
1042.5542	3143.7735	1730.4	834.3
1042.6599	3144.7459	1729.7	837.35
1042.7656	3145.7178	1715.75	823.7
1042.8712	3146.689	1712.65	826.05
1042.9768	3147.6596	1713	821.25
1043.0823	3148.6295	1718.7	826.8
1043.1878	3149.5989	1708.1	819.7
1043.2932	3150.5676	1694.2	805.9
1043.3986	3151.5357	1686.55	797.9
1043.5039	3152.5032	1683.15	793.75
1043.6092	3153.4701	1686.55	798
1043.7145	3154.4364	1680	786.6
1043.8197	3155.402	1674.55	785.85
1043.9248	3156.367	1674.95	782.95
1044.03	3157.3315	1700.75	766.3
1044.135	3158.2952	1656.75	766.55
1044.24	3159.2584	1663.5	773.45
1044.345	3160.221	1647.3	758.7
1044.4499	3161.1829	1643.6	753.55
1044.5548	3162.1442	1634.45	744.65
1044.6596	3163.105	1639.5	750.15
1044.7644	3164.065	1623.8	732.85
1044.8692	3165.0245	1627.55	735.75
1044.9739	3165.9834	1624.95	736.3
1045.0785	3166.9416	1618.75	730.6
1045.1831	3167.8993	1615.05	724.8
1045.2877	3168.8563	1610.95	721.35
1045.3922	3169.8127	1600.4	711.6
1045.4966	3170.7684	1599.75	710.05
1045.6011	3171.7236	1598.5	707.3
1045.7054	3172.6782	1592.7	702.65
1045.8098	3173.6321	1589.25	696.95
1045.914	3174.5854	1583.25	686.9
1046.0183	3175.5381	1585.75	694.75
1046.1224	3176.4902	1583.65	694.6
1046.2266	3177.4417	1571.5	682.95
1046.3307	3178.3926	1570.3	681.35
1046.4347	3179.3428	1564.95	676.4
1046.5387	3180.2924	1565.85	676.15
1046.6427	3181.2415	1562.6	671.8
1046.7466	3182.1899	1569.15	676.4
1046.8504	3183.1377	1548	659.85
1046.9542	3184.0848	1558.55	664.35
1047.058	3185.0314	1552.8	663
1047.1617	3185.9773	1536.85	646.4
1047.2654	3186.9227	1536.25	645.6
1047.369	3187.8674	1533.6	645.75
1047.4726	3188.8115	1530.6	635.8
1047.5761	3189.755	1528.25	638.2
1047.6796	3190.6979	1517.7	628.7
1047.783	3191.6402	1513.95	623.95
1047.8864	3192.5818	1516.6	626.45
1047.9898	3193.5229	1534.55	631.35
1048.0931	3194.4633	1508.95	618.05
1048.1963	3195.4031	1510.85	622
1048.2995	3196.3423	1507.35	616.55
1048.4027	3197.2809	1507.7	617.35
1048.5058	3198.2189	1498.5	606.45
1048.6089	3199.1563	1500.8	606
1048.7119	3200.0931	1490.65	600.8
1048.8148	3201.0292	1490.55	602.95
1048.9178	3201.9648	1490.15	601.4
1049.0206	3202.8997	1484.25	593.25
1049.1235	3203.834	1478.75	587.7
1049.2262	3204.7677	1471	581.7
1049.329	3205.7008	1478.55	589
1049.4317	3206.6333	1472.7	583.05
1049.5343	3207.5652	1477.6	585.5
1049.6369	3208.4964	1461.9	573.1
1049.7394	3209.4271	1462.55	575.2
1049.8419	3210.3571	1459.05	571.15
1049.9444	3211.2865	1453.15	562.25
1050.0468	3212.2154	1455.1	564.45
1050.1491	3213.1436	1456.05	564.4
1050.2514	3214.0712	1454.85	559.5
1050.3537	3214.9982	1447.65	557.75
1050.4559	3215.9246	1449.9	557.8
1050.5581	3216.8503	1440.4	551.65
1050.6602	3217.7755	1443.15	552.3
1050.7623	3218.7001	1436.75	548.4
1050.8643	3219.624	1431	539.5
1050.9663	3220.5473	1427.05	538.15
1051.0682	3221.4701	1432.7	541.3
1051.1701	3222.3922	1423.25	529.1
1051.2719	3223.3137	1422.8	533.25
1051.3737	3224.2346	1421.4	531.1
1051.4754	3225.1549	1415.3	525.55
1051.5771	3226.0746	1410.8	522.65
1051.6788	3226.9937	1411.2	520.85
1051.7804	3227.9121	1410.75	522.65
1051.8819	3228.83	1405.95	516.35
1051.9834	3229.7473	1400.7	510.05
1052.0849	3230.6639	1402.4	512.55
1052.1863	3231.5799	1396.55	507.9
1052.2876	3232.4954	1393.35	502.65
1052.3889	3233.4102	1388.9	499
1052.4902	3234.3244	1388.05	497.3
1052.5914	3235.238	1383.6	495.3
1052.6926	3236.151	1402.3	487.9
1052.7937	3237.0634	1376.9	488.8
1052.8948	3237.9752	1377.95	487.35
1052.9958	3238.8864	1371.9	483.1
1053.0968	3239.797	1373.35	484.95
1053.1977	3240.7069	1364.35	473.75
1053.2986	3241.6163	1362.85	470.75
1053.3994	3242.5251	1356.5	470.4
1053.5002	3243.4332	1353.4	465.05
1053.6009	3244.3408	1353.5	464.1
1053.7016	3245.2477	1349.65	459.8
1053.8022	3246.154	1354.1	462
1053.9028	3247.0598	1349.25	458.55
1054.0034	3247.9649	1345.75	453.9
1054.1039	3248.8694	1335.6	447.5
1054.2043	3249.7733	1335.6	446.9
1054.3047	3250.6766	1335.75	447.75
1054.4051	3251.5793	1335.4	445.15
1054.5054	3252.4814	1330.25	441.7
1054.6056	3253.3829	1333.3	444.25
1054.7058	3254.2838	1322.95	433.05
1054.806	3255.1841	1322.3	432.75
1054.9061	3256.0838	1315.55	425.55
1055.0061	3256.9829	1311.3	422.1
1055.1062	3257.8814	1312.2	420.65
1055.2061	3258.7792	1306.6	413.9
1055.306	3259.6765	1306.75	416.85
1055.4059	3260.5731	1297.25	407.8
1055.5057	3261.4692	1290.05	398.25
1055.6055	3262.3647	1289.85	399.3
1055.7052	3263.2595	1283.5	396.45
1055.8049	3264.1538	1276.05	386.55
1055.9045	3265.0474	1266.15	375.4
1056.0041	3265.9404	1262.7	372.75
1056.1036	3266.8329	1261.8	373.75
1056.2031	3267.7247	1266.8	366.3
1056.3025	3268.616	1248.35	359.2
1056.4019	3269.5066	1235.5	344.95
1056.5013	3270.3966	1232.4	341.7
1056.6005	3271.286	1217.25	329.3
