Software Version:	3.9.2.0
Unit SN:	10000200
Spectrometer SN:	6960
Date:	3/6/2024 9:50:57 AM
Data Line Index:	25
Spectral Points:	2048
Integration time (ms):	125
Averages:	20
Delay (ms):	30
Sequence Number:	1
Processing:	dark subtract
Laser Power (mW):	300
Laser Current (mA):	823
Laser Diode Temp (C):	25.1
Laser Case Temp (C):	24.3
System Temp (C):	24.1
Spectrometer Temp (C):	21.7
CCD Temp (C):	-0.005
Secondary Temp (C):	20.008
Heatsink Temp (C):	18.31
CCDPCB Temp (C):	30.371
SecondaryPCB Temp (C):	26.014

Wavelength	RamanShift	Raw Counts	Dark Subtracted
787.061	30.1047	445.2	38.9
787.2016	32.3739	443.45	37.35
787.3422	34.6426	447.75	39.6
787.4828	36.9109	453.2	46.5
787.6235	39.1787	458.25	45.65
787.7642	41.4461	465.1	49.1
787.9049	43.7131	469.75	49.8
788.0456	45.9796	476.1	53.85
788.1863	48.2456	482.05	55.8
788.3271	50.5112	489.7	58.1
788.4679	52.7764	498.85	66.8
788.6087	55.0411	504.1	66.3
788.7496	57.3054	512.25	70.05
788.8904	59.5692	517.15	73.35
789.0313	61.8326	526.15	77.85
789.1722	64.0955	535.15	84.9
789.3132	66.3579	549.7	94.15
789.4541	68.6199	559.25	102.85
789.5951	70.8815	585.5	122.15
789.7361	73.1426	626.05	156.45
789.8771	75.4032	723.3	251.25
790.0181	77.6634	980.15	506.3
790.1592	79.9231	1578.4	1100.15
790.3003	82.1824	2837.85	2353.95
790.4414	84.4412	5064.15	4567.45
790.5825	86.6995	8037.55	7524.7
790.7237	88.9574	10992.35	10466.35
790.8648	91.2148	13183.5	12650.4
791.006	93.4717	14440.4	13903.05
791.1472	95.7282	14980.05	14435.6
791.2885	97.9842	15254.05	14709
791.4297	100.2398	15324.05	14776.65
791.571	102.4949	15386	14836.2
791.7123	104.7495	15383.1	14828.95
791.8536	107.0036	15368.9	14812.4
791.9949	109.2573	15381.4	14827.45
792.1363	111.5105	15391.7	14834.7
792.2777	113.7632	15357.7	14799.75
792.4191	116.0154	15367.1	14794.9
792.5605	118.2672	15420.85	14856.75
792.7019	120.5185	15390.95	14826.3
792.8434	122.7693	15407.25	14840.25
792.9849	125.0197	15460.1	14886.3
793.1264	127.2696	15463.15	14887.15
793.2679	129.519	15486.7	14906.5
793.4094	131.7679	15536.1	14954.75
793.551	134.0163	15599.5	15016.2
793.6926	136.2642	15613.15	15023.25
793.8342	138.5117	15588.25	14995.7
793.9758	140.7587	15616.55	15026.25
794.1175	143.0052	15634.95	15039.8
794.2591	145.2512	15607.55	15013.45
794.4008	147.4967	15608.7	15008.1
794.5425	149.7417	15606.3	15004.4
794.6842	151.9863	15587.35	14984.95
794.826	154.2304	15612.15	15006.8
794.9677	156.4739	15576.1	14960.35
795.1095	158.717	15632.15	15018.95
795.2513	160.9596	15586.1	14969.6
795.3931	163.2017	15627.55	15008.25
795.535	165.4433	15633.95	15014.55
795.6768	167.6844	15640.9	15016.1
795.8187	169.925	15645.9	15017.1
795.9606	172.1651	15579	14946.05
796.1025	174.4047	15586.4	14952.6
796.2445	176.6439	15609.1	14975.35
796.3864	178.8825	15560.45	14926.65
796.5284	181.1206	15624.6	14984.55
796.6704	183.3582	15616.1	14970.55
796.8124	185.5954	15639.7	14993.1
796.9544	187.832	15624.3	14972.25
797.0965	190.0681	15685.25	15027.85
797.2386	192.3037	15720.95	15062.65
797.3806	194.5388	15709.85	15050.6
797.5228	196.7734	15740.65	15078
797.6649	199.0075	15814.8	15150.45
797.807	201.2411	15909.4	15244.8
797.9492	203.4742	15919.25	15251.45
798.0914	205.7068	15969.95	15299.15
798.2336	207.9389	15968.8	15296.4
798.3758	210.1704	15997.45	15329.65
798.518	212.4015	15973	15312.55
798.6603	214.632	16013.9	15362.9
798.8025	216.862	16028.45	15381.6
798.9448	219.0915	16062.2	15411.75
799.0871	221.3205	16109.1	15455.4
799.2294	223.549	16122.05	15476.25
799.3718	225.777	16168.95	15516.5
799.5141	228.0044	16176.2	15520.4
799.6565	230.2314	16204.45	15547.5
799.7989	232.4578	16186.4	15525.25
799.9413	234.6837	16204.85	15532.9
800.0837	236.909	16259.35	15586.75
800.2262	239.1339	16255.05	15556.7
800.3687	241.3582	16241.8	15555.5
800.5111	243.582	16283.75	15568.6
800.6536	245.8053	16303	15601.3
800.7961	248.0281	16301.85	15605.75
800.9387	250.2503	16322.65	15624.75
801.0812	252.472	16303	15601.2
801.2238	254.6932	16362.7	15661.05
801.3664	256.9139	16317.2	15616.45
801.509	259.134	16338.8	15630.65
801.6516	261.3536	16349.9	15645.4
801.7942	263.5727	16421.4	15714.45
801.9369	265.7912	16375.5	15669.65
802.0795	268.0092	16432.2	15723.6
802.2222	270.2267	16439.15	15731.45
802.3649	272.4436	16450.2	15741.6
802.5076	274.6601	16490.5	15767.8
802.6504	276.8759	16498.95	15781.2
802.7931	279.0913	16541.6	15828.05
802.9359	281.3061	16505.6	15790.05
803.0787	283.5204	16570.4	15852.6
803.2215	285.7341	16583.25	15859.7
803.3643	287.9473	16594.25	15858.2
803.5071	290.16	16595.1	15866.65
803.6499	292.3721	16558.35	15838.5
803.7928	294.5837	16553.2	15829.85
803.9357	296.7947	16532.05	15808.5
804.0786	299.0052	16517.15	15791.9
804.2215	301.2152	16492.4	15763.95
804.3644	303.4246	16524.7	15800.6
804.5074	305.6334	16470.75	15747.85
804.6503	307.8418	16487.15	15760.5
804.7933	310.0495	16449.5	15718.8
804.9363	312.2568	16469.3	15738.45
805.0793	314.4635	16400.35	15669.9
805.2223	316.6696	16339.9	15602.8
805.3653	318.8752	16283.1	15538.6
805.5084	321.0802	16270.3	15535.75
805.6514	323.2847	16250	15510.75
805.7945	325.4887	16252.35	15513.5
805.9376	327.692	16265.7	15523.7
806.0807	329.8949	16352.4	15610.45
806.2238	332.0972	16318.8	15576.05
806.367	334.2989	16351.05	15602.7
806.5101	336.5001	16337.65	15590.8
806.6533	338.7007	16321.7	15573.4
806.7965	340.9008	16300.8	15551.85
806.9397	343.1003	16290.25	15538.8
807.0829	345.2992	16257.95	15508.2
807.2261	347.4976	16240.6	15486.35
807.3693	349.6955	16188.85	15428.9
807.5126	351.8927	16247.65	15488.15
807.6559	354.0895	16173.75	15402.55
807.7991	356.2856	16199.95	15440.5
807.9424	358.4812	16176.85	15418.5
808.0857	360.6763	16216.15	15455.1
808.2291	362.8707	16162.3	15395.8
808.3724	365.0646	16190.2	15421.05
808.5158	367.258	16140.2	15368.6
808.6591	369.4508	16157.25	15384.45
808.8025	371.643	16181.6	15410.35
808.9459	373.8346	16104.05	15330
809.0893	376.0257	16115.1	15337.95
809.2327	378.2162	16120.15	15343.15
809.3762	380.4062	16136.55	15356.75
809.5196	382.5956	16048.05	15273.45
809.6631	384.7844	16055.2	15283.75
809.8066	386.9726	15992.85	15223.75
809.9501	389.1603	15954	15184.65
810.0936	391.3474	15948.25	15146.95
810.2371	393.5339	15914.65	15143.85
810.3806	395.7199	15877.6	15109.1
810.5241	397.9052	15881.15	15112.7
810.6677	400.09	15900.3	15129.1
810.8113	402.2743	15911.25	15138.15
810.9548	404.4579	15874.5	15100.55
811.0984	406.641	15932.35	15157.1
811.2421	408.8235	15967.75	15190.9
811.3857	411.0054	15993.75	15216
811.5293	413.1868	16067.6	15287.5
811.673	415.3675	16120.5	15334.55
811.8166	417.5477	16155.25	15369.6
811.9603	419.7273	16049.5	15258.85
812.104	421.9064	15917.1	15120.6
812.2477	424.0848	15855.3	15068.35
812.3914	426.2627	15801.55	15010.1
812.5351	428.4399	15775.85	14984
812.6788	430.6166	15689.4	14894.3
812.8226	432.7928	15665.85	14872.35
812.9663	434.9683	15617.35	14821.65
813.1101	437.1432	15594.65	14795.75
813.2539	439.3176	15511.95	14715.05
813.3977	441.4914	15451.95	14656.85
813.5415	443.6645	15451.2	14654.75
813.6853	445.8371	15374.25	14576.5
813.8291	448.0091	15327.2	14529.8
813.973	450.1806	15290.15	14491.75
814.1168	452.3514	15258.1	14457.2
814.2607	454.5216	15261.65	14454.25
814.4046	456.6913	15175.95	14372.9
814.5485	458.8603	15146.15	14345.3
814.6924	461.0288	15192.05	14394.35
814.8363	463.1967	15168.95	14369.85
814.9802	465.3639	15164.6	14363.15
815.1241	467.5306	15147.85	14344.8
815.2681	469.6967	15102.25	14298.9
815.412	471.8622	15067.05	14265.6
815.556	474.0271	15037.8	14235.35
815.7	476.1914	15039	14233
815.844	478.3551	15047.6	14243.45
815.988	480.5182	15041.55	14236.45
816.132	482.6807	15013.2	14210.25
816.276	484.8426	15021.25	14217.75
816.4201	487.0039	15050.05	14246.8
816.5641	489.1647	15085.85	14277.9
816.7082	491.3248	15142.75	14334.85
816.8522	493.4843	15143	14334.9
816.9963	495.6432	15086.85	14281.55
817.1404	497.8015	15051.4	14237.7
817.2845	499.9592	15059.9	14245.6
817.4286	502.1163	14995.35	14182.25
817.5727	504.2728	14952.8	14137.45
817.7168	506.4287	14977.3	14166.3
817.861	508.5839	14925.35	14113.9
818.0051	510.7386	14932.15	14118.65
818.1493	512.8927	14907.75	14091.45
818.2935	515.0461	14917.6	14102.4
818.4377	517.199	14867.3	14051.4
818.5818	519.3512	14918.15	14099.9
818.726	521.5029	14926.55	14104.3
818.8703	523.6539	14888.15	14069.8
819.0145	525.8043	14914.95	14096.45
819.1587	527.9541	14857.6	14033.25
819.303	530.1033	14836.1	14015.4
819.4472	532.2519	14791.1	13969.95
819.5915	534.3999	14797.1	13973.35
819.7357	536.5472	14738.85	13918.15
819.88	538.694	14781.95	13962.75
820.0243	540.8401	14776.55	13953
820.1686	542.9856	14788.25	13962.25
820.3129	545.1305	14744.75	13914.95
820.4572	547.2748	14775.85	13945.8
820.6016	549.4185	14749.75	13915.85
820.7459	551.5615	14734.05	13899.5
820.8902	553.704	14743.35	13914.95
821.0346	555.8458	14698.3	13868.75
821.1789	557.987	14750.4	13923.55
821.3233	560.1276	14718.25	13890.15
821.4677	562.2675	14725.3	13900.7
821.6121	564.4069	14736.35	13908.45
821.7565	566.5456	14715.2	13888.6
821.9009	568.6837	14740.25	13913.2
822.0453	570.8212	14661.4	13831.25
822.1897	572.958	14598.7	13769.1
822.3342	575.0942	14568.15	13740
822.4786	577.2299	14538.55	13711.45
822.6231	579.3648	14470.3	13645.05
822.7675	581.4992	14395.6	13567.75
822.912	583.6329	14318.8	13490.9
823.0565	585.766	14300.6	13474.95
823.201	587.8985	14318.7	13490.45
823.3454	590.0304	14298.6	13454.7
823.4899	592.1616	14267.1	13432.05
823.6345	594.2922	14251.65	13420.3
823.779	596.4222	14209.5	13373.45
823.9235	598.5515	14169.05	13333.25
824.068	600.6802	14118.65	13282.45
824.2126	602.8083	14017.45	13181.15
824.3571	604.9358	14017.85	13181.6
824.5017	607.0626	13969.5	13132.2
824.6462	609.1888	13948.55	13107.95
824.7908	611.3144	13970.55	13129.45
824.9354	613.4393	13969.9	13131.55
825.08	615.5636	13971.05	13128.7
825.2246	617.6873	13977.7	13139.9
825.3692	619.8103	13987.25	13146.25
825.5138	621.9327	13938.8	13095.5
825.6584	624.0544	13917.6	13079.2
825.803	626.1756	13912.85	13074.6
825.9477	628.2961	13881.5	13039.05
826.0923	630.4159	13852.8	13011.85
826.237	632.5351	13841.9	12995.85
826.3816	634.6537	13813.85	12970.25
826.5263	636.7716	13796.3	12947.75
826.6709	638.8889	13778.8	12931.7
826.8156	641.0056	13812.7	12966.9
826.9603	643.1216	13774.5	12928.3
827.105	645.237	13792.25	12944.35
827.2497	647.3518	13768.7	12924.15
827.3944	649.4659	13748.2	12907.3
827.5391	651.5793	13687.8	12841.35
827.6838	653.6922	13663.05	12819.25
827.8285	655.8043	13658	12813.2
827.9733	657.9159	13672.85	12824.55
828.118	660.0268	13628.4	12775.8
828.2627	662.137	13601.45	12754.4
828.4075	664.2466	13583.1	12732.65
828.5522	666.3556	13570.6	12722.75
828.697	668.4639	13544.55	12692
828.8418	670.5716	13513	12665.5
828.9865	672.6786	13520.2	12669.3
829.1313	674.785	13456.45	12605.7
829.2761	676.8907	13426.1	12574.55
829.4209	678.9958	13440	12589.75
829.5657	681.1002	13385.85	12535.1
829.7105	683.204	13357.4	12502.15
829.8553	685.3072	13372.45	12518.5
830.0001	687.4097	13349.7	12495.55
830.1449	689.5115	13342	12486.7
830.2898	691.6127	13321.45	12471.5
830.4346	693.7132	13275.7	12424.05
830.5794	695.8131	13284.85	12423.35
830.7243	697.9123	13284.7	12426.9
830.8691	700.0109	13278.95	12422.75
831.014	702.1089	13267.55	12413.15
831.1588	704.2061	13236.7	12385.05
831.3037	706.3028	13244	12387.3
831.4486	708.3987	13239.4	12383.35
831.5935	710.4941	13227	12369.35
831.7383	712.5887	13233.25	12378.15
831.8832	714.6827	13189.45	12330.5
832.0281	716.7761	13181.65	12325.15
832.173	718.8688	13179.85	12323.9
832.3179	720.9608	13163.7	12300.75
832.4628	723.0522	13165.95	12304.35
832.6077	725.1429	13147.15	12288.45
832.7527	727.233	13144.7	12283.5
832.8976	729.3224	13181.1	12321.8
833.0425	731.4112	13164.85	12301.45
833.1874	733.4993	13166.15	12304.45
833.3324	735.5867	13084.55	12224.2
833.4773	737.6735	13079.75	12217.5
833.6222	739.7596	13033.65	12173.55
833.7672	741.845	12974.9	12111.75
833.9122	743.9298	12970.05	12105.15
834.0571	746.014	12933.65	12072
834.2021	748.0974	12948.7	12086.1
834.347	750.1802	12916.6	12052.85
834.492	752.2624	12877.35	12012.1
834.637	754.3439	12797.9	11930.5
834.782	756.4247	12780.1	11905.6
834.9269	758.5048	12753.9	11889.1
835.0719	760.5843	12713.85	11848.55
835.2169	762.6631	12690.9	11827
835.3619	764.7413	12690.15	11825.35
835.5069	766.8188	12698.65	11831.95
835.6519	768.8956	12689.9	11822.4
835.7969	770.9718	12707.65	11839.85
835.9419	773.0473	12676.2	11812.1
836.0869	775.1221	12634.55	11768.6
836.232	777.1962	12608.55	11743.25
836.377	779.2697	12614.7	11745.8
836.522	781.3426	12649.9	11763.65
836.667	783.4147	12608.45	11741.35
836.8121	785.4862	12620.3	11754.15
836.9571	787.557	12531.55	11661.9
837.1021	789.6271	12480.45	11613.05
837.2472	791.6966	12401.55	11534.3
837.3922	793.7654	12318.05	11449.6
837.5373	795.8335	12285.85	11418.2
837.6823	797.901	12276.9	11410.65
837.8274	799.9678	12243.45	11374.3
837.9724	802.0339	12242.9	11373.5
838.1175	804.0993	12258.55	11380.65
838.2626	806.1641	12153.15	11282.85
838.4076	808.2282	12152.15	11284.1
838.5527	810.2916	12162.35	11292.15
838.6978	812.3544	12140.1	11271.65
838.8428	814.4164	12066.65	11199.8
838.9879	816.4778	12108.6	11238.45
839.133	818.5385	12069.1	11196.6
839.2781	820.5986	12085.6	11216.25
839.4232	822.658	12109.95	11236.95
839.5682	824.7166	12052.1	11181
839.7133	826.7747	12128.35	11257.4
839.8584	828.832	12162.6	11291.35
840.0035	830.8886	12113.75	11241.8
840.1486	832.9446	12125	11252.3
840.2937	834.9999	12065.4	11197.5
840.4388	837.0545	12046.25	11170.55
840.5839	839.1085	12027	11155.85
840.729	841.1618	11952.05	11077.3
840.8741	843.2143	11888.6	11015.6
841.0192	845.2662	11838.75	10966.8
841.1643	847.3175	11833.55	10959.75
841.3095	849.368	11794.4	10921.25
841.4546	851.4179	11770.05	10894.2
841.5997	853.467	11735.4	10861.6
841.7448	855.5155	11725.8	10850.6
841.8899	857.5633	11718.35	10845.65
842.0351	859.6105	11658	10785.6
842.1802	861.6569	11647.55	10772.75
842.3253	863.7027	11640.55	10764.45
842.4704	865.7478	11642.45	10765.9
842.6156	867.7922	11603.65	10728.05
842.7607	869.8359	11563.1	10686.9
842.9058	871.8789	11553.95	10677.65
843.0509	873.9212	11587.45	10680.2
843.1961	875.9629	11512.3	10638.95
843.3412	878.0039	11528.2	10649.8
843.4863	880.0441	11517.95	10644.95
843.6315	882.0837	11532.8	10656.25
843.7766	884.1226	11506.75	10629.55
843.9218	886.1609	11495	10620.75
844.0669	888.1984	11532.7	10657.45
844.212	890.2352	11558.9	10685.15
844.3572	892.2714	11536.85	10655.75
844.5023	894.3069	11530.8	10654.3
844.6475	896.3416	11485.6	10608.4
844.7926	898.3757	11452.55	10574.2
844.9377	900.4091	11413.9	10536.6
845.0829	902.4418	11419.05	10538.9
845.228	904.4739	11389.6	10508.75
845.3732	906.5052	11381.2	10503.85
845.5183	908.5358	11339.4	10460.4
845.6635	910.5658	11319.1	10437.4
845.8086	912.595	11295.2	10415.85
845.9538	914.6236	11245.3	10366.75
846.0989	916.6515	11228.35	10348.1
846.2441	918.6786	11163.4	10283.05
846.3892	920.7051	11178.4	10298.3
846.5344	922.7309	11181.9	10303.6
846.6795	924.756	11135.8	10255.5
846.8246	926.7804	11129	10248.15
846.9698	928.8041	11041	10159.95
847.1149	930.8272	11101.15	10220.8
847.2601	932.8495	11010.85	10126.3
847.4052	934.8711	11019.8	10136.2
847.5504	936.892	10976.55	10097.05
847.6955	938.9123	10957.45	10074.45
847.8407	940.9318	10961.65	10079.8
847.9858	942.9506	10928.1	10047.95
848.131	944.9688	10911.9	10031.7
848.2761	946.9862	10888.95	10008.3
848.4213	949.003	10836.85	9957.1
848.5664	951.019	10778.45	9897.85
848.7115	953.0344	10739.5	9856.85
848.8567	955.0491	10718.8	9836.2
849.0018	957.063	10698.1	9816.6
849.147	959.0763	10709.65	9826
849.2921	961.0888	10694.3	9811.2
849.4373	963.1007	10686	9805.6
849.5824	965.1119	10653.5	9774.85
849.7275	967.1223	10631.75	9753.25
849.8727	969.1321	10630.85	9753.05
850.0178	971.1412	10610.6	9729.9
850.1629	973.1495	10566.9	9685.6
850.3081	975.1572	10575.05	9646.15
850.4532	977.1641	10556.2	9675.65
850.5983	979.1704	10521.9	9639.9
850.7435	981.1759	10486.45	9601.55
850.8886	983.1808	10490.75	9608.1
851.0337	985.1849	10451.85	9557.75
851.1788	987.1884	10463.85	9579.3
851.324	989.1911	10411.15	9524.45
851.4691	991.1932	10421.15	9539
851.6142	993.1945	10378.35	9493.65
851.7593	995.1951	10334.9	9452.9
851.9045	997.1951	10335.65	9449.05
852.0496	999.1943	10266	9383.7
852.1947	1001.1928	10227.5	9344.6
852.3398	1003.1906	10203.45	9320.85
852.4849	1005.1877	10202.7	9319.6
852.63	1007.1841	10173.3	9292.45
852.7751	1009.1798	10116.8	9233.25
852.9202	1011.1748	10095.8	9213.6
853.0653	1013.1691	10073.5	9190.05
853.2104	1015.1627	9997.15	9113.75
853.3555	1017.1556	9959.35	9076.55
853.5006	1019.1477	9922.7	9038.05
853.6457	1021.1392	9860.65	8980.9
853.7908	1023.1299	9829.55	8947.85
853.9359	1025.12	9814.6	8935.5
854.081	1027.1093	9774.25	8896.45
854.2261	1029.0979	9739.2	8863.4
854.3712	1031.0859	9711.3	8832.7
854.5163	1033.0731	9708.2	8828.35
854.6613	1035.0596	9700.5	8818.95
854.8064	1037.0454	9628.9	8745.55
854.9515	1039.0304	9612.8	8727.7
855.0965	1041.0148	9549.3	8665.75
855.2416	1042.9985	9537.65	8651.9
855.3867	1044.9814	9525.6	8640.5
855.5317	1046.9636	9476.1	8590.65
855.6768	1048.9452	9455.55	8572.15
855.8219	1050.926	9450.35	8567.35
855.9669	1052.9061	9441.75	8557.75
856.112	1054.8855	9427.1	8543.85
856.257	1056.8642	9396	8510.9
856.4021	1058.8421	9406.15	8517.15
856.5471	1060.8194	9375.15	8490
856.6921	1062.7959	9349.5	8465.95
856.8372	1064.7717	9333.2	8446.2
856.9822	1066.7469	9307.9	8420.35
857.1272	1068.7213	9270.1	8382.2
857.2723	1070.695	9272.35	8386.35
857.4173	1072.6679	9251.45	8365.8
857.5623	1074.6402	9247.05	8362.25
857.7073	1076.6117	9234.65	8346.15
857.8523	1078.5826	9217.15	8330.55
857.9973	1080.5527	9179.4	8292.85
858.1423	1082.5221	9131.5	8245.15
858.2873	1084.4908	9119.25	8235.2
858.4323	1086.4587	9068.9	8181.35
858.5773	1088.426	9066.85	8179.8
858.7223	1090.3925	9042.35	8153.2
858.8673	1092.3584	9009.6	8125.1
859.0123	1094.3235	9007.75	8122.3
859.1573	1096.2879	8995.85	8110.85
859.3022	1098.2515	8966.7	8082.25
859.4472	1100.2145	8978.9	8093.9
859.5922	1102.1767	8963.9	8074
859.7371	1104.1382	8969.4	8084
859.8821	1106.099	8966.8	8077.95
860.027	1108.0591	8947.25	8060.95
860.172	1110.0185	8938.05	8052.5
860.3169	1111.9771	8966.25	8078.9
860.4619	1113.9351	8944.7	8058.35
860.6068	1115.8923	8954.6	8065.4
860.7517	1117.8488	8960.6	8070.45
860.8967	1119.8045	8886.8	8000.65
861.0416	1121.7596	8862.5	7975.6
861.1865	1123.7139	8756.15	7870.05
861.3314	1125.6675	8725.35	7838.55
861.4763	1127.6204	8731.7	7845.2
861.6212	1129.5726	8701.3	7813.3
861.7661	1131.524	8683.95	7797.55
861.911	1133.4748	8664.15	7775.25
862.0559	1135.4248	8628.75	7741.2
862.2008	1137.3741	8599.95	7713.3
862.3457	1139.3226	8565.3	7677.95
862.4905	1141.2705	8572.2	7685.45
862.6354	1143.2176	8522.4	7628.6
862.7803	1145.164	8518.35	7629.1
862.9251	1147.1097	8503.05	7615.75
863.07	1149.0546	8478.5	7592.85
863.2148	1150.9989	8454.45	7568.45
863.3597	1152.9424	8418.25	7530.9
863.5045	1154.8852	8425.8	7537.95
863.6493	1156.8272	8407.4	7521.5
863.7942	1158.7686	8407.6	7514.2
863.939	1160.7092	8387.9	7498.95
864.0838	1162.6491	8372.65	7482.3
864.2286	1164.5883	8354.75	7469
864.3734	1166.5267	8340.5	7451.05
864.5182	1168.4644	8358.95	7472.7
864.663	1170.4014	8350.25	7455.35
864.8078	1172.3377	8350.5	7463.1
864.9526	1174.2732	8365.25	7480.2
865.0974	1176.2081	8392	7506.35
865.2421	1178.1421	8415.75	7524.05
865.3869	1180.0755	8456.65	7570.45
865.5317	1182.0082	8434.65	7547.75
865.6764	1183.9401	8433.7	7546.2
865.8212	1185.8713	8393.45	7507.3
865.9659	1187.8017	8326.65	7441.8
866.1106	1189.7315	8255.1	7372.4
866.2554	1191.6605	8172.2	7288.9
866.4001	1193.5888	8129	7242.85
866.5448	1195.5163	8109.45	7222.85
866.6895	1197.4432	8087.4	7199.35
866.8342	1199.3693	8047.25	7158.8
866.9789	1201.2947	8018.2	7124.6
867.1236	1203.2193	7967.55	7078.2
867.2683	1205.1432	7980.15	7092.45
867.413	1207.0664	7922.9	7034.35
867.5576	1208.9889	7906.95	7016.15
867.7023	1210.9106	7899.4	7009.15
867.847	1212.8316	7870.65	6983.7
867.9916	1214.7519	7866.8	6969.8
868.1363	1216.6715	7827.85	6941
868.2809	1218.5903	7825.85	6939.3
868.4255	1220.5084	7849.95	6960.05
868.5701	1222.4257	7811.7	6923.15
868.7148	1224.3424	7800.75	6914.05
868.8594	1226.2583	7796.45	6903.65
869.004	1228.1735	7801.45	6913.05
869.1486	1230.0879	7781.85	6891.75
869.2932	1232.0016	7760.85	6871.05
869.4377	1233.9146	7756.55	6867.2
869.5823	1235.8269	7730.9	6840.85
869.7269	1237.7384	7750.95	6862.9
869.8715	1239.6492	7734.6	6844.2
870.016	1241.5592	7723.25	6836.25
870.1606	1243.4686	7710.35	6822.25
870.3051	1245.3772	7735.6	6845.95
870.4496	1247.285	7757	6867.6
870.5941	1249.1922	7764.15	6878
870.7387	1251.0986	7809.7	6921.9
870.8832	1253.0042	7810.6	6921
871.0277	1254.9092	7868.5	6979.6
871.1722	1256.8134	7852.25	6963.8
871.3167	1258.7169	7891.5	7001.95
871.4611	1260.6196	7886.75	6998.1
871.6056	1262.5216	7875.15	6985.2
871.7501	1264.4229	7831.35	6942.95
871.8945	1266.3234	7844.55	6956.05
872.039	1268.2232	7800.7	6910.05
872.1834	1270.1223	7777	6885.85
872.3278	1272.0207	7764.8	6873.75
872.4723	1273.9183	7716.7	6823.3
872.6167	1275.8151	7702.75	6812.8
872.7611	1277.7113	7718.45	6830.65
872.9055	1279.6067	7729.85	6840.9
873.0499	1281.5014	7781.65	6889.2
873.1943	1283.3953	7848.95	6958.15
873.3386	1285.2885	7929.55	7042.9
873.483	1287.181	7988.25	7099.4
873.6274	1289.0727	8011.8	7125.3
873.7717	1290.9637	7955.3	7066.5
873.9161	1292.854	7941	7054.35
874.0604	1294.7435	7862.45	6970.8
874.2047	1296.6323	7835.15	6944.85
874.349	1298.5204	7773.7	6880.45
874.4933	1300.4077	7726.2	6837.1
874.6376	1302.2943	7682.1	6793.05
874.7819	1304.1802	7688.3	6798.15
874.9262	1306.0653	7664.95	6774
875.0705	1307.9497	7629.8	6739.8
875.2147	1309.8333	7614.9	6727.4
875.359	1311.7162	7575.75	6685.95
875.5032	1313.5984	7561.45	6669.15
875.6475	1315.4798	7507.85	6617.9
875.7917	1317.3605	7520.6	6616.65
875.9359	1319.2405	7500.05	6608.45
876.0801	1321.1197	7479	6585.25
876.2243	1322.9982	7441.3	6547.55
876.3685	1324.876	7384.1	6492.2
876.5127	1326.753	7341.75	6453.75
876.6569	1328.6293	7294.1	6402.95
876.801	1330.5048	7268.1	6376.45
876.9452	1332.3796	7212.75	6322.45
877.0893	1334.2537	7214.2	6296.95
877.2335	1336.127	7158	6268.05
877.3776	1337.9996	7145.8	6257.1
877.5217	1339.8714	7115.5	6224.5
877.6658	1341.7426	7130.55	6196.5
877.8099	1343.6129	7081.95	6191.75
877.954	1345.4826	7049.4	6158.95
878.0981	1347.3515	7037.8	6145.75
878.2422	1349.2196	7056.3	6164.35
878.3862	1351.087	7019.1	6127.9
878.5303	1352.9537	7014.4	6123.7
878.6743	1354.8197	7005.7	6116.55
878.8184	1356.6849	7017.25	6126.8
878.9624	1358.5493	7001.75	6111.95
879.1064	1360.4131	7006.65	6117.35
879.2504	1362.276	7010.85	6124.2
879.3944	1364.1383	7010.55	6121.4
879.5384	1365.9998	6993.85	6097.9
879.6823	1367.8606	6977.65	6088.9
879.8263	1369.7206	6966.15	6077.05
879.9702	1371.5799	6928.15	6033.75
880.1142	1373.4384	6928.9	6038.05
880.2581	1375.2962	6918.7	6026.35
880.402	1377.1533	6842.8	5951.9
880.5459	1379.0096	6807.25	5915.1
880.6898	1380.8652	6785.6	5894.6
880.8337	1382.7201	6759.25	5868.95
880.9776	1384.5742	6701.2	5811.8
881.1215	1386.4275	6676.45	5786.85
881.2653	1388.2802	6640.85	5752.65
881.4092	1390.132	6627.8	5736.6
881.553	1391.9832	6632.4	5740.2
881.6968	1393.8336	6576.7	5685.5
881.8406	1395.6832	6556.05	5665
881.9844	1397.5322	6528.7	5637.8
882.1282	1399.3803	6512.2	5617.7
882.272	1401.2278	6478.05	5586.75
882.4158	1403.0745	6455.15	5567.4
882.5595	1404.9204	6436.25	5548.9
882.7033	1406.7656	6423.55	5534.55
882.847	1408.6101	6392.2	5503.5
882.9908	1410.4538	6383.95	5494.6
883.1345	1412.2968	6350.65	5460.75
883.2782	1414.139	6333.85	5445
883.4219	1415.9805	6346.85	5457.05
883.5656	1417.8213	6318.7	5422.5
883.7092	1419.6613	6312.15	5421.55
883.8529	1421.5006	6307.75	5417.6
883.9965	1423.3391	6315.85	5425.65
884.1402	1425.1769	6306.2	5414.6
884.2838	1427.0139	6351.45	5460.4
884.4274	1428.8502	6362.4	5470.15
884.571	1430.6858	6373	5485.15
884.7146	1432.5206	6358.45	5466.8
884.8582	1434.3547	6362.75	5472
885.0018	1436.188	6368.45	5477.05
885.1453	1438.0206	6343.45	5451.35
885.2889	1439.8524	6309.65	5418.7
885.4324	1441.6835	6301.85	5412.2
885.5759	1443.5139	6279.35	5386.8
885.7194	1445.3435	6268.3	5379.55
885.8629	1447.1724	6267.9	5379.05
886.0064	1449.0005	6251.4	5361.5
886.1499	1450.8279	6242.65	5350.85
886.2933	1452.6545	6219.9	5328.7
886.4368	1454.4804	6229.5	5340.1
886.5802	1456.3056	6207.4	5311.7
886.7237	1458.13	6193.45	5303.7
886.8671	1459.9536	6184.25	5292.55
887.0105	1461.7766	6147.6	5258.65
887.1539	1463.5987	6114.2	5223
887.2972	1465.4202	6090.6	5200.5
887.4406	1467.2409	6072.15	5182.55
887.584	1469.0608	6048.65	5158.75
887.7273	1470.88	6015.6	5124.55
887.8706	1472.6984	5998.8	5109.25
888.0139	1474.5161	5960	5070.25
888.1572	1476.3331	5956.15	5066.95
888.3005	1478.1493	5920.25	5031.1
888.4438	1479.9648	5945.85	5055.45
888.5871	1481.7795	5907.45	5016.8
888.7303	1483.5935	5900.55	5009.95
888.8736	1485.4067	5895.65	5006.3
889.0168	1487.2192	5879	4988.95
889.16	1489.031	5883.25	4991.3
889.3032	1490.842	5858.25	4967.65
889.4464	1492.6522	5833.4	4945.3
889.5896	1494.4618	5836.95	4946.35
889.7327	1496.2705	5820.9	4932.35
889.8759	1498.0785	5814.6	4924.5
890.019	1499.8858	5799.85	4908.35
890.1622	1501.6924	5779	4889.15
890.3053	1503.4981	5743.85	4851.1
890.4484	1505.3032	5748.05	4855.95
890.5914	1507.1075	5729.1	4837.25
890.7345	1508.911	5738.75	4848.9
890.8776	1510.7138	5718.7	4831.25
891.0206	1512.5159	5692.35	4802.45
891.1637	1514.3172	5667.8	4777.2
891.3067	1516.1178	5630.65	4743.8
891.4497	1517.9176	5629.15	4737.55
891.5927	1519.7166	5617.8	4730.25
891.7357	1521.515	5601.15	4703.9
891.8786	1523.3126	5581.2	4690.7
892.0216	1525.1094	5553.25	4662
892.1645	1526.9055	5557.75	4671.1
892.3074	1528.7008	5529.2	4641.45
892.4503	1530.4954	5498.95	4609.8
892.5932	1532.2893	5474.25	4587.55
892.7361	1534.0824	5430.65	4537.75
892.879	1535.8747	5449.35	4560.75
893.0218	1537.6663	5423.15	4534.85
893.1647	1539.4572	5399.05	4509.45
893.3075	1541.2473	5414.4	4527.25
893.4503	1543.0367	5383	4495.4
893.5931	1544.8253	5371.45	4478
893.7359	1546.6132	5354.85	4463.9
893.8787	1548.4003	5338.35	4440.55
894.0214	1550.1867	5327.85	4430.15
894.1642	1551.9723	5300.6	4408.85
894.3069	1553.7572	5308.4	4420.25
894.4496	1555.5414	5307.35	4418.9
894.5923	1557.3247	5301.75	4414.3
894.735	1559.1074	5289.95	4403.3
894.8777	1560.8893	5301.75	4413.35
895.0204	1562.6705	5293.3	4407.95
895.163	1564.4509	5297	4411.6
895.3056	1566.2305	5272.6	4387.1
895.4482	1568.0094	5283.6	4397.95
895.5908	1569.7876	5257.7	4371.65
895.7334	1571.565	5251.15	4364.9
895.876	1573.3417	5248.55	4362.15
896.0186	1575.1176	5248.1	4361.5
896.1611	1576.8928	5216.8	4330.9
896.3036	1578.6672	5198.95	4314.9
896.4461	1580.4409	5210.05	4327.6
896.5886	1582.2138	5211.1	4323.4
896.7311	1583.986	5216.45	4331.8
896.8736	1585.7575	5219.7	4334.85
897.0161	1587.5282	5201.35	4318.5
897.1585	1589.2981	5211.75	4327.8
897.3009	1591.0673	5205.9	4321.8
897.4433	1592.8358	5197.85	4312.45
897.5857	1594.6035	5205.65	4318.5
897.7281	1596.3704	5181.1	4294.35
897.8705	1598.1366	5135.9	4251.35
898.0128	1599.9021	5121.85	4235.85
898.1551	1601.6668	5075	4187.5
898.2975	1603.4308	5066.65	4180.55
898.4398	1605.194	5046	4158.55
898.5821	1606.9564	5058.3	4175.75
898.7243	1608.7182	5077.15	4191.25
898.8666	1610.4791	5085.3	4204.05
899.0088	1612.2394	5125.6	4243.55
899.1511	1613.9988	5160.25	4277.45
899.2933	1615.7576	5185.75	4301.8
899.4355	1617.5156	5178.45	4286.25
899.5776	1619.2728	5164.55	4279.7
899.7198	1621.0293	5092.05	4206.35
899.862	1622.785	5031.25	4141.6
900.0041	1624.54	4951.8	4064.5
900.1462	1626.2942	4905.25	4020.45
900.2883	1628.0477	4814	3926.45
900.4304	1629.8005	4767.25	3878.95
900.5725	1631.5525	4721.2	3838.5
900.7145	1633.3037	4671	3785.9
900.8566	1635.0542	4642.7	3757.85
900.9986	1636.804	4625.85	3742.6
901.1406	1638.553	4648.25	3681.75
901.2826	1640.3013	4565.85	3681.4
901.4245	1642.0488	4541.85	3656.1
901.5665	1643.7955	4513.7	3632.15
901.7085	1645.5416	4498.6	3614.85
901.8504	1647.2868	4482.4	3598.15
901.9923	1649.0313	4468.95	3584.3
902.1342	1650.7751	4448.2	3563.5
902.2761	1652.5181	4458.45	3573.9
902.4179	1654.2604	4417.9	3533.4
902.5598	1656.0019	4413.6	3529.65
902.7016	1657.7427	4422	3537.4
902.8434	1659.4828	4428.4	3547.35
902.9852	1661.222	4416	3532.1
903.127	1662.9606	4405.5	3522.25
903.2687	1664.6984	4428	3543.05
903.4105	1666.4354	4434	3549.1
903.5522	1668.1717	4385.15	3499.25
903.6939	1669.9072	4357	3470.25
903.8356	1671.642	4344.7	3456.25
903.9773	1673.3761	4300.95	3417.4
904.119	1675.1094	4253.5	3367.75
904.2606	1676.8419	4237.05	3352.2
904.4022	1678.5737	4211.2	3325.5
904.5439	1680.3048	4188.8	3304.65
904.6855	1682.0351	4173.75	3287.1
904.827	1683.7646	4159.3	3271.55
904.9686	1685.4934	4134.85	3249.45
905.1101	1687.2215	4130.9	3247.85
905.2517	1688.9488	4093.05	3209.35
905.3932	1690.6754	4069.1	3186.65
905.5347	1692.4012	4063.95	3181.3
905.6761	1694.1263	4052	3167.95
905.8176	1695.8506	4043.1	3159.4
905.9591	1697.5742	4037.85	3153.05
906.1005	1699.297	4006.1	3121.65
906.2419	1701.0191	4000.95	3117.8
906.3833	1702.7404	3980.8	3098.3
906.5246	1704.461	3954.2	3066.95
906.666	1706.1808	3953.5	3069.55
906.8073	1707.8999	3943.6	3059.95
906.9487	1709.6182	3931.4	3049.05
907.09	1711.3358	3919.55	3035.65
907.2313	1713.0527	3917.6	3038.05
907.3725	1714.7688	3897.65	3009.25
907.5138	1716.4841	3879.6	2996.55
907.655	1718.1987	3877.5	2988.5
907.7962	1719.9126	3859.4	2977.65
907.9374	1721.6257	3845.5	2960.25
908.0786	1723.338	3849.35	2966.25
908.2198	1725.0496	3829.15	2943.2
908.3609	1726.7605	3826.5	2939.6
908.502	1728.4706	3820.65	2938.75
908.6431	1730.18	3808.4	2923.05
908.7842	1731.8886	3796.7	2914.35
908.9253	1733.5964	3804.4	2916.55
909.0664	1735.3036	3790.25	2906.5
909.2074	1737.0099	3797.4	2914.5
909.3484	1738.7156	3784.1	2902.95
909.4894	1740.4204	3782.3	2895.4
909.6304	1742.1246	3784.9	2898.5
909.7714	1743.8279	3772.4	2891.75
909.9123	1745.5306	3773.8	2889.65
910.0532	1747.2325	3757.9	2875.35
910.1941	1748.9336	3742.1	2858.9
910.335	1750.634	3749.95	2864.7
910.4759	1752.3336	3739.1	2856.2
910.6168	1754.0325	3716.05	2835.6
910.7576	1755.7307	3720.3	2838.6
910.8984	1757.4281	3726.5	2844.2
911.0392	1759.1247	3731.8	2839.55
911.18	1760.8206	3719.15	2833.15
911.3208	1762.5158	3724.4	2836.85
911.4615	1764.2102	3686	2803.2
911.6022	1765.9039	3678.25	2794.65
911.7429	1767.5968	3688.75	2805.9
911.8836	1769.289	3684.15	2800
912.0243	1770.9804	3676.8	2791.9
912.1649	1772.6711	3666.2	2782.7
912.3056	1774.361	3661.9	2778.7
912.4462	1776.0502	3654.75	2771.6
912.5868	1777.7386	3638.2	2752.2
912.7274	1779.4263	3652.8	2771.05
912.8679	1781.1132	3633.4	2748.7
913.0084	1782.7994	3622.35	2738.2
913.149	1784.4849	3629.85	2748.6
913.2895	1786.1696	3619.1	2717.6
913.4299	1787.8535	3609.4	2728.05
913.5704	1789.5367	3592.1	2710.5
913.7108	1791.2192	3600.1	2718.5
913.8513	1792.9009	3595.4	2683
913.9917	1794.5818	3577.45	2692
914.132	1796.2621	3565.25	2684.1
914.2724	1797.9415	3565.2	2681.2
914.4128	1799.6202	3548.45	2663.6
914.5531	1801.2982	3539.8	2655.85
914.6934	1802.9755	3534.8	2651.05
914.8337	1804.6519	3540.3	2656.85
914.9739	1806.3277	3511.35	2626.95
915.1142	1808.0027	3503.9	2619.3
915.2544	1809.6769	3515.95	2633.1
915.3946	1811.3504	3493.25	2608.95
915.5348	1813.0231	3498.3	2613.95
915.675	1814.6951	3495.95	2613.1
915.8151	1816.3664	3493.35	2608.35
915.9553	1818.0369	3484	2597.65
916.0954	1819.7067	3471.3	2589.05
916.2355	1821.3757	3478	2595.15
916.3755	1823.044	3476.35	2592.6
916.5156	1824.7115	3468.5	2586.95
916.6556	1826.3783	3434.65	2552.65
916.7956	1828.0443	3432.4	2550.85
916.9356	1829.7096	3435.6	2551.3
917.0756	1831.3741	3433.3	2546.65
917.2155	1833.0379	3413.85	2532.6
917.3555	1834.701	3402.7	2519
917.4954	1836.3633	3408.35	2524.65
917.6353	1838.0248	3400.45	2516.05
917.7751	1839.6856	3388.75	2505.3
917.915	1841.3457	3393.4	2510
918.0548	1843.005	3391.15	2509.05
918.1946	1844.6636	3374.15	2491.45
918.3344	1846.3214	3373	2491.1
918.4742	1847.9785	3365.05	2483
918.6139	1849.6349	3362.45	2479.25
918.7537	1851.2904	3349.05	2456.1
918.8934	1852.9453	3350.95	2466.65
919.0331	1854.5994	3344.9	2459.65
919.1727	1856.2528	3342.1	2453.8
919.3124	1857.9054	3333.45	2450.25
919.452	1859.5572	3323.55	2442.25
919.5916	1861.2083	3316.9	2431.8
919.7312	1862.8587	3330	2446.8
919.8708	1864.5084	3323.55	2439.15
920.0103	1866.1572	3301.25	2419.85
920.1498	1867.8054	3300	2415
920.2893	1869.4528	3295.2	2408.85
920.4288	1871.0994	3272.2	2388.45
920.5683	1872.7453	3281.4	2397.25
920.7077	1874.3905	3277.05	2388
920.8471	1876.0349	3273.45	2388.55
920.9865	1877.6786	3256.05	2369.45
921.1259	1879.3215	3260.15	2376.2
921.2653	1880.9637	3256.25	2374.15
921.4046	1882.6051	3266.35	2383.15
921.5439	1884.2458	3250.6	2367.1
921.6832	1885.8858	3231.05	2348.45
921.8225	1887.525	3225.8	2342.4
921.9617	1889.1634	3220.85	2336.95
922.101	1890.8011	3203.6	2320.1
922.2402	1892.4381	3206.3	2323.6
922.3794	1894.0743	3213.55	2329.75
922.5185	1895.7098	3208.05	2324
922.6577	1897.3446	3210.65	2325.6
922.7968	1898.9786	3187.65	2301.25
922.9359	1900.6118	3194	2311.55
923.075	1902.2443	3177.05	2292.55
923.214	1903.8761	3167.6	2283.15
923.3531	1905.5071	3158.85	2274.55
923.4921	1907.1374	3150.65	2271.15
923.6311	1908.7669	3157	2273.3
923.77	1910.3957	3153.1	2270.4
923.909	1912.0237	3131.15	2248.05
924.0479	1913.651	3122.75	2238.6
924.1868	1915.2776	3121.7	2239.15
924.3257	1916.9034	3110.75	2229.4
924.4646	1918.5285	3101.15	2217.75
924.6034	1920.1528	3096	2212.45
924.7422	1921.7764	3091.05	2206.65
924.881	1923.3992	3074.35	2190
925.0198	1925.0213	3068.4	2185.5
925.1586	1926.6427	3064.65	2184.45
925.2973	1928.2633	3266.55	2137.2
925.436	1929.8832	3097.7	2212.45
925.5747	1931.5023	3042.9	2161.3
925.7134	1933.1207	3032.3	2149.35
925.852	1934.7383	3033.6	2150.3
925.9906	1936.3552	3021.6	2138.25
926.1292	1937.9714	3039.45	2156.4
926.2678	1939.5868	3024.65	2139.4
926.4064	1941.2015	3008.1	2125.75
926.5449	1942.8154	2992.2	2109.35
926.6834	1944.4286	2986.9	2102.45
926.8219	1946.041	2995.5	2090.85
926.9604	1947.6528	2985.85	2098.55
927.0988	1949.2637	2960.6	2077.4
927.2372	1950.8739	2961.45	2077.3
927.3756	1952.4834	2965.6	2082.65
927.514	1954.0921	2955.55	2072.2
927.6523	1955.7001	2950.1	2061.15
927.7907	1957.3074	2942.8	2064
927.929	1958.9139	2940.25	2059.75
928.0673	1960.5197	2934.05	2050.9
928.2055	1962.1247	2928.45	2048.35
928.3438	1963.729	2921.05	2039.1
928.482	1965.3325	2938.95	2034.5
928.6202	1966.9353	2905.35	2023.75
928.7584	1968.5374	2902.6	2019.75
928.8965	1970.1387	2903.9	2019.7
929.0346	1971.7393	2890.4	2008.6
929.1727	1973.3392	2894.9	2012.65
929.3108	1974.9383	2870.3	1990.15
929.4489	1976.5366	2862.4	1980.1
929.5869	1978.1342	2867.5	1984.25
929.7249	1979.7311	2865.65	1982.05
929.8629	1981.3273	2861.05	1979.75
930.0009	1982.9227	2851.95	1969
930.1388	1984.5173	2834.95	1954.1
930.2767	1986.1112	2838.05	1957.6
930.4146	1987.7044	2828.45	1947.2
930.5525	1989.2968	2827.25	1945.15
930.6904	1990.8885	2832.5	1946.95
930.8282	1992.4795	2835.55	1955.1
930.966	1994.0697	2813.8	1935.4
931.1038	1995.6592	2800.3	1920.95
931.2415	1997.2479	2814.2	1933.15
931.3793	1998.8359	2808.7	1928.1
931.517	2000.4232	2780.9	1902.15
931.6547	2002.0097	2792.55	1914.55
931.7923	2003.5955	2783.65	1903.1
931.93	2005.1805	2788.1	1907.8
932.0676	2006.7648	2779.5	1898.85
932.2052	2008.3484	2775.65	1893.9
932.3427	2009.9312	2783.1	1900.55
932.4803	2011.5133	2761.85	1886.45
932.6178	2013.0946	2762.3	1881.95
932.7553	2014.6752	2755.05	1875.15
932.8928	2016.2551	2754.9	1876.1
933.0302	2017.8342	2751	1869.75
933.1676	2019.4126	2739.55	1860.35
933.305	2020.9902	2725.15	1846.55
933.4424	2022.5672	2729.8	1848.5
933.5798	2024.1433	2732.2	1846.75
933.7171	2025.7188	2730.4	1851.3
933.8544	2027.2935	2723	1843.9
933.9917	2028.8674	2710.15	1831.55
934.129	2030.4406	2709.1	1830.65
934.2662	2032.0131	2698.85	1819.7
934.4034	2033.5849	2703.05	1818.2
934.5406	2035.1559	2694.65	1816.45
934.6778	2036.7261	2688.1	1808.45
934.8149	2038.2957	2698.75	1819.8
934.952	2039.8645	2684.05	1803.8
935.0891	2041.4325	2690	1806.5
935.2262	2042.9998	2681.05	1802.6
935.3632	2044.5664	2682.45	1799.85
935.5002	2046.1323	2681.4	1802.25
935.6372	2047.6974	2665	1786.3
935.7742	2049.2617	2665.9	1785.9
935.9111	2050.8254	2692.6	1808.55
936.048	2052.3883	2674.9	1793.15
936.1849	2053.9504	2666.1	1784.8
936.3218	2055.5118	2660.25	1779.8
936.4586	2057.0725	2657.65	1776.35
936.5955	2058.6325	2658.75	1777.8
936.7323	2060.1917	2655.45	1776.5
936.869	2061.7502	2643.6	1760.05
937.0058	2063.3079	2626.25	1745.75
937.1425	2064.8649	2638.3	1753.8
937.2792	2066.4212	2628.8	1749.05
937.4159	2067.9767	2648.15	1766.8
937.5525	2069.5315	2627.2	1747.75
937.6891	2071.0856	2623.6	1743.7
937.8257	2072.6389	2619.6	1739.25
937.9623	2074.1915	2599.9	1720.4
938.0989	2075.7433	2600.8	1719.85
938.2354	2077.2945	2596.05	1717.7
938.3719	2078.8448	2596.3	1715.45
938.5084	2080.3945	2582.2	1702.3
938.6448	2081.9434	2596.6	1715
938.7812	2083.4916	2589.1	1707.9
938.9176	2085.039	2584.75	1703.4
939.054	2086.5857	2585.45	1702.15
939.1903	2088.1317	2582.05	1700.35
939.3267	2089.677	2576.95	1693.65
939.463	2091.2215	2579.45	1696.75
939.5992	2092.7652	2561.35	1678.7
939.7355	2094.3083	2570.15	1686.85
939.8717	2095.8506	2567.2	1687.3
940.0079	2097.3921	2573.45	1694.3
940.1441	2098.933	2560.25	1679.8
940.2802	2100.4731	2555.65	1675.4
940.4163	2102.0124	2578.85	1679.5
940.5524	2103.5511	2556.7	1676.95
940.6885	2105.089	2549.9	1668.05
940.8245	2106.6261	2546.9	1666.7
940.9606	2108.1626	2550.65	1669.1
941.0965	2109.6983	2569.5	1660.55
941.2325	2111.2332	2541.45	1661.5
941.3684	2112.7675	2539.85	1659.5
941.5044	2114.301	2540.15	1657.25
941.6403	2115.8337	2534.95	1656.55
941.7761	2117.3657	2527.7	1647.4
941.912	2118.897	2527.55	1644.55
942.0478	2120.4276	2532.3	1644.7
942.1835	2121.9575	2513.8	1633.5
942.3193	2123.4866	2532.95	1638.75
942.455	2125.0149	2523.45	1639.15
942.5907	2126.5426	2512.25	1631.45
942.7264	2128.0695	2506.05	1619.95
942.8621	2129.5956	2499.65	1622.8
942.9977	2131.1211	2503.4	1619.25
943.1333	2132.6458	2509.65	1631.05
943.2689	2134.1698	2495.65	1615.6
943.4044	2135.693	2507.35	1625.35
943.54	2137.2155	2485.7	1603.05
943.6755	2138.7373	2495.4	1614.85
943.8109	2140.2584	2482.25	1601.05
943.9464	2141.7787	2483.15	1598.75
944.0818	2143.2983	2480.7	1601.8
944.2172	2144.8171	2459.7	1582.05
944.3526	2146.3353	2457.35	1573.75
944.4879	2147.8527	2458	1578.75
944.6232	2149.3693	2464.55	1584.15
944.7585	2150.8853	2453.55	1572.4
944.8938	2152.4005	2442.55	1560.9
945.029	2153.9149	2445.45	1565
945.1642	2155.4287	2427.25	1547.15
945.2994	2156.9417	2437.8	1553.95
945.4346	2158.454	2437.9	1556.9
945.5697	2159.9655	2431.8	1551.85
945.7048	2161.4764	2431.95	1552.35
945.8399	2162.9865	2424.95	1545.65
945.9749	2164.4958	2424.15	1543.25
946.1099	2166.0045	2411.3	1528.15
946.2449	2167.5124	2414.85	1536.85
946.3799	2169.0195	2406.3	1526.45
946.5148	2170.526	2404	1522.65
946.6498	2172.0317	2401.7	1522
946.7846	2173.5367	2405.65	1521.8
946.9195	2175.0409	2388.65	1510.05
947.0543	2176.5445	2396.2	1518.3
947.1891	2178.0473	2385.5	1504.2
947.3239	2179.5494	2381.55	1499.5
947.4587	2181.0507	2374.5	1493.8
947.5934	2182.5513	2368.55	1488.65
947.7281	2184.0512	2374.65	1493.1
947.8628	2185.5504	2370.75	1489.6
947.9974	2187.0488	2355.25	1476.65
948.132	2188.5465	2345.75	1463.95
948.2666	2190.0435	2361.3	1480.75
948.4012	2191.5397	2335.05	1454.7
948.5357	2193.0353	2345.95	1466.8
948.6702	2194.5301	2337.15	1455.15
948.8047	2196.0241	2327.05	1446.1
948.9392	2197.5175	2324.8	1441.25
949.0736	2199.0101	2335.1	1449.9
949.208	2200.502	2321.2	1440.85
949.3424	2201.9931	2312.6	1432.55
949.4767	2203.4835	2304.3	1422.85
949.611	2204.9733	2316.6	1431.55
949.7453	2206.4622	2305.15	1427.65
949.8796	2207.9505	2308.45	1425.1
950.0138	2209.438	2297.7	1418.25
950.148	2210.9248	2286.5	1406.55
950.2822	2212.4109	2285.3	1406.45
950.4164	2213.8962	2279	1396.6
950.5505	2215.3809	2278.8	1395.9
950.6846	2216.8648	2270.15	1386.3
950.8186	2218.3479	2276.3	1390.35
950.9527	2219.8304	2262.15	1376.5
951.0867	2221.3121	2256.45	1374.2
951.2207	2222.7931	2250.1	1369.2
951.3546	2224.2733	2247.9	1365.65
951.4886	2225.7529	2243.05	1361.6
951.6225	2227.2317	2241.3	1359.95
951.7563	2228.7098	2241.85	1360.15
951.8902	2230.1872	2237	1357.85
952.024	2231.6638	2232.3	1353.4
952.1578	2233.1397	2225.85	1338.8
952.2916	2234.6149	2215.9	1335.85
952.4253	2236.0894	2217.05	1336.35
952.559	2237.5632	2225.05	1334.7
952.6927	2239.0362	2214.35	1333.8
952.8263	2240.5085	2209.25	1327.95
952.9599	2241.9801	2202.65	1320.5
953.0935	2243.4509	2199.3	1318.9
953.2271	2244.921	2198.45	1317.05
953.3606	2246.3904	2185.1	1301.5
953.4941	2247.8591	2181.55	1302.15
953.6276	2249.3271	2177.15	1297.05
953.7611	2250.7943	2178.5	1299.05
953.8945	2252.2608	2168.1	1287.95
954.0279	2253.7266	2171.3	1290.7
954.1612	2255.1917	2168.45	1288.35
954.2946	2256.656	2167.05	1285.25
954.4279	2258.1197	2164.75	1284.8
954.5612	2259.5826	2155.05	1271.8
954.6944	2261.0447	2148.75	1268.55
954.8276	2262.5062	2139.85	1256.1
954.9608	2263.9669	2141.65	1259.6
955.094	2265.4269	2137.5	1256.75
955.2271	2266.8862	2137.7	1256.7
955.3602	2268.3448	2136.9	1258.45
955.4933	2269.8026	2136.7	1255.3
955.6264	2271.2598	2131.65	1252.75
955.7594	2272.7162	2119.65	1240.25
955.8924	2274.1719	2119.05	1237.25
956.0253	2275.6268	2115.65	1235.65
956.1583	2277.0811	2118	1235.75
956.2912	2278.5346	2121.45	1240.45
956.4241	2279.9874	2112.95	1232.35
956.5569	2281.4395	2107.55	1227.45
956.6897	2282.8908	2105.8	1222.1
956.8225	2284.3414	2100.55	1219.6
956.9553	2285.7914	2093.75	1213.8
957.088	2287.2406	2094.95	1212.3
957.2207	2288.689	2092.45	1213.1
957.3534	2290.1368	2096.1	1213.2
957.486	2291.5838	2088	1201
957.6186	2293.0302	2091.5	1208.65
957.7512	2294.4758	2069.8	1188.7
957.8838	2295.9206	2071.75	1187.85
958.0163	2297.3648	2061.95	1180.2
958.1488	2298.8082	2056.4	1173.75
958.2813	2300.251	2071.75	1189.7
958.4137	2301.693	2054.85	1173
958.5461	2303.1343	2051.95	1170.7
958.6785	2304.5748	2047.45	1170.85
958.8108	2306.0147	2045.05	1163.85
958.9432	2307.4538	2051.2	1168.2
959.0754	2308.8922	2047.55	1169.25
959.2077	2310.3299	2034.45	1154.7
959.3399	2311.7669	2027.8	1149.1
959.4721	2313.2031	2029.7	1149.2
959.6043	2314.6387	2020.65	1139.45
959.7365	2316.0735	2015.65	1134.45
959.8686	2317.5076	2016.7	1136.1
960.0006	2318.941	2011.3	1129.65
960.1327	2320.3737	2008.3	1126.65
960.2647	2321.8056	2011.05	1128.55
960.3967	2323.2369	2003.15	1123.35
960.5287	2324.6674	2001.7	1118.1
960.6606	2326.0972	2000.65	1119.5
960.7925	2327.5263	1997	1117.95
960.9244	2328.9547	1992.1	1110.45
961.0562	2330.3823	1997.3	1114.3
961.1881	2331.8092	1992.55	1108.65
961.3198	2333.2355	1986.55	1103.6
961.4516	2334.661	1983.2	1101.85
961.5833	2336.0858	1972.6	1089.5
961.715	2337.5098	1967.5	1083.95
961.8467	2338.9332	1972.7	1092.45
961.9783	2340.3558	1964.4	1080.05
962.1099	2341.7778	1961.7	1079.65
962.2415	2343.199	1962.1	1080.25
962.373	2344.6195	1946.95	1067.95
962.5045	2346.0393	1944.95	1064.15
962.636	2347.4583	1952.45	1070.7
962.7675	2348.8767	1942.5	1058.9
962.8989	2350.2943	1948.25	1067.95
963.0303	2351.7113	1939.7	1056.6
963.1617	2353.1275	1934.75	1050.45
963.293	2354.543	1931.05	1040.2
963.4243	2355.9578	1923.05	1042.45
963.5556	2357.3718	1924.15	1041.5
963.6868	2358.7852	1911.3	1029.5
963.818	2360.1978	1916.6	1033.3
963.9492	2361.6098	1906.3	1024.45
964.0803	2363.021	1902.1	1015.4
964.2114	2364.4315	1905.05	1023.4
964.3425	2365.8413	1898.6	1015.85
964.4736	2367.2504	1884	1003.9
964.6046	2368.6587	1890.45	1008.4
964.7356	2370.0664	1887.5	1008
964.8666	2371.4733	1878.3	993.5
964.9975	2372.8795	1873.4	993.2
965.1284	2374.285	1868.95	985.15
965.2593	2375.6899	1862.4	984.35
965.3901	2377.0939	1859.65	977.3
965.5209	2378.4973	1850.05	968.15
965.6517	2379.9	1848.65	967.3
965.7825	2381.3019	1856.65	974
965.9132	2382.7032	1840.85	960.2
966.0439	2384.1037	1829.75	950.65
966.1745	2385.5035	1840.45	957.1
966.3051	2386.9027	1830.85	952.4
966.4357	2388.3011	1833.25	950.2
966.5663	2389.6987	1833.7	951.45
966.6968	2391.0957	1831.35	950.35
966.8273	2392.492	1820.45	941.65
966.9578	2393.8876	1821.3	940.5
967.0882	2395.2824	1808.95	926.95
967.2186	2396.6765	1803.3	920.95
967.349	2398.07	1804.55	922.65
967.4793	2399.4627	1801.5	916.55
967.6097	2400.8547	1808.45	926
967.7399	2402.246	1801.5	916.15
967.8702	2403.6366	1781.55	897.05
968.0004	2405.0265	1781.2	899.95
968.1306	2406.4156	1777.5	891.95
968.2607	2407.8041	1781.45	895.55
968.3909	2409.1918	1772.75	888.75
968.521	2410.5789	1767	884.15
968.651	2411.9652	1771.85	883.6
968.781	2413.3508	1764.75	881.6
968.911	2414.7358	1756.5	873
969.041	2416.12	1754.15	874.2
969.1709	2417.5035	1753.1	871.95
969.3008	2418.8863	1747.6	864.75
969.4307	2420.2684	1742.4	860.85
969.5606	2421.6497	1736.4	853.85
969.6904	2423.0304	1732.95	850.6
969.8201	2424.4104	1734.4	851.05
969.9499	2425.7896	1734.9	850.45
970.0796	2427.1682	1726.45	843
970.2093	2428.546	1727.9	844.2
970.3389	2429.9232	1735.8	852.5
970.4685	2431.2996	1724.45	843.45
970.5981	2432.6753	1719.75	835.25
970.7277	2434.0503	1721.5	838.45
970.8572	2435.4246	1714.75	833.7
970.9867	2436.7982	1718.4	833.45
971.1161	2438.1711	1707.4	826.25
971.2456	2439.5433	1704.2	820.5
971.375	2440.9148	1698.4	810.7
971.5043	2442.2856	1696.25	813.7
971.6336	2443.6557	1698.7	814.4
971.7629	2445.025	1695.2	813.65
971.8922	2446.3937	1691.2	807.25
972.0214	2447.7617	1683.3	800.85
972.1506	2449.1289	1685.3	803.1
972.2798	2450.4955	1690.65	804.4
972.4089	2451.8613	1681.8	800.2
972.538	2453.2265	1676.8	797.15
972.6671	2454.5909	1681.45	800
972.7961	2455.9546	1665.65	784.45
972.9251	2457.3177	1666.15	784.45
973.0541	2458.68	1668	787.9
973.1831	2460.0416	1667.15	784.2
973.312	2461.4025	1663.85	781.8
973.4408	2462.7627	1674.5	780.05
973.5697	2464.1222	1657.8	777.45
973.6985	2465.4811	1658.35	776.35
973.8273	2466.8392	1653.4	769.25
973.956	2468.1966	1650.6	766.55
974.0847	2469.5533	1654.55	769.6
974.2134	2470.9093	1652.3	770.75
974.3421	2472.2645	1647.25	763.85
974.4707	2473.6191	1648.5	765.8
974.5993	2474.973	1634.2	752.55
974.7278	2476.3262	1640.2	754.05
974.8563	2477.6787	1638.25	756.75
974.9848	2479.0305	1620.4	738.65
975.1132	2480.3816	1637.9	754.95
975.2417	2481.7319	1628.6	747.05
975.37	2483.0816	1628.15	744.35
975.4984	2484.4306	1622	738.35
975.6267	2485.7789	1621.1	741.65
975.755	2487.1264	1619.3	735.4
975.8833	2488.4733	1614.35	735.55
976.0115	2489.8195	1616.3	726.6
976.1397	2491.165	1601.9	718.95
976.2678	2492.5097	1600.95	716.4
976.3959	2493.8538	1599.7	718.45
976.524	2495.1972	1596.35	713.1
976.6521	2496.5398	1588.8	703.9
976.7801	2497.8818	1596.4	714.45
976.9081	2499.2231	1588.2	704.9
977.036	2500.5637	1587.1	705.45
977.164	2501.9035	1587.3	704.1
977.2918	2503.2427	1588.9	705.65
977.4197	2504.5812	1576.1	695.65
977.5475	2505.919	1579.8	697.15
977.6753	2507.256	1576.15	692.9
977.8031	2508.5924	1577.75	694.2
977.9308	2509.9281	1570.2	679.95
978.0585	2511.2631	1570.15	687.7
978.1861	2512.5974	1557.2	674.6
978.3137	2513.9309	1557.95	674.7
978.4413	2515.2638	1587.95	673.65
978.5689	2516.596	1555.9	673.8
978.6964	2517.9275	1551.75	667.45
978.8239	2519.2583	1547.3	664.65
978.9513	2520.5884	1548.4	666.2
979.0788	2521.9178	1553.15	670.9
979.2062	2523.2465	1544.35	662.4
979.3335	2524.5745	1542.7	660.1
979.4608	2525.9018	1537.4	655.6
979.5881	2527.2284	1532.5	652.3
979.7154	2528.5543	1539.15	657.9
979.8426	2529.8796	1531.3	650.1
979.9698	2531.2041	1536.7	653.7
980.0969	2532.5279	1526	643.7
980.224	2533.851	1524.4	643.2
980.3511	2535.1735	1520.4	638
980.4781	2536.4952	1524.85	642.9
980.6052	2537.8163	1522.25	638.7
980.7321	2539.1366	1522	638.35
980.8591	2540.4562	1522.2	639.45
980.986	2541.7752	1517.85	638.1
981.1129	2543.0935	1508.7	626.35
981.2397	2544.411	1512.75	631.05
981.3665	2545.7279	1512.7	630.15
981.4933	2547.0441	1508.7	626
981.62	2548.3596	1505.7	619.8
981.7467	2549.6744	1501.9	620.25
981.8734	2550.9885	1510.95	619.2
982.0001	2552.3019	1499.15	618.15
982.1267	2553.6146	1502.45	620.7
982.2532	2554.9266	1492.55	611.45
982.3798	2556.2379	1499.95	617.75
982.5063	2557.5485	1492.4	611.5
982.6327	2558.8585	1492.8	602.5
982.7592	2560.1677	1487.8	601.85
982.8856	2561.4762	1478.35	595.75
983.0119	2562.7841	1496.45	610.65
983.1383	2564.0913	1485.75	605.4
983.2646	2565.3977	1480.85	598.2
983.3908	2566.7035	1473.85	591
983.517	2568.0086	1482.9	599.15
983.6432	2569.313	1483.5	601.25
983.7694	2570.6167	1485.5	601.45
983.8955	2571.9197	1476.4	594.75
984.0216	2573.222	1476.1	591.25
984.1476	2574.5236	1472.95	590.65
984.2737	2575.8246	1465.9	583.65
984.3996	2577.1248	1467.65	581.3
984.5256	2578.4244	1464	580.8
984.6515	2579.7232	1465.55	582.9
984.7774	2581.0214	1489.15	582.3
984.9032	2582.3189	1461.3	579.75
985.029	2583.6157	1461.35	573.85
985.1548	2584.9118	1462.35	580.25
985.2806	2586.2072	1461.25	580.4
985.4063	2587.5019	1463	580.9
985.5319	2588.7959	1452	568.45
985.6576	2590.0893	1452.65	568.85
985.7832	2591.3819	1454	573.1
985.9087	2592.6739	1445.15	563.55
986.0343	2593.9652	1440.9	556.35
986.1597	2595.2557	1442.2	563.45
986.2852	2596.5456	1445.15	561.1
986.4106	2597.8348	1440.3	560.5
986.536	2599.1234	1433.7	553
986.6614	2600.4112	1432	550.25
986.7867	2601.6983	1439.2	556.7
986.912	2602.9848	1426.95	543.45
987.0372	2604.2705	1435.75	547.05
987.1624	2605.5556	1425	542.7
987.2876	2606.84	1425.5	543.3
987.4128	2608.1237	1413.85	531.85
987.5379	2609.4067	1417.25	534.6
987.6629	2610.689	1424.2	532.65
987.788	2611.9707	1422.6	536.85
987.913	2613.2516	1408.65	521.2
988.0379	2614.5319	1404.1	522.05
988.1629	2615.8115	1404.2	522.35
988.2878	2617.0903	1406	523.2
988.4126	2618.3685	1396.6	514.75
988.5375	2619.6461	1392.75	510.35
988.6622	2620.9229	1392	511.15
988.787	2622.199	1390	507.8
988.9117	2623.4745	1388.15	505.45
989.0364	2624.7493	1383.35	501.15
989.161	2626.0234	1383.65	503.15
989.2857	2627.2968	1388.75	508.8
989.4102	2628.5695	1382.7	499.8
989.5348	2629.8415	1371.3	491
989.6593	2631.1128	1372.1	489.45
989.7837	2632.3835	1379.4	497.7
989.9082	2633.6535	1370	489.25
990.0326	2634.9228	1364.45	481.8
990.1569	2636.1914	1365.7	483.15
990.2812	2637.4593	1369.4	481.95
990.4055	2638.7265	1369.15	487.65
990.5298	2639.9931	1360.4	478.4
990.654	2641.259	1362.75	479.4
990.7782	2642.5242	1361.45	480.9
990.9023	2643.7887	1357.8	475.15
991.0264	2645.0525	1364.3	481.55
991.1505	2646.3156	1352.7	467.4
991.2745	2647.5781	1349.5	469.1
991.3985	2648.8398	1351.1	469.4
991.5225	2650.1009	1356.2	466.25
991.6464	2651.3613	1346.85	465.75
991.7703	2652.6211	1340.4	460.1
991.8942	2653.8801	1339.65	459.05
992.018	2655.1385	1347.25	463.1
992.1418	2656.3961	1339.65	459
992.2655	2657.6531	1333.9	452.6
992.3892	2658.9094	1329.9	448.25
992.5129	2660.1651	1340.8	459.3
992.6366	2661.42	1337.5	456.5
992.7602	2662.6743	1340	457.35
992.8837	2663.9279	1332.1	450.2
993.0073	2665.1808	1328.2	447.1
993.1307	2666.433	1326.1	442
993.2542	2667.6846	1327.65	447.35
993.3776	2668.9354	1328.1	442.4
993.501	2670.1856	1322.1	438.75
993.6244	2671.4351	1322.9	440.7
993.7477	2672.6839	1328.4	445.15
993.8709	2673.9321	1319.2	437.55
993.9942	2675.1795	1319.2	439.1
994.1174	2676.4263	1311.15	430.95
994.2405	2677.6724	1311	428.75
994.3637	2678.9179	1313.15	431.15
994.4868	2680.1626	1315.1	434.9
994.6098	2681.4067	1303.15	421.35
994.7328	2682.6501	1311.95	430.75
994.8558	2683.8928	1303.6	421.75
994.9788	2685.1348	1303.8	424.7
995.1017	2686.3761	1297.15	416.5
995.2245	2687.6168	1297.4	416.25
995.3474	2688.8568	1295.55	414.95
995.4702	2690.0961	1297.6	416.1
995.5929	2691.3348	1297.8	414.7
995.7156	2692.5727	1295.55	413.3
995.8383	2693.81	1294.55	413.2
995.961	2695.0466	1290.35	411.85
996.0836	2696.2826	1294.2	412.15
996.2062	2697.5178	1291.95	408.55
996.3287	2698.7524	1282.05	399
996.4512	2699.9863	1284.9	400.95
996.5737	2701.2195	1280.75	399.95
996.6961	2702.452	1284.75	400
996.8185	2703.6839	1280.35	397.7
996.9408	2704.9151	1277.35	396.45
997.0631	2706.1456	1276.5	396.85
997.1854	2707.3755	1274.1	391.7
997.3077	2708.6046	1277.25	395.35
997.4299	2709.8331	1279.2	397.75
997.552	2711.0609	1272.55	389.8
997.6742	2712.2881	1267.7	387.15
997.7963	2713.5145	1271.7	388.55
997.9183	2714.7403	1264.75	383.8
998.0403	2715.9654	1271.95	389.7
998.1623	2717.1899	1275	378.2
998.2842	2718.4136	1263.65	382.9
998.4062	2719.6367	1264.9	383.85
998.528	2720.8591	1261.4	371.15
998.6498	2722.0809	1258.55	378.5
998.7716	2723.3019	1260.3	375.85
998.8934	2724.5223	1259.95	376.9
999.0151	2725.7421	1255.8	371.85
999.1368	2726.9611	1259.6	375.9
999.2584	2728.1795	1254.2	367.8
999.38	2729.3972	1248.75	366.85
999.5016	2730.6142	1264.75	369.7
999.6231	2731.8306	1244.65	363.85
999.7446	2733.0462	1241.6	359
999.8661	2734.2612	1242.2	358.65
999.9875	2735.4756	1242.45	359.2
1000.1089	2736.6892	1238.65	357.55
1000.2302	2737.9022	1229.55	349.65
1000.3515	2739.1145	1230.15	347.8
1000.4728	2740.3262	1241.2	351.2
1000.594	2741.5372	1229.7	349.1
1000.7152	2742.7475	1223.95	342.6
1000.8363	2743.9571	1224.55	341.55
1000.9575	2745.1661	1234.95	350.6
1001.0785	2746.3744	1224.2	341.55
1001.1996	2747.582	1220.7	339.25
1001.3206	2748.7889	1221.35	336.05
1001.4415	2749.9952	1225.65	347.3
1001.5625	2751.2008	1220.65	338
1001.6833	2752.4057	1215.5	333.7
1001.8042	2753.61	1221.1	339.25
1001.925	2754.8136	1214.5	330.75
1002.0458	2756.0165	1215.95	336.1
1002.1665	2757.2188	1210.8	330.15
1002.2872	2758.4204	1204.3	324.6
1002.4078	2759.6213	1214.05	330.75
1002.5285	2760.8215	1211.8	328.8
1002.649	2762.0211	1204	321.7
1002.7696	2763.22	1202.6	319.4
1002.8901	2764.4182	1199.95	317.45
1003.0106	2765.6158	1201.5	320.5
1003.131	2766.8127	1198.7	315.85
1003.2514	2768.009	1196.75	314.6
1003.3717	2769.2045	1199.25	318.2
1003.492	2770.3994	1197.8	314.45
1003.6123	2771.5936	1192.65	313.7
1003.7325	2772.7872	1185	304.4
1003.8527	2773.9801	1187.8	305.8
1003.9729	2775.1723	1208.7	313.6
1004.093	2776.3639	1183.6	304.2
1004.2131	2777.5548	1187.2	303.55
1004.3331	2778.745	1184	303.5
1004.4531	2779.9346	1186.4	306.35
1004.5731	2781.1235	1180.55	298.95
1004.693	2782.3117	1180.4	302.05
1004.8129	2783.4992	1179.35	299.95
1004.9328	2784.6861	1177.55	296.05
1005.0526	2785.8723	1177.3	296.55
1005.1723	2787.0579	1182.2	302.25
1005.2921	2788.2428	1171.95	290.25
1005.4118	2789.427	1173.95	292.2
1005.5314	2790.6106	1173.15	293.25
1005.651	2791.7935	1170.95	286.7
1005.7706	2792.9757	1175.1	296.1
1005.8902	2794.1573	1170.1	286.6
1006.0097	2795.3382	1164.95	285.55
1006.1291	2796.5184	1164.7	285.2
1006.2485	2797.698	1169.4	285.45
1006.3679	2798.8769	1163.75	284.9
1006.4873	2800.0551	1164.5	283.15
1006.6066	2801.2327	1166.1	282.4
1006.7258	2802.4096	1158.2	279.85
1006.8451	2803.5859	1163.15	281
1006.9642	2804.7615	1159.8	279.7
1007.0834	2805.9364	1156.2	275.15
1007.2025	2807.1106	1159.35	279.45
1007.3216	2808.2842	1152.7	273.05
1007.4406	2809.4572	1159.15	277.3
1007.5596	2810.6294	1158.3	277.9
1007.6785	2811.801	1157.15	275.9
1007.7975	2812.972	1154.2	273.95
1007.9163	2814.1423	1155.65	275.9
1008.0352	2815.3119	1158.3	278.6
1008.154	2816.4808	1154.45	276.1
1008.2727	2817.6491	1158.1	277.35
1008.3914	2818.8167	1161.05	282.1
1008.5101	2819.9837	1163.05	279.2
1008.6288	2821.15	1161	280.9
1008.7474	2822.3157	1155.25	276.35
1008.8659	2823.4807	1163.15	281.85
1008.9844	2824.645	1171.75	289
1009.1029	2825.8086	1170.1	290.05
1009.2214	2826.9716	1176.7	298.2
1009.3398	2828.134	1175.05	296.3
1009.4581	2829.2957	1184.2	303.6
1009.5764	2830.4567	1182	304.75
1009.6947	2831.617	1183.45	303.75
1009.813	2832.7767	1183.35	302.9
1009.9312	2833.9358	1185.55	306.85
1010.0493	2835.0941	1186.45	304.75
1010.1675	2836.2519	1178.1	297.75
1010.2855	2837.4089	1182.9	301.45
1010.4036	2838.5653	1173.9	294.95
1010.5216	2839.7211	1168.5	289.2
1010.6396	2840.8761	1171.6	290.6
1010.7575	2842.0306	1169.6	290.6
1010.8754	2843.1843	1164.7	283.35
1010.9932	2844.3374	1169.45	291.8
1011.111	2845.4899	1168.55	286.95
1011.2288	2846.6417	1171.15	291.95
1011.3465	2847.7928	1170.9	289.15
1011.4642	2848.9433	1168.05	287.55
1011.5818	2850.0931	1164.55	286.8
1011.6995	2851.2422	1170.6	290.55
1011.817	2852.3907	1177	296.25
1011.9345	2853.5385	1168.95	286.85
1012.052	2854.6857	1184.95	295.1
1012.1695	2855.8323	1166.65	289.55
1012.2869	2856.9781	1173.55	293.5
1012.4042	2858.1233	1172.65	291.55
1012.5216	2859.2679	1179.45	298.5
1012.6389	2860.4118	1178.25	299.2
1012.7561	2861.555	1179.55	293.7
1012.8733	2862.6976	1181.9	298.25
1012.9905	2863.8395	1172.1	290.8
1013.1076	2864.9808	1175.95	296.75
1013.2247	2866.1214	1171.35	292.45
1013.3417	2867.2614	1169.65	288.55
1013.4587	2868.4007	1173.2	291.15
1013.5757	2869.5393	1172.7	291.75
1013.6926	2870.6773	1174.9	293.25
1013.8095	2871.8146	1177.85	295.1
1013.9263	2872.9513	1181.3	297.7
1014.0431	2874.0874	1173.2	292.05
1014.1599	2875.2227	1170.95	290.25
1014.2766	2876.3574	1176.35	294
1014.3933	2877.4915	1173.2	292.35
1014.51	2878.6249	1175	294.6
1014.6266	2879.7577	1167.35	286.65
1014.7431	2880.8898	1182.6	294.25
1014.8596	2882.0212	1174.35	295.85
1014.9761	2883.152	1175.35	295.5
1015.0925	2884.2821	1174.1	296.75
1015.2089	2885.4116	1168.95	288.95
1015.3253	2886.5405	1176.5	297.25
1015.4416	2887.6686	1174.3	291.15
1015.5579	2888.7962	1178.45	300.95
1015.6741	2889.923	1172.7	294.35
1015.7903	2891.0493	1168.55	290.05
1015.9065	2892.1748	1166.6	285.9
1016.0226	2893.2997	1166.35	286.3
1016.1387	2894.424	1166.65	288
1016.2547	2895.5476	1167.2	287.55
1016.3707	2896.6706	1164.95	283.95
1016.4866	2897.7929	1167.65	286.95
1016.6025	2898.9145	1164.1	285
1016.7184	2900.0355	1168.45	288.8
1016.8342	2901.1559	1165.95	284.9
1016.95	2902.2756	1165.45	286.6
1017.0658	2903.3946	1161.7	283.45
1017.1815	2904.513	1164.75	281.65
1017.2971	2905.6308	1160.75	282.05
1017.4127	2906.7479	1161.6	280.1
1017.5283	2907.8643	1155.9	273.05
1017.6439	2908.9801	1154.05	273.65
1017.7594	2910.0953	1154.65	275.25
1017.8748	2911.2098	1158.45	277.1
1017.9902	2912.3236	1160.25	272.2
1018.1056	2913.4368	1158.95	274.7
1018.2209	2914.5494	1154.2	274.25
1018.3362	2915.6613	1158.6	274
1018.4515	2916.7725	1156.8	273.7
1018.5667	2917.8831	1144.35	263.5
1018.6819	2918.9931	1149.55	266.1
1018.797	2920.1024	1142.75	261.35
1018.9121	2921.211	1143.15	263.15
1019.0271	2922.319	1138.3	259.85
1019.1421	2923.4264	1138.4	257.8
1019.2571	2924.5331	1132.95	255.35
1019.372	2925.6391	1135.3	255.85
1019.4869	2926.7445	1133.8	255.45
1019.6017	2927.8493	1139.5	259
1019.7165	2928.9534	1133.65	253.2
1019.8313	2930.0569	1134.4	250.75
1019.946	2931.1597	1137.1	256.55
1020.0606	2932.2619	1133.65	255.1
1020.1753	2933.3634	1129.25	249.65
1020.2899	2934.4643	1142.85	255.45
1020.4044	2935.5645	1145.7	260.25
1020.5189	2936.6641	1136.2	253.9
1020.6334	2937.763	1135.6	254.75
1020.7478	2938.8613	1127.8	247.25
1020.8622	2939.959	1131.05	247
1020.9765	2941.056	1126.6	250.4
1021.0908	2942.1523	1126.2	244.5
1021.2051	2943.248	1124.25	244.65
1021.3193	2944.3431	1110.7	229.2
1021.4334	2945.4375	1106.7	227.35
1021.5476	2946.5313	1103.1	224.05
1021.6617	2947.6244	1102.65	219.75
1021.7757	2948.7169	1100.4	220.6
1021.8897	2949.8087	1087.35	209.3
1022.0037	2950.8999	1087.6	205.35
1022.1176	2951.9904	1079.6	199.5
1022.2315	2953.0803	1077.5	196
1022.3453	2954.1696	1081.25	200.45
1022.4591	2955.2582	1073.85	195.5
1022.5728	2956.3462	1070.75	189.85
1022.6865	2957.4335	1071.55	191.2
1022.8002	2958.5202	1073.65	191.05
1022.9138	2959.6062	1069.9	189.85
1023.0274	2960.6916	1068.85	189.9
1023.141	2961.7764	1066.55	187.75
1023.2545	2962.8605	1062.9	182.5
1023.3679	2963.9439	1064.05	186.7
1023.4813	2965.0267	1065.45	183.4
1023.5947	2966.1089	1085.95	183.75
1023.708	2967.1905	1061.85	181.2
1023.8213	2968.2714	1058.15	178.1
1023.9346	2969.3516	1057.85	178.2
1024.0478	2970.4312	1067.1	179
1024.1609	2971.5102	1058.05	179.3
1024.274	2972.5885	1060.35	181.55
1024.3871	2973.6662	1059.9	174.6
1024.5002	2974.7432	1058.8	182
1024.6132	2975.8196	1053.1	174
1024.7261	2976.8954	1052.8	173.95
1024.839	2977.9705	1053	171.75
1024.9519	2979.045	1055.6	178.15
1025.0647	2980.1188	1053.05	172.3
1025.1775	2981.192	1052.9	174.15
1025.2902	2982.2645	1053	173.3
1025.4029	2983.3364	1050.7	170.85
1025.5156	2984.4077	1044.3	163.85
1025.6282	2985.4783	1051.8	167.55
1025.7407	2986.5483	1044.6	165.4
1025.8532	2987.6177	1047.45	167.9
1025.9657	2988.6864	1039.5	158.25
1026.0782	2989.7545	1036.4	154.1
1026.1906	2990.8219	1034.3	155.05
1026.3029	2991.8887	1038.3	156.8
1026.4152	2992.9548	1034.4	154.85
1026.5275	2994.0204	1030.6	153.1
1026.6397	2995.0852	1027.05	149.25
1026.7519	2996.1495	1027.15	147.55
1026.864	2997.2131	1024.5	145.85
1026.9761	2998.276	1020.3	139.4
1027.0882	2999.3383	1021.5	140.35
1027.2002	3000.4	1024.1	143.15
1027.3122	3001.4611	1023.1	141.75
1027.4241	3002.5215	1019.05	137.55
1027.536	3003.5812	1011.8	132.9
1027.6478	3004.6404	1011.35	132.9
1027.7596	3005.6989	1014.8	131.5
1027.8714	3006.7567	1012.5	134.05
1027.9831	3007.8139	1035.15	133.1
1028.0947	3008.8705	1009.7	131.45
1028.2064	3009.9264	1012.55	129.15
1028.3179	3010.9818	1013.7	134.3
1028.4295	3012.0364	1010.7	131.8
1028.541	3013.0905	1007.05	127.7
1028.6524	3014.1439	1009.35	130.5
1028.7638	3015.1966	1007.8	127.25
1028.8752	3016.2487	1006.95	127.35
1028.9865	3017.3002	1010.25	123.6
1029.0978	3018.3511	1002.95	126.05
1029.209	3019.4013	1005.65	126.5
1029.3202	3020.4509	1004.65	124.2
1029.4314	3021.4998	1003.35	123.75
1029.5425	3022.5481	1002.5	123.35
1029.6535	3023.5958	1000.6	120.3
1029.7645	3024.6428	1006.1	124.7
1029.8755	3025.6892	1001.95	123.75
1029.9864	3026.735	1002	122.45
1030.0973	3027.7802	1000.9	121.85
1030.2082	3028.8247	1000.75	121.95
1030.319	3029.8685	996.2	118.15
1030.4297	3030.9118	998.4	116.7
1030.5404	3031.9544	998.95	120.25
1030.6511	3032.9963	995.55	116.75
1030.7617	3034.0376	994.7	118.15
1030.8723	3035.0783	1000.35	118.55
1030.9829	3036.1184	997.5	118.4
1031.0934	3037.1578	994.4	115.4
1031.2038	3038.1966	996.85	116.9
1031.3142	3039.2348	994.45	114.7
1031.4246	3040.2723	1001.75	114.15
1031.5349	3041.3092	993.55	114.45
1031.6452	3042.3455	993.9	112.85
1031.7554	3043.3811	994.2	112.55
1031.8656	3044.4161	994.5	115.05
1031.9758	3045.4505	995.7	117.05
1032.0859	3046.4842	995.2	113.95
1032.1959	3047.5173	990.45	113.65
1032.3059	3048.5498	992.4	112
1032.4159	3049.5816	990.55	110.9
1032.5258	3050.6128	992.25	114.15
1032.6357	3051.6434	994	113.5
1032.7455	3052.6734	986.25	105.15
1032.8553	3053.7027	993.65	112.05
1032.9651	3054.7314	988.4	110.6
1033.0748	3055.7594	989.2	109.7
1033.1845	3056.7868	986.9	105.65
1033.2941	3057.8136	988.15	108.15
1033.4037	3058.8398	990.25	112.75
1033.5132	3059.8653	989.55	110.6
1033.6227	3060.8902	985.1	107.25
1033.7321	3061.9145	988.4	108.3
1033.8415	3062.9381	987	107.4
1033.9509	3063.9612	1001.6	107.15
1034.0602	3064.9835	988.55	110.7
1034.1694	3066.0053	988.8	106.5
1034.2787	3067.0264	985.55	107.05
1034.3878	3068.0469	984.8	101.5
1034.497	3069.0668	987.85	105.05
1034.6061	3070.086	983.35	105.25
1034.7151	3071.1046	985.7	106.75
1034.8241	3072.1226	983.25	102.5
1034.9331	3073.1399	980.1	100.5
1035.042	3074.1567	985.7	104.8
1035.1508	3075.1727	983.3	101.85
1035.2597	3076.1882	974.55	94.6
1035.3684	3077.203	978.4	99.1
1035.4772	3078.2173	979.95	100.05
1035.5859	3079.2308	981.15	97.95
1035.6945	3080.2438	982.25	100.4
1035.8031	3081.2561	976.4	97.35
1035.9117	3082.2678	975.4	98.5
1036.0202	3083.2789	974.95	95.35
1036.1286	3084.2893	975.85	98
1036.2371	3085.2991	974.6	93.7
1036.3454	3086.3083	980.75	95.7
1036.4538	3087.3169	976.7	95.6
1036.562	3088.3248	972	91.05
1036.6703	3089.3321	973.8	94.25
1036.7785	3090.3388	972.2	94.9
1036.8866	3091.3449	973.95	95.55
1036.9948	3092.3503	970.65	88.4
1037.1028	3093.3551	967.5	89.35
1037.2108	3094.3593	969.6	93.15
1037.3188	3095.3629	969.65	90.2
1037.4267	3096.3658	969.55	89.9
1037.5346	3097.3681	968.85	88.9
1037.6425	3098.3698	970.1	90.6
1037.7503	3099.3708	976.4	91.95
1037.858	3100.3713	966.35	87.8
1037.9657	3101.3711	964.25	83.45
1038.0734	3102.3702	1104	86.4
1038.181	3103.3688	966.8	87.05
1038.2886	3104.3667	963.2	84.25
1038.3961	3105.364	961.2	83.2
1038.5036	3106.3607	966.25	86.65
1038.611	3107.3568	963.95	85.3
1038.7184	3108.3522	963.45	85.1
1038.8257	3109.347	961.65	83.35
1038.933	3110.3412	969.75	86.45
1039.0403	3111.3348	960.6	82.9
1039.1475	3112.3277	961.9	82.2
1039.2547	3113.32	959.75	82.15
1039.3618	3114.3117	959.05	79.95
1039.4689	3115.3028	959.7	81
1039.5759	3116.2932	958.45	78.05
1039.6829	3117.2831	962.45	78.05
1039.7898	3118.2723	955.95	79.5
1039.8967	3119.2608	958.25	79.8
1040.0035	3120.2488	959	81.5
1040.1103	3121.2361	955.75	74.1
1040.2171	3122.2229	957.45	78.4
1040.3238	3123.209	956.4	76.25
1040.4305	3124.1944	955.35	75.9
1040.5371	3125.1793	955.5	71.9
1040.6437	3126.1635	955.15	78.05
1040.7502	3127.1471	952.05	73.75
1040.8567	3128.1301	952	73.35
1040.9631	3129.1125	953.6	73.5
1041.0695	3130.0942	951.8	71.75
1041.1759	3131.0753	958.7	69.45
1041.2822	3132.0558	952.8	70.05
1041.3884	3133.0357	951.85	72.7
1041.4946	3134.015	951.3	71.25
1041.6008	3134.9936	953.3	70.75
1041.7069	3135.9716	968.45	68.7
1041.813	3136.949	951.5	72.4
1041.919	3137.9258	953.85	70.7
1042.025	3138.902	955.45	70.9
1042.1309	3139.8775	946.8	68.6
1042.2368	3140.8524	950	70.65
1042.3427	3141.8267	950.6	69.6
1042.4485	3142.8004	951.75	73.15
1042.5542	3143.7735	952.8	65
1042.6599	3144.7459	950.7	69.15
1042.7656	3145.7178	948.2	68
1042.8712	3146.689	945.75	68.05
1042.9768	3147.6596	948.05	67.7
1043.0823	3148.6295	946.8	68.15
1043.1878	3149.5989	941.9	62.75
1043.2932	3150.5676	944	65.6
1043.3986	3151.5357	942.85	65.8
1043.5039	3152.5032	946.65	68.6
1043.6092	3153.4701	944	64.65
1043.7145	3154.4364	950.7	69.65
1043.8197	3155.402	942.3	63.95
1043.9248	3156.367	944.7	63.75
1044.03	3157.3315	981.05	63.85
1044.135	3158.2952	943.95	64.2
1044.24	3159.2584	939.85	60.65
1044.345	3160.221	941.9	63.55
1044.4499	3161.1829	939.75	60.95
1044.5548	3162.1442	937.2	57.7
1044.6596	3163.105	941.6	63.7
1044.7644	3164.065	939.7	59.2
1044.8692	3165.0245	946.2	64.15
1044.9739	3165.9834	940.15	62.85
1045.0785	3166.9416	942.1	62.85
1045.1831	3167.8993	938.65	59
1045.2877	3168.8563	940.85	60.7
1045.3922	3169.8127	935.6	56.55
1045.4966	3170.7684	937.95	60.25
1045.6011	3171.7236	937.8	58.3
1045.7054	3172.6782	934.85	56.5
1045.8098	3173.6321	939.2	59.45
1045.914	3174.5854	943.5	59.75
1046.0183	3175.5381	937.35	58.95
1046.1224	3176.4902	939.4	64.1
1046.2266	3177.4417	933.9	55.9
1046.3307	3178.3926	934.6	54
1046.4347	3179.3428	932.15	52.35
1046.5387	3180.2924	933.35	53.45
1046.6427	3181.2415	935.7	56.9
1046.7466	3182.1899	935.8	55.85
1046.8504	3183.1377	932.85	54.8
1046.9542	3184.0848	938.15	56.05
1047.058	3185.0314	933.1	53.1
1047.1617	3185.9773	937.15	57.9
1047.2654	3186.9227	933.55	54.4
1047.369	3187.8674	933.55	55.65
1047.4726	3188.8115	939.05	53.4
1047.5761	3189.755	934.55	56.9
1047.6796	3190.6979	931.15	53.8
1047.783	3191.6402	930.4	52.7
1047.8864	3192.5818	931.15	52.3
1047.9898	3193.5229	946.45	50.75
1048.0931	3194.4633	929.9	51.35
1048.1963	3195.4031	929.55	49.1
1048.2995	3196.3423	928.5	49.45
1048.4027	3197.2809	928.35	48.1
1048.5058	3198.2189	929.05	52.4
1048.6089	3199.1563	946.15	51.6
1048.7119	3200.0931	929.2	52.55
1048.8148	3201.0292	927.15	47.25
1048.9178	3201.9648	927.7	49.9
1049.0206	3202.8997	932.1	50.9
1049.1235	3203.834	927.15	47.9
1049.2262	3204.7677	927.8	47.5
1049.329	3205.7008	927.8	48
1049.4317	3206.6333	926.3	49.1
1049.5343	3207.5652	929	48.95
1049.6369	3208.4964	926.85	47.75
1049.7394	3209.4271	925.75	47.95
1049.8419	3210.3571	923.9	45.5
1049.9444	3211.2865	927.55	48.35
1050.0468	3212.2154	924.95	45.25
1050.1491	3213.1436	927.4	42.8
1050.2514	3214.0712	932.2	44.9
1050.3537	3214.9982	927.65	47.5
1050.4559	3215.9246	924.2	42.2
1050.5581	3216.8503	922.55	44.2
1050.6602	3217.7755	921.35	43.45
1050.7623	3218.7001	923.3	46.4
1050.8643	3219.624	924.4	44.25
1050.9663	3220.5473	924.6	46.5
1051.0682	3221.4701	925.55	46.5
1051.1701	3222.3922	922.5	42.15
1051.2719	3223.3137	921	42.55
1051.3737	3224.2346	925.2	45.25
1051.4754	3225.1549	922.4	42.95
1051.5771	3226.0746	920.15	40.8
1051.6788	3226.9937	919.95	41.55
1051.7804	3227.9121	921.9	45.8
1051.8819	3228.83	921.8	43.05
1051.9834	3229.7473	922.05	42.45
1052.0849	3230.6639	922.25	42.4
1052.1863	3231.5799	922	43.45
1052.2876	3232.4954	920.45	40.3
1052.3889	3233.4102	919.95	39.95
1052.4902	3234.3244	920.6	43.55
1052.5914	3235.238	920.1	40.55
1052.6926	3236.151	943	41.6
1052.7937	3237.0634	918.3	40.95
1052.8948	3237.9752	918	38.4
1052.9958	3238.8864	920	40.35
1053.0968	3239.797	918.3	39.75
1053.1977	3240.7069	920.05	41.25
1053.2986	3241.6163	920.9	41.3
1053.3994	3242.5251	916.95	37.6
1053.5002	3243.4332	917.3	40
1053.6009	3244.3408	916.75	36.8
1053.7016	3245.2477	918.45	40.4
1053.8022	3246.154	918	38.3
1053.9028	3247.0598	916.55	35.25
1054.0034	3247.9649	914.5	35.3
1054.1039	3248.8694	914.35	33.75
1054.2043	3249.7733	917.45	37.9
1054.3047	3250.6766	915.05	36.65
1054.4051	3251.5793	917.75	38.8
1054.5054	3252.4814	913.9	35.8
1054.6056	3253.3829	915.25	36.15
1054.7058	3254.2838	914.9	36.45
1054.806	3255.1841	913.9	35.35
1054.9061	3256.0838	915.1	35.85
1055.0061	3256.9829	914.65	37.7
1055.1062	3257.8814	914.1	33.5
1055.2061	3258.7792	916.95	37.25
1055.306	3259.6765	913.35	34.4
1055.4059	3260.5731	914.2	35.85
1055.5057	3261.4692	910.4	31.25
1055.6055	3262.3647	912.1	32.4
1055.7052	3263.2595	910.6	31.2
1055.8049	3264.1538	912.1	34.05
1055.9045	3265.0474	912.3	33.25
1056.0041	3265.9404	911.8	32.85
1056.1036	3266.8329	907.6	30.25
1056.2031	3267.7247	920.6	31.65
1056.3025	3268.616	907.35	30.1
1056.4019	3269.5066	906.2	28.3
1056.5013	3270.3966	906.95	26.75
1056.6005	3271.286	906.05	26.65
