Software Version:	3.9.2.0
Unit SN:	10000200
Spectrometer SN:	6960
Date:	3/6/2024 11:03:06 AM
Data Line Index:	25
Spectral Points:	2048
Integration time (ms):	125
Averages:	20
Delay (ms):	30
Sequence Number:	1
Processing:	dark subtract
Laser Power (mW):	300
Laser Current (mA):	821
Laser Diode Temp (C):	25.1
Laser Case Temp (C):	28.3
System Temp (C):	28.1
Spectrometer Temp (C):	25.6
CCD Temp (C):	0.001
Secondary Temp (C):	20.016
Heatsink Temp (C):	24.025
CCDPCB Temp (C):	37.318
SecondaryPCB Temp (C):	34.673

Wavelength	RamanShift	Raw Counts	Dark Subtracted
787.061	30.1047	1052.55	639.95
787.2016	32.3739	1081.05	670.8
787.3422	34.6426	1122.7	709.3
787.4828	36.9109	1167.85	751.9
787.6235	39.1787	1228.05	808.9
787.7642	41.4461	1282.9	858.4
787.9049	43.7131	1337.05	909.85
788.0456	45.9796	1401.45	973.5
788.1863	48.2456	1462.25	1028.25
788.3271	50.5112	1525.2	1088.45
788.4679	52.7764	1592.95	1152.75
788.6087	55.0411	1655.25	1210.75
788.7496	57.3054	1735.4	1285.05
788.8904	59.5692	1819.15	1366.5
789.0313	61.8326	1908.75	1452.35
789.1722	64.0955	2006.4	1546.8
789.3132	66.3579	2118.55	1652.65
789.4541	68.6199	2254.4	1785
789.5951	70.8815	2483	2011.5
789.7361	73.1426	2939.05	2462.65
789.8771	75.4032	4102.3	3619.75
790.0181	77.6634	7047.4	6564.35
790.1592	79.9231	14562.25	14072.85
790.3003	82.1824	46232.8	45733.85
790.4414	84.4412	65535	65015.85
790.5825	86.6995	65535	64994.2
790.7237	88.9574	65535	64973.3
790.8648	91.2148	65535	64961.9
791.006	93.4717	65535	64950.5
791.1472	95.7282	65535	64944.4
791.2885	97.9842	65535	64935.75
791.4297	100.2398	65535	64937.6
791.571	102.4949	65535	64934.85
791.7123	104.7495	65535	64928.95
791.8536	107.0036	65535	64926.6
791.9949	109.2573	65535	64932.05
792.1363	111.5105	65535	64927
792.2777	113.7632	65535	64923.85
792.4191	116.0154	65535	64914.05
792.5605	118.2672	65535	64920.8
792.7019	120.5185	65535	64919.45
792.8434	122.7693	65535	64919.1
792.9849	125.0197	65535	64912.95
793.1264	127.2696	65535	64910.75
793.2679	129.519	65535	64908
793.4094	131.7679	65535	64905.8
793.551	134.0163	65535	64902.85
793.6926	136.2642	65535	64897.1
793.8342	138.5117	65535	64885.9
793.9758	140.7587	65535	64894.3
794.1175	143.0052	65535	64892.6
794.2591	145.2512	65535	64890.15
794.4008	147.4967	65535	64887.65
794.5425	149.7417	65535	64887
794.6842	151.9863	65535	64886.05
794.826	154.2304	65535	64881.2
794.9677	156.4739	65535	64875.45
795.1095	158.717	65535	64875.8
795.2513	160.9596	65535	64871
795.3931	163.2017	65535	64869.6
795.535	165.4433	65535	64868.7
795.6768	167.6844	65535	64867.3
795.8187	169.925	65535	64859.5
795.9606	172.1651	65535	64859.2
796.1025	174.4047	65535	64858.6
796.2445	176.6439	65535	64852.8
796.3864	178.8825	65535	64851.05
796.5284	181.1206	65535	64847.55
796.6704	183.3582	65535	64842.8
796.8124	185.5954	65535	64843.95
796.9544	187.832	65535	64837.65
797.0965	190.0681	65535	64838.5
797.2386	192.3037	65535	64835.8
797.3806	194.5388	65535	64829.9
797.5228	196.7734	65535	64830
797.6649	199.0075	65535	64825.3
797.807	201.2411	65535	64820.95
797.9492	203.4742	65535	64826.2
798.0914	205.7068	65535	64819
798.2336	207.9389	65535	64820.1
798.3758	210.1704	65535	64815.55
798.518	212.4015	65535	64817.95
798.6603	214.632	65535	64821.1
798.8025	216.862	65535	64828.95
798.9448	219.0915	65535	64835.05
799.0871	221.3205	65535	64832.4
799.2294	223.549	65535	64835.05
799.3718	225.777	65535	64836.5
799.5141	228.0044	65535	64835.15
799.6565	230.2314	65535	64838.75
799.7989	232.4578	65535	64828.25
799.9413	234.6837	65535	64823.7
800.0837	236.909	65535	64821.25
800.2262	239.1339	65535	64795.2
800.3687	241.3582	65535	64812.05
800.5111	243.582	65535	64779.95
800.6536	245.8053	65535	64793.2
800.7961	248.0281	65535	64798.65
800.9387	250.2503	65535	64792.15
801.0812	252.472	65535	64788.6
801.2238	254.6932	65535	64787.2
801.3664	256.9139	65535	64786.3
801.509	259.134	65535	64785.15
801.6516	261.3536	65535	64786.85
801.7942	263.5727	65535	64786.6
801.9369	265.7912	65535	64786.55
802.0795	268.0092	65535	64785.4
802.2222	270.2267	65535	64782.9
802.3649	272.4436	65535	64782.35
802.5076	274.6601	65535	64774.8
802.6504	276.8759	65535	64777.85
802.7931	279.0913	65535	64778.8
802.9359	281.3061	65535	64771.8
803.0787	283.5204	65535	64772.15
803.2215	285.7341	65535	64768.35
803.3643	287.9473	65535	64755.05
803.5071	290.16	65535	64760.35
803.6499	292.3721	65535	64768.4
803.7928	294.5837	65535	64769.3
803.9357	296.7947	65535	64771.2
804.0786	299.0052	65535	64766
804.2215	301.2152	65535	64764.4
804.3644	303.4246	65535	64768.95
804.5074	305.6334	65535	64765.8
804.6503	307.8418	65535	64763
804.7933	310.0495	65535	64764.1
804.9363	312.2568	65535	64766.95
805.0793	314.4635	65535	64763.45
805.2223	316.6696	65535	64759.3
805.3653	318.8752	65535	64751.4
805.5084	321.0802	65535	64761.8
805.6514	323.2847	65535	64755.35
805.7945	325.4887	65535	64757.65
805.9376	327.692	65535	64757.8
806.0807	329.8949	65535	64755.25
806.2238	332.0972	65535	64751.7
806.367	334.2989	65535	64749.25
806.5101	336.5001	65535	64748.8
806.6533	338.7007	65535	64747.35
806.7965	340.9008	65535	64746.3
806.9397	343.1003	65535	64741.15
807.0829	345.2992	65535	64745.15
807.2261	347.4976	65535	64741.5
807.3693	349.6955	65535	64741.8
807.5126	351.8927	65535	64737.85
807.6559	354.0895	65535	64727.1
807.7991	356.2856	65535	64736.75
807.9424	358.4812	65535	64739.75
808.0857	360.6763	65535	64735.75
808.2291	362.8707	65535	64736.4
808.3724	365.0646	65535	64730.7
808.5158	367.258	65535	64728.75
808.6591	369.4508	65535	64725.25
808.8025	371.643	65535	64724.45
808.9459	373.8346	65535	64726.75
809.0893	376.0257	65535	64720
809.2327	378.2162	65535	64720.15
809.3762	380.4062	65535	64718.55
809.5196	382.5956	65535	64716.4
809.6631	384.7844	65535	64719.2
809.8066	386.9726	65535	64714.2
809.9501	389.1603	65535	64721.5
810.0936	391.3474	65535	64689.15
810.2371	393.5339	65535	64721.25
810.3806	395.7199	65535	64728.65
810.5241	397.9052	65535	64725.65
810.6677	400.09	65535	64729.8
810.8113	402.2743	65535	64726.25
810.9548	404.4579	65535	64730.1
811.0984	406.641	65535	64723.8
811.2421	408.8235	65535	64727.35
811.3857	411.0054	65535	64722.2
811.5293	413.1868	65535	64721.8
811.673	415.3675	65535	64720.1
811.8166	417.5477	65535	64718.25
811.9603	419.7273	65535	64715.2
812.104	421.9064	65535	64706.25
812.2477	424.0848	65535	64710.45
812.3914	426.2627	65535	64710.15
812.5351	428.4399	65535	64706.55
812.6788	430.6166	65535	64707.7
812.8226	432.7928	65535	64701.95
812.9663	434.9683	65535	64703
813.1101	437.1432	65535	64699.05
813.2539	439.3176	65535	64701.85
813.3977	441.4914	65535	64704.35
813.5415	443.6645	65535	64702.2
813.6853	445.8371	65535	64699.7
813.8291	448.0091	65535	64705.95
813.973	450.1806	65535	64702.15
814.1168	452.3514	65535	64697.55
814.2607	454.5216	65535	64690.05
814.4046	456.6913	65535	64696.9
814.5485	458.8603	65535	64701.05
814.6924	461.0288	65535	64698.7
814.8363	463.1967	65535	64700.85
814.9802	465.3639	65535	64696.95
815.1241	467.5306	65535	64695.8
815.2681	469.6967	65535	64698.1
815.412	471.8622	65535	64698.85
815.556	474.0271	65535	64696.55
815.7	476.1914	65535	64698.1
815.844	478.3551	65535	64693.9
815.988	480.5182	65535	64696.15
816.132	482.6807	65535	64696.65
816.276	484.8426	65535	64696.3
816.4201	487.0039	65535	64694.95
816.5641	489.1647	65535	64690.05
816.7082	491.3248	65535	64694.45
816.8522	493.4843	65535	64693.3
816.9963	495.6432	65535	64693.55
817.1404	497.8015	65535	64689.65
817.2845	499.9592	65535	64693.15
817.4286	502.1163	65535	64690.65
817.5727	504.2728	65535	64688.3
817.7168	506.4287	65535	64688.55
817.861	508.5839	65535	64686.25
818.0051	510.7386	65535	64688.3
818.1493	512.8927	65535	64684.75
818.2935	515.0461	65535	64687.3
818.4377	517.199	65535	64686.95
818.5818	519.3512	65535	64689.3
818.726	521.5029	65535	64678.35
818.8703	523.6539	65535	64682.95
819.0145	525.8043	65535	64680
819.1587	527.9541	65535	64678.4
819.303	530.1033	65535	64679.75
819.4472	532.2519	65535	64680.65
819.5915	534.3999	65535	64678.6
819.7357	536.5472	65535	64681.15
819.88	538.694	65535	64683.2
820.0243	540.8401	65535	64678.6
820.1686	542.9856	65535	64677
820.3129	545.1305	65535	64676.65
820.4572	547.2748	65535	64673.05
820.6016	549.4185	65535	64672.65
820.7459	551.5615	65535	64679.05
820.8902	553.704	65535	64675.95
821.0346	555.8458	65535	64677.2
821.1789	557.987	65535	64676.15
821.3233	560.1276	65535	64673.95
821.4677	562.2675	65535	64677.8
821.6121	564.4069	65535	64677.05
821.7565	566.5456	65535	64680.2
821.9009	568.6837	65535	64678.75
822.0453	570.8212	65535	64677.5
822.1897	572.958	65535	64674.45
822.3342	575.0942	65535	64679.65
822.4786	577.2299	65535	64673.7
822.6231	579.3648	65535	64674.1
822.7675	581.4992	65535	64677.65
822.912	583.6329	65535	64675.75
823.0565	585.766	65535	64676.1
823.201	587.8985	65535	64676.95
823.3454	590.0304	65535	64659.7
823.4899	592.1616	65535	64670.8
823.6345	594.2922	65535	64670.35
823.779	596.4222	65535	64670.65
823.9235	598.5515	65535	64668.9
824.068	600.6802	65535	64670.9
824.2126	602.8083	65535	64667.15
824.3571	604.9358	65535	64669.95
824.5017	607.0626	65535	64669.95
824.6462	609.1888	65535	64670
824.7908	611.3144	65535	64665.65
824.9354	613.4393	65535	64672
825.08	615.5636	65535	64667.15
825.2246	617.6873	65535	64672.1
825.3692	619.8103	65535	64664.5
825.5138	621.9327	65535	64665.1
825.6584	624.0544	65535	64665.4
825.803	626.1756	65535	64669
825.9477	628.2961	65535	64666.25
826.0923	630.4159	65535	64669.8
826.237	632.5351	65535	64665.9
826.3816	634.6537	65535	64667.55
826.5263	636.7716	65535	64663.75
826.6709	638.8889	65535	64663.2
826.8156	641.0056	65535	64663.3
826.9603	643.1216	65535	64661.45
827.105	645.237	65535	64660.8
827.2497	647.3518	65535	64665.3
827.3944	649.4659	65535	64663.95
827.5391	651.5793	65535	64663.65
827.6838	653.6922	65535	64664.05
827.8285	655.8043	65535	64666.5
827.9733	657.9159	65535	64660.9
828.118	660.0268	65535	64662.45
828.2627	662.137	65535	64659.4
828.4075	664.2466	65535	64660.3
828.5522	666.3556	65535	64660.85
828.697	668.4639	65535	64657.65
828.8418	670.5716	65535	64661.8
828.9865	672.6786	65535	64660.7
829.1313	674.785	65535	64658.5
829.2761	676.8907	65535	64660.85
829.4209	678.9958	65535	64660.8
829.5657	681.1002	65535	64658.35
829.7105	683.204	65535	64653.3
829.8553	685.3072	65535	64656.65
830.0001	687.4097	65535	64658.45
830.1449	689.5115	65535	64657.25
830.2898	691.6127	65535	64660.55
830.4346	693.7132	65535	64657.25
830.5794	695.8131	65535	64644.65
830.7243	697.9123	65535	64655
830.8691	700.0109	65535	64654.15
831.014	702.1089	65535	64658.7
831.1588	704.2061	65535	64656.4
831.3037	706.3028	65535	64653.6
831.4486	708.3987	65535	64656.05
831.5935	710.4941	65535	64656
831.7383	712.5887	65535	64655.75
831.8832	714.6827	65535	64648.85
832.0281	716.7761	65535	64658.65
832.173	718.8688	65535	64655.65
832.3179	720.9608	65535	64650.35
832.4628	723.0522	65535	64649.35
832.6077	725.1429	65535	64653.7
832.7527	727.233	65535	64652.2
832.8976	729.3224	65535	64652.6
833.0425	731.4112	65535	64651.75
833.1874	733.4993	65535	64648.5
833.3324	735.5867	65535	64651.6
833.4773	737.6735	65535	64651.4
833.6222	739.7596	65535	64648.8
833.7672	741.845	65535	64651.85
833.9122	743.9298	65535	64648.55
834.0571	746.014	65535	64650.65
834.2021	748.0974	65535	64648.5
834.347	750.1802	65535	64649.9
834.492	752.2624	65535	64651.05
834.637	754.3439	65535	64648.65
834.782	756.4247	65535	64637.85
834.9269	758.5048	65535	64648.75
835.0719	760.5843	65535	64646.45
835.2169	762.6631	65535	64649.1
835.3619	764.7413	65535	64647.2
835.5069	766.8188	65535	64649.2
835.6519	768.8956	65535	64647.3
835.7969	770.9718	65535	64649.8
835.9419	773.0473	65535	64647.65
836.0869	775.1221	65535	64650.6
836.232	777.1962	65535	64648.3
836.377	779.2697	65535	64646.75
836.522	781.3426	65535	64628.4
836.667	783.4147	65535	64645.05
836.8121	785.4862	65535	64648.55
836.9571	787.557	65535	64645.9
837.1021	789.6271	65535	64651.6
837.2472	791.6966	65535	64647.9
837.3922	793.7654	65535	64646
837.5373	795.8335	65535	64646.5
837.6823	797.901	65535	64648.15
837.8274	799.9678	65535	64644.3
837.9724	802.0339	65535	64649.55
838.1175	804.0993	65535	64635.9
838.2626	806.1641	65535	64648.65
838.4076	808.2282	65535	64649.05
838.5527	810.2916	65535	64643.2
838.6978	812.3544	65535	64650.35
838.8428	814.4164	65535	64647.9
838.9879	816.4778	65535	64644.45
839.133	818.5385	65535	64647.5
839.2781	820.5986	65535	64646.5
839.4232	822.658	65535	64646.45
839.5682	824.7166	65535	64646.25
839.7133	826.7747	65535	64647.4
839.8584	828.832	65535	64646.75
840.0035	830.8886	65535	64646.45
840.1486	832.9446	65535	64645.1
840.2937	834.9999	65535	64648
840.4388	837.0545	65535	64642.55
840.5839	839.1085	65535	64645.65
840.729	841.1618	65535	64640.85
840.8741	843.2143	65535	64644.35
841.0192	845.2662	65535	64643.25
841.1643	847.3175	65535	64644.7
841.3095	849.368	65535	64644.6
841.4546	851.4179	65535	64644.55
841.5997	853.467	65535	64642.75
841.7448	855.5155	65535	64643.05
841.8899	857.5633	65535	64644.8
842.0351	859.6105	65535	64645.4
842.1802	861.6569	65535	64644.3
842.3253	863.7027	65535	64643.55
842.4704	865.7478	65535	64642.6
842.6156	867.7922	65535	64644.2
842.7607	869.8359	65535	64642.5
842.9058	871.8789	65535	64640.8
843.0509	873.9212	65535	64611
843.1961	875.9629	65535	64644.1
843.3412	878.0039	65535	64642.3
843.4863	880.0441	65535	64641.85
843.6315	882.0837	65535	64639.95
843.7766	884.1226	65535	64639.25
843.9218	886.1609	65535	64643.35
844.0669	888.1984	65535	64642.75
844.212	890.2352	65535	64643.75
844.3572	892.2714	65535	64637.65
844.5023	894.3069	65535	64642.45
844.6475	896.3416	65535	64642.3
844.7926	898.3757	65535	64641.35
844.9377	900.4091	65535	64640.7
845.0829	902.4418	65535	64635.6
845.228	904.4739	65535	64636.25
845.3732	906.5052	65535	64638.05
845.5183	908.5358	65535	64642.1
845.6635	910.5658	65535	64641.55
845.8086	912.595	65535	64643.5
845.9538	914.6236	65535	64640.45
846.0989	916.6515	65535	64641.5
846.2441	918.6786	65535	64637.65
846.3892	920.7051	65535	64639.15
846.5344	922.7309	65535	64641.85
846.6795	924.756	65535	64641.5
846.8246	926.7804	65535	64638.95
846.9698	928.8041	65535	64637.9
847.1149	930.8272	65535	64640.85
847.2601	932.8495	65535	64637.8
847.4052	934.8711	65535	64637.85
847.5504	936.892	65535	64640.05
847.6955	938.9123	65535	64638.55
847.8407	940.9318	65535	64638.7
847.9858	942.9506	65535	64638.95
848.131	944.9688	65535	64639.5
848.2761	946.9862	65535	64640.25
848.4213	949.003	65535	64639.3
848.5664	951.019	65535	64640.35
848.7115	953.0344	65535	64638.25
848.8567	955.0491	65535	64638.7
849.0018	957.063	65535	64637.35
849.147	959.0763	65535	64640.65
849.2921	961.0888	65535	64635.55
849.4373	963.1007	65535	64639.2
849.5824	965.1119	65535	64639.05
849.7275	967.1223	65535	64639.05
849.8727	969.1321	65535	64641.5
850.0178	971.1412	65535	64639.25
850.1629	973.1495	65535	64640.4
850.3081	975.1572	65535	64603.15
850.4532	977.1641	65535	64638.5
850.5983	979.1704	65535	64638.45
850.7435	981.1759	65535	64634.75
850.8886	983.1808	65535	64638
851.0337	985.1849	65535	64626.3
851.1788	987.1884	65535	64636.2
851.324	989.1911	65535	64634.15
851.4691	991.1932	65535	64636.8
851.6142	993.1945	65535	64639.3
851.7593	995.1951	65535	64639.45
851.9045	997.1951	65535	64634
852.0496	999.1943	65535	64639.6
852.1947	1001.1928	65535	64638.1
852.3398	1003.1906	65535	64638.3
852.4849	1005.1877	65535	64636.75
852.63	1007.1841	65535	64635.7
852.7751	1009.1798	65535	64639.8
852.9202	1011.1748	65535	64638.1
853.0653	1013.1691	65535	64637.45
853.2104	1015.1627	65535	64638.6
853.3555	1017.1556	65535	64638.2
853.5006	1019.1477	65535	64638.05
853.6457	1021.1392	65535	64639.95
853.7908	1023.1299	65535	64639.45
853.9359	1025.12	65535	64636.05
854.081	1027.1093	65535	64639.65
854.2261	1029.0979	65535	64641
854.3712	1031.0859	65535	64639.6
854.5163	1033.0731	65535	64638.8
854.6613	1035.0596	65535	64639.4
854.8064	1037.0454	65535	64637.6
854.9515	1039.0304	65535	64636.8
855.0965	1041.0148	65535	64636.1
855.2416	1042.9985	65535	64637.5
855.3867	1044.9814	65535	64640.6
855.5317	1046.9636	65535	64636.7
855.6768	1048.9452	65535	64640.95
855.8219	1050.926	65535	64638.8
855.9669	1052.9061	65535	64640.9
856.112	1054.8855	65535	64639.75
856.257	1056.8642	65535	64636.95
856.4021	1058.8421	65535	64632.7
856.5471	1060.8194	65535	64633.9
856.6921	1062.7959	65535	64636.65
856.8372	1064.7717	65535	64637.95
856.9822	1066.7469	65535	64635.6
857.1272	1068.7213	65535	64634.95
857.2723	1070.695	65535	64638.85
857.4173	1072.6679	65535	64639.75
857.5623	1074.6402	65535	64639.6
857.7073	1076.6117	65535	64631.4
857.8523	1078.5826	65535	64635.85
857.9973	1080.5527	65535	64634.1
858.1423	1082.5221	65535	64635.95
858.2873	1084.4908	65535	64639.15
858.4323	1086.4587	65535	64636.95
858.5773	1088.426	65535	64635.35
858.7223	1090.3925	65535	64633.6
858.8673	1092.3584	65535	64638.65
859.0123	1094.3235	65535	64638.45
859.1573	1096.2879	65535	64637.95
859.3022	1098.2515	65535	64637.05
859.4472	1100.2145	65535	64636.5
859.5922	1102.1767	65535	64631.2
859.7371	1104.1382	65535	64636.35
859.8821	1106.099	65535	64634.9
860.027	1108.0591	65535	64637.7
860.172	1110.0185	65535	64637.9
860.3169	1111.9771	65535	64637.2
860.4619	1113.9351	65535	64637.05
860.6068	1115.8923	65535	64634.6
860.7517	1117.8488	65535	64636.85
860.8967	1119.8045	65535	64637.6
861.0416	1121.7596	65535	64637.75
861.1865	1123.7139	65535	64639.7
861.3314	1125.6675	65535	64635.85
861.4763	1127.6204	65535	64636.95
861.6212	1129.5726	65535	64634.3
861.7661	1131.524	65535	64639
861.911	1133.4748	65535	64638.35
862.0559	1135.4248	65535	64636.95
862.2008	1137.3741	65535	64638.15
862.3457	1139.3226	65535	64633.9
862.4905	1141.2705	65535	64638.9
862.6354	1143.2176	65535	64636.05
862.7803	1145.164	65535	64636.3
862.9251	1147.1097	65535	64637
863.07	1149.0546	65535	64637.75
863.2148	1150.9989	65535	64634.85
863.3597	1152.9424	65535	64635
863.5045	1154.8852	65535	64635.85
863.6493	1156.8272	65535	64637.4
863.7942	1158.7686	65535	64627.6
863.939	1160.7092	65535	64634.9
864.0838	1162.6491	65535	64636.45
864.2286	1164.5883	65535	64637
864.3734	1166.5267	65535	64634.75
864.5182	1168.4644	65535	64635.15
864.663	1170.4014	65535	64633.45
864.8078	1172.3377	65535	64639.65
864.9526	1174.2732	65535	64636.3
865.0974	1176.2081	65535	64638.7
865.2421	1178.1421	65535	64633
865.3869	1180.0755	65535	64638.85
865.5317	1182.0082	65535	64637.6
865.6764	1183.9401	65535	64634.3
865.8212	1185.8713	65535	64637.3
865.9659	1187.8017	65535	64637.6
866.1106	1189.7315	65535	64639.2
866.2554	1191.6605	65535	64611.35
866.4001	1193.5888	65535	64637.95
866.5448	1195.5163	65535	64640.3
866.6895	1197.4432	65535	64636.7
866.8342	1199.3693	65535	64638.2
866.9789	1201.2947	65535	64634.25
867.1236	1203.2193	65535	64636.5
867.2683	1205.1432	65535	64637.1
867.413	1207.0664	65535	64635.55
867.5576	1208.9889	65535	64632.95
867.7023	1210.9106	65535	64637.3
867.847	1212.8316	65535	64638.45
867.9916	1214.7519	65535	64627.1
868.1363	1216.6715	65535	64638.35
868.2809	1218.5903	65535	64638.5
868.4255	1220.5084	65535	64637.5
868.5701	1222.4257	65535	64636.7
868.7148	1224.3424	65535	64638.25
868.8594	1226.2583	65535	64633.1
869.004	1228.1735	65535	64638.05
869.1486	1230.0879	65535	64633.9
869.2932	1232.0016	65535	64639.05
869.4377	1233.9146	65535	64635.3
869.5823	1235.8269	65535	64634.5
869.7269	1237.7384	65535	64637.05
869.8715	1239.6492	65535	64636.85
870.016	1241.5592	65535	64637.4
870.1606	1243.4686	65535	64634.55
870.3051	1245.3772	65535	64637.45
870.4496	1247.285	65535	64638.35
870.5941	1249.1922	65535	64635.1
870.7387	1251.0986	65535	64639.65
870.8832	1253.0042	65535	64636.05
871.0277	1254.9092	65535	64638.4
871.1722	1256.8134	65535	64637.4
871.3167	1258.7169	65535	64635.35
871.4611	1260.6196	65535	64638.85
871.6056	1262.5216	65535	64634.1
871.7501	1264.4229	65535	64639.75
871.8945	1266.3234	65535	64636.25
872.039	1268.2232	65535	64636.35
872.1834	1270.1223	65535	64635.55
872.3278	1272.0207	65535	64636.15
872.4723	1273.9183	65535	64629.7
872.6167	1275.8151	65535	64634.85
872.7611	1277.7113	65535	64636.25
872.9055	1279.6067	65535	64636.55
873.0499	1281.5014	65535	64633.35
873.1943	1283.3953	65535	64633.85
873.3386	1285.2885	65535	64639.45
873.483	1287.181	65535	64635.15
873.6274	1289.0727	65535	64637.75
873.7717	1290.9637	65535	64636.1
873.9161	1292.854	65535	64637.1
874.0604	1294.7435	65535	64636.15
874.2047	1296.6323	65535	64637.55
874.349	1298.5204	65535	64633.6
874.4933	1300.4077	65535	64634.8
874.6376	1302.2943	65535	64635.15
874.7819	1304.1802	65535	64637.45
874.9262	1306.0653	65535	64635
875.0705	1307.9497	65535	64637.05
875.2147	1309.8333	65535	64637.75
875.359	1311.7162	65535	64635.15
875.5032	1313.5984	65535	64630.95
875.6475	1315.4798	65535	64625.6
875.7917	1317.3605	65535	64620.35
875.9359	1319.2405	65535	64633.9
876.0801	1321.1197	65535	64637.05
876.2243	1322.9982	65535	64631.8
876.3685	1324.876	65535	64636.9
876.5127	1326.753	65535	64636.2
876.6569	1328.6293	65535	64635.3
876.801	1330.5048	65535	64636.05
876.9452	1332.3796	65535	64639.35
877.0893	1334.2537	65535	64613.1
877.2335	1336.127	65535	64635.95
877.3776	1337.9996	65535	64637.05
877.5217	1339.8714	65535	64635.85
877.6658	1341.7426	65535	64594.05
877.8099	1343.6129	65535	64636
877.954	1345.4826	65535	64636.95
878.0981	1347.3515	65535	64634.6
878.2422	1349.2196	65535	64636.25
878.3862	1351.087	65535	64635.45
878.5303	1352.9537	65535	64633.3
878.6743	1354.8197	65535	64637.35
878.8184	1356.6849	65535	64636.4
878.9624	1358.5493	65535	64636.3
879.1064	1360.4131	65535	64637.05
879.2504	1362.276	65535	64636.75
879.3944	1364.1383	65535	64636.5
879.5384	1365.9998	65535	64631.35
879.6823	1367.8606	65535	64634.75
879.8263	1369.7206	65535	64635.55
879.9702	1371.5799	65535	64632.7
880.1142	1373.4384	65535	64637.25
880.2581	1375.2962	65535	64632.6
880.402	1377.1533	65535	64638.35
880.5459	1379.0096	65535	64636.55
880.6898	1380.8652	65535	64635.6
880.8337	1382.7201	65535	64634.75
880.9776	1384.5742	65535	64637.8
881.1215	1386.4275	65535	64635.4
881.2653	1388.2802	65535	64638.1
881.4092	1390.132	65535	64637.4
881.553	1391.9832	65535	64637.75
881.6968	1393.8336	65535	64635.85
881.8406	1395.6832	65535	64635.45
881.9844	1397.5322	65535	64636.3
882.1282	1399.3803	65535	64632.35
882.272	1401.2278	65535	64635.8
882.4158	1403.0745	65535	64635.05
882.5595	1404.9204	65535	64639.95
882.7033	1406.7656	65535	64636.95
882.847	1408.6101	65535	64635.75
882.9908	1410.4538	65535	64637.35
883.1345	1412.2968	65535	64636.9
883.2782	1414.139	65535	64635.55
883.4219	1415.9805	65535	64635.85
883.5656	1417.8213	65535	64630.45
883.7092	1419.6613	65535	64639.3
883.8529	1421.5006	65535	64636.8
883.9965	1423.3391	65535	64636.35
884.1402	1425.1769	65535	64636.85
884.2838	1427.0139	65535	64634.6
884.4274	1428.8502	65535	64635.4
884.571	1430.6858	65535	64638.2
884.7146	1432.5206	65535	64637
884.8582	1434.3547	65535	64635.95
885.0018	1436.188	65535	64636.35
885.1453	1438.0206	65535	64633.65
885.2889	1439.8524	65535	64636.3
885.4324	1441.6835	65535	64636.95
885.5759	1443.5139	65535	64633.35
885.7194	1445.3435	65535	64636.5
885.8629	1447.1724	65535	64637.75
886.0064	1449.0005	65535	64637.05
886.1499	1450.8279	65535	64635.35
886.2933	1452.6545	65535	64636.4
886.4368	1454.4804	65535	64638.6
886.5802	1456.3056	65535	64629.8
886.7237	1458.13	65535	64637.7
886.8671	1459.9536	65535	64635.65
887.0105	1461.7766	65535	64639.15
887.1539	1463.5987	65535	64637.5
887.2972	1465.4202	65535	64634.95
887.4406	1467.2409	65535	64638.35
887.584	1469.0608	65535	64638.15
887.7273	1470.88	65535	64637.15
887.8706	1472.6984	65535	64637.65
888.0139	1474.5161	65535	64633.65
888.1572	1476.3331	65535	64638.55
888.3005	1478.1493	65535	64636.3
888.4438	1479.9648	65535	64637.55
888.5871	1481.7795	65535	64637.25
888.7303	1483.5935	65535	64635.55
888.8736	1485.4067	65535	64636.8
889.0168	1487.2192	65535	64636.95
889.16	1489.031	65535	64634.7
889.3032	1490.842	65535	64636.3
889.4464	1492.6522	65535	64637.15
889.5896	1494.4618	65535	64635
889.7327	1496.2705	65535	64637.7
889.8759	1498.0785	65530.35	64632.55
890.019	1499.8858	65535	64636.3
890.1622	1501.6924	65535	64637.55
890.3053	1503.4981	65535	64637.8
890.4484	1505.3032	65535	64636.4
890.5914	1507.1075	65531.1	64630.15
890.7345	1508.911	65532.45	64632.9
890.8776	1510.7138	65526.35	64629.55
891.0206	1512.5159	65535	64637.75
891.1637	1514.3172	65426.1	64528.7
891.3067	1516.1178	65471.5	64573.7
891.4497	1517.9176	65521	64621
891.5927	1519.7166	65471.4	64573.15
891.7357	1521.515	65432.5	64529.05
891.8786	1523.3126	65159.55	64260.35
892.0216	1525.1094	65436.9	64536.4
892.1645	1526.9055	65282.6	64386
892.3074	1528.7008	65328.1	64428.95
892.4503	1530.4954	64923.4	64019.3
892.5932	1532.2893	65301.75	64407.15
892.7361	1534.0824	64802.95	63901.3
892.879	1535.8747	64454.8	63558.15
893.0218	1537.6663	65315.85	64415.45
893.1647	1539.4572	63762.1	62862.5
893.3075	1541.2473	64395.5	63496.7
893.4503	1543.0367	64212.1	63314.5
893.5931	1544.8253	64033.2	63131.7
893.7359	1546.6132	64236.1	63338.3
893.8787	1548.4003	63723	62816.85
894.0214	1550.1867	63545.35	62638.6
894.1642	1551.9723	63372.1	62469.2
894.3069	1553.7572	63470.35	62570.3
894.4496	1555.5414	63828.8	62930.3
894.5923	1557.3247	61975.15	61078.7
894.735	1559.1074	63387.85	62493.3
894.8777	1560.8893	62670	61774.1
895.0204	1562.6705	62947.45	62049.6
895.163	1564.4509	61851.6	60956.3
895.3056	1566.2305	62366.45	61469.5
895.4482	1568.0094	63124.6	62228.95
895.5908	1569.7876	62519.45	61623.3
895.7334	1571.565	61744.4	60844.9
895.876	1573.3417	62165.95	61271.6
896.0186	1575.1176	62013.35	61119.15
896.1611	1576.8928	61686.65	60791
896.3036	1578.6672	61009.3	60116.25
896.4461	1580.4409	61242.95	60349.25
896.5886	1582.2138	60444.6	59547.2
896.7311	1583.986	60639.15	59743.85
896.8736	1585.7575	59886.75	58991.05
897.0161	1587.5282	59910.05	59016.55
897.1585	1589.2981	60050.55	59156.4
897.3009	1591.0673	59343	58448.75
897.4433	1592.8358	58948.65	58053.15
897.5857	1594.6035	59348.15	58450.25
897.7281	1596.3704	59336	58439.75
897.8705	1598.1366	58524.05	57627.7
898.0128	1599.9021	58073.3	57178.3
898.1551	1601.6668	58570.15	57673.1
898.2975	1603.4308	58221.8	57325.9
898.4398	1605.194	58551.55	57651.6
898.5821	1606.9564	57406.15	56511.35
898.7243	1608.7182	57946.05	57047.75
898.8666	1610.4791	57463.15	56570.75
899.0088	1612.2394	57865.65	56971.45
899.1511	1613.9988	57518.5	56624.95
899.2933	1615.7576	57967.8	57073
899.4355	1617.5156	57957.5	57057.3
899.5776	1619.2728	58678.35	57782.6
899.7198	1621.0293	57691.15	56797.05
899.862	1622.785	57694.05	56796.4
900.0041	1624.54	57939.2	57042.25
900.1462	1626.2942	57457.75	56560.05
900.2883	1628.0477	56459.25	55561.7
900.4304	1629.8005	55963.55	55065.55
900.5725	1631.5525	56212.1	55317
900.7145	1633.3037	55321.25	54427.85
900.8566	1635.0542	55247.85	54354.8
900.9986	1636.804	55256.3	54361.6
901.1406	1638.553	54740.3	53727.8
901.2826	1640.3013	54670.6	53774.9
901.4245	1642.0488	54151.55	53255.15
901.5665	1643.7955	54328.3	53436.95
901.7085	1645.5416	54007	53113.7
901.8504	1647.2868	53874.3	52980.4
901.9923	1649.0313	54078	53183.55
902.1342	1650.7751	53890.25	52993.25
902.2761	1652.5181	53659.5	52765.7
902.4179	1654.2604	53741.15	52848.45
902.5598	1656.0019	54146.7	53254.45
902.7016	1657.7427	54040.25	53142.45
902.8434	1659.4828	54452.1	53559.5
902.9852	1661.222	54369.4	53472.25
903.127	1662.9606	54428	53533.1
903.2687	1664.6984	54057.6	53163.55
903.4105	1666.4354	53793.15	52897.45
903.5522	1668.1717	53012.85	52119.2
903.6939	1669.9072	52316.95	51422.3
903.8356	1671.642	51946.2	51053.1
903.9773	1673.3761	51585.95	50692.6
904.119	1675.1094	51215.4	50321.7
904.2606	1676.8419	50835.45	49941.9
904.4022	1678.5737	50527.45	49633.2
904.5439	1680.3048	50175.9	49282.7
904.6855	1682.0351	49854.3	48960.55
904.827	1683.7646	49626.8	48729.55
904.9686	1685.4934	49489.4	48595.7
905.1101	1687.2215	49076.85	48182.8
905.2517	1688.9488	48972.15	48078.7
905.3932	1690.6754	48543.05	47650.7
905.5347	1692.4012	48611.5	47718.4
905.6761	1694.1263	48425.7	47531.85
905.8176	1695.8506	48211.95	47316.85
905.9591	1697.5742	48032.25	47139.05
906.1005	1699.297	47757.2	46863.1
906.2419	1701.0191	47487.55	46594.55
906.3833	1702.7404	47302.25	46410.1
906.5246	1704.461	47053.4	46157.7
906.666	1706.1808	46831.35	45935.5
906.8073	1707.8999	46696.35	45801.9
906.9487	1709.6182	46573.4	45680.4
907.09	1711.3358	46425.2	45533.9
907.2313	1713.0527	46221.25	45329.4
907.3725	1714.7688	46100.25	45201.6
907.5138	1716.4841	45877.15	44981.6
907.655	1718.1987	45771.45	44875.5
907.7962	1719.9126	45598.15	44707
907.9374	1721.6257	45430.4	44535.85
908.0786	1723.338	45334.15	44441.2
908.2198	1725.0496	45057.4	44164.05
908.3609	1726.7605	44912.2	44018.5
908.502	1728.4706	44797	43902.75
908.6431	1730.18	44481.9	43585.55
908.7842	1731.8886	44420.6	43528
908.9253	1733.5964	44297.65	43385.3
909.0664	1735.3036	44160.25	43264.8
909.2074	1737.0099	44060.1	43168.45
909.3484	1738.7156	43840.9	42948.85
909.4894	1740.4204	43677.3	42781.75
909.6304	1742.1246	43592.65	42697.75
909.7714	1743.8279	43438.3	42547
909.9123	1745.5306	43451.35	42557
910.0532	1747.2325	43177.6	42286.5
910.1941	1748.9336	43073.65	42181
910.335	1750.634	42847.7	41952.35
910.4759	1752.3336	42705.5	41812.15
910.6168	1754.0325	42647.5	41757.1
910.7576	1755.7307	42499.8	41608.8
910.8984	1757.4281	42463.85	41570.05
911.0392	1759.1247	42413.4	41513.3
911.18	1760.8206	42242.3	41343.1
911.3208	1762.5158	42134.5	41236.55
911.4615	1764.2102	41947.95	41055.5
911.6022	1765.9039	41800.6	40907.45
911.7429	1767.5968	41694.9	40802.3
911.8836	1769.289	41559.75	40667.05
912.0243	1770.9804	41464.5	40571.8
912.1649	1772.6711	41438.35	40544.95
912.3056	1774.361	41217.8	40325.15
912.4462	1776.0502	41161.4	40267.55
912.5868	1777.7386	41045.65	40149.85
912.7274	1779.4263	40873.15	39979.2
912.8679	1781.1132	40798.8	39906
913.0084	1782.7994	40621.45	39726.95
913.149	1784.4849	40539.45	39646.55
913.2895	1786.1696	40388.55	39489.95
913.4299	1787.8535	40295.6	39402.55
913.5704	1789.5367	40121.4	39228.65
913.7108	1791.2192	40114.1	39220.4
913.8513	1792.9009	39905.65	38985.55
913.9917	1794.5818	39793.75	38899.85
914.132	1796.2621	39705.8	38813.85
914.2724	1797.9415	39560.3	38667.25
914.4128	1799.6202	39404.7	38511.7
914.5531	1801.2982	39333.1	38440.65
914.6934	1802.9755	39255.9	38362.1
914.8337	1804.6519	39184.8	38291.65
914.9739	1806.3277	38910.3	38019.1
915.1142	1808.0027	38813.3	37922.2
915.2544	1809.6769	38773	37879.25
915.3946	1811.3504	38577.35	37685.35
915.5348	1813.0231	38504.6	37612.55
915.675	1814.6951	38492.25	37600.2
915.8151	1816.3664	38441.35	37546.1
915.9553	1818.0369	38334.7	37441.2
916.0954	1819.7067	38140.3	37246.9
916.2355	1821.3757	38050.6	37157.4
916.3755	1823.044	37952.65	37060.7
916.5156	1824.7115	37849.7	36956.45
916.6556	1826.3783	37646.45	36755.15
916.7956	1828.0443	37556.05	36664.25
916.9356	1829.7096	37464.5	36569.65
917.0756	1831.3741	37415.25	36520
917.2155	1833.0379	37259.9	36366
917.3555	1834.701	37136.6	36242.3
917.4954	1836.3633	37122.55	36228.1
917.6353	1838.0248	36958.45	36064.35
917.7751	1839.6856	36904.35	36010.85
917.915	1841.3457	36864.95	35974.5
918.0548	1843.005	36785.55	35894.8
918.1946	1844.6636	36733.15	35840.95
918.3344	1846.3214	36528.15	35633.75
918.4742	1847.9785	36484.55	35592.5
918.6139	1849.6349	36316.35	35421.5
918.7537	1851.2904	36219.55	35318.8
918.8934	1852.9453	36101.45	35210.25
919.0331	1854.5994	35974.45	35081.15
919.1727	1856.2528	36013.25	35115.6
919.3124	1857.9054	35864.85	34972.4
919.452	1859.5572	35792.9	34900.5
919.5916	1861.2083	35728.2	34835.2
919.7312	1862.8587	35682	34789.85
919.8708	1864.5084	35579.15	34685.2
920.0103	1866.1572	35408.6	34516.75
920.1498	1867.8054	35268.8	34376.2
920.2893	1869.4528	35199.85	34307.9
920.4288	1871.0994	35108.05	34215.35
920.5683	1872.7453	35074.15	34181.25
920.7077	1874.3905	34964.8	34066.1
920.8471	1876.0349	34798.9	33906.85
920.9865	1877.6786	34755.15	33860.3
921.1259	1879.3215	34728.9	33837.15
921.2653	1880.9637	34637.85	33744.1
921.4046	1882.6051	34519.35	33626.8
921.5439	1884.2458	34422.55	33529.5
921.6832	1885.8858	34311.1	33419.85
921.8225	1887.525	34170.9	33278.1
921.9617	1889.1634	34031.15	33137.8
922.101	1890.8011	33892.15	32999.75
922.2402	1892.4381	33847.75	32955.55
922.3794	1894.0743	33818.2	32925.8
922.5185	1895.7098	33716.55	32822
922.6577	1897.3446	33660.85	32768.5
922.7968	1898.9786	33478.3	32582.1
922.9359	1900.6118	33400.7	32510.6
923.075	1902.2443	33203.1	32309.35
923.214	1903.8761	33113	32220.9
923.3531	1905.5071	32930.2	32037.35
923.4921	1907.1374	32864.5	31972.95
923.6311	1908.7669	32835.35	31943.2
923.77	1910.3957	32737.55	31844.25
923.909	1912.0237	32527.9	31634
924.0479	1913.651	32429.55	31536.65
924.1868	1915.2776	32352.4	31460.9
924.3257	1916.9034	32160.1	31270.6
924.4646	1918.5285	32027.2	31135.25
924.6034	1920.1528	31872.25	30980.5
924.7422	1921.7764	31884	30991.35
924.881	1923.3992	31736.85	30843.95
925.0198	1925.0213	31485.1	30591.65
925.1586	1926.6427	31362.8	30471.3
925.2973	1928.2633	31416	30415.05
925.436	1929.8832	31191.9	30297.6
925.5747	1931.5023	31009.6	30118
925.7134	1933.1207	30941.6	30050.05
925.852	1934.7383	30905.8	30013.7
925.9906	1936.3552	30764.85	29872.85
926.1292	1937.9714	30672.85	29780.05
926.2678	1939.5868	30509.9	29616.3
926.4064	1941.2015	30378.15	29485.9
926.5449	1942.8154	30263.1	29370.85
926.6834	1944.4286	30111.8	29220.5
926.8219	1946.041	29992.45	29082.55
926.9604	1947.6528	29816.25	28920.65
927.0988	1949.2637	29702.5	28810.25
927.2372	1950.8739	29656.55	28762.9
927.3756	1952.4834	29557.95	28665.65
927.514	1954.0921	29571.9	28680.5
927.6523	1955.7001	29425.1	28527.15
927.7907	1957.3074	29345.5	28452.1
927.929	1958.9139	29178.7	28287.9
928.0673	1960.5197	29079.3	28186.8
928.2055	1962.1247	28899.1	28006.5
928.3438	1963.729	28787.2	27896.7
928.482	1965.3325	28672.65	27758.2
928.6202	1966.9353	28567.7	27676.8
928.7584	1968.5374	28466.2	27573.55
928.8965	1970.1387	28356.75	27463.45
929.0346	1971.7393	28255.2	27365
929.1727	1973.3392	28164.35	27271.6
929.3108	1974.9383	28058.8	27167.1
929.4489	1976.5366	27934.25	27043.6
929.5869	1978.1342	27899.65	27006.8
929.7249	1979.7311	27794.75	26903.2
929.8629	1981.3273	27681.15	26790.3
930.0009	1982.9227	27639.4	26747
930.1388	1984.5173	27494.8	26603.45
930.2767	1986.1112	27385.75	26495.65
930.4146	1987.7044	27260.65	26368.9
930.5525	1989.2968	27217.85	26324.1
930.6904	1990.8885	27133.95	26239.9
930.8282	1992.4795	27076	26184.35
930.966	1994.0697	26942.5	26049.6
931.1038	1995.6592	26837.95	25945.3
931.2415	1997.2479	26760.25	25866.95
931.3793	1998.8359	26659.4	25768.7
931.517	2000.4232	26530.1	25638.85
931.6547	2002.0097	26462.05	25571.3
931.7923	2003.5955	26332.55	25441.55
931.93	2005.1805	26320.85	25428.25
932.0676	2006.7648	26184.1	25293.35
932.2052	2008.3484	26154.2	25261.65
932.3427	2009.9312	26134.7	25242.05
932.4803	2011.5133	25995.4	25105.55
932.6178	2013.0946	25912	25021
932.7553	2014.6752	25789.6	24898.8
932.8928	2016.2551	25752.25	24859.15
933.0302	2017.8342	25612.1	24720
933.1676	2019.4126	25522.8	24631.6
933.305	2020.9902	25401.35	24511
933.4424	2022.5672	25376.55	24484.3
933.5798	2024.1433	25314.65	24418.5
933.7171	2025.7188	25197.45	24308.55
933.8544	2027.2935	25135.7	24244
933.9917	2028.8674	25016.25	24125.8
934.129	2030.4406	24974.25	24084.2
934.2662	2032.0131	24808.55	23919.05
934.4034	2033.5849	24707.5	23809.55
934.5406	2035.1559	24663.25	23772.5
934.6778	2036.7261	24609.9	23720.15
934.8149	2038.2957	24512.4	23620.65
934.952	2039.8645	24473.95	23583
935.0891	2041.4325	24482	23586.5
935.2262	2042.9998	24325	23433.15
935.3632	2044.5664	24252.95	23358
935.5002	2046.1323	24167.85	23276.6
935.6372	2047.6974	24084.3	23194.2
935.7742	2049.2617	24038.3	23149.25
935.9111	2050.8254	24011.15	23098.4
936.048	2052.3883	23926.5	23032.8
936.1849	2053.9504	23866	22975.05
936.3218	2055.5118	23797.1	22905.7
936.4586	2057.0725	23630.05	22733.95
936.5955	2058.6325	23576	22684.3
936.7323	2060.1917	23514.5	22623.3
936.869	2061.7502	23471.35	22578.55
937.0058	2063.3079	23367.3	22474.6
937.1425	2064.8649	23289.25	22395.1
937.2792	2066.4212	23208.05	22315.3
937.4159	2067.9767	23169.35	22279.25
937.5525	2069.5315	23045.35	22154.15
937.6891	2071.0856	22927.55	22035.55
937.8257	2072.6389	22821.65	21928.4
937.9623	2074.1915	22745.65	21854.3
938.0989	2075.7433	22605.45	21712.4
938.2354	2077.2945	22583.8	21693.15
938.3719	2078.8448	22487.75	21596.9
938.5084	2080.3945	22456.15	21564.5
938.6448	2081.9434	22395.4	21503.6
938.7812	2083.4916	22286.75	21395.05
938.9176	2085.039	22173.15	21279.55
939.054	2086.5857	22161.1	21268.15
939.1903	2088.1317	22125.2	21233.25
939.3267	2089.677	22030.25	21136.95
939.463	2091.2215	21995.1	21102.7
939.5992	2092.7652	21906.05	21013.15
939.7355	2094.3083	21836.7	20946
939.8717	2095.8506	21798.35	20906.65
940.0079	2097.3921	21792.5	20903.4
940.1441	2098.933	21678	20789.35
940.2802	2100.4731	21630	20736.55
940.4163	2102.0124	21562.65	20662.1
940.5524	2103.5511	21463.85	20571.75
940.6885	2105.089	21443.95	20551.8
940.8245	2106.6261	21366.4	20473.15
940.9606	2108.1626	21297.5	20404.3
941.0965	2109.6983	21271.85	20350.55
941.2325	2111.2332	21191.3	20299.25
941.3684	2112.7675	21114.85	20222.8
941.5044	2114.301	21018.85	20124.5
941.6403	2115.8337	21018.35	20126.05
941.7761	2117.3657	20927.5	20037.85
941.912	2118.897	20885	19993.15
942.0478	2120.4276	20792.1	19893.1
942.1835	2121.9575	20704.75	19812.05
942.3193	2123.4866	20723.55	19819.35
942.455	2125.0149	20633.2	19740.6
942.5907	2126.5426	20516.65	19626.45
942.7264	2128.0695	20491.75	19597.25
942.8621	2129.5956	20449.8	19560.15
942.9977	2131.1211	20386.45	19491.15
943.1333	2132.6458	20286.1	19395.35
943.2689	2134.1698	20266.2	19373.7
943.4044	2135.693	20183.05	19289.45
943.54	2137.2155	20142.85	19247.55
943.6755	2138.7373	20107.75	19217.2
943.8109	2140.2584	20027.3	19136.55
943.9464	2141.7787	19946.5	19050.6
944.0818	2143.2983	19828.2	18936.5
944.2172	2144.8171	19707.8	18817.25
944.3526	2146.3353	19685.7	18792.05
944.4879	2147.8527	19583.25	18690.95
944.6232	2149.3693	19592.75	18699.45
944.7585	2150.8853	19478.3	18585.8
944.8938	2152.4005	19419.9	18526.1
945.029	2153.9149	19375.5	18482.55
945.1642	2155.4287	19304.4	18413.4
945.2994	2156.9417	19299.4	18407.65
945.4346	2158.454	19192.7	18299.2
945.5697	2159.9655	19150.55	18258.6
945.7048	2161.4764	19096.4	18205.95
945.8399	2162.9865	19057.9	18166.55
945.9749	2164.4958	18964.1	18071.8
946.1099	2166.0045	18881.9	17985.65
946.2449	2167.5124	18881.25	17990.9
946.3799	2169.0195	18830.4	17939.9
946.5148	2170.526	18811	17918.4
946.6498	2172.0317	18721.2	17829.25
946.7846	2173.5367	18675.9	17783.35
946.9195	2175.0409	18596.35	17704.4
947.0543	2176.5445	18596.95	17705.9
947.1891	2178.0473	18513.35	17621.95
947.3239	2179.5494	18435.35	17540.75
947.4587	2181.0507	18318.95	17426.65
947.5934	2182.5513	18291	17399.2
947.7281	2184.0512	18257.15	17365.3
947.8628	2185.5504	18182.45	17291.15
947.9974	2187.0488	18064.85	17173.85
948.132	2188.5465	18018.25	17125.3
948.2666	2190.0435	17937.15	17045.45
948.4012	2191.5397	17877.8	16987.35
948.5357	2193.0353	17842.95	16952.75
948.6702	2194.5301	17741.65	16849.6
948.8047	2196.0241	17681.5	16790.65
948.9392	2197.5175	17648	16756.6
949.0736	2199.0101	17547.4	16651.35
949.208	2200.502	17478.4	16588.1
949.3424	2201.9931	17434.2	16541
949.4767	2203.4835	17323.05	16430.6
949.611	2204.9733	17300.05	16403
949.7453	2206.4622	17262.65	16372.1
949.8796	2207.9505	17166	16272.4
950.0138	2209.438	17070.55	16180.8
950.148	2210.9248	17030.05	16138.85
950.2822	2212.4109	16979.95	16089.55
950.4164	2213.8962	16899.75	16005.15
950.5505	2215.3809	16880.25	15987.5
950.6846	2216.8648	16824.4	15932.95
950.8186	2218.3479	16775.6	15878.1
950.9527	2219.8304	16717.6	15820.95
951.0867	2221.3121	16658.9	15765.75
951.2207	2222.7931	16576.15	15685.15
951.3546	2224.2733	16526	15634.35
951.4886	2225.7529	16431.65	15537.5
951.6225	2227.2317	16388.95	15495.15
951.7563	2228.7098	16364.25	15474.35
951.8902	2230.1872	16277.85	15386.35
952.024	2231.6638	16245.9	15352.5
952.1578	2233.1397	16170.5	15273.6
952.2916	2234.6149	16110.95	15220.5
952.4253	2236.0894	16072.25	15177.6
952.559	2237.5632	16020.7	15119.5
952.6927	2239.0362	15939.3	15047.85
952.8263	2240.5085	15910.65	15019.05
952.9599	2241.9801	15808	14915.4
953.0935	2243.4509	15790.45	14896.95
953.2271	2244.921	15715	14822.8
953.3606	2246.3904	15679.65	14784.65
953.4941	2247.8591	15624.3	14734
953.6276	2249.3271	15598.95	14709.6
953.7611	2250.7943	15561.9	14668.7
953.8945	2252.2608	15469.05	14578.5
954.0279	2253.7266	15410.7	14518.45
954.1612	2255.1917	15369.65	14477.2
954.2946	2256.656	15298.35	14404.2
954.4279	2258.1197	15231.15	14339.95
954.5612	2259.5826	15217.6	14324.3
954.6944	2261.0447	15183.55	14291.25
954.8276	2262.5062	15123.4	14229.6
954.9608	2263.9669	15086.1	14192.15
955.094	2265.4269	15021.1	14129.15
955.2271	2266.8862	14989.1	14097.6
955.3602	2268.3448	14948.3	14055.9
955.4933	2269.8026	14927.65	14035.05
955.6264	2271.2598	14859.5	13966.85
955.7594	2272.7162	14800.1	13908.6
955.8924	2274.1719	14785.8	13893.3
956.0253	2275.6268	14711.4	13820.3
956.1583	2277.0811	14693.45	13803.95
956.2912	2278.5346	14646.4	13756.15
956.4241	2279.9874	14592.45	13700.95
956.5569	2281.4395	14570.35	13680.3
956.6897	2282.8908	14459.6	13560.95
956.8225	2284.3414	14449.85	13555.9
956.9553	2285.7914	14404.5	13512.1
957.088	2287.2406	14333.25	13439.65
957.2207	2288.689	14316.35	13421.7
957.3534	2290.1368	14259.25	13366.4
957.486	2291.5838	14222.35	13327.75
957.6186	2293.0302	14174.2	13279.55
957.7512	2294.4758	14102.95	13211.3
957.8838	2295.9206	14062.35	13169.3
958.0163	2297.3648	13991.7	13099.65
958.1488	2298.8082	13989.7	13095.6
958.2813	2300.251	13955.3	13061.95
958.4137	2301.693	13893.2	13000.1
958.5461	2303.1343	13900.9	13007.2
958.6785	2304.5748	13813.55	12920.8
958.8108	2306.0147	13764.85	12873.85
958.9432	2307.4538	13730.55	12837.55
959.0754	2308.8922	13687.4	12797.8
959.2077	2310.3299	13648.55	12756.5
959.3399	2311.7669	13594.25	12702.9
959.4721	2313.2031	13533.8	12643.9
959.6043	2314.6387	13491.9	12599.95
959.7365	2316.0735	13432.8	12540.7
959.8686	2317.5076	13396.8	12503.35
960.0006	2318.941	13370.1	12478.05
960.1327	2320.3737	13326.35	12433.45
960.2647	2321.8056	13300.45	12405.1
960.3967	2323.2369	13238.6	12347.3
960.5287	2324.6674	13191.5	12296.35
960.6606	2326.0972	13144.15	12250
960.7925	2327.5263	13081	12191.05
960.9244	2328.9547	13056.5	12163.7
961.0562	2330.3823	13000.3	12106
961.1881	2331.8092	13022.4	12127.75
961.3198	2333.2355	12916.45	12022.2
961.4516	2334.661	12895.9	12003.75
961.5833	2336.0858	12871.35	11978.5
961.715	2337.5098	12841.7	11950.1
961.8467	2338.9332	12810.35	11918.25
961.9783	2340.3558	12732.65	11836.3
962.1099	2341.7778	12717.4	11825.05
962.2415	2343.199	12653.7	11759.95
962.373	2344.6195	12617.9	11725.7
962.5045	2346.0393	12588.9	11699.25
962.636	2347.4583	12577.9	11684.45
962.7675	2348.8767	12500.55	11607.25
962.8989	2350.2943	12481.45	11586.95
963.0303	2351.7113	12452.3	11558.15
963.1617	2353.1275	12399.65	11506.6
963.293	2354.543	12360.8	11444.75
963.4243	2355.9578	12313.65	11419
963.5556	2357.3718	12217.7	11328.95
963.6868	2358.7852	12159.7	11265.8
963.818	2360.1978	12134.45	11241.65
963.9492	2361.6098	12128.2	11236.55
964.0803	2363.021	12083.15	11188.55
964.2114	2364.4315	12061.25	11169.75
964.3425	2365.8413	12008.55	11116.65
964.4736	2367.2504	11934.45	11043.65
964.6046	2368.6587	11887.25	10996.5
964.7356	2370.0664	11834.5	10941.2
964.8666	2371.4733	11791.4	10901.3
964.9975	2372.8795	11762.8	10869.55
965.1284	2374.285	11694.05	10800.8
965.2593	2375.6899	11647.85	10757.45
965.3901	2377.0939	11594.95	10703.6
965.5209	2378.4973	11557.4	10667.3
965.6517	2379.9	11534.7	10643.75
965.7825	2381.3019	11502.45	10612
965.9132	2382.7032	11446	10555.45
966.0439	2384.1037	11394.45	10503.5
966.1745	2385.5035	11341.3	10449.65
966.3051	2386.9027	11327.45	10436.9
966.4357	2388.3011	11307.55	10413
966.5663	2389.6987	11240.5	10348.15
966.6968	2391.0957	11199.15	10308.45
966.8273	2392.492	11147.8	10257.9
966.9578	2393.8876	11089.7	10200.65
967.0882	2395.2824	11058.6	10169.4
967.2186	2396.6765	11027.25	10138.25
967.349	2398.07	10938.25	10047.2
967.4793	2399.4627	10913.25	10021.05
967.6097	2400.8547	10908	10015.5
967.7399	2402.246	10854.65	9956.55
967.8702	2403.6366	10793.4	9900.75
968.0004	2405.0265	10742.65	9851.95
968.1306	2406.4156	10707.5	9815.1
968.2607	2407.8041	10659.15	9764.8
968.3909	2409.1918	10622.4	9729.6
968.521	2410.5789	10588.95	9698.2
968.651	2411.9652	10525.95	9631.35
968.781	2413.3508	10520.65	9629.6
968.911	2414.7358	10464	9569.35
969.041	2416.12	10427.5	9537.4
969.1709	2417.5035	10402.95	9513.3
969.3008	2418.8863	10358.2	9467.8
969.4307	2420.2684	10325.15	9434.9
969.5606	2421.6497	10273.5	9383.25
969.6904	2423.0304	10211	9322.1
969.8201	2424.4104	10170.85	9279.65
969.9499	2425.7896	10163.7	9267.05
970.0796	2427.1682	10120.2	9229.25
970.2093	2428.546	10111.5	9220.3
970.3389	2429.9232	10066.5	9172.8
970.4685	2431.2996	10037.8	9146.75
970.5981	2432.6753	10021.75	9130.65
970.7277	2434.0503	9987.35	9095.75
970.8572	2435.4246	9909.35	9020.65
970.9867	2436.7982	9900.85	9006.35
971.1161	2438.1711	9875	8987.25
971.2456	2439.5433	9854	8963.8
971.375	2440.9148	9797.05	8904.35
971.5043	2442.2856	9723.75	8832.5
971.6336	2443.6557	9727.75	8833.6
971.7629	2445.025	9683.35	8791.2
971.8922	2446.3937	9675.75	8784.2
972.0214	2447.7617	9622.1	8730.55
972.1506	2449.1289	9617	8727
972.2798	2450.4955	9596.75	8701.7
972.4089	2451.8613	9550.7	8658.5
972.538	2453.2265	9519.8	8628.25
972.6671	2454.5909	9509.45	8618
972.7961	2455.9546	9482.1	8592.2
972.9251	2457.3177	9415.2	8523.35
973.0541	2458.68	9391.2	8498.3
973.1831	2460.0416	9388.3	8497.5
973.312	2461.4025	9385.1	8491.1
973.4408	2462.7627	9351.35	8449.35
973.5697	2464.1222	9318.75	8429.05
973.6985	2465.4811	9281.8	8390.05
973.8273	2466.8392	9232.75	8342.9
973.956	2468.1966	9211.85	8317.4
974.0847	2469.5533	9231.3	8334.8
974.2134	2470.9093	9191.9	8299.2
974.3421	2472.2645	9148.95	8258.5
974.4707	2473.6191	9125.8	8236.4
974.5993	2474.973	9061.3	8170.05
974.7278	2476.3262	9038.8	8148.7
974.8563	2477.6787	9017.65	8127.35
974.9848	2479.0305	8973.95	8083.25
975.1132	2480.3816	8949.8	8055.8
975.2417	2481.7319	8917.95	8025.35
975.37	2483.0816	8867.6	7974.65
975.4984	2484.4306	8867.85	7974.55
975.6267	2485.7789	8819.75	7929.75
975.755	2487.1264	8777.1	7885.65
975.8833	2488.4733	8709.95	7818.95
976.0115	2489.8195	8716.4	7817.3
976.1397	2491.165	8679.25	7783.65
976.2678	2492.5097	8673.55	7780.75
976.3959	2493.8538	8612.05	7722
976.524	2495.1972	8569.85	7677.7
976.6521	2496.5398	8538.8	7647.35
976.7801	2497.8818	8517.45	7624.35
976.9081	2499.2231	8497.7	7605.95
977.036	2500.5637	8445	7554.25
977.164	2501.9035	8421.6	7529.25
977.2918	2503.2427	8412.45	7516.05
977.4197	2504.5812	8350.2	7457.95
977.5475	2505.919	8354.3	7460.65
977.6753	2507.256	8346.5	7456.2
977.8031	2508.5924	8285.1	7394.65
977.9308	2509.9281	8276.05	7378.85
978.0585	2511.2631	8242.95	7349.25
978.1861	2512.5974	8210.5	7318.35
978.3137	2513.9309	8166.6	7273.5
978.4413	2515.2638	8166.65	7240.5
978.5689	2516.596	8135.3	7243.95
978.6964	2517.9275	8071.85	7180.1
978.8239	2519.2583	8064.9	7174.55
978.9513	2520.5884	8018.85	7126.85
979.0788	2521.9178	8013.95	7122.45
979.2062	2523.2465	7969.7	7077.9
979.3335	2524.5745	7928.05	7034.95
979.4608	2525.9018	7897.65	7005.95
979.5881	2527.2284	7874.25	6984.2
979.7154	2528.5543	7876.55	6988.2
979.8426	2529.8796	7840.5	6948.65
979.9698	2531.2041	7821.85	6931.15
980.0969	2532.5279	7796.45	6905
980.224	2533.851	7799.7	6910.45
980.3511	2535.1735	7766.55	6876.5
980.4781	2536.4952	7747.65	6854.75
980.6052	2537.8163	7746.8	6854.55
980.7321	2539.1366	7703.25	6811.3
980.8591	2540.4562	7677.3	6783.65
980.986	2541.7752	7661.8	6771.3
981.1129	2543.0935	7647.9	6755.35
981.2397	2544.411	7614.95	6721.75
981.3665	2545.7279	7600.6	6709.8
981.4933	2547.0441	7607.95	6715.7
981.62	2548.3596	7590.25	6697.45
981.7467	2549.6744	7560.2	6667.95
981.8734	2550.9885	7521.05	6629.1
982.0001	2552.3019	7496.05	6604.95
982.1267	2553.6146	7466.05	6573.85
982.2532	2554.9266	7442.2	6551.45
982.3798	2556.2379	7433.1	6539.85
982.5063	2557.5485	7414.3	6524.05
982.6327	2558.8585	7398.2	6497.5
982.7592	2560.1677	7374.2	6477.35
982.8856	2561.4762	7381.8	6489.65
983.0119	2562.7841	7364.35	6469.6
983.1383	2564.0913	7338.2	6447.85
983.2646	2565.3977	7316.25	6424.6
983.3908	2566.7035	7303.45	6411.25
983.517	2568.0086	7289.4	6395.6
983.6432	2569.313	7284.75	6393.6
983.7694	2570.6167	7252.5	6357.55
983.8955	2571.9197	7220	6326.75
984.0216	2573.222	7211.25	6314.7
984.1476	2574.5236	7191.25	6298.5
984.2737	2575.8246	7163.65	6270.1
984.3996	2577.1248	7158.15	6263.85
984.5256	2578.4244	7146.7	6257.4
984.6515	2579.7232	7142.1	6249.95
984.7774	2581.0214	7146.5	6216.55
984.9032	2582.3189	7104.2	6214.2
985.029	2583.6157	7085.45	6188.25
985.1548	2584.9118	7068.05	6176.6
985.2806	2586.2072	7062.65	6170.25
985.4063	2587.5019	6998.3	6106.75
985.5319	2588.7959	7006.2	6113.75
985.6576	2590.0893	7013.85	6121.9
985.7832	2591.3819	6989.65	6096.85
985.9087	2592.6739	6959.05	6066.4
986.0343	2593.9652	6952.25	6058.65
986.1597	2595.2557	6930.4	6037.95
986.2852	2596.5456	6912.35	6016.65
986.4106	2597.8348	6872.25	5980.95
986.536	2599.1234	6853.7	5963.4
986.6614	2600.4112	6805.65	5913.8
986.7867	2601.6983	6786.25	5893.05
986.912	2602.9848	6750.2	5857.3
987.0372	2604.2705	6725.5	5826.3
987.1624	2605.5556	6720.95	5827.05
987.2876	2606.84	6711.95	5822.25
987.4128	2608.1237	6710.4	5818
987.5379	2609.4067	6649.2	5756.3
987.6629	2610.689	6668.9	5768.15
987.788	2611.9707	6613.7	5717.9
987.913	2613.2516	6593.4	5698.85
988.0379	2614.5319	6537.8	5645.05
988.1629	2615.8115	6526.5	5635.65
988.2878	2617.0903	6518.85	5626.8
988.4126	2618.3685	6495.75	5604.3
988.5375	2619.6461	6455.65	5563.3
988.6622	2620.9229	6446.3	5552.9
988.787	2622.199	6422.9	5529.3
988.9117	2623.4745	6429.65	5536.35
989.0364	2624.7493	6382.35	5489
989.161	2626.0234	6381.25	5491.6
989.2857	2627.2968	6343.4	5451.55
989.4102	2628.5695	6337	5444.9
989.5348	2629.8415	6307.7	5414.2
989.6593	2631.1128	6254.85	5363.7
989.7837	2632.3835	6242.45	5349.75
989.9082	2633.6535	6224.4	5331.65
990.0326	2634.9228	6210.75	5318.85
990.1569	2636.1914	6187.95	5297.6
990.2812	2637.4593	6157.45	5259.65
990.4055	2638.7265	6140.2	5248.75
990.5298	2639.9931	6127.55	5236.3
990.654	2641.259	6117.1	5223.9
990.7782	2642.5242	6087.15	5195.6
990.9023	2643.7887	6072.6	5180.65
991.0264	2645.0525	6046.3	5154.2
991.1505	2646.3156	6024.55	5131.5
991.2745	2647.5781	6016.55	5123.8
991.3985	2648.8398	5995.25	5102
991.5225	2650.1009	5976.1	5075.2
991.6464	2651.3613	5969.9	5077.85
991.7703	2652.6211	5934.25	5043.85
991.8942	2653.8801	5914.05	5024.7
992.018	2655.1385	5895.55	4999.2
992.1418	2656.3961	5886.15	4995
992.2655	2657.6531	5888.9	4998.3
992.3892	2658.9094	5872.55	4979.05
992.5129	2660.1651	5851.4	4960.15
992.6366	2661.42	5817.25	4925.6
992.7602	2662.6743	5816.15	4924
992.8837	2663.9279	5829.9	4938.8
993.0073	2665.1808	5794.45	4900.45
993.1307	2666.433	5774.9	4882.7
993.2542	2667.6846	5745.15	4854.65
993.3776	2668.9354	5753.3	4858.5
993.501	2670.1856	5732.3	4840.85
993.6244	2671.4351	5709.7	4817.4
993.7477	2672.6839	5700.35	4806.85
993.8709	2673.9321	5678.6	4786.6
993.9942	2675.1795	5675.8	4782.35
994.1174	2676.4263	5660	4767.95
994.2405	2677.6724	5649.35	4757.85
994.3637	2678.9179	5624	4731.2
994.4868	2680.1626	5607.7	4716.35
994.6098	2681.4067	5604.35	4712.15
994.7328	2682.6501	5589.3	4699.2
994.8558	2683.8928	5582.95	4691.3
994.9788	2685.1348	5556.4	4667.3
995.1017	2686.3761	5527	4637.45
995.2245	2687.6168	5485.85	4594.8
995.3474	2688.8568	5474.2	4582.55
995.4702	2690.0961	5455.7	4564.75
995.5929	2691.3348	5448.8	4557.75
995.7156	2692.5727	5421.2	4527.7
995.8383	2693.81	5418.7	4526.6
995.961	2695.0466	5398.55	4507.25
996.0836	2696.2826	5382.25	4489.7
996.2062	2697.5178	5380.9	4486.95
996.3287	2698.7524	5345.05	4452.2
996.4512	2699.9863	5347	4452.9
996.5737	2701.2195	5321.35	4430.35
996.6961	2702.452	5305.8	4410.8
996.8185	2703.6839	5294.7	4401.7
996.9408	2704.9151	5285.5	4395.5
997.0631	2706.1456	5269.7	4374.5
997.1854	2707.3755	5262.05	4368.45
997.3077	2708.6046	5258	4363.4
997.4299	2709.8331	5242.3	4350.1
997.552	2711.0609	5223.45	4332.25
997.6742	2712.2881	5212.85	4321.6
997.7963	2713.5145	5216.25	4322.05
997.9183	2714.7403	5203.25	4313.35
998.0403	2715.9654	5182.95	4290.9
998.1623	2717.1899	5190.7	4285.2
998.2842	2718.4136	5185.35	4293
998.4062	2719.6367	5179.95	4287.55
998.528	2720.8591	5175.75	4275.6
998.6498	2722.0809	5152.3	4260.65
998.7716	2723.3019	5143.1	4250.05
998.8934	2724.5223	5148.05	4254.75
999.0151	2725.7421	5135.65	4244.65
999.1368	2726.9611	5127.65	4232.85
999.2584	2728.1795	5109.6	4212.05
999.38	2729.3972	5076.3	4183.45
999.5016	2730.6142	5075.15	4176.4
999.6231	2731.8306	5039.3	4146.5
999.7446	2733.0462	4991.95	4098.85
999.8661	2734.2612	4947.3	4052.05
999.9875	2735.4756	4936	4041.8
1000.1089	2736.6892	4896.6	4003.15
1000.2302	2737.9022	4864.55	3973.45
1000.3515	2739.1145	4864.65	3974.95
1000.4728	2740.3262	4825.3	3924.55
1000.594	2741.5372	4792.5	3901.85
1000.7152	2742.7475	4767.3	3873.75
1000.8363	2743.9571	4750.85	3857.15
1000.9575	2745.1661	4725.7	3829.7
1001.0785	2746.3744	4700.25	3807.15
1001.1996	2747.582	4691.15	3798.95
1001.3206	2748.7889	4665.65	3772.6
1001.4415	2749.9952	4645.05	3754.15
1001.5625	2751.2008	4611.65	3717.7
1001.6833	2752.4057	4608.85	3713.5
1001.8042	2753.61	4581.8	3690.3
1001.925	2754.8136	4587.4	3693.85
1002.0458	2756.0165	4567.15	3674
1002.1665	2757.2188	4557.4	3666.65
1002.2872	2758.4204	4525	3633
1002.4078	2759.6213	4514.5	3619.5
1002.5285	2760.8215	4520.35	3626.2
1002.649	2762.0211	4485.8	3591.3
1002.7696	2763.22	4492.05	3597.2
1002.8901	2764.4182	4465.55	3571.15
1003.0106	2765.6158	4457.85	3565.45
1003.131	2766.8127	4421.5	3529.65
1003.2514	2768.009	4428.85	3536.7
1003.3717	2769.2045	4413.2	3520.5
1003.492	2770.3994	4398.85	3504.2
1003.6123	2771.5936	4373.05	3481.6
1003.7325	2772.7872	4358.75	3466.8
1003.8527	2773.9801	4331.85	3438.2
1003.9729	2775.1723	4335.95	3429.15
1004.093	2776.3639	4313.55	3422.05
1004.2131	2777.5548	4295.25	3400.55
1004.3331	2778.745	4290.3	3397.4
1004.4531	2779.9346	4272.45	3380.35
1004.5731	2781.1235	4276.1	3383.65
1004.693	2782.3117	4266.85	3376.05
1004.8129	2783.4992	4254.05	3363.1
1004.9328	2784.6861	4264.4	3371.35
1005.0526	2785.8723	4247.9	3352.95
1005.1723	2787.0579	4242.9	3350.05
1005.2921	2788.2428	4232.35	3340.85
1005.4118	2789.427	4235.9	3342.75
1005.5314	2790.6106	4211.7	3320.75
1005.651	2791.7935	4204.8	3311.8
1005.7706	2792.9757	4226.05	3334.4
1005.8902	2794.1573	4220.3	3327.05
1006.0097	2795.3382	4207.95	3316.95
1006.1291	2796.5184	4224.05	3336.1
1006.2485	2797.698	4223.95	3331.15
1006.3679	2798.8769	4223.85	3331.85
1006.4873	2800.0551	4228.5	3337.75
1006.6066	2801.2327	4218.9	3324.35
1006.7258	2802.4096	4233.3	3342.85
1006.8451	2803.5859	4241.8	3349.2
1006.9642	2804.7615	4256.2	3364.45
1007.0834	2805.9364	4270.55	3378.9
1007.2025	2807.1106	4278.75	3385.95
1007.3216	2808.2842	4296.3	3403.35
1007.4406	2809.4572	4328.35	3435.65
1007.5596	2810.6294	4342.9	3449.95
1007.6785	2811.801	4380.1	3490.45
1007.7975	2812.972	4403.7	3513.05
1007.9163	2814.1423	4449.85	3558.3
1008.0352	2815.3119	4475.55	3582.85
1008.154	2816.4808	4515.2	3623.55
1008.2727	2817.6491	4560.5	3668.6
1008.3914	2818.8167	4575.7	3684.05
1008.5101	2819.9837	4625.5	3727.85
1008.6288	2821.15	4659.2	3767.2
1008.7474	2822.3157	4688.6	3799.85
1008.8659	2823.4807	4742.35	3851.45
1008.9844	2824.645	4772.7	3879.3
1009.1029	2825.8086	4802.05	3911.15
1009.2214	2826.9716	4845.2	3955.65
1009.3398	2828.134	4874.1	3982
1009.4581	2829.2957	4888.15	3997.85
1009.5764	2830.4567	4927.3	4038.2
1009.6947	2831.617	4921.2	4027.3
1009.813	2832.7767	4930.15	4038.8
1009.9312	2833.9358	4924	4032.3
1010.0493	2835.0941	4926.25	4032.65
1010.1675	2836.2519	4878.6	3988.45
1010.2855	2837.4089	4870.05	3978.05
1010.4036	2838.5653	4877.5	3987.95
1010.5216	2839.7211	4859.1	3968.25
1010.6396	2840.8761	4858.4	3966
1010.7575	2842.0306	4867.3	3976.25
1010.8754	2843.1843	4897.8	4007.65
1010.9932	2844.3374	4952	4061.75
1011.111	2845.4899	5001.2	4107.8
1011.2288	2846.6417	5064.25	4172.3
1011.3465	2847.7928	5136.35	4245.9
1011.4642	2848.9433	5179.5	4289.05
1011.5818	2850.0931	5261.3	4369.9
1011.6995	2851.2422	5346.85	4454.3
1011.817	2852.3907	5404.2	4510.7
1011.9345	2853.5385	5463.5	4573.5
1012.052	2854.6857	5539.2	4621.15
1012.1695	2855.8323	5567.65	4676.3
1012.2869	2856.9781	5599	4709
1012.4042	2858.1233	5639.5	4749.5
1012.5216	2859.2679	5675.55	4784.85
1012.6389	2860.4118	5688.7	4797
1012.7561	2861.555	5727.1	4830.65
1012.8733	2862.6976	5765.95	4872.15
1012.9905	2863.8395	5793.9	4902.95
1013.1076	2864.9808	5813.4	4923
1013.2247	2866.1214	5792.25	4901.45
1013.3417	2867.2614	5792.6	4900.65
1013.4587	2868.4007	5800	4907.7
1013.5757	2869.5393	5812	4919.55
1013.6926	2870.6773	5812.25	4919.6
1013.8095	2871.8146	5801	4905.45
1013.9263	2872.9513	5808.75	4914.65
1014.0431	2874.0874	5791	4899.3
1014.1599	2875.2227	5759.3	4868.45
1014.2766	2876.3574	5740.65	4848.4
1014.3933	2877.4915	5706.7	4814.55
1014.51	2878.6249	5676.05	4784.3
1014.6266	2879.7577	5642.1	4750.75
1014.7431	2880.8898	5636.4	4734.05
1014.8596	2882.0212	5595.35	4703.4
1014.9761	2883.152	5568.35	4678.95
1015.0925	2884.2821	5553.35	4665.1
1015.2089	2885.4116	5517.9	4626.85
1015.3253	2886.5405	5506.8	4615.4
1015.4416	2887.6686	5525.55	4632.3
1015.5579	2888.7962	5504.4	4614.35
1015.6741	2889.923	5499.8	4608.95
1015.7903	2891.0493	5513.75	4624.3
1015.9065	2892.1748	5516.9	4625.85
1016.0226	2893.2997	5517.15	4625.45
1016.1387	2894.424	5515.55	4622.8
1016.2547	2895.5476	5548.8	4659.25
1016.3707	2896.6706	5552.5	4662.2
1016.4866	2897.7929	5562.65	4669.85
1016.6025	2898.9145	5621.3	4730.5
1016.7184	2900.0355	5601.7	4709.9
1016.8342	2901.1559	5636.65	4746.25
1016.95	2902.2756	5666.45	4776.45
1017.0658	2903.3946	5683.4	4792.15
1017.1815	2904.513	5698	4803.65
1017.2971	2905.6308	5706.05	4814
1017.4127	2906.7479	5721.1	4829.3
1017.5283	2907.8643	5753.55	4862.2
1017.6439	2908.9801	5740.05	4851.7
1017.7594	2910.0953	5756.4	4864.95
1017.8748	2911.2098	5749.1	4855.6
1017.9902	2912.3236	5727.85	4828.6
1018.1056	2913.4368	5725.05	4830.4
1018.2209	2914.5494	5681.7	4790.3
1018.3362	2915.6613	5651.55	4753.25
1018.4515	2916.7725	5622.6	4727.45
1018.5667	2917.8831	5590.1	4696.95
1018.6819	2918.9931	5557.1	4663.05
1018.797	2920.1024	5519.25	4626.05
1018.9121	2921.211	5498.85	4608.3
1019.0271	2922.319	5466.65	4576.7
1019.1421	2923.4264	5427.4	4536.45
1019.2571	2924.5331	5405.2	4514
1019.372	2925.6391	5394.4	4505.1
1019.4869	2926.7445	5370.8	4479.45
1019.6017	2927.8493	5372.5	4479.35
1019.7165	2928.9534	5360.85	4468.55
1019.8313	2930.0569	5326.8	4431.85
1019.946	2931.1597	5336.85	4442.3
1020.0606	2932.2619	5299.15	4408.45
1020.1753	2933.3634	5292.1	4399.85
1020.2899	2934.4643	5293.7	4396
1020.4044	2935.5645	5246.85	4349.25
1020.5189	2936.6641	5195.95	4300.25
1020.6334	2937.763	5132.9	4241.25
1020.7478	2938.8613	5072.85	4181.6
1020.8622	2939.959	5025.6	4129.65
1020.9765	2941.056	4951.75	4059.5
1021.0908	2942.1523	4870	3977.8
1021.2051	2943.248	4768.9	3878.6
1021.3193	2944.3431	4682.55	3792.45
1021.4334	2945.4375	4554.75	3662.55
1021.5476	2946.5313	4438	3547.15
1021.6617	2947.6244	4321.4	3429.85
1021.7757	2948.7169	4216.05	3323.7
1021.8897	2949.8087	4105.5	3214
1022.0037	2950.8999	4018.4	3127.65
1022.1176	2951.9904	3931.1	3039.85
1022.2315	2953.0803	3836.7	2944.65
1022.3453	2954.1696	3773.8	2884.4
1022.4591	2955.2582	3721.75	2830.9
1022.5728	2956.3462	3656.55	2767.45
1022.6865	2957.4335	3609.95	2715.8
1022.8002	2958.5202	3565.65	2671.9
1022.9138	2959.6062	3540.8	2651.25
1023.0274	2960.6916	3505.05	2613.9
1023.141	2961.7764	3486	2596.85
1023.2545	2962.8605	3451.25	2559.2
1023.3679	2963.9439	3437.05	2544.95
1023.4813	2965.0267	3429.6	2537.1
1023.5947	2966.1089	3428.15	2514.3
1023.708	2967.1905	3390.45	2499.35
1023.8213	2968.2714	3389.5	2501.6
1023.9346	2969.3516	3372.35	2480.65
1024.0478	2970.4312	3385.7	2487.7
1024.1609	2971.5102	3367.15	2475.55
1024.274	2972.5885	3360.2	2468.35
1024.3871	2973.6662	3361.95	2464.15
1024.5002	2974.7432	3344.7	2454.4
1024.6132	2975.8196	3323.9	2432.4
1024.7261	2976.8954	3309.45	2419.05
1024.839	2977.9705	3302.8	2411.85
1024.9519	2979.045	3278.3	2388.95
1025.0647	2980.1188	3253.9	2362.8
1025.1775	2981.192	3230.4	2341.05
1025.2902	2982.2645	3203.2	2311.6
1025.4029	2983.3364	3165.55	2274.75
1025.5156	2984.4077	3121.2	2230.7
1025.6282	2985.4783	3091.4	2194.2
1025.7407	2986.5483	3056.15	2166.05
1025.8532	2987.6177	3018.35	2129.05
1025.9657	2988.6864	2998	2107.1
1026.0782	2989.7545	2949.8	2059.25
1026.1906	2990.8219	2915.5	2025.4
1026.3029	2991.8887	2875.85	1981.5
1026.4152	2992.9548	2833.45	1941.35
1026.5275	2994.0204	2803.2	1913.1
1026.6397	2995.0852	2766.3	1878.05
1026.7519	2996.1495	2736.7	1845
1026.864	2997.2131	2713.75	1822.5
1026.9761	2998.276	2692.15	1801.35
1027.0882	2999.3383	2663.2	1771.8
1027.2002	3000.4	2637.55	1745.85
1027.3122	3001.4611	2621.35	1730.8
1027.4241	3002.5215	2590.45	1700
1027.536	3003.5812	2577.2	1686.65
1027.6478	3004.6404	2567.25	1677
1027.7596	3005.6989	2546.8	1654.85
1027.8714	3006.7567	2534.9	1644
1027.9831	3007.8139	2547.1	1631.65
1028.0947	3008.8705	2511.5	1619.85
1028.2064	3009.9264	2509.3	1599.1
1028.3179	3010.9818	2498.55	1606.85
1028.4295	3012.0364	2490.75	1597.8
1028.541	3013.0905	2477.9	1588.05
1028.6524	3014.1439	2473.95	1582.7
1028.7638	3015.1966	2462.3	1575.05
1028.8752	3016.2487	2451.65	1561.6
1028.9865	3017.3002	2462.3	1564.95
1029.0978	3018.3511	2452.2	1560.95
1029.209	3019.4013	2448.5	1558.2
1029.3202	3020.4509	2448.1	1558.05
1029.4314	3021.4998	2437.15	1547.6
1029.5425	3022.5481	2436.1	1544.65
1029.6535	3023.5958	2433.55	1543.5
1029.7645	3024.6428	2427.7	1536.2
1029.8755	3025.6892	2416.75	1528.4
1029.9864	3026.735	2413.25	1522.3
1030.0973	3027.7802	2410	1520.85
1030.2082	3028.8247	2416.65	1526.55
1030.319	3029.8685	2404.65	1514.6
1030.4297	3030.9118	2414.05	1521.5
1030.5404	3031.9544	2402.2	1512.1
1030.6511	3032.9963	2418.05	1528.35
1030.7617	3034.0376	2415.95	1527.4
1030.8723	3035.0783	2411.3	1519
1030.9829	3036.1184	2409.6	1517.45
1031.0934	3037.1578	2407.3	1517.15
1031.2038	3038.1966	2407.85	1516
1031.3142	3039.2348	2397	1508.1
1031.4246	3040.2723	2406.05	1506
1031.5349	3041.3092	2390	1497.8
1031.6452	3042.3455	2382.95	1493
1031.7554	3043.3811	2379.65	1488.2
1031.8656	3044.4161	2371.95	1481.3
1031.9758	3045.4505	2357.05	1467
1032.0859	3046.4842	2344.25	1454.05
1032.1959	3047.5173	2347.75	1458.55
1032.3059	3048.5498	2328.95	1440
1032.4159	3049.5816	2313.8	1422.5
1032.5258	3050.6128	2307.35	1416.65
1032.6357	3051.6434	2290.3	1397.75
1032.7455	3052.6734	2282.65	1390.5
1032.8553	3053.7027	2271.55	1381.7
1032.9651	3054.7314	2270.8	1381.6
1033.0748	3055.7594	2251.35	1361.4
1033.1845	3056.7868	2231	1338.55
1033.2941	3057.8136	2234.8	1344.2
1033.4037	3058.8398	2218.6	1328.95
1033.5132	3059.8653	2210	1317.8
1033.6227	3060.8902	2200.45	1309.7
1033.7321	3061.9145	2198.75	1308.7
1033.8415	3062.9381	2185.55	1294
1033.9509	3063.9612	2197.05	1291.3
1034.0602	3064.9835	2169.65	1280.25
1034.1694	3066.0053	2163.45	1270.15
1034.2787	3067.0264	2141.2	1250.45
1034.3878	3068.0469	2139.05	1245.25
1034.497	3069.0668	2133.5	1240.75
1034.6061	3070.086	2109.55	1219.45
1034.7151	3071.1046	2104.5	1213.55
1034.8241	3072.1226	2085.6	1192.9
1034.9331	3073.1399	2073.05	1183.3
1035.042	3074.1567	2053.1	1164
1035.1508	3075.1727	2053.9	1160.9
1035.2597	3076.1882	2044.85	1154.45
1035.3684	3077.203	2027.25	1136.15
1035.4772	3078.2173	2012.8	1120.5
1035.5859	3079.2308	2014.65	1121.9
1035.6945	3080.2438	2005.45	1112.25
1035.8031	3081.2561	1982.15	1091.2
1035.9117	3082.2678	1968.8	1079.05
1036.0202	3083.2789	1961.45	1071.05
1036.1286	3084.2893	1951.25	1060.5
1036.2371	3085.2991	1938.55	1047.45
1036.3454	3086.3083	1943.65	1047.8
1036.4538	3087.3169	1929.65	1038.6
1036.562	3088.3248	1916.25	1024.35
1036.6703	3089.3321	1908.5	1017.65
1036.7785	3090.3388	1907.75	1017
1036.8866	3091.3449	1884.95	993.35
1036.9948	3092.3503	1887.6	994.55
1037.1028	3093.3551	1874.85	985.5
1037.2108	3094.3593	1865.1	974.95
1037.3188	3095.3629	1868.35	981.2
1037.4267	3096.3658	1858.1	968.5
1037.5346	3097.3681	1854.35	963.45
1037.6425	3098.3698	1849.6	957.4
1037.7503	3099.3708	1841.75	944.2
1037.858	3100.3713	1837.55	945.7
1037.9657	3101.3711	1825	931.4
1038.0734	3102.3702	1924.4	918.7
1038.181	3103.3688	1818.6	925.9
1038.2886	3104.3667	1811.9	923.5
1038.3961	3105.364	1803.95	916.2
1038.5036	3106.3607	1795.25	902.65
1038.611	3107.3568	1793.25	901.15
1038.7184	3108.3522	1783.65	893.95
1038.8257	3109.347	1786.75	894.15
1038.933	3110.3412	1783.7	887.85
1039.0403	3111.3348	1761.5	870.6
1039.1475	3112.3277	1762.35	871.75
1039.2547	3113.32	1755.75	868.65
1039.3618	3114.3117	1753.95	864.05
1039.4689	3115.3028	1751.9	862.15
1039.5759	3116.2932	1739.5	845.6
1039.6829	3117.2831	1740.75	843.8
1039.7898	3118.2723	1731	839.5
1039.8967	3119.2608	1730.05	838.3
1040.0035	3120.2488	1719.1	828.75
1040.1103	3121.2361	1720.4	830.75
1040.2171	3122.2229	1713.35	823.5
1040.3238	3123.209	1713.25	821.35
1040.4305	3124.1944	1700.45	810.85
1040.5371	3125.1793	1699.85	805.95
1040.6437	3126.1635	1691.4	801.2
1040.7502	3127.1471	1695.5	804.25
1040.8567	3128.1301	1681.8	794.7
1040.9631	3129.1125	1686.6	793.9
1041.0695	3130.0942	1682.5	791.9
1041.1759	3131.0753	1683.95	785.25
1041.2822	3132.0558	1673.5	780.9
1041.3884	3133.0357	1671.4	781.95
1041.4946	3134.015	1668.45	776.95
1041.6008	3134.9936	1663.45	771.9
1041.7069	3135.9716	1674.6	764.3
1041.813	3136.949	1656.2	766.45
1041.919	3137.9258	1653.2	758.2
1042.025	3138.902	1649.5	753.4
1042.1309	3139.8775	1637.35	748.65
1042.2368	3140.8524	1639.65	747.2
1042.3427	3141.8267	1637.15	745.2
1042.4485	3142.8004	1632.5	740.45
1042.5542	3143.7735	1624.95	728.65
1042.6599	3144.7459	1631	739.65
1042.7656	3145.7178	1617.1	724.9
1042.8712	3146.689	1611	720.65
1042.9768	3147.6596	1606.8	713.75
1043.0823	3148.6295	1604.3	713.75
1043.1878	3149.5989	1600.7	711.15
1043.2932	3150.5676	1594.5	705.15
1043.3986	3151.5357	1586.6	701.25
1043.5039	3152.5032	1586.8	696.75
1043.6092	3153.4701	1581.55	691.35
1043.7145	3154.4364	1590.5	698
1043.8197	3155.402	1575.15	685.45
1043.9248	3156.367	1572.75	681.05
1044.03	3157.3315	1601.35	674.3
1044.135	3158.2952	1559.3	668.6
1044.24	3159.2584	1556.4	667.5
1044.345	3160.221	1554.05	664.15
1044.4499	3161.1829	1549.85	659
1044.5548	3162.1442	1543.95	654.55
1044.6596	3163.105	1550.8	661.5
1044.7644	3164.065	1543.9	653.5
1044.8692	3165.0245	1535.45	641.35
1044.9739	3165.9834	1531.55	643.1
1045.0785	3166.9416	1522.95	633.35
1045.1831	3167.8993	1525.7	635.05
1045.2877	3168.8563	1529.4	638.05
1045.3922	3169.8127	1519.4	628.85
1045.4966	3170.7684	1516.7	627.35
1045.6011	3171.7236	1510.65	619.4
1045.7054	3172.6782	1503.25	614.2
1045.8098	3173.6321	1512.7	623.35
1045.914	3174.5854	1503.2	608.1
1046.0183	3175.5381	1497.05	607.2
1046.1224	3176.4902	1496.2	606.15
1046.2266	3177.4417	1492.6	603.95
1046.3307	3178.3926	1486.5	596.65
1046.4347	3179.3428	1478.2	589
1046.5387	3180.2924	1479.35	591.2
1046.6427	3181.2415	1477.05	585.1
1046.7466	3182.1899	1473.3	581.4
1046.8504	3183.1377	1469.7	577.65
1046.9542	3184.0848	1468.6	576.2
1047.058	3185.0314	1458.85	569
1047.1617	3185.9773	1464.75	573.3
1047.2654	3186.9227	1464.65	574.85
1047.369	3187.8674	1456.3	566.15
1047.4726	3188.8115	1458.55	564.45
1047.5761	3189.755	1455.45	566.2
1047.6796	3190.6979	1450.7	561.65
1047.783	3191.6402	1441.45	551.2
1047.8864	3192.5818	1438	546.75
1047.9898	3193.5229	1458.25	545.35
1048.0931	3194.4633	1443.15	551.15
1048.1963	3195.4031	1430.4	538.45
1048.2995	3196.3423	1431.55	540.25
1048.4027	3197.2809	1424.65	535.35
1048.5058	3198.2189	1425.9	536.65
1048.6089	3199.1563	1443.8	539.6
1048.7119	3200.0931	1415.05	525
1048.8148	3201.0292	1412.4	523.4
1048.9178	3201.9648	1412.6	523.15
1049.0206	3202.8997	1414.95	521.65
1049.1235	3203.834	1411.9	523.55
1049.2262	3204.7677	1417.1	527.6
1049.329	3205.7008	1404.25	513.15
1049.4317	3206.6333	1402.75	515.35
1049.5343	3207.5652	1403.25	512.2
1049.6369	3208.4964	1402.85	513.65
1049.7394	3209.4271	1393.35	504
1049.8419	3210.3571	1389.2	500.7
1049.9444	3211.2865	1389.45	498.9
1050.0468	3212.2154	1384.85	493.45
1050.1491	3213.1436	1389.65	496.55
1050.2514	3214.0712	1391.45	495.75
1050.3537	3214.9982	1383.35	494.55
1050.4559	3215.9246	1379.35	489
1050.5581	3216.8503	1375.5	487.85
1050.6602	3217.7755	1366.5	475.85
1050.7623	3218.7001	1375.65	485.55
1050.8643	3219.624	1364.05	471.65
1050.9663	3220.5473	1369.55	479.4
1051.0682	3221.4701	1364.4	474.25
1051.1701	3222.3922	1360.5	467.55
1051.2719	3223.3137	1351.95	461.2
1051.3737	3224.2346	1352.4	463.3
1051.4754	3225.1549	1350.45	459.85
1051.5771	3226.0746	1348.7	459.8
1051.6788	3226.9937	1345.1	457.2
1051.7804	3227.9121	1346.5	458.45
1051.8819	3228.83	1337.45	446.6
1051.9834	3229.7473	1339.55	448.5
1052.0849	3230.6639	1337	445.85
1052.1863	3231.5799	1337.25	447.25
1052.2876	3232.4954	1334.05	443.75
1052.3889	3233.4102	1320.35	430.5
1052.4902	3234.3244	1333.45	441.9
1052.5914	3235.238	1320.35	430.3
1052.6926	3236.151	1350.7	436.85
1052.7937	3237.0634	1314.15	425.25
1052.8948	3237.9752	1315.25	426.3
1052.9958	3238.8864	1309.2	421.3
1053.0968	3239.797	1308.8	419.1
1053.1977	3240.7069	1312.65	421.4
1053.2986	3241.6163	1310.15	420.05
1053.3994	3242.5251	1302.8	414.35
1053.5002	3243.4332	1299	409.8
1053.6009	3244.3408	1300.95	411.45
1053.7016	3245.2477	1297.65	409.05
1053.8022	3246.154	1295.1	404.05
1053.9028	3247.0598	1289.6	399.3
1054.0034	3247.9649	1285.8	395.45
1054.1039	3248.8694	1288.25	397.35
1054.2043	3249.7733	1282.35	392
1054.3047	3250.6766	1280.65	389.7
1054.4051	3251.5793	1280.2	389.35
1054.5054	3252.4814	1275.85	382.9
1054.6056	3253.3829	1276.65	385.25
1054.7058	3254.2838	1268.3	379.1
1054.806	3255.1841	1267.25	379.55
1054.9061	3256.0838	1268.25	380.2
1055.0061	3256.9829	1258.35	369.5
1055.1062	3257.8814	1255.45	364.6
1055.2061	3258.7792	1260.8	369.15
1055.306	3259.6765	1251.65	362.45
1055.4059	3260.5731	1248.65	359.85
1055.5057	3261.4692	1235.95	346.35
1055.6055	3262.3647	1237.65	348
1055.7052	3263.2595	1232.65	344.3
1055.8049	3264.1538	1225.6	335.3
1055.9045	3265.0474	1225.7	336.45
1056.0041	3265.9404	1220.6	331.9
1056.1036	3266.8329	1218.95	330.55
1056.2031	3267.7247	1219.4	321.05
1056.3025	3268.616	1202.35	311.15
1056.4019	3269.5066	1195.3	305.65
1056.5013	3270.3966	1191.2	300.1
1056.6005	3271.286	1174.25	284.35
