Software Version:	3.9.2.0
Unit SN:	10000200
Spectrometer SN:	6960
Date:	3/6/2024 10:32:35 AM
Data Line Index:	25
Spectral Points:	2048
Integration time (ms):	125
Averages:	20
Delay (ms):	30
Sequence Number:	1
Processing:	dark subtract
Laser Power (mW):	305
Laser Current (mA):	824
Laser Diode Temp (C):	25.1
Laser Case Temp (C):	26.4
System Temp (C):	26.2
Spectrometer Temp (C):	23.7
CCD Temp (C):	-0.006
Secondary Temp (C):	20.013
Heatsink Temp (C):	21.726
CCDPCB Temp (C):	36.285
SecondaryPCB Temp (C):	29.76

Wavelength	RamanShift	Raw Counts	Dark Subtracted
787.061	30.1047	1149.6	738.75
787.2016	32.3739	1182.55	771.7
787.3422	34.6426	1223.75	813.25
787.4828	36.9109	1281	867.65
787.6235	39.1787	1344.75	929.25
787.7642	41.4461	1398.65	977.75
787.9049	43.7131	1468.95	1043.4
788.0456	45.9796	1520.8	1091.95
788.1863	48.2456	1594.7	1162.3
788.3271	50.5112	1665.7	1228.6
788.4679	52.7764	1739.8	1302.55
788.6087	55.0411	1822.15	1379.7
788.7496	57.3054	1904.85	1455.95
788.8904	59.5692	1990.65	1539.6
789.0313	61.8326	2107.45	1653.45
789.1722	64.0955	2208.15	1752.3
789.3132	66.3579	2335.7	1872.75
789.4541	68.6199	2500.9	2036.4
789.5951	70.8815	2757	2287.75
789.7361	73.1426	3300.85	2827.6
789.8771	75.4032	4691.95	4213.8
790.0181	77.6634	8244.95	7761.1
790.1592	79.9231	17817.85	17330.75
790.3003	82.1824	57573.75	57073.65
790.4414	84.4412	65535	65014.75
790.5825	86.6995	65535	64986.15
790.7237	88.9574	65535	64958.6
790.8648	91.2148	65535	64942.05
791.006	93.4717	65535	64927.2
791.1472	95.7282	65535	64923.3
791.2885	97.9842	65535	64915.6
791.4297	100.2398	65535	64915.3
791.571	102.4949	65535	64914.95
791.7123	104.7495	65535	64912.8
791.8536	107.0036	65535	64909.95
791.9949	109.2573	65535	64908.1
792.1363	111.5105	65535	64906.35
792.2777	113.7632	65535	64906.85
792.4191	116.0154	65535	64895.3
792.5605	118.2672	65535	64904.8
792.7019	120.5185	65535	64900.6
792.8434	122.7693	65535	64896.2
792.9849	125.0197	65535	64891.95
793.1264	127.2696	65535	64887.5
793.2679	129.519	65535	64890.35
793.4094	131.7679	65535	64885.55
793.551	134.0163	65535	64881.3
793.6926	136.2642	65535	64881.1
793.8342	138.5117	65535	64870
793.9758	140.7587	65535	64872.2
794.1175	143.0052	65535	64871.45
794.2591	145.2512	65535	64873.2
794.4008	147.4967	65535	64871.3
794.5425	149.7417	65535	64871.1
794.6842	151.9863	65535	64863.9
794.826	154.2304	65535	64861.5
794.9677	156.4739	65535	64855.75
795.1095	158.717	65535	64858
795.2513	160.9596	65535	64849.7
795.3931	163.2017	65535	64848.5
795.535	165.4433	65535	64848.6
795.6768	167.6844	65535	64846.85
795.8187	169.925	65535	64839.05
795.9606	172.1651	65535	64841.3
796.1025	174.4047	65535	64836.6
796.2445	176.6439	65535	64835.8
796.3864	178.8825	65535	64828.25
796.5284	181.1206	65535	64826.95
796.6704	183.3582	65535	64824.95
796.8124	185.5954	65535	64819.45
796.9544	187.832	65535	64820
797.0965	190.0681	65535	64819.3
797.2386	192.3037	65535	64813.55
797.3806	194.5388	65535	64808.95
797.5228	196.7734	65535	64807.45
797.6649	199.0075	65535	64802
797.807	201.2411	65535	64804.35
797.9492	203.4742	65535	64801.05
798.0914	205.7068	65535	64803.3
798.2336	207.9389	65535	64801.55
798.3758	210.1704	65535	64796.8
798.518	212.4015	65535	64796.8
798.6603	214.632	65535	64810.15
798.8025	216.862	65535	64813
798.9448	219.0915	65535	64817.15
799.0871	221.3205	65535	64814
799.2294	223.549	65535	64823.5
799.3718	225.777	65535	64818.75
799.5141	228.0044	65535	64813.6
799.6565	230.2314	65535	64817.5
799.7989	232.4578	65535	64812.8
799.9413	234.6837	65535	64805.95
800.0837	236.909	65535	64801.4
800.2262	239.1339	65535	64775.1
800.3687	241.3582	65535	64789.35
800.5111	243.582	65535	64763.1
800.6536	245.8053	65535	64772.35
800.7961	248.0281	65535	64778.75
800.9387	250.2503	65535	64775.95
801.0812	252.472	65535	64766.8
801.2238	254.6932	65535	64770.7
801.3664	256.9139	65535	64771.45
801.509	259.134	65535	64768.35
801.6516	261.3536	65535	64765.25
801.7942	263.5727	65535	64768.95
801.9369	265.7912	65535	64766.35
802.0795	268.0092	65535	64763.1
802.2222	270.2267	65535	64765.45
802.3649	272.4436	65535	64765.75
802.5076	274.6601	65535	64755.8
802.6504	276.8759	65535	64760.25
802.7931	279.0913	65535	64756.95
802.9359	281.3061	65535	64756.85
803.0787	283.5204	65535	64755.65
803.2215	285.7341	65535	64752.2
803.3643	287.9473	65535	64737.5
803.5071	290.16	65535	64747.7
803.6499	292.3721	65535	64755.25
803.7928	294.5837	65535	64749.25
803.9357	296.7947	65535	64754.25
804.0786	299.0052	65535	64746.75
804.2215	301.2152	65535	64746.95
804.3644	303.4246	65535	64754.2
804.5074	305.6334	65535	64751.35
804.6503	307.8418	65535	64747.95
804.7933	310.0495	65535	64748
804.9363	312.2568	65535	64748.5
805.0793	314.4635	65535	64745.05
805.2223	316.6696	65535	64741.5
805.3653	318.8752	65535	64733.45
805.5084	321.0802	65535	64743
805.6514	323.2847	65535	64738.75
805.7945	325.4887	65535	64739.45
805.9376	327.692	65535	64738.65
806.0807	329.8949	65535	64732.15
806.2238	332.0972	65535	64734.95
806.367	334.2989	65535	64729.25
806.5101	336.5001	65535	64730.95
806.6533	338.7007	65535	64730.65
806.7965	340.9008	65535	64729.7
806.9397	343.1003	65535	64731
807.0829	345.2992	65535	64727.05
807.2261	347.4976	65535	64726.85
807.3693	349.6955	65535	64720.7
807.5126	351.8927	65535	64721
807.6559	354.0895	65535	64711.8
807.7991	356.2856	65535	64721.2
807.9424	358.4812	65535	64719.2
808.0857	360.6763	65535	64716.7
808.2291	362.8707	65535	64717.1
808.3724	365.0646	65535	64712.9
808.5158	367.258	65535	64710.2
808.6591	369.4508	65535	64707.65
808.8025	371.643	65535	64709.5
808.9459	373.8346	65535	64708.6
809.0893	376.0257	65535	64703.8
809.2327	378.2162	65535	64706.6
809.3762	380.4062	65535	64699.45
809.5196	382.5956	65535	64699.35
809.6631	384.7844	65535	64704
809.8066	386.9726	65535	64706.85
809.9501	389.1603	65535	64711.15
810.0936	391.3474	65535	64673.55
810.2371	393.5339	65535	64710.45
810.3806	395.7199	65535	64711.3
810.5241	397.9052	65535	64712.35
810.6677	400.09	65535	64713.05
810.8113	402.2743	65535	64714.75
810.9548	404.4579	65535	64710.8
811.0984	406.641	65535	64711.2
811.2421	408.8235	65535	64707.05
811.3857	411.0054	65535	64706
811.5293	413.1868	65535	64704.25
811.673	415.3675	65535	64705.6
811.8166	417.5477	65535	64701.9
811.9603	419.7273	65535	64694.45
812.104	421.9064	65535	64688
812.2477	424.0848	65535	64693.45
812.3914	426.2627	65535	64694.7
812.5351	428.4399	65535	64692.1
812.6788	430.6166	65535	64690
812.8226	432.7928	65535	64688.25
812.9663	434.9683	65535	64688.85
813.1101	437.1432	65535	64687.6
813.2539	439.3176	65535	64685.55
813.3977	441.4914	65535	64690.15
813.5415	443.6645	65535	64685.4
813.6853	445.8371	65535	64686.7
813.8291	448.0091	65535	64691.15
813.973	450.1806	65535	64685.8
814.1168	452.3514	65535	64687.75
814.2607	454.5216	65535	64678.4
814.4046	456.6913	65535	64681.25
814.5485	458.8603	65535	64684.3
814.6924	461.0288	65535	64686.1
814.8363	463.1967	65535	64686.5
814.9802	465.3639	65535	64683.25
815.1241	467.5306	65535	64684.8
815.2681	469.6967	65535	64685.45
815.412	471.8622	65535	64684.3
815.556	474.0271	65535	64681.45
815.7	476.1914	65535	64679.9
815.844	478.3551	65535	64681.05
815.988	480.5182	65535	64682.3
816.132	482.6807	65535	64680.25
816.276	484.8426	65535	64685.35
816.4201	487.0039	65535	64684.45
816.5641	489.1647	65535	64682.1
816.7082	491.3248	65535	64681.85
816.8522	493.4843	65535	64678.55
816.9963	495.6432	65535	64677.4
817.1404	497.8015	65535	64675.4
817.2845	499.9592	65535	64676.2
817.4286	502.1163	65535	64676.15
817.5727	504.2728	65535	64675.85
817.7168	506.4287	65535	64676.45
817.861	508.5839	65535	64676.85
818.0051	510.7386	65535	64677.65
818.1493	512.8927	65535	64674.6
818.2935	515.0461	65535	64675.3
818.4377	517.199	65535	64673.35
818.5818	519.3512	65535	64668.45
818.726	521.5029	65535	64666.6
818.8703	523.6539	65535	64669.9
819.0145	525.8043	65535	64668.2
819.1587	527.9541	65535	64665.75
819.303	530.1033	65535	64666.6
819.4472	532.2519	65535	64668.6
819.5915	534.3999	65535	64664.25
819.7357	536.5472	65535	64663
819.88	538.694	65535	64668.95
820.0243	540.8401	65535	64663.45
820.1686	542.9856	65535	64663.9
820.3129	545.1305	65535	64660.25
820.4572	547.2748	65535	64659.8
820.6016	549.4185	65535	64662.05
820.7459	551.5615	65535	64660.25
820.8902	553.704	65535	64660.85
821.0346	555.8458	65535	64667.95
821.1789	557.987	65535	64667
821.3233	560.1276	65535	64663.85
821.4677	562.2675	65535	64667.35
821.6121	564.4069	65535	64667.45
821.7565	566.5456	65535	64666
821.9009	568.6837	65535	64665.45
822.0453	570.8212	65535	64667.05
822.1897	572.958	65535	64665.2
822.3342	575.0942	65535	64662.95
822.4786	577.2299	65535	64663.15
822.6231	579.3648	65535	64662.2
822.7675	581.4992	65535	64662.5
822.912	583.6329	65535	64664.25
823.0565	585.766	65535	64665.7
823.201	587.8985	65535	64666.25
823.3454	590.0304	65535	64638.95
823.4899	592.1616	65535	64659.45
823.6345	594.2922	65535	64656.35
823.779	596.4222	65535	64657.65
823.9235	598.5515	65535	64656.05
824.068	600.6802	65535	64654.2
824.2126	602.8083	65535	64656.65
824.3571	604.9358	65535	64654
824.5017	607.0626	65535	64655.25
824.6462	609.1888	65535	64653.7
824.7908	611.3144	65535	64652.6
824.9354	613.4393	65535	64656.55
825.08	615.5636	65535	64656.65
825.2246	617.6873	65535	64656.8
825.3692	619.8103	65535	64653.75
825.5138	621.9327	65535	64653.6
825.6584	624.0544	65535	64658.5
825.803	626.1756	65535	64656.1
825.9477	628.2961	65535	64650.75
826.0923	630.4159	65535	64655.4
826.237	632.5351	65535	64651.45
826.3816	634.6537	65535	64654.7
826.5263	636.7716	65535	64649
826.6709	638.8889	65535	64654
826.8156	641.0056	65535	64652.9
826.9603	643.1216	65535	64649.4
827.105	645.237	65535	64647.6
827.2497	647.3518	65535	64650.95
827.3944	649.4659	65535	64651.55
827.5391	651.5793	65535	64651.15
827.6838	653.6922	65535	64649.85
827.8285	655.8043	65535	64652.95
827.9733	657.9159	65535	64649.45
828.118	660.0268	65535	64648.5
828.2627	662.137	65535	64648.05
828.4075	664.2466	65535	64649.25
828.5522	666.3556	65535	64650.75
828.697	668.4639	65535	64647.05
828.8418	670.5716	65535	64649.95
828.9865	672.6786	65535	64647.75
829.1313	674.785	65535	64647.2
829.2761	676.8907	65535	64646.95
829.4209	678.9958	65535	64651.2
829.5657	681.1002	65535	64649.55
829.7105	683.204	65535	64642.25
829.8553	685.3072	65535	64645.05
830.0001	687.4097	65535	64646
830.1449	689.5115	65535	64642.05
830.2898	691.6127	65535	64650.4
830.4346	693.7132	65535	64649.5
830.5794	695.8131	65535	64634.55
830.7243	697.9123	65535	64644.8
830.8691	700.0109	65535	64643.45
831.014	702.1089	65535	64642.15
831.1588	704.2061	65535	64647.3
831.3037	706.3028	65535	64643.05
831.4486	708.3987	65535	64642.15
831.5935	710.4941	65535	64643.3
831.7383	712.5887	65535	64642
831.8832	714.6827	65535	64640.75
832.0281	716.7761	65535	64642.05
832.173	718.8688	65535	64639.7
832.3179	720.9608	65535	64640.65
832.4628	723.0522	65535	64639.2
832.6077	725.1429	65535	64642.05
832.7527	727.233	65535	64642.8
832.8976	729.3224	65535	64639.7
833.0425	731.4112	65535	64639.75
833.1874	733.4993	65535	64635.1
833.3324	735.5867	65535	64640.45
833.4773	737.6735	65535	64639.55
833.6222	739.7596	65535	64638.55
833.7672	741.845	65535	64640.25
833.9122	743.9298	65535	64640.15
834.0571	746.014	65535	64641.5
834.2021	748.0974	65535	64637.3
834.347	750.1802	65535	64639.15
834.492	752.2624	65535	64638.75
834.637	754.3439	65535	64639.25
834.782	756.4247	65535	64629.4
834.9269	758.5048	65535	64637.35
835.0719	760.5843	65535	64635.7
835.2169	762.6631	65535	64638.05
835.3619	764.7413	65535	64639.1
835.5069	766.8188	65535	64639.4
835.6519	768.8956	65535	64638.3
835.7969	770.9718	65535	64639.65
835.9419	773.0473	65535	64640.9
836.0869	775.1221	65535	64638.15
836.232	777.1962	65535	64638.8
836.377	779.2697	65535	64638.95
836.522	781.3426	65535	64619.9
836.667	783.4147	65535	64634.75
836.8121	785.4862	65535	64640.4
836.9571	787.557	65535	64637.4
837.1021	789.6271	65535	64639.05
837.2472	791.6966	65535	64638.2
837.3922	793.7654	65535	64636.3
837.5373	795.8335	65535	64639.05
837.6823	797.901	65535	64635.85
837.8274	799.9678	65535	64637.5
837.9724	802.0339	65535	64633.95
838.1175	804.0993	65535	64625.8
838.2626	806.1641	65535	64638.35
838.4076	808.2282	65535	64640.3
838.5527	810.2916	65535	64634.7
838.6978	812.3544	65535	64638.8
838.8428	814.4164	65535	64635.7
838.9879	816.4778	65535	64634.35
839.133	818.5385	65535	64636.25
839.2781	820.5986	65535	64638.6
839.4232	822.658	65535	64633.85
839.5682	824.7166	65535	64635.55
839.7133	826.7747	65535	64637.2
839.8584	828.832	65535	64634.7
840.0035	830.8886	65535	64631.55
840.1486	832.9446	65535	64636.05
840.2937	834.9999	65535	64638.25
840.4388	837.0545	65535	64629.5
840.5839	839.1085	65535	64634.45
840.729	841.1618	65535	64629.4
840.8741	843.2143	65535	64633.75
841.0192	845.2662	65535	64635.35
841.1643	847.3175	65535	64636.95
841.3095	849.368	65535	64636.5
841.4546	851.4179	65535	64633.45
841.5997	853.467	65535	64637.65
841.7448	855.5155	65535	64632.25
841.8899	857.5633	65535	64635.2
842.0351	859.6105	65535	64636.95
842.1802	861.6569	65535	64635.5
842.3253	863.7027	65535	64632.05
842.4704	865.7478	65535	64633.6
842.6156	867.7922	65535	64633.85
842.7607	869.8359	65535	64633.55
842.9058	871.8789	65535	64633.35
843.0509	873.9212	65535	64604.5
843.1961	875.9629	65535	64632.6
843.3412	878.0039	65535	64632.25
843.4863	880.0441	65535	64634.6
843.6315	882.0837	65535	64632.3
843.7766	884.1226	65535	64630.6
843.9218	886.1609	65535	64634.95
844.0669	888.1984	65535	64634.85
844.212	890.2352	65535	64634.15
844.3572	892.2714	65535	64629
844.5023	894.3069	65535	64631
844.6475	896.3416	65535	64631.8
844.7926	898.3757	65535	64633.55
844.9377	900.4091	65535	64630.95
845.0829	902.4418	65535	64627.7
845.228	904.4739	65535	64631.25
845.3732	906.5052	65535	64628.75
845.5183	908.5358	65535	64632.6
845.6635	910.5658	65535	64628.85
845.8086	912.595	65535	64630.6
845.9538	914.6236	65535	64627.95
846.0989	916.6515	65535	64634.95
846.2441	918.6786	65535	64630
846.3892	920.7051	65535	64629.9
846.5344	922.7309	65535	64630.3
846.6795	924.756	65535	64633.3
846.8246	926.7804	65535	64628.55
846.9698	928.8041	65535	64633.95
847.1149	930.8272	65535	64630.95
847.2601	932.8495	65535	64633.1
847.4052	934.8711	65535	64628.5
847.5504	936.892	65535	64629.4
847.6955	938.9123	65535	64630.15
847.8407	940.9318	65535	64630.35
847.9858	942.9506	65535	64632
848.131	944.9688	65535	64629.25
848.2761	946.9862	65535	64632.45
848.4213	949.003	65535	64631
848.5664	951.019	65535	64632.2
848.7115	953.0344	65535	64630.95
848.8567	955.0491	65535	64628.65
849.0018	957.063	65535	64628.45
849.147	959.0763	65535	64631.15
849.2921	961.0888	65535	64629.7
849.4373	963.1007	65535	64632.65
849.5824	965.1119	65535	64633.4
849.7275	967.1223	65535	64635.8
849.8727	969.1321	65535	64634.4
850.0178	971.1412	65535	64630.35
850.1629	973.1495	65535	64628.25
850.3081	975.1572	65535	64599.2
850.4532	977.1641	65535	64629.5
850.5983	979.1704	65535	64628.85
850.7435	981.1759	65535	64628.25
850.8886	983.1808	65535	64628.95
851.0337	985.1849	65535	64621.65
851.1788	987.1884	65535	64628.5
851.324	989.1911	65535	64629.6
851.4691	991.1932	65535	64629.95
851.6142	993.1945	65535	64633.5
851.7593	995.1951	65535	64631.95
851.9045	997.1951	65535	64622.1
852.0496	999.1943	65535	64627.8
852.1947	1001.1928	65535	64630.65
852.3398	1003.1906	65535	64633.45
852.4849	1005.1877	65535	64629
852.63	1007.1841	65535	64627.85
852.7751	1009.1798	65535	64631.7
852.9202	1011.1748	65535	64629.8
853.0653	1013.1691	65535	64627.75
853.2104	1015.1627	65535	64630.55
853.3555	1017.1556	65535	64631.05
853.5006	1019.1477	65535	64629.45
853.6457	1021.1392	65535	64633.05
853.7908	1023.1299	65535	64631.65
853.9359	1025.12	65535	64631.85
854.081	1027.1093	65535	64634
854.2261	1029.0979	65535	64635.25
854.3712	1031.0859	65535	64633.5
854.5163	1033.0731	65535	64630.7
854.6613	1035.0596	65535	64633.25
854.8064	1037.0454	65535	64630.25
854.9515	1039.0304	65535	64632.45
855.0965	1041.0148	65535	64631.65
855.2416	1042.9985	65535	64629.9
855.3867	1044.9814	65535	64632.45
855.5317	1046.9636	65535	64629.9
855.6768	1048.9452	65535	64633.65
855.8219	1050.926	65535	64630.85
855.9669	1052.9061	65535	64631.3
856.112	1054.8855	65535	64629.1
856.257	1056.8642	65535	64631.2
856.4021	1058.8421	65535	64626.45
856.5471	1060.8194	65535	64629.45
856.6921	1062.7959	65535	64631.4
856.8372	1064.7717	65535	64628.5
856.9822	1066.7469	65535	64631.55
857.1272	1068.7213	65535	64628.85
857.2723	1070.695	65535	64630.85
857.4173	1072.6679	65535	64630.8
857.5623	1074.6402	65535	64629.6
857.7073	1076.6117	65535	64624.3
857.8523	1078.5826	65535	64631.6
857.9973	1080.5527	65535	64626.95
858.1423	1082.5221	65535	64630.25
858.2873	1084.4908	65535	64628.85
858.4323	1086.4587	65535	64629.45
858.5773	1088.426	65535	64629.45
858.7223	1090.3925	65535	64626.45
858.8673	1092.3584	65535	64630.85
859.0123	1094.3235	65535	64629.45
859.1573	1096.2879	65535	64631.25
859.3022	1098.2515	65535	64633.35
859.4472	1100.2145	65535	64630.85
859.5922	1102.1767	65535	64628.55
859.7371	1104.1382	65535	64630.95
859.8821	1106.099	65535	64629.8
860.027	1108.0591	65535	64629.9
860.172	1110.0185	65535	64631.9
860.3169	1111.9771	65535	64630.7
860.4619	1113.9351	65535	64630.25
860.6068	1115.8923	65535	64629
860.7517	1117.8488	65535	64630.8
860.8967	1119.8045	65535	64632
861.0416	1121.7596	65535	64630.1
861.1865	1123.7139	65535	64630.8
861.3314	1125.6675	65535	64632.25
861.4763	1127.6204	65535	64631.3
861.6212	1129.5726	65535	64630.45
861.7661	1131.524	65535	64630.25
861.911	1133.4748	65535	64632.4
862.0559	1135.4248	65535	64631.1
862.2008	1137.3741	65535	64631.85
862.3457	1139.3226	65535	64629.3
862.4905	1141.2705	65535	64631.55
862.6354	1143.2176	65535	64626.45
862.7803	1145.164	65535	64627.3
862.9251	1147.1097	65535	64630.6
863.07	1149.0546	65535	64630.2
863.2148	1150.9989	65535	64630.1
863.3597	1152.9424	65535	64630.9
863.5045	1154.8852	65535	64630.65
863.6493	1156.8272	65535	64631.35
863.7942	1158.7686	65535	64623
863.939	1160.7092	65535	64630.85
864.0838	1162.6491	65535	64628.35
864.2286	1164.5883	65535	64631.35
864.3734	1166.5267	65535	64632
864.5182	1168.4644	65535	64630.95
864.663	1170.4014	65535	64626
864.8078	1172.3377	65535	64632.2
864.9526	1174.2732	65535	64633.75
865.0974	1176.2081	65535	64633.25
865.2421	1178.1421	65535	64628.45
865.3869	1180.0755	65535	64632.2
865.5317	1182.0082	65535	64629.1
865.6764	1183.9401	65535	64632.1
865.8212	1185.8713	65535	64632.9
865.9659	1187.8017	65535	64633.55
866.1106	1189.7315	65535	64637
866.2554	1191.6605	65535	64605.55
866.4001	1193.5888	65535	64635.35
866.5448	1195.5163	65535	64632.4
866.6895	1197.4432	65535	64631.05
866.8342	1199.3693	65535	64633.25
866.9789	1201.2947	65535	64630.05
867.1236	1203.2193	65535	64632.5
867.2683	1205.1432	65535	64632.35
867.413	1207.0664	65535	64634.5
867.5576	1208.9889	65535	64629.55
867.7023	1210.9106	65535	64631.3
867.847	1212.8316	65535	64632.35
867.9916	1214.7519	65535	64624.2
868.1363	1216.6715	65535	64634
868.2809	1218.5903	65535	64631
868.4255	1220.5084	65535	64632.95
868.5701	1222.4257	65535	64631.85
868.7148	1224.3424	65535	64631.7
868.8594	1226.2583	65535	64627.55
869.004	1228.1735	65535	64630.4
869.1486	1230.0879	65535	64630.15
869.2932	1232.0016	65535	64633.25
869.4377	1233.9146	65535	64628.7
869.5823	1235.8269	65535	64634.3
869.7269	1237.7384	65535	64634.9
869.8715	1239.6492	65535	64632.6
870.016	1241.5592	65535	64630.45
870.1606	1243.4686	65535	64632.05
870.3051	1245.3772	65535	64631.3
870.4496	1247.285	65535	64632.6
870.5941	1249.1922	65535	64630.85
870.7387	1251.0986	65535	64633
870.8832	1253.0042	65535	64630.95
871.0277	1254.9092	65535	64632.8
871.1722	1256.8134	65535	64634.55
871.3167	1258.7169	65535	64630.3
871.4611	1260.6196	65535	64635.25
871.6056	1262.5216	65535	64632.75
871.7501	1264.4229	65535	64631.7
871.8945	1266.3234	65535	64633.85
872.039	1268.2232	65535	64630.55
872.1834	1270.1223	65535	64633.3
872.3278	1272.0207	65535	64634.1
872.4723	1273.9183	65535	64627.2
872.6167	1275.8151	65535	64634.8
872.7611	1277.7113	65535	64634.55
872.9055	1279.6067	65535	64633.35
873.0499	1281.5014	65535	64631.65
873.1943	1283.3953	65535	64633.05
873.3386	1285.2885	65535	64632.8
873.483	1287.181	65535	64630.85
873.6274	1289.0727	65535	64632.6
873.7717	1290.9637	65535	64632.1
873.9161	1292.854	65535	64632.75
874.0604	1294.7435	65535	64631.8
874.2047	1296.6323	65535	64631.65
874.349	1298.5204	65535	64628.95
874.4933	1300.4077	65535	64631.7
874.6376	1302.2943	65535	64631.55
874.7819	1304.1802	65535	64634.7
874.9262	1306.0653	65535	64630.65
875.0705	1307.9497	65535	64631.6
875.2147	1309.8333	65535	64635.05
875.359	1311.7162	65535	64632.2
875.5032	1313.5984	65535	64630.7
875.6475	1315.4798	65535	64633.55
875.7917	1317.3605	65535	64616.3
875.9359	1319.2405	65535	64631.6
876.0801	1321.1197	65535	64631.25
876.2243	1322.9982	65535	64628.7
876.3685	1324.876	65535	64632.85
876.5127	1326.753	65535	64633.25
876.6569	1328.6293	65535	64630.3
876.801	1330.5048	65535	64629.15
876.9452	1332.3796	65535	64633.95
877.0893	1334.2537	65535	64608.1
877.2335	1336.127	65535	64631.75
877.3776	1337.9996	65535	64633.75
877.5217	1339.8714	65535	64632.05
877.6658	1341.7426	65535	64590.45
877.8099	1343.6129	65535	64631.9
877.954	1345.4826	65535	64629.8
878.0981	1347.3515	65535	64628.95
878.2422	1349.2196	65535	64631.9
878.3862	1351.087	65535	64634.5
878.5303	1352.9537	65535	64633
878.6743	1354.8197	65535	64631.9
878.8184	1356.6849	65535	64633.25
878.9624	1358.5493	65535	64633.6
879.1064	1360.4131	65535	64634.1
879.2504	1362.276	65535	64633.35
879.3944	1364.1383	65535	64634.45
879.5384	1365.9998	65535	64626
879.6823	1367.8606	65535	64632.8
879.8263	1369.7206	65535	64631.95
879.9702	1371.5799	65535	64629.6
880.1142	1373.4384	65535	64633.4
880.2581	1375.2962	65535	64633.65
880.402	1377.1533	65535	64631.5
880.5459	1379.0096	65535	64633.35
880.6898	1380.8652	65535	64632.85
880.8337	1382.7201	65535	64633
880.9776	1384.5742	65535	64631.85
881.1215	1386.4275	65535	64630
881.2653	1388.2802	65535	64634.05
881.4092	1390.132	65535	64633.4
881.553	1391.9832	65535	64631.9
881.6968	1393.8336	65535	64632.1
881.8406	1395.6832	65535	64628.85
881.9844	1397.5322	65535	64632.6
882.1282	1399.3803	65535	64626.4
882.272	1401.2278	65535	64634.45
882.4158	1403.0745	65535	64633.05
882.5595	1404.9204	65535	64635.85
882.7033	1406.7656	65535	64631.2
882.847	1408.6101	65535	64632.1
882.9908	1410.4538	65535	64632.2
883.1345	1412.2968	65535	64633.3
883.2782	1414.139	65535	64634.2
883.4219	1415.9805	65535	64632.35
883.5656	1417.8213	65535	64627.7
883.7092	1419.6613	65535	64633.6
883.8529	1421.5006	65535	64630.9
883.9965	1423.3391	65535	64633.85
884.1402	1425.1769	65535	64632.6
884.2838	1427.0139	65535	64632.4
884.4274	1428.8502	65535	64632.65
884.571	1430.6858	65535	64633.7
884.7146	1432.5206	65535	64635.35
884.8582	1434.3547	65535	64631.9
885.0018	1436.188	65535	64633.6
885.1453	1438.0206	65535	64632.95
885.2889	1439.8524	65535	64632.3
885.4324	1441.6835	65535	64635.6
885.5759	1443.5139	65535	64630.95
885.7194	1445.3435	65535	64634.15
885.8629	1447.1724	65535	64634.1
886.0064	1449.0005	65535	64633.55
886.1499	1450.8279	65535	64634.3
886.2933	1452.6545	65535	64632.95
886.4368	1454.4804	65535	64634.45
886.5802	1456.3056	65535	64628.9
886.7237	1458.13	65535	64633.15
886.8671	1459.9536	65535	64631.75
887.0105	1461.7766	65535	64635.25
887.1539	1463.5987	65535	64631.35
887.2972	1465.4202	65535	64634.1
887.4406	1467.2409	65535	64633.65
887.584	1469.0608	65535	64635
887.7273	1470.88	65535	64632.65
887.8706	1472.6984	65535	64636.55
888.0139	1474.5161	65535	64631.1
888.1572	1476.3331	65535	64634.4
888.3005	1478.1493	65535	64634.45
888.4438	1479.9648	65535	64635.3
888.5871	1481.7795	65535	64633.4
888.7303	1483.5935	65535	64637.7
888.8736	1485.4067	65535	64634.15
889.0168	1487.2192	65535	64631.55
889.16	1489.031	65535	64629.7
889.3032	1490.842	65535	64633.6
889.4464	1492.6522	65535	64633.45
889.5896	1494.4618	65535	64631.65
889.7327	1496.2705	65535	64633.65
889.8759	1498.0785	65535	64633.1
890.019	1499.8858	65535	64633.35
890.1622	1501.6924	65535	64635.1
890.3053	1503.4981	65535	64634.05
890.4484	1505.3032	65535	64634.85
890.5914	1507.1075	65535	64634.05
890.7345	1508.911	65535	64635.2
890.8776	1510.7138	65535	64633.25
891.0206	1512.5159	65535	64633.35
891.1637	1514.3172	65535	64635.7
891.3067	1516.1178	65535	64634.2
891.4497	1517.9176	65535	64631.95
891.5927	1519.7166	65535	64634.45
891.7357	1521.515	65535	64627.6
891.8786	1523.3126	65535	64635.35
892.0216	1525.1094	65535	64633.6
892.1645	1526.9055	65535	64634.3
892.3074	1528.7008	65535	64636.7
892.4503	1530.4954	65535	64628.35
892.5932	1532.2893	65535	64635.7
892.7361	1534.0824	65535	64634.5
892.879	1535.8747	65535	64636
893.0218	1537.6663	65535	64634.75
893.1647	1539.4572	65535	64634.45
893.3075	1541.2473	65535	64634.65
893.4503	1543.0367	65535	64637.8
893.5931	1544.8253	65535	64629.85
893.7359	1546.6132	65535	64633.25
893.8787	1548.4003	65535	64627.05
894.0214	1550.1867	65535	64624.2
894.1642	1551.9723	65535	64632.35
894.3069	1553.7572	65535	64635.7
894.4496	1555.5414	65535	64636.25
894.5923	1557.3247	65535	64636.4
894.735	1559.1074	65535	64636.2
894.8777	1560.8893	65535	64636.6
895.0204	1562.6705	65535	64636.75
895.163	1564.4509	65535	64637.5
895.3056	1566.2305	65535	64637.45
895.4482	1568.0094	65535	64639.2
895.5908	1569.7876	65535	64639.35
895.7334	1571.565	65535	64636.05
895.876	1573.3417	65535	64637.1
896.0186	1575.1176	65535	64638.2
896.1611	1576.8928	65535	64637
896.3036	1578.6672	65535	64638.65
896.4461	1580.4409	65535	64639.1
896.5886	1582.2138	65535	64637.7
896.7311	1583.986	65535	64637.85
896.8736	1585.7575	65535	64638.8
897.0161	1587.5282	65535	64641.3
897.1585	1589.2981	65535	64639.2
897.3009	1591.0673	65535	64640.2
897.4433	1592.8358	65535	64638.65
897.5857	1594.6035	65535	64636.9
897.7281	1596.3704	65535	64636.45
897.8705	1598.1366	65535	64639.85
898.0128	1599.9021	65535	64639.6
898.1551	1601.6668	65535	64638.05
898.2975	1603.4308	65535	64636.55
898.4398	1605.194	65535	64634.5
898.5821	1606.9564	65535	64639
898.7243	1608.7182	65535	64637.15
898.8666	1610.4791	65535	64641.9
899.0088	1612.2394	65535	64640.8
899.1511	1613.9988	65535	64640.25
899.2933	1615.7576	65535	64640.2
899.4355	1617.5156	65535	64635.1
899.5776	1619.2728	65535	64638.3
899.7198	1621.0293	65535	64639.35
899.862	1622.785	65535	64637.9
900.0041	1624.54	65535	64638.8
900.1462	1626.2942	65535	64637.3
900.2883	1628.0477	65535	64638.15
900.4304	1629.8005	65535	64636.1
900.5725	1631.5525	65535	64641.9
900.7145	1633.3037	65535	64640.15
900.8566	1635.0542	65535	64640.9
900.9986	1636.804	65535	64640.3
901.1406	1638.553	65535	64549.45
901.2826	1640.3013	65535	64638.65
901.4245	1642.0488	65535	64637.05
901.5665	1643.7955	65535	64640.1
901.7085	1645.5416	65535	64639.9
901.8504	1647.2868	65535	64641
901.9923	1649.0313	65535	64640.35
902.1342	1650.7751	65535	64637.4
902.2761	1652.5181	65535	64640.95
902.4179	1654.2604	65535	64640.2
902.5598	1656.0019	65535	64642.25
902.7016	1657.7427	65535	64640.8
902.8434	1659.4828	65535	64641.95
902.9852	1661.222	65535	64639.2
903.127	1662.9606	65535	64641.95
903.2687	1664.6984	65535	64637.7
903.4105	1666.4354	65535	64637.7
903.5522	1668.1717	65535	64639.3
903.6939	1669.9072	65535	64639.4
903.8356	1671.642	65535	64637.4
903.9773	1673.3761	65535	64641.8
904.119	1675.1094	65535	64639.9
904.2606	1676.8419	65535	64642.85
904.4022	1678.5737	65535	64640.2
904.5439	1680.3048	65535	64639.15
904.6855	1682.0351	65535	64640.35
904.827	1683.7646	65535	64638.4
904.9686	1685.4934	65535	64642
905.1101	1687.2215	65535	64640.15
905.2517	1688.9488	65535	64643.6
905.3932	1690.6754	65522.35	64627.85
905.5347	1692.4012	65535	64643.8
905.6761	1694.1263	65535	64643.25
905.8176	1695.8506	65527.6	64631.8
905.9591	1697.5742	65533.3	64638.55
906.1005	1699.297	65527.5	64631.85
906.2419	1701.0191	65533.8	64639.6
906.3833	1702.7404	65512.45	64619.9
906.5246	1704.461	65477.5	64580.15
906.666	1706.1808	65522.1	64627.5
906.8073	1707.8999	65491.1	64595.8
906.9487	1709.6182	65495.35	64601.9
907.09	1711.3358	65488.45	64596.65
907.2313	1713.0527	65483.3	64593.7
907.3725	1714.7688	65489.9	64590.65
907.5138	1716.4841	65362.7	64466.8
907.655	1718.1987	65418.05	64519.6
907.7962	1719.9126	65382.3	64489.05
907.9374	1721.6257	65419	64522.65
908.0786	1723.338	65413.65	64522.25
908.2198	1725.0496	65194.85	64300.65
908.3609	1726.7605	65239.45	64346.2
908.502	1728.4706	65163.55	64271.2
908.6431	1730.18	65297.45	64403.55
908.7842	1731.8886	65139.1	64247.4
908.9253	1733.5964	65067	64169.45
909.0664	1735.3036	65240.55	64345.55
909.2074	1737.0099	65125.8	64234.2
909.3484	1738.7156	65012.55	64119.75
909.4894	1740.4204	64958.95	64064.1
909.6304	1742.1246	65018.6	64124.3
909.7714	1743.8279	65068.95	64176
909.9123	1745.5306	65012.05	64119.35
910.0532	1747.2325	64393.75	63502.8
910.1941	1748.9336	64481.55	63590.05
910.335	1750.634	64745.45	63852.2
910.4759	1752.3336	64889.55	63997.3
910.6168	1754.0325	64402.7	63511.5
910.7576	1755.7307	64872.3	63981.3
910.8984	1757.4281	64248.2	63354.7
911.0392	1759.1247	64745.6	63845.45
911.18	1760.8206	63952.5	63054.95
911.3208	1762.5158	64045.5	63147.05
911.4615	1764.2102	64265.1	63374.3
911.6022	1765.9039	64140.9	63250.1
911.7429	1767.5968	63897.85	63005.35
911.8836	1769.289	63801.3	62905.7
912.0243	1770.9804	63994.4	63101.3
912.1649	1772.6711	63790.9	62897.3
912.3056	1774.361	63635.85	62743.55
912.4462	1776.0502	63689	62794.5
912.5868	1777.7386	62898	62003.05
912.7274	1779.4263	63444.05	62551.75
912.8679	1781.1132	63403.7	62512.95
913.0084	1782.7994	63248.35	62355.75
913.149	1784.4849	63235.05	62345
913.2895	1786.1696	62233.4	61334.9
913.4299	1787.8535	62911.95	62020.4
913.5704	1789.5367	63053.15	62162.75
913.7108	1791.2192	62352.25	61460
913.8513	1792.9009	61898.9	60979.85
913.9917	1794.5818	62456.6	61563.15
914.132	1796.2621	61889.7	60997.7
914.2724	1797.9415	62019.05	61125.7
914.4128	1799.6202	61925.05	61032.35
914.5531	1801.2982	61906.45	61013.8
914.6934	1802.9755	61153.65	60257.3
914.8337	1804.6519	60920.85	60029
914.9739	1806.3277	62014.35	61122.35
915.1142	1808.0027	60433.8	59543.6
915.2544	1809.6769	61012.7	60122.1
915.3946	1811.3504	61115.2	60221.45
915.5348	1813.0231	59926.1	59035.85
915.675	1814.6951	60720.3	59828.75
915.8151	1816.3664	60216.3	59322.9
915.9553	1818.0369	60307.2	59415.55
916.0954	1819.7067	59933.2	59041.05
916.2355	1821.3757	60635	59741.45
916.3755	1823.044	59627.6	58735.95
916.5156	1824.7115	59171.25	58278.45
916.6556	1826.3783	59462	58571.15
916.7956	1828.0443	59530	58638.55
916.9356	1829.7096	59186.55	58295.15
917.0756	1831.3741	58479.8	57583
917.2155	1833.0379	58913.9	58021.2
917.3555	1834.701	58865.95	57973.55
917.4954	1836.3633	58298.2	57404.75
917.6353	1838.0248	58591.4	57697.4
917.7751	1839.6856	58344.45	57453.4
917.915	1841.3457	57787.8	56898.25
918.0548	1843.005	58466.2	57574.2
918.1946	1844.6636	57952.45	57062.95
918.3344	1846.3214	57250.4	56356.2
918.4742	1847.9785	57480.75	56589.15
918.6139	1849.6349	57399.45	56506.25
918.7537	1851.2904	57890.45	56987.9
918.8934	1852.9453	56986.6	56094.4
919.0331	1854.5994	57213.3	56319.9
919.1727	1856.2528	57213.95	56317.45
919.3124	1857.9054	56705	55812.65
919.452	1859.5572	56511.5	55619
919.5916	1861.2083	56687.85	55795.45
919.7312	1862.8587	57209.35	56318.3
919.8708	1864.5084	55840.75	54949.5
920.0103	1866.1572	56425.5	55534.05
920.1498	1867.8054	55716.35	54825.05
920.2893	1869.4528	56192.4	55299.15
920.4288	1871.0994	55510.2	54617.9
920.5683	1872.7453	55545.15	54652.7
920.7077	1874.3905	55690.6	54793.9
920.8471	1876.0349	55141.65	54250.9
920.9865	1877.6786	55556.1	54663.7
921.1259	1879.3215	55078.25	54186.8
921.2653	1880.9637	55458.65	54564.8
921.4046	1882.6051	54966.95	54075.7
921.5439	1884.2458	54647.95	53752.75
921.6832	1885.8858	54360.5	53470.2
921.8225	1887.525	54489.4	53596.6
921.9617	1889.1634	54262.8	53370.55
922.101	1890.8011	54061.1	53171
922.2402	1892.4381	53598.2	52704.35
922.3794	1894.0743	54155.85	53264.25
922.5185	1895.7098	53725.9	52833.4
922.6577	1897.3446	53334.1	52440.6
922.7968	1898.9786	53433.4	52535.9
922.9359	1900.6118	53202	52310.25
923.075	1902.2443	52932.45	52038.25
923.214	1903.8761	53101.55	52210.4
923.3531	1905.5071	52705.8	51813.3
923.4921	1907.1374	52137.5	51244.6
923.6311	1908.7669	52382.6	51490.5
923.77	1910.3957	52536.55	51645.45
923.909	1912.0237	51909.1	51018.75
924.0479	1913.651	51763.3	50871.25
924.1868	1915.2776	51585.05	50692.9
924.3257	1916.9034	51420.15	50529.15
924.4646	1918.5285	51222.55	50332.7
924.6034	1920.1528	51097.75	50207
924.7422	1921.7764	50999.65	50109.05
924.881	1923.3992	50813.75	49922.55
925.0198	1925.0213	50423.8	49532.45
925.1586	1926.6427	50153.55	49263.1
925.2973	1928.2633	50295.9	49295.9
925.436	1929.8832	49994.7	49101.3
925.5747	1931.5023	49784.35	48894.15
925.7134	1933.1207	49539.75	48650.4
925.852	1934.7383	49656.25	48764.95
925.9906	1936.3552	49293.7	48404.15
926.1292	1937.9714	49206.1	48314.2
926.2678	1939.5868	49108.4	48215.15
926.4064	1941.2015	48715.65	47824.95
926.5449	1942.8154	48496	47604.1
926.6834	1944.4286	48432.55	47540.4
926.8219	1946.041	48212.95	47302.3
926.9604	1947.6528	48006.55	47110.5
927.0988	1949.2637	47883.9	46993.8
927.2372	1950.8739	47643.4	46752.85
927.3756	1952.4834	47676.65	46784.7
927.514	1954.0921	47517.05	46626.9
927.6523	1955.7001	47286.9	46390.1
927.7907	1957.3074	47183.15	46293.8
927.929	1958.9139	46962.8	46072.15
928.0673	1960.5197	46852.65	45959.6
928.2055	1962.1247	46637.8	45747.7
928.3438	1963.729	46432	45543.45
928.482	1965.3325	46222.55	45308.75
928.6202	1966.9353	46102.75	45212.95
928.7584	1968.5374	45949.9	45057.2
928.8965	1970.1387	45741.9	44849.95
929.0346	1971.7393	45585.95	44693.05
929.1727	1973.3392	45460.6	44569.15
929.3108	1974.9383	45269.9	44380.15
929.4489	1976.5366	45065.35	44175.15
929.5869	1978.1342	44968	44076.2
929.7249	1979.7311	44885.1	43992.85
929.8629	1981.3273	44746.25	43854.1
930.0009	1982.9227	44599.55	43706.75
930.1388	1984.5173	44432.35	43540.9
930.2767	1986.1112	44201.7	43311.25
930.4146	1987.7044	44218.95	43331.5
930.5525	1989.2968	43941.7	43050.85
930.6904	1990.8885	43911.65	43017.25
930.8282	1992.4795	43787.15	42895.5
930.966	1994.0697	43603.1	42714.05
931.1038	1995.6592	43440.5	42550.9
931.2415	1997.2479	43298.4	42407.25
931.3793	1998.8359	43151.8	42263.8
931.517	2000.4232	42965.25	42075.25
931.6547	2002.0097	42815.75	41928.2
931.7923	2003.5955	42614.15	41724.85
931.93	2005.1805	42630.6	41738.75
932.0676	2006.7648	42467.9	41579.8
932.2052	2008.3484	42318.05	41426.1
932.3427	2009.9312	42336.05	41444.95
932.4803	2011.5133	42120.35	41233.2
932.6178	2013.0946	41960.4	41070.45
932.7553	2014.6752	41852.55	40965.65
932.8928	2016.2551	41783.25	40891.15
933.0302	2017.8342	41563.45	40675.6
933.1676	2019.4126	41398.1	40509.8
933.305	2020.9902	41259	40371
933.4424	2022.5672	41187.05	40297.15
933.5798	2024.1433	41094.85	40200.25
933.7171	2025.7188	40870.75	39981.1
933.8544	2027.2935	40801.15	39911.85
933.9917	2028.8674	40657.3	39768.35
934.129	2030.4406	40520.25	39631.3
934.2662	2032.0131	40306.85	39418.6
934.4034	2033.5849	40183.15	39288.9
934.5406	2035.1559	40134.65	39245.3
934.6778	2036.7261	40103.85	39215.75
934.8149	2038.2957	39936.1	39047.15
934.952	2039.8645	39860.1	38972.35
935.0891	2041.4325	39834.95	38942.65
935.2262	2042.9998	39618.45	38729.7
935.3632	2044.5664	39514.25	38622.3
935.5002	2046.1323	39367.35	38477.75
935.6372	2047.6974	39238.15	38348.05
935.7742	2049.2617	39147.05	38258.9
935.9111	2050.8254	39104.8	38212.05
936.048	2052.3883	38985.2	38095.5
936.1849	2053.9504	38854.3	37964.4
936.3218	2055.5118	38718.1	37826.9
936.4586	2057.0725	38535.85	37641.8
936.5955	2058.6325	38493.85	37603.95
936.7323	2060.1917	38363.4	37474.8
936.869	2061.7502	38257.55	37367.85
937.0058	2063.3079	38057.35	37168.3
937.1425	2064.8649	37964.3	37072.25
937.2792	2066.4212	37902.55	37011.35
937.4159	2067.9767	37757.75	36868.15
937.5525	2069.5315	37585.7	36697.35
937.6891	2071.0856	37388.35	36499.15
937.8257	2072.6389	37295.2	36404.35
937.9623	2074.1915	37101.6	36213.8
938.0989	2075.7433	36948.9	36057.75
938.2354	2077.2945	36852.55	35964.7
938.3719	2078.8448	36714.3	35824.5
938.5084	2080.3945	36579.35	35692.4
938.6448	2081.9434	36582.05	35693.65
938.7812	2083.4916	36433.9	35543.4
938.9176	2085.039	36244	35352.2
939.054	2086.5857	36223.8	35332.1
939.1903	2088.1317	36149.75	35259.55
939.3267	2089.677	35984.5	35093.65
939.463	2091.2215	35847.4	34957.1
939.5992	2092.7652	35803.4	34911.8
939.7355	2094.3083	35693.35	34803.7
939.8717	2095.8506	35620.4	34730.2
940.0079	2097.3921	35564.6	34677.15
940.1441	2098.933	35443.8	34554.05
940.2802	2100.4731	35369.2	34478.7
940.4163	2102.0124	35303.1	34404.15
940.5524	2103.5511	35126	34235.35
940.6885	2105.089	35145.3	34256.3
940.8245	2106.6261	35009.6	34121.35
940.9606	2108.1626	34938.2	34046.3
941.0965	2109.6983	34823.6	33904.9
941.2325	2111.2332	34692.75	33800.15
941.3684	2112.7675	34584.9	33694
941.5044	2114.301	34505	33613.85
941.6403	2115.8337	34455.4	33564.75
941.7761	2117.3657	34338.35	33449.15
941.912	2118.897	34271.45	33380.45
942.0478	2120.4276	34130.25	33233.15
942.1835	2121.9575	33989.05	33098.45
942.3193	2123.4866	34014.8	33112.15
942.455	2125.0149	33876.7	32986
942.5907	2126.5426	33635.95	32745.45
942.7264	2128.0695	33541.6	32648.2
942.8621	2129.5956	33541.05	32651.95
942.9977	2131.1211	33415.6	32522.7
943.1333	2132.6458	33288.8	32398.75
943.2689	2134.1698	33245.95	32357.8
943.4044	2135.693	33143.8	32250.2
943.54	2137.2155	33066.25	32173.4
943.6755	2138.7373	32987.15	32096.4
943.8109	2140.2584	32901.25	32011.25
943.9464	2141.7787	32741.6	31848.05
944.0818	2143.2983	32614.25	31727.9
944.2172	2144.8171	32454.7	31569.5
944.3526	2146.3353	32363.55	31472.35
944.4879	2147.8527	32200.75	31312.4
944.6232	2149.3693	32230.45	31339.3
944.7585	2150.8853	32047.5	31157.9
944.8938	2152.4005	31931.45	31041.15
945.029	2153.9149	31868.35	30978.45
945.1642	2155.4287	31719	30831.05
945.2994	2156.9417	31664.55	30773.05
945.4346	2158.454	31591.4	30699.8
945.5697	2159.9655	31514.45	30625.35
945.7048	2161.4764	31488.5	30599.8
945.8399	2162.9865	31344.05	30453.7
945.9749	2164.4958	31256.6	30362.9
946.1099	2166.0045	31117.9	30225.45
946.2449	2167.5124	31088.95	30200.15
946.3799	2169.0195	30988.65	30100.25
946.5148	2170.526	30967.25	30075.45
946.6498	2172.0317	30774.5	29885.5
946.7846	2173.5367	30747.25	29857.1
946.9195	2175.0409	30610.35	29722.05
947.0543	2176.5445	30631.85	29744.1
947.1891	2178.0473	30470.85	29582.3
947.3239	2179.5494	30334.95	29440.95
947.4587	2181.0507	30256.45	29364.45
947.5934	2182.5513	30171.3	29279.8
947.7281	2184.0512	30116.5	29226.75
947.8628	2185.5504	29928.15	29039.35
947.9974	2187.0488	29793	28903.7
948.132	2188.5465	29683.45	28793.35
948.2666	2190.0435	29623.2	28733
948.4012	2191.5397	29494.75	28604.75
948.5357	2193.0353	29390.95	28502.8
948.6702	2194.5301	29317	28425.7
948.8047	2196.0241	29112.85	28222.4
948.9392	2197.5175	29090.8	28200.95
949.0736	2199.0101	28964.55	28070.5
949.208	2200.502	28834.6	27946.8
949.3424	2201.9931	28706.8	27818
949.4767	2203.4835	28637.3	27748.35
949.611	2204.9733	28552.5	27657.3
949.7453	2206.4622	28456.55	27567.7
949.8796	2207.9505	28358	27467.6
950.0138	2209.438	28212.05	27324.15
950.148	2210.9248	28121.5	27231.95
950.2822	2212.4109	27996	27106.35
950.4164	2213.8962	27894.1	27001.3
950.5505	2215.3809	27874.7	26981.2
950.6846	2216.8648	27779.45	26889.4
950.8186	2218.3479	27692.85	26799.4
950.9527	2219.8304	27567.25	26675.35
951.0867	2221.3121	27471	26576.3
951.2207	2222.7931	27377.7	26487.9
951.3546	2224.2733	27306.7	26415.15
951.4886	2225.7529	27178.8	26286.15
951.6225	2227.2317	27121.3	26227.05
951.7563	2228.7098	27073.75	26185.5
951.8902	2230.1872	26860.3	25970.55
952.024	2231.6638	26818	25928.5
952.1578	2233.1397	26751.15	25854.75
952.2916	2234.6149	26660.95	25772.55
952.4253	2236.0894	26551.9	25662.3
952.559	2237.5632	26538.95	25646.35
952.6927	2239.0362	26429.7	25540.8
952.8263	2240.5085	26324.35	25436.2
952.9599	2241.9801	26197.85	25307
953.0935	2243.4509	26135.6	25246
953.2271	2244.921	26015.65	25126.8
953.3606	2246.3904	25943.7	25052.5
953.4941	2247.8591	25857	24968.45
953.6276	2249.3271	25785.95	24898.05
953.7611	2250.7943	25693.9	24805.2
953.8945	2252.2608	25573.1	24685.15
954.0279	2253.7266	25519.1	24628.85
954.1612	2255.1917	25419.35	24529.55
954.2946	2256.656	25308.75	24416.85
954.4279	2258.1197	25254.15	24364.35
954.5612	2259.5826	25184.25	24291.35
954.6944	2261.0447	25145.55	24253.6
954.8276	2262.5062	24961.55	24069.1
954.9608	2263.9669	24951.5	24059.3
955.094	2265.4269	24869.85	23981.7
955.2271	2266.8862	24803.15	23913.75
955.3602	2268.3448	24787.8	23897.95
955.4933	2269.8026	24710.15	23820.25
955.6264	2271.2598	24610.15	23719.55
955.7594	2272.7162	24555.4	23665.1
955.8924	2274.1719	24492.3	23601.8
956.0253	2275.6268	24409.85	23519.75
956.1583	2277.0811	24321.55	23429.7
956.2912	2278.5346	24234.45	23346.55
956.4241	2279.9874	24189.85	23299.85
956.5569	2281.4395	24186.35	23297.6
956.6897	2282.8908	24009.25	23117.15
956.8225	2284.3414	23980.55	23088.7
956.9553	2285.7914	23878.95	22989.85
957.088	2287.2406	23772	22880.65
957.2207	2288.689	23755.45	22867.3
957.3534	2290.1368	23642.45	22753.6
957.486	2291.5838	23580.3	22687
957.6186	2293.0302	23473.95	22581.1
957.7512	2294.4758	23399.6	22509.7
957.8838	2295.9206	23306.95	22413.8
958.0163	2297.3648	23247.5	22358.6
958.1488	2298.8082	23223.95	22333.35
958.2813	2300.251	23115.25	22225.65
958.4137	2301.693	23041.1	22148.45
958.5461	2303.1343	23026.8	22136.65
958.6785	2304.5748	22929.2	22039.95
958.8108	2306.0147	22804.95	21913.4
958.9432	2307.4538	22771.9	21879.25
959.0754	2308.8922	22681.75	21794.8
959.2077	2310.3299	22607.9	21718.55
959.3399	2311.7669	22530.15	21640.55
959.4721	2313.2031	22463.85	21573.65
959.6043	2314.6387	22400.15	21510
959.7365	2316.0735	22304.15	21413.45
959.8686	2317.5076	22268.7	21377.55
960.0006	2318.941	22201.5	21311.3
960.1327	2320.3737	22101.6	21210.85
960.2647	2321.8056	22027.1	21134.85
960.3967	2323.2369	21960.1	21070.8
960.5287	2324.6674	21919.55	21027.45
960.6606	2326.0972	21820.75	20930.45
960.7925	2327.5263	21759.3	20872.15
960.9244	2328.9547	21664.75	20773.35
961.0562	2330.3823	21629.1	20737.2
961.1881	2331.8092	21576.6	20681.35
961.3198	2333.2355	21446.3	20555.75
961.4516	2334.661	21438.6	20546.45
961.5833	2336.0858	21402.05	20511.9
961.715	2337.5098	21294.95	20406.05
961.8467	2338.9332	21280.95	20390.2
961.9783	2340.3558	21182.35	20288.95
962.1099	2341.7778	21122.95	20232.15
962.2415	2343.199	21033.9	20141.8
962.373	2344.6195	21000.6	20111.65
962.5045	2346.0393	20911.6	20023.6
962.636	2347.4583	20896.65	20004.8
962.7675	2348.8767	20788	19897.9
962.8989	2350.2943	20721.3	19830.85
963.0303	2351.7113	20689.2	19795.75
963.1617	2353.1275	20606.9	19715.05
963.293	2354.543	20552.5	19651.35
963.4243	2355.9578	20504.6	19614.3
963.5556	2357.3718	20349.7	19462.15
963.6868	2358.7852	20296.5	19404.25
963.818	2360.1978	20198.7	19307.15
963.9492	2361.6098	20167.25	19277.8
964.0803	2363.021	20072.8	19180.5
964.2114	2364.4315	20022.6	19133.5
964.3425	2365.8413	19960.55	19070.1
964.4736	2367.2504	19869.5	18981.35
964.6046	2368.6587	19818.3	18929.9
964.7356	2370.0664	19688.1	18798.8
964.8666	2371.4733	19622	18732.3
964.9975	2372.8795	19576.05	18687.2
965.1284	2374.285	19508.8	18619.8
965.2593	2375.6899	19389.9	18501
965.3901	2377.0939	19293.5	18405.8
965.5209	2378.4973	19230.1	18341.2
965.6517	2379.9	19190.7	18301.35
965.7825	2381.3019	19071.6	18181.85
965.9132	2382.7032	19034.8	18144.55
966.0439	2384.1037	19006.9	18120.2
966.1745	2385.5035	18930.7	18042.4
966.3051	2386.9027	18829.15	17940.75
966.4357	2388.3011	18805.85	17912.75
966.5663	2389.6987	18770.25	17880.15
966.6968	2391.0957	18678.7	17790.1
966.8273	2392.492	18626.8	17736.8
966.9578	2393.8876	18476.3	17587.5
967.0882	2395.2824	18416.8	17529.15
967.2186	2396.6765	18358.9	17471.25
967.349	2398.07	18218.25	17330.6
967.4793	2399.4627	18234.9	17343.05
967.6097	2400.8547	18188.6	17299.15
967.7399	2402.246	18114.65	17220.6
967.8702	2403.6366	17944.75	17053.7
968.0004	2405.0265	17901.05	17012.65
968.1306	2406.4156	17844.1	16951.75
968.2607	2407.8041	17762.2	16869.05
968.3909	2409.1918	17694.2	16805.9
968.521	2410.5789	17630.95	16740.3
968.651	2411.9652	17588.05	16695.85
968.781	2413.3508	17527.2	16637.8
968.911	2414.7358	17429.9	16539.95
969.041	2416.12	17362.85	16476.95
969.1709	2417.5035	17344.55	16455.25
969.3008	2418.8863	17263.3	16373.6
969.4307	2420.2684	17223.9	16333.2
969.5606	2421.6497	17117.5	16227.05
969.6904	2423.0304	17015.55	16127
969.8201	2424.4104	16992.7	16103.55
969.9499	2425.7896	16951.2	16059.5
970.0796	2427.1682	16878.85	15989.3
970.2093	2428.546	16828.05	15936.9
970.3389	2429.9232	16770.3	15880.85
970.4685	2431.2996	16725.15	15838
970.5981	2432.6753	16729	15840.05
970.7277	2434.0503	16664.65	15775.85
970.8572	2435.4246	16579.35	15688
970.9867	2436.7982	16500.2	15610.85
971.1161	2438.1711	16436.65	15546.15
971.2456	2439.5433	16404.9	15515.3
971.375	2440.9148	16320.05	15426.4
971.5043	2442.2856	16246.25	15358.2
971.6336	2443.6557	16200.5	15310.25
971.7629	2445.025	16148.3	15257.8
971.8922	2446.3937	16134.05	15245.2
972.0214	2447.7617	16049.9	15159.1
972.1506	2449.1289	16047.45	15159.45
972.2798	2450.4955	15993.05	15100.25
972.4089	2451.8613	15939.8	15051.45
972.538	2453.2265	15882.3	14993.25
972.6671	2454.5909	15828.75	14940.15
972.7961	2455.9546	15782.7	14891.75
972.9251	2457.3177	15679.45	14792.55
973.0541	2458.68	15689.15	14797.65
973.1831	2460.0416	15654.1	14763.3
973.312	2461.4025	15637.1	14746.6
973.4408	2462.7627	15582.3	14682.35
973.5697	2464.1222	15522.15	14635.7
973.6985	2465.4811	15464.6	14573.95
973.8273	2466.8392	15429.45	14540.6
973.956	2468.1966	15381.95	14491.7
974.0847	2469.5533	15323.55	14431.1
974.2134	2470.9093	15317.1	14426.65
974.3421	2472.2645	15231.35	14341.75
974.4707	2473.6191	15168.6	14277.25
974.5993	2474.973	15107.6	14216.95
974.7278	2476.3262	15079.75	14190.85
974.8563	2477.6787	15020.25	14131.2
974.9848	2479.0305	14947.05	14058.45
975.1132	2480.3816	14897	14005.95
975.2417	2481.7319	14839.8	13949.75
975.37	2483.0816	14783.7	13894.5
975.4984	2484.4306	14713.45	13824.25
975.6267	2485.7789	14655.6	13768.05
975.755	2487.1264	14606.35	13715.2
975.8833	2488.4733	14533.45	13642.75
976.0115	2489.8195	14460.65	13553.8
976.1397	2491.165	14438.8	13546.1
976.2678	2492.5097	14372.05	13480.85
976.3959	2493.8538	14298.4	13408.85
976.524	2495.1972	14222.35	13333.85
976.6521	2496.5398	14179.2	13290.1
976.7801	2497.8818	14140.75	13250.35
976.9081	2499.2231	14095.85	13205.95
977.036	2500.5637	14053.95	13161.4
977.164	2501.9035	13982.15	13091.95
977.2918	2503.2427	13937.1	13041.8
977.4197	2504.5812	13919.3	13031.1
977.5475	2505.919	13881.65	12988.45
977.6753	2507.256	13837.75	12949.35
977.8031	2508.5924	13774.85	12887.1
977.9308	2509.9281	13713.3	12817.95
978.0585	2511.2631	13665.2	12777.55
978.1861	2512.5974	13631.1	12743.9
978.3137	2513.9309	13557	12667.6
978.4413	2515.2638	13574.75	12660.85
978.5689	2516.596	13517.15	12628.65
978.6964	2517.9275	13438.05	12548.7
978.8239	2519.2583	13382.15	12492.9
978.9513	2520.5884	13327.85	12435.35
979.0788	2521.9178	13272.35	12384.35
979.2062	2523.2465	13221.55	12333.55
979.3335	2524.5745	13167.95	12279.95
979.4608	2525.9018	13132.95	12244.95
979.5881	2527.2284	13104.3	12215.5
979.7154	2528.5543	13070.15	12183.9
979.8426	2529.8796	13028.65	12138.3
979.9698	2531.2041	12996.25	12107.15
980.0969	2532.5279	12966.2	12078.75
980.224	2533.851	12921.1	12032.9
980.3511	2535.1735	12891.55	12002.9
980.4781	2536.4952	12860.2	11969.65
980.6052	2537.8163	12802.95	11914.85
980.7321	2539.1366	12758.05	11870.3
980.8591	2540.4562	12737.05	11847.65
980.986	2541.7752	12717.25	11828.9
981.1129	2543.0935	12685	11796.3
981.2397	2544.411	12667.8	11777.8
981.3665	2545.7279	12636.75	11747.2
981.4933	2547.0441	12584.25	11694.95
981.62	2548.3596	12601.05	11707.7
981.7467	2549.6744	12551.05	11661
981.8734	2550.9885	12516.35	11619.85
982.0001	2552.3019	12437.5	11548.6
982.1267	2553.6146	12409.95	11521.05
982.2532	2554.9266	12378.15	11489
982.3798	2556.2379	12308.65	11419.45
982.5063	2557.5485	12299.85	11410.55
982.6327	2558.8585	12270.9	11373.35
982.7592	2560.1677	12258	11363.75
982.8856	2561.4762	12233.4	11343.1
983.0119	2562.7841	12197.5	11305.7
983.1383	2564.0913	12186.55	11299.45
983.2646	2565.3977	12136.7	11248.25
983.3908	2566.7035	12110.25	11220.45
983.517	2568.0086	12078.35	11187.95
983.6432	2569.313	12084.9	11194.35
983.7694	2570.6167	12042.75	11147.45
983.8955	2571.9197	11988.65	11098.4
984.0216	2573.222	11982.6	11090
984.1476	2574.5236	11919.25	11031.25
984.2737	2575.8246	11857.45	10967.35
984.3996	2577.1248	11868.25	10976.9
984.5256	2578.4244	11829.35	10940
984.6515	2579.7232	11822.7	10932.9
984.7774	2581.0214	11806.75	10892.75
984.9032	2582.3189	11770.65	10881.4
985.029	2583.6157	11749.2	10854.6
985.1548	2584.9118	11714.65	10823
985.2806	2586.2072	11661.75	10772.45
985.4063	2587.5019	11630.45	10742.25
985.5319	2588.7959	11584.1	10694.85
985.6576	2590.0893	11605.65	10712.2
985.7832	2591.3819	11557.45	10668.2
985.9087	2592.6739	11501.05	10612.05
986.0343	2593.9652	11451.15	10560.9
986.1597	2595.2557	11437.75	10547.3
986.2852	2596.5456	11367.9	10476
986.4106	2597.8348	11334.7	10447.65
986.536	2599.1234	11282.4	10395
986.6614	2600.4112	11226.85	10336.65
986.7867	2601.6983	11199.4	10306.4
986.912	2602.9848	11174.35	10285
987.0372	2604.2705	11124.85	10227.9
987.1624	2605.5556	11106	10215.25
987.2876	2606.84	11053	10166
987.4128	2608.1237	11043.6	10155.7
987.5379	2609.4067	10975.6	10085.15
987.6629	2610.689	10927.2	10029.55
987.788	2611.9707	10884.1	9989.75
987.913	2613.2516	10878.75	9986.55
988.0379	2614.5319	10781.8	9894.65
988.1629	2615.8115	10762.6	9873.05
988.2878	2617.0903	10737.5	9847.75
988.4126	2618.3685	10672.35	9783.2
988.5375	2619.6461	10647.1	9757.65
988.6622	2620.9229	10631.4	9744.7
988.787	2622.199	10577.75	9687.1
988.9117	2623.4745	10569.95	9680.4
989.0364	2624.7493	10515.3	9627.8
989.161	2626.0234	10505.35	9616.4
989.2857	2627.2968	10459.9	9570.8
989.4102	2628.5695	10398.9	9508.25
989.5348	2629.8415	10337.25	9449.25
989.6593	2631.1128	10296.9	9407.15
989.7837	2632.3835	10247.35	9359
989.9082	2633.6535	10205.1	9315.95
990.0326	2634.9228	10174.05	9285.1
990.1569	2636.1914	10143.35	9255
990.2812	2637.4593	10128.2	9237.4
990.4055	2638.7265	10080.75	9190.45
990.5298	2639.9931	10050.15	9162.55
990.654	2641.259	10013.4	9122.65
990.7782	2642.5242	9988.4	9098.9
990.9023	2643.7887	9942.8	9054.25
991.0264	2645.0525	9917.85	9026.65
991.1505	2646.3156	9868.05	8976.65
991.2745	2647.5781	9878.8	8989.85
991.3985	2648.8398	9812.9	8926.4
991.5225	2650.1009	9748.4	8849.35
991.6464	2651.3613	9747.6	8856.95
991.7703	2652.6211	9706.3	8816.5
991.8942	2653.8801	9684.15	8795.8
992.018	2655.1385	9641.95	8748.45
992.1418	2656.3961	9631	8742.3
992.2655	2657.6531	9617.1	8727.55
992.3892	2658.9094	9606.85	8717.95
992.5129	2660.1651	9564	8674.6
992.6366	2661.42	9538.55	8648.6
992.7602	2662.6743	9513.3	8622.15
992.8837	2663.9279	9499.85	8611.45
993.0073	2665.1808	9464.6	8572.1
993.1307	2666.433	9435.3	8545.3
993.2542	2667.6846	9408.5	8520.65
993.3776	2668.9354	9370.25	8479.4
993.501	2670.1856	9355.35	8467
993.6244	2671.4351	9323	8435
993.7477	2672.6839	9290.45	8398.05
993.8709	2673.9321	9276.3	8388.15
993.9942	2675.1795	9242.25	8352.7
994.1174	2676.4263	9205.85	8315.5
994.2405	2677.6724	9170.55	8281.35
994.3637	2678.9179	9184.4	8295
994.4868	2680.1626	9129.4	8241.5
994.6098	2681.4067	9115.4	8228.2
994.7328	2682.6501	9065.8	8176.05
994.8558	2683.8928	9050.55	8160.95
994.9788	2685.1348	9011.1	8122.15
995.1017	2686.3761	8967.6	8078.35
995.2245	2687.6168	8945.55	8055.65
995.3474	2688.8568	8888.95	7999.1
995.4702	2690.0961	8877.6	7989.65
995.5929	2691.3348	8859	7970.3
995.7156	2692.5727	8821.55	7931.9
995.8383	2693.81	8796.3	7907.75
995.961	2695.0466	8769.2	7882.05
996.0836	2696.2826	8745.35	7854.85
996.2062	2697.5178	8713.3	7820.65
996.3287	2698.7524	8672.15	7781.8
996.4512	2699.9863	8670.3	7779.25
996.5737	2701.2195	8612.2	7724.85
996.6961	2702.452	8628.75	7739.45
996.8185	2703.6839	8588.7	7699.9
996.9408	2704.9151	8553.15	7666.8
997.0631	2706.1456	8515.8	7626.85
997.1854	2707.3755	8504.7	7615.15
997.3077	2708.6046	8462.1	7570.85
997.4299	2709.8331	8454.95	7564.9
997.552	2711.0609	8436.2	7545.4
997.6742	2712.2881	8398.9	7510.6
997.7963	2713.5145	8412.2	7522.25
997.9183	2714.7403	8370.1	7480.3
998.0403	2715.9654	8321.2	7433.25
998.1623	2717.1899	8328.8	7422.3
998.2842	2718.4136	8311.55	7424.35
998.4062	2719.6367	8287.65	7398.1
998.528	2720.8591	8275.8	7381.45
998.6498	2722.0809	8200.65	7311
998.7716	2723.3019	8197.85	7307.5
998.8934	2724.5223	8184.9	7294.05
999.0151	2725.7421	8151.25	7260.95
999.1368	2726.9611	8136.8	7244.55
999.2584	2728.1795	8107.65	7213.7
999.38	2729.3972	8075.5	7185.55
999.5016	2730.6142	8062.6	7159.8
999.6231	2731.8306	7990.8	7099.55
999.7446	2733.0462	7946.5	7056
999.8661	2734.2612	7910.45	7016.45
999.9875	2735.4756	7851.4	6961.95
1000.1089	2736.6892	7814.75	6926
1000.2302	2737.9022	7804.05	6915.7
1000.3515	2739.1145	7741.45	6852.65
1000.4728	2740.3262	7699.9	6802.45
1000.594	2741.5372	7653.4	6764.4
1000.7152	2742.7475	7609.8	6719.85
1000.8363	2743.9571	7608.35	6716.85
1000.9575	2745.1661	7569.4	6675.45
1001.0785	2746.3744	7538.05	6648.65
1001.1996	2747.582	7503.7	6616
1001.3206	2748.7889	7472.4	6580.2
1001.4415	2749.9952	7435	6547.3
1001.5625	2751.2008	7415.35	6524.95
1001.6833	2752.4057	7400.25	6510.6
1001.8042	2753.61	7360.25	6471.2
1001.925	2754.8136	7329.3	6438.45
1002.0458	2756.0165	7327.85	6441
1002.1665	2757.2188	7306.05	6417.2
1002.2872	2758.4204	7270.95	6381.05
1002.4078	2759.6213	7259.95	6368.55
1002.5285	2760.8215	7226.35	6332.2
1002.649	2762.0211	7213	6320.8
1002.7696	2763.22	7177.85	6287
1002.8901	2764.4182	7151.2	6262.95
1003.0106	2765.6158	7119.4	6232.2
1003.131	2766.8127	7108.4	6218.5
1003.2514	2768.009	7084.4	6196.4
1003.3717	2769.2045	7059.7	6169.8
1003.492	2770.3994	7047.45	6153.8
1003.6123	2771.5936	7014.8	6124.65
1003.7325	2772.7872	6994.5	6106.05
1003.8527	2773.9801	6949.65	6060.3
1003.9729	2775.1723	6929.5	6025.85
1004.093	2776.3639	6897.9	6009.8
1004.2131	2777.5548	6862.35	5971.5
1004.3331	2778.745	6850.7	5960.5
1004.4531	2779.9346	6817.45	5930.55
1004.5731	2781.1235	6811.45	5921.95
1004.693	2782.3117	6810.05	5920.2
1004.8129	2783.4992	6765.55	5876.35
1004.9328	2784.6861	6759.5	5869.85
1005.0526	2785.8723	6752.4	5862.2
1005.1723	2787.0579	6720.2	5829.5
1005.2921	2788.2428	6703.25	5813.35
1005.4118	2789.427	6684	5795.8
1005.5314	2790.6106	6667.4	5777.9
1005.651	2791.7935	6666.85	5777.2
1005.7706	2792.9757	6649	5759.45
1005.8902	2794.1573	6623.2	5730.35
1006.0097	2795.3382	6615.65	5727.75
1006.1291	2796.5184	6600.9	5714.05
1006.2485	2797.698	6591.05	5702
1006.3679	2798.8769	6594	5704.3
1006.4873	2800.0551	6568.6	5678.35
1006.6066	2801.2327	6558.75	5666.7
1006.7258	2802.4096	6559.7	5671.85
1006.8451	2803.5859	6549.75	5661.35
1006.9642	2804.7615	6539	5650.7
1007.0834	2805.9364	6548.85	5658.9
1007.2025	2807.1106	6552.9	5664.8
1007.3216	2808.2842	6539.25	5649.4
1007.4406	2809.4572	6564.6	5675.95
1007.5596	2810.6294	6574	5684.1
1007.6785	2811.801	6598.5	5709.45
1007.7975	2812.972	6608.25	5720.35
1007.9163	2814.1423	6638.1	5749.25
1008.0352	2815.3119	6666.5	5777.65
1008.154	2816.4808	6692.05	5805.45
1008.2727	2817.6491	6730.1	5840.25
1008.3914	2818.8167	6761.5	5873.15
1008.5101	2819.9837	6775.7	5883
1008.6288	2821.15	6788.7	5900.05
1008.7474	2822.3157	6824.6	5938
1008.8659	2823.4807	6870.8	5981.65
1008.9844	2824.645	6896.5	6006.5
1009.1029	2825.8086	6899.5	6009.1
1009.2214	2826.9716	6947.05	6058.05
1009.3398	2828.134	6984.55	6096.25
1009.4581	2829.2957	6997.6	6108.15
1009.5764	2830.4567	7010.35	6122.65
1009.6947	2831.617	7010.75	6123.85
1009.813	2832.7767	7007.65	6119.4
1009.9312	2833.9358	6993.2	6105.85
1010.0493	2835.0941	6978.9	6087.2
1010.1675	2836.2519	6941.65	6052.8
1010.2855	2837.4089	6937.35	6049.3
1010.4036	2838.5653	6891.5	6003.5
1010.5216	2839.7211	6870.6	5981.15
1010.6396	2840.8761	6886.55	5996.45
1010.7575	2842.0306	6889.95	6004.45
1010.8754	2843.1843	6916.2	6028.9
1010.9932	2844.3374	6961.9	6073.65
1011.111	2845.4899	6994.4	6106.1
1011.2288	2846.6417	7023.25	6134.8
1011.3465	2847.7928	7091.2	6204.35
1011.4642	2848.9433	7143.2	6254.25
1011.5818	2850.0931	7193.65	6305.2
1011.6995	2851.2422	7259	6369.6
1011.817	2852.3907	7313.45	6423.35
1011.9345	2853.5385	7364.5	6474.1
1012.052	2854.6857	7426.75	6513.5
1012.1695	2855.8323	7434.2	6545.6
1012.2869	2856.9781	7455.15	6568
1012.4042	2858.1233	7482.3	6593.4
1012.5216	2859.2679	7498.5	6608.8
1012.6389	2860.4118	7521.3	6633.95
1012.7561	2861.555	7539.75	6648.25
1012.8733	2862.6976	7573.7	6683.75
1012.9905	2863.8395	7578.6	6691.05
1013.1076	2864.9808	7591	6703.8
1013.2247	2866.1214	7612.35	6724.75
1013.3417	2867.2614	7603.5	6715.9
1013.4587	2868.4007	7573.9	6682.6
1013.5757	2869.5393	7560.65	6670.05
1013.6926	2870.6773	7561.6	6669.1
1013.8095	2871.8146	7555.35	6662.05
1013.9263	2872.9513	7532.25	6642.15
1014.0431	2874.0874	7528.4	6641
1014.1599	2875.2227	7497.75	6609
1014.2766	2876.3574	7458.65	6572.2
1014.3933	2877.4915	7408.45	6520.9
1014.51	2878.6249	7371.95	6482.6
1014.6266	2879.7577	7337.85	6447.8
1014.7431	2880.8898	7298.4	6400.45
1014.8596	2882.0212	7262.9	6373.7
1014.9761	2883.152	7232.85	6344.45
1015.0925	2884.2821	7187	6300.05
1015.2089	2885.4116	7137.2	6249.8
1015.3253	2886.5405	7151.25	6263
1015.4416	2887.6686	7146.4	6255.05
1015.5579	2888.7962	7139.05	6250.2
1015.6741	2889.923	7116.1	6228.9
1015.7903	2891.0493	7102.1	6215
1015.9065	2892.1748	7113.45	6223.95
1016.0226	2893.2997	7085.6	6197.75
1016.1387	2894.424	7089.45	6201.9
1016.2547	2895.5476	7106.75	6216.8
1016.3707	2896.6706	7102.55	6213.8
1016.4866	2897.7929	7111.5	6223.35
1016.6025	2898.9145	7103.55	6213.8
1016.7184	2900.0355	7109.45	6221.85
1016.8342	2901.1559	7117.45	6227.6
1016.95	2902.2756	7168.4	6278
1017.0658	2903.3946	7163.75	6274.35
1017.1815	2904.513	7174.55	6283.3
1017.2971	2905.6308	7183.55	6296.8
1017.4127	2906.7479	7182.25	6294.8
1017.5283	2907.8643	7199.55	6308.9
1017.6439	2908.9801	7184.6	6297
1017.7594	2910.0953	7183.2	6298
1017.8748	2911.2098	7170	6279.2
1017.9902	2912.3236	7145.2	6250.05
1018.1056	2913.4368	7116.65	6225.15
1018.2209	2914.5494	7086.85	6196.2
1018.3362	2915.6613	7029.2	6136.85
1018.4515	2916.7725	6993.85	6103.7
1018.5667	2917.8831	6957.2	6067.65
1018.6819	2918.9931	6925.35	6034.65
1018.797	2920.1024	6874.15	5984.05
1018.9121	2921.211	6849.7	5963.2
1019.0271	2922.319	6819.95	5931.25
1019.1421	2923.4264	6787.9	5900.2
1019.2571	2924.5331	6763	5876.15
1019.372	2925.6391	6711.6	5823.85
1019.4869	2926.7445	6716.1	5826.8
1019.6017	2927.8493	6702.65	5812.9
1019.7165	2928.9534	6674.1	5785
1019.8313	2930.0569	6658.15	5768.35
1019.946	2931.1597	6643.2	5753
1020.0606	2932.2619	6624.25	5737.75
1020.1753	2933.3634	6623.75	5735.35
1020.2899	2934.4643	6624.1	5731.05
1020.4044	2935.5645	6579.6	5685.35
1020.5189	2936.6641	6509.6	5615.15
1020.6334	2937.763	6447	5560.3
1020.7478	2938.8613	6383.5	5495.65
1020.8622	2939.959	6346	5452.7
1020.9765	2941.056	6249.75	5364.1
1021.0908	2942.1523	6167.5	5280.65
1021.2051	2943.248	6090.2	5201.25
1021.3193	2944.3431	5965.1	5077.35
1021.4334	2945.4375	5839.35	4950.55
1021.5476	2946.5313	5742.35	4855.95
1021.6617	2947.6244	5630	4742.1
1021.7757	2948.7169	5509.85	4620.5
1021.8897	2949.8087	5421.95	4533.15
1022.0037	2950.8999	5300.5	4413.95
1022.1176	2951.9904	5233.35	4344.85
1022.2315	2953.0803	5134.6	4246.8
1022.3453	2954.1696	5058	4169.95
1022.4591	2955.2582	4993	4106.55
1022.5728	2956.3462	4952.5	4065.25
1022.6865	2957.4335	4905.6	4017.3
1022.8002	2958.5202	4848.5	3957.4
1022.9138	2959.6062	4789.95	3901.35
1023.0274	2960.6916	4778.3	3890.65
1023.141	2961.7764	4749.05	3861.5
1023.2545	2962.8605	4715.7	3829.6
1023.3679	2963.9439	4680.75	3792.8
1023.4813	2965.0267	4654.8	3765.35
1023.5947	2966.1089	4648.3	3737.1
1023.708	2967.1905	4620.9	3733.95
1023.8213	2968.2714	4595.6	3708.8
1023.9346	2969.3516	4587	3698.85
1024.0478	2970.4312	4595.25	3698.65
1024.1609	2971.5102	4564.95	3676.1
1024.274	2972.5885	4552.1	3664.65
1024.3871	2973.6662	4540.85	3649
1024.5002	2974.7432	4527.8	3641.05
1024.6132	2975.8196	4499	3612.3
1024.7261	2976.8954	4487.25	3598.8
1024.839	2977.9705	4463.6	3575.75
1024.9519	2979.045	4445.75	3557.75
1025.0647	2980.1188	4408	3519.5
1025.1775	2981.192	4377.7	3491.5
1025.2902	2982.2645	4350.95	3463.15
1025.4029	2983.3364	4324.25	3436.55
1025.5156	2984.4077	4275.55	3387.55
1025.6282	2985.4783	4241.35	3347.85
1025.7407	2986.5483	4194.8	3307
1025.8532	2987.6177	4169	3283.35
1025.9657	2988.6864	4115.85	3230
1026.0782	2989.7545	4077.05	3187.25
1026.1906	2990.8219	4033.1	3145.65
1026.3029	2991.8887	3995.3	3104.95
1026.4152	2992.9548	3948.05	3059.35
1026.5275	2994.0204	3932.45	3044.45
1026.6397	2995.0852	3877	2990.05
1026.7519	2996.1495	3844.4	2956.6
1026.864	2997.2131	3818.9	2930.3
1026.9761	2998.276	3779.3	2888.8
1027.0882	2999.3383	3772.2	2884.35
1027.2002	3000.4	3735.05	2847.95
1027.3122	3001.4611	3699.05	2812.05
1027.4241	3002.5215	3686.65	2800.75
1027.536	3003.5812	3654.75	2767.45
1027.6478	3004.6404	3633.95	2744.5
1027.7596	3005.6989	3624.25	2735.6
1027.8714	3006.7567	3600.1	2713.75
1027.9831	3007.8139	3584	2675.5
1028.0947	3008.8705	3573.5	2686.15
1028.2064	3009.9264	3552.45	2662.5
1028.3179	3010.9818	3532.55	2645.05
1028.4295	3012.0364	3533.95	2646.2
1028.541	3013.0905	3514.8	2627.35
1028.6524	3014.1439	3495.3	2607.45
1028.7638	3015.1966	3498.75	2611.4
1028.8752	3016.2487	3469.85	2583.3
1028.9865	3017.3002	3470.5	2578.3
1029.0978	3018.3511	3461.8	2574.25
1029.209	3019.4013	3462.8	2573.05
1029.3202	3020.4509	3443.55	2556.6
1029.4314	3021.4998	3435.8	2548.9
1029.5425	3022.5481	3432.75	2545.35
1029.6535	3023.5958	3419.45	2532.05
1029.7645	3024.6428	3417.75	2527.05
1029.8755	3025.6892	3390.75	2504.7
1029.9864	3026.735	3391	2504.35
1030.0973	3027.7802	3387.55	2499.05
1030.2082	3028.8247	3372.2	2484.75
1030.319	3029.8685	3365.75	2477.1
1030.4297	3030.9118	3344.15	2455.75
1030.5404	3031.9544	3358.6	2473.1
1030.6511	3032.9963	3354.2	2466.4
1030.7617	3034.0376	3334.1	2446.3
1030.8723	3035.0783	3338.75	2448.4
1030.9829	3036.1184	3313.3	2425
1031.0934	3037.1578	3322.25	2436.05
1031.2038	3038.1966	3324.65	2435.7
1031.3142	3039.2348	3303.7	2418.25
1031.4246	3040.2723	3303.95	2408.85
1031.5349	3041.3092	3286.4	2398.7
1031.6452	3042.3455	3289.1	2401.25
1031.7554	3043.3811	3266.65	2377.65
1031.8656	3044.4161	3266.5	2376.75
1031.9758	3045.4505	3251.85	2365.2
1032.0859	3046.4842	3230.15	2343.1
1032.1959	3047.5173	3208.65	2323.1
1032.3059	3048.5498	3210.05	2322.1
1032.4159	3049.5816	3188.8	2299.05
1032.5258	3050.6128	3167.85	2278
1032.6357	3051.6434	3177.25	2287.75
1032.7455	3052.6734	3155.95	2267.15
1032.8553	3053.7027	3148.1	2258.5
1032.9651	3054.7314	3130.9	2244.9
1033.0748	3055.7594	3116.3	2229.6
1033.1845	3056.7868	3100	2210.35
1033.2941	3057.8136	3084.15	2196.6
1033.4037	3058.8398	3070.15	2183.65
1033.5132	3059.8653	3063.85	2176.75
1033.6227	3060.8902	3049.1	2160.75
1033.7321	3061.9145	3034.25	2145.7
1033.8415	3062.9381	3029.8	2141.6
1033.9509	3063.9612	3016.1	2111.7
1034.0602	3064.9835	2983.1	2093.2
1034.1694	3066.0053	2980.5	2090.4
1034.2787	3067.0264	2969.25	2082.65
1034.3878	3068.0469	2960.1	2072.45
1034.497	3069.0668	2950.9	2061.4
1034.6061	3070.086	2935.95	2049.15
1034.7151	3071.1046	2911	2023
1034.8241	3072.1226	2891.75	2002.25
1034.9331	3073.1399	2893.1	2005.8
1035.042	3074.1567	2869	1981
1035.1508	3075.1727	2863.85	1974.8
1035.2597	3076.1882	2853.45	1966.25
1035.3684	3077.203	2826.9	1937.45
1035.4772	3078.2173	2818.7	1929.45
1035.5859	3079.2308	2803.45	1911.2
1035.6945	3080.2438	2781	1889.15
1035.8031	3081.2561	2767.85	1882.3
1035.9117	3082.2678	2759.05	1871.65
1036.0202	3083.2789	2745.8	1859.1
1036.1286	3084.2893	2736.8	1850.4
1036.2371	3085.2991	2725.3	1837.15
1036.3454	3086.3083	2707	1814.75
1036.4538	3087.3169	2694.4	1804.65
1036.562	3088.3248	2684.65	1795.8
1036.6703	3089.3321	2674.4	1784.2
1036.7785	3090.3388	2661.85	1776.1
1036.8866	3091.3449	2656.65	1771.05
1036.9948	3092.3503	2641.8	1752.45
1037.1028	3093.3551	2631.25	1745.1
1037.2108	3094.3593	2626.35	1740.55
1037.3188	3095.3629	2618.5	1730.35
1037.4267	3096.3658	2590.9	1702.7
1037.5346	3097.3681	2598.25	1711.55
1037.6425	3098.3698	2591.45	1701.7
1037.7503	3099.3708	2589.6	1695.3
1037.858	3100.3713	2560.45	1672.1
1037.9657	3101.3711	2552.65	1664.5
1038.0734	3102.3702	2651.65	1626.05
1038.181	3103.3688	2554.7	1665.85
1038.2886	3104.3667	2519.3	1631.3
1038.3961	3105.364	2509	1621.7
1038.5036	3106.3607	2498.55	1609.2
1038.611	3107.3568	2495.15	1606.75
1038.7184	3108.3522	2480.5	1593.55
1038.8257	3109.347	2477.4	1590.05
1038.933	3110.3412	2469.6	1578.3
1039.0403	3111.3348	2448.3	1560.4
1039.1475	3112.3277	2432.9	1545
1039.2547	3113.32	2434.4	1548.1
1039.3618	3114.3117	2425.95	1538.4
1039.4689	3115.3028	2414.85	1528.35
1039.5759	3116.2932	2411.9	1522.95
1039.6829	3117.2831	2414.15	1520.85
1039.7898	3118.2723	2389.05	1500.2
1039.8967	3119.2608	2391.25	1504.25
1040.0035	3120.2488	2378.05	1490.55
1040.1103	3121.2361	2364.9	1477.05
1040.2171	3122.2229	2354.15	1467.45
1040.3238	3123.209	2344.6	1456.5
1040.4305	3124.1944	2344.2	1457.05
1040.5371	3125.1793	2342.25	1454.05
1040.6437	3126.1635	2326.7	1440.1
1040.7502	3127.1471	2317.35	1429.55
1040.8567	3128.1301	2310.2	1422.2
1040.9631	3129.1125	2299.25	1412.8
1041.0695	3130.0942	2294.1	1407.6
1041.1759	3131.0753	2300.6	1404.5
1041.2822	3132.0558	2291.8	1400.65
1041.3884	3133.0357	2289.15	1400.35
1041.4946	3134.015	2271.65	1383.65
1041.6008	3134.9936	2268.55	1379.7
1041.7069	3135.9716	2270.7	1360.4
1041.813	3136.949	2253.35	1366
1041.919	3137.9258	2259.45	1365.75
1042.025	3138.902	2245.05	1351.05
1042.1309	3139.8775	2238.8	1352.5
1042.2368	3140.8524	2234.35	1346.1
1042.3427	3141.8267	2226.45	1337.3
1042.4485	3142.8004	2214.85	1326.7
1042.5542	3143.7735	2222.4	1328.95
1042.6599	3144.7459	2205.35	1315.25
1042.7656	3145.7178	2211.3	1321.85
1042.8712	3146.689	2203.65	1318.95
1042.9768	3147.6596	2191.3	1302.95
1043.0823	3148.6295	2179.35	1290.5
1043.1878	3149.5989	2165.35	1277.2
1043.2932	3150.5676	2162.4	1276.25
1043.3986	3151.5357	2159.55	1275.35
1043.5039	3152.5032	2148.8	1262.75
1043.6092	3153.4701	2146.65	1259.6
1043.7145	3154.4364	2131.95	1242.5
1043.8197	3155.402	2119.85	1231.65
1043.9248	3156.367	2127.55	1238.65
1044.03	3157.3315	2147.95	1218.1
1044.135	3158.2952	2114.6	1227
1044.24	3159.2584	2094.25	1208.4
1044.345	3160.221	2100.35	1210.85
1044.4499	3161.1829	2085.6	1198.25
1044.5548	3162.1442	2084	1195.25
1044.6596	3163.105	2080.4	1193.1
1044.7644	3164.065	2063.65	1175.9
1044.8692	3165.0245	2058.5	1169.05
1044.9739	3165.9834	2055.2	1168.15
1045.0785	3166.9416	2053.9	1168.85
1045.1831	3167.8993	2047.4	1159.6
1045.2877	3168.8563	2031.6	1144.3
1045.3922	3169.8127	2028.5	1140.45
1045.4966	3170.7684	2012.85	1124.9
1045.6011	3171.7236	2011.15	1122.95
1045.7054	3172.6782	2005.55	1118.8
1045.8098	3173.6321	1996.5	1107.35
1045.914	3174.5854	1999.7	1107.95
1046.0183	3175.5381	1996.75	1109.6
1046.1224	3176.4902	1977.75	1091.8
1046.2266	3177.4417	1979.35	1091.05
1046.3307	3178.3926	1974.05	1087.05
1046.4347	3179.3428	1968.95	1082.7
1046.5387	3180.2924	1966	1080.15
1046.6427	3181.2415	1944.9	1057.6
1046.7466	3182.1899	1938.2	1047.2
1046.8504	3183.1377	1941.55	1054.8
1046.9542	3184.0848	1941.3	1051
1047.058	3185.0314	1931	1043.35
1047.1617	3185.9773	1926.1	1038.45
1047.2654	3186.9227	1910.35	1022.8
1047.369	3187.8674	1912.7	1025.2
1047.4726	3188.8115	1908.95	1017.8
1047.5761	3189.755	1900.7	1013.35
1047.6796	3190.6979	1901.05	1013.45
1047.783	3191.6402	1887.65	1000.2
1047.8864	3192.5818	1889.55	1002.75
1047.9898	3193.5229	1906.2	995.6
1048.0931	3194.4633	1879.95	992.15
1048.1963	3195.4031	1875.65	988.2
1048.2995	3196.3423	1870.9	983.8
1048.4027	3197.2809	1869.2	982.85
1048.5058	3198.2189	1858.3	970.7
1048.6089	3199.1563	1849.25	953.1
1048.7119	3200.0931	1845.25	961.35
1048.8148	3201.0292	1839.65	954.4
1048.9178	3201.9648	1835.45	949.75
1049.0206	3202.8997	1831.2	940.25
1049.1235	3203.834	1826.65	937.75
1049.2262	3204.7677	1813.15	926.55
1049.329	3205.7008	1811.55	922.95
1049.4317	3206.6333	1812.7	927.15
1049.5343	3207.5652	1801.75	912.35
1049.6369	3208.4964	1800.65	913.55
1049.7394	3209.4271	1801.65	916.45
1049.8419	3210.3571	1800.8	914.35
1049.9444	3211.2865	1786.2	898.95
1050.0468	3212.2154	1778.25	890.05
1050.1491	3213.1436	1781.85	892.7
1050.2514	3214.0712	1786.05	892.15
1050.3537	3214.9982	1775.15	888.4
1050.4559	3215.9246	1766.85	878.35
1050.5581	3216.8503	1764.3	878.95
1050.6602	3217.7755	1759.4	871.9
1050.7623	3218.7001	1757.2	872.75
1050.8643	3219.624	1746.9	859.7
1050.9663	3220.5473	1737.1	849.35
1051.0682	3221.4701	1744.95	855.55
1051.1701	3222.3922	1742.8	852.05
1051.2719	3223.3137	1729.2	840.85
1051.3737	3224.2346	1731.95	842.65
1051.4754	3225.1549	1720.65	834.35
1051.5771	3226.0746	1725.75	840.15
1051.6788	3226.9937	1716	829.7
1051.7804	3227.9121	1705.5	821.2
1051.8819	3228.83	1703.75	817.25
1051.9834	3229.7473	1697.55	810.4
1052.0849	3230.6639	1693.75	807.3
1052.1863	3231.5799	1689.85	801.6
1052.2876	3232.4954	1686.7	798.2
1052.3889	3233.4102	1686.75	798.8
1052.4902	3234.3244	1673.85	788.35
1052.5914	3235.238	1672.6	787.9
1052.6926	3236.151	1688.05	775.35
1052.7937	3237.0634	1664.65	777.8
1052.8948	3237.9752	1660.15	773.5
1052.9958	3238.8864	1657.35	768.85
1053.0968	3239.797	1643.35	756.45
1053.1977	3240.7069	1647.95	760
1053.2986	3241.6163	1643.25	752.9
1053.3994	3242.5251	1631.2	744.85
1053.5002	3243.4332	1628.3	743.25
1053.6009	3244.3408	1620.6	733.1
1053.7016	3245.2477	1622	736.25
1053.8022	3246.154	1614.95	726.95
1053.9028	3247.0598	1615.4	727.7
1054.0034	3247.9649	1606.7	719.2
1054.1039	3248.8694	1607.4	720.7
1054.2043	3249.7733	1604.9	716.5
1054.3047	3250.6766	1596.9	708.1
1054.4051	3251.5793	1596.4	708
1054.5054	3252.4814	1586.7	699.8
1054.6056	3253.3829	1575.55	688.3
1054.7058	3254.2838	1578.5	690.9
1054.806	3255.1841	1571.55	682.85
1054.9061	3256.0838	1574.2	685.65
1055.0061	3256.9829	1552.75	668.2
1055.1062	3257.8814	1554.05	665.25
1055.2061	3258.7792	1555.85	666.7
1055.306	3259.6765	1545.8	657.45
1055.4059	3260.5731	1537.35	650.75
1055.5057	3261.4692	1528.15	639.5
1055.6055	3262.3647	1521.95	634.65
1055.7052	3263.2595	1518.25	631.05
1055.8049	3264.1538	1504.8	617.35
1055.9045	3265.0474	1496.6	609.6
1056.0041	3265.9404	1483.8	597.7
1056.1036	3266.8329	1477	592.2
1056.2031	3267.7247	1471.6	574.65
1056.3025	3268.616	1452.7	566
1056.4019	3269.5066	1440	551.95
1056.5013	3270.3966	1429.9	540.3
1056.6005	3271.286	1405.3	518.6
