Software Version:	3.9.2.0
Unit SN:	10000200
Spectrometer SN:	6960
Date:	3/6/2024 10:11:39 AM
Data Line Index:	25
Spectral Points:	2048
Integration time (ms):	125
Averages:	20
Delay (ms):	30
Sequence Number:	1
Processing:	dark subtract
Laser Power (mW):	305
Laser Current (mA):	825
Laser Diode Temp (C):	25.1
Laser Case Temp (C):	24.9
System Temp (C):	24.8
Spectrometer Temp (C):	22.4
CCD Temp (C):	0
Secondary Temp (C):	20.007
Heatsink Temp (C):	18.554
CCDPCB Temp (C):	32.55
SecondaryPCB Temp (C):	25.914

Wavelength	RamanShift	Raw Counts	Dark Subtracted
787.061	30.1047	976	567.3
787.2016	32.3739	1000.75	593.85
787.3422	34.6426	1033.35	625.5
787.4828	36.9109	1069.25	658.95
787.6235	39.1787	1113.9	699.35
787.7642	41.4461	1165.35	747.05
787.9049	43.7131	1216.25	794.5
788.0456	45.9796	1258.25	835
788.1863	48.2456	1324.65	896.25
788.3271	50.5112	1373.5	942.2
788.4679	52.7764	1425.05	990.6
788.6087	55.0411	1496.65	1054.25
788.7496	57.3054	1552.55	1109
788.8904	59.5692	1617.7	1171.4
789.0313	61.8326	1688.75	1239.7
789.1722	64.0955	1787.65	1338.45
789.3132	66.3579	1893.65	1436.5
789.4541	68.6199	2013	1551.65
789.5951	70.8815	2229.5	1763.2
789.7361	73.1426	2682.4	2211.55
789.8771	75.4032	3863	3388.95
790.0181	77.6634	6885.6	6409.6
790.1592	79.9231	14658.1	14174.95
790.3003	82.1824	44142.85	43645.65
790.4414	84.4412	64495.8	63975.2
790.5825	86.6995	65535	64989.7
790.7237	88.9574	65535	64967.4
790.8648	91.2148	65535	64948
791.006	93.4717	65535	64936.95
791.1472	95.7282	65535	64930.8
791.2885	97.9842	65535	64929.5
791.4297	100.2398	65535	64923.7
791.571	102.4949	65535	64922
791.7123	104.7495	65535	64918.55
791.8536	107.0036	65535	64916.35
791.9949	109.2573	65535	64920.05
792.1363	111.5105	65535	64915.75
792.2777	113.7632	65535	64918.35
792.4191	116.0154	65535	64903.1
792.5605	118.2672	65535	64909.15
792.7019	120.5185	65535	64906.45
792.8434	122.7693	65535	64902.55
792.9849	125.0197	65535	64900
793.1264	127.2696	65535	64898.6
793.2679	129.519	65535	64892.4
793.4094	131.7679	65535	64893.2
793.551	134.0163	65535	64884.75
793.6926	136.2642	65535	64884.2
793.8342	138.5117	65535	64881.35
793.9758	140.7587	65535	64878.8
794.1175	143.0052	65535	64876.8
794.2591	145.2512	65535	64874.7
794.4008	147.4967	65535	64876.75
794.5425	149.7417	65535	64876.3
794.6842	151.9863	65535	64867.1
794.826	154.2304	65535	64863.3
794.9677	156.4739	65535	64857.5
795.1095	158.717	65535	64857.9
795.2513	160.9596	65535	64854.95
795.3931	163.2017	65535	64853.55
795.535	165.4433	65535	64853.1
795.6768	167.6844	65535	64851.15
795.8187	169.925	65535	64848.3
795.9606	172.1651	65535	64844.1
796.1025	174.4047	65535	64838.9
796.2445	176.6439	65535	64840.2
796.3864	178.8825	65535	64837
796.5284	181.1206	65535	64829.25
796.6704	183.3582	65535	64825.5
796.8124	185.5954	65535	64824.3
796.9544	187.832	65535	64823.65
797.0965	190.0681	65535	64815.25
797.2386	192.3037	65535	64814.4
797.3806	194.5388	65535	64815.1
797.5228	196.7734	65535	64806.25
797.6649	199.0075	65535	64807.65
797.807	201.2411	65535	64806.75
797.9492	203.4742	65535	64806.9
798.0914	205.7068	65535	64800.7
798.2336	207.9389	65535	64797.75
798.3758	210.1704	65535	64802.85
798.518	212.4015	65535	64818.6
798.6603	214.632	65535	64822.6
798.8025	216.862	65535	64821.85
798.9448	219.0915	65535	64820.4
799.0871	221.3205	65535	64820.95
799.2294	223.549	65535	64825.4
799.3718	225.777	65535	64822.05
799.5141	228.0044	65535	64813.7
799.6565	230.2314	65535	64811.95
799.7989	232.4578	65535	64809.2
799.9413	234.6837	65535	64803.45
800.0837	236.909	65535	64795.65
800.2262	239.1339	65535	64774.6
800.3687	241.3582	65535	64791.95
800.5111	243.582	65535	64758.95
800.6536	245.8053	65535	64775.15
800.7961	248.0281	65535	64781
800.9387	250.2503	65535	64773.2
801.0812	252.472	65535	64767.85
801.2238	254.6932	65535	64771.65
801.3664	256.9139	65535	64774.1
801.509	259.134	65535	64764.3
801.6516	261.3536	65535	64767.35
801.7942	263.5727	65535	64769.1
801.9369	265.7912	65535	64768.9
802.0795	268.0092	65535	64766.25
802.2222	270.2267	65535	64767.4
802.3649	272.4436	65535	64763.7
802.5076	274.6601	65535	64751
802.6504	276.8759	65535	64756.05
802.7931	279.0913	65535	64755.4
802.9359	281.3061	65535	64760.4
803.0787	283.5204	65535	64750.8
803.2215	285.7341	65535	64751.9
803.3643	287.9473	65535	64740.5
803.5071	290.16	65535	64747.3
803.6499	292.3721	65535	64754.8
803.7928	294.5837	65535	64751.15
803.9357	296.7947	65535	64752.05
804.0786	299.0052	65535	64750.8
804.2215	301.2152	65535	64746.15
804.3644	303.4246	65535	64753.25
804.5074	305.6334	65535	64755.9
804.6503	307.8418	65535	64744.45
804.7933	310.0495	65535	64744.5
804.9363	312.2568	65535	64748.15
805.0793	314.4635	65535	64741.8
805.2223	316.6696	65535	64739.45
805.3653	318.8752	65535	64727.75
805.5084	321.0802	65535	64737.5
805.6514	323.2847	65535	64733.65
805.7945	325.4887	65535	64733.7
805.9376	327.692	65535	64738.35
806.0807	329.8949	65535	64736.05
806.2238	332.0972	65535	64730.05
806.367	334.2989	65535	64730.05
806.5101	336.5001	65535	64727.25
806.6533	338.7007	65535	64729.5
806.7965	340.9008	65535	64725
806.9397	343.1003	65535	64722.6
807.0829	345.2992	65535	64720.8
807.2261	347.4976	65535	64721.9
807.3693	349.6955	65535	64718.2
807.5126	351.8927	65535	64717.25
807.6559	354.0895	65535	64704.45
807.7991	356.2856	65535	64716.05
807.9424	358.4812	65535	64717
808.0857	360.6763	65535	64716.2
808.2291	362.8707	65535	64710.65
808.3724	365.0646	65535	64708.45
808.5158	367.258	65535	64707.95
808.6591	369.4508	65535	64702.5
808.8025	371.643	65535	64702.65
808.9459	373.8346	65535	64702.7
809.0893	376.0257	65535	64701.9
809.2327	378.2162	65535	64699.15
809.3762	380.4062	65535	64702.35
809.5196	382.5956	65535	64703
809.6631	384.7844	65535	64707.75
809.8066	386.9726	65535	64705
809.9501	389.1603	65535	64708.2
810.0936	391.3474	65535	64665.65
810.2371	393.5339	65535	64708.5
810.3806	395.7199	65535	64707.75
810.5241	397.9052	65535	64711
810.6677	400.09	65535	64706.6
810.8113	402.2743	65535	64705.55
810.9548	404.4579	65535	64707.95
811.0984	406.641	65535	64700.45
811.2421	408.8235	65535	64703.85
811.3857	411.0054	65535	64702.05
811.5293	413.1868	65535	64697.2
811.673	415.3675	65535	64693.35
811.8166	417.5477	65535	64694.55
811.9603	419.7273	65535	64692.6
812.104	421.9064	65535	64682.45
812.2477	424.0848	65535	64691.15
812.3914	426.2627	65535	64692.4
812.5351	428.4399	65535	64691.6
812.6788	430.6166	65535	64683.95
812.8226	432.7928	65535	64682.15
812.9663	434.9683	65535	64683.7
813.1101	437.1432	65535	64686.3
813.2539	439.3176	65535	64687.25
813.3977	441.4914	65535	64691.3
813.5415	443.6645	65535	64687.45
813.6853	445.8371	65535	64687
813.8291	448.0091	65535	64683.95
813.973	450.1806	65535	64684.3
814.1168	452.3514	65535	64687.65
814.2607	454.5216	65535	64677.5
814.4046	456.6913	65535	64684.95
814.5485	458.8603	65535	64681.4
814.6924	461.0288	65535	64688.25
814.8363	463.1967	65535	64685.75
814.9802	465.3639	65535	64683.45
815.1241	467.5306	65535	64683
815.2681	469.6967	65535	64684.8
815.412	471.8622	65535	64689.3
815.556	474.0271	65535	64685.3
815.7	476.1914	65535	64680.25
815.844	478.3551	65535	64679.75
815.988	480.5182	65535	64682.6
816.132	482.6807	65535	64687.55
816.276	484.8426	65535	64688.75
816.4201	487.0039	65535	64682.75
816.5641	489.1647	65535	64675.45
816.7082	491.3248	65535	64680.55
816.8522	493.4843	65535	64682.75
816.9963	495.6432	65535	64684.35
817.1404	497.8015	65535	64670.85
817.2845	499.9592	65535	64672.2
817.4286	502.1163	65535	64672.85
817.5727	504.2728	65535	64674.35
817.7168	506.4287	65535	64678.9
817.861	508.5839	65535	64677.5
818.0051	510.7386	65535	64678.1
818.1493	512.8927	65535	64667.6
818.2935	515.0461	65535	64671.55
818.4377	517.199	65535	64669.45
818.5818	519.3512	65535	64667.9
818.726	521.5029	65535	64666.8
818.8703	523.6539	65535	64669.55
819.0145	525.8043	65535	64665.9
819.1587	527.9541	65535	64667.2
819.303	530.1033	65535	64663.55
819.4472	532.2519	65535	64669.15
819.5915	534.3999	65535	64663.1
819.7357	536.5472	65535	64666.25
819.88	538.694	65535	64666.75
820.0243	540.8401	65535	64664.4
820.1686	542.9856	65535	64657.45
820.3129	545.1305	65535	64654.35
820.4572	547.2748	65535	64651.3
820.6016	549.4185	65535	64653.2
820.7459	551.5615	65535	64652.9
820.8902	553.704	65535	64656.65
821.0346	555.8458	65535	64660.25
821.1789	557.987	65535	64661.05
821.3233	560.1276	65535	64658.45
821.4677	562.2675	65535	64658.75
821.6121	564.4069	65535	64661
821.7565	566.5456	65535	64665.45
821.9009	568.6837	65535	64661.45
822.0453	570.8212	65535	64659.5
822.1897	572.958	65535	64659.9
822.3342	575.0942	65535	64661.9
822.4786	577.2299	65535	64664.95
822.6231	579.3648	65535	64666.15
822.7675	581.4992	65535	64674.4
822.912	583.6329	65535	64673.6
823.0565	585.766	65535	64667.45
823.201	587.8985	65535	64668.3
823.3454	590.0304	65535	64634.25
823.4899	592.1616	65535	64653.75
823.6345	594.2922	65535	64655.5
823.779	596.4222	65535	64653.3
823.9235	598.5515	65535	64649.6
824.068	600.6802	65535	64648.15
824.2126	602.8083	65535	64651.3
824.3571	604.9358	65535	64652.05
824.5017	607.0626	65535	64648.65
824.6462	609.1888	65535	64648
824.7908	611.3144	65535	64645.75
824.9354	613.4393	65535	64649.3
825.08	615.5636	65535	64648.2
825.2246	617.6873	65535	64647.15
825.3692	619.8103	65535	64643.6
825.5138	621.9327	65535	64644.4
825.6584	624.0544	65535	64651.6
825.803	626.1756	65535	64652.45
825.9477	628.2961	65535	64646.5
826.0923	630.4159	65535	64648.95
826.237	632.5351	65535	64642.05
826.3816	634.6537	65535	64644.85
826.5263	636.7716	65535	64639.65
826.6709	638.8889	65535	64638.7
826.8156	641.0056	65535	64640.3
826.9603	643.1216	65535	64639.35
827.105	645.237	65535	64642.1
827.2497	647.3518	65535	64647.7
827.3944	649.4659	65535	64644.9
827.5391	651.5793	65535	64651.1
827.6838	653.6922	65535	64648.95
827.8285	655.8043	65535	64646.45
827.9733	657.9159	65535	64646.3
828.118	660.0268	65535	64645.35
828.2627	662.137	65535	64638.3
828.4075	664.2466	65535	64637.7
828.5522	666.3556	65535	64640.15
828.697	668.4639	65535	64640.2
828.8418	670.5716	65535	64644.6
828.9865	672.6786	65535	64641.4
829.1313	674.785	65535	64638.25
829.2761	676.8907	65535	64640.45
829.4209	678.9958	65535	64643.65
829.5657	681.1002	65535	64638.3
829.7105	683.204	65535	64630.05
829.8553	685.3072	65535	64633.5
830.0001	687.4097	65535	64637.15
830.1449	689.5115	65535	64636.4
830.2898	691.6127	65535	64641.65
830.4346	693.7132	65535	64640.15
830.5794	695.8131	65535	64619.2
830.7243	697.9123	65535	64631.85
830.8691	700.0109	65535	64633.45
831.014	702.1089	65535	64635.95
831.1588	704.2061	65535	64636.6
831.3037	706.3028	65535	64633.85
831.4486	708.3987	65535	64635.2
831.5935	710.4941	65535	64636.95
831.7383	712.5887	65535	64635.7
831.8832	714.6827	65535	64633.1
832.0281	716.7761	65535	64637.4
832.173	718.8688	65535	64633.65
832.3179	720.9608	65535	64631.85
832.4628	723.0522	65535	64624.5
832.6077	725.1429	65535	64627.8
832.7527	727.233	65535	64633.75
832.8976	729.3224	65535	64633.35
833.0425	731.4112	65535	64630.4
833.1874	733.4993	65535	64628.35
833.3324	735.5867	65535	64632.45
833.4773	737.6735	65535	64630.05
833.6222	739.7596	65535	64630.9
833.7672	741.845	65535	64630
833.9122	743.9298	65535	64628.1
834.0571	746.014	65535	64630.3
834.2021	748.0974	65535	64624.65
834.347	750.1802	65535	64624.55
834.492	752.2624	65535	64627.9
834.637	754.3439	65535	64625.4
834.782	756.4247	65535	64618.25
834.9269	758.5048	65535	64624.7
835.0719	760.5843	65535	64626.7
835.2169	762.6631	65535	64626.5
835.3619	764.7413	65535	64628.6
835.5069	766.8188	65535	64628.15
835.6519	768.8956	65535	64627.25
835.7969	770.9718	65535	64624.95
835.9419	773.0473	65535	64626.8
836.0869	775.1221	65535	64629.3
836.232	777.1962	65535	64627.7
836.377	779.2697	65535	64625.15
836.522	781.3426	65535	64604.2
836.667	783.4147	65535	64627.15
836.8121	785.4862	65535	64625.25
836.9571	787.557	65535	64626.4
837.1021	789.6271	65535	64622.7
837.2472	791.6966	65535	64626.65
837.3922	793.7654	65535	64624.9
837.5373	795.8335	65535	64625.1
837.6823	797.901	65535	64626.45
837.8274	799.9678	65535	64624.55
837.9724	802.0339	65535	64624.85
838.1175	804.0993	65535	64613.05
838.2626	806.1641	65535	64620.3
838.4076	808.2282	65535	64622.15
838.5527	810.2916	65535	64620
838.6978	812.3544	65535	64625.75
838.8428	814.4164	65535	64626.7
838.9879	816.4778	65535	64619
839.133	818.5385	65535	64620.5
839.2781	820.5986	65535	64620.75
839.4232	822.658	65535	64622.8
839.5682	824.7166	65535	64625.2
839.7133	826.7747	65535	64622.85
839.8584	828.832	65535	64618.7
840.0035	830.8886	65535	64619.85
840.1486	832.9446	65535	64621.25
840.2937	834.9999	65535	64620.9
840.4388	837.0545	65535	64618.6
840.5839	839.1085	65535	64618.9
840.729	841.1618	65535	64617.5
840.8741	843.2143	65535	64621.45
841.0192	845.2662	65535	64620.35
841.1643	847.3175	65535	64623
841.3095	849.368	65535	64621.2
841.4546	851.4179	65535	64617.7
841.5997	853.467	65535	64619.7
841.7448	855.5155	65535	64621.45
841.8899	857.5633	65535	64622.35
842.0351	859.6105	65535	64616.95
842.1802	861.6569	65535	64619.2
842.3253	863.7027	65535	64618.85
842.4704	865.7478	65535	64619.7
842.6156	867.7922	65535	64619.8
842.7607	869.8359	65535	64617.55
842.9058	871.8789	65535	64615.6
843.0509	873.9212	65535	64588.85
843.1961	875.9629	65535	64621.3
843.3412	878.0039	65535	64615.55
843.4863	880.0441	65535	64620.05
843.6315	882.0837	65535	64620.4
843.7766	884.1226	65535	64616.15
843.9218	886.1609	65535	64618.8
844.0669	888.1984	65535	64617.95
844.212	890.2352	65535	64618.1
844.3572	892.2714	65535	64613.15
844.5023	894.3069	65535	64617.15
844.6475	896.3416	65535	64617.75
844.7926	898.3757	65535	64616.2
844.9377	900.4091	65535	64614.85
845.0829	902.4418	65535	64612.4
845.228	904.4739	65535	64610.65
845.3732	906.5052	65535	64615.5
845.5183	908.5358	65535	64617.4
845.6635	910.5658	65535	64615.45
845.8086	912.595	65535	64613.75
845.9538	914.6236	65535	64619.35
846.0989	916.6515	65535	64615
846.2441	918.6786	65535	64613.35
846.3892	920.7051	65535	64613.25
846.5344	922.7309	65535	64613
846.6795	924.756	65535	64613
846.8246	926.7804	65535	64613.35
846.9698	928.8041	65535	64611.65
847.1149	930.8272	65535	64615.85
847.2601	932.8495	65535	64614.05
847.4052	934.8711	65535	64612.1
847.5504	936.892	65535	64612.9
847.6955	938.9123	65535	64612.4
847.8407	940.9318	65535	64616.15
847.9858	942.9506	65535	64614.35
848.131	944.9688	65535	64618.1
848.2761	946.9862	65535	64616.2
848.4213	949.003	65535	64615.15
848.5664	951.019	65535	64614.9
848.7115	953.0344	65535	64615.2
848.8567	955.0491	65535	64611.85
849.0018	957.063	65535	64615.65
849.147	959.0763	65535	64616.05
849.2921	961.0888	65535	64615.1
849.4373	963.1007	65535	64615.65
849.5824	965.1119	65535	64617.7
849.7275	967.1223	65535	64622.95
849.8727	969.1321	65535	64623.95
850.0178	971.1412	65535	64620.7
850.1629	973.1495	65535	64613.95
850.3081	975.1572	65535	64576.3
850.4532	977.1641	65535	64616.1
850.5983	979.1704	65535	64615.55
850.7435	981.1759	65535	64610.05
850.8886	983.1808	65535	64611.6
851.0337	985.1849	65535	64603.35
851.1788	987.1884	65535	64611.85
851.324	989.1911	65535	64613.5
851.4691	991.1932	65535	64612.95
851.6142	993.1945	65535	64616.95
851.7593	995.1951	65535	64615.25
851.9045	997.1951	65535	64609.8
852.0496	999.1943	65535	64614.5
852.1947	1001.1928	65535	64614
852.3398	1003.1906	65535	64612.7
852.4849	1005.1877	65535	64609.35
852.63	1007.1841	65535	64613.25
852.7751	1009.1798	65535	64614.4
852.9202	1011.1748	65535	64616.1
853.0653	1013.1691	65535	64616.55
853.2104	1015.1627	65535	64617.25
853.3555	1017.1556	65535	64615.4
853.5006	1019.1477	65535	64615.85
853.6457	1021.1392	65535	64621.3
853.7908	1023.1299	65535	64620
853.9359	1025.12	65535	64622.9
854.081	1027.1093	65535	64631.2
854.2261	1029.0979	65535	64632.35
854.3712	1031.0859	65535	64627.8
854.5163	1033.0731	65535	64621.05
854.6613	1035.0596	65535	64619.6
854.8064	1037.0454	65535	64619.05
854.9515	1039.0304	65535	64616.35
855.0965	1041.0148	65535	64616.9
855.2416	1042.9985	65535	64614.25
855.3867	1044.9814	65535	64617.45
855.5317	1046.9636	65535	64614.4
855.6768	1048.9452	65535	64616.2
855.8219	1050.926	65535	64615.55
855.9669	1052.9061	65535	64617
856.112	1054.8855	65535	64613.95
856.257	1056.8642	65535	64615.85
856.4021	1058.8421	65535	64609.75
856.5471	1060.8194	65535	64614.65
856.6921	1062.7959	65535	64616.65
856.8372	1064.7717	65535	64615.25
856.9822	1066.7469	65535	64612.9
857.1272	1068.7213	65535	64612.65
857.2723	1070.695	65535	64615.65
857.4173	1072.6679	65535	64613.05
857.5623	1074.6402	65535	64614.1
857.7073	1076.6117	65535	64613
857.8523	1078.5826	65535	64613.2
857.9973	1080.5527	65535	64612.5
858.1423	1082.5221	65535	64614.65
858.2873	1084.4908	65535	64616.45
858.4323	1086.4587	65535	64613
858.5773	1088.426	65535	64615.6
858.7223	1090.3925	65535	64610.4
858.8673	1092.3584	65535	64612.5
859.0123	1094.3235	65535	64616.25
859.1573	1096.2879	65535	64614.2
859.3022	1098.2515	65535	64614.6
859.4472	1100.2145	65535	64613.2
859.5922	1102.1767	65535	64614.5
859.7371	1104.1382	65535	64616.25
859.8821	1106.099	65535	64615.45
860.027	1108.0591	65535	64618.05
860.172	1110.0185	65535	64615
860.3169	1111.9771	65535	64615.1
860.4619	1113.9351	65535	64615.75
860.6068	1115.8923	65535	64614.5
860.7517	1117.8488	65535	64612.85
860.8967	1119.8045	65535	64616.7
861.0416	1121.7596	65535	64617.75
861.1865	1123.7139	65535	64618.3
861.3314	1125.6675	65535	64616.75
861.4763	1127.6204	65535	64617.35
861.6212	1129.5726	65535	64613.35
861.7661	1131.524	65535	64615.55
861.911	1133.4748	65535	64615.65
862.0559	1135.4248	65535	64613.75
862.2008	1137.3741	65535	64613.9
862.3457	1139.3226	65535	64614.4
862.4905	1141.2705	65535	64613.15
862.6354	1143.2176	65535	64611.75
862.7803	1145.164	65535	64614.65
862.9251	1147.1097	65535	64613.75
863.07	1149.0546	65535	64613.15
863.2148	1150.9989	65535	64613.35
863.3597	1152.9424	65535	64613.7
863.5045	1154.8852	65535	64615.85
863.6493	1156.8272	65535	64618.4
863.7942	1158.7686	65535	64606.2
863.939	1160.7092	65535	64612.8
864.0838	1162.6491	65535	64612.15
864.2286	1164.5883	65535	64616.2
864.3734	1166.5267	65535	64616
864.5182	1168.4644	65535	64614.8
864.663	1170.4014	65535	64610.25
864.8078	1172.3377	65535	64618.85
864.9526	1174.2732	65535	64616.4
865.0974	1176.2081	65535	64614.9
865.2421	1178.1421	65535	64612.15
865.3869	1180.0755	65535	64617.65
865.5317	1182.0082	65535	64617.1
865.6764	1183.9401	65535	64617.2
865.8212	1185.8713	65535	64618.35
865.9659	1187.8017	65535	64620.95
866.1106	1189.7315	65535	64629.8
866.2554	1191.6605	65535	64600.1
866.4001	1193.5888	65535	64626.35
866.5448	1195.5163	65535	64622.1
866.6895	1197.4432	65535	64616.75
866.8342	1199.3693	65535	64621.75
866.9789	1201.2947	65535	64615.2
867.1236	1203.2193	65535	64616.25
867.2683	1205.1432	65535	64617.45
867.413	1207.0664	65535	64618.65
867.5576	1208.9889	65535	64613.9
867.7023	1210.9106	65535	64617.9
867.847	1212.8316	65535	64618.8
867.9916	1214.7519	65535	64608.1
868.1363	1216.6715	65535	64618.1
868.2809	1218.5903	65535	64619.45
868.4255	1220.5084	65535	64619.3
868.5701	1222.4257	65535	64617.45
868.7148	1224.3424	65535	64618.65
868.8594	1226.2583	65535	64616.2
869.004	1228.1735	65535	64616.75
869.1486	1230.0879	65535	64616.95
869.2932	1232.0016	65535	64619.6
869.4377	1233.9146	65535	64616
869.5823	1235.8269	65535	64616.3
869.7269	1237.7384	65535	64618.45
869.8715	1239.6492	65535	64618.55
870.016	1241.5592	65535	64619.5
870.1606	1243.4686	65535	64619.3
870.3051	1245.3772	65535	64621.65
870.4496	1247.285	65535	64617.85
870.5941	1249.1922	65535	64619.35
870.7387	1251.0986	65535	64618.95
870.8832	1253.0042	65535	64618.15
871.0277	1254.9092	65535	64620.8
871.1722	1256.8134	65535	64620.25
871.3167	1258.7169	65535	64618.1
871.4611	1260.6196	65535	64620.4
871.6056	1262.5216	65535	64616.95
871.7501	1264.4229	65535	64621.6
871.8945	1266.3234	65535	64619.85
872.039	1268.2232	65535	64618.25
872.1834	1270.1223	65535	64616.7
872.3278	1272.0207	65535	64617.55
872.4723	1273.9183	65535	64612.2
872.6167	1275.8151	65535	64616.45
872.7611	1277.7113	65535	64616.4
872.9055	1279.6067	65535	64618.45
873.0499	1281.5014	65535	64617.9
873.1943	1283.3953	65535	64615.65
873.3386	1285.2885	65535	64618.15
873.483	1287.181	65535	64615.9
873.6274	1289.0727	65535	64622.8
873.7717	1290.9637	65535	64618.4
873.9161	1292.854	65535	64620.9
874.0604	1294.7435	65535	64622.3
874.2047	1296.6323	65535	64617.6
874.349	1298.5204	65535	64614.75
874.4933	1300.4077	65535	64618.5
874.6376	1302.2943	65535	64623
874.7819	1304.1802	65535	64619.35
874.9262	1306.0653	65535	64618.05
875.0705	1307.9497	65535	64620.05
875.2147	1309.8333	65535	64621.35
875.359	1311.7162	65535	64617.7
875.5032	1313.5984	65535	64619.1
875.6475	1315.4798	65532.25	64599.25
875.7917	1317.3605	65534.95	64602.65
875.9359	1319.2405	65535	64617.65
876.0801	1321.1197	65520.95	64602.95
876.2243	1322.9982	65531.05	64609.85
876.3685	1324.876	65522.8	64608.1
876.5127	1326.753	65516	64600.15
876.6569	1328.6293	65535	64620.35
876.801	1330.5048	65528.8	64609.85
876.9452	1332.3796	65519.4	64604.55
877.0893	1334.2537	65499.6	64556.3
877.2335	1336.127	65523.7	64610.05
877.3776	1337.9996	65497.55	64583.1
877.5217	1339.8714	65525.55	64608.9
877.6658	1341.7426	65456.3	64496
877.8099	1343.6129	65514.3	64596.5
877.954	1345.4826	65518.95	64602.85
878.0981	1347.3515	65439.3	64520.6
878.2422	1349.2196	65510.1	64594.25
878.3862	1351.087	65496.85	64580.05
878.5303	1352.9537	65486.9	64572.3
878.6743	1354.8197	65503.7	64588.85
878.8184	1356.6849	65482.05	64566.45
878.9624	1358.5493	65479.9	64564.3
879.1064	1360.4131	65445.25	64531.3
879.2504	1362.276	65515.85	64603.6
879.3944	1364.1383	65440.05	64525.95
879.5384	1365.9998	65407.3	64486.5
879.6823	1367.8606	65452.2	64536.3
879.8263	1369.7206	65418.2	64502.85
879.9702	1371.5799	65406.05	64489.95
880.1142	1373.4384	65391.25	64475.85
880.2581	1375.2962	65405.6	64487.05
880.402	1377.1533	65352.45	64438.25
880.5459	1379.0096	65337.65	64426.05
880.6898	1380.8652	65336.75	64424.2
880.8337	1382.7201	65323.45	64412.4
880.9776	1384.5742	65342.4	64426.85
881.1215	1386.4275	65268.05	64354.35
881.2653	1388.2802	65306.55	64392.9
881.4092	1390.132	65329.95	64416.05
881.553	1391.9832	65270.45	64355.65
881.6968	1393.8336	65238.35	64324.05
881.8406	1395.6832	65249.3	64332.7
881.9844	1397.5322	65275.25	64360.7
882.1282	1399.3803	65217.3	64298.35
882.272	1401.2278	65222.45	64308.05
882.4158	1403.0745	65208.75	64296.5
882.5595	1404.9204	65208	64297.45
882.7033	1406.7656	65214.95	64299.6
882.847	1408.6101	65172	64257.95
882.9908	1410.4538	65170.75	64257.9
883.1345	1412.2968	65167	64251.7
883.2782	1414.139	65133.6	64220.9
883.4219	1415.9805	65160.7	64247.25
883.5656	1417.8213	65133.3	64216
883.7092	1419.6613	65171.75	64258.9
883.8529	1421.5006	65145.7	64231.65
883.9965	1423.3391	65129.95	64215.05
884.1402	1425.1769	65120.15	64203.45
884.2838	1427.0139	65148.45	64234.55
884.4274	1428.8502	65126.65	64211.6
884.571	1430.6858	65131.35	64217.95
884.7146	1432.5206	65158.7	64246.7
884.8582	1434.3547	65119.7	64205.35
885.0018	1436.188	65098.65	64186.55
885.1453	1438.0206	65127	64213.15
885.2889	1439.8524	65108.05	64195.9
885.4324	1441.6835	65090.25	64177.5
885.5759	1443.5139	65120.95	64206.2
885.7194	1445.3435	65089.65	64174.95
885.8629	1447.1724	65102.1	64191.15
886.0064	1449.0005	65068.6	64157.95
886.1499	1450.8279	65094.55	64177.65
886.2933	1452.6545	65076.15	64164.65
886.4368	1454.4804	65074	64162.65
886.5802	1456.3056	65052.65	64132.8
886.7237	1458.13	65057.7	64146.85
886.8671	1459.9536	65074.05	64161.3
887.0105	1461.7766	65039.35	64125.95
887.1539	1463.5987	65008.75	64094.2
887.2972	1465.4202	65034.85	64123.7
887.4406	1467.2409	65015.35	64102.65
887.584	1469.0608	64987.8	64077
887.7273	1470.88	65003.95	64093
887.8706	1472.6984	65008.8	64096.2
888.0139	1474.5161	64972.65	64059.75
888.1572	1476.3331	64983.95	64073.75
888.3005	1478.1493	64950.75	64039.9
888.4438	1479.9648	64957.05	64043.85
888.5871	1481.7795	64954.85	64042.85
888.7303	1483.5935	64954	64042.6
888.8736	1485.4067	64936.65	64023.35
889.0168	1487.2192	64940.05	64027.4
889.16	1489.031	64935.25	64021.5
889.3032	1490.842	64925.35	64012.55
889.4464	1492.6522	64939.35	64030.05
889.5896	1494.4618	64926.5	64012.85
889.7327	1496.2705	64908.2	63997.05
889.8759	1498.0785	64891.35	63980.2
890.019	1499.8858	64895.35	63984.5
890.1622	1501.6924	64922.95	64009.45
890.3053	1503.4981	64899.9	63989.35
890.4484	1505.3032	64894.8	63985
890.5914	1507.1075	64883.7	63972.55
890.7345	1508.911	64886.4	63978.1
890.8776	1510.7138	64876.15	63965.45
891.0206	1512.5159	64898.9	63989.75
891.1637	1514.3172	64806.4	63896.45
891.3067	1516.1178	64824.25	63914.3
891.4497	1517.9176	64868.6	63957.05
891.5927	1519.7166	64822.6	63914.15
891.7357	1521.515	64805.45	63891.85
891.8786	1523.3126	64728.05	63819.15
892.0216	1525.1094	64810.4	63898.95
892.1645	1526.9055	64769.3	63861.3
892.3074	1528.7008	64756.45	63848.9
892.4503	1530.4954	64660.75	63750.85
892.5932	1532.2893	64756.25	63847.6
892.7361	1534.0824	64631.7	63720.45
892.879	1535.8747	64570	63661.3
893.0218	1537.6663	64749.85	63842.95
893.1647	1539.4572	64456.55	63549.3
893.3075	1541.2473	64575.4	63666.95
893.4503	1543.0367	64543.45	63635.9
893.5931	1544.8253	64512.1	63600.8
893.7359	1546.6132	64537.7	63626.2
893.8787	1548.4003	64458.15	63539.55
894.0214	1550.1867	64426.35	63508.8
894.1642	1551.9723	64385.05	63474.4
894.3069	1553.7572	64434.35	63526.9
894.4496	1555.5414	64470.65	63566.15
894.5923	1557.3247	64264.95	63362.25
894.735	1559.1074	64417.85	63514.9
894.8777	1560.8893	64336.25	63431.6
895.0204	1562.6705	64384.9	63482.35
895.163	1564.4509	64267.9	63367.45
895.3056	1566.2305	64318.85	63419.15
895.4482	1568.0094	64391.75	63491.3
895.5908	1569.7876	64307.65	63408.15
895.7334	1571.565	64224.25	63320.85
895.876	1573.3417	64283.7	63380.6
896.0186	1575.1176	64259.05	63356.7
896.1611	1576.8928	64233.2	63332.85
896.3036	1578.6672	64156.05	63258.95
896.4461	1580.4409	64200.85	63306.3
896.5886	1582.2138	64106.3	63205.45
896.7311	1583.986	64133.2	63234.95
896.8736	1585.7575	64051.5	63149.9
897.0161	1587.5282	64066.7	63168.35
897.1585	1589.2981	64086.65	63189.45
897.3009	1591.0673	64025.55	63130.15
897.4433	1592.8358	63977.9	63078.75
897.5857	1594.6035	64040	63137.85
897.7281	1596.3704	64050.05	63147.15
897.8705	1598.1366	63927.95	63026.8
898.0128	1599.9021	63837.1	62939.9
898.1551	1601.6668	63961.95	63062.25
898.2975	1603.4308	63893.85	62993.05
898.4398	1605.194	63931.55	63028.2
898.5821	1606.9564	63756.9	62858.35
898.7243	1608.7182	63873.4	62977.65
898.8666	1610.4791	63776.1	62885.25
899.0088	1612.2394	63839.5	62949.85
899.1511	1613.9988	63735	62842.5
899.2933	1615.7576	63854.95	62960.8
899.4355	1617.5156	63835.8	62931.5
899.5776	1619.2728	63929.15	63027.85
899.7198	1621.0293	63722.5	62821.85
899.862	1622.785	63707.05	62808.05
900.0041	1624.54	63737.5	62840.25
900.1462	1626.2942	63623.25	62726.85
900.2883	1628.0477	63434.4	62535.2
900.4304	1629.8005	63256.45	62357.3
900.5725	1631.5525	63463.9	62568.8
900.7145	1633.3037	63157.8	62262.15
900.8566	1635.0542	63145.25	62250.55
900.9986	1636.804	63292.35	62396.35
901.1406	1638.553	62969.75	61992.25
901.2826	1640.3013	63073.65	62174.75
901.4245	1642.0488	62907.25	62007.85
901.5665	1643.7955	63025.6	62130.9
901.7085	1645.5416	62911	62018
901.8504	1647.2868	62787.65	61893.25
901.9923	1649.0313	62997.2	62100.8
902.1342	1650.7751	62844.65	61945.25
902.2761	1652.5181	62730.8	61836.9
902.4179	1654.2604	62718.6	61824.35
902.5598	1656.0019	62796.85	61901.65
902.7016	1657.7427	62685.15	61790.1
902.8434	1659.4828	62827.35	61930.5
902.9852	1661.222	62661.75	61764.75
903.127	1662.9606	62833	61938.15
903.2687	1664.6984	62564.95	61668.75
903.4105	1666.4354	62656.85	61759.45
903.5522	1668.1717	62368.05	61469.45
903.6939	1669.9072	62067.05	61169.45
903.8356	1671.642	62007.65	61105.3
903.9773	1673.3761	61877.85	60980.6
904.119	1675.1094	61815.45	60917.65
904.2606	1676.8419	61585.1	60690.5
904.4022	1678.5737	61596.9	60701.7
904.5439	1680.3048	61446.95	60550.2
904.6855	1682.0351	61329.55	60434.2
904.827	1683.7646	61203.25	60303.2
904.9686	1685.4934	61266.75	60370
905.1101	1687.2215	60881.95	59986.4
905.2517	1688.9488	61137.95	60245.4
905.3932	1690.6754	60498.9	59605.15
905.5347	1692.4012	60778.8	59881.2
905.6761	1694.1263	60811.1	59915.6
905.8176	1695.8506	60554.4	59659.4
905.9591	1697.5742	60530.1	59633
906.1005	1699.297	60449.55	59555.95
906.2419	1701.0191	60439.85	59548
906.3833	1702.7404	60106.25	59213.1
906.5246	1704.461	59941.55	59047.5
906.666	1706.1808	60160.35	59263
906.8073	1707.8999	59969.85	59077.95
906.9487	1709.6182	59858.25	58967.8
907.09	1711.3358	59787.6	58899.95
907.2313	1713.0527	59713.4	58822.95
907.3725	1714.7688	59753.5	58854.2
907.5138	1716.4841	59246.3	58351.05
907.655	1718.1987	59418.9	58520.45
907.7962	1719.9126	59263.65	58373.8
907.9374	1721.6257	59311.55	58418.95
908.0786	1723.338	59297.4	58407.35
908.2198	1725.0496	58761.85	57871.5
908.3609	1726.7605	58833.5	57940.85
908.502	1728.4706	58637.75	57744.95
908.6431	1730.18	58758.3	57866.9
908.7842	1731.8886	58527.65	57639.15
908.9253	1733.5964	58351.35	57455.4
909.0664	1735.3036	58585.6	57691.25
909.2074	1737.0099	58374.85	57482.85
909.3484	1738.7156	58089.85	57200.3
909.4894	1740.4204	58022.95	57131.65
909.6304	1742.1246	58114.65	57220.15
909.7714	1743.8279	58143.3	57251.3
909.9123	1745.5306	58080	57189.2
910.0532	1747.2325	57493.85	56603.85
910.1941	1748.9336	57480.45	56591.65
910.335	1750.634	57526.65	56631.75
910.4759	1752.3336	57726.6	56833.9
910.6168	1754.0325	57310.9	56422.15
910.7576	1755.7307	57574.8	56686.8
910.8984	1757.4281	57152.95	56264.6
911.0392	1759.1247	57480.05	56579.3
911.18	1760.8206	56954.1	56056.35
911.3208	1762.5158	57010.8	56113.45
911.4615	1764.2102	56990.75	56097.85
911.6022	1765.9039	56800.2	55909
911.7429	1767.5968	56711.85	55821.8
911.8836	1769.289	56611.6	55721.9
912.0243	1770.9804	56642.35	55751.55
912.1649	1772.6711	56590	55697.05
912.3056	1774.361	56426	55532.45
912.4462	1776.0502	56432.45	55538.95
912.5868	1777.7386	56006	55110.25
912.7274	1779.4263	56165.4	55273.4
912.8679	1781.1132	56152.4	55263.05
913.0084	1782.7994	56062.6	55171.65
913.149	1784.4849	56044.65	55155.6
913.2895	1786.1696	55522.6	54628.1
913.4299	1787.8535	55720.55	54832.2
913.5704	1789.5367	55791.75	54903.6
913.7108	1791.2192	55438.65	54551
913.8513	1792.9009	55161.55	54242.6
913.9917	1794.5818	55367.7	54474.3
914.132	1796.2621	55112.95	54222.2
914.2724	1797.9415	55105.65	54213
914.4128	1799.6202	54989.15	54098.8
914.5531	1801.2982	55012.55	54120.7
914.6934	1802.9755	54696.45	53805
914.8337	1804.6519	54590.5	53698.8
914.9739	1806.3277	54915.4	54027.65
915.1142	1808.0027	54152.2	53265
915.2544	1809.6769	54369.1	53481.55
915.3946	1811.3504	54446.95	53558.45
915.5348	1813.0231	53814.1	52923.6
915.675	1814.6951	54202.15	53313.75
915.8151	1816.3664	53984.75	53092.3
915.9553	1818.0369	53917.9	53028.8
916.0954	1819.7067	53691.75	52803.2
916.2355	1821.3757	53998.5	53107.15
916.3755	1823.044	53493.85	52601
916.5156	1824.7115	53184.45	52293.6
916.6556	1826.3783	53322.9	52433.9
916.7956	1828.0443	53257.6	52367.3
916.9356	1829.7096	53032.65	52142.7
917.0756	1831.3741	52570.75	51680
917.2155	1833.0379	52790.95	51901.5
917.3555	1834.701	52740.2	51851.5
917.4954	1836.3633	52379.9	51491.9
917.6353	1838.0248	52562.65	51673.9
917.7751	1839.6856	52398.5	51508.6
917.915	1841.3457	52083.1	51194.05
918.0548	1843.005	52406.45	51516.4
918.1946	1844.6636	52127.15	51237.1
918.3344	1846.3214	51588.05	50697.15
918.4742	1847.9785	51760.35	50871.8
918.6139	1849.6349	51655.3	50763.8
918.7537	1851.2904	51958.5	51059.35
918.8934	1852.9453	51261	50369.95
919.0331	1854.5994	51491.6	50598.25
919.1727	1856.2528	51480.3	50587.1
919.3124	1857.9054	51042.45	50151.1
919.452	1859.5572	50966.8	50077.2
919.5916	1861.2083	51082.25	50191.4
919.7312	1862.8587	51427.5	50536.25
919.8708	1864.5084	50490.8	49600.05
920.0103	1866.1572	50820.7	49928.85
920.1498	1867.8054	50205.4	49314.85
920.2893	1869.4528	50443.2	49550.85
920.4288	1871.0994	50073.8	49183.75
920.5683	1872.7453	50055	49164.45
920.7077	1874.3905	50145.5	49248.7
920.8471	1876.0349	49726.45	48834.25
920.9865	1877.6786	49982	49089.3
921.1259	1879.3215	49683.35	48794.3
921.2653	1880.9637	49947.65	49056.95
921.4046	1882.6051	49551.2	48662.8
921.5439	1884.2458	49341.05	48448.6
921.6832	1885.8858	49065.6	48175.75
921.8225	1887.525	49177.3	48286.7
921.9617	1889.1634	49037.25	48146.85
922.101	1890.8011	48878.8	47987.4
922.2402	1892.4381	48449.05	47559.6
922.3794	1894.0743	48818.9	47927.3
922.5185	1895.7098	48494.95	47605.5
922.6577	1897.3446	48311.6	47418.85
922.7968	1898.9786	48370.75	47476.8
922.9359	1900.6118	48126.5	47237.15
923.075	1902.2443	47833.95	46943.2
923.214	1903.8761	47943.05	47052.55
923.3531	1905.5071	47621.35	46729.8
923.4921	1907.1374	47205.7	46315.5
923.6311	1908.7669	47319.1	46429.35
923.77	1910.3957	47471.45	46583.35
923.909	1912.0237	46956	46064.5
924.0479	1913.651	46871.55	45981.6
924.1868	1915.2776	46664.95	45778
924.3257	1916.9034	46626.85	45736.1
924.4646	1918.5285	46365.55	45477.3
924.6034	1920.1528	46335.35	45445.55
924.7422	1921.7764	46200.5	45311
924.881	1923.3992	46111.7	45220.8
925.0198	1925.0213	45749.65	44859.05
925.1586	1926.6427	45450.1	44562.9
925.2973	1928.2633	45651.6	44556.9
925.436	1929.8832	45389.55	44495.55
925.5747	1931.5023	45195.55	44305.4
925.7134	1933.1207	44955.35	44061.85
925.852	1934.7383	44995.1	44104.8
925.9906	1936.3552	44781.85	43893.3
926.1292	1937.9714	44656.95	43766.85
926.2678	1939.5868	44591.95	43701.85
926.4064	1941.2015	44215.9	43325.3
926.5449	1942.8154	44054.75	43163.95
926.6834	1944.4286	43946.4	43055.25
926.8219	1946.041	43828.95	42913.95
926.9604	1947.6528	43589.6	42696.35
927.0988	1949.2637	43486.05	42597.75
927.2372	1950.8739	43250.2	42361.9
927.3756	1952.4834	43300.9	42409.95
927.514	1954.0921	43156.85	42266.2
927.6523	1955.7001	42941.3	42049.3
927.7907	1957.3074	42935.25	42050
927.929	1958.9139	42657.5	41772
928.0673	1960.5197	42609.6	41722.9
928.2055	1962.1247	42376.25	41488.7
928.3438	1963.729	42166.25	41280.5
928.482	1965.3325	42012.2	41100.7
928.6202	1966.9353	41986	41099.75
928.7584	1968.5374	41784.3	40897.7
928.8965	1970.1387	41629.7	40741.65
929.0346	1971.7393	41525.2	40638.15
929.1727	1973.3392	41384.05	40499.75
929.3108	1974.9383	41250.45	40365.8
929.4489	1976.5366	40994.95	40108.85
929.5869	1978.1342	40932	40046.25
929.7249	1979.7311	40881.05	39995.1
929.8629	1981.3273	40734.25	39849.8
930.0009	1982.9227	40564.4	39677
930.1388	1984.5173	40483.15	39599.55
930.2767	1986.1112	40313.9	39427.25
930.4146	1987.7044	40285.45	39403.1
930.5525	1989.2968	40017.4	39130.1
930.6904	1990.8885	40077.7	39189.7
930.8282	1992.4795	39895.45	39010.4
930.966	1994.0697	39750.05	38866.05
931.1038	1995.6592	39624.7	38740.05
931.2415	1997.2479	39511.2	38624.9
931.3793	1998.8359	39408.35	38524.1
931.517	2000.4232	39215.5	38333.25
931.6547	2002.0097	39132.95	38252.2
931.7923	2003.5955	38905.55	38022
931.93	2005.1805	38885.75	38000.4
932.0676	2006.7648	38804.05	37920
932.2052	2008.3484	38624.8	37741.65
932.3427	2009.9312	38686.95	37803.5
932.4803	2011.5133	38495.45	37614.45
932.6178	2013.0946	38415.55	37531.7
932.7553	2014.6752	38238.6	37356.35
932.8928	2016.2551	38207.5	37322.75
933.0302	2017.8342	38014.9	37131.05
933.1676	2019.4126	37885.25	37003.2
933.305	2020.9902	37710	36828.55
933.4424	2022.5672	37655.95	36773.2
933.5798	2024.1433	37582.05	36692.9
933.7171	2025.7188	37428.85	36549.4
933.8544	2027.2935	37333.5	36451.4
933.9917	2028.8674	37224.4	36344
934.129	2030.4406	37093.45	36211.6
934.2662	2032.0131	36922.25	36041.95
934.4034	2033.5849	36785.25	35899.95
934.5406	2035.1559	36754.15	35872.5
934.6778	2036.7261	36683.9	35803
934.8149	2038.2957	36552	35668.4
934.952	2039.8645	36461.3	35576.3
935.0891	2041.4325	36468.05	35581.9
935.2262	2042.9998	36298.9	35416.95
935.3632	2044.5664	36201.7	35313.95
935.5002	2046.1323	36064.15	35183.4
935.6372	2047.6974	35972.1	35090.7
935.7742	2049.2617	35854.8	34974.05
935.9111	2050.8254	35853.45	34964.6
936.048	2052.3883	35805.95	34920.8
936.1849	2053.9504	35622.5	34738.7
936.3218	2055.5118	35517.5	34633.8
936.4586	2057.0725	35375.65	34488.25
936.5955	2058.6325	35306	34422.75
936.7323	2060.1917	35170.1	34289.15
936.869	2061.7502	35079.5	34194.9
937.0058	2063.3079	34916.75	34036.15
937.1425	2064.8649	34844.45	33958.7
937.2792	2066.4212	34768.2	33884.9
937.4159	2067.9767	34642.6	33760.7
937.5525	2069.5315	34487.8	33604.3
937.6891	2071.0856	34392.8	33510.75
937.8257	2072.6389	34240.05	33356.25
937.9623	2074.1915	34070.75	33190.35
938.0989	2075.7433	33932.1	33049.3
938.2354	2077.2945	33842.7	32961
938.3719	2078.8448	33703.6	32819.45
938.5084	2080.3945	33568.1	32685
938.6448	2081.9434	33521.95	32636.25
938.7812	2083.4916	33438.1	32553.85
938.9176	2085.039	33311.8	32422.4
939.054	2086.5857	33242.6	32354.8
939.1903	2088.1317	33211	32322.55
939.3267	2089.677	33062.75	32174.3
939.463	2091.2215	33037.05	32149.85
939.5992	2092.7652	32890.9	32001.8
939.7355	2094.3083	32836.15	31947.45
939.8717	2095.8506	32798.2	31914.1
940.0079	2097.3921	32762.65	31878.05
940.1441	2098.933	32600.25	31715.2
940.2802	2100.4731	32499.65	31614.2
940.4163	2102.0124	32481.75	31576.7
940.5524	2103.5511	32376.1	31490.35
940.6885	2105.089	32354.05	31467.8
940.8245	2106.6261	32249.35	31364.15
940.9606	2108.1626	32198.35	31312.85
941.0965	2109.6983	32067.95	31155.85
941.2325	2111.2332	31951.5	31065.2
941.3684	2112.7675	31877.05	30990.75
941.5044	2114.301	31801.95	30913.7
941.6403	2115.8337	31769.55	30884.1
941.7761	2117.3657	31629.1	30743.8
941.912	2118.897	31590.7	30704.75
942.0478	2120.4276	31470.9	30579.1
942.1835	2121.9575	31308.55	30422.85
942.3193	2123.4866	31333.5	30433.7
942.455	2125.0149	31184	30295.75
942.5907	2126.5426	31060.9	30177.1
942.7264	2128.0695	30973.2	30087.85
942.8621	2129.5956	30901.8	30018.8
942.9977	2131.1211	30874.35	29985.65
943.1333	2132.6458	30786.6	29902.3
943.2689	2134.1698	30694.95	29808.35
943.4044	2135.693	30601	29714.65
943.54	2137.2155	30560.8	29671.5
943.6755	2138.7373	30486.2	29602.05
943.8109	2140.2584	30362.65	29479
943.9464	2141.7787	30267.3	29377.95
944.0818	2143.2983	30101.55	29220.85
944.2172	2144.8171	29966.55	29084.6
944.3526	2146.3353	29926.3	29042.9
944.4879	2147.8527	29761.85	28879.15
944.6232	2149.3693	29718.45	28831.15
944.7585	2150.8853	29613.05	28728.2
944.8938	2152.4005	29461.75	28576.55
945.029	2153.9149	29501.4	28615.3
945.1642	2155.4287	29360.9	28475.25
945.2994	2156.9417	29281	28393.65
945.4346	2158.454	29202.3	28314.9
945.5697	2159.9655	29179.9	28299.1
945.7048	2161.4764	29099.4	28215.55
945.8399	2162.9865	29022.05	28138
945.9749	2164.4958	28908.7	28026.3
946.1099	2166.0045	28799.9	27911.95
946.2449	2167.5124	28797.5	27916.15
946.3799	2169.0195	28685.5	27798.8
946.5148	2170.526	28662.75	27776.65
946.6498	2172.0317	28537.65	27651.8
946.7846	2173.5367	28456.8	27571.2
946.9195	2175.0409	28323.75	27439.55
947.0543	2176.5445	28337.9	27452.8
947.1891	2178.0473	28240.9	27353.05
947.3239	2179.5494	28069.3	27178.95
947.4587	2181.0507	27980.6	27094.7
947.5934	2182.5513	27885.95	27000.5
947.7281	2184.0512	27879.6	26992.8
947.8628	2185.5504	27726.2	26841.2
947.9974	2187.0488	27577.35	26692.65
948.132	2188.5465	27539.05	26654.35
948.2666	2190.0435	27420.35	26535.4
948.4012	2191.5397	27325.8	26439
948.5357	2193.0353	27251.6	26368.3
948.6702	2194.5301	27144.05	26255.45
948.8047	2196.0241	27031.85	26143.85
948.9392	2197.5175	26970.4	26083.2
949.0736	2199.0101	26877.95	25988.25
949.208	2200.502	26742.1	25855.3
949.3424	2201.9931	26682	25799.4
949.4767	2203.4835	26568.15	25683.35
949.611	2204.9733	26498.5	25608.15
949.7453	2206.4622	26430.6	25546.75
949.8796	2207.9505	26324.9	25440.1
950.0138	2209.438	26166.65	25283.55
950.148	2210.9248	26081.5	25197.45
950.2822	2212.4109	26068.2	25183.55
950.4164	2213.8962	25961.15	25069.45
950.5505	2215.3809	25922.95	25034.3
950.6846	2216.8648	25856.35	24968.05
950.8186	2218.3479	25752.15	24855.55
950.9527	2219.8304	25634.1	24742.9
951.0867	2221.3121	25528.65	24638.1
951.2207	2222.7931	25451.8	24566.2
951.3546	2224.2733	25339.35	24452.45
951.4886	2225.7529	25272.2	24386.15
951.6225	2227.2317	25208.6	24319.4
951.7563	2228.7098	25162.65	24279.15
951.8902	2230.1872	25014.65	24131.7
952.024	2231.6638	24985	24101.05
952.1578	2233.1397	24853.45	23965.45
952.2916	2234.6149	24769.75	23885.8
952.4253	2236.0894	24678.45	23793.95
952.559	2237.5632	24650	23763.6
952.6927	2239.0362	24524.95	23638.65
952.8263	2240.5085	24486.15	23601.95
952.9599	2241.9801	24376.6	23492.2
953.0935	2243.4509	24339.3	23453.05
953.2271	2244.921	24287	23398.8
953.3606	2246.3904	24165.55	23277.05
953.4941	2247.8591	24080.7	23195.75
953.6276	2249.3271	23993.3	23107.65
953.7611	2250.7943	23896.6	23008.65
953.8945	2252.2608	23810.9	22924.55
954.0279	2253.7266	23779.25	22893.65
954.1612	2255.1917	23700.45	22814.85
954.2946	2256.656	23597.85	22711
954.4279	2258.1197	23526.25	22641.3
954.5612	2259.5826	23464.55	22579.25
954.6944	2261.0447	23430.2	22543.25
954.8276	2262.5062	23286.9	22398.5
954.9608	2263.9669	23273.6	22387.55
955.094	2265.4269	23245.4	22360.75
955.2271	2266.8862	23159.1	22273.9
955.3602	2268.3448	23136.6	22250.3
955.4933	2269.8026	23075.85	22190.5
955.6264	2271.2598	22930.9	22047.9
955.7594	2272.7162	22863	21978.05
955.8924	2274.1719	22837.1	21950.6
956.0253	2275.6268	22774.35	21888
956.1583	2277.0811	22706.4	21818.5
956.2912	2278.5346	22662.45	21776.4
956.4241	2279.9874	22563.35	21680.75
956.5569	2281.4395	22524.85	21641.85
956.6897	2282.8908	22404.35	21514.55
956.8225	2284.3414	22408.45	21523.3
956.9553	2285.7914	22289.75	21405.15
957.088	2287.2406	22276.3	21389.15
957.2207	2288.689	22181	21294.2
957.3534	2290.1368	22085.55	21196.15
957.486	2291.5838	22020.2	21127.4
957.6186	2293.0302	21958.4	21069.35
957.7512	2294.4758	21845.45	20958.8
957.8838	2295.9206	21758.9	20871.6
958.0163	2297.3648	21713.1	20826.75
958.1488	2298.8082	21725.2	20839.3
958.2813	2300.251	21602.15	20715.7
958.4137	2301.693	21556.95	20665.2
958.5461	2303.1343	21512	20626.1
958.6785	2304.5748	21433.35	20548.75
958.8108	2306.0147	21318.85	20434.7
958.9432	2307.4538	21313.85	20428
959.0754	2308.8922	21201.9	20320.1
959.2077	2310.3299	21186.9	20302.1
959.3399	2311.7669	21092.9	20209.25
959.4721	2313.2031	21014.85	20128.5
959.6043	2314.6387	20948.9	20063.85
959.7365	2316.0735	20841	19956.9
959.8686	2317.5076	20832.4	19945.9
960.0006	2318.941	20798.4	19912.65
960.1327	2320.3737	20699.15	19812.05
960.2647	2321.8056	20664.85	19774.75
960.3967	2323.2369	20586.15	19699.25
960.5287	2324.6674	20547.35	19658.5
960.6606	2326.0972	20465.6	19578.25
960.7925	2327.5263	20386.85	19500.25
960.9244	2328.9547	20304.1	19416.7
961.0562	2330.3823	20241.6	19353.15
961.1881	2331.8092	20270.5	19380.2
961.3198	2333.2355	20139.05	19250.25
961.4516	2334.661	20128.6	19240.65
961.5833	2336.0858	20063.25	19172.8
961.715	2337.5098	20003.85	19116.45
961.8467	2338.9332	19970.5	19082.9
961.9783	2340.3558	19864.55	18976.2
962.1099	2341.7778	19800.95	18915.05
962.2415	2343.199	19742.6	18856.6
962.373	2344.6195	19689.35	18803.75
962.5045	2346.0393	19636.45	18750.6
962.636	2347.4583	19596.45	18709.8
962.7675	2348.8767	19529.9	18642.85
962.8989	2350.2943	19495.75	18608.1
963.0303	2351.7113	19457.3	18568.6
963.1617	2353.1275	19350.55	18462
963.293	2354.543	19296.65	18399.65
963.4243	2355.9578	19267.55	18379.95
963.5556	2357.3718	19124.55	18238.25
963.6868	2358.7852	19040.3	18153.7
963.818	2360.1978	18985.45	18099.35
963.9492	2361.6098	18937.75	18052.5
964.0803	2363.021	18881.1	17991.25
964.2114	2364.4315	18836.35	17949.45
964.3425	2365.8413	18738.45	17845.9
964.4736	2367.2504	18681	17795.5
964.6046	2368.6587	18632.8	17748.05
964.7356	2370.0664	18504.3	17619.1
964.8666	2371.4733	18438.95	17551.8
964.9975	2372.8795	18413.1	17529.05
965.1284	2374.285	18322.9	17437.05
965.2593	2375.6899	18244.3	17359.65
965.3901	2377.0939	18178.35	17292.4
965.5209	2378.4973	18157.6	17271.35
965.6517	2379.9	18083.75	17197
965.7825	2381.3019	18021.55	17134.15
965.9132	2382.7032	17988.1	17104.3
966.0439	2384.1037	17903.05	17020.25
966.1745	2385.5035	17819.45	16935.2
966.3051	2386.9027	17754.2	16871.95
966.4357	2388.3011	17760.4	16872.4
966.5663	2389.6987	17705.05	16820.8
966.6968	2391.0957	17656	16770.9
966.8273	2392.492	17552.45	16669.4
966.9578	2393.8876	17417.1	16533.25
967.0882	2395.2824	17345.95	16459.3
967.2186	2396.6765	17340.75	16455.75
967.349	2398.07	17243.3	16358.35
967.4793	2399.4627	17262.95	16373.95
967.6097	2400.8547	17175.25	16290.45
967.7399	2402.246	17138.6	16246.05
967.8702	2403.6366	16995.1	16110.85
968.0004	2405.0265	16944.65	16058.45
968.1306	2406.4156	16872	15981.2
968.2607	2407.8041	16810.15	15921.45
968.3909	2409.1918	16730.15	15842.25
968.521	2410.5789	16690.8	15806.1
968.651	2411.9652	16623.85	15736
968.781	2413.3508	16580.75	15694.65
968.911	2414.7358	16505.8	15616.6
969.041	2416.12	16458.95	15574.8
969.1709	2417.5035	16417.25	15529.35
969.3008	2418.8863	16332.5	15447
969.4307	2420.2684	16287.4	15401.1
969.5606	2421.6497	16209.2	15324.45
969.6904	2423.0304	16109.05	15222.7
969.8201	2424.4104	16090.5	15204.9
969.9499	2425.7896	16033.7	15145.7
970.0796	2427.1682	16000.5	15114.85
970.2093	2428.546	15947.65	15061.95
970.3389	2429.9232	15901	15013.35
970.4685	2431.2996	15833.65	14945
970.5981	2432.6753	15806.05	14920.8
970.7277	2434.0503	15779.25	14892.6
970.8572	2435.4246	15667.75	14781.7
970.9867	2436.7982	15607.4	14719.75
971.1161	2438.1711	15587.95	14703.6
971.2456	2439.5433	15512.5	14625.6
971.375	2440.9148	15454.55	14565.65
971.5043	2442.2856	15380.35	14494.25
971.6336	2443.6557	15346.05	14459.4
971.7629	2445.025	15293.25	14405.35
971.8922	2446.3937	15297.15	14412
972.0214	2447.7617	15222.25	14334.1
972.1506	2449.1289	15191.9	14306
972.2798	2450.4955	15173.5	14284.95
972.4089	2451.8613	15103.45	14218.5
972.538	2453.2265	15007.65	14124.9
972.6671	2454.5909	15009.9	14122.85
972.7961	2455.9546	14976.4	14091.5
972.9251	2457.3177	14891.85	14005.35
973.0541	2458.68	14880.85	13992.1
973.1831	2460.0416	14832.1	13947.4
973.312	2461.4025	14809.95	13922.9
973.4408	2462.7627	14767.45	13870.55
973.5697	2464.1222	14685.5	13799.5
973.6985	2465.4811	14659.35	13774.6
973.8273	2466.8392	14608.45	13724.95
973.956	2468.1966	14556.65	13667.55
974.0847	2469.5533	14523.25	13633.7
974.2134	2470.9093	14504.5	13618.3
974.3421	2472.2645	14445.6	13558.6
974.4707	2473.6191	14418.9	13535.3
974.5993	2474.973	14324.8	13438.55
974.7278	2476.3262	14317.35	13429.55
974.8563	2477.6787	14259.05	13373.85
974.9848	2479.0305	14141.25	13253.85
975.1132	2480.3816	14121.7	13233.85
975.2417	2481.7319	14061.8	13176.3
975.37	2483.0816	14015.1	13126.2
975.4984	2484.4306	13995.25	13110.5
975.6267	2485.7789	13906.2	13022.45
975.755	2487.1264	13847.15	12962.5
975.8833	2488.4733	13789.95	12906.15
976.0115	2489.8195	13742.45	12849.25
976.1397	2491.165	13699.4	12811.35
976.2678	2492.5097	13675.7	12789.95
976.3959	2493.8538	13610.7	12725.95
976.524	2495.1972	13519.95	12635.9
976.6521	2496.5398	13470.65	12583.15
976.7801	2497.8818	13432.3	12544.15
976.9081	2499.2231	13407.4	12522.55
977.036	2500.5637	13366.15	12475.95
977.164	2501.9035	13332.15	12444.95
977.2918	2503.2427	13270.05	12381.05
977.4197	2504.5812	13212.1	12326.1
977.5475	2505.919	13181.25	12292.9
977.6753	2507.256	13177.65	12288.85
977.8031	2508.5924	13076.95	12189.8
977.9308	2509.9281	13048.15	12156.75
978.0585	2511.2631	13030.4	12145.55
978.1861	2512.5974	12995.1	12110
978.3137	2513.9309	12925.4	12039.6
978.4413	2515.2638	12870.4	11955.65
978.5689	2516.596	12837.05	11952.7
978.6964	2517.9275	12785.05	11899.75
978.8239	2519.2583	12766.45	11879.95
978.9513	2520.5884	12645.9	11758.6
979.0788	2521.9178	12643.35	11757.55
979.2062	2523.2465	12600.35	11716.45
979.3335	2524.5745	12540.15	11653.75
979.4608	2525.9018	12503.95	11618.9
979.5881	2527.2284	12466.95	11582.65
979.7154	2528.5543	12442.4	11559.45
979.8426	2529.8796	12412.6	11525.15
979.9698	2531.2041	12362.5	11476.25
980.0969	2532.5279	12354.4	11472.3
980.224	2533.851	12316.4	11428.5
980.3511	2535.1735	12265.05	11380.6
980.4781	2536.4952	12246.5	11360.45
980.6052	2537.8163	12211.1	11323.85
980.7321	2539.1366	12177.4	11290.95
980.8591	2540.4562	12125.7	11237.65
980.986	2541.7752	12115.55	11229.5
981.1129	2543.0935	12095.95	11208.5
981.2397	2544.411	12047.95	11160.6
981.3665	2545.7279	12042.6	11155.9
981.4933	2547.0441	12024.6	11137.15
981.62	2548.3596	11999.2	11109.4
981.7467	2549.6744	11954.55	11068.75
981.8734	2550.9885	11899.95	11005.5
982.0001	2552.3019	11895.25	11009.25
982.1267	2553.6146	11844.5	10957.55
982.2532	2554.9266	11804.3	10917.35
982.3798	2556.2379	11757.6	10870.65
982.5063	2557.5485	11743.2	10859.2
982.6327	2558.8585	11708.15	10816.65
982.7592	2560.1677	11676.95	10786.85
982.8856	2561.4762	11652.15	10764.9
983.0119	2562.7841	11653.15	10765.15
983.1383	2564.0913	11621.2	10734.3
983.2646	2565.3977	11597.9	10712.25
983.3908	2566.7035	11542.45	10655.4
983.517	2568.0086	11514	10624.1
983.6432	2569.313	11516.15	10628.45
983.7694	2570.6167	11503.25	10611.75
983.8955	2571.9197	11462.55	10576.05
984.0216	2573.222	11474.45	10584.55
984.1476	2574.5236	11438.9	10552.85
984.2737	2575.8246	11370.95	10483.55
984.3996	2577.1248	11348.55	10460.65
984.5256	2578.4244	11323.85	10438
984.6515	2579.7232	11329.75	10443.45
984.7774	2581.0214	11298.8	10383.5
984.9032	2582.3189	11263.6	10374.65
985.029	2583.6157	11221.85	10331.8
985.1548	2584.9118	11184.1	10297.25
985.2806	2586.2072	11184.65	10297.55
985.4063	2587.5019	11130.5	10244.75
985.5319	2588.7959	11104.75	10219.5
985.6576	2590.0893	11091.55	10207.65
985.7832	2591.3819	11050.2	10163.05
985.9087	2592.6739	10984.85	10100.1
986.0343	2593.9652	10974.7	10088.1
986.1597	2595.2557	10935.25	10048.1
986.2852	2596.5456	10894.45	10007.6
986.4106	2597.8348	10833.05	9947.35
986.536	2599.1234	10772.85	9888.05
986.6614	2600.4112	10734.25	9848.45
986.7867	2601.6983	10714.95	9825.4
986.912	2602.9848	10702.9	9816.5
987.0372	2604.2705	10634.05	9741.1
987.1624	2605.5556	10624.3	9737.35
987.2876	2606.84	10581	9693.95
987.4128	2608.1237	10544.35	9656.4
987.5379	2609.4067	10496.1	9610.1
987.6629	2610.689	10462.95	9568.9
987.788	2611.9707	10431.35	9541.6
987.913	2613.2516	10402.15	9511.2
988.0379	2614.5319	10321.15	9437.25
988.1629	2615.8115	10294.85	9407.35
988.2878	2617.0903	10262.65	9375
988.4126	2618.3685	10223.85	9338.9
988.5375	2619.6461	10167.35	9281.45
988.6622	2620.9229	10157.25	9270.95
988.787	2622.199	10135.95	9249.15
988.9117	2623.4745	10103	9216.65
989.0364	2624.7493	10048.7	9162.6
989.161	2626.0234	9998.95	9115.4
989.2857	2627.2968	9996.05	9111.5
989.4102	2628.5695	9941.95	9054.35
989.5348	2629.8415	9897.2	9012.15
989.6593	2631.1128	9869.65	8983.65
989.7837	2632.3835	9828.85	8943.25
989.9082	2633.6535	9756.35	8870.6
990.0326	2634.9228	9726.15	8839.8
990.1569	2636.1914	9712.9	8828.3
990.2812	2637.4593	9692.7	8801.1
990.4055	2638.7265	9659.95	8773.65
990.5298	2639.9931	9619.9	8734.95
990.654	2641.259	9590.55	8704.35
990.7782	2642.5242	9578.95	8691.35
990.9023	2643.7887	9535.95	8649.95
991.0264	2645.0525	9500.5	8614.15
991.1505	2646.3156	9478.9	8592.6
991.2745	2647.5781	9433.15	8546.25
991.3985	2648.8398	9399.2	8515.6
991.5225	2650.1009	9404.85	8480.65
991.6464	2651.3613	9348.3	8462.5
991.7703	2652.6211	9329.95	8444.95
991.8942	2653.8801	9309.6	8424.75
992.018	2655.1385	9272.95	8384.9
992.1418	2656.3961	9236.3	8350.4
992.2655	2657.6531	9233.35	8347.25
992.3892	2658.9094	9205.75	8320.8
992.5129	2660.1651	9174.1	8288.15
992.6366	2661.42	9151.1	8265.15
992.7602	2662.6743	9113.65	8228.1
992.8837	2663.9279	9094.05	8210.35
993.0073	2665.1808	9064.15	8180.2
993.1307	2666.433	9027.3	8140.9
993.2542	2667.6846	9013.3	8127.3
993.3776	2668.9354	9018.3	8130.4
993.501	2670.1856	8961.9	8074.75
993.6244	2671.4351	8940.8	8056.6
993.7477	2672.6839	8929.55	8041.7
993.8709	2673.9321	8895.5	8010.15
993.9942	2675.1795	8858.75	7973.95
994.1174	2676.4263	8816.45	7932.05
994.2405	2677.6724	8797.65	7913.85
994.3637	2678.9179	8759.3	7873.85
994.4868	2680.1626	8758.05	7874.8
994.6098	2681.4067	8734	7849.05
994.7328	2682.6501	8716.65	7832.05
994.8558	2683.8928	8685.55	7800
994.9788	2685.1348	8635.35	7751.15
995.1017	2686.3761	8590.25	7707.15
995.2245	2687.6168	8581.6	7696.35
995.3474	2688.8568	8548.7	7664.3
995.4702	2690.0961	8509.85	7625
995.5929	2691.3348	8490.8	7605.35
995.7156	2692.5727	8472.7	7589.4
995.8383	2693.81	8432.3	7547.55
995.961	2695.0466	8397.2	7513.15
996.0836	2696.2826	8401.2	7516.55
996.2062	2697.5178	8369.45	7482.6
996.3287	2698.7524	8329.2	7445.6
996.4512	2699.9863	8312.65	7427.35
996.5737	2701.2195	8294.55	7410.35
996.6961	2702.452	8278.05	7393.7
996.8185	2703.6839	8243.35	7356.85
996.9408	2704.9151	8224.9	7340.95
997.0631	2706.1456	8176.6	7292.55
997.1854	2707.3755	8166.4	7280.75
997.3077	2708.6046	8158.5	7271.6
997.4299	2709.8331	8130.4	7245.65
997.552	2711.0609	8090.2	7204.85
997.6742	2712.2881	8081.75	7198.4
997.7963	2713.5145	8049.55	7164.1
997.9183	2714.7403	8012.95	7128.4
998.0403	2715.9654	7983.45	7098.8
998.1623	2717.1899	7989.25	7101.85
998.2842	2718.4136	7941.45	7058.95
998.4062	2719.6367	7917.9	7034.5
998.528	2720.8591	7914.05	7023.75
998.6498	2722.0809	7867.55	6981.75
998.7716	2723.3019	7898.3	7010.7
998.8934	2724.5223	7835.65	6950.65
999.0151	2725.7421	7816.65	6930.85
999.1368	2726.9611	7803.9	6915.15
999.2584	2728.1795	7773.4	6884.5
999.38	2729.3972	7730.45	6849.35
999.5016	2730.6142	7712.9	6820.25
999.6231	2731.8306	7668.3	6781.85
999.7446	2733.0462	7645.75	6757.5
999.8661	2734.2612	7586.35	6699.05
999.9875	2735.4756	7544.95	6658.4
1000.1089	2736.6892	7502.1	6616.95
1000.2302	2737.9022	7461.05	6577.45
1000.3515	2739.1145	7432.5	6548.6
1000.4728	2740.3262	7404.7	6513.85
1000.594	2741.5372	7367.5	6483.45
1000.7152	2742.7475	7333.3	6449.5
1000.8363	2743.9571	7313.75	6428.05
1000.9575	2745.1661	7287.75	6397.75
1001.0785	2746.3744	7252.9	6369.8
1001.1996	2747.582	7217.8	6332.65
1001.3206	2748.7889	7189.35	6305
1001.4415	2749.9952	7188.6	6304.7
1001.5625	2751.2008	7148.45	6261.3
1001.6833	2752.4057	7128.1	6243.95
1001.8042	2753.61	7100.5	6215.25
1001.925	2754.8136	7090.45	6204.2
1002.0458	2756.0165	7037.55	6154.6
1002.1665	2757.2188	7021.15	6136.1
1002.2872	2758.4204	6993	6109.05
1002.4078	2759.6213	6964.1	6076.45
1002.5285	2760.8215	6972.3	6084.1
1002.649	2762.0211	6935.7	6049.7
1002.7696	2763.22	6915.95	6028.75
1002.8901	2764.4182	6871.7	5987.6
1003.0106	2765.6158	6848.3	5963.45
1003.131	2766.8127	6853.25	5968.4
1003.2514	2768.009	6823.85	5939.8
1003.3717	2769.2045	6786.05	5901.15
1003.492	2770.3994	6770.65	5884.85
1003.6123	2771.5936	6736.1	5851.45
1003.7325	2772.7872	6719.05	5833.9
1003.8527	2773.9801	6681.55	5795.75
1003.9729	2775.1723	6658.55	5758.3
1004.093	2776.3639	6632.3	5750.2
1004.2131	2777.5548	6618.45	5733.75
1004.3331	2778.745	6612.75	5726.2
1004.4531	2779.9346	6584.1	5700.05
1004.5731	2781.1235	6579.05	5693.25
1004.693	2782.3117	6544.9	5662.95
1004.8129	2783.4992	6521.9	5639.2
1004.9328	2784.6861	6498.4	5614.9
1005.0526	2785.8723	6479.8	5595.25
1005.1723	2787.0579	6480.05	5594.9
1005.2921	2788.2428	6474.6	5591.35
1005.4118	2789.427	6437.55	5554.5
1005.5314	2790.6106	6393.6	5510.45
1005.651	2791.7935	6380.2	5495.95
1005.7706	2792.9757	6362.25	5479.1
1005.8902	2794.1573	6356.1	5469.4
1006.0097	2795.3382	6332.95	5448.5
1006.1291	2796.5184	6302.4	5420
1006.2485	2797.698	6314.6	5432.35
1006.3679	2798.8769	6300.65	5418.45
1006.4873	2800.0551	6284.85	5402.25
1006.6066	2801.2327	6248.95	5364.25
1006.7258	2802.4096	6253.9	5372.1
1006.8451	2803.5859	6228.25	5345.6
1006.9642	2804.7615	6225	5340.9
1007.0834	2805.9364	6221.35	5339.75
1007.2025	2807.1106	6213	5331.05
1007.3216	2808.2842	6224.9	5339.95
1007.4406	2809.4572	6208.8	5324
1007.5596	2810.6294	6234.15	5350.85
1007.6785	2811.801	6236.6	5354.35
1007.7975	2812.972	6251.65	5369.4
1007.9163	2814.1423	6257.8	5372.75
1008.0352	2815.3119	6279.1	5397.35
1008.154	2816.4808	6294.6	5411.75
1008.2727	2817.6491	6318.95	5433.7
1008.3914	2818.8167	6336.45	5453.45
1008.5101	2819.9837	6361.15	5472.35
1008.6288	2821.15	6385.5	5502.6
1008.7474	2822.3157	6415.4	5534.15
1008.8659	2823.4807	6407.35	5523.45
1008.9844	2824.645	6480.95	5598.45
1009.1029	2825.8086	6480.3	5597.05
1009.2214	2826.9716	6531.2	5648.05
1009.3398	2828.134	6547	5663.75
1009.4581	2829.2957	6589.45	5705.9
1009.5764	2830.4567	6584.65	5703.05
1009.6947	2831.617	6589	5702.25
1009.813	2832.7767	6576.2	5694.25
1009.9312	2833.9358	6556.9	5674.8
1010.0493	2835.0941	6554.4	5669.05
1010.1675	2836.2519	6530.05	5648.8
1010.2855	2837.4089	6494.7	5609.8
1010.4036	2838.5653	6471.85	5590.5
1010.5216	2839.7211	6465.25	5585.15
1010.6396	2840.8761	6448.35	5564
1010.7575	2842.0306	6449.15	5567.6
1010.8754	2843.1843	6443.85	5561.75
1010.9932	2844.3374	6438.8	5555.05
1011.111	2845.4899	6444.1	5561.9
1011.2288	2846.6417	6497.6	5616.65
1011.3465	2847.7928	6546.4	5663.9
1011.4642	2848.9433	6590.2	5707.55
1011.5818	2850.0931	6608.45	5727.55
1011.6995	2851.2422	6670.6	5786.55
1011.817	2852.3907	6688	5803.2
1011.9345	2853.5385	6714.45	5831.9
1012.052	2854.6857	6746	5852.5
1012.1695	2855.8323	6769.55	5889.2
1012.2869	2856.9781	6785.2	5900.75
1012.4042	2858.1233	6813.05	5928.55
1012.5216	2859.2679	6820.35	5937.45
1012.6389	2860.4118	6837.6	5956.85
1012.7561	2861.555	6853.15	5967.05
1012.8733	2862.6976	6865.65	5981.75
1012.9905	2863.8395	6874.95	5992.9
1013.1076	2864.9808	6873.2	5991.35
1013.2247	2866.1214	6876.55	5997.75
1013.3417	2867.2614	6895	6010.45
1013.4587	2868.4007	6872.65	5989.4
1013.5757	2869.5393	6861.1	5975.75
1013.6926	2870.6773	6884.35	6000.25
1013.8095	2871.8146	6852.5	5968.4
1013.9263	2872.9513	6838.1	5953.55
1014.0431	2874.0874	6801.55	5919.85
1014.1599	2875.2227	6777.8	5893.35
1014.2766	2876.3574	6753.05	5870.35
1014.3933	2877.4915	6739.65	5858.2
1014.51	2878.6249	6680.95	5800.7
1014.6266	2879.7577	6642.85	5758.2
1014.7431	2880.8898	6616.85	5727
1014.8596	2882.0212	6599.85	5719.5
1014.9761	2883.152	6548.75	5665.7
1015.0925	2884.2821	6509.65	5628.4
1015.2089	2885.4116	6493.7	5613.1
1015.3253	2886.5405	6469.95	5585.95
1015.4416	2887.6686	6474.4	5586.2
1015.5579	2888.7962	6464.7	5583.5
1015.6741	2889.923	6451.7	5569.9
1015.7903	2891.0493	6443.2	5561.4
1015.9065	2892.1748	6417.5	5535.55
1016.0226	2893.2997	6422.25	5540.3
1016.1387	2894.424	6405.3	5525.15
1016.2547	2895.5476	6414.35	5533.1
1016.3707	2896.6706	6404.45	5523.65
1016.4866	2897.7929	6394.35	5513.9
1016.6025	2898.9145	6394.3	5512.6
1016.7184	2900.0355	6401.65	5519.85
1016.8342	2901.1559	6425.95	5541.4
1016.95	2902.2756	6415.75	5533.1
1017.0658	2903.3946	6425.15	5542
1017.1815	2904.513	6434.05	5550.3
1017.2971	2905.6308	6422.15	5542.15
1017.4127	2906.7479	6414.2	5531.65
1017.5283	2907.8643	6440.7	5557.15
1017.6439	2908.9801	6420.9	5539.4
1017.7594	2910.0953	6425.1	5544.3
1017.8748	2911.2098	6420.3	5535.85
1017.9902	2912.3236	6397.1	5507.05
1018.1056	2913.4368	6361.4	5476.2
1018.2209	2914.5494	6348.55	5467.15
1018.3362	2915.6613	6314.95	5427.6
1018.4515	2916.7725	6265.15	5380.25
1018.5667	2917.8831	6234.35	5351.15
1018.6819	2918.9931	6190.2	5305
1018.797	2920.1024	6149.45	5265.9
1018.9121	2921.211	6122.85	5241.8
1019.0271	2922.319	6099.25	5216.05
1019.1421	2923.4264	6086.35	5203.8
1019.2571	2924.5331	6059.75	5178.35
1019.372	2925.6391	6030	5148.7
1019.4869	2926.7445	6013.15	5132.45
1019.6017	2927.8493	6010.3	5127.8
1019.7165	2928.9534	6011.7	5130.8
1019.8313	2930.0569	5985.75	5098.5
1019.946	2931.1597	5973.5	5090.8
1020.0606	2932.2619	5958.2	5075.95
1020.1753	2933.3634	5954.45	5072.6
1020.2899	2934.4643	5947.5	5059.05
1020.4044	2935.5645	5952.6	5062.8
1020.5189	2936.6641	5882.8	4996.75
1020.6334	2937.763	5859.65	4978.35
1020.7478	2938.8613	5822.4	4940.75
1020.8622	2939.959	5762.45	4875.05
1020.9765	2941.056	5689.7	4808.45
1021.0908	2942.1523	5619.15	4735.75
1021.2051	2943.248	5540.9	4657.2
1021.3193	2944.3431	5473.8	4593.55
1021.4334	2945.4375	5389.45	4507.9
1021.5476	2946.5313	5298.2	4416.8
1021.6617	2947.6244	5200.25	4319.5
1021.7757	2948.7169	5104.1	4222.8
1021.8897	2949.8087	5036.8	4155.7
1022.0037	2950.8999	4949.4	4067.25
1022.1176	2951.9904	4854.75	3973
1022.2315	2953.0803	4796.9	3915.35
1022.3453	2954.1696	4735.85	3854.75
1022.4591	2955.2582	4685.35	3804.55
1022.5728	2956.3462	4630.25	3748.25
1022.6865	2957.4335	4581.4	3699.1
1022.8002	2958.5202	4553.6	3669.7
1022.9138	2959.6062	4504.6	3624.75
1023.0274	2960.6916	4484.65	3603.05
1023.141	2961.7764	4465.4	3583.25
1023.2545	2962.8605	4440.5	3555.9
1023.3679	2963.9439	4413.45	3531.5
1023.4813	2965.0267	4392.3	3511.45
1023.5947	2966.1089	4397.15	3494.35
1023.708	2967.1905	4358.85	3477.3
1023.8213	2968.2714	4328.2	3445.8
1023.9346	2969.3516	4324.4	3444.85
1024.0478	2970.4312	4305.85	3419.75
1024.1609	2971.5102	4290.3	3407.9
1024.274	2972.5885	4291.5	3410.9
1024.3871	2973.6662	4276.25	3389.2
1024.5002	2974.7432	4251.4	3369.95
1024.6132	2975.8196	4261.7	3380
1024.7261	2976.8954	4233.25	3351.4
1024.839	2977.9705	4213.2	3333.35
1024.9519	2979.045	4195.3	3313.55
1025.0647	2980.1188	4178.2	3298.75
1025.1775	2981.192	4165.8	3286.35
1025.2902	2982.2645	4127.05	3245.55
1025.4029	2983.3364	4092.3	3211.3
1025.5156	2984.4077	4058.35	3177.1
1025.6282	2985.4783	4048.05	3159.9
1025.7407	2986.5483	3998.8	3117.2
1025.8532	2987.6177	3957.2	3077.9
1025.9657	2988.6864	3931.35	3050.05
1026.0782	2989.7545	3908.6	3026.65
1026.1906	2990.8219	3866.95	2987.6
1026.3029	2991.8887	3826.8	2943.4
1026.4152	2992.9548	3787.7	2907.1
1026.5275	2994.0204	3760	2878.9
1026.6397	2995.0852	3732.2	2852.2
1026.7519	2996.1495	3697.25	2814.75
1026.864	2997.2131	3672.15	2790.9
1026.9761	2998.276	3637.55	2757.2
1027.0882	2999.3383	3622.55	2741.2
1027.2002	3000.4	3593.7	2711.05
1027.3122	3001.4611	3570	2689
1027.4241	3002.5215	3539.25	2657.65
1027.536	3003.5812	3514	2632.4
1027.6478	3004.6404	3507.8	2626.8
1027.7596	3005.6989	3490.35	2607.55
1027.8714	3006.7567	3475.05	2593.95
1027.9831	3007.8139	3459.2	2547.35
1028.0947	3008.8705	3434.35	2554.75
1028.2064	3009.9264	3428.1	2544.1
1028.3179	3010.9818	3402.05	2523.6
1028.4295	3012.0364	3400.65	2519.75
1028.541	3013.0905	3381.95	2500.85
1028.6524	3014.1439	3361.85	2477.85
1028.7638	3015.1966	3337.25	2455.35
1028.8752	3016.2487	3340.15	2457.15
1028.9865	3017.3002	3333.55	2448.9
1029.0978	3018.3511	3318.55	2438.6
1029.209	3019.4013	3305.45	2423.1
1029.3202	3020.4509	3305.75	2427.1
1029.4314	3021.4998	3286.6	2404.75
1029.5425	3022.5481	3285.7	2407.85
1029.6535	3023.5958	3267.8	2385.4
1029.7645	3024.6428	3258.2	2376.9
1029.8755	3025.6892	3243.45	2363.95
1029.9864	3026.735	3243.5	2360.05
1030.0973	3027.7802	3231.15	2351.2
1030.2082	3028.8247	3218.6	2337.7
1030.319	3029.8685	3205.55	2325
1030.4297	3030.9118	3189.8	2308.6
1030.5404	3031.9544	3195.85	2314.1
1030.6511	3032.9963	3187.15	2306.8
1030.7617	3034.0376	3185.3	2306.6
1030.8723	3035.0783	3171.3	2288
1030.9829	3036.1184	3168.6	2288.55
1031.0934	3037.1578	3152.5	2270.75
1031.2038	3038.1966	3146.4	2264.05
1031.3142	3039.2348	3146.5	2266.95
1031.4246	3040.2723	3136.25	2246.25
1031.5349	3041.3092	3133.85	2255.4
1031.6452	3042.3455	3129.5	2249.15
1031.7554	3043.3811	3096.4	2215.7
1031.8656	3044.4161	3086.25	2206
1031.9758	3045.4505	3079.4	2200.2
1032.0859	3046.4842	3076.3	2194.05
1032.1959	3047.5173	3056.55	2176.3
1032.3059	3048.5498	3050.5	2170.1
1032.4159	3049.5816	3056.7	2174.5
1032.5258	3050.6128	3029.8	2146.5
1032.6357	3051.6434	3030.4	2147.8
1032.7455	3052.6734	3025.6	2144.9
1032.8553	3053.7027	3018.2	2138.25
1032.9651	3054.7314	2991.55	2110.7
1033.0748	3055.7594	2992.75	2111.7
1033.1845	3056.7868	2978.75	2098.05
1033.2941	3057.8136	2969.65	2089.8
1033.4037	3058.8398	2957.55	2077.55
1033.5132	3059.8653	2929.35	2049.25
1033.6227	3060.8902	2924.55	2045.1
1033.7321	3061.9145	2916.75	2035.25
1033.8415	3062.9381	2915.8	2034.85
1033.9509	3063.9612	2910.55	2015.15
1034.0602	3064.9835	2897.7	2017.55
1034.1694	3066.0053	2887.95	2006.15
1034.2787	3067.0264	2875.4	1995.45
1034.3878	3068.0469	2875.15	1992.65
1034.497	3069.0668	2846.8	1962.1
1034.6061	3070.086	2837.1	1958.75
1034.7151	3071.1046	2849.1	1968.65
1034.8241	3072.1226	2815.9	1933.7
1034.9331	3073.1399	2803.75	1920.3
1035.042	3074.1567	2784.45	1902.9
1035.1508	3075.1727	2764.45	1882.95
1035.2597	3076.1882	2759	1879.1
1035.3684	3077.203	2759.9	1877.85
1035.4772	3078.2173	2748.15	1865.8
1035.5859	3079.2308	2732.4	1850.25
1035.6945	3080.2438	2728.6	1847
1035.8031	3081.2561	2706.45	1826.2
1035.9117	3082.2678	2700.6	1818.15
1036.0202	3083.2789	2684.45	1805.45
1036.1286	3084.2893	2684.8	1806.4
1036.2371	3085.2991	2661.25	1780.85
1036.3454	3086.3083	2647.7	1761.95
1036.4538	3087.3169	2637.05	1755.1
1036.562	3088.3248	2626.1	1743.55
1036.6703	3089.3321	2626.9	1745.4
1036.7785	3090.3388	2606.6	1726.55
1036.8866	3091.3449	2603.05	1723.55
1036.9948	3092.3503	2597.05	1715.95
1037.1028	3093.3551	2581.9	1705.15
1037.2108	3094.3593	2561.2	1683.85
1037.3188	3095.3629	2562.2	1683.05
1037.4267	3096.3658	2565.7	1683.85
1037.5346	3097.3681	2539.8	1659.45
1037.6425	3098.3698	2540.7	1658.9
1037.7503	3099.3708	2535.45	1646.75
1037.858	3100.3713	2510.15	1629.9
1037.9657	3101.3711	2499.75	1619.3
1038.0734	3102.3702	2609.15	1593.3
1038.181	3103.3688	2499.25	1617.95
1038.2886	3104.3667	2480.2	1602.65
1038.3961	3105.364	2459	1580.2
1038.5036	3106.3607	2442.2	1562.5
1038.611	3107.3568	2441.55	1561.25
1038.7184	3108.3522	2445.3	1566.3
1038.8257	3109.347	2426.25	1545.4
1038.933	3110.3412	2424.3	1539.35
1039.0403	3111.3348	2417.2	1538
1039.1475	3112.3277	2399.95	1519.9
1039.2547	3113.32	2388.15	1510.6
1039.3618	3114.3117	2384.25	1503
1039.4689	3115.3028	2382.35	1501.3
1039.5759	3116.2932	2359.35	1476.8
1039.6829	3117.2831	2355.7	1469.3
1039.7898	3118.2723	2338.35	1459.05
1039.8967	3119.2608	2333.05	1453.4
1040.0035	3120.2488	2327.15	1444.9
1040.1103	3121.2361	2312.55	1432.2
1040.2171	3122.2229	2313.05	1433.25
1040.3238	3123.209	2305.95	1424.15
1040.4305	3124.1944	2299.8	1419.85
1040.5371	3125.1793	2293.2	1413.45
1040.6437	3126.1635	2294.35	1414.2
1040.7502	3127.1471	2273.45	1394.05
1040.8567	3128.1301	2268.95	1389
1040.9631	3129.1125	2255.3	1376.7
1041.0695	3130.0942	2256.1	1375
1041.1759	3131.0753	2255.35	1368.45
1041.2822	3132.0558	2251.7	1369.15
1041.3884	3133.0357	2231.05	1350.95
1041.4946	3134.015	2227.05	1347.7
1041.6008	3134.9936	2235.1	1354.45
1041.7069	3135.9716	2229.05	1326.95
1041.813	3136.949	2211.35	1330.1
1041.919	3137.9258	2208.65	1321.55
1042.025	3138.902	2205.15	1320.35
1042.1309	3139.8775	2194.1	1313.6
1042.2368	3140.8524	2182.5	1302.4
1042.3427	3141.8267	2184.15	1301.55
1042.4485	3142.8004	2182.95	1302.35
1042.5542	3143.7735	2174.95	1290.3
1042.6599	3144.7459	2174.65	1291
1042.7656	3145.7178	2175.25	1297.1
1042.8712	3146.689	2157.35	1277.2
1042.9768	3147.6596	2145.4	1262.5
1043.0823	3148.6295	2145.25	1263.65
1043.1878	3149.5989	2137.2	1258.3
1043.2932	3150.5676	2124.95	1245.1
1043.3986	3151.5357	2123.25	1244.45
1043.5039	3152.5032	2110.4	1231.45
1043.6092	3153.4701	2099.2	1218.9
1043.7145	3154.4364	2108.7	1226.65
1043.8197	3155.402	2093	1214.55
1043.9248	3156.367	2084.35	1203.65
1044.03	3157.3315	2117.45	1199.65
1044.135	3158.2952	2076.15	1195.85
1044.24	3159.2584	2065	1185
1044.345	3160.221	2053.7	1172.7
1044.4499	3161.1829	2056.9	1178.3
1044.5548	3162.1442	2047.45	1167.5
1044.6596	3163.105	2035.3	1156.75
1044.7644	3164.065	2033.5	1153.75
1044.8692	3165.0245	2018.35	1135.35
1044.9739	3165.9834	2027	1149.6
1045.0785	3166.9416	2009.2	1129.25
1045.1831	3167.8993	2007.8	1127.05
1045.2877	3168.8563	1997.9	1116.75
1045.3922	3169.8127	1989.9	1110.35
1045.4966	3170.7684	1986.75	1108
1045.6011	3171.7236	1969.8	1087.55
1045.7054	3172.6782	1966.45	1087.1
1045.8098	3173.6321	1959.7	1079.15
1045.914	3174.5854	1967.2	1084.15
1046.0183	3175.5381	1962.95	1083.95
1046.1224	3176.4902	1949.9	1069.95
1046.2266	3177.4417	1949.1	1069.4
1046.3307	3178.3926	1943.4	1064.65
1046.4347	3179.3428	1936.25	1058.5
1046.5387	3180.2924	1919.25	1041.1
1046.6427	3181.2415	1923.1	1044.9
1046.7466	3182.1899	1921.3	1041.5
1046.8504	3183.1377	1908.6	1027.2
1046.9542	3184.0848	1910.2	1027.15
1047.058	3185.0314	1888.95	1008.85
1047.1617	3185.9773	1885.7	1005.9
1047.2654	3186.9227	1877.45	998.6
1047.369	3187.8674	1883.7	1004.9
1047.4726	3188.8115	1885	1001.35
1047.5761	3189.755	1871	991.8
1047.6796	3190.6979	1863.35	984.7
1047.783	3191.6402	1871.75	992.65
1047.8864	3192.5818	1857.1	976.8
1047.9898	3193.5229	1869.3	973.15
1048.0931	3194.4633	1852.1	972.35
1048.1963	3195.4031	1837.05	955.9
1048.2995	3196.3423	1840.25	959.5
1048.4027	3197.2809	1836.3	956.1
1048.5058	3198.2189	1834.95	954.65
1048.6089	3199.1563	1835.95	938
1048.7119	3200.0931	1816.6	936.75
1048.8148	3201.0292	1805.85	926.5
1048.9178	3201.9648	1807.1	927
1049.0206	3202.8997	1800.45	916.1
1049.1235	3203.834	1800.35	922.5
1049.2262	3204.7677	1793.15	916.35
1049.329	3205.7008	1790.15	909.7
1049.4317	3206.6333	1780	901.5
1049.5343	3207.5652	1784.45	902.8
1049.6369	3208.4964	1779.75	898.9
1049.7394	3209.4271	1771.7	891.9
1049.8419	3210.3571	1766.95	888.8
1049.9444	3211.2865	1759.2	879.05
1050.0468	3212.2154	1758.55	879
1050.1491	3213.1436	1756.8	873.05
1050.2514	3214.0712	1765.5	881.25
1050.3537	3214.9982	1746.1	868.25
1050.4559	3215.9246	1737.05	859.1
1050.5581	3216.8503	1736.5	858.1
1050.6602	3217.7755	1736.2	856
1050.7623	3218.7001	1729.05	849.15
1050.8643	3219.624	1729.3	848.45
1050.9663	3220.5473	1717.7	835.1
1051.0682	3221.4701	1708.45	827.7
1051.1701	3222.3922	1709.75	826.3
1051.2719	3223.3137	1707.65	829.25
1051.3737	3224.2346	1697.15	818.7
1051.4754	3225.1549	1699.25	818.75
1051.5771	3226.0746	1682.75	803.25
1051.6788	3226.9937	1681.45	799.45
1051.7804	3227.9121	1677.25	799.45
1051.8819	3228.83	1675.6	796.65
1051.9834	3229.7473	1675.75	796.35
1052.0849	3230.6639	1672.25	794.4
1052.1863	3231.5799	1659.55	780.45
1052.2876	3232.4954	1655.65	776.95
1052.3889	3233.4102	1655.05	775.55
1052.4902	3234.3244	1652.05	772.45
1052.5914	3235.238	1649.3	770.65
1052.6926	3236.151	1658.1	756.1
1052.7937	3237.0634	1634.6	756.05
1052.8948	3237.9752	1626.35	746.2
1052.9958	3238.8864	1634.8	756
1053.0968	3239.797	1624.1	742.9
1053.1977	3240.7069	1613.95	733.3
1053.2986	3241.6163	1610.4	729.4
1053.3994	3242.5251	1606.85	728.7
1053.5002	3243.4332	1612.2	733.85
1053.6009	3244.3408	1604.05	726.1
1053.7016	3245.2477	1591.95	712.1
1053.8022	3246.154	1589.3	707.35
1053.9028	3247.0598	1589.8	707.35
1054.0034	3247.9649	1582.5	703.75
1054.1039	3248.8694	1593.15	714.5
1054.2043	3249.7733	1575.95	697.25
1054.3047	3250.6766	1569.7	690.55
1054.4051	3251.5793	1569.4	688.75
1054.5054	3252.4814	1557.6	678.85
1054.6056	3253.3829	1560.15	680.1
1054.7058	3254.2838	1550.5	670.9
1054.806	3255.1841	1551.5	673.8
1054.9061	3256.0838	1541.85	663.65
1055.0061	3256.9829	1535.25	656.35
1055.1062	3257.8814	1534.35	651.55
1055.2061	3258.7792	1528.2	647.9
1055.306	3259.6765	1521.9	642.65
1055.4059	3260.5731	1510.1	630.2
1055.5057	3261.4692	1515.05	636.3
1055.6055	3262.3647	1503.2	623
1055.7052	3263.2595	1492.55	614
1055.8049	3264.1538	1476.5	597.5
1055.9045	3265.0474	1467.5	586.6
1056.0041	3265.9404	1459.1	581.45
1056.1036	3266.8329	1453.5	574.6
1056.2031	3267.7247	1453.75	566.15
1056.3025	3268.616	1435.05	558.3
1056.4019	3269.5066	1416.6	535.5
1056.5013	3270.3966	1400.9	520.4
1056.6005	3271.286	1390.1	511.65
