Software Version:	3.9.2.0
Unit SN:	10000200
Spectrometer SN:	6960
Date:	3/6/2024 9:32:50 AM
Data Line Index:	25
Spectral Points:	2048
Integration time (ms):	125
Averages:	20
Delay (ms):	30
Sequence Number:	1
Processing:	dark subtract
Laser Power (mW):	305
Laser Current (mA):	824
Laser Diode Temp (C):	25.1
Laser Case Temp (C):	23.6
System Temp (C):	23.4
Spectrometer Temp (C):	21.1
CCD Temp (C):	-0.034
Secondary Temp (C):	20.008
Heatsink Temp (C):	17.735
CCDPCB Temp (C):	30.193
SecondaryPCB Temp (C):	25.38

Wavelength	RamanShift	Raw Counts	Dark Subtracted
787.061	30.1047	529.65	123.55
787.2016	32.3739	530.6	125.8
787.3422	34.6426	541.05	136
787.4828	36.9109	552.55	144.65
787.6235	39.1787	557.75	145.45
787.7642	41.4461	572.95	155.85
787.9049	43.7131	586.2	166.45
788.0456	45.9796	596.6	174.55
788.1863	48.2456	614.8	190.2
788.3271	50.5112	624.65	195.1
788.4679	52.7764	645.9	213.6
788.6087	55.0411	654.4	216.4
788.7496	57.3054	674.2	231
788.8904	59.5692	691.35	247.8
789.0313	61.8326	713.9	266.3
789.1722	64.0955	733.9	285
789.3132	66.3579	759.6	304.7
789.4541	68.6199	788.4	328.9
789.5951	70.8815	855.15	392.65
789.7361	73.1426	964.8	495.75
789.8771	75.4032	1269.2	800.2
790.0181	77.6634	2029.8	1558.3
790.1592	79.9231	3854.3	3378.75
790.3003	82.1824	7818.35	7335.2
790.4414	84.4412	14846.15	14354.5
790.5825	86.6995	24386.1	23888.3
790.7237	88.9574	33483.55	32975.35
790.8648	91.2148	40025.75	39513.6
791.006	93.4717	43232.3	42716.55
791.1472	95.7282	44615.1	44095.1
791.2885	97.9842	45262.3	44740.05
791.4297	100.2398	45674	45152.75
791.571	102.4949	45385.4	44860.5
791.7123	104.7495	45841.25	45310.95
791.8536	107.0036	45567.5	45034.8
791.9949	109.2573	46205.65	45677.2
792.1363	111.5105	45532	44998.2
792.2777	113.7632	46122.35	45587.4
792.4191	116.0154	46193.8	45649.8
792.5605	118.2672	46560	46019.75
792.7019	120.5185	46514.9	45973.5
792.8434	122.7693	46588.6	46043.75
792.9849	125.0197	46399.95	45850.4
793.1264	127.2696	47075.55	46519.15
793.2679	129.519	47227.4	46669.3
793.4094	131.7679	47662.45	47103.2
793.551	134.0163	46518.9	45959.4
793.6926	136.2642	47022.2	46458.2
793.8342	138.5117	47744.2	47179.1
793.9758	140.7587	47590.75	47022.2
794.1175	143.0052	47725.25	47154.65
794.2591	145.2512	47179.85	46606.8
794.4008	147.4967	47875.05	47299.9
794.5425	149.7417	47603.35	47026.6
794.6842	151.9863	47761.95	47178.55
794.826	154.2304	47122	46538.55
794.9677	156.4739	47725.05	47133.7
795.1095	158.717	48011.75	47422.7
795.2513	160.9596	47930.3	47337.9
795.3931	163.2017	47379.85	46783.95
795.535	165.4433	48095.4	47498.45
795.6768	167.6844	47755.3	47153.9
795.8187	169.925	48186.4	47580.8
795.9606	172.1651	48035.45	47425.6
796.1025	174.4047	47834.85	47224.9
796.2445	176.6439	48102.55	47488.75
796.3864	178.8825	48209.85	47593.55
796.5284	181.1206	48409.35	47789.7
796.6704	183.3582	48521.4	47898.3
796.8124	185.5954	48031.8	47407.9
796.9544	187.832	48375.5	47745.7
797.0965	190.0681	48157.25	47526.75
797.2386	192.3037	48785.25	48149.6
797.3806	194.5388	49434.9	48798.5
797.5228	196.7734	48108.8	47470.3
797.6649	199.0075	49191.75	48550.25
797.807	201.2411	49034.95	48392.85
797.9492	203.4742	49618.5	48975.55
798.0914	205.7068	49624.6	48977
798.2336	207.9389	49649.55	49002.8
798.3758	210.1704	49537.95	48898.55
798.518	212.4015	50226.7	49597.55
798.6603	214.632	49314.65	48689.2
798.8025	216.862	50090.15	49465
798.9448	219.0915	50168.55	49542.1
799.0871	221.3205	49789.85	49159.55
799.2294	223.549	50367.8	49739.6
799.3718	225.777	50369.75	49742.45
799.5141	228.0044	50446.6	49809.2
799.6565	230.2314	50474.15	49836.3
799.7989	232.4578	50408.55	49765.6
799.9413	234.6837	50470.3	49820.05
800.0837	236.909	51599.9	50947.75
800.2262	239.1339	50146.45	49471.2
800.3687	241.3582	50799.35	50140.3
800.5111	243.582	50801.75	50110
800.6536	245.8053	50971.9	50291.45
800.7961	248.0281	50924.55	50251.45
800.9387	250.2503	51210.1	50533.95
801.0812	252.472	50950.5	50272.3
801.2238	254.6932	51063.65	50385.85
801.3664	256.9139	50987.3	50309.25
801.509	259.134	51984.25	51301.5
801.6516	261.3536	50642.6	49962
801.7942	263.5727	51642.15	50961
801.9369	265.7912	51233.85	50549.65
802.0795	268.0092	51389.95	50708.3
802.2222	270.2267	51418.45	50734.05
802.3649	272.4436	51186.05	50497
802.5076	274.6601	51578.7	50881.55
802.6504	276.8759	51782	51087.8
802.7931	279.0913	51767.3	51073.95
802.9359	281.3061	51595.25	50901.2
803.0787	283.5204	51915.25	51214.9
803.2215	285.7341	51782.2	51082.3
803.3643	287.9473	52438.55	51725.35
803.5071	290.16	51845	51138.65
803.6499	292.3721	52456.55	51759.45
803.7928	294.5837	51555.85	50855.2
803.9357	296.7947	51343.65	50644.95
804.0786	299.0052	51990.2	51288.4
804.2215	301.2152	51573.7	50869.45
804.3644	303.4246	52223.25	51523.85
804.5074	305.6334	52137.7	51434.5
804.6503	307.8418	51475.3	50767.95
804.7933	310.0495	51868.4	51161.15
804.9363	312.2568	51641.4	50936.55
805.0793	314.4635	51545.3	50836.5
805.2223	316.6696	51722.85	51010.75
805.3653	318.8752	52126.2	51402.85
805.5084	321.0802	50964.1	50248.1
805.6514	323.2847	51346.3	50631.3
805.7945	325.4887	51545.25	50828.7
805.9376	327.692	51194.45	50475.8
806.0807	329.8949	51614.15	50894
806.2238	332.0972	51442.5	50723.15
806.367	334.2989	51699.6	50975
806.5101	336.5001	52099.7	51377.5
806.6533	338.7007	51275.3	50548.2
806.7965	340.9008	51635.65	50908.4
806.9397	343.1003	51613.45	50884.4
807.0829	345.2992	51965.9	51236.35
807.2261	347.4976	51497.25	50763.75
807.3693	349.6955	51606.3	50868.65
807.5126	351.8927	51392.55	50655.55
807.6559	354.0895	51692.85	50945.45
807.7991	356.2856	51543.6	50804.6
807.9424	358.4812	51957.05	51216.75
808.0857	360.6763	51529.2	50786.95
808.2291	362.8707	51601.25	50857
808.3724	365.0646	51500.15	50752.55
808.5158	367.258	51526.55	50779
808.6591	369.4508	51266	50515.55
808.8025	371.643	51607.3	50856.75
808.9459	373.8346	51500	50747.4
809.0893	376.0257	51385.4	50630
809.2327	378.2162	51235.55	50482.05
809.3762	380.4062	51015.9	50260.9
809.5196	382.5956	51120.8	50368.45
809.6631	384.7844	51222.65	50476.9
809.8066	386.9726	51166.55	50422.75
809.9501	389.1603	51356.3	50611.15
810.0936	391.3474	50779.7	49984.1
810.2371	393.5339	51304.55	50555.45
810.3806	395.7199	50594.25	49844.75
810.5241	397.9052	50632.75	49883.5
810.6677	400.09	50833.5	50083.45
810.8113	402.2743	50914.9	50164.95
810.9548	404.4579	50885.05	50131.8
811.0984	406.641	50709.75	49954.65
811.2421	408.8235	51011.35	50256.5
811.3857	411.0054	50949.85	50187.7
811.5293	413.1868	50987.45	50225.55
811.673	415.3675	50973.35	50205.05
811.8166	417.5477	51051.8	50286.5
811.9603	419.7273	50873.85	50106.6
812.104	421.9064	50660.2	49885
812.2477	424.0848	50757.35	49986.05
812.3914	426.2627	50771.8	50002.65
812.5351	428.4399	50266.65	49496.9
812.6788	430.6166	50063.65	49288.4
812.8226	432.7928	50306.4	49527.05
812.9663	434.9683	49966.55	49189.8
813.1101	437.1432	49980.1	49199.2
813.2539	439.3176	50032.8	49257.05
813.3977	441.4914	49602.9	48827.8
813.5415	443.6645	49667.4	48889.65
813.6853	445.8371	49536.25	48757.95
813.8291	448.0091	49243.3	48467.9
813.973	450.1806	49215.1	48436.65
814.1168	452.3514	49082.85	48299.55
814.2607	454.5216	49046.65	48255.3
814.4046	456.6913	48886.85	48101.65
814.5485	458.8603	48956.95	48172.9
814.6924	461.0288	48811.15	48030.25
814.8363	463.1967	48866.3	48084.3
814.9802	465.3639	48953.25	48167.25
815.1241	467.5306	48541.2	47756.45
815.2681	469.6967	48643.6	47859.55
815.412	471.8622	48513.5	47728.85
815.556	474.0271	48511.65	47727.15
815.7	476.1914	48501.35	47712.9
815.844	478.3551	48487.8	47701.7
815.988	480.5182	48643.75	47856.05
816.132	482.6807	48461.35	47671.2
816.276	484.8426	48502.65	47714.5
816.4201	487.0039	48754.35	47966.1
816.5641	489.1647	48753.65	47963
816.7082	491.3248	48601.2	47807.5
816.8522	493.4843	48751.2	47958.35
816.9963	495.6432	48721.5	47928.35
817.1404	497.8015	48379.4	47584.25
817.2845	499.9592	48488.6	47694.25
817.4286	502.1163	48425.55	47631.45
817.5727	504.2728	48285.8	47487.05
817.7168	506.4287	48390.15	47595.15
817.861	508.5839	48186	47389.05
818.0051	510.7386	48155.85	47357.6
818.1493	512.8927	48236.25	47432.9
818.2935	515.0461	48214.65	47414
818.4377	517.199	48235.25	47433.9
818.5818	519.3512	48288.55	47490.5
818.726	521.5029	48128.6	47321.75
818.8703	523.6539	48214.75	47411.9
819.0145	525.8043	48028.15	47224.9
819.1587	527.9541	48061.4	47255.9
819.303	530.1033	47900.9	47094.1
819.4472	532.2519	47777	46973.05
819.5915	534.3999	47778.25	46973.5
819.7357	536.5472	47868	47062.25
819.88	538.694	47651.05	46847.15
820.0243	540.8401	47790	46984.8
820.1686	542.9856	47758.3	46949.25
820.3129	545.1305	47659.3	46850.4
820.4572	547.2748	47736.3	46925.85
820.6016	549.4185	47705.6	46895
820.7459	551.5615	47651.7	46845.05
820.8902	553.704	47642	46834.05
821.0346	555.8458	47517.95	46711.7
821.1789	557.987	47541.8	46734.95
821.3233	560.1276	47504	46695.75
821.4677	562.2675	47495.75	46686.35
821.6121	564.4069	47505.9	46695.5
821.7565	566.5456	47482.65	46670.85
821.9009	568.6837	47416.85	46604.3
822.0453	570.8212	47290.75	46478.45
822.1897	572.958	47014.75	46199.65
822.3342	575.0942	46919.9	46106.1
822.4786	577.2299	46791.35	45975.55
822.6231	579.3648	46696.3	45881.75
822.7675	581.4992	46508.1	45694.35
822.912	583.6329	46362.75	45549.45
823.0565	585.766	46286.5	45472.5
823.201	587.8985	46259.55	45445.5
823.3454	590.0304	46048.8	45219.85
823.4899	592.1616	46061.8	45241.15
823.6345	594.2922	46020.2	45200.65
823.779	596.4222	45865.9	45047.05
823.9235	598.5515	45798.35	44978.6
824.068	600.6802	45629.35	44809.25
824.2126	602.8083	45372.3	44554.3
824.3571	604.9358	45380.15	44557.95
824.5017	607.0626	45294	44474.05
824.6462	609.1888	45180.45	44358.85
824.7908	611.3144	45232.25	44410.15
824.9354	613.4393	45078	44254.65
825.08	615.5636	45102.05	44278.15
825.2246	617.6873	45150.5	44327.95
825.3692	619.8103	45199	44373.1
825.5138	621.9327	45055.3	44229.05
825.6584	624.0544	45077.8	44253.8
825.803	626.1756	44938.4	44114.95
825.9477	628.2961	44850.6	44025.95
826.0923	630.4159	44736.05	43908.6
826.237	632.5351	44723.15	43896.45
826.3816	634.6537	44681.75	43853.1
826.5263	636.7716	44546.65	43717.6
826.6709	638.8889	44577.85	43749.6
826.8156	641.0056	44595.55	43765.65
826.9603	643.1216	44507.5	43678.65
827.105	645.237	44622.3	43791.4
827.2497	647.3518	44469	43640.75
827.3944	649.4659	44455.5	43626.3
827.5391	651.5793	44336.15	43507.5
827.6838	653.6922	44231.85	43402.4
827.8285	655.8043	44168.65	43337.55
827.9733	657.9159	44160.3	43325.95
828.118	660.0268	43983.25	43146.9
828.2627	662.137	43996.35	43162.75
828.4075	664.2466	43892.1	43058.95
828.5522	666.3556	43883.15	43050.8
828.697	668.4639	43733.05	42894.7
828.8418	670.5716	43757.85	42924.8
828.9865	672.6786	43753.8	42917.7
829.1313	674.785	43550.8	42715.15
829.2761	676.8907	43399.1	42562.5
829.4209	678.9958	43507.9	42675.65
829.5657	681.1002	43350.35	42511.9
829.7105	683.204	43278.45	42437
829.8553	685.3072	43205	42367.35
830.0001	687.4097	43067	42230.2
830.1449	689.5115	43126.6	42288.8
830.2898	691.6127	43157.65	42320.85
830.4346	693.7132	43000.45	42163.55
830.5794	695.8131	43042.95	42186.2
830.7243	697.9123	43002	42163.3
830.8691	700.0109	42896.45	42058.05
831.014	702.1089	42876.75	42039.2
831.1588	704.2061	42740.75	41901.9
831.3037	706.3028	42781.4	41939.6
831.4486	708.3987	42774.95	41934.5
831.5935	710.4941	42637.65	41795.25
831.7383	712.5887	42607.65	41766.15
831.8832	714.6827	42635.75	41789.65
832.0281	716.7761	42613.2	41771.7
832.173	718.8688	42518.85	41674.2
832.3179	720.9608	42455.6	41609.85
832.4628	723.0522	42503.55	41655.25
832.6077	725.1429	42345.8	41501.9
832.7527	727.233	42312.75	41469.15
832.8976	729.3224	42374.3	41529.65
833.0425	731.4112	42278.65	41430.1
833.1874	733.4993	42275.1	41427.1
833.3324	735.5867	42056.95	41209.65
833.4773	737.6735	42024.25	41176.25
833.6222	739.7596	41870.75	41022.55
833.7672	741.845	41749.35	40901.95
833.9122	743.9298	41678.4	40829.65
834.0571	746.014	41631.7	40786.85
834.2021	748.0974	41579.75	40731.1
834.347	750.1802	41409.1	40559.4
834.492	752.2624	41298.4	40449.35
834.637	754.3439	41117.4	40267
834.782	756.4247	41029	40170.65
834.9269	758.5048	40849.2	40000.25
835.0719	760.5843	40851.75	40004.35
835.2169	762.6631	40747.45	39897.8
835.3619	764.7413	40663.95	39817.9
835.5069	766.8188	40760.75	39909.2
835.6519	768.8956	40624.8	39770.9
835.7969	770.9718	40694.2	39844.4
835.9419	773.0473	40490.15	39640.75
836.0869	775.1221	40474.5	39625.85
836.232	777.1962	40273.9	39423.55
836.377	779.2697	40246.8	39394.2
836.522	781.3426	40221.95	39352.6
836.667	783.4147	40171.35	39316.3
836.8121	785.4862	40162.55	39312.95
836.9571	787.557	40013.45	39162.4
837.1021	789.6271	39870.55	39016.55
837.2472	791.6966	39728	38876.65
837.3922	793.7654	39541.6	38689.6
837.5373	795.8335	39482.25	38629.2
837.6823	797.901	39363.65	38511.1
837.8274	799.9678	39295.5	38439.75
837.9724	802.0339	39197.65	38344.75
838.1175	804.0993	39190.6	38326.35
838.2626	806.1641	39000.4	38145.2
838.4076	808.2282	38915.9	38061.35
838.5527	810.2916	38908.6	38051.1
838.6978	812.3544	38870.7	38020
838.8428	814.4164	38735.95	37882
838.9879	816.4778	38795.3	37939.25
839.133	818.5385	38682.6	37825.8
839.2781	820.5986	38680.55	37823.35
839.4232	822.658	38696.45	37838.85
839.5682	824.7166	38537.8	37682.7
839.7133	826.7747	38693.65	37838.55
839.8584	828.832	38628.9	37774.6
840.0035	830.8886	38527.45	37669.25
840.1486	832.9446	38491.9	37635.1
840.2937	834.9999	38387.9	37533.5
840.4388	837.0545	38319.45	37458.85
840.5839	839.1085	38274.75	37416.7
840.729	841.1618	38065.5	37201.5
840.8741	843.2143	37961.3	37103.05
841.0192	845.2662	37830.3	36972.1
841.1643	847.3175	37813.45	36956.75
841.3095	849.368	37684.35	36826.95
841.4546	851.4179	37689.25	36829.1
841.5997	853.467	37463.55	36607.35
841.7448	855.5155	37409.6	36549.8
841.8899	857.5633	37451.7	36593.1
842.0351	859.6105	37246.35	36388.3
842.1802	861.6569	37225.5	36365.5
842.3253	863.7027	37156	36295.9
842.4704	865.7478	37098.85	36238.3
842.6156	867.7922	37113.8	36254.55
842.7607	869.8359	36973.45	36112.55
842.9058	871.8789	36946.25	36085.25
843.0509	873.9212	36900	36007
843.1961	875.9629	36722.1	35861.7
843.3412	878.0039	36754.15	35890.7
843.4863	880.0441	36761.3	35901.2
843.6315	882.0837	36704	35840
843.7766	884.1226	36723.15	35859
843.9218	886.1609	36675.85	35813.85
844.0669	888.1984	36718.8	35856.45
844.212	890.2352	36804.55	35945.35
844.3572	892.2714	36713.65	35846.8
844.5023	894.3069	36625.9	35762.65
844.6475	896.3416	36380.5	35516.85
844.7926	898.3757	36390.05	35524.5
844.9377	900.4091	36299.6	35439.1
845.0829	902.4418	36266.7	35398.6
845.228	904.4739	36136.7	35272.45
845.3732	906.5052	36135	35271.75
845.5183	908.5358	36063.8	35201.65
845.6635	910.5658	35989.35	35123.7
845.8086	912.595	35881.1	35015.65
845.9538	914.6236	35777.1	34911.85
846.0989	916.6515	35680.45	34816.75
846.2441	918.6786	35550.95	34685.5
846.3892	920.7051	35526.85	34661.4
846.5344	922.7309	35596.75	34731.4
846.6795	924.756	35427.8	34563.45
846.8246	926.7804	35402.9	34536.35
846.9698	928.8041	35159.7	34292.9
847.1149	930.8272	35173.75	34307.2
847.2601	932.8495	35038	34170.9
847.4052	934.8711	35027.7	34158.7
847.5504	936.892	34873.1	34007.2
847.6955	938.9123	34800.35	33933.35
847.8407	940.9318	34690.95	33823.75
847.9858	942.9506	34617.4	33749
848.131	944.9688	34486.25	33617.05
848.2761	946.9862	34422.75	33556.2
848.4213	949.003	34240.75	33372.35
848.5664	951.019	34150.65	33283.3
848.7115	953.0344	34052.05	33185.05
848.8567	955.0491	33977.85	33109.5
849.0018	957.063	33984.85	33117.25
849.147	959.0763	34023.5	33156.5
849.2921	961.0888	33856.65	32986.25
849.4373	963.1007	33852.25	32984.5
849.5824	965.1119	33844	32976.95
849.7275	967.1223	33715.45	32850.2
849.8727	969.1321	33669.1	32801.45
850.0178	971.1412	33639.75	32774.3
850.1629	973.1495	33492.95	32625.9
850.3081	975.1572	33464.95	32548.55
850.4532	977.1641	33411	32541.85
850.5983	979.1704	33308.35	32437.7
850.7435	981.1759	33233.65	32361.35
850.8886	983.1808	33207.2	32335.95
851.0337	985.1849	33080.15	32204.8
851.1788	987.1884	32984.1	32113.5
851.324	989.1911	32941.95	32068.15
851.4691	991.1932	32912.35	32040.8
851.6142	993.1945	32801.55	31932.25
851.7593	995.1951	32594.65	31724.05
851.9045	997.1951	32570.1	31697.05
852.0496	999.1943	32440.2	31568.9
852.1947	1001.1928	32299.65	31427.85
852.3398	1003.1906	32160.45	31291.65
852.4849	1005.1877	32148.15	31275.9
852.63	1007.1841	32086.65	31216.2
852.7751	1009.1798	31937.55	31065
852.9202	1011.1748	31812.85	30941.45
853.0653	1013.1691	31730.3	30860.6
853.2104	1015.1627	31584.05	30713.5
853.3555	1017.1556	31356.4	30487.55
853.5006	1019.1477	31250.25	30379.55
853.6457	1021.1392	31074.2	30204.1
853.7908	1023.1299	30968.55	30095.75
853.9359	1025.12	30864.75	29991.45
854.081	1027.1093	30741	29873.7
854.2261	1029.0979	30685.25	29817.3
854.3712	1031.0859	30568.4	29700.5
854.5163	1033.0731	30503.35	29633.45
854.6613	1035.0596	30411.75	29542.45
854.8064	1037.0454	30255.6	29382.55
854.9515	1039.0304	30170.05	29295.8
855.0965	1041.0148	30041.05	29169.1
855.2416	1042.9985	29978.9	29106.25
855.3867	1044.9814	29918.4	29048.5
855.5317	1046.9636	29781.15	28906.2
855.6768	1048.9452	29686.9	28816.75
855.8219	1050.926	29691.45	28821.25
855.9669	1052.9061	29601.95	28731.6
856.112	1054.8855	29489.95	28615.95
856.257	1056.8642	29460.15	28587.1
856.4021	1058.8421	29420.1	28544.65
856.5471	1060.8194	29360.55	28486.7
856.6921	1062.7959	29256.15	28382.85
856.8372	1064.7717	29235.25	28361.1
856.9822	1066.7469	29125.15	28251
857.1272	1068.7213	29116.35	28242.15
857.2723	1070.695	29083.55	28211.15
857.4173	1072.6679	28921.55	28049.05
857.5623	1074.6402	28973.2	28098.85
857.7073	1076.6117	28954.8	28076.55
857.8523	1078.5826	28894.25	28021.05
857.9973	1080.5527	28729.25	27851.85
858.1423	1082.5221	28618.95	27742.65
858.2873	1084.4908	28570.8	27698.55
858.4323	1086.4587	28444.3	27570.45
858.5773	1088.426	28441.45	27568.15
858.7223	1090.3925	28309.5	27426.9
858.8673	1092.3584	28289.7	27414.95
859.0123	1094.3235	28126.85	27252.65
859.1573	1096.2879	28070.1	27195.75
859.3022	1098.2515	28009.25	27135.55
859.4472	1100.2145	28057.1	27181.25
859.5922	1102.1767	27969.2	27092.35
859.7371	1104.1382	27981.75	27106.45
859.8821	1106.099	27932.55	27054.25
860.027	1108.0591	27899.35	27024.5
860.172	1110.0185	27843.1	26969
860.3169	1111.9771	27861.45	26987.65
860.4619	1113.9351	27752.45	26876.25
860.6068	1115.8923	27745.25	26870.35
860.7517	1117.8488	27718.25	26839.85
860.8967	1119.8045	27598.7	26724.55
861.0416	1121.7596	27526.4	26649.65
861.1865	1123.7139	27294.15	26419.45
861.3314	1125.6675	27184.25	26307.8
861.4763	1127.6204	27196.25	26322.1
861.6212	1129.5726	27116.3	26239.45
861.7661	1131.524	27100	26225.7
861.911	1133.4748	26992.85	26117.1
862.0559	1135.4248	26880.6	26002.65
862.2008	1137.3741	26798.7	25923.7
862.3457	1139.3226	26690.05	25813.3
862.4905	1141.2705	26726.75	25848.2
862.6354	1143.2176	26568.25	25686.25
862.7803	1145.164	26546.8	25671.25
862.9251	1147.1097	26474.2	25596.5
863.07	1149.0546	26468.2	25592.6
863.2148	1150.9989	26432.95	25554.85
863.3597	1152.9424	26403.65	25524.85
863.5045	1154.8852	26294.65	25417.95
863.6493	1156.8272	26313.05	25436.75
863.7942	1158.7686	26268.6	25386.25
863.939	1160.7092	26167.4	25288.75
864.0838	1162.6491	26051.3	25172.15
864.2286	1164.5883	26025.75	25148.15
864.3734	1166.5267	25983.7	25106.3
864.5182	1168.4644	25990	25110.65
864.663	1170.4014	25993.6	25113.7
864.8078	1172.3377	26035.45	25159.6
864.9526	1174.2732	25993.6	25117.2
865.0974	1176.2081	26046.85	25168.4
865.2421	1178.1421	26097.5	25215.9
865.3869	1180.0755	26155.85	25279.35
865.5317	1182.0082	26118.7	25243.25
865.6764	1183.9401	26075.85	25196.9
865.8212	1185.8713	25939.8	25063.8
865.9659	1187.8017	25767.15	24888.65
866.1106	1189.7315	25653	24778.7
866.2554	1191.6605	25440.45	24565.4
866.4001	1193.5888	25299.6	24422.55
866.5448	1195.5163	25251.95	24376.35
866.6895	1197.4432	25138.15	24258.6
866.8342	1199.3693	25100.55	24225.7
866.9789	1201.2947	24918.85	24037.95
867.1236	1203.2193	24836.15	23958.95
867.2683	1205.1432	24793.7	23915.3
867.413	1207.0664	24751.2	23874.15
867.5576	1208.9889	24658.75	23779.65
867.7023	1210.9106	24572.4	23694.5
867.847	1212.8316	24474.5	23595.85
867.9916	1214.7519	24454.6	23565.45
868.1363	1216.6715	24376.7	23498.1
868.2809	1218.5903	24335.1	23457.95
868.4255	1220.5084	24262.75	23384.95
868.5701	1222.4257	24286.75	23407.2
868.7148	1224.3424	24172.8	23295.6
868.8594	1226.2583	24148.7	23263.65
869.004	1228.1735	24080.8	23201.05
869.1486	1230.0879	24027.4	23146.65
869.2932	1232.0016	23951.3	23073.75
869.4377	1233.9146	23947.25	23065.9
869.5823	1235.8269	23893	23016.15
869.7269	1237.7384	23921.9	23043.5
869.8715	1239.6492	23805.05	22927.4
870.016	1241.5592	23827.5	22947.05
870.1606	1243.4686	23775.65	22897.55
870.3051	1245.3772	23774.3	22895.7
870.4496	1247.285	23762.3	22882.65
870.5941	1249.1922	23769.9	22889.9
870.7387	1251.0986	23847.75	22969.45
870.8832	1253.0042	23789.8	22910.15
871.0277	1254.9092	23838.9	22959.75
871.1722	1256.8134	23855.9	22977.1
871.3167	1258.7169	23965.35	23084.85
871.4611	1260.6196	23972.55	23093.6
871.6056	1262.5216	23951.4	23070.2
871.7501	1264.4229	23877.5	22999.2
871.8945	1266.3234	23837.75	22957.6
872.039	1268.2232	23765.55	22885.4
872.1834	1270.1223	23643.3	22763.2
872.3278	1272.0207	23581.35	22700.1
872.4723	1273.9183	23513.8	22627.4
872.6167	1275.8151	23479.05	22599.95
872.7611	1277.7113	23510.5	22629.8
872.9055	1279.6067	23490.25	22611.2
873.0499	1281.5014	23592.9	22708.4
873.1943	1283.3953	23717.35	22836.75
873.3386	1285.2885	23898.65	23018.15
873.483	1287.181	24041.1	23161.05
873.6274	1289.0727	24121.7	23241.55
873.7717	1290.9637	23979.65	23098.65
873.9161	1292.854	23897.05	23019.25
874.0604	1294.7435	23719.7	22837.9
874.2047	1296.6323	23564.2	22685.8
874.349	1298.5204	23423.75	22540.25
874.4933	1300.4077	23341.4	22459.55
874.6376	1302.2943	23219.1	22339.15
874.7819	1304.1802	23222	22343
874.9262	1306.0653	23105.65	22222.7
875.0705	1307.9497	23091.3	22212.7
875.2147	1309.8333	23021.8	22142.9
875.359	1311.7162	22976.8	22096.75
875.5032	1313.5984	22959.95	22077.15
875.6475	1315.4798	22812.25	21928.8
875.7917	1317.3605	22795.6	21908.6
875.9359	1319.2405	22780	21897
876.0801	1321.1197	22766.05	21882.9
876.2243	1322.9982	22670.85	21784.6
876.3685	1324.876	22634.05	21751.95
876.5127	1326.753	22493	21613.3
876.6569	1328.6293	22384.05	21501.2
876.801	1330.5048	22342.45	21461.45
876.9452	1332.3796	22171.85	21293.25
877.0893	1334.2537	22152.9	21247.1
877.2335	1336.127	22032.9	21152.25
877.3776	1337.9996	21969.7	21088.55
877.5217	1339.8714	21881	21000.25
877.6658	1341.7426	21856.15	20933.9
877.8099	1343.6129	21812.95	20931.65
877.954	1345.4826	21726.85	20845.1
878.0981	1347.3515	21737.65	20853.2
878.2422	1349.2196	21657.6	20774.15
878.3862	1351.087	21641.15	20759.8
878.5303	1352.9537	21618.95	20736.65
878.6743	1354.8197	21638.65	20758.85
878.8184	1356.6849	21630.15	20747.9
878.9624	1358.5493	21544.6	20663.25
879.1064	1360.4131	21528	20646.55
879.2504	1362.276	21495.15	20614.1
879.3944	1364.1383	21515.05	20634.95
879.5384	1365.9998	21430.65	20541.45
879.6823	1367.8606	21390.8	20508
879.8263	1369.7206	21375.6	20493.85
879.9702	1371.5799	21292.35	20409.85
880.1142	1373.4384	21203.05	20324.05
880.2581	1375.2962	21225.2	20340.3
880.402	1377.1533	21053.05	20172.2
880.5459	1379.0096	20909.05	20026.65
880.6898	1380.8652	20854.3	19973.05
880.8337	1382.7201	20784.65	19900.4
880.9776	1384.5742	20648.55	19767.2
881.1215	1386.4275	20574.8	19693.05
881.2653	1388.2802	20455.6	19574.45
881.4092	1390.132	20380.4	19499.35
881.553	1391.9832	20376.55	19494.3
881.6968	1393.8336	20276.45	19394.95
881.8406	1395.6832	20246.6	19361.8
881.9844	1397.5322	20172.15	19290.05
882.1282	1399.3803	20079.25	19191.05
882.272	1401.2278	19983.6	19100.2
882.4158	1403.0745	19977.55	19095.8
882.5595	1404.9204	19879.4	18998.3
882.7033	1406.7656	19815.05	18933.75
882.847	1408.6101	19721.85	18838.2
882.9908	1410.4538	19621.65	18739.95
883.1345	1412.2968	19592.95	18711.05
883.2782	1414.139	19534.65	18652.45
883.4219	1415.9805	19526.35	18643.9
883.5656	1417.8213	19444.4	18541.9
883.7092	1419.6613	19353.3	18471.45
883.8529	1421.5006	19385.05	18501.95
883.9965	1423.3391	19336.25	18452.45
884.1402	1425.1769	19297.6	18413.55
884.2838	1427.0139	19317.15	18435.15
884.4274	1428.8502	19396.2	18514
884.571	1430.6858	19421.75	18539.55
884.7146	1432.5206	19368.35	18484.85
884.8582	1434.3547	19393.3	18510.1
885.0018	1436.188	19297.95	18416.05
885.1453	1438.0206	19270.5	18389.3
885.2889	1439.8524	19195.15	18312.15
885.4324	1441.6835	19196.75	18317.25
885.5759	1443.5139	19161.1	18275.65
885.7194	1445.3435	19079.05	18196.4
885.8629	1447.1724	19067.8	18186
886.0064	1449.0005	19078.55	18197.05
886.1499	1450.8279	19014.95	18129.9
886.2933	1452.6545	18982.8	18098.5
886.4368	1454.4804	18971.6	18089.45
886.5802	1456.3056	18934.6	18044.5
886.7237	1458.13	18887.75	18004.95
886.8671	1459.9536	18853.9	17972.75
887.0105	1461.7766	18750.8	17868
887.1539	1463.5987	18698.7	17817.55
887.2972	1465.4202	18615.8	17733.35
887.4406	1467.2409	18505.75	17622.55
887.584	1469.0608	18514.65	17634.8
887.7273	1470.88	18403.7	17520.25
887.8706	1472.6984	18384.4	17503.15
888.0139	1474.5161	18266.35	17380
888.1572	1476.3331	18231.05	17349.05
888.3005	1478.1493	18209.1	17324.7
888.4438	1479.9648	18177.85	17296.7
888.5871	1481.7795	18123.15	17240.1
888.7303	1483.5935	18111.4	17227.7
888.8736	1485.4067	18036.15	17154.65
889.0168	1487.2192	18052.45	17168.45
889.16	1489.031	18027.55	17143.95
889.3032	1490.842	17997.8	17115.65
889.4464	1492.6522	17989.35	17109.6
889.5896	1494.4618	17888.85	17003.7
889.7327	1496.2705	17892	17010.3
889.8759	1498.0785	17814.2	16930.95
890.019	1499.8858	17796.05	16911.5
890.1622	1501.6924	17706.25	16823.9
890.3053	1503.4981	17671.5	16786.7
890.4484	1505.3032	17659.5	16781.15
890.5914	1507.1075	17627.95	16743.3
890.7345	1508.911	17572.5	16689.9
890.8776	1510.7138	17520.6	16636.3
891.0206	1512.5159	17469.2	16585.1
891.1637	1514.3172	17419.35	16538.3
891.3067	1516.1178	17339.6	16457.5
891.4497	1517.9176	17339.8	16456.05
891.5927	1519.7166	17285.4	16402.2
891.7357	1521.515	17231.95	16341.35
891.8786	1523.3126	17146.2	16263.35
892.0216	1525.1094	17152	16266
892.1645	1526.9055	17057.05	16174.2
892.3074	1528.7008	16990.05	16109.8
892.4503	1530.4954	16891.5	16006.4
892.5932	1532.2893	16849.85	15966.15
892.7361	1534.0824	16737.15	15851.1
892.879	1535.8747	16719.9	15838.8
893.0218	1537.6663	16670.15	15786
893.1647	1539.4572	16628.45	15745.8
893.3075	1541.2473	16606.25	15719.55
893.4503	1543.0367	16526.7	15644.3
893.5931	1544.8253	16467.95	15581.25
893.7359	1546.6132	16463.55	15579.2
893.8787	1548.4003	16377.45	15484.9
894.0214	1550.1867	16356.75	15463.95
894.1642	1551.9723	16341.5	15452.9
894.3069	1553.7572	16286.25	15401.9
894.4496	1555.5414	16242.25	15360.1
894.5923	1557.3247	16211.85	15328.45
894.735	1559.1074	16179.2	15297.6
894.8777	1560.8893	16153.3	15269.6
895.0204	1562.6705	16129.3	15249.45
895.163	1564.4509	16129.85	15247.75
895.3056	1566.2305	16079.85	15198
895.4482	1568.0094	16085.65	15202.65
895.5908	1569.7876	16054.1	15171.6
895.7334	1571.565	16024.25	15141.45
895.876	1573.3417	15999.3	15117.3
896.0186	1575.1176	15947.3	15065.35
896.1611	1576.8928	15888.8	15006.45
896.3036	1578.6672	15827.25	14945.95
896.4461	1580.4409	15810.95	14928.9
896.5886	1582.2138	15805.25	14921.1
896.7311	1583.986	15785.9	14903.6
896.8736	1585.7575	15793.65	14912.65
897.0161	1587.5282	15763.5	14882.8
897.1585	1589.2981	15771.85	14892.05
897.3009	1591.0673	15721.05	14840.1
897.4433	1592.8358	15712.6	14832.15
897.5857	1594.6035	15678.05	14796.05
897.7281	1596.3704	15603.35	14719.55
897.8705	1598.1366	15535.95	14652.65
898.0128	1599.9021	15446.75	14564.9
898.1551	1601.6668	15369.6	14484.05
898.2975	1603.4308	15293.45	14410.15
898.4398	1605.194	15247.25	14360.05
898.5821	1606.9564	15208.2	14329.65
898.7243	1608.7182	15209.1	14324
898.8666	1610.4791	15223.55	14344
899.0088	1612.2394	15259.3	14379.2
899.1511	1613.9988	15311.8	14430.65
899.2933	1615.7576	15374.5	14494.3
899.4355	1617.5156	15401.6	14517.45
899.5776	1619.2728	15344.4	14463
899.7198	1621.0293	15249.25	14370.35
899.862	1622.785	15101.3	14216.35
900.0041	1624.54	14930.45	14046.15
900.1462	1626.2942	14741.8	13859.7
900.2883	1628.0477	14583.5	13699.5
900.4304	1629.8005	14487	13602.8
900.5725	1631.5525	14347.45	13466
900.7145	1633.3037	14242.85	13362.9
900.8566	1635.0542	14196.4	13314.55
900.9986	1636.804	14129.5	13247.3
901.1406	1638.553	14127.6	13159.05
901.2826	1640.3013	14003.2	13121.55
901.4245	1642.0488	13952	13066.85
901.5665	1643.7955	13861.4	12980.5
901.7085	1645.5416	13777	12894.8
901.8504	1647.2868	13746.8	12863.5
901.9923	1649.0313	13693.1	12811.35
902.1342	1650.7751	13652.45	12769.2
902.2761	1652.5181	13612.5	12731.6
902.4179	1654.2604	13548.75	12666.25
902.5598	1656.0019	13525.25	12644.75
902.7016	1657.7427	13511.65	12631.15
902.8434	1659.4828	13500.4	12618.25
902.9852	1661.222	13467.6	12584.35
903.127	1662.9606	13460.3	12577.95
903.2687	1664.6984	13426.9	12544.4
903.4105	1666.4354	13440.8	12557.7
903.5522	1668.1717	13402.65	12519
903.6939	1669.9072	13298.35	12414.7
903.8356	1671.642	13250.55	12367.1
903.9773	1673.3761	13147.3	12265.95
904.119	1675.1094	13068.7	12188.1
904.2606	1676.8419	12976.95	12093.4
904.4022	1678.5737	12910.3	12027
904.5439	1680.3048	12885.05	12003.15
904.6855	1682.0351	12813.5	11931.2
904.827	1683.7646	12720.9	11837.5
904.9686	1685.4934	12682.8	11802.85
905.1101	1687.2215	12632.15	11750.6
905.2517	1688.9488	12585.75	11702.65
905.3932	1690.6754	12510.9	11628.7
905.5347	1692.4012	12481.4	11601.2
905.6761	1694.1263	12402.3	11522
905.8176	1695.8506	12414	11530.7
905.9591	1697.5742	12347.55	11467.85
906.1005	1699.297	12287	11405.85
906.2419	1701.0191	12216.5	11334.8
906.3833	1702.7404	12196.25	11315.65
906.5246	1704.461	12113.45	11230.3
906.666	1706.1808	12093.45	11209.8
906.8073	1707.8999	12067.2	11184.6
906.9487	1709.6182	12029.8	11149.05
907.09	1711.3358	11984.5	11103.05
907.2313	1713.0527	11935.1	11055.45
907.3725	1714.7688	11909.45	11021.6
907.5138	1716.4841	11861.15	10976
907.655	1718.1987	11844.05	10956.8
907.7962	1719.9126	11804.3	10922.45
907.9374	1721.6257	11738.25	10854.75
908.0786	1723.338	11754.35	10872.65
908.2198	1725.0496	11680.95	10796.45
908.3609	1726.7605	11654.05	10769.95
908.502	1728.4706	11650.8	10768.35
908.6431	1730.18	11584.4	10701.1
908.7842	1731.8886	11568.35	10686.2
908.9253	1733.5964	11548.4	10647.15
909.0664	1735.3036	11522.4	10640.95
909.2074	1737.0099	11501.65	10621.45
909.3484	1738.7156	11480.3	10600.05
909.4894	1740.4204	11451.65	10565.3
909.6304	1742.1246	11421.85	10539.4
909.7714	1743.8279	11395.8	10515.85
909.9123	1745.5306	11388.35	10507
910.0532	1747.2325	11365.65	10483.7
910.1941	1748.9336	11330.65	10451.8
910.335	1750.634	11286.35	10401.5
910.4759	1752.3336	11279.95	10399.5
910.6168	1754.0325	11238.1	10358.8
910.7576	1755.7307	11240.4	10360.85
910.8984	1757.4281	11227.85	10345.1
911.0392	1759.1247	11226.1	10334.85
911.18	1760.8206	11185.75	10298.45
911.3208	1762.5158	11188.45	10303.9
911.4615	1764.2102	11141.15	10259.25
911.6022	1765.9039	11119.65	10238
911.7429	1767.5968	11110.65	10228.35
911.8836	1769.289	11053.7	10171.3
912.0243	1770.9804	11034.4	10154.2
912.1649	1772.6711	11030.35	10146.2
912.3056	1774.361	10981.1	10098.65
912.4462	1776.0502	10923.65	10040.2
912.5868	1777.7386	10943.15	10058.05
912.7274	1779.4263	10894.85	10011.8
912.8679	1781.1132	10894.7	10013.95
913.0084	1782.7994	10854.5	9973
913.149	1784.4849	10807.25	9925.9
913.2895	1786.1696	10848.95	9948.25
913.4299	1787.8535	10791.5	9911
913.5704	1789.5367	10757.05	9874.8
913.7108	1791.2192	10742.45	9862.05
913.8513	1792.9009	10702.45	9802.75
913.9917	1794.5818	10650	9769.6
914.132	1796.2621	10653.2	9773.15
914.2724	1797.9415	10621.2	9737.8
914.4128	1799.6202	10586.55	9705
914.5531	1801.2982	10549.55	9666.95
914.6934	1802.9755	10531.8	9648.1
914.8337	1804.6519	10527.8	9645.55
914.9739	1806.3277	10494.6	9612.5
915.1142	1808.0027	10450.2	9569.35
915.2544	1809.6769	10425.9	9544.15
915.3946	1811.3504	10416.35	9533.8
915.5348	1813.0231	10376.3	9492.7
915.675	1814.6951	10358.4	9478.95
915.8151	1816.3664	10361	9478.1
915.9553	1818.0369	10341.75	9460.9
916.0954	1819.7067	10293.3	9414.65
916.2355	1821.3757	10279.05	9395.3
916.3755	1823.044	10248.85	9366.75
916.5156	1824.7115	10226	9344.35
916.6556	1826.3783	10198.6	9319.15
916.7956	1828.0443	10163.8	9282.4
916.9356	1829.7096	10143	9258.05
917.0756	1831.3741	10145.8	9261.4
917.2155	1833.0379	10128.1	9248.55
917.3555	1834.701	10094.55	9211.75
917.4954	1836.3633	10111.2	9228.25
917.6353	1838.0248	10055.1	9172.65
917.7751	1839.6856	10029.2	9148.05
917.915	1841.3457	10014.9	9135.05
918.0548	1843.005	9966.1	9083.05
918.1946	1844.6636	9985.4	9106.3
918.3344	1846.3214	9952.4	9069.85
918.4742	1847.9785	9906.65	9027
918.6139	1849.6349	9883.5	8999.25
918.7537	1851.2904	9884.15	8993.25
918.8934	1852.9453	9852.15	8970.4
919.0331	1854.5994	9801.2	8916.6
919.1727	1856.2528	9797.45	8909.55
919.3124	1857.9054	9778.4	8894.55
919.452	1859.5572	9766.15	8884.35
919.5916	1861.2083	9769.35	8887.75
919.7312	1862.8587	9757.5	8876.1
919.8708	1864.5084	9728	8846.15
920.0103	1866.1572	9680.65	8800.75
920.1498	1867.8054	9634.6	8750
920.2893	1869.4528	9631.7	8751.1
920.4288	1871.0994	9595.75	8712.75
920.5683	1872.7453	9601.9	8718.65
920.7077	1874.3905	9583.75	8694.75
920.8471	1876.0349	9537.6	8654.85
920.9865	1877.6786	9555.05	8672.05
921.1259	1879.3215	9553.15	8671.6
921.2653	1880.9637	9490.05	8606.7
921.4046	1882.6051	9498.5	8616.4
921.5439	1884.2458	9450.55	8567.65
921.6832	1885.8858	9435.5	8551.85
921.8225	1887.525	9407.25	8523.25
921.9617	1889.1634	9378.7	8498.35
922.101	1890.8011	9355.55	8472.7
922.2402	1892.4381	9329.15	8448.1
922.3794	1894.0743	9356.7	8473.5
922.5185	1895.7098	9341.45	8460.1
922.6577	1897.3446	9314.45	8432.8
922.7968	1898.9786	9267.5	8379.2
922.9359	1900.6118	9257.25	8375.35
923.075	1902.2443	9188.55	8303.8
923.214	1903.8761	9198.85	8315.5
923.3531	1905.5071	9157	8275.5
923.4921	1907.1374	9133.25	8249.1
923.6311	1908.7669	9109.5	8227.65
923.77	1910.3957	9098.8	8217.25
923.909	1912.0237	9057	8174.4
924.0479	1913.651	9050.95	8168.8
924.1868	1915.2776	9029	8149.15
924.3257	1916.9034	8979.9	8098.6
924.4646	1918.5285	8930.2	8048.55
924.6034	1920.1528	8899.05	8015.8
924.7422	1921.7764	8897.5	8015.75
924.881	1923.3992	8846.3	7965.2
925.0198	1925.0213	8800.5	7918.55
925.1586	1926.6427	8785.25	7906.05
925.2973	1928.2633	8930.05	7843.5
925.436	1929.8832	8773.8	7891.3
925.5747	1931.5023	8714.15	7832.05
925.7134	1933.1207	8689.95	7806.6
925.852	1934.7383	8677.75	7795.25
925.9906	1936.3552	8658	7774.8
926.1292	1937.9714	8636.3	7753.7
926.2678	1939.5868	8605.55	7721.75
926.4064	1941.2015	8559.1	7677.65
926.5449	1942.8154	8533.95	7651.45
926.6834	1944.4286	8496.5	7614.65
926.8219	1946.041	8478.5	7573.8
926.9604	1947.6528	8450.05	7562.15
927.0988	1949.2637	8423.55	7542.35
927.2372	1950.8739	8431.7	7549.25
927.3756	1952.4834	8381.65	7497.65
927.514	1954.0921	8388.15	7504.05
927.6523	1955.7001	8352.15	7464.2
927.7907	1957.3074	8334.45	7453.8
927.929	1958.9139	8295	7414.5
928.0673	1960.5197	8278.2	7397.8
928.2055	1962.1247	8234.85	7353.6
928.3438	1963.729	8207.1	7327.75
928.482	1965.3325	8202.45	7297.65
928.6202	1966.9353	8164.3	7284.8
928.7584	1968.5374	8146	7262.3
928.8965	1970.1387	8110.75	7228.5
929.0346	1971.7393	8116.75	7234.65
929.1727	1973.3392	8074.4	7192.7
929.3108	1974.9383	8053.6	7173.45
929.4489	1976.5366	8005.55	7125.2
929.5869	1978.1342	8008.2	7128.55
929.7249	1979.7311	8004.95	7123.05
929.8629	1981.3273	7978.15	7096.65
930.0009	1982.9227	7931.4	7048.45
930.1388	1984.5173	7917.05	7036.05
930.2767	1986.1112	7892.35	7011.8
930.4146	1987.7044	7876.35	6996.15
930.5525	1989.2968	7876.75	6993.4
930.6904	1990.8885	7839	6954.2
930.8282	1992.4795	7817.7	6935.8
930.966	1994.0697	7799	6918.65
931.1038	1995.6592	7793.45	6914.1
931.2415	1997.2479	7765.55	6883
931.3793	1998.8359	7756.9	6876.9
931.517	2000.4232	7734.9	6854.85
931.6547	2002.0097	7721.5	6843.6
931.7923	2003.5955	7673.1	6792.4
931.93	2005.1805	7681.7	6798.4
932.0676	2006.7648	7645.65	6764.75
932.2052	2008.3484	7633.7	6749.05
932.3427	2009.9312	7656.75	6775.3
932.4803	2011.5133	7595.15	6715.95
932.6178	2013.0946	7569.55	6690.3
932.7553	2014.6752	7562.9	6685.3
932.8928	2016.2551	7558.5	6677.35
933.0302	2017.8342	7519.7	6640.05
933.1676	2019.4126	7497.65	6617.45
933.305	2020.9902	7459.7	6579.45
933.4424	2022.5672	7479.4	6596.7
933.5798	2024.1433	7458.9	6573.75
933.7171	2025.7188	7447	6566.65
933.8544	2027.2935	7430.6	6549
933.9917	2028.8674	7388.3	6507.1
934.129	2030.4406	7383.65	6505.7
934.2662	2032.0131	7333.55	6453.15
934.4034	2033.5849	7300.15	6415.35
934.5406	2035.1559	7310.4	6429.65
934.6778	2036.7261	7307.95	6427.7
934.8149	2038.2957	7296.05	6416.9
934.952	2039.8645	7268.35	6387.95
935.0891	2041.4325	7283.8	6401.7
935.2262	2042.9998	7257.05	6377.85
935.3632	2044.5664	7236.55	6355.4
935.5002	2046.1323	7232.4	6353.85
935.6372	2047.6974	7197.5	6317.95
935.7742	2049.2617	7209.1	6329.05
935.9111	2050.8254	7204.2	6301.7
936.048	2052.3883	7185.1	6302.75
936.1849	2053.9504	7148.3	6266.7
936.3218	2055.5118	7117.5	6236.65
936.4586	2057.0725	7115.35	6230
936.5955	2058.6325	7095.1	6213.9
936.7323	2060.1917	7089.15	6209.05
936.869	2061.7502	7080.65	6197.8
937.0058	2063.3079	7059.45	6180.7
937.1425	2064.8649	7066.9	6182.5
937.2792	2066.4212	7032.75	6152.7
937.4159	2067.9767	7017.2	6136.65
937.5525	2069.5315	6984.55	6104.9
937.6891	2071.0856	6973	6092.85
937.8257	2072.6389	6965.1	6085.3
937.9623	2074.1915	6929.35	6048.45
938.0989	2075.7433	6919.4	6036.45
938.2354	2077.2945	6897.8	6018.7
938.3719	2078.8448	6871.5	5991.15
938.5084	2080.3945	6846.65	5966.2
938.6448	2081.9434	6841.8	5963.15
938.7812	2083.4916	6825.3	5944.8
938.9176	2085.039	6825.5	5945.6
939.054	2086.5857	6814.5	5934.4
939.1903	2088.1317	6821.8	5941.3
939.3267	2089.677	6776.85	5896.35
939.463	2091.2215	6748.6	5867.15
939.5992	2092.7652	6752.3	5871.25
939.7355	2094.3083	6714.1	5833.45
939.8717	2095.8506	6725.7	5845.3
940.0079	2097.3921	6730.05	5850.7
940.1441	2098.933	6691.95	5810.8
940.2802	2100.4731	6702.6	5822.25
940.4163	2102.0124	6714.7	5816.15
940.5524	2103.5511	6674.1	5794.5
940.6885	2105.089	6685.65	5803.6
940.8245	2106.6261	6675.2	5794.55
940.9606	2108.1626	6638.75	5756.7
941.0965	2109.6983	6656.55	5747.7
941.2325	2111.2332	6630.4	5751.1
941.3684	2112.7675	6585.4	5704.45
941.5044	2114.301	6586.3	5702.8
941.6403	2115.8337	6599.8	5718.9
941.7761	2117.3657	6569.45	5689.25
941.912	2118.897	6568.7	5687.55
942.0478	2120.4276	6544.75	5660.3
942.1835	2121.9575	6510.95	5631.15
942.3193	2123.4866	6544.15	5660.95
942.455	2125.0149	6519.3	5633.75
942.5907	2126.5426	6497.65	5618.4
942.7264	2128.0695	6475.95	5590.1
942.8621	2129.5956	6456.1	5577.95
942.9977	2131.1211	6443.9	5558.65
943.1333	2132.6458	6433.5	5552.75
943.2689	2134.1698	6417.55	5538.35
943.4044	2135.693	6408.15	5523.15
943.54	2137.2155	6392.65	5511.95
943.6755	2138.7373	6394.75	5513.75
943.8109	2140.2584	6361.3	5482.65
943.9464	2141.7787	6348.25	5461.7
944.0818	2143.2983	6311.85	5432.7
944.2172	2144.8171	6289.5	5410.65
944.3526	2146.3353	6285.95	5401.65
944.4879	2147.8527	6263.75	5384.95
944.6232	2149.3693	6267.25	5385.7
944.7585	2150.8853	6239.3	5358.9
944.8938	2152.4005	6220.65	5339
945.029	2153.9149	6224.55	5344.1
945.1642	2155.4287	6203.8	5322.85
945.2994	2156.9417	6181.5	5301.2
945.4346	2158.454	6178.35	5293.4
945.5697	2159.9655	6155.8	5275.7
945.7048	2161.4764	6164.7	5283.7
945.8399	2162.9865	6138.45	5258.05
945.9749	2164.4958	6108.05	5226.25
946.1099	2166.0045	6096.65	5213.8
946.2449	2167.5124	6089.65	5210.8
946.3799	2169.0195	6082.45	5202.4
946.5148	2170.526	6071.55	5190.4
946.6498	2172.0317	6049.15	5168.75
946.7846	2173.5367	6026.85	5143.75
946.9195	2175.0409	6022.25	5142.7
947.0543	2176.5445	6010.7	5130.05
947.1891	2178.0473	5999.2	5117.1
947.3239	2179.5494	5986.85	5102.45
947.4587	2181.0507	5954.95	5075.1
947.5934	2182.5513	5951.1	5071.05
947.7281	2184.0512	5944.35	5065.6
947.8628	2185.5504	5936.6	5054
947.9974	2187.0488	5909.65	5030.25
948.132	2188.5465	5888.25	5008.15
948.2666	2190.0435	5868.85	4987.8
948.4012	2191.5397	5834.05	4954.5
948.5357	2193.0353	5830.25	4950.2
948.6702	2194.5301	5803.35	4920.3
948.8047	2196.0241	5786.05	4903.95
948.9392	2197.5175	5811.3	4931.85
949.0736	2199.0101	5766.7	4882.45
949.208	2200.502	5750.6	4870.5
949.3424	2201.9931	5710.8	4829.4
949.4767	2203.4835	5709.05	4829.35
949.611	2204.9733	5715.95	4829.35
949.7453	2206.4622	5707.8	4832.05
949.8796	2207.9505	5685.85	4802.05
950.0138	2209.438	5652.2	4774.3
950.148	2210.9248	5627.55	4745.15
950.2822	2212.4109	5605.2	4725.95
950.4164	2213.8962	5600.3	4715.45
950.5505	2215.3809	5596.8	4714.6
950.6846	2216.8648	5581.8	4699.95
950.8186	2218.3479	5573.3	4689.9
950.9527	2219.8304	5537.3	4653.3
951.0867	2221.3121	5519.8	4636.55
951.2207	2222.7931	5519.25	4639.65
951.3546	2224.2733	5492.3	4609.65
951.4886	2225.7529	5488.5	4606.45
951.6225	2227.2317	5460.25	4575.95
951.7563	2228.7098	5451.4	4573.05
951.8902	2230.1872	5434.35	4555.05
952.024	2231.6638	5443.4	4566.3
952.1578	2233.1397	5412.8	4527.7
952.2916	2234.6149	5373.25	4493.25
952.4253	2236.0894	5373.3	4492.55
952.559	2237.5632	5364.05	4482.8
952.6927	2239.0362	5378.3	4496.75
952.8263	2240.5085	5328.05	4446.6
952.9599	2241.9801	5329.85	4450.3
953.0935	2243.4509	5308.8	4428.85
953.2271	2244.921	5286.75	4409
953.3606	2246.3904	5282.75	4400.35
953.4941	2247.8591	5259.6	4380.55
953.6276	2249.3271	5229.55	4351.45
953.7611	2250.7943	5213.95	4331.9
953.8945	2252.2608	5207.9	4328.05
954.0279	2253.7266	5209.95	4329.95
954.1612	2255.1917	5169.8	4289
954.2946	2256.656	5170.95	4288.9
954.4279	2258.1197	5143.4	4264.35
954.5612	2259.5826	5138.8	4255.1
954.6944	2261.0447	5142.45	4260.15
954.8276	2262.5062	5115	4233.5
954.9608	2263.9669	5108.15	4226.2
955.094	2265.4269	5098.95	4219.65
955.2271	2266.8862	5082.3	4201.15
955.3602	2268.3448	5078.3	4198.3
955.4933	2269.8026	5086.3	4203.95
955.6264	2271.2598	5052.45	4171.1
955.7594	2272.7162	5045.2	4166
955.8924	2274.1719	5034.35	4153.45
956.0253	2275.6268	5020.7	4138.75
956.1583	2277.0811	5012.45	4132.45
956.2912	2278.5346	4986.6	4104.15
956.4241	2279.9874	4976.95	4097.45
956.5569	2281.4395	4972.75	4092.75
956.6897	2282.8908	4940.85	4054.2
956.8225	2284.3414	4947.55	4066.55
956.9553	2285.7914	4931.35	4052.5
957.088	2287.2406	4917.8	4035.7
957.2207	2288.689	4915.25	4035.65
957.3534	2290.1368	4891.25	4007.9
957.486	2291.5838	4882.9	3999.4
957.6186	2293.0302	4861.7	3978.55
957.7512	2294.4758	4840.8	3961.9
957.8838	2295.9206	4820.75	3938.8
958.0163	2297.3648	4826.55	3946.7
958.1488	2298.8082	4808.75	3928
958.2813	2300.251	4815.15	3933.45
958.4137	2301.693	4796	3912.9
958.5461	2303.1343	4794.15	3914.2
958.6785	2304.5748	4771	3889.1
958.8108	2306.0147	4760.8	3879.25
958.9432	2307.4538	4752.55	3872.4
959.0754	2308.8922	4727.25	3848.05
959.2077	2310.3299	4725.1	3843.75
959.3399	2311.7669	4721.5	3839.75
959.4721	2313.2031	4689.1	3809.5
959.6043	2314.6387	4679.85	3800.6
959.7365	2316.0735	4668.55	3788.4
959.8686	2317.5076	4654.4	3771.65
960.0006	2318.941	4646.7	3765.65
960.1327	2320.3737	4630.35	3749.8
960.2647	2321.8056	4640.35	3756.45
960.3967	2323.2369	4612.05	3730.6
960.5287	2324.6674	4609.6	3726.45
960.6606	2326.0972	4594.25	3711.55
960.7925	2327.5263	4573.3	3694.15
960.9244	2328.9547	4564.8	3683.15
961.0562	2330.3823	4550.5	3669.35
961.1881	2331.8092	4540.9	3657.45
961.3198	2333.2355	4518.35	3637.2
961.4516	2334.661	4519.45	3636.4
961.5833	2336.0858	4511.2	3628.65
961.715	2337.5098	4483.95	3603.05
961.8467	2338.9332	4495	3612.6
961.9783	2340.3558	4477.65	3593.1
962.1099	2341.7778	4454.2	3574.5
962.2415	2343.199	4437.4	3554.55
962.373	2344.6195	4443.35	3563.15
962.5045	2346.0393	4423.45	3544.4
962.636	2347.4583	4441.6	3560.45
962.7675	2348.8767	4420.4	3538.75
962.8989	2350.2943	4406.6	3521.75
963.0303	2351.7113	4389.7	3506.1
963.1617	2353.1275	4382.05	3501.2
963.293	2354.543	4378.7	3487.6
963.4243	2355.9578	4354.45	3473.35
963.5556	2357.3718	4337.25	3458.3
963.6868	2358.7852	4329.95	3445.75
963.818	2360.1978	4321.4	3441.05
963.9492	2361.6098	4283.65	3402.95
964.0803	2363.021	4292.7	3408.3
964.2114	2364.4315	4287.1	3406.8
964.3425	2365.8413	4257	3370.25
964.4736	2367.2504	4257.5	3377.6
964.6046	2368.6587	4235.15	3352.4
964.7356	2370.0664	4232.1	3350.1
964.8666	2371.4733	4199.45	3316.7
964.9975	2372.8795	4202.6	3321.2
965.1284	2374.285	4186.35	3304.4
965.2593	2375.6899	4176.9	3296.55
965.3901	2377.0939	4157.65	3275.25
965.5209	2378.4973	4144.7	3263.55
965.6517	2379.9	4143.45	3260.2
965.7825	2381.3019	4135.55	3254.35
965.9132	2382.7032	4117.2	3235.95
966.0439	2384.1037	4111.95	3232.25
966.1745	2385.5035	4088.65	3208.35
966.3051	2386.9027	4069.75	3189.45
966.4357	2388.3011	4072.3	3189.3
966.5663	2389.6987	4067.6	3187.35
966.6968	2391.0957	4052.05	3170.05
966.8273	2392.492	4032.5	3150.55
966.9578	2393.8876	4004	3121.2
967.0882	2395.2824	3993.35	3112.3
967.2186	2396.6765	3994.6	3115.55
967.349	2398.07	3979.65	3097.85
967.4793	2399.4627	3964.55	3083.1
967.6097	2400.8547	3951.4	3068.9
967.7399	2402.246	3932.5	3046.15
967.8702	2403.6366	3919.65	3037.85
968.0004	2405.0265	3903	3021.45
968.1306	2406.4156	3906.4	3020.85
968.2607	2407.8041	3889.2	3001.45
968.3909	2409.1918	3872.3	2989.05
968.521	2410.5789	3846.1	2964.15
968.651	2411.9652	3838.9	2954.35
968.781	2413.3508	3826.15	2944.05
968.911	2414.7358	3830.1	2945.55
969.041	2416.12	3816.75	2935.95
969.1709	2417.5035	3797.1	2915.85
969.3008	2418.8863	3787.65	2906.2
969.4307	2420.2684	3771.45	2890.35
969.5606	2421.6497	3754.9	2873
969.6904	2423.0304	3739.15	2858.5
969.8201	2424.4104	3733.05	2850.6
969.9499	2425.7896	3725.5	2841.7
970.0796	2427.1682	3729.15	2847.4
970.2093	2428.546	3720.7	2838.05
970.3389	2429.9232	3695.6	2812.3
970.4685	2431.2996	3691.75	2811.05
970.5981	2432.6753	3686.4	2805.25
970.7277	2434.0503	3666.05	2784.8
970.8572	2435.4246	3670.5	2788.7
970.9867	2436.7982	3652.65	2769.5
971.1161	2438.1711	3649	2768.2
971.2456	2439.5433	3649.6	2765
971.375	2440.9148	3632.75	2743.95
971.5043	2442.2856	3598.85	2717.3
971.6336	2443.6557	3600.9	2716.55
971.7629	2445.025	3595.2	2715.05
971.8922	2446.3937	3588.5	2706.75
972.0214	2447.7617	3573.95	2693.65
972.1506	2449.1289	3574.55	2691.4
972.2798	2450.4955	3568.55	2684.3
972.4089	2451.8613	3550.25	2668.65
972.538	2453.2265	3555.55	2672.5
972.6671	2454.5909	3525.2	2642.65
972.7961	2455.9546	3514.4	2632.55
972.9251	2457.3177	3511.35	2628.45
973.0541	2458.68	3510.1	2625.95
973.1831	2460.0416	3519.75	2637.4
973.312	2461.4025	3498.55	2615.2
973.4408	2462.7627	3482.2	2588.95
973.5697	2464.1222	3480.2	2598.25
973.6985	2465.4811	3484.75	2602.35
973.8273	2466.8392	3448.05	2565.45
973.956	2468.1966	3448.8	2564.85
974.0847	2469.5533	3433.9	2550
974.2134	2470.9093	3439.15	2557.95
974.3421	2472.2645	3430	2547.55
974.4707	2473.6191	3413.35	2531.8
974.5993	2474.973	3410	2528.75
974.7278	2476.3262	3404.75	2520.7
974.8563	2477.6787	3379	2497.45
974.9848	2479.0305	3375.25	2494.8
975.1132	2480.3816	3372.95	2487.55
975.2417	2481.7319	3349.95	2469.05
975.37	2483.0816	3345	2461.8
975.4984	2484.4306	3348.6	2465.85
975.6267	2485.7789	3319.95	2439.55
975.755	2487.1264	3311.45	2427.45
975.8833	2488.4733	3307.65	2428.85
976.0115	2489.8195	3297.3	2408.65
976.1397	2491.165	3295.7	2410.95
976.2678	2492.5097	3290.4	2407.4
976.3959	2493.8538	3261.45	2381.05
976.524	2495.1972	3245.45	2362.05
976.6521	2496.5398	3247.45	2364.75
976.7801	2497.8818	3242.1	2358.3
976.9081	2499.2231	3234.65	2354.35
977.036	2500.5637	3228.5	2344
977.164	2501.9035	3226.3	2343.5
977.2918	2503.2427	3213.3	2327.9
977.4197	2504.5812	3198.6	2315.35
977.5475	2505.919	3188.7	2306.75
977.6753	2507.256	3179.6	2297.7
977.8031	2508.5924	3171.7	2288.7
977.9308	2509.9281	3165.6	2280.3
978.0585	2511.2631	3149.05	2267.55
978.1861	2512.5974	3137.9	2257.05
978.3137	2513.9309	3140.9	2260.1
978.4413	2515.2638	3149.35	2239.3
978.5689	2516.596	3118.15	2238.95
978.6964	2517.9275	3100.35	2216.7
978.8239	2519.2583	3097.75	2216.2
978.9513	2520.5884	3090.75	2207.15
979.0788	2521.9178	3085.25	2202.85
979.2062	2523.2465	3061.45	2180.15
979.3335	2524.5745	3059.9	2177.55
979.4608	2525.9018	3053.85	2171.6
979.5881	2527.2284	3043.55	2163.7
979.7154	2528.5543	3060.1	2178.9
979.8426	2529.8796	3030.95	2150.05
979.9698	2531.2041	3023.85	2144.15
980.0969	2532.5279	3024.3	2143.65
980.224	2533.851	3028.65	2144.35
980.3511	2535.1735	3003.85	2121.65
980.4781	2536.4952	3012.85	2130.85
980.6052	2537.8163	3005.15	2123.55
980.7321	2539.1366	2991.75	2110.8
980.8591	2540.4562	2991.9	2110.3
980.986	2541.7752	2973.45	2092.75
981.1129	2543.0935	2982.25	2101.95
981.2397	2544.411	2969.3	2085.85
981.3665	2545.7279	2965.05	2083.1
981.4933	2547.0441	2955.65	2076.55
981.62	2548.3596	2966.55	2083.8
981.7467	2549.6744	2952.3	2071.6
981.8734	2550.9885	2956.95	2067.6
982.0001	2552.3019	2927.7	2048.95
982.1267	2553.6146	2937.35	2055.85
982.2532	2554.9266	2913.35	2031.75
982.3798	2556.2379	2912.15	2030.35
982.5063	2557.5485	2894.2	2014.65
982.6327	2558.8585	2897.75	2008.9
982.7592	2560.1677	2918	2034.4
982.8856	2561.4762	2891.15	2009.7
983.0119	2562.7841	2889.15	2003.65
983.1383	2564.0913	2871.25	1992.5
983.2646	2565.3977	2874.5	1993.2
983.3908	2566.7035	2859.35	1979.5
983.517	2568.0086	2854.55	1972.2
983.6432	2569.313	2861.15	1979.75
983.7694	2570.6167	2849.15	1965.9
983.8955	2571.9197	2848.4	1965.25
984.0216	2573.222	2841.15	1956.1
984.1476	2574.5236	2852.5	1971.85
984.2737	2575.8246	2829.9	1946.55
984.3996	2577.1248	2835.3	1950.05
984.5256	2578.4244	2817.8	1938.4
984.6515	2579.7232	2822	1943.2
984.7774	2581.0214	2829.55	1924
984.9032	2582.3189	2804.4	1924.35
985.029	2583.6157	2794.3	1909.8
985.1548	2584.9118	2786.75	1905.55
985.2806	2586.2072	2780.6	1898.6
985.4063	2587.5019	2779.65	1899.85
985.5319	2588.7959	2782.55	1901.9
985.6576	2590.0893	2780	1898.65
985.7832	2591.3819	2756.35	1874.75
985.9087	2592.6739	2755.45	1874.05
986.0343	2593.9652	2748.85	1865.45
986.1597	2595.2557	2738.2	1857.65
986.2852	2596.5456	2724.15	1839.25
986.4106	2597.8348	2713.7	1831.8
986.536	2599.1234	2716.75	1837.75
986.6614	2600.4112	2703.9	1824.1
986.7867	2601.6983	2704.3	1819.1
986.912	2602.9848	2700.6	1820.9
987.0372	2604.2705	2689.4	1800.45
987.1624	2605.5556	2675.3	1795.15
987.2876	2606.84	2669.25	1788.1
987.4128	2608.1237	2663.65	1779.6
987.5379	2609.4067	2652.8	1771.9
987.6629	2610.689	2652.75	1762.15
987.788	2611.9707	2644.25	1760.4
987.913	2613.2516	2639.4	1751.8
988.0379	2614.5319	2612.55	1731.75
988.1629	2615.8115	2616	1734.95
988.2878	2617.0903	2609	1724.3
988.4126	2618.3685	2598.1	1716.9
988.5375	2619.6461	2584	1704.1
988.6622	2620.9229	2586.5	1705.4
988.787	2622.199	2583.8	1703.05
988.9117	2623.4745	2575.7	1694.65
989.0364	2624.7493	2564.85	1683.5
989.161	2626.0234	2562	1681.65
989.2857	2627.2968	2544.4	1663.7
989.4102	2628.5695	2548.7	1668.05
989.5348	2629.8415	2535.3	1653.95
989.6593	2631.1128	2532.85	1650.65
989.7837	2632.3835	2527.15	1646.1
989.9082	2633.6535	2506.85	1625.1
990.0326	2634.9228	2504.2	1623.4
990.1569	2636.1914	2490.75	1611.3
990.2812	2637.4593	2498.4	1611.6
990.4055	2638.7265	2479.25	1597
990.5298	2639.9931	2481.95	1599.8
990.654	2641.259	2477.1	1594.95
990.7782	2642.5242	2469.45	1587.6
990.9023	2643.7887	2467.35	1584.05
991.0264	2645.0525	2451.5	1569.65
991.1505	2646.3156	2447.25	1564.3
991.2745	2647.5781	2444.7	1567.35
991.3985	2648.8398	2437.95	1556.25
991.5225	2650.1009	2427.75	1539.75
991.6464	2651.3613	2427.35	1547.4
991.7703	2652.6211	2415.3	1531.35
991.8942	2653.8801	2420.45	1541.05
992.018	2655.1385	2408.55	1525.25
992.1418	2656.3961	2389.5	1507.7
992.2655	2657.6531	2413	1531.75
992.3892	2658.9094	2386.05	1506.4
992.5129	2660.1651	2389.25	1509.9
992.6366	2661.42	2383.85	1503.35
992.7602	2662.6743	2378.55	1496.1
992.8837	2663.9279	2370.55	1490
993.0073	2665.1808	2363.55	1482.6
993.1307	2666.433	2371.7	1490.1
993.2542	2667.6846	2353	1473.9
993.3776	2668.9354	2351.3	1465.6
993.501	2670.1856	2356.05	1473.15
993.6244	2671.4351	2347.05	1465.45
993.7477	2672.6839	2348.3	1465.35
993.8709	2673.9321	2337	1457.4
993.9942	2675.1795	2325.55	1444.15
994.1174	2676.4263	2313.05	1434.4
994.2405	2677.6724	2318.3	1437.2
994.3637	2678.9179	2312.2	1429.3
994.4868	2680.1626	2304.7	1424.8
994.6098	2681.4067	2303.95	1421.05
994.7328	2682.6501	2300.3	1419.1
994.8558	2683.8928	2309.75	1426.65
994.9788	2685.1348	2279.55	1397.1
995.1017	2686.3761	2273.4	1391.95
995.2245	2687.6168	2265.95	1385.65
995.3474	2688.8568	2264.9	1384.15
995.4702	2690.0961	2252	1369.6
995.5929	2691.3348	2265.25	1382.5
995.7156	2692.5727	2248.6	1367.95
995.8383	2693.81	2237.9	1356.45
995.961	2695.0466	2232.3	1354.35
996.0836	2696.2826	2234.15	1353
996.2062	2697.5178	2230.7	1346.9
996.3287	2698.7524	2227.75	1347.7
996.4512	2699.9863	2227.15	1341.9
996.5737	2701.2195	2214.65	1335.8
996.6961	2702.452	2210.75	1329.25
996.8185	2703.6839	2208.4	1325.7
996.9408	2704.9151	2202.65	1322.5
997.0631	2706.1456	2196.45	1314.35
997.1854	2707.3755	2194.45	1310.65
997.3077	2708.6046	2191.2	1308.8
997.4299	2709.8331	2183.5	1300.45
997.552	2711.0609	2177.15	1298.1
997.6742	2712.2881	2163.6	1280.65
997.7963	2713.5145	2170.15	1286.95
997.9183	2714.7403	2154.55	1273.9
998.0403	2715.9654	2157.05	1272.6
998.1623	2717.1899	2162.6	1268.3
998.2842	2718.4136	2146.45	1264.45
998.4062	2719.6367	2133.45	1250
998.528	2720.8591	2137.3	1251.2
998.6498	2722.0809	2131.6	1251.7
998.7716	2723.3019	2132.95	1247.6
998.8934	2724.5223	2125.25	1243.85
999.0151	2725.7421	2111.25	1228.6
999.1368	2726.9611	2109.05	1227.6
999.2584	2728.1795	2111.2	1223.95
999.38	2729.3972	2092.75	1213.4
999.5016	2730.6142	2092.65	1199.55
999.6231	2731.8306	2086.15	1205.2
999.7446	2733.0462	2074.1	1192.15
999.8661	2734.2612	2071.2	1184.35
999.9875	2735.4756	2060.1	1177.3
1000.1089	2736.6892	2055.25	1173.1
1000.2302	2737.9022	2052.05	1171.6
1000.3515	2739.1145	2051.45	1167.75
1000.4728	2740.3262	2047.2	1158.6
1000.594	2741.5372	2042.7	1163.65
1000.7152	2742.7475	2025	1143.15
1000.8363	2743.9571	2025.35	1142.6
1000.9575	2745.1661	2039.45	1153.05
1001.0785	2746.3744	2020.1	1137.65
1001.1996	2747.582	2017.65	1136.85
1001.3206	2748.7889	2009.95	1126.8
1001.4415	2749.9952	1994.7	1114.5
1001.5625	2751.2008	1997.6	1116.5
1001.6833	2752.4057	1995.9	1111.35
1001.8042	2753.61	1985.45	1103.8
1001.925	2754.8136	1985.9	1104.65
1002.0458	2756.0165	1970.8	1090.55
1002.1665	2757.2188	1975.75	1096.4
1002.2872	2758.4204	1969.9	1088.4
1002.4078	2759.6213	1960.85	1076.3
1002.5285	2760.8215	1975.15	1090.05
1002.649	2762.0211	1959.3	1074.05
1002.7696	2763.22	1964.6	1081.4
1002.8901	2764.4182	1941.8	1059.55
1003.0106	2765.6158	1945.55	1064
1003.131	2766.8127	1927.7	1047.05
1003.2514	2768.009	1936.55	1056.15
1003.3717	2769.2045	1926.3	1046
1003.492	2770.3994	1929.75	1045.05
1003.6123	2771.5936	1931.9	1051.4
1003.7325	2772.7872	1919.5	1038.8
1003.8527	2773.9801	1910.5	1026.5
1003.9729	2775.1723	1919.7	1021.3
1004.093	2776.3639	1905.25	1024.6
1004.2131	2777.5548	1895.9	1012.15
1004.3331	2778.745	1893	1009.5
1004.4531	2779.9346	1881.75	1001.5
1004.5731	2781.1235	1890.3	1010.1
1004.693	2782.3117	1879.05	998.05
1004.8129	2783.4992	1872.7	994.45
1004.9328	2784.6861	1870.6	989.45
1005.0526	2785.8723	1875.05	992.55
1005.1723	2787.0579	1863.55	983.2
1005.2921	2788.2428	1860.25	978.3
1005.4118	2789.427	1861.7	979.2
1005.5314	2790.6106	1854.2	972.95
1005.651	2791.7935	1851.75	968.65
1005.7706	2792.9757	1848.3	969.2
1005.8902	2794.1573	1841	961.1
1006.0097	2795.3382	1834.8	953.9
1006.1291	2796.5184	1830.05	951.35
1006.2485	2797.698	1830.7	950.15
1006.3679	2798.8769	1823	942.8
1006.4873	2800.0551	1807.1	924.5
1006.6066	2801.2327	1806.35	922
1006.7258	2802.4096	1804.55	923.2
1006.8451	2803.5859	1803.15	920.95
1006.9642	2804.7615	1803.85	922.95
1007.0834	2805.9364	1801.45	922.25
1007.2025	2807.1106	1794.5	911.4
1007.3216	2808.2842	1796	916.7
1007.4406	2809.4572	1785.65	903.9
1007.5596	2810.6294	1793.6	911.85
1007.6785	2811.801	1784.1	904.4
1007.7975	2812.972	1774.95	893.6
1007.9163	2814.1423	1786.6	905.6
1008.0352	2815.3119	1781.75	901.25
1008.154	2816.4808	1779.4	899.5
1008.2727	2817.6491	1783.25	891.75
1008.3914	2818.8167	1780.2	902.5
1008.5101	2819.9837	1788.9	904.35
1008.6288	2821.15	1778.6	897.7
1008.7474	2822.3157	1785.45	904.7
1008.8659	2823.4807	1794.75	913.95
1008.9844	2824.645	1803.25	922.5
1009.1029	2825.8086	1803.9	924.1
1009.2214	2826.9716	1805.35	924.9
1009.3398	2828.134	1811.25	932.75
1009.4581	2829.2957	1820.6	940.6
1009.5764	2830.4567	1821.75	942.75
1009.6947	2831.617	1825.6	944.55
1009.813	2832.7767	1818.7	937.95
1009.9312	2833.9358	1817.85	938.4
1010.0493	2835.0941	1823.35	939.65
1010.1675	2836.2519	1819.25	940.1
1010.2855	2837.4089	1806.6	926.15
1010.4036	2838.5653	1802.15	922.1
1010.5216	2839.7211	1789.05	910.9
1010.6396	2840.8761	1793.2	913
1010.7575	2842.0306	1783.15	903.35
1010.8754	2843.1843	1782.45	903.6
1010.9932	2844.3374	1778.8	897.2
1011.111	2845.4899	1779.65	899.1
1011.2288	2846.6417	1786.85	906.8
1011.3465	2847.7928	1782.2	900.85
1011.4642	2848.9433	1771.95	890.7
1011.5818	2850.0931	1782.4	902.7
1011.6995	2851.2422	1770.5	887.9
1011.817	2852.3907	1762.9	881.25
1011.9345	2853.5385	1765.75	885.1
1012.052	2854.6857	1770.35	880.15
1012.1695	2855.8323	1771.3	893.5
1012.2869	2856.9781	1766.95	885.9
1012.4042	2858.1233	1770.9	891.7
1012.5216	2859.2679	1771.35	890.4
1012.6389	2860.4118	1777.85	899.05
1012.7561	2861.555	1766.45	882
1012.8733	2862.6976	1779.85	897.9
1012.9905	2863.8395	1769.1	890.55
1013.1076	2864.9808	1769.25	889.05
1013.2247	2866.1214	1764.7	885.6
1013.3417	2867.2614	1768.1	888.2
1013.4587	2868.4007	1766.6	885.2
1013.5757	2869.5393	1770.35	887.3
1013.6926	2870.6773	1770.85	887.75
1013.8095	2871.8146	1765.45	884.6
1013.9263	2872.9513	1755.75	873.3
1014.0431	2874.0874	1754.9	874.8
1014.1599	2875.2227	1758.05	877.75
1014.2766	2876.3574	1753.15	871.65
1014.3933	2877.4915	1756.95	876.3
1014.51	2878.6249	1751.7	872.3
1014.6266	2879.7577	1754.55	872.4
1014.7431	2880.8898	1760.75	869.9
1014.8596	2882.0212	1749.4	870.45
1014.9761	2883.152	1751.2	870.55
1015.0925	2884.2821	1747.7	869.8
1015.2089	2885.4116	1744.15	863.2
1015.3253	2886.5405	1741.5	862.9
1015.4416	2887.6686	1746.65	862
1015.5579	2888.7962	1737.55	858.75
1015.6741	2889.923	1742.8	862.2
1015.7903	2891.0493	1744.9	863.7
1015.9065	2892.1748	1728.4	847.8
1016.0226	2893.2997	1733.15	850.7
1016.1387	2894.424	1731	850.85
1016.2547	2895.5476	1718.6	838.45
1016.3707	2896.6706	1712.15	831.75
1016.4866	2897.7929	1705	823.55
1016.6025	2898.9145	1705.7	824.4
1016.7184	2900.0355	1708.55	827.1
1016.8342	2901.1559	1703.6	823.95
1016.95	2902.2756	1705.45	823.45
1017.0658	2903.3946	1708.55	827.45
1017.1815	2904.513	1690.05	807.45
1017.2971	2905.6308	1694	813.55
1017.4127	2906.7479	1698.6	818.6
1017.5283	2907.8643	1681.95	800.15
1017.6439	2908.9801	1674.7	794.8
1017.7594	2910.0953	1682.65	801.95
1017.8748	2911.2098	1678.35	796.1
1017.9902	2912.3236	1677.6	789.5
1018.1056	2913.4368	1679.2	795.05
1018.2209	2914.5494	1663.85	782.35
1018.3362	2915.6613	1664.95	777.85
1018.4515	2916.7725	1660.85	776.1
1018.5667	2917.8831	1658.1	776.65
1018.6819	2918.9931	1646.9	765
1018.797	2920.1024	1641.15	760.05
1018.9121	2921.211	1634.4	754.35
1019.0271	2922.319	1640.85	760.5
1019.1421	2923.4264	1629.4	749.7
1019.2571	2924.5331	1624.3	745.95
1019.372	2925.6391	1624.05	744.95
1019.4869	2926.7445	1624.95	745.45
1019.6017	2927.8493	1618.9	737.8
1019.7165	2928.9534	1617.35	734.65
1019.8313	2930.0569	1613.65	729.4
1019.946	2931.1597	1621.45	741
1020.0606	2932.2619	1617.55	738.25
1020.1753	2933.3634	1613.6	732.65
1020.2899	2934.4643	1621.45	733.95
1020.4044	2935.5645	1623.45	736.15
1020.5189	2936.6641	1618.6	734.5
1020.6334	2937.763	1608.6	730.05
1020.7478	2938.8613	1612.2	732.25
1020.8622	2939.959	1610.45	724.45
1020.9765	2941.056	1599.55	719.9
1021.0908	2942.1523	1585.1	703.45
1021.2051	2943.248	1579.6	698.4
1021.3193	2944.3431	1560.25	680.4
1021.4334	2945.4375	1555.75	675.05
1021.5476	2946.5313	1547.8	668.7
1021.6617	2947.6244	1538	656.6
1021.7757	2948.7169	1524.8	643.9
1021.8897	2949.8087	1516.05	635.3
1022.0037	2950.8999	1509.6	630.15
1022.1176	2951.9904	1498.45	617.9
1022.2315	2953.0803	1485.55	605.1
1022.3453	2954.1696	1485.45	604
1022.4591	2955.2582	1476.2	595.65
1022.5728	2956.3462	1464.5	582.2
1022.6865	2957.4335	1470.8	590.3
1022.8002	2958.5202	1460.05	577
1022.9138	2959.6062	1464.25	586.15
1023.0274	2960.6916	1451.4	571.95
1023.141	2961.7764	1450.9	569.8
1023.2545	2962.8605	1451.95	573.3
1023.3679	2963.9439	1448.05	567.55
1023.4813	2965.0267	1452	570.2
1023.5947	2966.1089	1473	569.6
1023.708	2967.1905	1439.6	560.6
1023.8213	2968.2714	1439.6	559.65
1023.9346	2969.3516	1428.45	548.3
1024.0478	2970.4312	1440.85	553.15
1024.1609	2971.5102	1423.95	545.4
1024.274	2972.5885	1430.65	551.6
1024.3871	2973.6662	1432.35	548.05
1024.5002	2974.7432	1423.6	544.3
1024.6132	2975.8196	1420.75	539.2
1024.7261	2976.8954	1420.55	541.35
1024.839	2977.9705	1417.9	538.45
1024.9519	2979.045	1414	536.25
1025.0647	2980.1188	1408.25	528.7
1025.1775	2981.192	1408.85	531.25
1025.2902	2982.2645	1409	528
1025.4029	2983.3364	1405.15	525.1
1025.5156	2984.4077	1393.35	512.2
1025.6282	2985.4783	1401.1	513.6
1025.7407	2986.5483	1390.55	511.2
1025.8532	2987.6177	1386.4	506.3
1025.9657	2988.6864	1385.35	505.05
1026.0782	2989.7545	1383.7	501.95
1026.1906	2990.8219	1377.9	499.25
1026.3029	2991.8887	1371.6	490.25
1026.4152	2992.9548	1362.05	481.45
1026.5275	2994.0204	1353	472.9
1026.6397	2995.0852	1356.05	476.95
1026.7519	2996.1495	1349.15	469.05
1026.864	2997.2131	1347.15	466.4
1026.9761	2998.276	1344.15	463.35
1027.0882	2999.3383	1334.3	451.6
1027.2002	3000.4	1327.3	448.95
1027.3122	3001.4611	1325.9	445.95
1027.4241	3002.5215	1321.2	440.05
1027.536	3003.5812	1317.8	437.1
1027.6478	3004.6404	1315.45	435.85
1027.7596	3005.6989	1319.45	436.95
1027.8714	3006.7567	1310.3	430.75
1027.9831	3007.8139	1337.85	435.25
1028.0947	3008.8705	1313.35	433.65
1028.2064	3009.9264	1307.2	425.1
1028.3179	3010.9818	1310.5	431.05
1028.4295	3012.0364	1301.35	420.2
1028.541	3013.0905	1301.25	421.35
1028.6524	3014.1439	1303.5	423.3
1028.7638	3015.1966	1293.75	414.8
1028.8752	3016.2487	1292	411.65
1028.9865	3017.3002	1299.35	411.2
1029.0978	3018.3511	1290.6	412
1029.209	3019.4013	1288.85	408.5
1029.3202	3020.4509	1289	409.35
1029.4314	3021.4998	1282.45	401.65
1029.5425	3022.5481	1286.45	405.45
1029.6535	3023.5958	1281.9	402.5
1029.7645	3024.6428	1282.1	401.8
1029.8755	3025.6892	1275.4	396.05
1029.9864	3026.735	1276.35	397.65
1030.0973	3027.7802	1275.3	394.7
1030.2082	3028.8247	1272.25	393.5
1030.319	3029.8685	1264.75	383.7
1030.4297	3030.9118	1270.8	390.3
1030.5404	3031.9544	1258.65	379.6
1030.6511	3032.9963	1270.4	390.9
1030.7617	3034.0376	1259.2	380.9
1030.8723	3035.0783	1260.75	378.1
1030.9829	3036.1184	1259.2	377.3
1031.0934	3037.1578	1249.6	371.8
1031.2038	3038.1966	1255.6	373.75
1031.3142	3039.2348	1249.25	371.55
1031.4246	3040.2723	1255.95	366.85
1031.5349	3041.3092	1251	371.8
1031.6452	3042.3455	1247.75	368.65
1031.7554	3043.3811	1246.9	366.3
1031.8656	3044.4161	1243.5	362.3
1031.9758	3045.4505	1242.55	364.45
1032.0859	3046.4842	1248.55	369.05
1032.1959	3047.5173	1245.9	368.4
1032.3059	3048.5498	1244.7	365.1
1032.4159	3049.5816	1242.45	361.3
1032.5258	3050.6128	1244.7	365.4
1032.6357	3051.6434	1237.4	354.05
1032.7455	3052.6734	1239.9	359.35
1032.8553	3053.7027	1237.2	357.25
1032.9651	3054.7314	1242.5	363.35
1033.0748	3055.7594	1230	350.75
1033.1845	3056.7868	1234.5	353.6
1033.2941	3057.8136	1226.25	346.55
1033.4037	3058.8398	1227.85	347.8
1033.5132	3059.8653	1222.9	341.2
1033.6227	3060.8902	1223.5	346.65
1033.7321	3061.9145	1226.4	345.95
1033.8415	3062.9381	1225.1	344.7
1033.9509	3063.9612	1237.4	341.1
1034.0602	3064.9835	1228.9	349.25
1034.1694	3066.0053	1222.95	339.45
1034.2787	3067.0264	1221.9	343
1034.3878	3068.0469	1220.6	340.55
1034.497	3069.0668	1219.05	335.85
1034.6061	3070.086	1213.8	333.65
1034.7151	3071.1046	1212.15	331.75
1034.8241	3072.1226	1217.6	337.65
1034.9331	3073.1399	1208.2	327.35
1035.042	3074.1567	1211.75	333.45
1035.1508	3075.1727	1207.15	324.75
1035.2597	3076.1882	1205.05	324.35
1035.3684	3077.203	1204.75	323.65
1035.4772	3078.2173	1200.7	318.45
1035.5859	3079.2308	1203.6	322.05
1035.6945	3080.2438	1199	315.65
1035.8031	3081.2561	1198.25	317.2
1035.9117	3082.2678	1190.3	311.8
1036.0202	3083.2789	1189.85	310.4
1036.1286	3084.2893	1189.25	310.65
1036.2371	3085.2991	1190.05	308.3
1036.3454	3086.3083	1190.35	307.55
1036.4538	3087.3169	1192.7	311.15
1036.562	3088.3248	1187.9	306.95
1036.6703	3089.3321	1189.25	306.4
1036.7785	3090.3388	1182.2	301.65
1036.8866	3091.3449	1183.65	304.3
1036.9948	3092.3503	1177	295.35
1037.1028	3093.3551	1170.5	293.7
1037.2108	3094.3593	1179.3	303.55
1037.3188	3095.3629	1166.35	287.45
1037.4267	3096.3658	1172.05	291
1037.5346	3097.3681	1167.9	287.85
1037.6425	3098.3698	1170.6	288.4
1037.7503	3099.3708	1177.8	289.75
1037.858	3100.3713	1164.55	284.65
1037.9657	3101.3711	1169.95	289.3
1038.0734	3102.3702	1302.65	286.6
1038.181	3103.3688	1162.75	281.2
1038.2886	3104.3667	1157.65	279.05
1038.3961	3105.364	1163.05	283.7
1038.5036	3106.3607	1157.6	276.4
1038.611	3107.3568	1155.1	274.55
1038.7184	3108.3522	1155	274.05
1038.8257	3109.347	1149.1	270.65
1038.933	3110.3412	1156.3	271.95
1039.0403	3111.3348	1147	266.3
1039.1475	3112.3277	1149.75	271.85
1039.2547	3113.32	1146	267
1039.3618	3114.3117	1140	261.4
1039.4689	3115.3028	1147.35	267.25
1039.5759	3116.2932	1139.9	259.4
1039.6829	3117.2831	1151.35	265.9
1039.7898	3118.2723	1137.55	256.45
1039.8967	3119.2608	1132.1	254.05
1040.0035	3120.2488	1133.1	252.95
1040.1103	3121.2361	1130.25	248.65
1040.2171	3122.2229	1128.3	247.5
1040.3238	3123.209	1127.9	247.15
1040.4305	3124.1944	1127.5	249.5
1040.5371	3125.1793	1127.85	246.55
1040.6437	3126.1635	1129.7	250.95
1040.7502	3127.1471	1123.4	243.2
1040.8567	3128.1301	1120.95	240.85
1040.9631	3129.1125	1119.65	239.95
1041.0695	3130.0942	1117.75	238.2
1041.1759	3131.0753	1129.05	240.95
1041.2822	3132.0558	1120.55	238.5
1041.3884	3133.0357	1118.25	239.05
1041.4946	3134.015	1117.75	237.7
1041.6008	3134.9936	1117.65	238.45
1041.7069	3135.9716	1135.25	235
1041.813	3136.949	1112.05	233.95
1041.919	3137.9258	1119.4	232.4
1042.025	3138.902	1120.1	234.2
1042.1309	3139.8775	1109.2	229
1042.2368	3140.8524	1107.15	225.35
1042.3427	3141.8267	1112.9	231.1
1042.4485	3142.8004	1102.6	223.35
1042.5542	3143.7735	1106.85	221.3
1042.6599	3144.7459	1107.15	225.8
1042.7656	3145.7178	1107.05	224.9
1042.8712	3146.689	1097.1	219.65
1042.9768	3147.6596	1104.5	223.75
1043.0823	3148.6295	1096.65	216.1
1043.1878	3149.5989	1100.2	219.5
1043.2932	3150.5676	1100.55	221.75
1043.3986	3151.5357	1096.55	219.5
1043.5039	3152.5032	1093.65	215.35
1043.6092	3153.4701	1093.6	213.3
1043.7145	3154.4364	1097.85	214.65
1043.8197	3155.402	1091.9	211.4
1043.9248	3156.367	1092.85	212.25
1044.03	3157.3315	1128.75	210.55
1044.135	3158.2952	1085.5	206.05
1044.24	3159.2584	1087.55	207.95
1044.345	3160.221	1085.55	206.25
1044.4499	3161.1829	1086.8	206.15
1044.5548	3162.1442	1083.7	205.4
1044.6596	3163.105	1082.2	202.55
1044.7644	3164.065	1082.4	202.25
1044.8692	3165.0245	1082.45	197.5
1044.9739	3165.9834	1079.8	202
1045.0785	3166.9416	1081.55	201.6
1045.1831	3167.8993	1075.35	194.95
1045.2877	3168.8563	1075.55	195.5
1045.3922	3169.8127	1077.65	197.4
1045.4966	3170.7684	1076.1	198.45
1045.6011	3171.7236	1074.15	192.9
1045.7054	3172.6782	1071.2	192.15
1045.8098	3173.6321	1076.25	198.15
1045.914	3174.5854	1071.55	186.85
1046.0183	3175.5381	1065.75	183.35
1046.1224	3176.4902	1068.45	187.7
1046.2266	3177.4417	1064.3	183.2
1046.3307	3178.3926	1067.15	187.5
1046.4347	3179.3428	1065.35	185.05
1046.5387	3180.2924	1065.8	184.5
1046.6427	3181.2415	1060.95	182.05
1046.7466	3182.1899	1065.4	184.25
1046.8504	3183.1377	1059.4	180.65
1046.9542	3184.0848	1065.2	181.6
1047.058	3185.0314	1060.4	180.35
1047.1617	3185.9773	1062.3	182.9
1047.2654	3186.9227	1057.1	174.9
1047.369	3187.8674	1056.05	176.05
1047.4726	3188.8115	1057.6	172.95
1047.5761	3189.755	1054.3	177.35
1047.6796	3190.6979	1051.85	172.25
1047.783	3191.6402	1050.3	172.4
1047.8864	3192.5818	1051.5	173.8
1047.9898	3193.5229	1056.75	170.6
1048.0931	3194.4633	1053.25	174.45
1048.1963	3195.4031	1052.75	172.05
1048.2995	3196.3423	1044.15	161.85
1048.4027	3197.2809	1047.4	168.1
1048.5058	3198.2189	1051.75	171.05
1048.6089	3199.1563	1052.25	167.15
1048.7119	3200.0931	1045.85	166.45
1048.8148	3201.0292	1042.75	162.15
1048.9178	3201.9648	1042.05	163.8
1049.0206	3202.8997	1043.9	159.75
1049.1235	3203.834	1042.75	161
1049.2262	3204.7677	1041.5	161.55
1049.329	3205.7008	1041.5	160.75
1049.4317	3206.6333	1036.45	158.55
1049.5343	3207.5652	1042.3	160.5
1049.6369	3208.4964	1039.3	161.15
1049.7394	3209.4271	1036.1	156.05
1049.8419	3210.3571	1032.6	153.45
1049.9444	3211.2865	1034.7	154.6
1050.0468	3212.2154	1032.7	151.75
1050.1491	3213.1436	1034.35	151.6
1050.2514	3214.0712	1038.35	153.4
1050.3537	3214.9982	1029.55	151.4
1050.4559	3215.9246	1030.6	152.2
1050.5581	3216.8503	1027.6	150.2
1050.6602	3217.7755	1022.9	144.55
1050.7623	3218.7001	1029.2	149.3
1050.8643	3219.624	1029	148.65
1050.9663	3220.5473	1025.3	144.9
1051.0682	3221.4701	1026.75	145.9
1051.1701	3222.3922	1026.65	146.75
1051.2719	3223.3137	1023.65	143.8
1051.3737	3224.2346	1023.7	144.15
1051.4754	3225.1549	1022	144.55
1051.5771	3226.0746	1020.95	142.45
1051.6788	3226.9937	1019.45	140.55
1051.7804	3227.9121	1018.8	139.05
1051.8819	3228.83	1021.15	142.2
1051.9834	3229.7473	1019.4	140.2
1052.0849	3230.6639	1017.5	139.55
1052.1863	3231.5799	1015.85	136.65
1052.2876	3232.4954	1017.35	137.25
1052.3889	3233.4102	1014.1	135.25
1052.4902	3234.3244	1015.95	136.15
1052.5914	3235.238	1013.75	134.35
1052.6926	3236.151	1037.65	133.25
1052.7937	3237.0634	1012.25	134.75
1052.8948	3237.9752	1010.3	129.6
1052.9958	3238.8864	1013.4	134.75
1053.0968	3239.797	1010.95	132.15
1053.1977	3240.7069	1011.05	130.75
1053.2986	3241.6163	1011.2	130.75
1053.3994	3242.5251	1008.3	127.95
1053.5002	3243.4332	1004.4	124.8
1053.6009	3244.3408	1007.4	127.3
1053.7016	3245.2477	1007.7	128.9
1053.8022	3246.154	1008.2	129.45
1053.9028	3247.0598	1003.65	122.75
1054.0034	3247.9649	1004.65	125.85
1054.1039	3248.8694	1001.9	123.3
1054.2043	3249.7733	1001.95	122.05
1054.3047	3250.6766	1001	122.65
1054.4051	3251.5793	1002.7	121.95
1054.5054	3252.4814	997.4	117.45
1054.6056	3253.3829	998.15	119.05
1054.7058	3254.2838	1002.6	121.7
1054.806	3255.1841	998.1	119.15
1054.9061	3256.0838	999.3	120.35
1055.0061	3256.9829	995.2	118.3
1055.1062	3257.8814	996.75	115.75
1055.2061	3258.7792	995.5	116.15
1055.306	3259.6765	993.7	113.6
1055.4059	3260.5731	990.55	109.6
1055.5057	3261.4692	991.05	111.65
1055.6055	3262.3647	986.9	106.5
1055.7052	3263.2595	986.3	106.45
1055.8049	3264.1538	982.95	103.4
1055.9045	3265.0474	984.75	104.4
1056.0041	3265.9404	983.7	105.65
1056.1036	3266.8329	976.2	96.45
1056.2031	3267.7247	985.25	97.9
1056.3025	3268.616	973.05	96.35
1056.4019	3269.5066	976.55	96.8
1056.5013	3270.3966	972.7	91.15
1056.6005	3271.286	965.75	85.7
