Software Version:	3.9.2.0
Unit SN:	10000200
Spectrometer SN:	6960
Date:	3/6/2024 9:46:32 AM
Data Line Index:	25
Spectral Points:	2048
Integration time (ms):	125
Averages:	20
Delay (ms):	30
Sequence Number:	1
Processing:	dark subtract
Laser Power (mW):	300
Laser Current (mA):	825
Laser Diode Temp (C):	25
Laser Case Temp (C):	24.2
System Temp (C):	24
Spectrometer Temp (C):	21.6
CCD Temp (C):	-0.017
Secondary Temp (C):	20.013
Heatsink Temp (C):	18.131
CCDPCB Temp (C):	30.504
SecondaryPCB Temp (C):	25.747

Wavelength	RamanShift	Raw Counts	Dark Subtracted
787.061	30.1047	453.75	46.1
787.2016	32.3739	455.7	49.25
787.3422	34.6426	458.25	50.2
787.4828	36.9109	459.4	51.8
787.6235	39.1787	469.55	58.2
787.7642	41.4461	478.85	62.3
787.9049	43.7131	484.15	64.4
788.0456	45.9796	490.35	66.6
788.1863	48.2456	500.6	72.95
788.3271	50.5112	508.95	78.35
788.4679	52.7764	512.35	79.45
788.6087	55.0411	520.6	82.75
788.7496	57.3054	532	90.05
788.8904	59.5692	540.5	97
789.0313	61.8326	547.35	101.3
789.1722	64.0955	557.65	107.15
789.3132	66.3579	572.75	119
789.4541	68.6199	589.15	132.2
789.5951	70.8815	614.9	152.55
789.7361	73.1426	668.3	202.7
789.8771	75.4032	793.9	324.5
790.0181	77.6634	1110.1	637.15
790.1592	79.9231	1876.1	1399.8
790.3003	82.1824	3467.9	2986.55
790.4414	84.4412	6292.45	5798.95
790.5825	86.6995	10095.3	9587.75
790.7237	88.9574	13836	13321.1
790.8648	91.2148	16588.3	16066.95
791.006	93.4717	18119.7	17592.65
791.1472	95.7282	18792.45	18264.95
791.2885	97.9842	19131.75	18598.75
791.4297	100.2398	19247.75	18712.7
791.571	102.4949	19332.4	18793.6
791.7123	104.7495	19335.6	18795.55
791.8536	107.0036	19296.1	18754.15
791.9949	109.2573	19302.5	18760.85
792.1363	111.5105	19313.5	18768.9
792.2777	113.7632	19311	18764.65
792.4191	116.0154	19363.2	18806.95
792.5605	118.2672	19406.35	18854.1
792.7019	120.5185	19425.4	18871.1
792.8434	122.7693	19448.8	18894.7
792.9849	125.0197	19472.4	18910.95
793.1264	127.2696	19471.45	18906.9
793.2679	129.519	19556.95	18989.55
793.4094	131.7679	19616.2	19045.45
793.551	134.0163	19679.1	19106.35
793.6926	136.2642	19700.8	19125.9
793.8342	138.5117	19696.6	19116.7
793.9758	140.7587	19686.55	19107.65
794.1175	143.0052	19740.5	19156.7
794.2591	145.2512	19704.85	19123.5
794.4008	147.4967	19697.35	19113.4
794.5425	149.7417	19699.05	19110.6
794.6842	151.9863	19662.25	19069.1
794.826	154.2304	19697.05	19102.8
794.9677	156.4739	19703.7	19102.7
795.1095	158.717	19736.55	19136.3
795.2513	160.9596	19747.65	19140.9
795.3931	163.2017	19748.6	19139.6
795.535	165.4433	19765.75	19154.45
795.6768	167.6844	19764.5	19151.25
795.8187	169.925	19787.4	19169
795.9606	172.1651	19734.8	19117.9
796.1025	174.4047	19746.45	19123.25
796.2445	176.6439	19727.8	19105.1
796.3864	178.8825	19704.5	19078.8
796.5284	181.1206	19773.35	19142.15
796.6704	183.3582	19798.55	19163.6
796.8124	185.5954	19808.4	19172.35
796.9544	187.832	19797.65	19156.5
797.0965	190.0681	19868.95	19226.75
797.2386	192.3037	19893.35	19243.9
797.3806	194.5388	19921.5	19274.75
797.5228	196.7734	19981.95	19329.8
797.6649	199.0075	20032.6	19382.3
797.807	201.2411	20128.55	19478.1
797.9492	203.4742	20154.9	19501.85
798.0914	205.7068	20214	19554.85
798.2336	207.9389	20240.7	19577.55
798.3758	210.1704	20330	19675.25
798.518	212.4015	20263.7	19618.75
798.6603	214.632	20312.4	19673.45
798.8025	216.862	20369.1	19731.95
798.9448	219.0915	20358.6	19717.9
799.0871	221.3205	20412.95	19769.1
799.2294	223.549	20441.85	19801.2
799.3718	225.777	20493.85	19854.65
799.5141	228.0044	20507.9	19862.35
799.6565	230.2314	20575.75	19929.2
799.7989	232.4578	20537.9	19885.85
799.9413	234.6837	20595.6	19934
800.0837	236.909	20612.2	19950.5
800.2262	239.1339	20675.35	19990.8
800.3687	241.3582	20675.25	20003.1
800.5111	243.582	20693.2	19989.7
800.6536	245.8053	20700.05	20010.5
800.7961	248.0281	20693.6	20010.4
800.9387	250.2503	20710.7	20023.8
801.0812	252.472	20757.2	20067.75
801.2238	254.6932	20769.05	20079.05
801.3664	256.9139	20719.05	20026.5
801.509	259.134	20793.4	20096.35
801.6516	261.3536	20809.25	20116.15
801.7942	263.5727	20878.9	20182.8
801.9369	265.7912	20817.9	20123.25
802.0795	268.0092	20893.8	20199.15
802.2222	270.2267	20883.4	20187.65
802.3649	272.4436	20959	20260.65
802.5076	274.6601	20930.7	20219.7
802.6504	276.8759	20928.5	20224.9
802.7931	279.0913	20979.7	20274
802.9359	281.3061	20997	20289.35
803.0787	283.5204	21035.1	20325.8
803.2215	285.7341	21060	20346.65
803.3643	287.9473	21082.05	20358.45
803.5071	290.16	21109.9	20393.95
803.6499	292.3721	21094.55	20386.3
803.7928	294.5837	21060.3	20345.9
803.9357	296.7947	21007.25	20295.2
804.0786	299.0052	21040.3	20328
804.2215	301.2152	20984.2	20267.95
804.3644	303.4246	21033.6	20319.25
804.5074	305.6334	20960.4	20246
804.6503	307.8418	20993.15	20276.45
804.7933	310.0495	20982.1	20264.25
804.9363	312.2568	20933.95	20215.75
805.0793	314.4635	20837.3	20114.45
805.2223	316.6696	20792	20065.85
805.3653	318.8752	20759.85	20026.3
805.5084	321.0802	20713.05	19986.1
805.6514	323.2847	20731.95	20002.15
805.7945	325.4887	20691.75	19964.35
805.9376	327.692	20689.1	19958.45
806.0807	329.8949	20731.25	20001.55
806.2238	332.0972	20760.55	20025.9
806.367	334.2989	20780.7	20045.9
806.5101	336.5001	20762.25	20026.5
806.6533	338.7007	20765.95	20029.45
806.7965	340.9008	20763.45	20025.3
806.9397	343.1003	20717.45	19975.25
807.0829	345.2992	20719.3	19976.6
807.2261	347.4976	20701.4	19958.8
807.3693	349.6955	20667.3	19919.8
807.5126	351.8927	20739.85	19989.95
807.6559	354.0895	20656.25	19900.6
807.7991	356.2856	20660.25	19909.4
807.9424	358.4812	20637.2	19887.65
808.0857	360.6763	20650.25	19898.2
808.2291	362.8707	20611.65	19856.6
808.3724	365.0646	20660.6	19903.3
808.5158	367.258	20627.5	19869.5
808.6591	369.4508	20559.3	19794.75
808.8025	371.643	20636.8	19873.1
808.9459	373.8346	20553	19788.25
809.0893	376.0257	20549.7	19782.75
809.2327	378.2162	20504.95	19739.6
809.3762	380.4062	20533.75	19767.55
809.5196	382.5956	20501.35	19737.15
809.6631	384.7844	20479.65	19717.05
809.8066	386.9726	20386.1	19628.15
809.9501	389.1603	20322.05	19563.75
810.0936	391.3474	20337.2	19541.6
810.2371	393.5339	20321.65	19560.3
810.3806	395.7199	20291.6	19531.75
810.5241	397.9052	20268.1	19510.25
810.6677	400.09	20287.4	19529.3
810.8113	402.2743	20294.25	19533.75
810.9548	404.4579	20310.35	19545.7
811.0984	406.641	20347.25	19581.55
811.2421	408.8235	20368.8	19602.95
811.3857	411.0054	20434	19665.45
811.5293	413.1868	20486.5	19712.5
811.673	415.3675	20515.1	19740.25
811.8166	417.5477	20512.55	19733.95
811.9603	419.7273	20427.2	19646.75
812.104	421.9064	20290.9	19502.75
812.2477	424.0848	20233.55	19452.9
812.3914	426.2627	20147.95	19367.8
812.5351	428.4399	20102.8	19321
812.6788	430.6166	20035.05	19250.25
812.8226	432.7928	19973.35	19186.4
812.9663	434.9683	19947.65	19160.6
813.1101	437.1432	19894.55	19105.2
813.2539	439.3176	19795.55	19010.15
813.3977	441.4914	19771.85	18986.95
813.5415	443.6645	19744.4	18956.95
813.6853	445.8371	19655.35	18867.55
813.8291	448.0091	19547.4	18761.5
813.973	450.1806	19527.05	18737.25
814.1168	452.3514	19465.6	18674.4
814.2607	454.5216	19500.7	18700.95
814.4046	456.6913	19387.5	18592.5
814.5485	458.8603	19397.6	18606.4
814.6924	461.0288	19428	18637.9
814.8363	463.1967	19347	18553.85
814.9802	465.3639	19364.4	18571.05
815.1241	467.5306	19328.3	18536.35
815.2681	469.6967	19267.3	18472.75
815.412	471.8622	19223.35	18428.4
815.556	474.0271	19203.25	18407.6
815.7	476.1914	19174.55	18375.15
815.844	478.3551	19182.8	18384.95
815.988	480.5182	19190.95	18394.85
816.132	482.6807	19192.05	18395.3
816.276	484.8426	19237.75	18442.6
816.4201	487.0039	19241.75	18445.9
816.5641	489.1647	19288.15	18487.6
816.7082	491.3248	19340	18540.35
816.8522	493.4843	19299	18499.75
816.9963	495.6432	19282.95	18484.9
817.1404	497.8015	19233.45	18429.15
817.2845	499.9592	19222	18417.45
817.4286	502.1163	19191.55	18386.35
817.5727	504.2728	19128.1	18321.3
817.7168	506.4287	19136.95	18335.9
817.861	508.5839	19100.35	18294.4
818.0051	510.7386	19076.7	18271
818.1493	512.8927	19062.75	18252.9
818.2935	515.0461	19071.35	18261.9
818.4377	517.199	19052.35	18243.2
818.5818	519.3512	19045.15	18235.45
818.726	521.5029	19096.05	18281.35
818.8703	523.6539	19090.5	18278.1
819.0145	525.8043	19108.85	18294.4
819.1587	527.9541	19010.4	18191.8
819.303	530.1033	18968.3	18152.35
819.4472	532.2519	18913.45	18098.6
819.5915	534.3999	18912.5	18095.75
819.7357	536.5472	18869.85	18054.65
819.88	538.694	18895.6	18080.95
820.0243	540.8401	18892.7	18077.95
820.1686	542.9856	18925.3	18103.85
820.3129	545.1305	18868.55	18049.25
820.4572	547.2748	18901.4	18081.9
820.6016	549.4185	18883.6	18061.55
820.7459	551.5615	18836.2	18016.7
820.8902	553.704	18838.3	18016.95
821.0346	555.8458	18827.2	18008.65
821.1789	557.987	18848.25	18031
821.3233	560.1276	18799.1	17979.4
821.4677	562.2675	18815.5	17997.4
821.6121	564.4069	18823.15	18005.75
821.7565	566.5456	18803.4	17985.3
821.9009	568.6837	18790.7	17971.7
822.0453	570.8212	18722.85	17902.7
822.1897	572.958	18671.05	17851.2
822.3342	575.0942	18612.4	17793.4
822.4786	577.2299	18547.3	17725.7
822.6231	579.3648	18446.1	17626.25
822.7675	581.4992	18352.35	17531.6
822.912	583.6329	18313.25	17493.4
823.0565	585.766	18296.65	17477.95
823.201	587.8985	18236.45	17414.75
823.3454	590.0304	18282.75	17446.45
823.4899	592.1616	18260.1	17432.35
823.6345	594.2922	18225.45	17400
823.779	596.4222	18154.75	17323.95
823.9235	598.5515	18093	17264.55
824.068	600.6802	18026.05	17197.85
824.2126	602.8083	17953.55	17124.9
824.3571	604.9358	17971.85	17141.15
824.5017	607.0626	17875.15	17044.65
824.6462	609.1888	17866.9	17035.95
824.7908	611.3144	17893.9	17059.8
824.9354	613.4393	17826.4	16995.5
825.08	615.5636	17805.85	16973.15
825.2246	617.6873	17872.4	17039.5
825.3692	619.8103	17863.05	17027.6
825.5138	621.9327	17803.7	16967.15
825.6584	624.0544	17777.3	16945.25
825.803	626.1756	17738.1	16906.5
825.9477	628.2961	17700.6	16865.55
826.0923	630.4159	17671.8	16834.95
826.237	632.5351	17685.75	16846.85
826.3816	634.6537	17659.65	16822.45
826.5263	636.7716	17607.95	16768.1
826.6709	638.8889	17622.8	16783.9
826.8156	641.0056	17647.3	16809
826.9603	643.1216	17589.95	16752.6
827.105	645.237	17626.5	16786.7
827.2497	647.3518	17566.25	16729.5
827.3944	649.4659	17520.5	16683.9
827.5391	651.5793	17472.6	16632.35
827.6838	653.6922	17458.95	16621.25
827.8285	655.8043	17413.25	16573.5
827.9733	657.9159	17441.3	16602.5
828.118	660.0268	17380.85	16537.3
828.2627	662.137	17359.25	16518.7
828.4075	664.2466	17340.65	16496.75
828.5522	666.3556	17350.7	16507
828.697	668.4639	17296	16450.35
828.8418	670.5716	17298.1	16459.15
828.9865	672.6786	17271.55	16427.85
829.1313	674.785	17221.35	16374.95
829.2761	676.8907	17153.7	16308.05
829.4209	678.9958	17166.45	16325.05
829.5657	681.1002	17103.65	16257.8
829.7105	683.204	17082.8	16232.7
829.8553	685.3072	17068.4	16220.3
830.0001	687.4097	17035.55	16189.75
830.1449	689.5115	17029	16179.45
830.2898	691.6127	17007.55	16163.8
830.4346	693.7132	16962.1	16116.1
830.5794	695.8131	16999.85	16130.35
830.7243	697.9123	17005.6	16158.15
830.8691	700.0109	16976.1	16126.75
831.014	702.1089	16953.5	16107.4
831.1588	704.2061	16921.25	16073.1
831.3037	706.3028	16924.4	16075.95
831.4486	708.3987	16887.75	16038.4
831.5935	710.4941	16873.1	16024.2
831.7383	712.5887	16855.65	16004.75
831.8832	714.6827	16900.15	16046.95
832.0281	716.7761	16865.05	16015.95
832.173	718.8688	16858.45	16006.15
832.3179	720.9608	16821.3	15965.05
832.4628	723.0522	16809.85	15954
832.6077	725.1429	16800.9	15947.55
832.7527	727.233	16784.3	15930
832.8976	729.3224	16836.5	15983.95
833.0425	731.4112	16802.4	15946.9
833.1874	733.4993	16801.7	15944.85
833.3324	735.5867	16760.45	15905
833.4773	737.6735	16660.7	15805.65
833.6222	739.7596	16631.15	15774.4
833.7672	741.845	16588.35	15733.55
833.9122	743.9298	16538.45	15681.65
834.0571	746.014	16516.95	15661.15
834.2021	748.0974	16524.3	15665.2
834.347	750.1802	16467.35	15609.9
834.492	752.2624	16422.7	15566.05
834.637	754.3439	16378.05	15521.35
834.782	756.4247	16300.8	15433
834.9269	758.5048	16247.8	15389.95
835.0719	760.5843	16263.25	15402.15
835.2169	762.6631	16164.75	15308.3
835.3619	764.7413	16186.75	15331.05
835.5069	766.8188	16229.65	15370.7
835.6519	768.8956	16187.2	15324.9
835.7969	770.9718	16243	15385.6
835.9419	773.0473	16155.55	15296.35
836.0869	775.1221	16108.1	15251.85
836.232	777.1962	16071.3	15209.8
836.377	779.2697	16064.1	15204.1
836.522	781.3426	16102.7	15222.9
836.667	783.4147	16099.7	15240.45
836.8121	785.4862	16053.65	15196.6
836.9571	787.557	15989.55	15128.25
837.1021	789.6271	15915.15	15050.8
837.2472	791.6966	15828.85	14967.7
837.3922	793.7654	15721.85	14861
837.5373	795.8335	15695.65	14835.75
837.6823	797.901	15640.65	14778.65
837.8274	799.9678	15619.3	14754.5
837.9724	802.0339	15602.15	14742.3
838.1175	804.0993	15586.65	14714.6
838.2626	806.1641	15549.1	14685.4
838.4076	808.2282	15486.05	14624.8
838.5527	810.2916	15478.7	14615
838.6978	812.3544	15455.05	14594.4
838.8428	814.4164	15401	14536.6
838.9879	816.4778	15426.95	14561.3
839.133	818.5385	15386.55	14520.25
839.2781	820.5986	15415.55	14554.1
839.4232	822.658	15415.3	14549.65
839.5682	824.7166	15358.9	14495.8
839.7133	826.7747	15486.25	14621.8
839.8584	828.832	15485.65	14620.45
840.0035	830.8886	15420.1	14550.35
840.1486	832.9446	15424.55	14556.1
840.2937	834.9999	15355.9	14492.25
840.4388	837.0545	15337.9	14468.35
840.5839	839.1085	15286.9	14421.3
840.729	841.1618	15231.2	14359.6
840.8741	843.2143	15163.25	14298.8
841.0192	845.2662	15112.3	14245.6
841.1643	847.3175	15079.85	14214.15
841.3095	849.368	15061.6	14195.3
841.4546	851.4179	15053.3	14185
841.5997	853.467	14981	14113.75
841.7448	855.5155	14958.9	14090.35
841.8899	857.5633	14933.95	14066.5
842.0351	859.6105	14901.35	14033.85
842.1802	861.6569	14866.7	13999.2
842.3253	863.7027	14861.3	13991.3
842.4704	865.7478	14816.6	13945.55
842.6156	867.7922	14824.3	13957.45
842.7607	869.8359	14782.85	13914.4
842.9058	871.8789	14768.45	13897.25
843.0509	873.9212	14769.7	13866.85
843.1961	875.9629	14706.75	13837.6
843.3412	878.0039	14730.5	13858.45
843.4863	880.0441	14709.65	13840.9
843.6315	882.0837	14727.3	13855.25
843.7766	884.1226	14711.4	13841.05
843.9218	886.1609	14705.1	13836.3
844.0669	888.1984	14725.35	13854.85
844.212	890.2352	14743.15	13873.9
844.3572	892.2714	14740.55	13865.1
844.5023	894.3069	14729.5	13859.7
844.6475	896.3416	14638.3	13767.5
844.7926	898.3757	14598.9	13726.2
844.9377	900.4091	14580.35	13708.75
845.0829	902.4418	14551.1	13673.8
845.228	904.4739	14497.45	13624.1
845.3732	906.5052	14489.95	13618.75
845.5183	908.5358	14470.5	13598.45
845.6635	910.5658	14459.45	13584.15
845.8086	912.595	14414.3	13540.25
845.9538	914.6236	14336.35	13460.7
846.0989	916.6515	14330.35	13456.6
846.2441	918.6786	14294.7	13418.6
846.3892	920.7051	14276.8	13400.75
846.5344	922.7309	14287.25	13409.55
846.6795	924.756	14216.25	13344.85
846.8246	926.7804	14204.05	13328.9
846.9698	928.8041	14105.65	13229.25
847.1149	930.8272	14130.85	13259.15
847.2601	932.8495	14058.35	13182.7
847.4052	934.8711	14099.65	13224.9
847.5504	936.892	14009.7	13134.85
847.6955	938.9123	13969.6	13093.45
847.8407	940.9318	13936.8	13061.1
847.9858	942.9506	13924.55	13048.5
848.131	944.9688	13843.85	12969.45
848.2761	946.9862	13809.75	12935.95
848.4213	949.003	13778.9	12902.1
848.5664	951.019	13744	12868.8
848.7115	953.0344	13687.75	12812.4
848.8567	955.0491	13665.5	12787.85
849.0018	957.063	13681.35	12806.9
849.147	959.0763	13688.5	12812.05
849.2921	961.0888	13608.9	12730.1
849.4373	963.1007	13623.45	12747.9
849.5824	965.1119	13593.75	12718.55
849.7275	967.1223	13564.35	12691
849.8727	969.1321	13550.55	12675.65
850.0178	971.1412	13503.8	12629.6
850.1629	973.1495	13454.85	12579.75
850.3081	975.1572	13512.35	12589.95
850.4532	977.1641	13488.55	12611
850.5983	979.1704	13437.1	12558.45
850.7435	981.1759	13389.65	12508.45
850.8886	983.1808	13371.9	12495.5
851.0337	985.1849	13318.75	12429.9
851.1788	987.1884	13290.15	12409.25
851.324	989.1911	13270.6	12392.55
851.4691	991.1932	13260.25	12380.1
851.6142	993.1945	13192.2	12314.45
851.7593	995.1951	13159.4	12281.65
851.9045	997.1951	13152.9	12270.2
852.0496	999.1943	13078.05	12201.6
852.1947	1001.1928	13039.3	12160.95
852.3398	1003.1906	12993.2	12117.05
852.4849	1005.1877	12966.25	12084
852.63	1007.1841	12964.05	12088.1
852.7751	1009.1798	12915.45	12037.75
852.9202	1011.1748	12851.25	11972.15
853.0653	1013.1691	12816	11938.3
853.2104	1015.1627	12765.2	11885.75
853.3555	1017.1556	12662.45	11782.85
853.5006	1019.1477	12633.8	11753.3
853.6457	1021.1392	12562.5	11683
853.7908	1023.1299	12526.9	11648.2
853.9359	1025.12	12446.3	11567.3
854.081	1027.1093	12444.1	11567.95
854.2261	1029.0979	12416.95	11543.65
854.3712	1031.0859	12372.2	11499.3
854.5163	1033.0731	12362.15	11486.25
854.6613	1035.0596	12310.55	11431.45
854.8064	1037.0454	12241.4	11361.8
854.9515	1039.0304	12265.3	11387.65
855.0965	1041.0148	12203.65	11322.65
855.2416	1042.9985	12149.8	11269.35
855.3867	1044.9814	12127.2	11248.45
855.5317	1046.9636	12053.35	11171.1
855.6768	1048.9452	12018.5	11139.65
855.8219	1050.926	12020.35	11141.25
855.9669	1052.9061	11997.7	11116.75
856.112	1054.8855	11976.7	11098.3
856.257	1056.8642	11949.65	11069.55
856.4021	1058.8421	11932.95	11049.85
856.5471	1060.8194	11892.25	11010.55
856.6921	1062.7959	11868.45	10985.85
856.8372	1064.7717	11827.9	10945.7
856.9822	1066.7469	11833.05	10951.3
857.1272	1068.7213	11802.3	10918.4
857.2723	1070.695	11800.05	10919.15
857.4173	1072.6679	11731.05	10849.15
857.5623	1074.6402	11738.2	10857.15
857.7073	1076.6117	11713.3	10824.95
857.8523	1078.5826	11718.25	10838.95
857.9973	1080.5527	11631.55	10746.5
858.1423	1082.5221	11616.45	10734.15
858.2873	1084.4908	11577.1	10695.45
858.4323	1086.4587	11555.9	10673.25
858.5773	1088.426	11529.55	10647.65
858.7223	1090.3925	11484.3	10599.2
858.8673	1092.3584	11450.55	10570.2
859.0123	1094.3235	11422.05	10540.4
859.1573	1096.2879	11405.6	10521.9
859.3022	1098.2515	11403.5	10522.25
859.4472	1100.2145	11408.45	10526
859.5922	1102.1767	11396.65	10513.5
859.7371	1104.1382	11396.95	10515
859.8821	1106.099	11383.8	10501.6
860.027	1108.0591	11386.1	10502.25
860.172	1110.0185	11366.55	10482.8
860.3169	1111.9771	11370	10489.8
860.4619	1113.9351	11344.55	10463.15
860.6068	1115.8923	11363.3	10480.5
860.7517	1117.8488	11366.05	10480.7
860.8967	1119.8045	11272.7	10389.75
861.0416	1121.7596	11221.15	10339.45
861.1865	1123.7139	11139.65	10258.4
861.3314	1125.6675	11081.4	10198.3
861.4763	1127.6204	11081.05	10199.45
861.6212	1129.5726	11048.4	10163.75
861.7661	1131.524	11032.95	10151.2
861.911	1133.4748	10999.6	10116
862.0559	1135.4248	10972.9	10087.95
862.2008	1137.3741	10912.85	10029.7
862.3457	1139.3226	10873.55	9989.45
862.4905	1141.2705	10851.5	9966.6
862.6354	1143.2176	10801.2	9912.35
862.7803	1145.164	10800.2	9912.55
862.9251	1147.1097	10797.15	9915.45
863.07	1149.0546	10739.9	9854.4
863.2148	1150.9989	10753.25	9869.7
863.3597	1152.9424	10753.75	9868.65
863.5045	1154.8852	10701.85	9819.15
863.6493	1156.8272	10670.4	9789.1
863.7942	1158.7686	10669.55	9778.6
863.939	1160.7092	10618.85	9734.2
864.0838	1162.6491	10599.8	9712.3
864.2286	1164.5883	10593.55	9709.25
864.3734	1166.5267	10580.4	9692.55
864.5182	1168.4644	10601.35	9717.5
864.663	1170.4014	10589.9	9699.5
864.8078	1172.3377	10603.2	9720.5
864.9526	1174.2732	10603.7	9719.75
865.0974	1176.2081	10683.35	9801.1
865.2421	1178.1421	10692.55	9805.5
865.3869	1180.0755	10752	9868.85
865.5317	1182.0082	10736.6	9852.65
865.6764	1183.9401	10702.55	9817.2
865.8212	1185.8713	10625.3	9743.3
865.9659	1187.8017	10549	9665.6
866.1106	1189.7315	10488.45	9606
866.2554	1191.6605	10377.95	9496.4
866.4001	1193.5888	10314.9	9433.6
866.5448	1195.5163	10291.4	9410.05
866.6895	1197.4432	10244.5	9358.75
866.8342	1199.3693	10210.75	9324.1
866.9789	1201.2947	10126.1	9238.15
867.1236	1203.2193	10100.45	9213.65
867.2683	1205.1432	10113.9	9228.8
867.413	1207.0664	10058.15	9173.05
867.5576	1208.9889	10046.8	9156.65
867.7023	1210.9106	9984.5	9099.35
867.847	1212.8316	9958.4	9073.15
867.9916	1214.7519	9946.2	9050.85
868.1363	1216.6715	9927.85	9045.15
868.2809	1218.5903	9916.6	9031
868.4255	1220.5084	9888.75	9005.5
868.5701	1222.4257	9903.05	9018.7
868.7148	1224.3424	9853.95	8970.85
868.8594	1226.2583	9860.75	8972.55
869.004	1228.1735	9854.4	8969.3
869.1486	1230.0879	9791.3	8906.05
869.2932	1232.0016	9817.65	8934.05
869.4377	1233.9146	9807.85	8921.65
869.5823	1235.8269	9830.8	8944.8
869.7269	1237.7384	9814.95	8927.9
869.8715	1239.6492	9778.45	8894.35
870.016	1241.5592	9790.65	8905
870.1606	1243.4686	9786.8	8900.7
870.3051	1245.3772	9788.85	8903.75
870.4496	1247.285	9813.8	8926.6
870.5941	1249.1922	9839.6	8955.25
870.7387	1251.0986	9873.95	8989.5
870.8832	1253.0042	9870.4	8986.55
871.0277	1254.9092	9890.9	9006.2
871.1722	1256.8134	9894.95	9008.1
871.3167	1258.7169	9948.6	9063.35
871.4611	1260.6196	9929.8	9045.5
871.6056	1262.5216	9953.4	9066.95
871.7501	1264.4229	9898.95	9015.6
871.8945	1266.3234	9895.75	9009.7
872.039	1268.2232	9856.15	8970.45
872.1834	1270.1223	9821.5	8936.25
872.3278	1272.0207	9787.45	8903.35
872.4723	1273.9183	9763.7	8872.55
872.6167	1275.8151	9753.55	8867.8
872.7611	1277.7113	9774.3	8890.75
872.9055	1279.6067	9762.9	8878.45
873.0499	1281.5014	9834.25	8942.95
873.1943	1283.3953	9917.25	9031.4
873.3386	1285.2885	10010.1	9126.05
873.483	1287.181	10048.15	9160.45
873.6274	1289.0727	10103.15	9218.35
873.7717	1290.9637	10065.85	9178.85
873.9161	1292.854	10005.4	9119.85
874.0604	1294.7435	9930.9	9044.25
874.2047	1296.6323	9861.75	8973.25
874.349	1298.5204	9814.55	8923.25
874.4933	1300.4077	9759.35	8870.3
874.6376	1302.2943	9691.6	8803.95
874.7819	1304.1802	9686.8	8800.65
874.9262	1306.0653	9653.15	8766.3
875.0705	1307.9497	9644.2	8757.7
875.2147	1309.8333	9612.3	8724.4
875.359	1311.7162	9574.35	8690.8
875.5032	1313.5984	9553.85	8662.85
875.6475	1315.4798	9513.65	8615
875.7917	1317.3605	9513.65	8611.85
875.9359	1319.2405	9495.25	8603.7
876.0801	1321.1197	9462.45	8574.75
876.2243	1322.9982	9383.25	8491.5
876.3685	1324.876	9356.55	8468.95
876.5127	1326.753	9291.45	8405.1
876.6569	1328.6293	9248.55	8359.3
876.801	1330.5048	9199.75	8309.7
876.9452	1332.3796	9131.9	8245.1
877.0893	1334.2537	9106.5	8195.8
877.2335	1336.127	9068.65	8181.95
877.3776	1337.9996	9033.25	8144.7
877.5217	1339.8714	9010.75	8124.7
877.6658	1341.7426	8997.05	8067.45
877.8099	1343.6129	8961.1	8072.75
877.954	1345.4826	8909.45	8024.85
878.0981	1347.3515	8900.7	8010.45
878.2422	1349.2196	8905.65	8017.65
878.3862	1351.087	8893.05	8005.85
878.5303	1352.9537	8881.2	7994
878.6743	1354.8197	8873.6	7987.65
878.8184	1356.6849	8855.1	7967.4
878.9624	1358.5493	8855.6	7968.65
879.1064	1360.4131	8848.9	7962.6
879.2504	1362.276	8859.2	7971.5
879.3944	1364.1383	8854.2	7967.6
879.5384	1365.9998	8848.05	7956.55
879.6823	1367.8606	8839.3	7949.1
879.8263	1369.7206	8794.65	7905.95
879.9702	1371.5799	8793.8	7903.75
880.1142	1373.4384	8721.9	7833.3
880.2581	1375.2962	8744.85	7854.5
880.402	1377.1533	8655.75	7768.15
880.5459	1379.0096	8590.85	7703.05
880.6898	1380.8652	8561.9	7672.85
880.8337	1382.7201	8523.4	7634.95
880.9776	1384.5742	8472.2	7586.25
881.1215	1386.4275	8421.9	7534.7
881.2653	1388.2802	8404	7517.75
881.4092	1390.132	8379.3	7490.95
881.553	1391.9832	8349.2	7460
881.6968	1393.8336	8312.65	7424.85
881.8406	1395.6832	8289.45	7399.7
881.9844	1397.5322	8253.8	7367.55
882.1282	1399.3803	8233.25	7338.4
882.272	1401.2278	8184.85	7296.3
882.4158	1403.0745	8166.65	7280.75
882.5595	1404.9204	8109.2	7220.85
882.7033	1406.7656	8121.95	7235.9
882.847	1408.6101	8098.45	7209.2
882.9908	1410.4538	8049.05	7163.2
883.1345	1412.2968	8032.25	7145.3
883.2782	1414.139	8001.3	7114.9
883.4219	1415.9805	8012.1	7127.4
883.5656	1417.8213	7982.7	7088.95
883.7092	1419.6613	7954.6	7068.9
883.8529	1421.5006	7955.9	7068
883.9965	1423.3391	7958.7	7069.9
884.1402	1425.1769	7951.4	7063.15
884.2838	1427.0139	7997.1	7109.4
884.4274	1428.8502	8014.7	7126.75
884.571	1430.6858	8045.65	7157.7
884.7146	1432.5206	8017.45	7131.1
884.8582	1434.3547	8027.1	7139.85
885.0018	1436.188	8001.45	7113.5
885.1453	1438.0206	7978.9	7090
885.2889	1439.8524	7947.85	7059.85
885.4324	1441.6835	7949.25	7059.4
885.5759	1443.5139	7917.75	7027
885.7194	1445.3435	7880.25	6993.75
885.8629	1447.1724	7895.65	7010.1
886.0064	1449.0005	7880	6993.25
886.1499	1450.8279	7873.85	6987.8
886.2933	1452.6545	7856.5	6967.9
886.4368	1454.4804	7871.85	6984.5
886.5802	1456.3056	7855.85	6961.55
886.7237	1458.13	7814.95	6930.5
886.8671	1459.9536	7790.75	6901.85
887.0105	1461.7766	7744.95	6858.85
887.1539	1463.5987	7703.7	6814.9
887.2972	1465.4202	7682.1	6793.35
887.4406	1467.2409	7625.2	6738.45
887.584	1469.0608	7615	6727.25
887.7273	1470.88	7579.65	6691.45
887.8706	1472.6984	7577.9	6689.8
888.0139	1474.5161	7508.85	6618
888.1572	1476.3331	7500.4	6614.6
888.3005	1478.1493	7485.45	6597.6
888.4438	1479.9648	7471.95	6585.25
888.5871	1481.7795	7451.75	6565.4
888.7303	1483.5935	7435.5	6547.9
888.8736	1485.4067	7403.95	6515.95
889.0168	1487.2192	7421.45	6532.6
889.16	1489.031	7411.15	6521.35
889.3032	1490.842	7389.15	6503.25
889.4464	1492.6522	7387.6	6498.9
889.5896	1494.4618	7348.1	6459.15
889.7327	1496.2705	7345.8	6458.5
889.8759	1498.0785	7316.7	6431.3
890.019	1499.8858	7310.75	6421.7
890.1622	1501.6924	7262.55	6374.55
890.3053	1503.4981	7254.7	6367.05
890.4484	1505.3032	7231.35	6343.9
890.5914	1507.1075	7240.9	6354.2
890.7345	1508.911	7187.4	6300.7
890.8776	1510.7138	7178.15	6288.9
891.0206	1512.5159	7154.35	6268.5
891.1637	1514.3172	7117.2	6228.4
891.3067	1516.1178	7102.2	6216.85
891.4497	1517.9176	7084.05	6194.3
891.5927	1519.7166	7066	6179.25
891.7357	1521.515	7031.85	6139.1
891.8786	1523.3126	7014.15	6125.5
892.0216	1525.1094	6996.8	6106.3
892.1645	1526.9055	6958.5	6072.2
892.3074	1528.7008	6935.1	6045.8
892.4503	1530.4954	6913.75	6025.15
892.5932	1532.2893	6892.5	6006.35
892.7361	1534.0824	6854.5	5962.1
892.879	1535.8747	6840.75	5953.95
893.0218	1537.6663	6812	5922.35
893.1647	1539.4572	6788.75	5901.95
893.3075	1541.2473	6761.75	5875.55
893.4503	1543.0367	6734.9	5847.5
893.5931	1544.8253	6729.9	5838.35
893.7359	1546.6132	6718.05	5829.05
893.8787	1548.4003	6686.7	5788.1
894.0214	1550.1867	6689.5	5794.4
894.1642	1551.9723	6656.05	5764.1
894.3069	1553.7572	6649.65	5762.2
894.4496	1555.5414	6626.85	5740.65
894.5923	1557.3247	6627.85	5739.6
894.735	1559.1074	6623.15	5739.95
894.8777	1560.8893	6636.15	5749.85
895.0204	1562.6705	6610	5723.2
895.163	1564.4509	6626.85	5742.4
895.3056	1566.2305	6602.5	5716.75
895.4482	1568.0094	6601	5717.65
895.5908	1569.7876	6592.3	5707.75
895.7334	1571.565	6577.95	5693.75
895.876	1573.3417	6556.3	5671.05
896.0186	1575.1176	6538.1	5651.25
896.1611	1576.8928	6516.15	5632.55
896.3036	1578.6672	6479.4	5594.45
896.4461	1580.4409	6490.8	5610
896.5886	1582.2138	6497.95	5610.65
896.7311	1583.986	6504.4	5619.8
896.8736	1585.7575	6497.95	5614.7
897.0161	1587.5282	6506.9	5622.5
897.1585	1589.2981	6514	5631.05
897.3009	1591.0673	6489.6	5608.1
897.4433	1592.8358	6496.4	5612.75
897.5857	1594.6035	6477.05	5592.15
897.7281	1596.3704	6440.15	5557
897.8705	1598.1366	6428.2	5544.35
898.0128	1599.9021	6385.1	5500.6
898.1551	1601.6668	6352.85	5465.05
898.2975	1603.4308	6294.65	5412.15
898.4398	1605.194	6279.5	5390.65
898.5821	1606.9564	6276.15	5392.55
898.7243	1608.7182	6290.05	5404.9
898.8666	1610.4791	6317.15	5435.05
899.0088	1612.2394	6355	5473.85
899.1511	1613.9988	6387.6	5505.25
899.2933	1615.7576	6427.3	5542.95
899.4355	1617.5156	6445.05	5555.95
899.5776	1619.2728	6402.1	5517.65
899.7198	1621.0293	6338.3	5455.3
899.862	1622.785	6249.8	5363.5
900.0041	1624.54	6160.95	5274.1
900.1462	1626.2942	6077.05	5192.7
900.2883	1628.0477	5978.4	5091.9
900.4304	1629.8005	5924.65	5039.7
900.5725	1631.5525	5854.55	4971.25
900.7145	1633.3037	5812.8	4929.45
900.8566	1635.0542	5782.4	4898.85
900.9986	1636.804	5748.2	4864.55
901.1406	1638.553	5770.75	4796.85
901.2826	1640.3013	5679.3	4794.1
901.4245	1642.0488	5645.75	4762.2
901.5665	1643.7955	5624.75	4743.15
901.7085	1645.5416	5586.35	4702.15
901.8504	1647.2868	5566.25	4681.5
901.9923	1649.0313	5552.55	4667.9
902.1342	1650.7751	5534.35	4648.85
902.2761	1652.5181	5529.25	4645.85
902.4179	1654.2604	5494.9	4611.15
902.5598	1656.0019	5479.55	4598.85
902.7016	1657.7427	5475.45	4590.1
902.8434	1659.4828	5476.95	4594.65
902.9852	1661.222	5458	4573.05
903.127	1662.9606	5452.5	4570
903.2687	1664.6984	5480.25	4595.4
903.4105	1666.4354	5472.75	4589.5
903.5522	1668.1717	5430.85	4546.45
903.6939	1669.9072	5379.55	4497.05
903.8356	1671.642	5351.3	4463.95
903.9773	1673.3761	5307.4	4422.6
904.119	1675.1094	5257.65	4375.65
904.2606	1676.8419	5251.2	4366.4
904.4022	1678.5737	5216.05	4331.35
904.5439	1680.3048	5185.95	4299.7
904.6855	1682.0351	5154.5	4271.65
904.827	1683.7646	5113.7	4226.65
904.9686	1685.4934	5103	4218.9
905.1101	1687.2215	5096.85	4212
905.2517	1688.9488	5060.15	4177
905.3932	1690.6754	5028.5	4144.45
905.5347	1692.4012	5032.25	4149.2
905.6761	1694.1263	5015.8	4131.1
905.8176	1695.8506	4995.8	4112.3
905.9591	1697.5742	4959.55	4077.5
906.1005	1699.297	4957	4074.2
906.2419	1701.0191	4935.4	4054.5
906.3833	1702.7404	4909	4024.8
906.5246	1704.461	4865.45	3981.6
906.666	1706.1808	4859.95	3974.85
906.8073	1707.8999	4854.25	3968.5
906.9487	1709.6182	4836.35	3953.15
907.09	1711.3358	4847.15	3964.2
907.2313	1713.0527	4812.7	3931.45
907.3725	1714.7688	4790.3	3899.5
907.5138	1716.4841	4795.5	3909.9
907.655	1718.1987	4778.85	3890.85
907.7962	1719.9126	4752.9	3870.05
907.9374	1721.6257	4744.7	3859.65
908.0786	1723.338	4747.65	3862.85
908.2198	1725.0496	4720.4	3836.05
908.3609	1726.7605	4711.3	3827.55
908.502	1728.4706	4703.6	3821.6
908.6431	1730.18	4667.9	3783.45
908.7842	1731.8886	4676.8	3796.05
908.9253	1733.5964	4681	3790.8
909.0664	1735.3036	4680.55	3796.25
909.2074	1737.0099	4668.35	3782.8
909.3484	1738.7156	4659.65	3778.5
909.4894	1740.4204	4650.35	3765.5
909.6304	1742.1246	4629.15	3744.25
909.7714	1743.8279	4622	3740.9
909.9123	1745.5306	4635.05	3752.25
910.0532	1747.2325	4636.3	3754.15
910.1941	1748.9336	4608.4	3725.55
910.335	1750.634	4590.65	3705.45
910.4759	1752.3336	4582.45	3700.6
910.6168	1754.0325	4584	3704.3
910.7576	1755.7307	4584.5	3702.3
910.8984	1757.4281	4582.15	3699.15
911.0392	1759.1247	4569.65	3675.75
911.18	1760.8206	4575.15	3688.25
911.3208	1762.5158	4575.55	3687.7
911.4615	1764.2102	4536.3	3654
911.6022	1765.9039	4527.4	3644.35
911.7429	1767.5968	4526.2	3644.05
911.8836	1769.289	4500.05	3618.05
912.0243	1770.9804	4495.9	3611.45
912.1649	1772.6711	4517.15	3632.7
912.3056	1774.361	4501.05	3616.4
912.4462	1776.0502	4482.3	3597.55
912.5868	1777.7386	4488.85	3603.05
912.7274	1779.4263	4480.65	3597.25
912.8679	1781.1132	4467.1	3585.3
913.0084	1782.7994	4448.65	3566.85
913.149	1784.4849	4440.3	3556.35
913.2895	1786.1696	4443.35	3544.65
913.4299	1787.8535	4415.5	3533.4
913.5704	1789.5367	4414.6	3531.75
913.7108	1791.2192	4417.45	3533.35
913.8513	1792.9009	4432.35	3517.05
913.9917	1794.5818	4386.85	3503.7
914.132	1796.2621	4378.2	3496.7
914.2724	1797.9415	4352.7	3468
914.4128	1799.6202	4342.1	3457.95
914.5531	1801.2982	4347.45	3464.9
914.6934	1802.9755	4343.85	3458.35
914.8337	1804.6519	4332.45	3447.3
914.9739	1806.3277	4323.35	3441.45
915.1142	1808.0027	4299.1	3418.45
915.2544	1809.6769	4294.25	3412.7
915.3946	1811.3504	4271.1	3387.1
915.5348	1813.0231	4266.65	3384.35
915.675	1814.6951	4273.7	3391.8
915.8151	1816.3664	4276.25	3391
915.9553	1818.0369	4258.75	3375.2
916.0954	1819.7067	4249.45	3365.7
916.2355	1821.3757	4246.15	3361.1
916.3755	1823.044	4234.05	3349.6
916.5156	1824.7115	4225.2	3343.15
916.6556	1826.3783	4218.45	3336.45
916.7956	1828.0443	4203.65	3319.05
916.9356	1829.7096	4198.15	3316.05
917.0756	1831.3741	4184.75	3298.5
917.2155	1833.0379	4175.2	3294.15
917.3555	1834.701	4183.7	3299.4
917.4954	1836.3633	4170.1	3287.5
917.6353	1838.0248	4156.2	3272.8
917.7751	1839.6856	4151.15	3266.9
917.915	1841.3457	4154.7	3272.25
918.0548	1843.005	4148.3	3265.3
918.1946	1844.6636	4130.75	3248.8
918.3344	1846.3214	4114.5	3231.65
918.4742	1847.9785	4110.6	3227.1
918.6139	1849.6349	4099	3216.35
918.7537	1851.2904	4105.75	3213.55
918.8934	1852.9453	4096.3	3210.8
919.0331	1854.5994	4072.7	3187.75
919.1727	1856.2528	4072.7	3183.45
919.3124	1857.9054	4074.7	3191.7
919.452	1859.5572	4064.25	3182.8
919.5916	1861.2083	4061.35	3179.15
919.7312	1862.8587	4043.2	3160.15
919.8708	1864.5084	4039.2	3153.75
920.0103	1866.1572	4036.85	3153.8
920.1498	1867.8054	4012.7	3129.55
920.2893	1869.4528	4006.55	3121
920.4288	1871.0994	3988.75	3104.45
920.5683	1872.7453	4006.7	3123.6
920.7077	1874.3905	3991.45	3101.45
920.8471	1876.0349	3979.75	3096.75
920.9865	1877.6786	3985.9	3101.35
921.1259	1879.3215	3975.45	3093.65
921.2653	1880.9637	3959.5	3075.4
921.4046	1882.6051	3962.35	3078.45
921.5439	1884.2458	3959	3073.35
921.6832	1885.8858	3956.2	3071.75
921.8225	1887.525	3945.9	3063.5
921.9617	1889.1634	3914.85	3030.3
922.101	1890.8011	3917.6	3031.8
922.2402	1892.4381	3910	3027.8
922.3794	1894.0743	3903.25	3019.8
922.5185	1895.7098	3909.4	3024.65
922.6577	1897.3446	3892.65	3008.45
922.7968	1898.9786	3895.3	3006.5
922.9359	1900.6118	3862.6	2982
923.075	1902.2443	3869.95	2980.3
923.214	1903.8761	3854.8	2972.1
923.3531	1905.5071	3837.3	2953.75
923.4921	1907.1374	3833.1	2949.1
923.6311	1908.7669	3834.9	2951.7
923.77	1910.3957	3828.65	2946.3
923.909	1912.0237	3802.25	2918.65
924.0479	1913.651	3813.3	2928.45
924.1868	1915.2776	3800.5	2919.2
924.3257	1916.9034	3772.6	2892.55
924.4646	1918.5285	3785.05	2900.3
924.6034	1920.1528	3756.35	2874.4
924.7422	1921.7764	3746.65	2863.1
924.881	1923.3992	3745.75	2862.25
925.0198	1925.0213	3716.35	2834.3
925.1586	1926.6427	3726.55	2845.65
925.2973	1928.2633	3885.35	2781.65
925.436	1929.8832	3733.75	2847.75
925.5747	1931.5023	3695.8	2811.1
925.7134	1933.1207	3691.2	2807.3
925.852	1934.7383	3684.8	2800.45
925.9906	1936.3552	3668.55	2785.55
926.1292	1937.9714	3684.95	2803.55
926.2678	1939.5868	3655.6	2771.2
926.4064	1941.2015	3631.15	2745.6
926.5449	1942.8154	3640.9	2757
926.6834	1944.4286	3622.95	2740.45
926.8219	1946.041	3630.55	2726.45
926.9604	1947.6528	3611.15	2722.75
927.0988	1949.2637	3601.1	2720.3
927.2372	1950.8739	3593.3	2707.85
927.3756	1952.4834	3572.1	2687.45
927.514	1954.0921	3589.9	2707
927.6523	1955.7001	3571.75	2683.15
927.7907	1957.3074	3574.15	2693.45
927.929	1958.9139	3554.05	2675.35
928.0673	1960.5197	3553.6	2669.55
928.2055	1962.1247	3530.1	2648.95
928.3438	1963.729	3527.35	2646.2
928.482	1965.3325	3539.05	2632.5
928.6202	1966.9353	3513.4	2631
928.7584	1968.5374	3511.8	2629.5
928.8965	1970.1387	3496.75	2613
929.0346	1971.7393	3498.8	2614.8
929.1727	1973.3392	3469.75	2589.75
929.3108	1974.9383	3467.8	2588.65
929.4489	1976.5366	3455.9	2572.1
929.5869	1978.1342	3459.2	2576.1
929.7249	1979.7311	3460.8	2577.25
929.8629	1981.3273	3454.8	2574.25
930.0009	1982.9227	3449.85	2567.05
930.1388	1984.5173	3433.8	2552.9
930.2767	1986.1112	3431.05	2550.8
930.4146	1987.7044	3419.95	2540.45
930.5525	1989.2968	3418.65	2536.25
930.6904	1990.8885	3424.75	2541.6
930.8282	1992.4795	3421.15	2538.25
930.966	1994.0697	3393.55	2513.6
931.1038	1995.6592	3399.7	2518
931.2415	1997.2479	3378.25	2496.7
931.3793	1998.8359	3383.55	2501.9
931.517	2000.4232	3373.3	2492.85
931.6547	2002.0097	3361.15	2481.95
931.7923	2003.5955	3353.95	2472.8
931.93	2005.1805	3359.3	2476.05
932.0676	2006.7648	3350.05	2471.05
932.2052	2008.3484	3330.1	2446.6
932.3427	2009.9312	3337.25	2455.05
932.4803	2011.5133	3335.05	2455.7
932.6178	2013.0946	3333.95	2454.1
932.7553	2014.6752	3326.9	2448.65
932.8928	2016.2551	3329.75	2448.55
933.0302	2017.8342	3314.2	2433.5
933.1676	2019.4126	3302.25	2422.15
933.305	2020.9902	3296.25	2415.95
933.4424	2022.5672	3309.85	2430.1
933.5798	2024.1433	3298.8	2413.3
933.7171	2025.7188	3285.3	2406.5
933.8544	2027.2935	3274.75	2393.35
933.9917	2028.8674	3290.7	2409.75
934.129	2030.4406	3265	2387
934.2662	2032.0131	3249.4	2370.2
934.4034	2033.5849	3258	2370.45
934.5406	2035.1559	3245.85	2364.4
934.6778	2036.7261	3245.1	2364.95
934.8149	2038.2957	3247.1	2367.6
934.952	2039.8645	3250.4	2372.1
935.0891	2041.4325	3240.65	2357.35
935.2262	2042.9998	3225.8	2346.6
935.3632	2044.5664	3236.25	2353.2
935.5002	2046.1323	3217	2336.5
935.6372	2047.6974	3213.5	2333.15
935.7742	2049.2617	3212.8	2335.65
935.9111	2050.8254	3216.55	2332.6
936.048	2052.3883	3210.8	2331.25
936.1849	2053.9504	3205.55	2323.65
936.3218	2055.5118	3214.2	2333.25
936.4586	2057.0725	3200.45	2314.8
936.5955	2058.6325	3186.9	2306.85
936.7323	2060.1917	3179.15	2297.05
936.869	2061.7502	3188.55	2304.65
937.0058	2063.3079	3172.6	2292.35
937.1425	2064.8649	3173.9	2289.05
937.2792	2066.4212	3182.9	2302.85
937.4159	2067.9767	3170.3	2289.1
937.5525	2069.5315	3172.45	2293.45
937.6891	2071.0856	3165.1	2284.1
937.8257	2072.6389	3137.3	2256.7
937.9623	2074.1915	3133.35	2256.8
938.0989	2075.7433	3138.9	2258
938.2354	2077.2945	3121.55	2241.6
938.3719	2078.8448	3111.1	2232
938.5084	2080.3945	3098.9	2217.9
938.6448	2081.9434	3112.15	2233.25
938.7812	2083.4916	3106.45	2224.4
938.9176	2085.039	3101.35	2219.6
939.054	2086.5857	3094.2	2211.2
939.1903	2088.1317	3100.05	2218.65
939.3267	2089.677	3097.5	2216.05
939.463	2091.2215	3094.75	2214.1
939.5992	2092.7652	3084.8	2201
939.7355	2094.3083	3085.5	2203.15
939.8717	2095.8506	3078.9	2199
940.0079	2097.3921	3069.45	2190.35
940.1441	2098.933	3081	2200.25
940.2802	2100.4731	3078.4	2200
940.4163	2102.0124	3089.45	2188.7
940.5524	2103.5511	3060.95	2178
940.6885	2105.089	3059.6	2178.1
940.8245	2106.6261	3050.65	2169.2
940.9606	2108.1626	3054.15	2171.6
941.0965	2109.6983	3071.45	2161.6
941.2325	2111.2332	3046.65	2165.6
941.3684	2112.7675	3055.1	2173.65
941.5044	2114.301	3042.3	2160.25
941.6403	2115.8337	3052.75	2170.95
941.7761	2117.3657	3038.4	2156.05
941.912	2118.897	3042.6	2159.1
942.0478	2120.4276	3034.25	2146.45
942.1835	2121.9575	3014.7	2134.2
942.3193	2123.4866	3023.8	2139.75
942.455	2125.0149	3016.85	2134.45
942.5907	2126.5426	3010	2130.65
942.7264	2128.0695	3018.75	2134.55
942.8621	2129.5956	2993.9	2115.15
942.9977	2131.1211	3001.85	2118.55
943.1333	2132.6458	3000.35	2120.2
943.2689	2134.1698	2985.45	2103.75
943.4044	2135.693	2986.95	2102.9
943.54	2137.2155	2982.75	2099.15
943.6755	2138.7373	2981.2	2101.35
943.8109	2140.2584	2971.9	2090.55
943.9464	2141.7787	2974.4	2087.4
944.0818	2143.2983	2968.95	2088.6
944.2172	2144.8171	2941.9	2063.55
944.3526	2146.3353	2943.65	2062.4
944.4879	2147.8527	2937.9	2059.05
944.6232	2149.3693	2931.85	2051
944.7585	2150.8853	2929.75	2050.05
944.8938	2152.4005	2932.25	2052.35
945.029	2153.9149	2931.8	2050.5
945.1642	2155.4287	2926.05	2045.1
945.2994	2156.9417	2920.65	2036.85
945.4346	2158.454	2909.05	2025.25
945.5697	2159.9655	2911.05	2032.95
945.7048	2161.4764	2913.9	2032.65
945.8399	2162.9865	2897.05	2017.25
945.9749	2164.4958	2895.05	2014.25
946.1099	2166.0045	2877.45	1994.3
946.2449	2167.5124	2883.5	2004.7
946.3799	2169.0195	2889.4	2009.8
946.5148	2170.526	2879.25	1997.5
946.6498	2172.0317	2877.25	1996.35
946.7846	2173.5367	2869.55	1987.5
946.9195	2175.0409	2862.7	1983.7
947.0543	2176.5445	2857.6	1975.5
947.1891	2178.0473	2855.9	1974.8
947.3239	2179.5494	2850.3	1968.45
947.4587	2181.0507	2832.85	1952.55
947.5934	2182.5513	2825.6	1944.45
947.7281	2184.0512	2836.2	1954.9
947.8628	2185.5504	2820.75	1940.55
947.9974	2187.0488	2810.5	1930.35
948.132	2188.5465	2807.3	1925.85
948.2666	2190.0435	2812.55	1932.15
948.4012	2191.5397	2788.9	1907.25
948.5357	2193.0353	2784.2	1904.65
948.6702	2194.5301	2783.2	1900.3
948.8047	2196.0241	2773.95	1891.3
948.9392	2197.5175	2773.7	1892.9
949.0736	2199.0101	2773	1888.95
949.208	2200.502	2765.85	1887.55
949.3424	2201.9931	2747.55	1867.3
949.4767	2203.4835	2751.85	1870.5
949.611	2204.9733	2751.2	1865.65
949.7453	2206.4622	2744.15	1864.35
949.8796	2207.9505	2740.85	1857.4
950.0138	2209.438	2727.6	1850.5
950.148	2210.9248	2726.85	1845.75
950.2822	2212.4109	2710.4	1831.85
950.4164	2213.8962	2720.45	1836.95
950.5505	2215.3809	2709.9	1826.7
950.6846	2216.8648	2708.85	1826.7
950.8186	2218.3479	2700.6	1813.85
950.9527	2219.8304	2709.45	1824.75
951.0867	2221.3121	2685.55	1802.05
951.2207	2222.7931	2681	1801.4
951.3546	2224.2733	2672.85	1792.55
951.4886	2225.7529	2669.85	1787.3
951.6225	2227.2317	2669.95	1785.45
951.7563	2228.7098	2649.2	1768.55
951.8902	2230.1872	2645.8	1767.4
952.024	2231.6638	2648.9	1770.5
952.1578	2233.1397	2643.4	1757.75
952.2916	2234.6149	2645.65	1766.5
952.4253	2236.0894	2638.8	1759.65
952.559	2237.5632	2646.25	1754.6
952.6927	2239.0362	2636.3	1758.3
952.8263	2240.5085	2629.5	1747.35
952.9599	2241.9801	2610.15	1731.5
953.0935	2243.4509	2607.8	1726.45
953.2271	2244.921	2608.55	1728.95
953.3606	2246.3904	2601.1	1719.45
953.4941	2247.8591	2586.55	1706.05
953.6276	2249.3271	2573.25	1691.85
953.7611	2250.7943	2562.7	1680.6
953.8945	2252.2608	2585.6	1704.15
954.0279	2253.7266	2571.95	1694.05
954.1612	2255.1917	2559.05	1678
954.2946	2256.656	2569.2	1688.05
954.4279	2258.1197	2549.6	1669.65
954.5612	2259.5826	2552.75	1669.2
954.6944	2261.0447	2540.1	1658.95
954.8276	2262.5062	2547.05	1662.65
954.9608	2263.9669	2552.35	1669.6
955.094	2265.4269	2535.05	1655.55
955.2271	2266.8862	2536.45	1654.6
955.3602	2268.3448	2528.3	1647.65
955.4933	2269.8026	2519.6	1639
955.6264	2271.2598	2519.25	1640.65
955.7594	2272.7162	2513.3	1632.9
955.8924	2274.1719	2502.9	1622.35
956.0253	2275.6268	2502.3	1620.9
956.1583	2277.0811	2504.95	1623.1
956.2912	2278.5346	2502.5	1622.05
956.4241	2279.9874	2491.2	1613.15
956.5569	2281.4395	2494.8	1613.4
956.6897	2282.8908	2479.25	1593.8
956.8225	2284.3414	2480.85	1599.5
956.9553	2285.7914	2466.3	1589
957.088	2287.2406	2457.55	1575.25
957.2207	2288.689	2462.85	1581.25
957.3534	2290.1368	2462.15	1580.15
957.486	2291.5838	2456.15	1571.35
957.6186	2293.0302	2446.2	1563.55
957.7512	2294.4758	2446.05	1564.5
957.8838	2295.9206	2430	1545.4
958.0163	2297.3648	2437.4	1558.4
958.1488	2298.8082	2439.5	1556.25
958.2813	2300.251	2424.5	1543.6
958.4137	2301.693	2425.1	1539.85
958.5461	2303.1343	2421.8	1541.4
958.6785	2304.5748	2418.7	1538.45
958.8108	2306.0147	2397.45	1517.1
958.9432	2307.4538	2399.15	1514.75
959.0754	2308.8922	2389.55	1512.9
959.2077	2310.3299	2390.65	1509.15
959.3399	2311.7669	2389.45	1509.15
959.4721	2313.2031	2385.3	1502.7
959.6043	2314.6387	2380.7	1500.05
959.7365	2316.0735	2379.45	1498.7
959.8686	2317.5076	2375.85	1495.7
960.0006	2318.941	2365.45	1483.95
960.1327	2320.3737	2365.55	1483.1
960.2647	2321.8056	2363.75	1478.65
960.3967	2323.2369	2350.65	1470.85
960.5287	2324.6674	2348.3	1466
960.6606	2326.0972	2357.55	1475.05
960.7925	2327.5263	2343.85	1462.25
960.9244	2328.9547	2354.65	1471.4
961.0562	2330.3823	2336.25	1455.45
961.1881	2331.8092	2341.75	1456.85
961.3198	2333.2355	2313.65	1433.1
961.4516	2334.661	2320.7	1437.7
961.5833	2336.0858	2307.25	1424.6
961.715	2337.5098	2308.6	1426.15
961.8467	2338.9332	2300.65	1418.6
961.9783	2340.3558	2306.4	1421.15
962.1099	2341.7778	2301.25	1420.3
962.2415	2343.199	2299.9	1416.8
962.373	2344.6195	2293.15	1414.1
962.5045	2346.0393	2287.75	1406.2
962.636	2347.4583	2279.4	1399.35
962.7675	2348.8767	2273.4	1389.75
962.8989	2350.2943	2267.75	1386.6
963.0303	2351.7113	2271.55	1388.3
963.1617	2353.1275	2262.95	1379.85
963.293	2354.543	2265.2	1374.75
963.4243	2355.9578	2254.8	1374.35
963.5556	2357.3718	2239.1	1357.7
963.6868	2358.7852	2234.45	1351.05
963.818	2360.1978	2226.35	1343.6
963.9492	2361.6098	2219.8	1339.35
964.0803	2363.021	2221.9	1335.75
964.2114	2364.4315	2217.75	1335.75
964.3425	2365.8413	2213.65	1331.75
964.4736	2367.2504	2199.2	1317.45
964.6046	2368.6587	2189.55	1307.5
964.7356	2370.0664	2191.65	1310.9
964.8666	2371.4733	2193.5	1310
964.9975	2372.8795	2193.3	1311.9
965.1284	2374.285	2182.5	1299.25
965.2593	2375.6899	2174.45	1293
965.3901	2377.0939	2170.8	1289.85
965.5209	2378.4973	2163.45	1281.95
965.6517	2379.9	2148.45	1265.85
965.7825	2381.3019	2143.5	1261.35
965.9132	2382.7032	2142	1260.95
966.0439	2384.1037	2145.9	1267
966.1745	2385.5035	2129.8	1247.5
966.3051	2386.9027	2138.85	1258.75
966.4357	2388.3011	2143	1259.3
966.5663	2389.6987	2129.55	1248.8
966.6968	2391.0957	2117.3	1236.5
966.8273	2392.492	2119.85	1238.55
966.9578	2393.8876	2100	1216.6
967.0882	2395.2824	2099.05	1218.15
967.2186	2396.6765	2094.05	1212.1
967.349	2398.07	2092.2	1208.8
967.4793	2399.4627	2089.6	1204.85
967.6097	2400.8547	2082.55	1198.35
967.7399	2402.246	2085.2	1197.75
967.8702	2403.6366	2066.5	1181.05
968.0004	2405.0265	2069.9	1186.2
968.1306	2406.4156	2068.9	1181.65
968.2607	2407.8041	2055.35	1170.35
968.3909	2409.1918	2050.15	1165.8
968.521	2410.5789	2046.1	1163.1
968.651	2411.9652	2045.85	1159.85
968.781	2413.3508	2044.05	1159.8
968.911	2414.7358	2034.1	1149.6
969.041	2416.12	2030.9	1150.2
969.1709	2417.5035	2023.5	1140.2
969.3008	2418.8863	2012.8	1128.05
969.4307	2420.2684	2024.15	1140.7
969.5606	2421.6497	2004.75	1120.15
969.6904	2423.0304	2004.9	1125.6
969.8201	2424.4104	1994.35	1109.05
969.9499	2425.7896	1994	1109.35
970.0796	2427.1682	1994.3	1110.6
970.2093	2428.546	1994.55	1111.45
970.3389	2429.9232	1981.15	1098.65
970.4685	2431.2996	1985.15	1102.2
970.5981	2432.6753	1982.55	1099.8
970.7277	2434.0503	1967.25	1083.3
970.8572	2435.4246	1970.15	1088.7
970.9867	2436.7982	1964.1	1080.4
971.1161	2438.1711	1963.7	1082.1
971.2456	2439.5433	1963.05	1079.3
971.375	2440.9148	1969.2	1080.75
971.5043	2442.2856	1957.25	1075.05
971.6336	2443.6557	1960.15	1075.15
971.7629	2445.025	1946.35	1064.3
971.8922	2446.3937	1942.8	1059.7
972.0214	2447.7617	1946.05	1062.8
972.1506	2449.1289	1938.3	1054.45
972.2798	2450.4955	1939.4	1053.55
972.4089	2451.8613	1930.8	1051.65
972.538	2453.2265	1923.15	1043.35
972.6671	2454.5909	1919.15	1035.4
972.7961	2455.9546	1917.75	1034.5
972.9251	2457.3177	1921.3	1040.1
973.0541	2458.68	1917.95	1036.5
973.1831	2460.0416	1914.45	1031.8
973.312	2461.4025	1906.2	1023.5
973.4408	2462.7627	1914.9	1019.8
973.5697	2464.1222	1900.4	1020.9
973.6985	2465.4811	1903.45	1019.45
973.8273	2466.8392	1890.6	1007.3
973.956	2468.1966	1903.2	1018.55
974.0847	2469.5533	1888.15	1002.85
974.2134	2470.9093	1885.7	1002.6
974.3421	2472.2645	1888.65	1005.7
974.4707	2473.6191	1878.95	997.25
974.5993	2474.973	1875.9	993.65
974.7278	2476.3262	1876.45	994
974.8563	2477.6787	1871	990.45
974.9848	2479.0305	1861.85	978.8
975.1132	2480.3816	1859.85	975.7
975.2417	2481.7319	1851.3	969
975.37	2483.0816	1849.4	965.95
975.4984	2484.4306	1854.25	972.55
975.6267	2485.7789	1842.5	961.4
975.755	2487.1264	1834.8	950.75
975.8833	2488.4733	1832.45	951.3
976.0115	2489.8195	1838.5	946.95
976.1397	2491.165	1837	953.9
976.2678	2492.5097	1831.6	946.65
976.3959	2493.8538	1826.2	945.75
976.524	2495.1972	1819.5	935.95
976.6521	2496.5398	1819.5	935.8
976.7801	2497.8818	1806.05	922.4
976.9081	2499.2231	1809.45	927.05
977.036	2500.5637	1802.9	920.1
977.164	2501.9035	1807.5	922.75
977.2918	2503.2427	1804.7	919
977.4197	2504.5812	1792.1	913.85
977.5475	2505.919	1799.05	914.6
977.6753	2507.256	1796.1	914
977.8031	2508.5924	1786.55	905.9
977.9308	2509.9281	1784.5	896.9
978.0585	2511.2631	1775.75	894.75
978.1861	2512.5974	1775.05	893.35
978.3137	2513.9309	1779.45	896.5
978.4413	2515.2638	1789.3	877.85
978.5689	2516.596	1765.2	882.1
978.6964	2517.9275	1767.5	884.75
978.8239	2519.2583	1756.85	874.9
978.9513	2520.5884	1752.05	867.2
979.0788	2521.9178	1752.75	870.5
979.2062	2523.2465	1742.05	860.4
979.3335	2524.5745	1744.3	862.7
979.4608	2525.9018	1739.25	857.4
979.5881	2527.2284	1736.05	853.65
979.7154	2528.5543	1731.35	850.7
979.8426	2529.8796	1731.15	852.15
979.9698	2531.2041	1740.55	857.75
980.0969	2532.5279	1729.5	849.9
980.224	2533.851	1726	843.8
980.3511	2535.1735	1723.25	841.05
980.4781	2536.4952	1721.2	840.1
980.6052	2537.8163	1722.2	839.5
980.7321	2539.1366	1704.55	823.9
980.8591	2540.4562	1713.75	830.9
980.986	2541.7752	1703.95	822.5
981.1129	2543.0935	1710.55	828.45
981.2397	2544.411	1707.05	824.9
981.3665	2545.7279	1697.95	817.8
981.4933	2547.0441	1703.7	820.9
981.62	2548.3596	1704.45	820.7
981.7467	2549.6744	1702.05	820
981.8734	2550.9885	1697.65	808.6
982.0001	2552.3019	1687.85	806.15
982.1267	2553.6146	1695.8	813.5
982.2532	2554.9266	1680.6	797.3
982.3798	2556.2379	1685	803.8
982.5063	2557.5485	1678.85	796.2
982.6327	2558.8585	1680.2	792.55
982.7592	2560.1677	1675.55	789.85
982.8856	2561.4762	1675.75	792.3
983.0119	2562.7841	1678.9	795.1
983.1383	2564.0913	1663.5	781.65
983.2646	2565.3977	1672.2	792.65
983.3908	2566.7035	1664.55	780.95
983.517	2568.0086	1657.1	772.5
983.6432	2569.313	1657.9	776.2
983.7694	2570.6167	1661.7	775.5
983.8955	2571.9197	1651.35	769.2
984.0216	2573.222	1650.85	763.55
984.1476	2574.5236	1653.6	771.35
984.2737	2575.8246	1653	768
984.3996	2577.1248	1651.65	767.75
984.5256	2578.4244	1643.45	762.95
984.6515	2579.7232	1650.75	767.6
984.7774	2581.0214	1671.85	765.4
984.9032	2582.3189	1641.65	759.35
985.029	2583.6157	1645.45	758.5
985.1548	2584.9118	1638.5	756.55
985.2806	2586.2072	1628.75	747.6
985.4063	2587.5019	1627.55	745.55
985.5319	2588.7959	1622.5	739.7
985.6576	2590.0893	1633.75	751
985.7832	2591.3819	1623.05	742.4
985.9087	2592.6739	1616.3	734.35
986.0343	2593.9652	1614	729.7
986.1597	2595.2557	1616.35	734.3
986.2852	2596.5456	1615.8	731.1
986.4106	2597.8348	1601.8	721.65
986.536	2599.1234	1595.35	712
986.6614	2600.4112	1597.55	716.6
986.7867	2601.6983	1601.25	716.55
986.912	2602.9848	1597.55	715.25
987.0372	2604.2705	1597.45	709.2
987.1624	2605.5556	1594.65	711.75
987.2876	2606.84	1584.7	703.75
987.4128	2608.1237	1576.05	694.55
987.5379	2609.4067	1577.65	694.4
987.6629	2610.689	1588.3	698.65
987.788	2611.9707	1567.25	680.6
987.913	2613.2516	1570.65	683
988.0379	2614.5319	1572.65	693.35
988.1629	2615.8115	1561.9	680.6
988.2878	2617.0903	1563.2	680.05
988.4126	2618.3685	1558	675.5
988.5375	2619.6461	1560	679.1
988.6622	2620.9229	1546.85	666.5
988.787	2622.199	1544.5	662.95
988.9117	2623.4745	1539.55	657.05
989.0364	2624.7493	1542.15	660
989.161	2626.0234	1536.75	657.25
989.2857	2627.2968	1542.4	660.55
989.4102	2628.5695	1534.6	650.75
989.5348	2629.8415	1531.15	649.3
989.6593	2631.1128	1527.75	646.2
989.7837	2632.3835	1523.3	641.75
989.9082	2633.6535	1520.2	639.55
990.0326	2634.9228	1518.05	636.35
990.1569	2636.1914	1512.7	629.2
990.2812	2637.4593	1514.35	626.05
990.4055	2638.7265	1506.8	624.7
990.5298	2639.9931	1509.05	625
990.654	2641.259	1503.1	620.55
990.7782	2642.5242	1506.15	624.1
990.9023	2643.7887	1501.25	620.3
991.0264	2645.0525	1505.45	622.9
991.1505	2646.3156	1499.3	617.6
991.2745	2647.5781	1497.15	613.95
991.3985	2648.8398	1489	607.45
991.5225	2650.1009	1499	607
991.6464	2651.3613	1488.45	607
991.7703	2652.6211	1484.7	603
991.8942	2653.8801	1484.9	603.65
992.018	2655.1385	1489.1	604.95
992.1418	2656.3961	1480.35	600.9
992.2655	2657.6531	1473.5	593.2
992.3892	2658.9094	1473.1	590.2
992.5129	2660.1651	1470.8	588
992.6366	2661.42	1473.85	591.75
992.7602	2662.6743	1472.8	592.75
992.8837	2663.9279	1469.05	588.8
993.0073	2665.1808	1460.4	577.8
993.1307	2666.433	1463.9	582.85
993.2542	2667.6846	1455.6	574.05
993.3776	2668.9354	1459.65	575.75
993.501	2670.1856	1453.05	570.25
993.6244	2671.4351	1456.45	577.5
993.7477	2672.6839	1451	566.6
993.8709	2673.9321	1445.15	565
993.9942	2675.1795	1454	573.55
994.1174	2676.4263	1446.55	564.25
994.2405	2677.6724	1450.65	569.3
994.3637	2678.9179	1448.85	567.95
994.4868	2680.1626	1436.65	554.85
994.6098	2681.4067	1437.35	556.65
994.7328	2682.6501	1431.1	549.15
994.8558	2683.8928	1437	556.85
994.9788	2685.1348	1429	549.55
995.1017	2686.3761	1428.4	547.45
995.2245	2687.6168	1425.7	545.2
995.3474	2688.8568	1423.05	540.85
995.4702	2690.0961	1418	536.9
995.5929	2691.3348	1421.05	537.15
995.7156	2692.5727	1418	536.05
995.8383	2693.81	1421.5	541.3
995.961	2695.0466	1411.65	531.35
996.0836	2696.2826	1413.75	529.8
996.2062	2697.5178	1429.05	526.7
996.3287	2698.7524	1408.95	526.6
996.4512	2699.9863	1408.05	524.85
996.5737	2701.2195	1396.05	516.65
996.6961	2702.452	1397.95	515.25
996.8185	2703.6839	1401.15	517.75
996.9408	2704.9151	1390.7	507.9
997.0631	2706.1456	1398.7	520.05
997.1854	2707.3755	1393.6	511.65
997.3077	2708.6046	1390.65	508.9
997.4299	2709.8331	1389.2	506.7
997.552	2711.0609	1388.9	506.6
997.6742	2712.2881	1390.15	508
997.7963	2713.5145	1384.6	501.65
997.9183	2714.7403	1375.4	495.5
998.0403	2715.9654	1379.85	497.6
998.1623	2717.1899	1395.95	497.7
998.2842	2718.4136	1373.6	492.45
998.4062	2719.6367	1380.25	497.7
998.528	2720.8591	1380.55	490.65
998.6498	2722.0809	1372.2	491.35
998.7716	2723.3019	1377.65	492.65
998.8934	2724.5223	1374.3	492.65
999.0151	2725.7421	1368.4	485.9
999.1368	2726.9611	1365.4	483.15
999.2584	2728.1795	1370.5	486.5
999.38	2729.3972	1356.9	474.5
999.5016	2730.6142	1367.3	473.45
999.6231	2731.8306	1355.05	473
999.7446	2733.0462	1350.3	467.95
999.8661	2734.2612	1355.35	469.2
999.9875	2735.4756	1342.5	459.8
1000.1089	2736.6892	1345.75	463.7
1000.2302	2737.9022	1337.7	456.45
1000.3515	2739.1145	1336.05	454.3
1000.4728	2740.3262	1340.95	452
1000.594	2741.5372	1336.8	454.5
1000.7152	2742.7475	1329.3	448.7
1000.8363	2743.9571	1334.05	452.35
1000.9575	2745.1661	1327.4	441
1001.0785	2746.3744	1327.7	446.9
1001.1996	2747.582	1324.45	442.75
1001.3206	2748.7889	1322.9	439.4
1001.4415	2749.9952	1325.85	445.25
1001.5625	2751.2008	1322.45	441.6
1001.6833	2752.4057	1318.5	435.7
1001.8042	2753.61	1315.2	434.3
1001.925	2754.8136	1319.7	435.9
1002.0458	2756.0165	1308.7	427.15
1002.1665	2757.2188	1302.1	421.15
1002.2872	2758.4204	1310.05	430.95
1002.4078	2759.6213	1304.15	419
1002.5285	2760.8215	1301.85	417.3
1002.649	2762.0211	1303.65	420.8
1002.7696	2763.22	1299.3	414.2
1002.8901	2764.4182	1303	421.3
1003.0106	2765.6158	1296.5	414.95
1003.131	2766.8127	1294.25	411.8
1003.2514	2768.009	1293.2	414.35
1003.3717	2769.2045	1290.3	408.15
1003.492	2770.3994	1286.75	404
1003.6123	2771.5936	1283.65	401.7
1003.7325	2772.7872	1279.85	399
1003.8527	2773.9801	1286.25	404.25
1003.9729	2775.1723	1297.55	401.5
1004.093	2776.3639	1276.45	395.1
1004.2131	2777.5548	1281.85	398.25
1004.3331	2778.745	1281.15	398.75
1004.4531	2779.9346	1277.1	396.85
1004.5731	2781.1235	1275	392.35
1004.693	2782.3117	1271.85	392.45
1004.8129	2783.4992	1267.85	386.7
1004.9328	2784.6861	1268.95	387.25
1005.0526	2785.8723	1265.2	380.55
1005.1723	2787.0579	1263.65	384.45
1005.2921	2788.2428	1260.5	379.9
1005.4118	2789.427	1258.85	378.9
1005.5314	2790.6106	1261	381.1
1005.651	2791.7935	1264.25	382.5
1005.7706	2792.9757	1254.55	375.2
1005.8902	2794.1573	1254.9	369.85
1006.0097	2795.3382	1250.6	371.95
1006.1291	2796.5184	1246.8	366.5
1006.2485	2797.698	1251.05	367.85
1006.3679	2798.8769	1254.65	373.25
1006.4873	2800.0551	1247.55	366.6
1006.6066	2801.2327	1248.95	365.9
1006.7258	2802.4096	1244.35	365.55
1006.8451	2803.5859	1244.25	363.4
1006.9642	2804.7615	1233.15	352.25
1007.0834	2805.9364	1237.35	356.85
1007.2025	2807.1106	1235.2	355.05
1007.3216	2808.2842	1242.5	359.95
1007.4406	2809.4572	1235.75	354.5
1007.5596	2810.6294	1232.8	351.75
1007.6785	2811.801	1239.75	359.6
1007.7975	2812.972	1233.55	351.7
1007.9163	2814.1423	1235.65	356
1008.0352	2815.3119	1236.45	356.6
1008.154	2816.4808	1235.6	354.3
1008.2727	2817.6491	1241.85	358.25
1008.3914	2818.8167	1235.6	357.35
1008.5101	2819.9837	1247.75	362.8
1008.6288	2821.15	1239.05	358.4
1008.7474	2822.3157	1246.65	367.5
1008.8659	2823.4807	1247.8	366.8
1008.9844	2824.645	1255.9	375.45
1009.1029	2825.8086	1257.45	376.95
1009.2214	2826.9716	1261.45	385.25
1009.3398	2828.134	1267.8	388.9
1009.4581	2829.2957	1262	381.65
1009.5764	2830.4567	1262.2	382.95
1009.6947	2831.617	1266.15	383.05
1009.813	2832.7767	1271	392.5
1009.9312	2833.9358	1267.4	386.5
1010.0493	2835.0941	1276.95	395.85
1010.1675	2836.2519	1268.95	388
1010.2855	2837.4089	1257.2	373.5
1010.4036	2838.5653	1251.9	372
1010.5216	2839.7211	1255.75	377.05
1010.6396	2840.8761	1252.25	370.85
1010.7575	2842.0306	1247.65	370.2
1010.8754	2843.1843	1250.65	369.9
1010.9932	2844.3374	1251.85	371.8
1011.111	2845.4899	1250.25	368.35
1011.2288	2846.6417	1247.85	368.7
1011.3465	2847.7928	1247.6	366.75
1011.4642	2848.9433	1242.35	360.85
1011.5818	2850.0931	1244.25	365.05
1011.6995	2851.2422	1249.3	366.5
1011.817	2852.3907	1252.95	371.65
1011.9345	2853.5385	1245.5	362.3
1012.052	2854.6857	1265.5	375.95
1012.1695	2855.8323	1242.5	362.15
1012.2869	2856.9781	1253.65	372.6
1012.4042	2858.1233	1248.5	369.15
1012.5216	2859.2679	1244.5	364.15
1012.6389	2860.4118	1253.6	372.25
1012.7561	2861.555	1256.95	373.9
1012.8733	2862.6976	1258.2	375.1
1012.9905	2863.8395	1253.05	373.65
1013.1076	2864.9808	1257.35	376.1
1013.2247	2866.1214	1253.8	372.4
1013.3417	2867.2614	1257.8	375.7
1013.4587	2868.4007	1255.4	374.35
1013.5757	2869.5393	1255.2	376.7
1013.6926	2870.6773	1259.35	376.65
1013.8095	2871.8146	1253.85	370.25
1013.9263	2872.9513	1259	375.8
1014.0431	2874.0874	1251.3	371.3
1014.1599	2875.2227	1255.75	373.45
1014.2766	2876.3574	1251.55	370.95
1014.3933	2877.4915	1254.35	374.45
1014.51	2878.6249	1250.85	369.8
1014.6266	2879.7577	1255.4	372.85
1014.7431	2880.8898	1263.9	372.6
1014.8596	2882.0212	1254.2	376.9
1014.9761	2883.152	1251.55	369.3
1015.0925	2884.2821	1241.65	361.3
1015.2089	2885.4116	1250.25	369.25
1015.3253	2886.5405	1256.8	378.55
1015.4416	2887.6686	1251.55	368.45
1015.5579	2888.7962	1252.8	375
1015.6741	2889.923	1245.45	366.15
1015.7903	2891.0493	1246.75	369.5
1015.9065	2892.1748	1246.25	364.95
1016.0226	2893.2997	1251.15	370.9
1016.1387	2894.424	1242.05	364.8
1016.2547	2895.5476	1249.45	369.25
1016.3707	2896.6706	1242.9	362.95
1016.4866	2897.7929	1240.55	358.8
1016.6025	2898.9145	1239.15	358.4
1016.7184	2900.0355	1242.1	360.75
1016.8342	2901.1559	1238.65	357.55
1016.95	2902.2756	1234.95	354.75
1017.0658	2903.3946	1235.95	356.4
1017.1815	2904.513	1234.1	350.7
1017.2971	2905.6308	1235.65	354.65
1017.4127	2906.7479	1230.65	351
1017.5283	2907.8643	1227.7	344.6
1017.6439	2908.9801	1224.35	344.45
1017.7594	2910.0953	1220.6	340.5
1017.8748	2911.2098	1235.75	352.2
1017.9902	2912.3236	1230.8	342.7
1018.1056	2913.4368	1231.7	348.8
1018.2209	2914.5494	1223.35	342.25
1018.3362	2915.6613	1224.3	342
1018.4515	2916.7725	1217.05	335.25
1018.5667	2917.8831	1211.45	331.7
1018.6819	2918.9931	1219.25	335.4
1018.797	2920.1024	1216.65	335
1018.9121	2921.211	1207.6	326.8
1019.0271	2922.319	1211.55	328.55
1019.1421	2923.4264	1203.9	326.7
1019.2571	2924.5331	1200.9	322.65
1019.372	2925.6391	1201.45	323.25
1019.4869	2926.7445	1198.1	319.45
1019.6017	2927.8493	1198.5	318.05
1019.7165	2928.9534	1203	322.25
1019.8313	2930.0569	1203.1	322
1019.946	2931.1597	1204	323.1
1020.0606	2932.2619	1203.2	322.15
1020.1753	2933.3634	1200.5	319.65
1020.2899	2934.4643	1210.15	324.35
1020.4044	2935.5645	1204.65	318.65
1020.5189	2936.6641	1199.4	314.4
1020.6334	2937.763	1198.55	320.8
1020.7478	2938.8613	1193.65	312.8
1020.8622	2939.959	1200	314.3
1020.9765	2941.056	1196.3	315.3
1021.0908	2942.1523	1187.85	304.2
1021.2051	2943.248	1181.6	299.15
1021.3193	2944.3431	1169.7	290.95
1021.4334	2945.4375	1172.6	293.7
1021.5476	2946.5313	1163.25	284.45
1021.6617	2947.6244	1158.45	278.75
1021.7757	2948.7169	1151.15	269.6
1021.8897	2949.8087	1147.95	267.85
1022.0037	2950.8999	1143.2	264.1
1022.1176	2951.9904	1136.85	256.4
1022.2315	2953.0803	1135.45	255
1022.3453	2954.1696	1130.9	250.2
1022.4591	2955.2582	1128.15	247.1
1022.5728	2956.3462	1123.1	240.65
1022.6865	2957.4335	1123.3	244.9
1022.8002	2958.5202	1125.8	244.2
1022.9138	2959.6062	1117.3	236.5
1023.0274	2960.6916	1117.3	237.7
1023.141	2961.7764	1119.6	240.2
1023.2545	2962.8605	1117.2	237.5
1023.3679	2963.9439	1111.95	232.95
1023.4813	2965.0267	1113.9	233.75
1023.5947	2966.1089	1131.4	227.3
1023.708	2967.1905	1115.8	236.15
1023.8213	2968.2714	1109.4	231
1023.9346	2969.3516	1110.4	232.45
1024.0478	2970.4312	1116.7	227.65
1024.1609	2971.5102	1109.8	232.1
1024.274	2972.5885	1106.15	226.4
1024.3871	2973.6662	1115.4	230.4
1024.5002	2974.7432	1102.6	223.8
1024.6132	2975.8196	1105.65	224.1
1024.7261	2976.8954	1100.5	221.15
1024.839	2977.9705	1101.25	222.75
1024.9519	2979.045	1097.3	216.6
1025.0647	2980.1188	1102.95	222.7
1025.1775	2981.192	1094.45	214.3
1025.2902	2982.2645	1096.3	216.45
1025.4029	2983.3364	1099.55	218.85
1025.5156	2984.4077	1097.6	219.1
1025.6282	2985.4783	1096.5	210.25
1025.7407	2986.5483	1092.85	215.15
1025.8532	2987.6177	1084.85	205.15
1025.9657	2988.6864	1084.6	206.25
1026.0782	2989.7545	1084.55	201.5
1026.1906	2990.8219	1077.05	199.65
1026.3029	2991.8887	1078.45	196.55
1026.4152	2992.9548	1075.35	195.8
1026.5275	2994.0204	1077.05	197
1026.6397	2995.0852	1069.25	189.65
1026.7519	2996.1495	1072.45	191.25
1026.864	2997.2131	1065	185
1026.9761	2998.276	1068.55	189.5
1027.0882	2999.3383	1065.6	187.05
1027.2002	3000.4	1055.75	175.15
1027.3122	3001.4611	1054.4	174.35
1027.4241	3002.5215	1055.45	175.7
1027.536	3003.5812	1058.3	177.05
1027.6478	3004.6404	1054.4	176.45
1027.7596	3005.6989	1054.55	171.65
1027.8714	3006.7567	1053.45	173.1
1027.9831	3007.8139	1072.7	170.6
1028.0947	3008.8705	1053.05	175
1028.2064	3009.9264	1053.4	168
1028.3179	3010.9818	1049.2	170.05
1028.4295	3012.0364	1047.3	165.6
1028.541	3013.0905	1045.85	166.3
1028.6524	3014.1439	1045.7	165.95
1028.7638	3015.1966	1044.65	165.45
1028.8752	3016.2487	1045.65	166.15
1028.9865	3017.3002	1048.55	162.2
1029.0978	3018.3511	1042.05	163.45
1029.209	3019.4013	1038.95	158.8
1029.3202	3020.4509	1042.45	163.8
1029.4314	3021.4998	1040.65	159.65
1029.5425	3022.5481	1038.95	158.2
1029.6535	3023.5958	1039.75	161.3
1029.7645	3024.6428	1037.45	155.1
1029.8755	3025.6892	1031.75	153.2
1029.9864	3026.735	1035	155.35
1030.0973	3027.7802	1035.95	156.8
1030.2082	3028.8247	1034.35	155.15
1030.319	3029.8685	1033.9	152.2
1030.4297	3030.9118	1031.8	153.1
1030.5404	3031.9544	1031.3	150.15
1030.6511	3032.9963	1028.95	149.5
1030.7617	3034.0376	1030.05	150.25
1030.8723	3035.0783	1031.05	150.1
1030.9829	3036.1184	1030	150
1031.0934	3037.1578	1027.15	149.3
1031.2038	3038.1966	1029.9	147.75
1031.3142	3039.2348	1027.05	148.8
1031.4246	3040.2723	1035.75	147.85
1031.5349	3041.3092	1020.95	145
1031.6452	3042.3455	1026.95	146.7
1031.7554	3043.3811	1021.95	141.8
1031.8656	3044.4161	1024.45	144.4
1031.9758	3045.4505	1021.85	143.55
1032.0859	3046.4842	1023.35	142.95
1032.1959	3047.5173	1021.85	141.9
1032.3059	3048.5498	1027.65	146.9
1032.4159	3049.5816	1026.5	147.05
1032.5258	3050.6128	1020.25	140.1
1032.6357	3051.6434	1026	145.65
1032.7455	3052.6734	1021.9	140.45
1032.8553	3053.7027	1022.2	142.9
1032.9651	3054.7314	1018.7	138.1
1033.0748	3055.7594	1020.25	140.45
1033.1845	3056.7868	1020.4	141.25
1033.2941	3057.8136	1019.5	139.9
1033.4037	3058.8398	1014.05	134.05
1033.5132	3059.8653	1019.85	141.85
1033.6227	3060.8902	1016.65	137.05
1033.7321	3061.9145	1015.7	135.45
1033.8415	3062.9381	1016.85	139.2
1033.9509	3063.9612	1033.75	137.75
1034.0602	3064.9835	1014.65	135.6
1034.1694	3066.0053	1015.25	133.55
1034.2787	3067.0264	1014.15	134.5
1034.3878	3068.0469	1015.75	134.65
1034.497	3069.0668	1014.2	130.85
1034.6061	3070.086	1011.7	132.25
1034.7151	3071.1046	1014.6	133.55
1034.8241	3072.1226	1011.8	133.1
1034.9331	3073.1399	1009.3	131.45
1035.042	3074.1567	1011.45	130.9
1035.1508	3075.1727	1012.95	131.65
1035.2597	3076.1882	1010.2	131.2
1035.3684	3077.203	1003.85	125.55
1035.4772	3078.2173	1011.9	132.85
1035.5859	3079.2308	1010.6	128.9
1035.6945	3080.2438	1008.65	126.7
1035.8031	3081.2561	1006	126.25
1035.9117	3082.2678	998.05	119
1036.0202	3083.2789	1006.55	126.15
1036.1286	3084.2893	1003.5	124.65
1036.2371	3085.2991	1000.75	122.1
1036.3454	3086.3083	1006.65	122.95
1036.4538	3087.3169	1000.8	119.8
1036.562	3088.3248	999.15	117.7
1036.6703	3089.3321	1001	118.85
1036.7785	3090.3388	998.05	119.85
1036.8866	3091.3449	996.5	116.95
1036.9948	3092.3503	1002.35	120.7
1037.1028	3093.3551	996.6	117.65
1037.2108	3094.3593	995.05	116
1037.3188	3095.3629	989.9	112.55
1037.4267	3096.3658	995.55	115.8
1037.5346	3097.3681	993.7	115.05
1037.6425	3098.3698	995	115.1
1037.7503	3099.3708	994.9	109.6
1037.858	3100.3713	992.25	113.4
1037.9657	3101.3711	990.65	110.65
1038.0734	3102.3702	1126.2	109
1038.181	3103.3688	993.85	112.05
1038.2886	3104.3667	986.25	107.7
1038.3961	3105.364	986.8	109.4
1038.5036	3106.3607	989.4	108.3
1038.611	3107.3568	987.45	106.35
1038.7184	3108.3522	986.25	108.2
1038.8257	3109.347	987.1	109.15
1038.933	3110.3412	990.15	106.55
1039.0403	3111.3348	988.9	109.45
1039.1475	3112.3277	984.2	105.3
1039.2547	3113.32	980.5	101.6
1039.3618	3114.3117	982.2	102.45
1039.4689	3115.3028	979.35	101.15
1039.5759	3116.2932	985.65	103.45
1039.6829	3117.2831	987	101.05
1039.7898	3118.2723	981.2	101.2
1039.8967	3119.2608	978.75	98.35
1040.0035	3120.2488	981.2	101.9
1040.1103	3121.2361	976.85	96.15
1040.2171	3122.2229	977.85	99.8
1040.3238	3123.209	977.2	96.8
1040.4305	3124.1944	978.95	100.9
1040.5371	3125.1793	975.5	96.35
1040.6437	3126.1635	977.65	99.1
1040.7502	3127.1471	970.95	93.55
1040.8567	3128.1301	971.3	93.1
1040.9631	3129.1125	973.15	94.1
1041.0695	3130.0942	970.9	91.15
1041.1759	3131.0753	983.15	93.3
1041.2822	3132.0558	977.35	94.85
1041.3884	3133.0357	974.9	95.65
1041.4946	3134.015	972.1	90.45
1041.6008	3134.9936	974.25	94.05
1041.7069	3135.9716	991.25	90.35
1041.813	3136.949	976.1	94.8
1041.919	3137.9258	974.65	88.8
1042.025	3138.902	977.2	91.95
1042.1309	3139.8775	966.2	88.7
1042.2368	3140.8524	968.75	89.55
1042.3427	3141.8267	971.1	90.7
1042.4485	3142.8004	969	89.75
1042.5542	3143.7735	975.1	88.7
1042.6599	3144.7459	970.15	91.2
1042.7656	3145.7178	966.75	85.7
1042.8712	3146.689	967.95	87.6
1042.9768	3147.6596	967.25	87.7
1043.0823	3148.6295	964	84.5
1043.1878	3149.5989	965.1	86
1043.2932	3150.5676	963	84.9
1043.3986	3151.5357	960.45	82.75
1043.5039	3152.5032	961.8	84.25
1043.6092	3153.4701	962.5	82.55
1043.7145	3154.4364	965.2	83.85
1043.8197	3155.402	960.45	82.1
1043.9248	3156.367	963.05	80.25
1044.03	3157.3315	999.1	83.3
1044.135	3158.2952	965.8	87.8
1044.24	3159.2584	956.15	77.95
1044.345	3160.221	958.65	78.25
1044.4499	3161.1829	961.55	79.9
1044.5548	3162.1442	960.95	82.45
1044.6596	3163.105	961	82.4
1044.7644	3164.065	963.55	83.7
1044.8692	3165.0245	960.55	77.45
1044.9739	3165.9834	957.7	79.6
1045.0785	3166.9416	955.25	76.9
1045.1831	3167.8993	957.7	76.6
1045.2877	3168.8563	955.95	74.8
1045.3922	3169.8127	952.45	74.6
1045.4966	3170.7684	956.75	78.15
1045.6011	3171.7236	953.15	72.1
1045.7054	3172.6782	955.5	75.1
1045.8098	3173.6321	954.55	73.9
1045.914	3174.5854	956.65	75.1
1046.0183	3175.5381	953.8	73.8
1046.1224	3176.4902	952.75	75
1046.2266	3177.4417	954.95	76.25
1046.3307	3178.3926	950.75	72.6
1046.4347	3179.3428	949.55	71.6
1046.5387	3180.2924	950.35	70.95
1046.6427	3181.2415	949.75	71.25
1046.7466	3182.1899	951.15	68.6
1046.8504	3183.1377	950.85	73.25
1046.9542	3184.0848	953.55	70.2
1047.058	3185.0314	951.3	70.1
1047.1617	3185.9773	949	69.1
1047.2654	3186.9227	950.6	70.95
1047.369	3187.8674	947.9	67.1
1047.4726	3188.8115	950.65	65.95
1047.5761	3189.755	943.85	63.65
1047.6796	3190.6979	949.5	71.7
1047.783	3191.6402	946.15	66.35
1047.8864	3192.5818	944.2	65.7
1047.9898	3193.5229	949.6	65.5
1048.0931	3194.4633	949.35	69.05
1048.1963	3195.4031	947.3	68.25
1048.2995	3196.3423	945.2	66.7
1048.4027	3197.2809	945.05	65.95
1048.5058	3198.2189	943.7	66.55
1048.6089	3199.1563	959.8	61.4
1048.7119	3200.0931	942	64.05
1048.8148	3201.0292	941.85	63.7
1048.9178	3201.9648	945.7	66.7
1049.0206	3202.8997	945.05	63.6
1049.1235	3203.834	944.25	65.95
1049.2262	3204.7677	941.55	61.75
1049.329	3205.7008	942.1	63.4
1049.4317	3206.6333	939.45	59.5
1049.5343	3207.5652	943.45	63
1049.6369	3208.4964	941.05	61.7
1049.7394	3209.4271	938.85	60.7
1049.8419	3210.3571	940.75	62.5
1049.9444	3211.2865	943.9	62.35
1050.0468	3212.2154	941.05	59
1050.1491	3213.1436	942.85	60.15
1050.2514	3214.0712	944.15	57.85
1050.3537	3214.9982	938.15	57.75
1050.4559	3215.9246	937.8	58.25
1050.5581	3216.8503	937.55	60.3
1050.6602	3217.7755	936.25	56.75
1050.7623	3218.7001	936.55	57.25
1050.8643	3219.624	936.4	55.85
1050.9663	3220.5473	937.3	57.1
1051.0682	3221.4701	937.2	58.9
1051.1701	3222.3922	938.75	58.4
1051.2719	3223.3137	935.3	56.45
1051.3737	3224.2346	933.45	55.9
1051.4754	3225.1549	936.35	56.6
1051.5771	3226.0746	935.1	57.65
1051.6788	3226.9937	935.6	56.7
1051.7804	3227.9121	934.2	55.4
1051.8819	3228.83	932.5	53.95
1051.9834	3229.7473	938.6	59.6
1052.0849	3230.6639	933.35	55.05
1052.1863	3231.5799	932.45	53.7
1052.2876	3232.4954	935.15	52.65
1052.3889	3233.4102	931.45	54.05
1052.4902	3234.3244	932.8	54.9
1052.5914	3235.238	932.75	53.55
1052.6926	3236.151	954.15	52.3
1052.7937	3237.0634	930.1	51.4
1052.8948	3237.9752	929.45	50.5
1052.9958	3238.8864	931.5	50.45
1053.0968	3239.797	930.05	50.85
1053.1977	3240.7069	930.45	50.25
1053.2986	3241.6163	931.55	51
1053.3994	3242.5251	928.2	50.85
1053.5002	3243.4332	927.35	47.7
1053.6009	3244.3408	929.4	48.75
1053.7016	3245.2477	928.45	49.5
1053.8022	3246.154	929.9	50.75
1053.9028	3247.0598	927.7	46.65
1054.0034	3247.9649	929.15	50.3
1054.1039	3248.8694	926.35	45.25
1054.2043	3249.7733	927.65	50
1054.3047	3250.6766	925.75	47.8
1054.4051	3251.5793	925.05	45.7
1054.5054	3252.4814	922.9	43.65
1054.6056	3253.3829	926.35	47.05
1054.7058	3254.2838	928.95	50.35
1054.806	3255.1841	924.55	45.75
1054.9061	3256.0838	924.4	44.75
1055.0061	3256.9829	923.2	43.45
1055.1062	3257.8814	926.3	44.75
1055.2061	3258.7792	925.15	42.85
1055.306	3259.6765	924	46.3
1055.4059	3260.5731	919.9	41.5
1055.5057	3261.4692	922.1	43.55
1055.6055	3262.3647	923.5	41.75
1055.7052	3263.2595	920.55	41.2
1055.8049	3264.1538	918.25	38.6
1055.9045	3265.0474	919.75	39.45
1056.0041	3265.9404	920	42
1056.1036	3266.8329	916.55	38.6
1056.2031	3267.7247	926.75	36.9
1056.3025	3268.616	916.1	36.75
1056.4019	3269.5066	916.05	37.75
1056.5013	3270.3966	915.75	34.55
1056.6005	3271.286	913	35.15
