Software Version:	3.9.2.0
Unit SN:	10000200
Spectrometer SN:	6960
Date:	3/6/2024 10:38:13 AM
Data Line Index:	25
Spectral Points:	2048
Integration time (ms):	125
Averages:	20
Delay (ms):	30
Sequence Number:	1
Processing:	dark subtract
Laser Power (mW):	305
Laser Current (mA):	823
Laser Diode Temp (C):	25.1
Laser Case Temp (C):	26.8
System Temp (C):	26.6
Spectrometer Temp (C):	23.9
CCD Temp (C):	-0.006
Secondary Temp (C):	20.011
Heatsink Temp (C):	22.218
CCDPCB Temp (C):	36.118
SecondaryPCB Temp (C):	33.495

Wavelength	RamanShift	Raw Counts	Dark Subtracted
787.061	30.1047	1145.5	733.75
787.2016	32.3739	1182.35	772.25
787.3422	34.6426	1232.75	819.95
787.4828	36.9109	1284	870.45
787.6235	39.1787	1337.4	920.6
787.7642	41.4461	1396.6	972.2
787.9049	43.7131	1465.5	1039.8
788.0456	45.9796	1527.6	1097.45
788.1863	48.2456	1607.45	1173.25
788.3271	50.5112	1670.4	1232.65
788.4679	52.7764	1751.5	1314
788.6087	55.0411	1826.45	1383.9
788.7496	57.3054	1919.45	1472.35
788.8904	59.5692	2012.4	1562.95
789.0313	61.8326	2110.2	1655.9
789.1722	64.0955	2213.6	1755.95
789.3132	66.3579	2352.4	1888.2
789.4541	68.6199	2515.65	2049.8
789.5951	70.8815	2769.95	2300.2
789.7361	73.1426	3308.45	2834.75
789.8771	75.4032	4680.05	4200.85
790.0181	77.6634	8173.9	7689.35
790.1592	79.9231	17498.35	17009.5
790.3003	82.1824	57140.35	56640.3
790.4414	84.4412	65535	65013.95
790.5825	86.6995	65535	64982.6
790.7237	88.9574	65535	64959.4
790.8648	91.2148	65535	64937.15
791.006	93.4717	65535	64927.3
791.1472	95.7282	65535	64918.65
791.2885	97.9842	65535	64916.95
791.4297	100.2398	65535	64914.85
791.571	102.4949	65535	64909.5
791.7123	104.7495	65535	64906.2
791.8536	107.0036	65535	64905.9
791.9949	109.2573	65535	64906.65
792.1363	111.5105	65535	64906.35
792.2777	113.7632	65535	64906.85
792.4191	116.0154	65535	64891.45
792.5605	118.2672	65535	64899.25
792.7019	120.5185	65535	64895.8
792.8434	122.7693	65535	64890.85
792.9849	125.0197	65535	64891.1
793.1264	127.2696	65535	64882.35
793.2679	129.519	65535	64883.2
793.4094	131.7679	65535	64881.1
793.551	134.0163	65535	64879.6
793.6926	136.2642	65535	64873.6
793.8342	138.5117	65535	64866.5
793.9758	140.7587	65535	64871.95
794.1175	143.0052	65535	64869.15
794.2591	145.2512	65535	64867.25
794.4008	147.4967	65535	64866.05
794.5425	149.7417	65535	64864.2
794.6842	151.9863	65535	64857.2
794.826	154.2304	65535	64854.5
794.9677	156.4739	65535	64852.05
795.1095	158.717	65535	64854.7
795.2513	160.9596	65535	64848.05
795.3931	163.2017	65535	64847.7
795.535	165.4433	65535	64841.9
795.6768	167.6844	65535	64839.6
795.8187	169.925	65535	64838.5
795.9606	172.1651	65535	64838.2
796.1025	174.4047	65535	64828.75
796.2445	176.6439	65535	64835.9
796.3864	178.8825	65535	64824.8
796.5284	181.1206	65535	64824.2
796.6704	183.3582	65535	64822.95
796.8124	185.5954	65535	64819.35
796.9544	187.832	65535	64811.55
797.0965	190.0681	65535	64811.8
797.2386	192.3037	65535	64807.95
797.3806	194.5388	65535	64806.45
797.5228	196.7734	65535	64803.05
797.6649	199.0075	65535	64799.15
797.807	201.2411	65535	64799.35
797.9492	203.4742	65535	64800.95
798.0914	205.7068	65535	64798.15
798.2336	207.9389	65535	64792.4
798.3758	210.1704	65535	64794.85
798.518	212.4015	65535	64797.05
798.6603	214.632	65535	64805.35
798.8025	216.862	65535	64810.6
798.9448	219.0915	65535	64814.45
799.0871	221.3205	65535	64813.05
799.2294	223.549	65535	64814.2
799.3718	225.777	65535	64815.75
799.5141	228.0044	65535	64807.25
799.6565	230.2314	65535	64813.25
799.7989	232.4578	65535	64810.35
799.9413	234.6837	65535	64800.35
800.0837	236.909	65535	64795.4
800.2262	239.1339	65535	64773.1
800.3687	241.3582	65535	64782.5
800.5111	243.582	65535	64758.45
800.6536	245.8053	65535	64770.9
800.7961	248.0281	65535	64774.95
800.9387	250.2503	65535	64771.5
801.0812	252.472	65535	64770.15
801.2238	254.6932	65535	64769.75
801.3664	256.9139	65535	64765.9
801.509	259.134	65535	64761.8
801.6516	261.3536	65535	64766.6
801.7942	263.5727	65535	64761.7
801.9369	265.7912	65535	64762.6
802.0795	268.0092	65535	64761.45
802.2222	270.2267	65535	64761.6
802.3649	272.4436	65535	64763.15
802.5076	274.6601	65535	64751.25
802.6504	276.8759	65535	64757.95
802.7931	279.0913	65535	64750.95
802.9359	281.3061	65535	64751.8
803.0787	283.5204	65535	64746.7
803.2215	285.7341	65535	64746.35
803.3643	287.9473	65535	64735.65
803.5071	290.16	65535	64742.25
803.6499	292.3721	65535	64748.95
803.7928	294.5837	65535	64747.4
803.9357	296.7947	65535	64747.2
804.0786	299.0052	65535	64745.6
804.2215	301.2152	65535	64746.5
804.3644	303.4246	65535	64749.95
804.5074	305.6334	65535	64747.1
804.6503	307.8418	65535	64741.7
804.7933	310.0495	65535	64742.15
804.9363	312.2568	65535	64742.95
805.0793	314.4635	65535	64740.85
805.2223	316.6696	65535	64738.45
805.3653	318.8752	65535	64727.3
805.5084	321.0802	65535	64736.15
805.6514	323.2847	65535	64736.6
805.7945	325.4887	65535	64736.05
805.9376	327.692	65535	64733.1
806.0807	329.8949	65535	64731.4
806.2238	332.0972	65535	64735.05
806.367	334.2989	65535	64724.15
806.5101	336.5001	65535	64728.3
806.6533	338.7007	65535	64728.85
806.7965	340.9008	65535	64727.05
806.9397	343.1003	65535	64725.6
807.0829	345.2992	65535	64723.8
807.2261	347.4976	65535	64724.7
807.3693	349.6955	65535	64717.85
807.5126	351.8927	65535	64715.85
807.6559	354.0895	65535	64704.05
807.7991	356.2856	65535	64719.2
807.9424	358.4812	65535	64718.1
808.0857	360.6763	65535	64716.05
808.2291	362.8707	65535	64711.85
808.3724	365.0646	65535	64709
808.5158	367.258	65535	64708.6
808.6591	369.4508	65535	64705.25
808.8025	371.643	65535	64707.65
808.9459	373.8346	65535	64704.25
809.0893	376.0257	65535	64700
809.2327	378.2162	65535	64701
809.3762	380.4062	65535	64697.2
809.5196	382.5956	65535	64698.5
809.6631	384.7844	65535	64701.25
809.8066	386.9726	65535	64700.25
809.9501	389.1603	65535	64707.9
810.0936	391.3474	65535	64662.75
810.2371	393.5339	65535	64702.4
810.3806	395.7199	65535	64705.8
810.5241	397.9052	65535	64712.35
810.6677	400.09	65535	64708.7
810.8113	402.2743	65535	64708.7
810.9548	404.4579	65535	64705.95
811.0984	406.641	65535	64704
811.2421	408.8235	65535	64709
811.3857	411.0054	65535	64702.4
811.5293	413.1868	65535	64700.25
811.673	415.3675	65535	64697.95
811.8166	417.5477	65535	64698
811.9603	419.7273	65535	64695.35
812.104	421.9064	65535	64688.65
812.2477	424.0848	65535	64688.7
812.3914	426.2627	65535	64689.15
812.5351	428.4399	65535	64688.7
812.6788	430.6166	65535	64686.45
812.8226	432.7928	65535	64687.3
812.9663	434.9683	65535	64686
813.1101	437.1432	65535	64680.15
813.2539	439.3176	65535	64684.3
813.3977	441.4914	65535	64689
813.5415	443.6645	65535	64683.5
813.6853	445.8371	65535	64683.4
813.8291	448.0091	65535	64689.15
813.973	450.1806	65535	64685.8
814.1168	452.3514	65535	64678.6
814.2607	454.5216	65535	64675.05
814.4046	456.6913	65535	64682
814.5485	458.8603	65535	64681.4
814.6924	461.0288	65535	64681.2
814.8363	463.1967	65535	64680.9
814.9802	465.3639	65535	64678.85
815.1241	467.5306	65535	64684.3
815.2681	469.6967	65535	64681.3
815.412	471.8622	65535	64681.9
815.556	474.0271	65535	64681.9
815.7	476.1914	65535	64677.05
815.844	478.3551	65535	64678.15
815.988	480.5182	65535	64681.3
816.132	482.6807	65535	64677.8
816.276	484.8426	65535	64680.05
816.4201	487.0039	65535	64680.5
816.5641	489.1647	65535	64675.85
816.7082	491.3248	65535	64674.9
816.8522	493.4843	65535	64677.1
816.9963	495.6432	65535	64675.9
817.1404	497.8015	65535	64669.85
817.2845	499.9592	65535	64672.3
817.4286	502.1163	65535	64672.2
817.5727	504.2728	65535	64675.95
817.7168	506.4287	65535	64672.65
817.861	508.5839	65535	64675.6
818.0051	510.7386	65535	64675.7
818.1493	512.8927	65535	64668.75
818.2935	515.0461	65535	64672.4
818.4377	517.199	65535	64670
818.5818	519.3512	65535	64668.9
818.726	521.5029	65535	64664.55
818.8703	523.6539	65535	64671.1
819.0145	525.8043	65535	64664.55
819.1587	527.9541	65535	64661.45
819.303	530.1033	65535	64665.5
819.4472	532.2519	65535	64664.85
819.5915	534.3999	65535	64663.25
819.7357	536.5472	65535	64666.1
819.88	538.694	65535	64665.8
820.0243	540.8401	65535	64662.15
820.1686	542.9856	65535	64660.8
820.3129	545.1305	65535	64661.35
820.4572	547.2748	65535	64655.9
820.6016	549.4185	65535	64656.35
820.7459	551.5615	65535	64656.35
820.8902	553.704	65535	64658.7
821.0346	555.8458	65535	64661.85
821.1789	557.987	65535	64662.8
821.3233	560.1276	65535	64657.3
821.4677	562.2675	65535	64662.35
821.6121	564.4069	65535	64661.05
821.7565	566.5456	65535	64665.55
821.9009	568.6837	65535	64660.15
822.0453	570.8212	65535	64663.7
822.1897	572.958	65535	64656.45
822.3342	575.0942	65535	64660.1
822.4786	577.2299	65535	64659.1
822.6231	579.3648	65535	64662.7
822.7675	581.4992	65535	64665.7
822.912	583.6329	65535	64667.3
823.0565	585.766	65535	64663.55
823.201	587.8985	65535	64657.95
823.3454	590.0304	65535	64635.25
823.4899	592.1616	65535	64655.2
823.6345	594.2922	65535	64656.55
823.779	596.4222	65535	64654.1
823.9235	598.5515	65535	64655.55
824.068	600.6802	65535	64657.4
824.2126	602.8083	65535	64653.05
824.3571	604.9358	65535	64651.35
824.5017	607.0626	65535	64651.95
824.6462	609.1888	65535	64654
824.7908	611.3144	65535	64651.6
824.9354	613.4393	65535	64654.95
825.08	615.5636	65535	64653.85
825.2246	617.6873	65535	64653.45
825.3692	619.8103	65535	64652.45
825.5138	621.9327	65535	64651.35
825.6584	624.0544	65535	64652.45
825.803	626.1756	65535	64653.85
825.9477	628.2961	65535	64649.6
826.0923	630.4159	65535	64652.25
826.237	632.5351	65535	64651.35
826.3816	634.6537	65535	64647.2
826.5263	636.7716	65535	64648.65
826.6709	638.8889	65535	64644.45
826.8156	641.0056	65535	64650.4
826.9603	643.1216	65535	64648.6
827.105	645.237	65535	64644.7
827.2497	647.3518	65535	64649.55
827.3944	649.4659	65535	64651.85
827.5391	651.5793	65535	64652.15
827.6838	653.6922	65535	64650.5
827.8285	655.8043	65535	64649.05
827.9733	657.9159	65535	64650.85
828.118	660.0268	65535	64647.75
828.2627	662.137	65535	64648.55
828.4075	664.2466	65535	64645.65
828.5522	666.3556	65535	64648.15
828.697	668.4639	65535	64645.8
828.8418	670.5716	65535	64648.45
828.9865	672.6786	65535	64644.4
829.1313	674.785	65535	64641
829.2761	676.8907	65535	64646.05
829.4209	678.9958	65535	64645.75
829.5657	681.1002	65535	64641.4
829.7105	683.204	65535	64640.4
829.8553	685.3072	65535	64642.4
830.0001	687.4097	65535	64642.75
830.1449	689.5115	65535	64640.95
830.2898	691.6127	65535	64641.35
830.4346	693.7132	65535	64642.95
830.5794	695.8131	65535	64634.55
830.7243	697.9123	65535	64639.8
830.8691	700.0109	65535	64639.75
831.014	702.1089	65535	64643.3
831.1588	704.2061	65535	64643.2
831.3037	706.3028	65535	64640.2
831.4486	708.3987	65535	64641
831.5935	710.4941	65535	64641.6
831.7383	712.5887	65535	64641
831.8832	714.6827	65535	64638.7
832.0281	716.7761	65535	64640.7
832.173	718.8688	65535	64640.4
832.3179	720.9608	65535	64635.15
832.4628	723.0522	65535	64637.6
832.6077	725.1429	65535	64639
832.7527	727.233	65535	64639.05
832.8976	729.3224	65535	64641.45
833.0425	731.4112	65535	64638.05
833.1874	733.4993	65535	64634.05
833.3324	735.5867	65535	64636.5
833.4773	737.6735	65535	64635.85
833.6222	739.7596	65535	64635.85
833.7672	741.845	65535	64637.45
833.9122	743.9298	65535	64635.8
834.0571	746.014	65535	64639.4
834.2021	748.0974	65535	64635.65
834.347	750.1802	65535	64634.9
834.492	752.2624	65535	64639.05
834.637	754.3439	65535	64635.2
834.782	756.4247	65535	64626.8
834.9269	758.5048	65535	64633.45
835.0719	760.5843	65535	64632.7
835.2169	762.6631	65535	64635.35
835.3619	764.7413	65535	64637.2
835.5069	766.8188	65535	64634.55
835.6519	768.8956	65535	64634.45
835.7969	770.9718	65535	64635.45
835.9419	773.0473	65535	64634.9
836.0869	775.1221	65535	64635.75
836.232	777.1962	65535	64638.05
836.377	779.2697	65535	64633.95
836.522	781.3426	65535	64617.1
836.667	783.4147	65535	64634.05
836.8121	785.4862	65535	64635.3
836.9571	787.557	65535	64636
837.1021	789.6271	65535	64635.7
837.2472	791.6966	65535	64636.2
837.3922	793.7654	65535	64634.65
837.5373	795.8335	65535	64636.25
837.6823	797.901	65535	64634.1
837.8274	799.9678	65535	64630.8
837.9724	802.0339	65535	64637.85
838.1175	804.0993	65535	64626
838.2626	806.1641	65535	64630.75
838.4076	808.2282	65535	64634.8
838.5527	810.2916	65535	64633.4
838.6978	812.3544	65535	64632.4
838.8428	814.4164	65535	64634.05
838.9879	816.4778	65535	64632.3
839.133	818.5385	65535	64633.9
839.2781	820.5986	65535	64634.05
839.4232	822.658	65535	64629.6
839.5682	824.7166	65535	64634.1
839.7133	826.7747	65535	64635.25
839.8584	828.832	65535	64630.05
840.0035	830.8886	65535	64629.85
840.1486	832.9446	65535	64631.5
840.2937	834.9999	65535	64633.1
840.4388	837.0545	65535	64629.6
840.5839	839.1085	65535	64632.15
840.729	841.1618	65535	64626.55
840.8741	843.2143	65535	64634.1
841.0192	845.2662	65535	64631.45
841.1643	847.3175	65535	64633.75
841.3095	849.368	65535	64630.15
841.4546	851.4179	65535	64631.95
841.5997	853.467	65535	64631.9
841.7448	855.5155	65535	64631.4
841.8899	857.5633	65535	64629.75
842.0351	859.6105	65535	64628.5
842.1802	861.6569	65535	64630.85
842.3253	863.7027	65535	64630.9
842.4704	865.7478	65535	64629.5
842.6156	867.7922	65535	64630.4
842.7607	869.8359	65535	64629.95
842.9058	871.8789	65535	64627.4
843.0509	873.9212	65535	64597.95
843.1961	875.9629	65535	64629.9
843.3412	878.0039	65535	64629.35
843.4863	880.0441	65535	64631.15
843.6315	882.0837	65535	64629.85
843.7766	884.1226	65535	64628.05
843.9218	886.1609	65535	64632.15
844.0669	888.1984	65535	64629.8
844.212	890.2352	65535	64630.3
844.3572	892.2714	65535	64625.15
844.5023	894.3069	65535	64631.1
844.6475	896.3416	65535	64629.85
844.7926	898.3757	65535	64628.55
844.9377	900.4091	65535	64630.55
845.0829	902.4418	65535	64622.15
845.228	904.4739	65535	64630.35
845.3732	906.5052	65535	64630.95
845.5183	908.5358	65535	64629.8
845.6635	910.5658	65535	64625.7
845.8086	912.595	65535	64633.2
845.9538	914.6236	65535	64630
846.0989	916.6515	65535	64631.05
846.2441	918.6786	65535	64628.45
846.3892	920.7051	65535	64626.8
846.5344	922.7309	65535	64630.9
846.6795	924.756	65535	64627.3
846.8246	926.7804	65535	64626.4
846.9698	928.8041	65535	64626.1
847.1149	930.8272	65535	64628.8
847.2601	932.8495	65535	64628.7
847.4052	934.8711	65535	64625.4
847.5504	936.892	65535	64628.4
847.6955	938.9123	65535	64627.25
847.8407	940.9318	65535	64631.2
847.9858	942.9506	65535	64627.45
848.131	944.9688	65535	64627
848.2761	946.9862	65535	64627.75
848.4213	949.003	65535	64628.3
848.5664	951.019	65535	64627.75
848.7115	953.0344	65535	64627.3
848.8567	955.0491	65535	64629.45
849.0018	957.063	65535	64624.25
849.147	959.0763	65535	64628.55
849.2921	961.0888	65535	64626.2
849.4373	963.1007	65535	64627.1
849.5824	965.1119	65535	64628.6
849.7275	967.1223	65535	64629.95
849.8727	969.1321	65535	64630.35
850.0178	971.1412	65535	64631.7
850.1629	973.1495	65535	64628.7
850.3081	975.1572	65535	64581.25
850.4532	977.1641	65535	64628.1
850.5983	979.1704	65535	64626.7
850.7435	981.1759	65535	64626.1
850.8886	983.1808	65535	64625.65
851.0337	985.1849	65535	64616.45
851.1788	987.1884	65535	64625.45
851.324	989.1911	65535	64626.65
851.4691	991.1932	65535	64625.75
851.6142	993.1945	65535	64626.75
851.7593	995.1951	65535	64629.55
851.9045	997.1951	65535	64622.05
852.0496	999.1943	65535	64625.5
852.1947	1001.1928	65535	64627.5
852.3398	1003.1906	65535	64628.1
852.4849	1005.1877	65535	64627.8
852.63	1007.1841	65535	64628.9
852.7751	1009.1798	65535	64626.4
852.9202	1011.1748	65535	64628.7
853.0653	1013.1691	65535	64626.55
853.2104	1015.1627	65535	64627.85
853.3555	1017.1556	65535	64629.85
853.5006	1019.1477	65535	64625.75
853.6457	1021.1392	65535	64631.95
853.7908	1023.1299	65535	64631.3
853.9359	1025.12	65535	64631.35
854.081	1027.1093	65535	64634.35
854.2261	1029.0979	65535	64634.95
854.3712	1031.0859	65535	64635.3
854.5163	1033.0731	65535	64629.8
854.6613	1035.0596	65535	64632.8
854.8064	1037.0454	65535	64628.05
854.9515	1039.0304	65535	64628.55
855.0965	1041.0148	65535	64629.6
855.2416	1042.9985	65535	64628.1
855.3867	1044.9814	65535	64628.15
855.5317	1046.9636	65535	64629.4
855.6768	1048.9452	65535	64630.5
855.8219	1050.926	65535	64632.65
855.9669	1052.9061	65535	64629.45
856.112	1054.8855	65535	64627.3
856.257	1056.8642	65535	64630.3
856.4021	1058.8421	65535	64623.4
856.5471	1060.8194	65535	64629.1
856.6921	1062.7959	65535	64630.2
856.8372	1064.7717	65535	64626.8
856.9822	1066.7469	65535	64627.5
857.1272	1068.7213	65535	64624.65
857.2723	1070.695	65535	64630.85
857.4173	1072.6679	65535	64630.2
857.5623	1074.6402	65535	64625.5
857.7073	1076.6117	65535	64623.05
857.8523	1078.5826	65535	64628.25
857.9973	1080.5527	65535	64625.85
858.1423	1082.5221	65535	64628.95
858.2873	1084.4908	65535	64628.4
858.4323	1086.4587	65535	64629.85
858.5773	1088.426	65535	64631.4
858.7223	1090.3925	65535	64624.9
858.8673	1092.3584	65535	64631.5
859.0123	1094.3235	65535	64632.15
859.1573	1096.2879	65535	64627.1
859.3022	1098.2515	65535	64626.15
859.4472	1100.2145	65535	64627.5
859.5922	1102.1767	65535	64625.2
859.7371	1104.1382	65535	64628.45
859.8821	1106.099	65535	64628.4
860.027	1108.0591	65535	64629.45
860.172	1110.0185	65535	64626.85
860.3169	1111.9771	65535	64628.55
860.4619	1113.9351	65535	64626.95
860.6068	1115.8923	65535	64626.65
860.7517	1117.8488	65535	64626.55
860.8967	1119.8045	65535	64629.8
861.0416	1121.7596	65535	64627.5
861.1865	1123.7139	65535	64632
861.3314	1125.6675	65535	64629.2
861.4763	1127.6204	65535	64627.9
861.6212	1129.5726	65535	64628.6
861.7661	1131.524	65535	64631.35
861.911	1133.4748	65535	64625.9
862.0559	1135.4248	65535	64626.55
862.2008	1137.3741	65535	64628.95
862.3457	1139.3226	65535	64627.9
862.4905	1141.2705	65535	64630.5
862.6354	1143.2176	65535	64622.55
862.7803	1145.164	65535	64627.95
862.9251	1147.1097	65535	64629.05
863.07	1149.0546	65535	64627.15
863.2148	1150.9989	65535	64627.9
863.3597	1152.9424	65535	64627.15
863.5045	1154.8852	65535	64627.55
863.6493	1156.8272	65535	64628.85
863.7942	1158.7686	65535	64621.8
863.939	1160.7092	65535	64627.55
864.0838	1162.6491	65535	64626.85
864.2286	1164.5883	65535	64629.25
864.3734	1166.5267	65535	64627.35
864.5182	1168.4644	65535	64628.6
864.663	1170.4014	65535	64623.05
864.8078	1172.3377	65535	64627.35
864.9526	1174.2732	65535	64627.5
865.0974	1176.2081	65535	64628.9
865.2421	1178.1421	65535	64624.6
865.3869	1180.0755	65535	64629.55
865.5317	1182.0082	65535	64632.4
865.6764	1183.9401	65535	64628.3
865.8212	1185.8713	65535	64627.55
865.9659	1187.8017	65535	64631.2
866.1106	1189.7315	65535	64633.05
866.2554	1191.6605	65535	64605.65
866.4001	1193.5888	65535	64631.45
866.5448	1195.5163	65535	64633.15
866.6895	1197.4432	65535	64628.8
866.8342	1199.3693	65535	64629.55
866.9789	1201.2947	65535	64628.15
867.1236	1203.2193	65535	64627.95
867.2683	1205.1432	65535	64630.1
867.413	1207.0664	65535	64627.7
867.5576	1208.9889	65535	64626.2
867.7023	1210.9106	65535	64631.05
867.847	1212.8316	65535	64631.15
867.9916	1214.7519	65535	64622.05
868.1363	1216.6715	65535	64630.85
868.2809	1218.5903	65535	64629
868.4255	1220.5084	65535	64629.95
868.5701	1222.4257	65535	64629.5
868.7148	1224.3424	65535	64629.7
868.8594	1226.2583	65535	64622.1
869.004	1228.1735	65535	64630.85
869.1486	1230.0879	65535	64628.85
869.2932	1232.0016	65535	64629.65
869.4377	1233.9146	65535	64627.55
869.5823	1235.8269	65535	64628.35
869.7269	1237.7384	65535	64629.85
869.8715	1239.6492	65535	64629.4
870.016	1241.5592	65535	64630.25
870.1606	1243.4686	65535	64628.4
870.3051	1245.3772	65535	64630.4
870.4496	1247.285	65535	64625.85
870.5941	1249.1922	65535	64631.75
870.7387	1251.0986	65535	64633.75
870.8832	1253.0042	65535	64630.9
871.0277	1254.9092	65535	64630.15
871.1722	1256.8134	65535	64627.75
871.3167	1258.7169	65535	64629.05
871.4611	1260.6196	65535	64630.8
871.6056	1262.5216	65535	64626.9
871.7501	1264.4229	65535	64628.35
871.8945	1266.3234	65535	64630.35
872.039	1268.2232	65535	64629.65
872.1834	1270.1223	65535	64626.25
872.3278	1272.0207	65535	64630.6
872.4723	1273.9183	65535	64623.85
872.6167	1275.8151	65535	64629.65
872.7611	1277.7113	65535	64629.05
872.9055	1279.6067	65535	64630.75
873.0499	1281.5014	65535	64630
873.1943	1283.3953	65535	64627.5
873.3386	1285.2885	65535	64631.65
873.483	1287.181	65535	64627.2
873.6274	1289.0727	65535	64629.7
873.7717	1290.9637	65535	64629.9
873.9161	1292.854	65535	64630.15
874.0604	1294.7435	65535	64628.05
874.2047	1296.6323	65535	64628.3
874.349	1298.5204	65535	64624.9
874.4933	1300.4077	65535	64629.95
874.6376	1302.2943	65535	64630.95
874.7819	1304.1802	65535	64630
874.9262	1306.0653	65535	64629.75
875.0705	1307.9497	65535	64628.75
875.2147	1309.8333	65535	64629.65
875.359	1311.7162	65535	64629.5
875.5032	1313.5984	65535	64627.8
875.6475	1315.4798	65535	64621
875.7917	1317.3605	65535	64612.85
875.9359	1319.2405	65535	64628.65
876.0801	1321.1197	65535	64626.25
876.2243	1322.9982	65535	64627.2
876.3685	1324.876	65535	64630.1
876.5127	1326.753	65535	64628.55
876.6569	1328.6293	65535	64629.1
876.801	1330.5048	65535	64628
876.9452	1332.3796	65535	64630.75
877.0893	1334.2537	65535	64604.4
877.2335	1336.127	65535	64631.1
877.3776	1337.9996	65535	64629.9
877.5217	1339.8714	65535	64628.75
877.6658	1341.7426	65535	64585.65
877.8099	1343.6129	65535	64628.8
877.954	1345.4826	65535	64627.5
878.0981	1347.3515	65535	64626.55
878.2422	1349.2196	65535	64630.6
878.3862	1351.087	65535	64632.7
878.5303	1352.9537	65535	64630.75
878.6743	1354.8197	65535	64630.9
878.8184	1356.6849	65535	64630.05
878.9624	1358.5493	65535	64631.65
879.1064	1360.4131	65535	64629.45
879.2504	1362.276	65535	64632
879.3944	1364.1383	65535	64632.85
879.5384	1365.9998	65535	64626.55
879.6823	1367.8606	65535	64629.6
879.8263	1369.7206	65535	64629.25
879.9702	1371.5799	65535	64631.2
880.1142	1373.4384	65535	64631.8
880.2581	1375.2962	65535	64629.2
880.402	1377.1533	65535	64630.8
880.5459	1379.0096	65535	64631
880.6898	1380.8652	65535	64632.15
880.8337	1382.7201	65535	64631.7
880.9776	1384.5742	65535	64630.45
881.1215	1386.4275	65535	64631.7
881.2653	1388.2802	65535	64630.75
881.4092	1390.132	65535	64630.7
881.553	1391.9832	65535	64627.8
881.6968	1393.8336	65535	64629.35
881.8406	1395.6832	65535	64629.75
881.9844	1397.5322	65535	64630.1
882.1282	1399.3803	65535	64626.5
882.272	1401.2278	65535	64631.15
882.4158	1403.0745	65535	64632.9
882.5595	1404.9204	65535	64634
882.7033	1406.7656	65535	64630.85
882.847	1408.6101	65535	64630.8
882.9908	1410.4538	65535	64628.25
883.1345	1412.2968	65535	64628.9
883.2782	1414.139	65535	64631.55
883.4219	1415.9805	65535	64632.15
883.5656	1417.8213	65535	64625.8
883.7092	1419.6613	65535	64631.9
883.8529	1421.5006	65535	64628.05
883.9965	1423.3391	65535	64629.05
884.1402	1425.1769	65535	64630.75
884.2838	1427.0139	65535	64629.9
884.4274	1428.8502	65535	64629.35
884.571	1430.6858	65535	64629.65
884.7146	1432.5206	65535	64632.05
884.8582	1434.3547	65535	64632.25
885.0018	1436.188	65535	64633.85
885.1453	1438.0206	65535	64630.7
885.2889	1439.8524	65535	64628.6
885.4324	1441.6835	65535	64630.35
885.5759	1443.5139	65535	64630.05
885.7194	1445.3435	65535	64630.45
885.8629	1447.1724	65535	64633.2
886.0064	1449.0005	65535	64636.05
886.1499	1450.8279	65535	64631.8
886.2933	1452.6545	65535	64631.15
886.4368	1454.4804	65535	64631.55
886.5802	1456.3056	65535	64624.8
886.7237	1458.13	65535	64632.4
886.8671	1459.9536	65535	64634
887.0105	1461.7766	65535	64633.55
887.1539	1463.5987	65535	64631.1
887.2972	1465.4202	65535	64632.9
887.4406	1467.2409	65535	64631.1
887.584	1469.0608	65535	64633.55
887.7273	1470.88	65535	64631.6
887.8706	1472.6984	65535	64631.4
888.0139	1474.5161	65535	64629.3
888.1572	1476.3331	65535	64633.05
888.3005	1478.1493	65535	64631.9
888.4438	1479.9648	65535	64632.8
888.5871	1481.7795	65535	64631.65
888.7303	1483.5935	65535	64633.05
888.8736	1485.4067	65535	64633.15
889.0168	1487.2192	65535	64629.1
889.16	1489.031	65535	64631.65
889.3032	1490.842	65535	64631.2
889.4464	1492.6522	65535	64633.4
889.5896	1494.4618	65535	64632
889.7327	1496.2705	65535	64631.65
889.8759	1498.0785	65535	64633
890.019	1499.8858	65535	64630.6
890.1622	1501.6924	65535	64631.8
890.3053	1503.4981	65535	64631.8
890.4484	1505.3032	65535	64632.7
890.5914	1507.1075	65535	64633
890.7345	1508.911	65535	64632.95
890.8776	1510.7138	65535	64631.4
891.0206	1512.5159	65535	64633.4
891.1637	1514.3172	65535	64632.8
891.3067	1516.1178	65535	64635.2
891.4497	1517.9176	65535	64629.8
891.5927	1519.7166	65535	64632.85
891.7357	1521.515	65535	64625.9
891.8786	1523.3126	65535	64633.8
892.0216	1525.1094	65535	64632.25
892.1645	1526.9055	65535	64636.3
892.3074	1528.7008	65535	64634
892.4503	1530.4954	65535	64628.55
892.5932	1532.2893	65535	64634.25
892.7361	1534.0824	65535	64629.55
892.879	1535.8747	65535	64633.95
893.0218	1537.6663	65535	64633.2
893.1647	1539.4572	65535	64631.7
893.3075	1541.2473	65535	64633.45
893.4503	1543.0367	65535	64635.65
893.5931	1544.8253	65535	64629.7
893.7359	1546.6132	65535	64632.4
893.8787	1548.4003	65535	64623.75
894.0214	1550.1867	65535	64623
894.1642	1551.9723	65535	64632.15
894.3069	1553.7572	65535	64633.35
894.4496	1555.5414	65535	64633.85
894.5923	1557.3247	65535	64633.1
894.735	1559.1074	65535	64634.85
894.8777	1560.8893	65535	64635.35
895.0204	1562.6705	65535	64636.35
895.163	1564.4509	65535	64635.8
895.3056	1566.2305	65535	64637.75
895.4482	1568.0094	65535	64634.75
895.5908	1569.7876	65535	64636.3
895.7334	1571.565	65535	64634.9
895.876	1573.3417	65535	64635.15
896.0186	1575.1176	65535	64635.75
896.1611	1576.8928	65535	64634.25
896.3036	1578.6672	65535	64638.75
896.4461	1580.4409	65535	64636.4
896.5886	1582.2138	65535	64634.45
896.7311	1583.986	65535	64636.25
896.8736	1585.7575	65535	64637.6
897.0161	1587.5282	65535	64638.2
897.1585	1589.2981	65535	64636.4
897.3009	1591.0673	65535	64636.75
897.4433	1592.8358	65535	64635.15
897.5857	1594.6035	65535	64633
897.7281	1596.3704	65535	64634.5
897.8705	1598.1366	65535	64639.25
898.0128	1599.9021	65535	64638.1
898.1551	1601.6668	65535	64633.75
898.2975	1603.4308	65535	64634.55
898.4398	1605.194	65535	64631.7
898.5821	1606.9564	65535	64636.65
898.7243	1608.7182	65535	64634.9
898.8666	1610.4791	65535	64638.65
899.0088	1612.2394	65535	64640.35
899.1511	1613.9988	65535	64640.05
899.2933	1615.7576	65535	64638.3
899.4355	1617.5156	65535	64629
899.5776	1619.2728	65535	64637.8
899.7198	1621.0293	65535	64636
899.862	1622.785	65535	64634.9
900.0041	1624.54	65535	64636.3
900.1462	1626.2942	65535	64637.05
900.2883	1628.0477	65535	64633.55
900.4304	1629.8005	65535	64634.3
900.5725	1631.5525	65535	64636.4
900.7145	1633.3037	65535	64637.7
900.8566	1635.0542	65535	64637.4
900.9986	1636.804	65535	64639.8
901.1406	1638.553	65535	64549.05
901.2826	1640.3013	65535	64639.45
901.4245	1642.0488	65535	64638.2
901.5665	1643.7955	65535	64639.25
901.7085	1645.5416	65535	64640.1
901.8504	1647.2868	65535	64639.7
901.9923	1649.0313	65535	64637.45
902.1342	1650.7751	65535	64636.95
902.2761	1652.5181	65535	64639.55
902.4179	1654.2604	65535	64638.1
902.5598	1656.0019	65535	64639.55
902.7016	1657.7427	65535	64638.7
902.8434	1659.4828	65535	64638.1
902.9852	1661.222	65535	64636.85
903.127	1662.9606	65535	64639.95
903.2687	1664.6984	65535	64637
903.4105	1666.4354	65535	64638.6
903.5522	1668.1717	65535	64635.9
903.6939	1669.9072	65503.25	64606.25
903.8356	1671.642	65515.05	64615.1
903.9773	1673.3761	65493.35	64596.3
904.119	1675.1094	65479.4	64581.8
904.2606	1676.8419	65275.4	64379.35
904.4022	1678.5737	65426.1	64531.55
904.5439	1680.3048	65318.8	64422.85
904.6855	1682.0351	65175.85	64279.15
904.827	1683.7646	65014	64115.35
904.9686	1685.4934	65222.2	64328.45
905.1101	1687.2215	64349.5	63452.7
905.2517	1688.9488	65094.4	64197.2
905.3932	1690.6754	63470.9	62575.05
905.5347	1692.4012	64468.45	63573.15
905.6761	1694.1263	64683.15	63786.15
905.8176	1695.8506	63773	62874.15
905.9591	1697.5742	63988.05	63092.45
906.1005	1699.297	63729.95	62834.35
906.2419	1701.0191	63908.65	63015.45
906.3833	1702.7404	62777.2	61881.7
906.5246	1704.461	62436.2	61539.55
906.666	1706.1808	63233.7	62336.15
906.8073	1707.8999	62724.85	61830.05
906.9487	1709.6182	62483	61588.95
907.09	1711.3358	62418.75	61525.65
907.2313	1713.0527	62244.55	61352.1
907.3725	1714.7688	62287.05	61385.4
907.5138	1716.4841	60998.6	60102.15
907.655	1718.1987	61531.55	60631.25
907.7962	1719.9126	61164.7	60270.2
907.9374	1721.6257	61455.45	60559.55
908.0786	1723.338	61494.7	60598.8
908.2198	1725.0496	60125.2	59230.3
908.3609	1726.7605	60241.85	59346.55
908.502	1728.4706	59787.65	58892.05
908.6431	1730.18	60306.4	59409.05
908.7842	1731.8886	59702.15	58808.15
908.9253	1733.5964	59307.6	58393.8
909.0664	1735.3036	59976.35	59079.35
909.2074	1737.0099	59470.95	58578
909.3484	1738.7156	58844.6	57953.1
909.4894	1740.4204	58652.1	57753.6
909.6304	1742.1246	58862	57966.1
909.7714	1743.8279	58956.75	58063.55
909.9123	1745.5306	58878.35	57985.85
910.0532	1747.2325	57607.2	56713.55
910.1941	1748.9336	57627.9	56734.25
910.335	1750.634	57820.95	56923.9
910.4759	1752.3336	58147.8	57252.45
910.6168	1754.0325	57251.55	56359.05
910.7576	1755.7307	57920.4	57027.85
910.8984	1757.4281	56931.5	56037.55
911.0392	1759.1247	57611.7	56710.9
911.18	1760.8206	56673.95	55775.05
911.3208	1762.5158	56699.2	55799.9
911.4615	1764.2102	56771.35	55879.35
911.6022	1765.9039	56487.5	55594.95
911.7429	1767.5968	56334.3	55441.35
911.8836	1769.289	56157.5	55264.75
912.0243	1770.9804	56156.3	55264
912.1649	1772.6711	55987.9	55092.5
912.3056	1774.361	55800.25	54905.15
912.4462	1776.0502	55769.55	54874.95
912.5868	1777.7386	55262.55	54364.4
912.7274	1779.4263	55271.7	54377.2
912.8679	1781.1132	55308.1	54414.35
913.0084	1782.7994	54956.85	54062.8
913.149	1784.4849	55096.2	54202.5
913.2895	1786.1696	54326.75	53428.4
913.4299	1787.8535	54520.1	53627.8
913.5704	1789.5367	54572.6	53678.8
913.7108	1791.2192	54142.45	53247.15
913.8513	1792.9009	53940.45	53018.1
913.9917	1794.5818	54090.75	53194.9
914.132	1796.2621	53732.45	52839.3
914.2724	1797.9415	53656.9	52762.95
914.4128	1799.6202	53526.8	52632.75
914.5531	1801.2982	53577.95	52684.7
914.6934	1802.9755	53199.6	52305.55
914.8337	1804.6519	53058.35	52164.3
914.9739	1806.3277	53201.5	52308.4
915.1142	1808.0027	52444.15	51551.9
915.2544	1809.6769	52611.15	51720.25
915.3946	1811.3504	52661.25	51766.3
915.5348	1813.0231	52114.25	51222.5
915.675	1814.6951	52298.3	51403.2
915.8151	1816.3664	52104.2	51209
915.9553	1818.0369	51996.05	51100.55
916.0954	1819.7067	51816.15	50924.25
916.2355	1821.3757	51990.2	51094.9
916.3755	1823.044	51514.4	50621.75
916.5156	1824.7115	51354.65	50461.45
916.6556	1826.3783	51291.4	50399.3
916.7956	1828.0443	51103.4	50211.75
916.9356	1829.7096	50883.8	49987.6
917.0756	1831.3741	50748.95	49852.15
917.2155	1833.0379	50689.3	49795
917.3555	1834.701	50615.4	49721.3
917.4954	1836.3633	50375.85	49484.25
917.6353	1838.0248	50319.4	49425.25
917.7751	1839.6856	50205.3	49311.2
917.915	1841.3457	50033.3	49141.7
918.0548	1843.005	50056.75	49162.55
918.1946	1844.6636	49835	48944
918.3344	1846.3214	49659.85	48765.85
918.4742	1847.9785	49634	48741.65
918.6139	1849.6349	49462.15	48567.6
918.7537	1851.2904	49464.15	48560.3
918.8934	1852.9453	49220.85	48327.95
919.0331	1854.5994	49102	48205.95
919.1727	1856.2528	49130.05	48230.4
919.3124	1857.9054	48847.3	47952.9
919.452	1859.5572	48825	47931.95
919.5916	1861.2083	48681.05	47790.05
919.7312	1862.8587	48842.35	47949.55
919.8708	1864.5084	48377.4	47483.3
920.0103	1866.1572	48346.2	47452.9
920.1498	1867.8054	48092.1	47197.8
920.2893	1869.4528	48017.7	47122.45
920.4288	1871.0994	47838.55	46943.7
920.5683	1872.7453	47794.35	46899.45
920.7077	1874.3905	47645.6	46745.1
920.8471	1876.0349	47463.35	46568.8
920.9865	1877.6786	47483.5	46587.3
921.1259	1879.3215	47410.9	46516.05
921.2653	1880.9637	47290.65	46396.55
921.4046	1882.6051	47172.85	46278.8
921.5439	1884.2458	47054.6	46158
921.6832	1885.8858	46833.8	45939
921.8225	1887.525	46750.9	45857.7
921.9617	1889.1634	46561.5	45668.9
922.101	1890.8011	46380.5	45486.7
922.2402	1892.4381	46229	45336.25
922.3794	1894.0743	46231.7	45339.9
922.5185	1895.7098	46072.65	45178.55
922.6577	1897.3446	45914.4	45019.75
922.7968	1898.9786	45748.35	44851.4
922.9359	1900.6118	45648	44755.75
923.075	1902.2443	45470.35	44576.55
923.214	1903.8761	45421	44527.7
923.3531	1905.5071	45044.9	44148.45
923.4921	1907.1374	44901.75	44009.55
923.6311	1908.7669	44802.95	43910.95
923.77	1910.3957	44758.15	43865.25
923.909	1912.0237	44483.7	43590.95
924.0479	1913.651	44402.9	43507.25
924.1868	1915.2776	44263.1	43372.65
924.3257	1916.9034	44066.5	43174.5
924.4646	1918.5285	43861.55	42971.35
924.6034	1920.1528	43677.65	42783.9
924.7422	1921.7764	43615.6	42723.15
924.881	1923.3992	43447.25	42555.35
925.0198	1925.0213	43149.05	42256.9
925.1586	1926.6427	42977.45	42086.55
925.2973	1928.2633	43038.65	42031.8
925.436	1929.8832	42768.1	41874.9
925.5747	1931.5023	42575	41683.25
925.7134	1933.1207	42479.75	41585.6
925.852	1934.7383	42379.35	41484.85
925.9906	1936.3552	42186.85	41294.75
926.1292	1937.9714	42075.2	41180.45
926.2678	1939.5868	41880.25	40985.55
926.4064	1941.2015	41639.75	40743.95
926.5449	1942.8154	41537.35	40645.45
926.6834	1944.4286	41299.6	40407.35
926.8219	1946.041	41200.85	40289.65
926.9604	1947.6528	40929.15	40030.55
927.0988	1949.2637	40849.55	39959.5
927.2372	1950.8739	40691.2	39797.45
927.3756	1952.4834	40612.85	39719.5
927.514	1954.0921	40574.35	39679
927.6523	1955.7001	40305	39408.2
927.7907	1957.3074	40226.1	39334.55
927.929	1958.9139	40038.85	39146.85
928.0673	1960.5197	39963.2	39071.4
928.2055	1962.1247	39764.45	38872.25
928.3438	1963.729	39521.35	38629.9
928.482	1965.3325	39428.65	38514.65
928.6202	1966.9353	39281.5	38390.4
928.7584	1968.5374	39167.5	38274.5
928.8965	1970.1387	39023.55	38131.4
929.0346	1971.7393	38894.65	38003
929.1727	1973.3392	38759	37865.95
929.3108	1974.9383	38552.35	37659.15
929.4489	1976.5366	38427.65	37535.15
929.5869	1978.1342	38365.35	37471.2
929.7249	1979.7311	38292	37400.75
929.8629	1981.3273	38189.35	37297.75
930.0009	1982.9227	37960.55	37066.9
930.1388	1984.5173	37796.5	36906.45
930.2767	1986.1112	37677.8	36786.75
930.4146	1987.7044	37617.95	36728.25
930.5525	1989.2968	37447.7	36553.9
930.6904	1990.8885	37384.85	36491.2
930.8282	1992.4795	37299.15	36405.6
930.966	1994.0697	37124.1	36232.45
931.1038	1995.6592	37007.85	36114.95
931.2415	1997.2479	36846.7	35955.15
931.3793	1998.8359	36752.55	35862.4
931.517	2000.4232	36513.6	35623.9
931.6547	2002.0097	36415.25	35526.7
931.7923	2003.5955	36278.2	35386.1
931.93	2005.1805	36265.75	35374.2
932.0676	2006.7648	36139.4	35248.4
932.2052	2008.3484	35993.45	35099.65
932.3427	2009.9312	35994.55	35102.05
932.4803	2011.5133	35820.85	34929.55
932.6178	2013.0946	35689	34798.7
932.7553	2014.6752	35618.1	34729.6
932.8928	2016.2551	35524.5	34633.9
933.0302	2017.8342	35323.05	34433.05
933.1676	2019.4126	35239.25	34347.8
933.305	2020.9902	35084.7	34194.3
933.4424	2022.5672	35020.8	34129.7
933.5798	2024.1433	34871.95	33974.45
933.7171	2025.7188	34741.8	33852.35
933.8544	2027.2935	34621.4	33730.1
933.9917	2028.8674	34484.45	33594.65
934.129	2030.4406	34377.75	33490.6
934.2662	2032.0131	34241.55	33352.35
934.4034	2033.5849	34117.6	33222.35
934.5406	2035.1559	34023.55	33134.15
934.6778	2036.7261	33958.6	33067.5
934.8149	2038.2957	33886	32994.9
934.952	2039.8645	33800.65	32910.15
935.0891	2041.4325	33785.05	32891.8
935.2262	2042.9998	33588.05	32698.15
935.3632	2044.5664	33523.05	32630.2
935.5002	2046.1323	33428.45	32539.7
935.6372	2047.6974	33280.35	32389.9
935.7742	2049.2617	33170.15	32283
935.9111	2050.8254	33166.05	32255.55
936.048	2052.3883	33117.75	32226.6
936.1849	2053.9504	32977.05	32084.35
936.3218	2055.5118	32873.15	31980.4
936.4586	2057.0725	32689.5	31797.05
936.5955	2058.6325	32597.15	31705.55
936.7323	2060.1917	32485.65	31595.05
936.869	2061.7502	32436.35	31545.4
937.0058	2063.3079	32317.95	31427.15
937.1425	2064.8649	32177.45	31285.2
937.2792	2066.4212	32107.2	31215.6
937.4159	2067.9767	31966.3	31075.45
937.5525	2069.5315	31840.95	30950.05
937.6891	2071.0856	31660.75	30770.55
937.8257	2072.6389	31592.4	30700.95
937.9623	2074.1915	31467.6	30578.65
938.0989	2075.7433	31311.45	30420.1
938.2354	2077.2945	31224.45	30333.45
938.3719	2078.8448	31094.1	30203.35
938.5084	2080.3945	30996.75	30106.15
938.6448	2081.9434	30945.4	30054.15
938.7812	2083.4916	30825.45	29933.6
938.9176	2085.039	30749.2	29857.75
939.054	2086.5857	30683.1	29788.4
939.1903	2088.1317	30560.6	29669.25
939.3267	2089.677	30496.15	29604.3
939.463	2091.2215	30371.2	29481.8
939.5992	2092.7652	30286.15	29394.3
939.7355	2094.3083	30201.95	29309.3
939.8717	2095.8506	30126.8	29234.75
940.0079	2097.3921	30144.1	29253.5
940.1441	2098.933	30004.1	29113.4
940.2802	2100.4731	29872.6	28982.9
940.4163	2102.0124	29854.5	28956.15
940.5524	2103.5511	29761.65	28870
940.6885	2105.089	29662.3	28770.25
940.8245	2106.6261	29621.6	28730.85
940.9606	2108.1626	29492.15	28599.55
941.0965	2109.6983	29432.85	28513.7
941.2325	2111.2332	29352.8	28460.2
941.3684	2112.7675	29246.4	28354.7
941.5044	2114.301	29173.85	28281.1
941.6403	2115.8337	29123.4	28231.1
941.7761	2117.3657	29025	28134
941.912	2118.897	28978.45	28086.95
942.0478	2120.4276	28865.75	27967.9
942.1835	2121.9575	28691.9	27801.1
942.3193	2123.4866	28731.6	27825.45
942.455	2125.0149	28609.85	27716.1
942.5907	2126.5426	28385.2	27496.75
942.7264	2128.0695	28412.35	27520
942.8621	2129.5956	28344.05	27455.2
942.9977	2131.1211	28231.2	27336.45
943.1333	2132.6458	28132.25	27241.3
943.2689	2134.1698	28073.6	27180.8
943.4044	2135.693	28010.5	27114.25
943.54	2137.2155	27919.95	27026.75
943.6755	2138.7373	27821.75	26928.7
943.8109	2140.2584	27701.9	26812
943.9464	2141.7787	27622.1	26726.1
944.0818	2143.2983	27486.65	26595.6
944.2172	2144.8171	27356.45	26466.85
944.3526	2146.3353	27331.45	26438.6
944.4879	2147.8527	27178.55	26289.55
944.6232	2149.3693	27131.8	26239.55
944.7585	2150.8853	27050.95	26159.6
944.8938	2152.4005	26913.15	26020.95
945.029	2153.9149	26865.95	25977.15
945.1642	2155.4287	26773.8	25882.15
945.2994	2156.9417	26710.95	25819.45
945.4346	2158.454	26645.7	25752.05
945.5697	2159.9655	26555.7	25666.15
945.7048	2161.4764	26509	25616.55
945.8399	2162.9865	26413.65	25522.25
945.9749	2164.4958	26337.5	25444.3
946.1099	2166.0045	26276.95	25384.75
946.2449	2167.5124	26231.2	25341.1
946.3799	2169.0195	26131.9	25242.45
946.5148	2170.526	26125.15	25233.45
946.6498	2172.0317	26022.9	25132.15
946.7846	2173.5367	25904.75	25012.45
946.9195	2175.0409	25830.95	24940.2
947.0543	2176.5445	25835.45	24945.6
947.1891	2178.0473	25713.3	24823.1
947.3239	2179.5494	25538.5	24645.3
947.4587	2181.0507	25443.2	24550.9
947.5934	2182.5513	25400	24510.1
947.7281	2184.0512	25380.55	24488.25
947.8628	2185.5504	25242.55	24351.35
947.9974	2187.0488	25092.95	24201.05
948.132	2188.5465	25013.25	24122.9
948.2666	2190.0435	24889	23997.65
948.4012	2191.5397	24826.25	23936.35
948.5357	2193.0353	24742.6	23852.6
948.6702	2194.5301	24645.7	23752.65
948.8047	2196.0241	24539.5	23645.2
948.9392	2197.5175	24506.1	23615.3
949.0736	2199.0101	24379	23482.6
949.208	2200.502	24255.5	23364.85
949.3424	2201.9931	24193.75	23302.7
949.4767	2203.4835	24092.55	23199.65
949.611	2204.9733	24040.3	23143.4
949.7453	2206.4622	23971.95	23082.55
949.8796	2207.9505	23885.75	22992.8
950.0138	2209.438	23759	22869.45
950.148	2210.9248	23628.35	22736.05
950.2822	2212.4109	23614.7	22722.65
950.4164	2213.8962	23525.05	22632.05
950.5505	2215.3809	23459.75	22564.15
950.6846	2216.8648	23373.9	22481.9
950.8186	2218.3479	23326.9	22429.05
950.9527	2219.8304	23202.1	22308.7
951.0867	2221.3121	23104.45	22209.35
951.2207	2222.7931	23009.45	22119.05
951.3546	2224.2733	22923.7	22031.9
951.4886	2225.7529	22859.25	21967.35
951.6225	2227.2317	22791.05	21895.8
951.7563	2228.7098	22743	21853.1
951.8902	2230.1872	22630.2	21739.25
952.024	2231.6638	22585.2	21693.6
952.1578	2233.1397	22488.25	21591.8
952.2916	2234.6149	22404.5	21512.15
952.4253	2236.0894	22359.35	21467.3
952.559	2237.5632	22295.75	21394.1
952.6927	2239.0362	22149.95	21260.85
952.8263	2240.5085	22113.3	21221.4
952.9599	2241.9801	21975.2	21083.35
953.0935	2243.4509	21956.4	21065.15
953.2271	2244.921	21900.5	21009.65
953.3606	2246.3904	21797.45	20904.45
953.4941	2247.8591	21751.8	20861.25
953.6276	2249.3271	21655.25	20764.1
953.7611	2250.7943	21577.75	20685.8
953.8945	2252.2608	21523.05	20633.15
954.0279	2253.7266	21475.4	20583.6
954.1612	2255.1917	21363.9	20472.1
954.2946	2256.656	21285.55	20393.4
954.4279	2258.1197	21200.3	20311.05
954.5612	2259.5826	21163.1	20270.3
954.6944	2261.0447	21132.45	20242.4
954.8276	2262.5062	21006.9	20113.5
954.9608	2263.9669	20964.85	20073.1
955.094	2265.4269	20905.85	20016.55
955.2271	2266.8862	20830.25	19936.9
955.3602	2268.3448	20768.5	19876.25
955.4933	2269.8026	20744.85	19854.6
955.6264	2271.2598	20686.65	19795.1
955.7594	2272.7162	20609.55	19718.45
955.8924	2274.1719	20541.6	19649.35
956.0253	2275.6268	20462.25	19569.9
956.1583	2277.0811	20408.4	19515.55
956.2912	2278.5346	20329.4	19440.15
956.4241	2279.9874	20295.15	19404.9
956.5569	2281.4395	20235.7	19345.8
956.6897	2282.8908	20177.65	19280.65
956.8225	2284.3414	20124.05	19230.8
956.9553	2285.7914	20045.4	19155.5
957.088	2287.2406	19967.3	19073.8
957.2207	2288.689	19948.4	19058.25
957.3534	2290.1368	19912.25	19020.05
957.486	2291.5838	19812.1	18918.45
957.6186	2293.0302	19713.45	18819.5
957.7512	2294.4758	19631.4	18739.85
957.8838	2295.9206	19584.3	18692.2
958.0163	2297.3648	19532.15	18640.4
958.1488	2298.8082	19508.55	18614.5
958.2813	2300.251	19437.2	18546.15
958.4137	2301.693	19364.8	18472.75
958.5461	2303.1343	19359.15	18468.05
958.6785	2304.5748	19256.4	18365.15
958.8108	2306.0147	19158.9	18268.75
958.9432	2307.4538	19092.25	18199.8
959.0754	2308.8922	19032.55	18142
959.2077	2310.3299	18978.5	18086.8
959.3399	2311.7669	18892.2	18000
959.4721	2313.2031	18798.7	17906.8
959.6043	2314.6387	18783.8	17892.85
959.7365	2316.0735	18705.95	17813.45
959.8686	2317.5076	18670.65	17778.8
960.0006	2318.941	18611.55	17722.15
960.1327	2320.3737	18546.9	17655.1
960.2647	2321.8056	18493.65	17598.65
960.3967	2323.2369	18417.25	17524
960.5287	2324.6674	18368.7	17474.05
960.6606	2326.0972	18298.9	17406.2
960.7925	2327.5263	18230	17340.55
960.9244	2328.9547	18169.8	17278.95
961.0562	2330.3823	18109.15	17217.55
961.1881	2331.8092	18107	17210.95
961.3198	2333.2355	18013.35	17122.1
961.4516	2334.661	17954.65	17062.65
961.5833	2336.0858	17907.8	17016.05
961.715	2337.5098	17874.8	16984
961.8467	2338.9332	17824.6	16934
961.9783	2340.3558	17725.2	16831
962.1099	2341.7778	17692.85	16802.85
962.2415	2343.199	17610.7	16714.8
962.373	2344.6195	17562.3	16671.1
962.5045	2346.0393	17518.1	16628.3
962.636	2347.4583	17460.6	16568.05
962.7675	2348.8767	17377.45	16484.8
962.8989	2350.2943	17343.35	16451.1
963.0303	2351.7113	17317.2	16424.65
963.1617	2353.1275	17274.6	16381.95
963.293	2354.543	17232.1	16331.6
963.4243	2355.9578	17131.55	16241.8
963.5556	2357.3718	17042.25	16151.75
963.6868	2358.7852	16980.1	16086.2
963.818	2360.1978	16896.6	16003.65
963.9492	2361.6098	16860.2	15969.6
964.0803	2363.021	16791.45	15895
964.2114	2364.4315	16741.65	15851.6
964.3425	2365.8413	16707.8	15816
964.4736	2367.2504	16659.7	15768.05
964.6046	2368.6587	16561.4	15669.7
964.7356	2370.0664	16452.1	15561.1
964.8666	2371.4733	16439.5	15549.1
964.9975	2372.8795	16341.85	15450.25
965.1284	2374.285	16314.85	15423.65
965.2593	2375.6899	16248.3	15357.1
965.3901	2377.0939	16150.15	15258.55
965.5209	2378.4973	16127.4	15236.15
965.6517	2379.9	16030.35	15139.7
965.7825	2381.3019	16003.25	15112.9
965.9132	2382.7032	15928.7	15039.25
966.0439	2384.1037	15910.55	15020.85
966.1745	2385.5035	15848.25	14958.55
966.3051	2386.9027	15781.4	14891.55
966.4357	2388.3011	15720.65	14826.6
966.5663	2389.6987	15692.3	14802.95
966.6968	2391.0957	15588.1	14698.15
966.8273	2392.492	15517.5	14627.6
966.9578	2393.8876	15435.5	14545.95
967.0882	2395.2824	15392.45	14504.35
967.2186	2396.6765	15296.05	14406.7
967.349	2398.07	15253.3	14365.4
967.4793	2399.4627	15224.3	14332
967.6097	2400.8547	15167.55	14276.25
967.7399	2402.246	15111.65	14213.65
967.8702	2403.6366	15021.5	14129.6
968.0004	2405.0265	14946.45	14058
968.1306	2406.4156	14896.5	14002.25
968.2607	2407.8041	14835.1	13941.25
968.3909	2409.1918	14780.25	13889.9
968.521	2410.5789	14731.3	13842.25
968.651	2411.9652	14702.25	13809
968.781	2413.3508	14625.1	13734.6
968.911	2414.7358	14579.2	13688.05
969.041	2416.12	14519	13629.6
969.1709	2417.5035	14477.05	13585.9
969.3008	2418.8863	14408.35	13515.8
969.4307	2420.2684	14361.3	13469.45
969.5606	2421.6497	14292.75	13402.75
969.6904	2423.0304	14235.85	13346.25
969.8201	2424.4104	14205.2	13314.75
969.9499	2425.7896	14124.15	13232.6
970.0796	2427.1682	14097.8	13208.25
970.2093	2428.546	14086.5	13194.55
970.3389	2429.9232	14035.35	13143.6
970.4685	2431.2996	14018.95	13129.65
970.5981	2432.6753	13962.8	13071.75
970.7277	2434.0503	13904	13014.7
970.8572	2435.4246	13815.65	12924.2
970.9867	2436.7982	13815.4	12923.45
971.1161	2438.1711	13738.65	12849.3
971.2456	2439.5433	13724.6	12831.6
971.375	2440.9148	13629.05	12731.7
971.5043	2442.2856	13565.45	12677.25
971.6336	2443.6557	13527.25	12634.4
971.7629	2445.025	13491.15	12599.45
971.8922	2446.3937	13478.8	12587.8
972.0214	2447.7617	13413	12520.35
972.1506	2449.1289	13363.6	12472.05
972.2798	2450.4955	13315.6	12422.65
972.4089	2451.8613	13300.15	12411.3
972.538	2453.2265	13275.75	12386.95
972.6671	2454.5909	13208.4	12315.65
972.7961	2455.9546	13203.2	12311.95
972.9251	2457.3177	13154.55	12264.85
973.0541	2458.68	13091.85	12199.9
973.1831	2460.0416	13069.3	12178.5
973.312	2461.4025	13075.25	12183.1
973.4408	2462.7627	13026.15	12123.35
973.5697	2464.1222	12944.55	12054.4
973.6985	2465.4811	12917.45	12024.3
973.8273	2466.8392	12862.5	11971.3
973.956	2468.1966	12818.25	11924.8
974.0847	2469.5533	12821.95	11929.15
974.2134	2470.9093	12785.5	11892.2
974.3421	2472.2645	12727.2	11836.15
974.4707	2473.6191	12685.5	11794.85
974.5993	2474.973	12644.95	11753.4
974.7278	2476.3262	12584.2	11691.55
974.8563	2477.6787	12534.8	11643.9
974.9848	2479.0305	12458.8	11569.75
975.1132	2480.3816	12452.5	11561.45
975.2417	2481.7319	12384.05	11493
975.37	2483.0816	12344.35	11452.25
975.4984	2484.4306	12287.05	11394.2
975.6267	2485.7789	12272.75	11381.75
975.755	2487.1264	12194.4	11302.15
975.8833	2488.4733	12118.55	11228.8
976.0115	2489.8195	12093.55	11185.85
976.1397	2491.165	12050.4	11157.05
976.2678	2492.5097	12017.8	11124.8
976.3959	2493.8538	11959.25	11071.6
976.524	2495.1972	11883.85	10994.3
976.6521	2496.5398	11850.75	10958.25
976.7801	2497.8818	11817.2	10923.85
976.9081	2499.2231	11798.9	10907.05
977.036	2500.5637	11732.65	10839.25
977.164	2501.9035	11702.15	10807.4
977.2918	2503.2427	11658.4	10764.75
977.4197	2504.5812	11597.25	10706.55
977.5475	2505.919	11595.15	10702.1
977.6753	2507.256	11566.45	10675.5
977.8031	2508.5924	11499.35	10610.25
977.9308	2509.9281	11461.25	10565.75
978.0585	2511.2631	11412.35	10519.4
978.1861	2512.5974	11389.5	10499.4
978.3137	2513.9309	11348.3	10456.25
978.4413	2515.2638	11328.15	10413.1
978.5689	2516.596	11269.1	10379.4
978.6964	2517.9275	11234.3	10340.9
978.8239	2519.2583	11176.15	10284.1
978.9513	2520.5884	11138.25	10247
979.0788	2521.9178	11095.7	10204.4
979.2062	2523.2465	11044.15	10154.35
979.3335	2524.5745	11012.4	10123.25
979.4608	2525.9018	10984.9	10093.8
979.5881	2527.2284	10966.25	10078.15
979.7154	2528.5543	10924.85	10035.75
979.8426	2529.8796	10902.7	10012.8
979.9698	2531.2041	10870.65	9980.3
980.0969	2532.5279	10813.15	9922.85
980.224	2533.851	10790.65	9899.85
980.3511	2535.1735	10762.85	9870.75
980.4781	2536.4952	10735.25	9845.15
980.6052	2537.8163	10719.7	9829
980.7321	2539.1366	10660.8	9769.85
980.8591	2540.4562	10643.15	9752
980.986	2541.7752	10633.6	9744.1
981.1129	2543.0935	10591.7	9702.15
981.2397	2544.411	10564.7	9672.2
981.3665	2545.7279	10524.5	9634
981.4933	2547.0441	10514.5	9624.2
981.62	2548.3596	10508.45	9613.05
981.7467	2549.6744	10465.25	9572.9
981.8734	2550.9885	10437.75	9544.75
982.0001	2552.3019	10409.3	9518.1
982.1267	2553.6146	10375.8	9484.2
982.2532	2554.9266	10342.2	9451.4
982.3798	2556.2379	10271.5	9379.75
982.5063	2557.5485	10272.1	9382.9
982.6327	2558.8585	10253.45	9355
982.7592	2560.1677	10218	9322.2
982.8856	2561.4762	10177.35	9285.6
983.0119	2562.7841	10190.2	9296.85
983.1383	2564.0913	10157.5	9266.65
983.2646	2565.3977	10128.1	9237.75
983.3908	2566.7035	10124.15	9235.55
983.517	2568.0086	10103.25	9209.75
983.6432	2569.313	10077.5	9187.2
983.7694	2570.6167	10069.65	9174.1
983.8955	2571.9197	10017.5	9125.4
984.0216	2573.222	9987.75	9092
984.1476	2574.5236	9971.05	9080.65
984.2737	2575.8246	9941.9	9050.5
984.3996	2577.1248	9923.9	9031.85
984.5256	2578.4244	9912.2	9022.25
984.6515	2579.7232	9896.75	9008.15
984.7774	2581.0214	9858.85	8941.7
984.9032	2582.3189	9839.6	8950.1
985.029	2583.6157	9817.25	8922.95
985.1548	2584.9118	9810.7	8918.5
985.2806	2586.2072	9752.25	8861.2
985.4063	2587.5019	9720.1	8828.75
985.5319	2588.7959	9694.2	8803.75
985.6576	2590.0893	9684.95	8793.65
985.7832	2591.3819	9661.6	8771.5
985.9087	2592.6739	9610.8	8721.7
986.0343	2593.9652	9597.4	8704.85
986.1597	2595.2557	9559.95	8668.9
986.2852	2596.5456	9519.35	8624.1
986.4106	2597.8348	9465.55	8575.8
986.536	2599.1234	9435.5	8545.7
986.6614	2600.4112	9412	8521.25
986.7867	2601.6983	9399.25	8505.05
986.912	2602.9848	9342.45	8450.4
987.0372	2604.2705	9320.75	8421.4
987.1624	2605.5556	9290.25	8398.25
987.2876	2606.84	9242.25	8350.15
987.4128	2608.1237	9226.35	8332.3
987.5379	2609.4067	9179.4	8288.8
987.6629	2610.689	9165.35	8265.35
987.788	2611.9707	9118.2	8224
987.913	2613.2516	9075.3	8179
988.0379	2614.5319	9030.2	8140.05
988.1629	2615.8115	9003.3	8113.3
988.2878	2617.0903	8978.3	8086.25
988.4126	2618.3685	8939.65	8049.4
988.5375	2619.6461	8916	8023.8
988.6622	2620.9229	8884.8	7996
988.787	2622.199	8856.5	7963.55
988.9117	2623.4745	8837	7944.2
989.0364	2624.7493	8799.7	7908.75
989.161	2626.0234	8763.5	7873.65
989.2857	2627.2968	8724.25	7833.2
989.4102	2628.5695	8683.8	7792.5
989.5348	2629.8415	8659.3	7768.6
989.6593	2631.1128	8607.65	7715.85
989.7837	2632.3835	8569.4	7678.45
989.9082	2633.6535	8521	7630.05
990.0326	2634.9228	8531.55	7640.05
990.1569	2636.1914	8506.1	7614.6
990.2812	2637.4593	8478.65	7586
990.4055	2638.7265	8431.2	7538.55
990.5298	2639.9931	8417.45	7526.7
990.654	2641.259	8384.2	7492.8
990.7782	2642.5242	8355.15	7464.95
990.9023	2643.7887	8345.9	7454.75
991.0264	2645.0525	8309.8	7418.5
991.1505	2646.3156	8275.6	7383.7
991.2745	2647.5781	8245.4	7353.9
991.3985	2648.8398	8218.45	7327.1
991.5225	2650.1009	8176.45	7275.25
991.6464	2651.3613	8185.75	7295.15
991.7703	2652.6211	8151.65	7260.7
991.8942	2653.8801	8109.65	7219.75
992.018	2655.1385	8113.35	7218.7
992.1418	2656.3961	8082.8	7190.9
992.2655	2657.6531	8069.1	7177.05
992.3892	2658.9094	8033.1	7142
992.5129	2660.1651	8005.1	7116.2
992.6366	2661.42	7974.95	7084.55
992.7602	2662.6743	7978.95	7085.45
992.8837	2663.9279	7962	7071
993.0073	2665.1808	7934.4	7041.75
993.1307	2666.433	7888.2	6995.9
993.2542	2667.6846	7872.05	6979.95
993.3776	2668.9354	7860.7	6967.2
993.501	2670.1856	7831.55	6939.55
993.6244	2671.4351	7819.75	6928.95
993.7477	2672.6839	7801.4	6909.8
993.8709	2673.9321	7773.7	6882
993.9942	2675.1795	7752.25	6860.8
994.1174	2676.4263	7719.2	6828.8
994.2405	2677.6724	7680.1	6790.5
994.3637	2678.9179	7666.35	6774.9
994.4868	2680.1626	7684.8	6793.7
994.6098	2681.4067	7651.35	6759.35
994.7328	2682.6501	7618.9	6727.35
994.8558	2683.8928	7588.3	6697.6
994.9788	2685.1348	7554.55	6664.35
995.1017	2686.3761	7525.7	6634.95
995.2245	2687.6168	7487	6593.9
995.3474	2688.8568	7476.75	6585.05
995.4702	2690.0961	7452.25	6564.2
995.5929	2691.3348	7437.6	6549.25
995.7156	2692.5727	7415.3	6526.2
995.8383	2693.81	7374.7	6482.2
995.961	2695.0466	7364.15	6475.55
996.0836	2696.2826	7336.65	6444.3
996.2062	2697.5178	7315.95	6422.7
996.3287	2698.7524	7291.6	6399.9
996.4512	2699.9863	7279.8	6385.85
996.5737	2701.2195	7258.8	6370
996.6961	2702.452	7235.3	6344.3
996.8185	2703.6839	7214.2	6321.1
996.9408	2704.9151	7181.15	6291.3
997.0631	2706.1456	7164.55	6273.05
997.1854	2707.3755	7140.95	6249.8
997.3077	2708.6046	7133.65	6239.95
997.4299	2709.8331	7106.25	6214.75
997.552	2711.0609	7080.15	6189.6
997.6742	2712.2881	7088.1	6199.35
997.7963	2713.5145	7042	6151
997.9183	2714.7403	7036.85	6147.4
998.0403	2715.9654	7021.25	6128.5
998.1623	2717.1899	7013.2	6106.45
998.2842	2718.4136	6993.2	6102.7
998.4062	2719.6367	6995.6	6105.65
998.528	2720.8591	6979.6	6083.05
998.6498	2722.0809	6936.25	6045.35
998.7716	2723.3019	6940.5	6046.2
998.8934	2724.5223	6896.45	6002.95
999.0151	2725.7421	6896.45	6004.6
999.1368	2726.9611	6874.45	5980.85
999.2584	2728.1795	6856.9	5959.5
999.38	2729.3972	6821.4	5933.25
999.5016	2730.6142	6799.6	5895.7
999.6231	2731.8306	6747.7	5855.6
999.7446	2733.0462	6700.45	5809.95
999.8661	2734.2612	6666.2	5767.8
999.9875	2735.4756	6667.85	5774.75
1000.1089	2736.6892	6587.35	5696.05
1000.2302	2737.9022	6568.05	5678.8
1000.3515	2739.1145	6534	5641.3
1000.4728	2740.3262	6495.25	5596.8
1000.594	2741.5372	6449.65	5558.2
1000.7152	2742.7475	6430.7	5539.6
1000.8363	2743.9571	6403.6	5511.15
1000.9575	2745.1661	6372.4	5476.65
1001.0785	2746.3744	6355.9	5463.65
1001.1996	2747.582	6324.75	5435.85
1001.3206	2748.7889	6303.85	5413.05
1001.4415	2749.9952	6275.85	5383.25
1001.5625	2751.2008	6240.1	5347.95
1001.6833	2752.4057	6230.5	5336
1001.8042	2753.61	6211.05	5320.65
1001.925	2754.8136	6206.15	5313.45
1002.0458	2756.0165	6165.55	5273.3
1002.1665	2757.2188	6146.6	5255.95
1002.2872	2758.4204	6140.1	5247.55
1002.4078	2759.6213	6079.35	5185.85
1002.5285	2760.8215	6092.8	5197.85
1002.649	2762.0211	6071.35	5178.7
1002.7696	2763.22	6044.5	5150.4
1002.8901	2764.4182	6029.4	5136.7
1003.0106	2765.6158	6019.95	5128.9
1003.131	2766.8127	5972.85	5082.7
1003.2514	2768.009	5958.15	5066.95
1003.3717	2769.2045	5951.85	5059.45
1003.492	2770.3994	5927.1	5035.15
1003.6123	2771.5936	5918.35	5027.5
1003.7325	2772.7872	5872.25	4983.45
1003.8527	2773.9801	5865	4972.75
1003.9729	2775.1723	5834.7	4925.5
1004.093	2776.3639	5799.75	4908.25
1004.2131	2777.5548	5783.8	4891
1004.3331	2778.745	5773.65	4882.1
1004.4531	2779.9346	5770.2	4879.1
1004.5731	2781.1235	5751.5	4859.05
1004.693	2782.3117	5751.6	4862.2
1004.8129	2783.4992	5726.65	4834.35
1004.9328	2784.6861	5697.35	4808.55
1005.0526	2785.8723	5691.35	4799.1
1005.1723	2787.0579	5681.75	4790.6
1005.2921	2788.2428	5692.95	4803.35
1005.4118	2789.427	5665.05	4775.5
1005.5314	2790.6106	5638.8	4747
1005.651	2791.7935	5629.55	4738.3
1005.7706	2792.9757	5621.5	4731.95
1005.8902	2794.1573	5599	4705.55
1006.0097	2795.3382	5606.6	4715
1006.1291	2796.5184	5589.75	4700
1006.2485	2797.698	5589.75	4697
1006.3679	2798.8769	5598.2	4708.65
1006.4873	2800.0551	5594.65	4703.65
1006.6066	2801.2327	5595.45	4703.3
1006.7258	2802.4096	5595.45	4704.45
1006.8451	2803.5859	5577.65	4684.85
1006.9642	2804.7615	5583.55	4690.05
1007.0834	2805.9364	5575.95	4686.8
1007.2025	2807.1106	5608.95	4717.7
1007.3216	2808.2842	5628.35	4738
1007.4406	2809.4572	5601.25	4709.65
1007.5596	2810.6294	5650.45	4760.05
1007.6785	2811.801	5687.9	4798.8
1007.7975	2812.972	5697.75	4809.3
1007.9163	2814.1423	5713.75	4822.9
1008.0352	2815.3119	5753	4861.4
1008.154	2816.4808	5781.4	4892.3
1008.2727	2817.6491	5805.5	4916
1008.3914	2818.8167	5855.15	4964.4
1008.5101	2819.9837	5886.7	4994.05
1008.6288	2821.15	5901.35	5010.9
1008.7474	2822.3157	5946.2	5056.85
1008.8659	2823.4807	5988.65	5097.95
1008.9844	2824.645	5999.4	5106.95
1009.1029	2825.8086	6031.3	5141.5
1009.2214	2826.9716	6047.85	5158.35
1009.3398	2828.134	6086.1	5196.5
1009.4581	2829.2957	6137.55	5248.2
1009.5764	2830.4567	6164.45	5273.95
1009.6947	2831.617	6139.15	5248.35
1009.813	2832.7767	6132.35	5243.6
1009.9312	2833.9358	6133.05	5243.1
1010.0493	2835.0941	6116.55	5225.5
1010.1675	2836.2519	6077.45	5187.45
1010.2855	2837.4089	6047.1	5156.85
1010.4036	2838.5653	6048.4	5158.05
1010.5216	2839.7211	6035.75	5147.3
1010.6396	2840.8761	6045.4	5152.8
1010.7575	2842.0306	6048.6	5158.15
1010.8754	2843.1843	6064.1	5172.8
1010.9932	2844.3374	6113.8	5221.4
1011.111	2845.4899	6155.4	5265
1011.2288	2846.6417	6224.45	5334.35
1011.3465	2847.7928	6269.35	5378.35
1011.4642	2848.9433	6351.3	5462.5
1011.5818	2850.0931	6411.9	5524.35
1011.6995	2851.2422	6474.15	5582.95
1011.817	2852.3907	6550.4	5659.65
1011.9345	2853.5385	6596.15	5701.8
1012.052	2854.6857	6644.3	5726.7
1012.1695	2855.8323	6659.95	5770.6
1012.2869	2856.9781	6687.65	5798.4
1012.4042	2858.1233	6738.45	5849.35
1012.5216	2859.2679	6776.55	5886.05
1012.6389	2860.4118	6794.25	5904.85
1012.7561	2861.555	6808.9	5914.25
1012.8733	2862.6976	6840.45	5947.2
1012.9905	2863.8395	6832.6	5942.8
1013.1076	2864.9808	6847.75	5956.25
1013.2247	2866.1214	6841.2	5950.25
1013.3417	2867.2614	6843	5953.05
1013.4587	2868.4007	6849.2	5958.35
1013.5757	2869.5393	6828.9	5934.85
1013.6926	2870.6773	6847.25	5954.55
1013.8095	2871.8146	6835.35	5941.65
1013.9263	2872.9513	6838.95	5945
1014.0431	2874.0874	6800.9	5911
1014.1599	2875.2227	6768.2	5879.05
1014.2766	2876.3574	6752.95	5863.85
1014.3933	2877.4915	6709	5819.7
1014.51	2878.6249	6684.85	5794.45
1014.6266	2879.7577	6647.35	5756.95
1014.7431	2880.8898	6602.85	5702.85
1014.8596	2882.0212	6586.75	5695.95
1014.9761	2883.152	6560.2	5669.3
1015.0925	2884.2821	6520.15	5631.35
1015.2089	2885.4116	6495.55	5608.75
1015.3253	2886.5405	6479.85	5589.9
1015.4416	2887.6686	6477.45	5584.3
1015.5579	2888.7962	6472.7	5583.85
1015.6741	2889.923	6465.15	5575.75
1015.7903	2891.0493	6462.05	5572.55
1015.9065	2892.1748	6439.95	5548.85
1016.0226	2893.2997	6442.25	5550.65
1016.1387	2894.424	6457.9	5567.85
1016.2547	2895.5476	6467.15	5577.7
1016.3707	2896.6706	6475.6	5587.55
1016.4866	2897.7929	6487.9	5598.35
1016.6025	2898.9145	6488.05	5598.25
1016.7184	2900.0355	6503.75	5613.3
1016.8342	2901.1559	6529.8	5639.7
1016.95	2902.2756	6547.25	5656.25
1017.0658	2903.3946	6565.6	5675.95
1017.1815	2904.513	6591.95	5699.15
1017.2971	2905.6308	6581.15	5690.25
1017.4127	2906.7479	6586.3	5694.65
1017.5283	2907.8643	6589.4	5699.65
1017.6439	2908.9801	6610	5718.3
1017.7594	2910.0953	6589.75	5698.95
1017.8748	2911.2098	6597.8	5705.45
1017.9902	2912.3236	6561.2	5664.9
1018.1056	2913.4368	6549.6	5654.95
1018.2209	2914.5494	6509.15	5618.7
1018.3362	2915.6613	6481.65	5587.15
1018.4515	2916.7725	6439.3	5546.4
1018.5667	2917.8831	6398.5	5508.85
1018.6819	2918.9931	6362.25	5470.05
1018.797	2920.1024	6320	5429.05
1018.9121	2921.211	6289.1	5399.2
1019.0271	2922.319	6252.05	5364.05
1019.1421	2923.4264	6214.05	5324.15
1019.2571	2924.5331	6213	5324.5
1019.372	2925.6391	6195.95	5308
1019.4869	2926.7445	6181.05	5293.8
1019.6017	2927.8493	6140.45	5250.2
1019.7165	2928.9534	6128.15	5238.6
1019.8313	2930.0569	6120.3	5226.45
1019.946	2931.1597	6102.15	5211.3
1020.0606	2932.2619	6074.15	5184.95
1020.1753	2933.3634	6068.55	5179.85
1020.2899	2934.4643	6052.05	5155.2
1020.4044	2935.5645	6011.55	5114.5
1020.5189	2936.6641	5981.35	5087.65
1020.6334	2937.763	5912.7	5024.1
1020.7478	2938.8613	5861.25	4971
1020.8622	2939.959	5811.5	4917.6
1020.9765	2941.056	5709.25	4820.5
1021.0908	2942.1523	5609.45	4721
1021.2051	2943.248	5532.75	4642.45
1021.3193	2944.3431	5411.7	4522.75
1021.4334	2945.4375	5305.35	4414.15
1021.5476	2946.5313	5203	4314.95
1021.6617	2947.6244	5092.7	4201.3
1021.7757	2948.7169	4983.3	4095.4
1021.8897	2949.8087	4878.1	3987.5
1022.0037	2950.8999	4766.05	3874.85
1022.1176	2951.9904	4678.7	3789.6
1022.2315	2953.0803	4611.65	3721.35
1022.3453	2954.1696	4510	3620.85
1022.4591	2955.2582	4453.75	3564.35
1022.5728	2956.3462	4402.95	3513.95
1022.6865	2957.4335	4349.85	3459.25
1022.8002	2958.5202	4313.15	3421.25
1022.9138	2959.6062	4278.45	3389.8
1023.0274	2960.6916	4230.9	3341.75
1023.141	2961.7764	4213.4	3323.55
1023.2545	2962.8605	4173.05	3282.95
1023.3679	2963.9439	4174	3284.15
1023.4813	2965.0267	4130.9	3239.8
1023.5947	2966.1089	4140.05	3227.6
1023.708	2967.1905	4123.05	3232.7
1023.8213	2968.2714	4091.6	3204.25
1023.9346	2969.3516	4075.45	3187.2
1024.0478	2970.4312	4080.35	3182.2
1024.1609	2971.5102	4058.85	3169.65
1024.274	2972.5885	4053.15	3164
1024.3871	2973.6662	4053.4	3157.5
1024.5002	2974.7432	4037.4	3148.3
1024.6132	2975.8196	4004.6	3116.65
1024.7261	2976.8954	3983.7	3094.2
1024.839	2977.9705	3970.5	3081.75
1024.9519	2979.045	3942.05	3053.95
1025.0647	2980.1188	3918.2	3027.4
1025.1775	2981.192	3895.4	3005.45
1025.2902	2982.2645	3866.75	2976.3
1025.4029	2983.3364	3826.05	2937.25
1025.5156	2984.4077	3789.85	2900.45
1025.6282	2985.4783	3764	2867.85
1025.7407	2986.5483	3727.95	2838.05
1025.8532	2987.6177	3678.45	2790.25
1025.9657	2988.6864	3638.8	2750
1026.0782	2989.7545	3594.95	2705.4
1026.1906	2990.8219	3564.45	2675.4
1026.3029	2991.8887	3511.15	2617.75
1026.4152	2992.9548	3485.05	2593.6
1026.5275	2994.0204	3458.75	2570.25
1026.6397	2995.0852	3421	2532.85
1026.7519	2996.1495	3387.25	2497.95
1026.864	2997.2131	3343.25	2454.75
1026.9761	2998.276	3317.6	2428.9
1027.0882	2999.3383	3288.95	2398
1027.2002	3000.4	3262.05	2372.25
1027.3122	3001.4611	3250.5	2359.55
1027.4241	3002.5215	3216.1	2325.65
1027.536	3003.5812	3213.25	2322.9
1027.6478	3004.6404	3186.95	2295.6
1027.7596	3005.6989	3173.35	2282.7
1027.8714	3006.7567	3156.4	2266.45
1027.9831	3007.8139	3151.35	2242
1028.0947	3008.8705	3119.4	2230.35
1028.2064	3009.9264	3116.5	2225.65
1028.3179	3010.9818	3092.95	2205.25
1028.4295	3012.0364	3099.2	2209.75
1028.541	3013.0905	3070.9	2182.35
1028.6524	3014.1439	3074.55	2185.15
1028.7638	3015.1966	3063.2	2173.5
1028.8752	3016.2487	3055.9	2166
1028.9865	3017.3002	3051.4	2158.1
1029.0978	3018.3511	3035.8	2147.7
1029.209	3019.4013	3026.5	2138.25
1029.3202	3020.4509	3030.2	2141.3
1029.4314	3021.4998	3022.05	2132.75
1029.5425	3022.5481	3010.4	2121.15
1029.6535	3023.5958	3004.6	2115.4
1029.7645	3024.6428	3005.45	2115.7
1029.8755	3025.6892	2990	2100.15
1029.9864	3026.735	2986.05	2097.65
1030.0973	3027.7802	2977.25	2086.85
1030.2082	3028.8247	2960.7	2070.2
1030.319	3029.8685	2961.5	2072.5
1030.4297	3030.9118	2957.05	2067.85
1030.5404	3031.9544	2952.6	2063.85
1030.6511	3032.9963	2949.65	2059.8
1030.7617	3034.0376	2954.5	2064.75
1030.8723	3035.0783	2948.1	2056.3
1030.9829	3036.1184	2946.7	2054.05
1031.0934	3037.1578	2944.25	2054.7
1031.2038	3038.1966	2937.6	2046.85
1031.3142	3039.2348	2929.2	2041.7
1031.4246	3040.2723	2934.95	2037.5
1031.5349	3041.3092	2915.65	2026.9
1031.6452	3042.3455	2907.85	2017.5
1031.7554	3043.3811	2890.25	2001.6
1031.8656	3044.4161	2890.75	2000.75
1031.9758	3045.4505	2869.3	1981.65
1032.0859	3046.4842	2860.8	1969.3
1032.1959	3047.5173	2856.55	1969.1
1032.3059	3048.5498	2839.85	1950.65
1032.4159	3049.5816	2818.5	1926.8
1032.5258	3050.6128	2825.8	1934.85
1032.6357	3051.6434	2804.05	1912
1032.7455	3052.6734	2786.2	1895.5
1032.8553	3053.7027	2779.45	1889.15
1032.9651	3054.7314	2765.75	1876.85
1033.0748	3055.7594	2755.8	1868.1
1033.1845	3056.7868	2732.75	1843.6
1033.2941	3057.8136	2726.75	1839.35
1033.4037	3058.8398	2722.75	1833.9
1033.5132	3059.8653	2705.55	1814.85
1033.6227	3060.8902	2677.2	1786.95
1033.7321	3061.9145	2683.5	1793.65
1033.8415	3062.9381	2671.95	1781.6
1033.9509	3063.9612	2684.05	1779.65
1034.0602	3064.9835	2656.9	1767.4
1034.1694	3066.0053	2630.9	1740.75
1034.2787	3067.0264	2621.5	1733.5
1034.3878	3068.0469	2620.65	1730.3
1034.497	3069.0668	2613.1	1720.85
1034.6061	3070.086	2592	1704.65
1034.7151	3071.1046	2589.15	1700.5
1034.8241	3072.1226	2563.15	1670.95
1034.9331	3073.1399	2545.15	1655.45
1035.042	3074.1567	2538.8	1648.75
1035.1508	3075.1727	2508	1616.3
1035.2597	3076.1882	2512.45	1623.55
1035.3684	3077.203	2499.15	1609.7
1035.4772	3078.2173	2482.55	1593.65
1035.5859	3079.2308	2467.85	1577.95
1035.6945	3080.2438	2456.85	1565.35
1035.8031	3081.2561	2433.05	1543.6
1035.9117	3082.2678	2422.55	1535.4
1036.0202	3083.2789	2417.05	1527.7
1036.1286	3084.2893	2405.95	1518.95
1036.2371	3085.2991	2391.8	1501.45
1036.3454	3086.3083	2379.75	1486.35
1036.4538	3087.3169	2365.35	1473.65
1036.562	3088.3248	2366.35	1474.65
1036.6703	3089.3321	2347.25	1457.75
1036.7785	3090.3388	2339.7	1451.45
1036.8866	3091.3449	2332.45	1445.35
1036.9948	3092.3503	2324.3	1432.35
1037.1028	3093.3551	2323.85	1434.8
1037.2108	3094.3593	2312.2	1424.25
1037.3188	3095.3629	2295.9	1406.6
1037.4267	3096.3658	2291.35	1402.65
1037.5346	3097.3681	2269.85	1381.35
1037.6425	3098.3698	2265.55	1374.95
1037.7503	3099.3708	2263.35	1368.65
1037.858	3100.3713	2249.15	1359.75
1037.9657	3101.3711	2239.9	1351.9
1038.0734	3102.3702	2360.45	1332.6
1038.181	3103.3688	2241.6	1351.3
1038.2886	3104.3667	2216.7	1328.55
1038.3961	3105.364	2205.5	1316.1
1038.5036	3106.3607	2203.4	1312.7
1038.611	3107.3568	2193.65	1302.65
1038.7184	3108.3522	2183.85	1295.8
1038.8257	3109.347	2178.65	1288.05
1038.933	3110.3412	2172.6	1278.05
1039.0403	3111.3348	2153.3	1264
1039.1475	3112.3277	2143.45	1254.6
1039.2547	3113.32	2147.3	1258.95
1039.3618	3114.3117	2148	1257.45
1039.4689	3115.3028	2143.65	1254.55
1039.5759	3116.2932	2132.65	1240.55
1039.6829	3117.2831	2129.25	1234
1039.7898	3118.2723	2117.25	1226.6
1039.8967	3119.2608	2105.1	1215.6
1040.0035	3120.2488	2102.95	1214.7
1040.1103	3121.2361	2083.35	1194.45
1040.2171	3122.2229	2085.65	1197.5
1040.3238	3123.209	2079.4	1187.25
1040.4305	3124.1944	2064.9	1178.35
1040.5371	3125.1793	2071.4	1181
1040.6437	3126.1635	2067.55	1179.55
1040.7502	3127.1471	2052.55	1164.05
1040.8567	3128.1301	2049.35	1160.6
1040.9631	3129.1125	2042.7	1153.05
1041.0695	3130.0942	2041.7	1154.85
1041.1759	3131.0753	2041.8	1143.9
1041.2822	3132.0558	2024.6	1133.7
1041.3884	3133.0357	2024.7	1134.8
1041.4946	3134.015	2012.55	1123.45
1041.6008	3134.9936	2011.75	1121.75
1041.7069	3135.9716	2015.15	1107.15
1041.813	3136.949	1995.8	1106.45
1041.919	3137.9258	1999.25	1103.2
1042.025	3138.902	1989.9	1097.15
1042.1309	3139.8775	1979.3	1087.8
1042.2368	3140.8524	1980.3	1090.95
1042.3427	3141.8267	1973.9	1082.85
1042.4485	3142.8004	1964.5	1075.55
1042.5542	3143.7735	1972.4	1076.4
1042.6599	3144.7459	1964.2	1074.25
1042.7656	3145.7178	1948.55	1058.95
1042.8712	3146.689	1948.95	1061.05
1042.9768	3147.6596	1944.75	1054.95
1043.0823	3148.6295	1930.3	1040.45
1043.1878	3149.5989	1931.55	1044.15
1043.2932	3150.5676	1919.15	1033.55
1043.3986	3151.5357	1926.8	1038.9
1043.5039	3152.5032	1914.05	1025.25
1043.6092	3153.4701	1911.1	1023.4
1043.7145	3154.4364	1897.25	1004.2
1043.8197	3155.402	1898.4	1011.2
1043.9248	3156.367	1894.15	1002.85
1044.03	3157.3315	1921.8	990.75
1044.135	3158.2952	1881.1	992.25
1044.24	3159.2584	1870.65	982.2
1044.345	3160.221	1867.65	979.1
1044.4499	3161.1829	1855.95	967.5
1044.5548	3162.1442	1856.8	970
1044.6596	3163.105	1847.8	958.65
1044.7644	3164.065	1849.2	959.85
1044.8692	3165.0245	1842.4	949.45
1044.9739	3165.9834	1835.05	947.55
1045.0785	3166.9416	1832.3	943.9
1045.1831	3167.8993	1823.5	935.15
1045.2877	3168.8563	1806.4	915.7
1045.3922	3169.8127	1804.95	916.9
1045.4966	3170.7684	1803.7	915.7
1045.6011	3171.7236	1801.3	911.4
1045.7054	3172.6782	1797.9	909.6
1045.8098	3173.6321	1795.4	905.7
1045.914	3174.5854	1794.75	900.65
1046.0183	3175.5381	1788.2	900.65
1046.1224	3176.4902	1777	889.4
1046.2266	3177.4417	1768.75	882.35
1046.3307	3178.3926	1766.65	881.05
1046.4347	3179.3428	1760.4	873.1
1046.5387	3180.2924	1756.3	866.4
1046.6427	3181.2415	1761.15	871.3
1046.7466	3182.1899	1748.7	858.55
1046.8504	3183.1377	1736.25	847.25
1046.9542	3184.0848	1737.75	846.25
1047.058	3185.0314	1732.6	841.8
1047.1617	3185.9773	1724.4	835.15
1047.2654	3186.9227	1727.75	838.65
1047.369	3187.8674	1729.7	841.5
1047.4726	3188.8115	1715.6	823.05
1047.5761	3189.755	1707.05	818.2
1047.6796	3190.6979	1707.65	820.75
1047.783	3191.6402	1704.8	818.75
1047.8864	3192.5818	1693.15	803.95
1047.9898	3193.5229	1712.75	801.85
1048.0931	3194.4633	1695.55	807.1
1048.1963	3195.4031	1689.95	800.1
1048.2995	3196.3423	1683.6	797.05
1048.4027	3197.2809	1673.35	785.75
1048.5058	3198.2189	1679.9	790.1
1048.6089	3199.1563	1674.65	778.75
1048.7119	3200.0931	1663.5	776.7
1048.8148	3201.0292	1660.65	773.2
1048.9178	3201.9648	1653.9	767.6
1049.0206	3202.8997	1657.9	765.95
1049.1235	3203.834	1651.1	762.15
1049.2262	3204.7677	1654.15	765.4
1049.329	3205.7008	1639.85	750.55
1049.4317	3206.6333	1629.65	743.35
1049.5343	3207.5652	1623.85	734.15
1049.6369	3208.4964	1637.5	750.25
1049.7394	3209.4271	1627.9	739.8
1049.8419	3210.3571	1617.2	727.9
1049.9444	3211.2865	1623.7	734.2
1050.0468	3212.2154	1615.6	724.45
1050.1491	3213.1436	1614	723.85
1050.2514	3214.0712	1612	718.15
1050.3537	3214.9982	1610.8	722.7
1050.4559	3215.9246	1608.45	720.05
1050.5581	3216.8503	1602.95	713.8
1050.6602	3217.7755	1594.45	706.1
1050.7623	3218.7001	1587.2	699.15
1050.8643	3219.624	1586.15	695.7
1050.9663	3220.5473	1583.2	692.9
1051.0682	3221.4701	1582.6	693.8
1051.1701	3222.3922	1570.8	680.95
1051.2719	3223.3137	1578.1	690.9
1051.3737	3224.2346	1568.25	679.6
1051.4754	3225.1549	1564.3	677.5
1051.5771	3226.0746	1561.45	673.7
1051.6788	3226.9937	1554.1	664.9
1051.7804	3227.9121	1552.2	662.65
1051.8819	3228.83	1552.65	663.2
1051.9834	3229.7473	1550.7	661.7
1052.0849	3230.6639	1541.8	654.5
1052.1863	3231.5799	1538.6	650.25
1052.2876	3232.4954	1535.65	646.35
1052.3889	3233.4102	1528.3	639.05
1052.4902	3234.3244	1525.85	635.45
1052.5914	3235.238	1530.3	643.3
1052.6926	3236.151	1541.75	628.55
1052.7937	3237.0634	1516.25	628.35
1052.8948	3237.9752	1514.95	627.45
1052.9958	3238.8864	1513.75	625.75
1053.0968	3239.797	1508.75	620.75
1053.1977	3240.7069	1502.8	615.25
1053.2986	3241.6163	1491.25	602.75
1053.3994	3242.5251	1494.15	604.75
1053.5002	3243.4332	1491.4	603.55
1053.6009	3244.3408	1485.4	595.85
1053.7016	3245.2477	1482.05	596
1053.8022	3246.154	1482.8	594.4
1053.9028	3247.0598	1476.8	586.85
1054.0034	3247.9649	1475.55	586.35
1054.1039	3248.8694	1469.65	581.85
1054.2043	3249.7733	1472.4	583.6
1054.3047	3250.6766	1453.2	564.45
1054.4051	3251.5793	1462.2	571.7
1054.5054	3252.4814	1457.55	567.75
1054.6056	3253.3829	1450.2	562.1
1054.7058	3254.2838	1448.35	559.05
1054.806	3255.1841	1439.15	551.7
1054.9061	3256.0838	1454.35	567.1
1055.0061	3256.9829	1437.3	551.6
1055.1062	3257.8814	1430.1	541.45
1055.2061	3258.7792	1424.6	533.3
1055.306	3259.6765	1424.05	533.6
1055.4059	3260.5731	1418	530.05
1055.5057	3261.4692	1403.85	515.4
1055.6055	3262.3647	1402.3	512.65
1055.7052	3263.2595	1393.7	505.3
1055.8049	3264.1538	1388.1	498.8
1055.9045	3265.0474	1383	494.45
1056.0041	3265.9404	1370.7	482.1
1056.1036	3266.8329	1368.3	479.6
1056.2031	3267.7247	1364.3	466.4
1056.3025	3268.616	1343.5	456.95
1056.4019	3269.5066	1342.5	455.35
1056.5013	3270.3966	1322.95	433.35
1056.6005	3271.286	1308.95	422.15
