Software Version:	3.9.2.0
Unit SN:	10000200
Spectrometer SN:	6960
Date:	3/6/2024 10:00:44 AM
Data Line Index:	25
Spectral Points:	2048
Integration time (ms):	125
Averages:	20
Delay (ms):	30
Sequence Number:	1
Processing:	dark subtract
Laser Power (mW):	305
Laser Current (mA):	826
Laser Diode Temp (C):	25.1
Laser Case Temp (C):	24.6
System Temp (C):	24.4
Spectrometer Temp (C):	22
CCD Temp (C):	-0.006
Secondary Temp (C):	20.008
Heatsink Temp (C):	18.318
CCDPCB Temp (C):	30.827
SecondaryPCB Temp (C):	26.203

Wavelength	RamanShift	Raw Counts	Dark Subtracted
787.061	30.1047	634.15	224.75
787.2016	32.3739	640.8	233.6
787.3422	34.6426	658.7	251.45
787.4828	36.9109	675.75	266.45
787.6235	39.1787	691.95	277.5
787.7642	41.4461	713.5	296.7
787.9049	43.7131	737.15	316.3
788.0456	45.9796	755.6	330.9
788.1863	48.2456	782.55	355.75
788.3271	50.5112	799.8	367.55
788.4679	52.7764	831.75	396.7
788.6087	55.0411	857.85	418.7
788.7496	57.3054	883.65	439.8
788.8904	59.5692	917.2	471.7
789.0313	61.8326	944.15	494.4
789.1722	64.0955	986.1	535.45
789.3132	66.3579	1032.25	574.5
789.4541	68.6199	1084.3	626.2
789.5951	70.8815	1182.4	718.35
789.7361	73.1426	1386.75	918.05
789.8771	75.4032	1908.15	1435.75
790.0181	77.6634	3227.1	2751.6
790.1592	79.9231	6499.85	6019.7
790.3003	82.1824	14497.95	14008.05
790.4414	84.4412	30033.3	29523.85
790.5825	86.6995	45202.7	44673.6
790.7237	88.9574	53204	52658.45
790.8648	91.2148	57973.35	57417.75
791.006	93.4717	59352.2	58786.9
791.1472	95.7282	59996.45	59426.7
791.2885	97.9842	60322.4	59750.05
791.4297	100.2398	60355.7	59783.45
791.571	102.4949	60329	59747.8
791.7123	104.7495	60371.2	59788.75
791.8536	107.0036	60160.3	59580.5
791.9949	109.2573	60512.15	59932.15
792.1363	111.5105	60263.35	59682.9
792.2777	113.7632	60381.15	59793.55
792.4191	116.0154	60531	59932
792.5605	118.2672	60776.75	60185.15
792.7019	120.5185	60781.3	60186.95
792.8434	122.7693	60801.85	60206
792.9849	125.0197	60499.25	59895.9
793.1264	127.2696	61145.65	60541.2
793.2679	129.519	61043.8	60433.9
793.4094	131.7679	61300.05	60686.55
793.551	134.0163	60654.15	60038.25
793.6926	136.2642	60921.75	60304.65
793.8342	138.5117	61361.05	60740.95
793.9758	140.7587	61221.7	60602.35
794.1175	143.0052	61197.4	60572.25
794.2591	145.2512	60873.55	60250.1
794.4008	147.4967	61311.3	60686.9
794.5425	149.7417	61208.45	60578.5
794.6842	151.9863	61199.55	60567.55
794.826	154.2304	60968	60330.35
794.9677	156.4739	61163.05	60519.6
795.1095	158.717	61433.15	60791.8
795.2513	160.9596	61265.9	60619.1
795.3931	163.2017	60934.3	60286.15
795.535	165.4433	61315.9	60667.8
795.6768	167.6844	61112.75	60459.95
795.8187	169.925	61298.85	60642.85
795.9606	172.1651	61128.7	60471.95
796.1025	174.4047	61261.7	60603.05
796.2445	176.6439	61245.95	60580.3
796.3864	178.8825	61171.25	60505.65
796.5284	181.1206	61444.85	60772.75
796.6704	183.3582	61410.7	60735.6
796.8124	185.5954	61257.8	60583.15
796.9544	187.832	61311.05	60633.75
797.0965	190.0681	61100.1	60417.15
797.2386	192.3037	61489.2	60802.95
797.3806	194.5388	61832.8	61140.35
797.5228	196.7734	60974.55	60285.45
797.6649	199.0075	61768.65	61076.65
797.807	201.2411	61496.85	60801.7
797.9492	203.4742	61892.7	61198.2
798.0914	205.7068	61828.8	61126.95
798.2336	207.9389	61829.45	61128.6
798.3758	210.1704	61806.1	61112.15
798.518	212.4015	62074.5	61386.35
798.6603	214.632	61707.15	61023.05
798.8025	216.862	62075.95	61397.75
798.9448	219.0915	61916.3	61236.55
799.0871	221.3205	61863.15	61176.9
799.2294	223.549	62184.1	61504.95
799.3718	225.777	62159.4	61480.5
799.5141	228.0044	62248.05	61558.45
799.6565	230.2314	62157.15	61471.6
799.7989	232.4578	62134.55	61445.05
799.9413	234.6837	62207.05	61507.6
800.0837	236.909	62648.15	61946.2
800.2262	239.1339	62024.3	61295.6
800.3687	241.3582	62299.4	61587.9
800.5111	243.582	62322.7	61580
800.6536	245.8053	62323.95	61595
800.7961	248.0281	62339.35	61613.45
800.9387	250.2503	62434.75	61706.25
801.0812	252.472	62257.5	61531.05
801.2238	254.6932	62385.9	61656
801.3664	256.9139	62301.25	61571.5
801.509	259.134	62700.4	61965.85
801.6516	261.3536	62235.8	61503.6
801.7942	263.5727	62514.75	61780.8
801.9369	265.7912	62365.45	61627.05
802.0795	268.0092	62414.35	61679.5
802.2222	270.2267	62467.1	61731.8
802.3649	272.4436	62315.7	61574.85
802.5076	274.6601	62504.8	61758
802.6504	276.8759	62579.25	61836.3
802.7931	279.0913	62479.75	61734.65
802.9359	281.3061	62508.4	61764
803.0787	283.5204	62529.3	61779.8
803.2215	285.7341	62490	61739.7
803.3643	287.9473	62699.65	61937.4
803.5071	290.16	62529.3	61774.65
803.6499	292.3721	62650.55	61902.65
803.7928	294.5837	62472.65	61719.7
803.9357	296.7947	62353.15	61601.2
804.0786	299.0052	62643.1	61890.25
804.2215	301.2152	62503.55	61746.7
804.3644	303.4246	62681.55	61928.7
804.5074	305.6334	62687.85	61934
804.6503	307.8418	62438.2	61682.95
804.7933	310.0495	62486.55	61729.35
804.9363	312.2568	62451.55	61695.85
805.0793	314.4635	62468.35	61707.75
805.2223	316.6696	62566.65	61801.6
805.3653	318.8752	62676.3	61903.6
805.5084	321.0802	62227	61460.85
805.6514	323.2847	62408.7	61641.35
805.7945	325.4887	62414.2	61647.8
805.9376	327.692	62326.25	61557.25
806.0807	329.8949	62429.25	61659.65
806.2238	332.0972	62336.7	61561.55
806.367	334.2989	62423.3	61650.45
806.5101	336.5001	62561.7	61785.6
806.6533	338.7007	62219.9	61440.95
806.7965	340.9008	62406	61629.7
806.9397	343.1003	62444	61663.05
807.0829	345.2992	62546.9	61765.35
807.2261	347.4976	62369.7	61586.9
807.3693	349.6955	62434.65	61648.6
807.5126	351.8927	62351.75	61566.95
807.6559	354.0895	62469.8	61670.75
807.7991	356.2856	62444.8	61657.35
807.9424	358.4812	62565.65	61776.95
808.0857	360.6763	62369.35	61577.95
808.2291	362.8707	62536.65	61742.7
808.3724	365.0646	62421.7	61626.45
808.5158	367.258	62428.8	61637.35
808.6591	369.4508	62304.9	61504.3
808.8025	371.643	62506.55	61706.3
808.9459	373.8346	62394.4	61594.6
809.0893	376.0257	62383.25	61576.2
809.2327	378.2162	62348.65	61545.95
809.3762	380.4062	62184.8	61381.05
809.5196	382.5956	62331.45	61527
809.6631	384.7844	62346.35	61548.75
809.8066	386.9726	62412.3	61612
809.9501	389.1603	62415.8	61620
810.0936	391.3474	62230.95	61400.85
810.2371	393.5339	62405.75	61609.7
810.3806	395.7199	62162	61364.8
810.5241	397.9052	62194.85	61398
810.6677	400.09	62247.35	61449.95
810.8113	402.2743	62367.2	61570.4
810.9548	404.4579	62226.55	61428.95
811.0984	406.641	62204.5	61402.6
811.2421	408.8235	62300.4	61498.45
811.3857	411.0054	62288.2	61483.05
811.5293	413.1868	62316.95	61505.55
811.673	415.3675	62281.1	61469.65
811.8166	417.5477	62291.9	61478.9
811.9603	419.7273	62272.3	61456
812.104	421.9064	62212.65	61392.15
812.2477	424.0848	62236.65	61423.7
812.3914	426.2627	62367.25	61551.25
812.5351	428.4399	62154.05	61338.25
812.6788	430.6166	61987.9	61168.7
812.8226	432.7928	62197.95	61374.65
812.9663	434.9683	61999.95	61176.9
813.1101	437.1432	62009.35	61186
813.2539	439.3176	62131.35	61308.5
813.3977	441.4914	61880.15	61064.15
813.5415	443.6645	61929	61109.8
813.6853	445.8371	61920.8	61100.4
813.8291	448.0091	61832.65	61008.9
813.973	450.1806	61745.9	60926.15
814.1168	452.3514	61756.25	60931.6
814.2607	454.5216	61646.75	60813.65
814.4046	456.6913	61767.95	60940.9
814.5485	458.8603	61801	60979.45
814.6924	461.0288	61592.35	60768.5
814.8363	463.1967	61773.25	60949.95
814.9802	465.3639	61761.95	60937
815.1241	467.5306	61391.2	60564.9
815.2681	469.6967	61607.2	60779.8
815.412	471.8622	61689.2	60867.4
815.556	474.0271	61611.1	60786.2
815.7	476.1914	61624.9	60795.9
815.844	478.3551	61625.65	60798.45
815.988	480.5182	61783.3	60954.4
816.132	482.6807	61540.65	60715.3
816.276	484.8426	61574.6	60752.45
816.4201	487.0039	61807.4	60980.85
816.5641	489.1647	61770.7	60939.65
816.7082	491.3248	61535.75	60701.9
816.8522	493.4843	61841.8	61010.6
816.9963	495.6432	61826.7	60998.4
817.1404	497.8015	61515.3	60679.05
817.2845	499.9592	61679.9	60843.15
817.4286	502.1163	61669.85	60830.7
817.5727	504.2728	61654.9	60818.8
817.7168	506.4287	61645.1	60811.45
817.861	508.5839	61475.65	60643.8
818.0051	510.7386	61583.35	60751.2
818.1493	512.8927	61633.65	60794.45
818.2935	515.0461	61581.4	60743.1
818.4377	517.199	61701.85	60861.15
818.5818	519.3512	61561.15	60719.05
818.726	521.5029	61535.45	60690.9
818.8703	523.6539	61580.1	60741
819.0145	525.8043	61325.3	60483.25
819.1587	527.9541	61569.75	60725.7
819.303	530.1033	61536.65	60697.2
819.4472	532.2519	61408.15	60566.3
819.5915	534.3999	61570	60724.1
819.7357	536.5472	61624.4	60778.75
819.88	538.694	61311.2	60470.95
820.0243	540.8401	61525.3	60682.35
820.1686	542.9856	61519.65	60671.6
820.3129	545.1305	61605.85	60752.65
820.4572	547.2748	61429.9	60580.65
820.6016	549.4185	61419.75	60566.05
820.7459	551.5615	61569.2	60715.6
820.8902	553.704	61528.4	60675.05
821.0346	555.8458	61377.25	60528.25
821.1789	557.987	61437.35	60589.2
821.3233	560.1276	61447.95	60595.85
821.4677	562.2675	61416.7	60563.5
821.6121	564.4069	61423.95	60567.85
821.7565	566.5456	61556.85	60706.55
821.9009	568.6837	61312	60456.6
822.0453	570.8212	61397.8	60547.65
822.1897	572.958	61067.6	60212.4
822.3342	575.0942	61328.05	60478.6
822.4786	577.2299	61145.5	60296.55
822.6231	579.3648	61071.65	60226
822.7675	581.4992	60941.65	60099.6
822.912	583.6329	60940.8	60096.65
823.0565	585.766	60937.85	60092.4
823.201	587.8985	61003.1	60154.45
823.3454	590.0304	60653.8	59791.55
823.4899	592.1616	60868.35	60009.15
823.6345	594.2922	60751.6	59894.1
823.779	596.4222	60539.6	59681.9
823.9235	598.5515	60602.9	59744.55
824.068	600.6802	60724.35	59865.3
824.2126	602.8083	60431.4	59571.9
824.3571	604.9358	60489.75	59630.65
824.5017	607.0626	60656.45	59794.25
824.6462	609.1888	60259.15	59396.6
824.7908	611.3144	60502.15	59637.1
824.9354	613.4393	60334.3	59469.8
825.08	615.5636	60170.6	59305.15
825.2246	617.6873	60335.3	59474.75
825.3692	619.8103	60100.05	59239.7
825.5138	621.9327	60321.95	59457.2
825.6584	624.0544	60337.25	59477.05
825.803	626.1756	60199.6	59337.25
825.9477	628.2961	60206.5	59341.1
826.0923	630.4159	60108.4	59247.8
826.237	632.5351	60013.5	59148.5
826.3816	634.6537	60427.6	59560.8
826.5263	636.7716	59971.25	59103.65
826.6709	638.8889	60078.65	59208.95
826.8156	641.0056	60077.9	59205.45
826.9603	643.1216	60144.95	59274.5
827.105	645.237	60210.6	59339.2
827.2497	647.3518	59915.45	59048.85
827.3944	649.4659	60014.1	59149.95
827.5391	651.5793	60025.15	59160.1
827.6838	653.6922	60054.85	59188.6
827.8285	655.8043	59766.35	58902.35
827.9733	657.9159	60117.4	59250.2
828.118	660.0268	59403.8	58533.4
828.2627	662.137	59838.5	58966.35
828.4075	664.2466	59858.7	58984.85
828.5522	666.3556	59711.6	58840.45
828.697	668.4639	59780	58905.15
828.8418	670.5716	59587.25	58720.75
828.9865	672.6786	59785.95	58915
829.1313	674.785	59491.9	58615.9
829.2761	676.8907	59486.6	58617.65
829.4209	678.9958	59598.05	58727.45
829.5657	681.1002	59633.2	58761.45
829.7105	683.204	59383.75	58507.4
829.8553	685.3072	59281.8	58405.15
830.0001	687.4097	59330.3	58458.05
830.1449	689.5115	59273.4	58396.45
830.2898	691.6127	59487.65	58612.2
830.4346	693.7132	59262.5	58388.45
830.5794	695.8131	59310.6	58413.25
830.7243	697.9123	59336.65	58459.35
830.8691	700.0109	59326.95	58448.7
831.014	702.1089	59037.8	58161.55
831.1588	704.2061	59112.9	58236.7
831.3037	706.3028	59121.95	58243.3
831.4486	708.3987	59159.95	58282.55
831.5935	710.4941	59034.55	58154.15
831.7383	712.5887	59154.35	58278
831.8832	714.6827	59029.15	58148.35
832.0281	716.7761	59150.8	58276.95
832.173	718.8688	59158.8	58275.75
832.3179	720.9608	59000.85	58117.05
832.4628	723.0522	59048.65	58163.35
832.6077	725.1429	58855.45	57973
832.7527	727.233	59278.3	58397.5
832.8976	729.3224	58671.95	57790.25
833.0425	731.4112	58823.05	57941.4
833.1874	733.4993	58781.15	57896
833.3324	735.5867	58785	57900.7
833.4773	737.6735	58634.45	57752.15
833.6222	739.7596	58497.05	57610.4
833.7672	741.845	58459.15	57576.15
833.9122	743.9298	58648.55	57761.85
834.0571	746.014	58436.95	57555.4
834.2021	748.0974	58284.1	57401.35
834.347	750.1802	58491.25	57605.95
834.492	752.2624	58096.4	57209.05
834.637	754.3439	58125.65	57239.25
834.782	756.4247	58156.05	57260.15
834.9269	758.5048	57941.9	57054.95
835.0719	760.5843	58014.4	57130.9
835.2169	762.6631	58030.6	57141.55
835.3619	764.7413	57916.15	57030.85
835.5069	766.8188	57936.55	57050.55
835.6519	768.8956	57937.65	57047.2
835.7969	770.9718	57946.2	57057.55
835.9419	773.0473	57823.1	56936.75
836.0869	775.1221	57636.75	56751.65
836.232	777.1962	57588.55	56700.1
836.377	779.2697	57356.75	56469.3
836.522	781.3426	57444.5	56539.4
836.667	783.4147	57435.05	56546.1
836.8121	785.4862	57383.75	56495.5
836.9571	787.557	57185.25	56295.85
837.1021	789.6271	57370.5	56481.45
837.2472	791.6966	57208.15	56317.15
837.3922	793.7654	56926.85	56038.85
837.5373	795.8335	56970.9	56081.35
837.6823	797.901	56995.65	56108
837.8274	799.9678	56844.25	55952.25
837.9724	802.0339	56786	55896.8
838.1175	804.0993	56792.65	55893.25
838.2626	806.1641	56680.7	55788.95
838.4076	808.2282	56534.2	55642.35
838.5527	810.2916	56547.85	55654.75
838.6978	812.3544	56666.75	55778.2
838.8428	814.4164	56367.55	55478.7
838.9879	816.4778	56460.15	55569.8
839.133	818.5385	56399.1	55505.9
839.2781	820.5986	56368.9	55476.25
839.4232	822.658	56347.4	55452.8
839.5682	824.7166	56349.55	55458
839.7133	826.7747	56202.1	55313
839.8584	828.832	56237.6	55345.5
840.0035	830.8886	56291.35	55396.55
840.1486	832.9446	56247.95	55351.75
840.2937	834.9999	55915.95	55024.25
840.4388	837.0545	56031.95	55134.8
840.5839	839.1085	56077.85	55185.35
840.729	841.1618	56006	55110.3
840.8741	843.2143	55707.05	54814.8
841.0192	845.2662	55652.8	54757.2
841.1643	847.3175	55755.6	54861.55
841.3095	849.368	55461.55	54567.85
841.4546	851.4179	55639.65	54744.5
841.5997	853.467	55431.5	54538.05
841.7448	855.5155	55447.95	54552.65
841.8899	857.5633	55303.75	54410.8
842.0351	859.6105	55177.8	54282.9
842.1802	861.6569	55210.55	54316.2
842.3253	863.7027	55049.3	54154.35
842.4704	865.7478	55120.9	54225.5
842.6156	867.7922	55090.5	54191.25
842.7607	869.8359	55070.5	54171.9
842.9058	871.8789	54879.95	53983.7
843.0509	873.9212	55016.4	54089.95
843.1961	875.9629	54865.9	53971.4
843.3412	878.0039	54852.7	53956.9
843.4863	880.0441	54801.25	53904.5
843.6315	882.0837	54816.8	53919.8
843.7766	884.1226	54762.2	53865.4
843.9218	886.1609	54736.65	53842
844.0669	888.1984	54673.05	53777.75
844.212	890.2352	54823.25	53925.6
844.3572	892.2714	54590.85	53688.5
844.5023	894.3069	54687.1	53788.1
844.6475	896.3416	54519.3	53621.15
844.7926	898.3757	54489.85	53589.75
844.9377	900.4091	54318.4	53419.8
845.0829	902.4418	54404.3	53503.45
845.228	904.4739	54264.65	53361.4
845.3732	906.5052	54281.45	53382.25
845.5183	908.5358	54149.7	53251.75
845.6635	910.5658	54115.75	53211.1
845.8086	912.595	54055.95	53157.3
845.9538	914.6236	53863.8	52962.6
846.0989	916.6515	54038.4	53138.25
846.2441	918.6786	53757.05	52856.6
846.3892	920.7051	53789.05	52886.85
846.5344	922.7309	53773.85	52871.9
846.6795	924.756	53690.65	52789.3
846.8246	926.7804	53652.95	52751.25
846.9698	928.8041	53395.95	52494.3
847.1149	930.8272	53435.7	52536
847.2601	932.8495	53349.3	52447.25
847.4052	934.8711	53285.4	52384.35
847.5504	936.892	53179.15	52277.85
847.6955	938.9123	53132.05	52230.65
847.8407	940.9318	52986.85	52084.2
847.9858	942.9506	52918	52017.05
848.131	944.9688	52881.75	51982.05
848.2761	946.9862	52712.7	51813.3
848.4213	949.003	52685.35	51784.95
848.5664	951.019	52513	51608.65
848.7115	953.0344	52507.85	51608.9
848.8567	955.0491	52429.2	51526.95
849.0018	957.063	52446	51545
849.147	959.0763	52455.4	51554.25
849.2921	961.0888	52350.7	51449.45
849.4373	963.1007	52342.4	51442.3
849.5824	965.1119	52301.5	51404.3
849.7275	967.1223	52257.1	51362.8
849.8727	969.1321	52259.35	51365.35
850.0178	971.1412	52197.55	51300.5
850.1629	973.1495	52061.4	51161.75
850.3081	975.1572	52080.2	51140.05
850.4532	977.1641	52010	51107.75
850.5983	979.1704	51925.95	51021.45
850.7435	981.1759	51872.7	50969.3
850.8886	983.1808	51808.45	50901.9
851.0337	985.1849	51757.6	50845.05
851.1788	987.1884	51685.55	50783
851.324	989.1911	51674.95	50770.3
851.4691	991.1932	51584.45	50682.6
851.6142	993.1945	51483.95	50583.5
851.7593	995.1951	51383.55	50481.6
851.9045	997.1951	51317.8	50412.95
852.0496	999.1943	51226.4	50325.3
852.1947	1001.1928	51133	50229.8
852.3398	1003.1906	51023.3	50119.2
852.4849	1005.1877	50981.4	50080.45
852.63	1007.1841	50848.8	49943.65
852.7751	1009.1798	50775.55	49873.65
852.9202	1011.1748	50674.3	49772.65
853.0653	1013.1691	50599.75	49696.4
853.2104	1015.1627	50467.05	49566.25
853.3555	1017.1556	50360.95	49460.05
853.5006	1019.1477	50292.15	49389.5
853.6457	1021.1392	50140.85	49244.9
853.7908	1023.1299	50030.5	49131.85
853.9359	1025.12	49948.95	49052
854.081	1027.1093	49813.65	48923.7
854.2261	1029.0979	49768.65	48880.3
854.3712	1031.0859	49719.4	48827.8
854.5163	1033.0731	49599.85	48700.4
854.6613	1035.0596	49540.3	48640.95
854.8064	1037.0454	49381.7	48479.7
854.9515	1039.0304	49333.95	48429.7
855.0965	1041.0148	49100.6	48198.5
855.2416	1042.9985	49043.15	48140.6
855.3867	1044.9814	49135.95	48233.45
855.5317	1046.9636	48869.5	47968.45
855.6768	1048.9452	48851.35	47948.75
855.8219	1050.926	48786.7	47885.65
855.9669	1052.9061	48735.35	47833.15
856.112	1054.8855	48696.5	47793.15
856.257	1056.8642	48571.35	47667.85
856.4021	1058.8421	48514.05	47609.15
856.5471	1060.8194	48463.7	47560.6
856.6921	1062.7959	48325	47423.85
856.8372	1064.7717	48352.9	47449.05
856.9822	1066.7469	48323.9	47423.15
857.1272	1068.7213	48288.9	47383.45
857.2723	1070.695	48164.25	47264.95
857.4173	1072.6679	48013.15	47109.5
857.5623	1074.6402	48062.9	47159.9
857.7073	1076.6117	47972.5	47062.75
857.8523	1078.5826	47968.6	47064
857.9973	1080.5527	47854.55	46948.1
858.1423	1082.5221	47690.4	46784.2
858.2873	1084.4908	47731.2	46827.2
858.4323	1086.4587	47644.8	46740.7
858.5773	1088.426	47563.5	46657.4
858.7223	1090.3925	47505.2	46598.5
858.8673	1092.3584	47462.95	46561.95
859.0123	1094.3235	47258.8	46356.05
859.1573	1096.2879	47241.6	46338.15
859.3022	1098.2515	47262.65	46359.55
859.4472	1100.2145	47149.65	46246.85
859.5922	1102.1767	47082.9	46179.35
859.7371	1104.1382	47120.5	46216.5
859.8821	1106.099	47023.4	46119
860.027	1108.0591	46945	46041.85
860.172	1110.0185	46678.8	45773.65
860.3169	1111.9771	46900.4	45998.85
860.4619	1113.9351	46745	45841.35
860.6068	1115.8923	46547.55	45646.3
860.7517	1117.8488	46444.65	45540.25
860.8967	1119.8045	46272.5	45369.35
861.0416	1121.7596	46324.35	45419.1
861.1865	1123.7139	46138.3	45235.2
861.3314	1125.6675	46090.8	45188
861.4763	1127.6204	46079.1	45178.1
861.6212	1129.5726	45883.1	44979.85
861.7661	1131.524	46007.55	45104.85
861.911	1133.4748	45954.05	45051.05
862.0559	1135.4248	45718.15	44812.1
862.2008	1137.3741	45672.95	44770.85
862.3457	1139.3226	45571.35	44666.8
862.4905	1141.2705	45556.65	44654.4
862.6354	1143.2176	45470.25	44558.15
862.7803	1145.164	45222.5	44316.6
862.9251	1147.1097	45292.9	44392.4
863.07	1149.0546	45249.4	44342.85
863.2148	1150.9989	45225.1	44321.85
863.3597	1152.9424	45017.4	44112.65
863.5045	1154.8852	45185.95	44282.3
863.6493	1156.8272	44941.3	44037.7
863.7942	1158.7686	45139.75	44228.3
863.939	1160.7092	44783.4	43879.15
864.0838	1162.6491	44731.9	43824.4
864.2286	1164.5883	44751.8	43847.8
864.3734	1166.5267	44582.4	43675.3
864.5182	1168.4644	44701.6	43800.4
864.663	1170.4014	44597.3	43686.75
864.8078	1172.3377	44707.7	43805.15
864.9526	1174.2732	44752.05	43850.05
865.0974	1176.2081	44650.8	43749.35
865.2421	1178.1421	44580.15	43672.4
865.3869	1180.0755	44766.6	43865.05
865.5317	1182.0082	44636.4	43733.75
865.6764	1183.9401	44631.3	43730.9
865.8212	1185.8713	44393.3	43492.95
865.9659	1187.8017	44345.55	43444.65
866.1106	1189.7315	44291.35	43397.35
866.2554	1191.6605	44127.95	43233.95
866.4001	1193.5888	43907.8	43008.35
866.5448	1195.5163	43716.55	42817.3
866.6895	1197.4432	43688.9	42786.1
866.8342	1199.3693	43634.4	42733.1
866.9789	1201.2947	43509.2	42603.05
867.1236	1203.2193	43467.85	42562.6
867.2683	1205.1432	43246.85	42342.8
867.413	1207.0664	43193.4	42292.5
867.5576	1208.9889	43125.1	42219.25
867.7023	1210.9106	43053.75	42150.3
867.847	1212.8316	42878.55	41973.2
867.9916	1214.7519	42888.5	41978
868.1363	1216.6715	42724.9	41821.05
868.2809	1218.5903	42689.65	41788.45
868.4255	1220.5084	42595.95	41695.8
868.5701	1222.4257	42648.05	41744.2
868.7148	1224.3424	42496.95	41596.8
868.8594	1226.2583	42442.05	41539.25
869.004	1228.1735	42475.9	41573.35
869.1486	1230.0879	42273.05	41369.4
869.2932	1232.0016	42265.85	41361.05
869.4377	1233.9146	42148.55	41244.8
869.5823	1235.8269	42085.8	41180.3
869.7269	1237.7384	42082.25	41180.4
869.8715	1239.6492	41935.4	41033.95
870.016	1241.5592	41843.65	40938.8
870.1606	1243.4686	41808	40905.85
870.3051	1245.3772	41737.95	40834.95
870.4496	1247.285	41764.5	40861.45
870.5941	1249.1922	41573.35	40670.15
870.7387	1251.0986	41655.15	40753.75
870.8832	1253.0042	41438.85	40535.45
871.0277	1254.9092	41552.1	40650.85
871.1722	1256.8134	41287.6	40387
871.3167	1258.7169	41438	40537.25
871.4611	1260.6196	41239.25	40334.9
871.6056	1262.5216	41280.65	40377.7
871.7501	1264.4229	41323.6	40421.8
871.8945	1266.3234	41360.75	40460
872.039	1268.2232	41325.85	40421.7
872.1834	1270.1223	41168.5	40263.65
872.3278	1272.0207	41145.05	40243.6
872.4723	1273.9183	41086.9	40178.15
872.6167	1275.8151	41000.25	40097.9
872.7611	1277.7113	40959.95	40059.8
872.9055	1279.6067	40821.6	39919.95
873.0499	1281.5014	40820.85	39916.4
873.1943	1283.3953	40904.4	39997.95
873.3386	1285.2885	40893.85	39991.2
873.483	1287.181	40888.7	39989.6
873.6274	1289.0727	40956.95	40057.5
873.7717	1290.9637	40826.25	39923.05
873.9161	1292.854	41025.55	40121.5
874.0604	1294.7435	40869.15	39966
874.2047	1296.6323	40848	39946.6
874.349	1298.5204	40734.5	39827.15
874.4933	1300.4077	40768.85	39864.15
874.6376	1302.2943	40590.15	39687.45
874.7819	1304.1802	40501.95	39600.65
874.9262	1306.0653	40346.05	39443.25
875.0705	1307.9497	40234.45	39331.1
875.2147	1309.8333	40162.4	39261
875.359	1311.7162	40057.4	39154.3
875.5032	1313.5984	40051.8	39145.75
875.6475	1315.4798	39856.25	38953.8
875.7917	1317.3605	39791.6	38870.85
875.9359	1319.2405	39770.4	38865.65
876.0801	1321.1197	39590.65	38684.2
876.2243	1322.9982	39587.55	38679.8
876.3685	1324.876	39504.05	38602.15
876.5127	1326.753	39310.35	38408.15
876.6569	1328.6293	39438.75	38532.9
876.801	1330.5048	39306.2	38402.9
876.9452	1332.3796	39184.3	38280.8
877.0893	1334.2537	39135.3	38206.55
877.2335	1336.127	39044.1	38142.45
877.3776	1337.9996	38986.05	38080.9
877.5217	1339.8714	38962.05	38057.95
877.6658	1341.7426	38822.7	37876.3
877.8099	1343.6129	38850.4	37946.75
877.954	1345.4826	38833.9	37929.65
878.0981	1347.3515	38712.85	37808.5
878.2422	1349.2196	38669.25	37764.25
878.3862	1351.087	38673.25	37770
878.5303	1352.9537	38638.3	37734.9
878.6743	1354.8197	38695.45	37790.4
878.8184	1356.6849	38691.1	37787.5
878.9624	1358.5493	38600.1	37695.35
879.1064	1360.4131	38530.75	37626.75
879.2504	1362.276	38536.2	37635.6
879.3944	1364.1383	38408.05	37504.1
879.5384	1365.9998	38309.7	37400.75
879.6823	1367.8606	38189.35	37285.7
879.8263	1369.7206	38097.6	37192.45
879.9702	1371.5799	37967.5	37062.95
880.1142	1373.4384	37819.15	36917.2
880.2581	1375.2962	37764.3	36859.2
880.402	1377.1533	37505.4	36604.1
880.5459	1379.0096	37315.35	36413.9
880.6898	1380.8652	37165.7	36265.1
880.8337	1382.7201	37034.1	36133.15
880.9776	1384.5742	36926.4	36024.6
881.1215	1386.4275	36641.15	35737.5
881.2653	1388.2802	36612.3	35711.5
881.4092	1390.132	36570.85	35668.45
881.553	1391.9832	36398.25	35492.5
881.6968	1393.8336	36205.55	35301.55
881.8406	1395.6832	36165.65	35260.8
881.9844	1397.5322	36086.05	35184.55
882.1282	1399.3803	35952.7	35044.6
882.272	1401.2278	35848.4	34946.35
882.4158	1403.0745	35764.3	34863
882.5595	1404.9204	35640.85	34739
882.7033	1406.7656	35603.4	34701.55
882.847	1408.6101	35413.05	34511.3
882.9908	1410.4538	35400.2	34497.9
883.1345	1412.2968	35330.05	34428.6
883.2782	1414.139	35162.65	34262
883.4219	1415.9805	35170.05	34267.2
883.5656	1417.8213	35064.2	34154.35
883.7092	1419.6613	35035.1	34135.75
883.8529	1421.5006	34986.75	34085.65
883.9965	1423.3391	34928.55	34026.45
884.1402	1425.1769	34923.5	34021.4
884.2838	1427.0139	35014.2	34109.7
884.4274	1428.8502	35029.3	34127.55
884.571	1430.6858	35088.2	34185.05
884.7146	1432.5206	35116.2	34213.2
884.8582	1434.3547	35044.3	34142.95
885.0018	1436.188	35032.15	34129.65
885.1453	1438.0206	35026.15	34125.4
885.2889	1439.8524	34862.2	33958.65
885.4324	1441.6835	34768.15	33866.2
885.5759	1443.5139	34776.75	33874.6
885.7194	1445.3435	34655.75	33754.6
885.8629	1447.1724	34633.45	33734.25
886.0064	1449.0005	34504.1	33602.6
886.1499	1450.8279	34484.45	33583.2
886.2933	1452.6545	34423.9	33521.45
886.4368	1454.4804	34407.65	33508.4
886.5802	1456.3056	34305.45	33396.7
886.7237	1458.13	34300.35	33399.5
886.8671	1459.9536	34336.3	33435.25
887.0105	1461.7766	34147.2	33247.65
887.1539	1463.5987	33958.2	33057.15
887.2972	1465.4202	33857.55	32957.2
887.4406	1467.2409	33701.35	32799
887.584	1469.0608	33640.1	32738.7
887.7273	1470.88	33539.1	32639.45
887.8706	1472.6984	33463.6	32564.05
888.0139	1474.5161	33278.65	32377.35
888.1572	1476.3331	33252.2	32351.3
888.3005	1478.1493	33162	32260.65
888.4438	1479.9648	33107.35	32206.3
888.5871	1481.7795	33050.1	32148.3
888.7303	1483.5935	33030.7	32129.9
888.8736	1485.4067	32899.45	31997.4
889.0168	1487.2192	32908.9	32009.25
889.16	1489.031	32845.2	31944.15
889.3032	1490.842	32780.05	31882
889.4464	1492.6522	32724.6	31824.75
889.5896	1494.4618	32660.45	31760.85
889.7327	1496.2705	32630.55	31730.35
889.8759	1498.0785	32567.85	31667.3
890.019	1499.8858	32480.6	31580.95
890.1622	1501.6924	32464.7	31565.9
890.3053	1503.4981	32364.9	31464.6
890.4484	1505.3032	32319.15	31419.85
890.5914	1507.1075	32239.55	31341.6
890.7345	1508.911	32223.65	31323.7
890.8776	1510.7138	32125.1	31221.2
891.0206	1512.5159	32086.25	31185.45
891.1637	1514.3172	31940.3	31040.7
891.3067	1516.1178	31887.05	30990.15
891.4497	1517.9176	31898.95	30995.75
891.5927	1519.7166	31782.65	30883.5
891.7357	1521.515	31701.2	30795.35
891.8786	1523.3126	31628	30727.75
892.0216	1525.1094	31617.1	30716.15
892.1645	1526.9055	31533.8	30635.2
892.3074	1528.7008	31409.9	30513.5
892.4503	1530.4954	31279.3	30379.05
892.5932	1532.2893	31289.95	30393.5
892.7361	1534.0824	31151.95	30253.35
892.879	1535.8747	31085.7	30189.45
893.0218	1537.6663	31046.2	30147.45
893.1647	1539.4572	30911.2	30012.65
893.3075	1541.2473	30898.4	29999.3
893.4503	1543.0367	30792.35	29895.85
893.5931	1544.8253	30719	29818.1
893.7359	1546.6132	30681.25	29781.35
893.8787	1548.4003	30583.9	29677.35
894.0214	1550.1867	30570.6	29663.6
894.1642	1551.9723	30516.2	29615.7
894.3069	1553.7572	30510.4	29614.75
894.4496	1555.5414	30459.7	29564.8
894.5923	1557.3247	30403.2	29509.2
894.735	1559.1074	30351.1	29457.4
894.8777	1560.8893	30346.45	29453.3
895.0204	1562.6705	30262.15	29366.3
895.163	1564.4509	30272.3	29379.15
895.3056	1566.2305	30165.05	29271.8
895.4482	1568.0094	30212.05	29320.3
895.5908	1569.7876	30244.3	29349.7
895.7334	1571.565	30152.8	29259.6
895.876	1573.3417	30113.05	29216.7
896.0186	1575.1176	30043.6	29149.75
896.1611	1576.8928	30016.95	29125.9
896.3036	1578.6672	29907.65	29017.45
896.4461	1580.4409	29829.3	28939
896.5886	1582.2138	29710	28817
896.7311	1583.986	29640.35	28747.25
896.8736	1585.7575	29649.1	28755.95
897.0161	1587.5282	29601.15	28710.9
897.1585	1589.2981	29601.9	28712.05
897.3009	1591.0673	29484.9	28594.7
897.4433	1592.8358	29491.05	28601.75
897.5857	1594.6035	29493.9	28601
897.7281	1596.3704	29390.8	28496.8
897.8705	1598.1366	29376.7	28485.3
898.0128	1599.9021	29316.95	28426.4
898.1551	1601.6668	29206.8	28314.6
898.2975	1603.4308	29211.75	28319.65
898.4398	1605.194	29182.6	28288.4
898.5821	1606.9564	29145.85	28256.8
898.7243	1608.7182	29163.8	28273
898.8666	1610.4791	29182.45	28296.1
899.0088	1612.2394	29182.9	28297.85
899.1511	1613.9988	29154.55	28269.45
899.2933	1615.7576	29243.2	28355.15
899.4355	1617.5156	29243.6	28347.65
899.5776	1619.2728	29235.35	28339.65
899.7198	1621.0293	29152.2	28260.65
899.862	1622.785	29073.7	28180.95
900.0041	1624.54	28927.3	28037.65
900.1462	1626.2942	28822.65	27931.85
900.2883	1628.0477	28628.85	27737
900.4304	1629.8005	28477.6	27583.2
900.5725	1631.5525	28400.15	27510.25
900.7145	1633.3037	28261.3	27372.55
900.8566	1635.0542	28161.15	27274.4
900.9986	1636.804	28105.2	27217.2
901.1406	1638.553	28018.2	27085.05
901.2826	1640.3013	27915.35	27026.25
901.4245	1642.0488	27812.8	26924
901.5665	1643.7955	27818.1	26931.3
901.7085	1645.5416	27757.4	26869.3
901.8504	1647.2868	27707.2	26818.3
901.9923	1649.0313	27703.45	26813.2
902.1342	1650.7751	27707.95	26816.1
902.2761	1652.5181	27642.75	26755.75
902.4179	1654.2604	27578.55	26691.6
902.5598	1656.0019	27610.4	26721.1
902.7016	1657.7427	27578.95	26689.15
902.8434	1659.4828	27666.7	26779.4
902.9852	1661.222	27535.8	26643.65
903.127	1662.9606	27556.8	26668.8
903.2687	1664.6984	27390.2	26501.7
903.4105	1666.4354	27347.7	26455.65
903.5522	1668.1717	27016	26124.45
903.6939	1669.9072	26680.1	25789.15
903.8356	1671.642	26550.3	25659.6
903.9773	1673.3761	26410.8	25522.55
904.119	1675.1094	26258.7	25369.9
904.2606	1676.8419	26070.85	25182.1
904.4022	1678.5737	25980.75	25090.95
904.5439	1680.3048	25861.3	24973.9
904.6855	1682.0351	25712.65	24824.7
904.827	1683.7646	25567.85	24674.55
904.9686	1685.4934	25533.2	24642.9
905.1101	1687.2215	25269.1	24379.45
905.2517	1688.9488	25275.9	24388.55
905.3932	1690.6754	24965	24077.9
905.5347	1692.4012	25048.8	24159.4
905.6761	1694.1263	24985.8	24096.9
905.8176	1695.8506	24889.1	23999.15
905.9591	1697.5742	24835.9	23948.15
906.1005	1699.297	24737.55	23850.2
906.2419	1701.0191	24673.4	23787.6
906.3833	1702.7404	24496.6	23610
906.5246	1704.461	24369.05	23481.45
906.666	1706.1808	24330.55	23440
906.8073	1707.8999	24264.15	23377.95
906.9487	1709.6182	24113.2	23227.2
907.09	1711.3358	24108.95	23223.5
907.2313	1713.0527	24014.2	23130.85
907.3725	1714.7688	23973.5	23080.55
907.5138	1716.4841	23774.05	22884.95
907.655	1718.1987	23804.45	22914.3
907.7962	1719.9126	23718.1	22833.35
907.9374	1721.6257	23693.35	22807.75
908.0786	1723.338	23688.85	22801.4
908.2198	1725.0496	23466.95	22579.9
908.3609	1726.7605	23460.9	22570.8
908.502	1728.4706	23380.7	22495.65
908.6431	1730.18	23263	22376.4
908.7842	1731.8886	23214.15	22327.1
908.9253	1733.5964	23142.5	22251.35
909.0664	1735.3036	23173.75	22283
909.2074	1737.0099	23097.8	22212.25
909.3484	1738.7156	23015.55	22132.85
909.4894	1740.4204	22906.1	22016.65
909.6304	1742.1246	22873.95	21987.1
909.7714	1743.8279	22835.45	21948.4
909.9123	1745.5306	22800.6	21912.15
910.0532	1747.2325	22702.85	21817.15
910.1941	1748.9336	22635.15	21749.35
910.335	1750.634	22541.9	21655.05
910.4759	1752.3336	22525.6	21640.7
910.6168	1754.0325	22436.05	21553.75
910.7576	1755.7307	22427.95	21542
910.8984	1757.4281	22419.9	21533.8
911.0392	1759.1247	22412	21518.25
911.18	1760.8206	22320.7	21429
911.3208	1762.5158	22300.7	21410.2
911.4615	1764.2102	22208.3	21323.45
911.6022	1765.9039	22130.7	21243.9
911.7429	1767.5968	22090.05	21207.25
911.8836	1769.289	21997.35	21113.95
912.0243	1770.9804	21967.45	21079
912.1649	1772.6711	21919.65	21036.35
912.3056	1774.361	21841.4	20953.25
912.4462	1776.0502	21798.75	20911.4
912.5868	1777.7386	21775.95	20887.1
912.7274	1779.4263	21698.55	20814.25
912.8679	1781.1132	21672.75	20788.75
913.0084	1782.7994	21554.9	20667.45
913.149	1784.4849	21597.3	20715.5
913.2895	1786.1696	21499.75	20595.4
913.4299	1787.8535	21439.15	20556.7
913.5704	1789.5367	21419.1	20536.1
913.7108	1791.2192	21376.8	20492.7
913.8513	1792.9009	21305.7	20391.1
913.9917	1794.5818	21217.6	20331.95
914.132	1796.2621	21182.3	20297.85
914.2724	1797.9415	21198.85	20313.85
914.4128	1799.6202	21065.45	20181.2
914.5531	1801.2982	21013.5	20125.9
914.6934	1802.9755	20989.5	20102.5
914.8337	1804.6519	20973.1	20085.8
914.9739	1806.3277	20861.7	19979.6
915.1142	1808.0027	20804.35	19923.3
915.2544	1809.6769	20817.5	19933.6
915.3946	1811.3504	20757.2	19871.75
915.5348	1813.0231	20703.55	19819.7
915.675	1814.6951	20683	19799.15
915.8151	1816.3664	20652.05	19766.35
915.9553	1818.0369	20604	19719.25
916.0954	1819.7067	20507	19623
916.2355	1821.3757	20485.25	19597.15
916.3755	1823.044	20457.75	19572.85
916.5156	1824.7115	20410.3	19522.1
916.6556	1826.3783	20330.95	19446.1
916.7956	1828.0443	20270.5	19385.9
916.9356	1829.7096	20225.75	19337.5
917.0756	1831.3741	20215.25	19326.45
917.2155	1833.0379	20171.5	19286.25
917.3555	1834.701	20057.6	19172.5
917.4954	1836.3633	20082	19197
917.6353	1838.0248	20034.65	19151.25
917.7751	1839.6856	19981.15	19097.95
917.915	1841.3457	19952.95	19068.3
918.0548	1843.005	19894.95	19009.65
918.1946	1844.6636	19876.3	18993.95
918.3344	1846.3214	19808.25	18921.1
918.4742	1847.9785	19799.2	18915.7
918.6139	1849.6349	19737.8	18849.5
918.7537	1851.2904	19713.45	18816.95
918.8934	1852.9453	19652.85	18765.35
919.0331	1854.5994	19578.95	18691.15
919.1727	1856.2528	19569	18679.2
919.3124	1857.9054	19502.3	18615.95
919.452	1859.5572	19544.3	18658.55
919.5916	1861.2083	19461.45	18575.2
919.7312	1862.8587	19476.85	18593.15
919.8708	1864.5084	19381.3	18495.15
920.0103	1866.1572	19353.65	18469.5
920.1498	1867.8054	19284.85	18399.25
920.2893	1869.4528	19227.1	18340.6
920.4288	1871.0994	19198.95	18312.05
920.5683	1872.7453	19158.3	18271.2
920.7077	1874.3905	19121.35	18228.65
920.8471	1876.0349	19037.85	18150.5
920.9865	1877.6786	19052.65	18164
921.1259	1879.3215	19009.1	18122.55
921.2653	1880.9637	18979.7	18093.4
921.4046	1882.6051	18962.25	18078.5
921.5439	1884.2458	18921.9	18035.75
921.6832	1885.8858	18852.4	17967.55
921.8225	1887.525	18839.15	17953.1
921.9617	1889.1634	18700.85	17815.45
922.101	1890.8011	18647.25	17762.55
922.2402	1892.4381	18606.4	17719.55
922.3794	1894.0743	18608.05	17723.25
922.5185	1895.7098	18541.05	17654.85
922.6577	1897.3446	18484.7	17599.75
922.7968	1898.9786	18450.95	17561.95
922.9359	1900.6118	18442.65	17558.15
923.075	1902.2443	18333.6	17448.95
923.214	1903.8761	18318.55	17436.55
923.3531	1905.5071	18211.7	17327.15
923.4921	1907.1374	18172.9	17288.6
923.6311	1908.7669	18144.85	17261.1
923.77	1910.3957	18116.8	17232.65
923.909	1912.0237	17994.65	17111.2
924.0479	1913.651	17992.8	17107.7
924.1868	1915.2776	17938.05	17055.45
924.3257	1916.9034	17874.1	16990.55
924.4646	1918.5285	17761.2	16877.75
924.6034	1920.1528	17701.3	16816.3
924.7422	1921.7764	17698.85	16814.25
924.881	1923.3992	17643.75	16759.35
925.0198	1925.0213	17544.2	16659.2
925.1586	1926.6427	17448.5	16565.5
925.2973	1928.2633	17637.4	16509.6
925.436	1929.8832	17424.35	16534.7
925.5747	1931.5023	17323.2	16438.85
925.7134	1933.1207	17283.4	16398.25
925.852	1934.7383	17233.75	16348.75
925.9906	1936.3552	17172.45	16288.7
926.1292	1937.9714	17131.95	16247.3
926.2678	1939.5868	17068.25	16181.95
926.4064	1941.2015	16957.1	16074.4
926.5449	1942.8154	16910.1	16025.45
926.6834	1944.4286	16830.85	15947.15
926.8219	1946.041	16835.85	15926.5
926.9604	1947.6528	16711.8	15823.45
927.0988	1949.2637	16701.65	15818.95
927.2372	1950.8739	16603.4	15719.3
927.3756	1952.4834	16595.8	15711.2
927.514	1954.0921	16590.25	15705.1
927.6523	1955.7001	16535.45	15647.25
927.7907	1957.3074	16467	15584.75
927.929	1958.9139	16384.5	15501.6
928.0673	1960.5197	16362.65	15478.55
928.2055	1962.1247	16290.5	15407.45
928.3438	1963.729	16200.95	15319.05
928.482	1965.3325	16150.25	15243.95
928.6202	1966.9353	16114.45	15234.35
928.7584	1968.5374	16045.7	15162.1
928.8965	1970.1387	16024.15	15141.7
929.0346	1971.7393	15975.65	15091.8
929.1727	1973.3392	15909.8	15026.85
929.3108	1974.9383	15866.65	14984.5
929.4489	1976.5366	15764.65	14882.05
929.5869	1978.1342	15756	14871.05
929.7249	1979.7311	15727.55	14843.05
929.8629	1981.3273	15690.3	14808.4
930.0009	1982.9227	15644	14759.6
930.1388	1984.5173	15599.4	14718.05
930.2767	1986.1112	15485.75	14603.15
930.4146	1987.7044	15460.55	14581.1
930.5525	1989.2968	15409.95	14525
930.6904	1990.8885	15398.3	14512.8
930.8282	1992.4795	15373.85	14492.65
930.966	1994.0697	15318.8	14439.1
931.1038	1995.6592	15268.55	14388.1
931.2415	1997.2479	15258.85	14376.25
931.3793	1998.8359	15182.05	14300.25
931.517	2000.4232	15138.15	14256.95
931.6547	2002.0097	15085.55	14207.55
931.7923	2003.5955	15004.75	14123.8
931.93	2005.1805	14997.45	14116.05
932.0676	2006.7648	14975.9	14094.95
932.2052	2008.3484	14906.3	14022.45
932.3427	2009.9312	14893.7	14012.45
932.4803	2011.5133	14826.8	13949.6
932.6178	2013.0946	14812.35	13933.15
932.7553	2014.6752	14755.35	13876.1
932.8928	2016.2551	14748.5	13865.65
933.0302	2017.8342	14646.2	13766.05
933.1676	2019.4126	14610.05	13731.55
933.305	2020.9902	14558.5	13678.15
933.4424	2022.5672	14521.25	13639.3
933.5798	2024.1433	14521.15	13636.7
933.7171	2025.7188	14475.55	13595.75
933.8544	2027.2935	14425.9	13547.2
933.9917	2028.8674	14377.8	13499.85
934.129	2030.4406	14316.3	13436.1
934.2662	2032.0131	14251.7	13374.3
934.4034	2033.5849	14201.95	13317.8
934.5406	2035.1559	14185.3	13306.45
934.6778	2036.7261	14161.35	13282.9
934.8149	2038.2957	14132.35	13251.5
934.952	2039.8645	14117.6	13239.1
935.0891	2041.4325	14079.35	13195.75
935.2262	2042.9998	14010.65	13130.2
935.3632	2044.5664	13993.55	13111.8
935.5002	2046.1323	13949.35	13068.95
935.6372	2047.6974	13929.35	13049.55
935.7742	2049.2617	13886.05	13006.1
935.9111	2050.8254	13868.45	12980.8
936.048	2052.3883	13825.45	12945.4
936.1849	2053.9504	13800.1	12917.9
936.3218	2055.5118	13736.8	12857.25
936.4586	2057.0725	13678.8	12793.3
936.5955	2058.6325	13666.05	12785.6
936.7323	2060.1917	13606.15	12726.5
936.869	2061.7502	13570.8	12687.9
937.0058	2063.3079	13546.8	12668.65
937.1425	2064.8649	13483.15	12599.95
937.2792	2066.4212	13437.25	12556.55
937.4159	2067.9767	13440	12557.65
937.5525	2069.5315	13398.65	12518.4
937.6891	2071.0856	13318.3	12436.95
937.8257	2072.6389	13264.2	12383
937.9623	2074.1915	13221.55	12343.8
938.0989	2075.7433	13160.75	12279.55
938.2354	2077.2945	13140.95	12260.45
938.3719	2078.8448	13067.8	12186
938.5084	2080.3945	13046.25	12166.7
938.6448	2081.9434	13043.15	12161.65
938.7812	2083.4916	12995.2	12113.4
938.9176	2085.039	12932.3	12046.35
939.054	2086.5857	12907.2	12023.75
939.1903	2088.1317	12890.75	12007.25
939.3267	2089.677	12869.4	11986
939.463	2091.2215	12820.5	11936.6
939.5992	2092.7652	12796.35	11909.2
939.7355	2094.3083	12760.05	11876.65
939.8717	2095.8506	12746.7	11865.05
940.0079	2097.3921	12714.5	11831.7
940.1441	2098.933	12677.9	11798.75
940.2802	2100.4731	12675.45	11794.65
940.4163	2102.0124	12665.25	11766.1
940.5524	2103.5511	12607.35	11725.75
940.6885	2105.089	12580.95	11698.95
940.8245	2106.6261	12561.8	11680.6
940.9606	2108.1626	12528.05	11645.75
941.0965	2109.6983	12510.4	11600.55
941.2325	2111.2332	12474.05	11593.15
941.3684	2112.7675	12450.6	11567.55
941.5044	2114.301	12415.65	11534.6
941.6403	2115.8337	12382.85	11498.3
941.7761	2117.3657	12320	11439.05
941.912	2118.897	12333.45	11449.9
942.0478	2120.4276	12255.85	11366.6
942.1835	2121.9575	12194.25	11312.65
942.3193	2123.4866	12217.05	11320.95
942.455	2125.0149	12173.35	11287.35
942.5907	2126.5426	12112.4	11231.15
942.7264	2128.0695	12091	11208
942.8621	2129.5956	12067.9	11187.6
942.9977	2131.1211	12041.25	11155.5
943.1333	2132.6458	12027.45	11147.3
943.2689	2134.1698	11978.15	11097.75
943.4044	2135.693	11943	11055.95
943.54	2137.2155	11934.6	11048.75
943.6755	2138.7373	11900.75	11018.35
943.8109	2140.2584	11864.25	10982.35
943.9464	2141.7787	11829.1	10942.65
944.0818	2143.2983	11776.9	10899
944.2172	2144.8171	11720.9	10841.15
944.3526	2146.3353	11693.15	10809.7
944.4879	2147.8527	11637.5	10757.15
944.6232	2149.3693	11647.45	10767.5
944.7585	2150.8853	11624.4	10740.75
944.8938	2152.4005	11547.2	10663.9
945.029	2153.9149	11521.5	10638.25
945.1642	2155.4287	11490.3	10606.85
945.2994	2156.9417	11481.8	10597.7
945.4346	2158.454	11458.95	10574.4
945.5697	2159.9655	11428.65	10547
945.7048	2161.4764	11404.35	10523
945.8399	2162.9865	11338.15	10456.45
945.9749	2164.4958	11321.9	10440.35
946.1099	2166.0045	11266.05	10382.7
946.2449	2167.5124	11257.75	10378.2
946.3799	2169.0195	11240.2	10357.75
946.5148	2170.526	11232.8	10350.25
946.6498	2172.0317	11178.7	10296.3
946.7846	2173.5367	11158.1	10276.75
946.9195	2175.0409	11113.7	10231.75
947.0543	2176.5445	11130	10246.65
947.1891	2178.0473	11065.05	10180.45
947.3239	2179.5494	11028.8	10142
947.4587	2181.0507	11001.3	10120
947.5934	2182.5513	10969	10088.7
947.7281	2184.0512	10931.2	10047.7
947.8628	2185.5504	10883.5	10002.55
947.9974	2187.0488	10815.6	9934.6
948.132	2188.5465	10804.9	9924.85
948.2666	2190.0435	10796.55	9914.95
948.4012	2191.5397	10753.8	9871.55
948.5357	2193.0353	10738.25	9853.05
948.6702	2194.5301	10650.4	9766.95
948.8047	2196.0241	10623.6	9740.15
948.9392	2197.5175	10603.5	9719.1
949.0736	2199.0101	10570.7	9686.5
949.208	2200.502	10511.5	9628.35
949.3424	2201.9931	10505.6	9624.2
949.4767	2203.4835	10453.35	9571.05
949.611	2204.9733	10447.85	9561.7
949.7453	2206.4622	10410.15	9530.9
949.8796	2207.9505	10382.55	9498.75
950.0138	2209.438	10342.7	9461.1
950.148	2210.9248	10313.55	9432.4
950.2822	2212.4109	10269	9387.8
950.4164	2213.8962	10262.95	9376.75
950.5505	2215.3809	10230.2	9345.3
950.6846	2216.8648	10174.2	9289.95
950.8186	2218.3479	10175.45	9288.5
950.9527	2219.8304	10107.25	9219.8
951.0867	2221.3121	10091.75	9206.8
951.2207	2222.7931	10032.95	9147.4
951.3546	2224.2733	10018.4	9133.6
951.4886	2225.7529	9994.25	9111.5
951.6225	2227.2317	9956.3	9071.15
951.7563	2228.7098	9940.35	9060.6
951.8902	2230.1872	9868.7	8988.15
952.024	2231.6638	9890.95	9010.05
952.1578	2233.1397	9850.3	8964.05
952.2916	2234.6149	9830.4	8949.4
952.4253	2236.0894	9768.3	8886.05
952.559	2237.5632	9759.75	8865.25
952.6927	2239.0362	9724.95	8844.5
952.8263	2240.5085	9701.55	8821.7
952.9599	2241.9801	9632.8	8750.55
953.0935	2243.4509	9624.85	8741.45
953.2271	2244.921	9596.4	8713.9
953.3606	2246.3904	9543.55	8657.05
953.4941	2247.8591	9519.65	8636.05
953.6276	2249.3271	9514.7	8631.9
953.7611	2250.7943	9480.15	8595.7
953.8945	2252.2608	9424.8	8542.4
954.0279	2253.7266	9418.65	8536.4
954.1612	2255.1917	9400.65	8519.2
954.2946	2256.656	9346.5	8464.85
954.4279	2258.1197	9339.35	8457.8
954.5612	2259.5826	9330.8	8446.95
954.6944	2261.0447	9320.1	8436.35
954.8276	2262.5062	9253.55	8368.35
954.9608	2263.9669	9238.7	8353.95
955.094	2265.4269	9210	8327.7
955.2271	2266.8862	9210.7	8328.7
955.3602	2268.3448	9179.4	8296.95
955.4933	2269.8026	9160.65	8279.3
955.6264	2271.2598	9141.45	8260.3
955.7594	2272.7162	9092.9	8211.9
955.8924	2274.1719	9060	8176.75
956.0253	2275.6268	9061.55	8178.7
956.1583	2277.0811	9031.35	8147.65
956.2912	2278.5346	8996.8	8114.4
956.4241	2279.9874	8991.1	8110.4
956.5569	2281.4395	8996.55	8115.4
956.6897	2282.8908	8935.1	8049.15
956.8225	2284.3414	8915.8	8032.6
956.9553	2285.7914	8875.85	7994.4
957.088	2287.2406	8851.2	7966.4
957.2207	2288.689	8837.85	7952.9
957.3534	2290.1368	8809.1	7924.75
957.486	2291.5838	8770.85	7881.85
957.6186	2293.0302	8781.95	7894.65
957.7512	2294.4758	8733.2	7851.1
957.8838	2295.9206	8689.15	7803.55
958.0163	2297.3648	8668.95	7787.75
958.1488	2298.8082	8629.6	7745.9
958.2813	2300.251	8625.05	7741.7
958.4137	2301.693	8624.4	7738.05
958.5461	2303.1343	8597.05	7713
958.6785	2304.5748	8535.55	7652.95
958.8108	2306.0147	8525.1	7642.9
958.9432	2307.4538	8541.35	7657.05
959.0754	2308.8922	8488.05	7609.9
959.2077	2310.3299	8473.8	7591.35
959.3399	2311.7669	8435.7	7554.8
959.4721	2313.2031	8417.4	7535.25
959.6043	2314.6387	8386.4	7501.85
959.7365	2316.0735	8354.5	7472.9
959.8686	2317.5076	8347.3	7463.45
960.0006	2318.941	8327.7	7443.95
960.1327	2320.3737	8302.15	7416.65
960.2647	2321.8056	8291.4	7406.15
960.3967	2323.2369	8251.7	7368.2
960.5287	2324.6674	8250.95	7366.4
960.6606	2326.0972	8201.65	7317.35
960.7925	2327.5263	8167.4	7282.5
960.9244	2328.9547	8150.15	7267.35
961.0562	2330.3823	8115.5	7231.4
961.1881	2331.8092	8095.95	7208.7
961.3198	2333.2355	8080.4	7194.5
961.4516	2334.661	8073.9	7191.3
961.5833	2336.0858	8053.85	7167.85
961.715	2337.5098	8038.7	7156.3
961.8467	2338.9332	8006.5	7119.6
961.9783	2340.3558	7956.95	7071.05
962.1099	2341.7778	7974.2	7091.65
962.2415	2343.199	7915.8	7030.8
962.373	2344.6195	7901	7019.45
962.5045	2346.0393	7883.85	7000.55
962.636	2347.4583	7868	6985.8
962.7675	2348.8767	7845.6	6960.45
962.8989	2350.2943	7830	6943.3
963.0303	2351.7113	7820.15	6934.1
963.1617	2353.1275	7797.35	6912.15
963.293	2354.543	7763.1	6870.2
963.4243	2355.9578	7737.25	6854.5
963.5556	2357.3718	7682.9	6800.65
963.6868	2358.7852	7651.95	6768.7
963.818	2360.1978	7621.7	6737.45
963.9492	2361.6098	7601.75	6718.35
964.0803	2363.021	7592.35	6703.95
964.2114	2364.4315	7567.55	6685.3
964.3425	2365.8413	7563.65	6680.45
964.4736	2367.2504	7537.15	6656.15
964.6046	2368.6587	7485.7	6602.5
964.7356	2370.0664	7479.75	6594.85
964.8666	2371.4733	7461.95	6579.2
964.9975	2372.8795	7438	6555.05
965.1284	2374.285	7401.65	6516.05
965.2593	2375.6899	7371.95	6489.5
965.3901	2377.0939	7349.4	6467.15
965.5209	2378.4973	7316.7	6434.8
965.6517	2379.9	7283.15	6400.85
965.7825	2381.3019	7265.55	6382.85
965.9132	2382.7032	7251.55	6369.9
966.0439	2384.1037	7237.5	6356.4
966.1745	2385.5035	7197.65	6316.6
966.3051	2386.9027	7185.7	6304.45
966.4357	2388.3011	7175.95	6291.25
966.5663	2389.6987	7147.1	6265.45
966.6968	2391.0957	7121.8	6241
966.8273	2392.492	7104.8	6222.3
966.9578	2393.8876	7053.05	6170.5
967.0882	2395.2824	7020	6137.1
967.2186	2396.6765	6997.3	6115.5
967.349	2398.07	6960.85	6077.8
967.4793	2399.4627	6966.8	6083.2
967.6097	2400.8547	6952.95	6068.3
967.7399	2402.246	6915	6028.1
967.8702	2403.6366	6869.95	5986
968.0004	2405.0265	6857.75	5976.35
968.1306	2406.4156	6801.2	5912.8
968.2607	2407.8041	6806.2	5920.7
968.3909	2409.1918	6796.55	5911.3
968.521	2410.5789	6780.05	5897.5
968.651	2411.9652	6737.6	5849.55
968.781	2413.3508	6705.6	5823.45
968.911	2414.7358	6706	5821.9
969.041	2416.12	6688.45	5808.9
969.1709	2417.5035	6659.2	5777
969.3008	2418.8863	6650.9	5765.6
969.4307	2420.2684	6604.05	5719.65
969.5606	2421.6497	6592.7	5709.55
969.6904	2423.0304	6550.95	5668.15
969.8201	2424.4104	6535.2	5651.45
969.9499	2425.7896	6512.25	5629.25
970.0796	2427.1682	6513.3	5630.2
970.2093	2428.546	6478.85	5595.5
970.3389	2429.9232	6483.15	5600.75
970.4685	2431.2996	6481.1	5599.95
970.5981	2432.6753	6446.4	5562.8
970.7277	2434.0503	6414.6	5531.8
970.8572	2435.4246	6402.35	5518.3
970.9867	2436.7982	6383.55	5499.05
971.1161	2438.1711	6361.8	5478.25
971.2456	2439.5433	6346.4	5463.75
971.375	2440.9148	6311.8	5424.35
971.5043	2442.2856	6305.15	5423.55
971.6336	2443.6557	6284.45	5399.7
971.7629	2445.025	6258.25	5375.4
971.8922	2446.3937	6245.95	5359.95
972.0214	2447.7617	6213.95	5330
972.1506	2449.1289	6215.25	5330.95
972.2798	2450.4955	6196.55	5308.25
972.4089	2451.8613	6184.95	5301.15
972.538	2453.2265	6151.55	5270.05
972.6671	2454.5909	6154.9	5270.85
972.7961	2455.9546	6147.75	5266.6
972.9251	2457.3177	6121.35	5239.05
973.0541	2458.68	6108.1	5225.65
973.1831	2460.0416	6083.9	5198.5
973.312	2461.4025	6081.25	5196.85
973.4408	2462.7627	6070	5177.25
973.5697	2464.1222	6052.9	5170.45
973.6985	2465.4811	6031	5148.8
973.8273	2466.8392	5983.55	5099.2
973.956	2468.1966	5998.25	5113.6
974.0847	2469.5533	5992.75	5106.65
974.2134	2470.9093	5969.55	5088.5
974.3421	2472.2645	5926.7	5042.75
974.4707	2473.6191	5912.5	5029.45
974.5993	2474.973	5885.65	5002.85
974.7278	2476.3262	5881.85	4999.7
974.8563	2477.6787	5860.9	4979
974.9848	2479.0305	5820.05	4937.6
975.1132	2480.3816	5823.8	4940.5
975.2417	2481.7319	5818.7	4933.1
975.37	2483.0816	5782.15	4896.65
975.4984	2484.4306	5770.35	4888.55
975.6267	2485.7789	5747.3	4865.95
975.755	2487.1264	5725.1	4839.9
975.8833	2488.4733	5708.6	4825.75
976.0115	2489.8195	5684.65	4794
976.1397	2491.165	5660.85	4776.45
976.2678	2492.5097	5659.8	4776.2
976.3959	2493.8538	5634.75	4753.05
976.524	2495.1972	5619.9	4738.55
976.6521	2496.5398	5582.75	4697.75
976.7801	2497.8818	5557.5	4671.5
976.9081	2499.2231	5555.8	4674
977.036	2500.5637	5536.55	4650.65
977.164	2501.9035	5521.1	4638.5
977.2918	2503.2427	5520.5	4632.7
977.4197	2504.5812	5512.45	4629.8
977.5475	2505.919	5488.55	4605.4
977.6753	2507.256	5469.15	4586.8
977.8031	2508.5924	5449.75	4568.75
977.9308	2509.9281	5433.1	4541.85
978.0585	2511.2631	5418.8	4537.65
978.1861	2512.5974	5394.2	4512.3
978.3137	2513.9309	5394.8	4511
978.4413	2515.2638	5384.5	4471.8
978.5689	2516.596	5358.4	4474.75
978.6964	2517.9275	5319.65	4435.55
978.8239	2519.2583	5305.25	4421.45
978.9513	2520.5884	5294.9	4408.75
979.0788	2521.9178	5277.85	4396.45
979.2062	2523.2465	5260.6	4378.6
979.3335	2524.5745	5226.1	4343.75
979.4608	2525.9018	5213.2	4328.5
979.5881	2527.2284	5200.35	4317
979.7154	2528.5543	5196.95	4317.3
979.8426	2529.8796	5205.1	4323.15
979.9698	2531.2041	5178.1	4294.4
980.0969	2532.5279	5166.3	4281.8
980.224	2533.851	5161.15	4278.05
980.3511	2535.1735	5131.25	4248.8
980.4781	2536.4952	5129.5	4244.25
980.6052	2537.8163	5135.25	4249.15
980.7321	2539.1366	5109.5	4226.75
980.8591	2540.4562	5081	4197.3
980.986	2541.7752	5084.85	4202.6
981.1129	2543.0935	5078.5	4194
981.2397	2544.411	5066.75	4182.35
981.3665	2545.7279	5053.45	4171.55
981.4933	2547.0441	5047.2	4165.55
981.62	2548.3596	5056	4169.6
981.7467	2549.6744	5022.85	4139.1
981.8734	2550.9885	5012.05	4120.3
982.0001	2552.3019	4991.3	4110.35
982.1267	2553.6146	4970.05	4086.7
982.2532	2554.9266	4976.5	4091.7
982.3798	2556.2379	4950.15	4065
982.5063	2557.5485	4947.15	4065.6
982.6327	2558.8585	4942.25	4051.55
982.7592	2560.1677	4913.5	4026.75
982.8856	2561.4762	4909.8	4026.1
983.0119	2562.7841	4893	4008.15
983.1383	2564.0913	4906.65	4024.7
983.2646	2565.3977	4883.95	4001.25
983.3908	2566.7035	4866.8	3982.8
983.517	2568.0086	4869.4	3983.75
983.6432	2569.313	4853.7	3971.75
983.7694	2570.6167	4849.8	3965.75
983.8955	2571.9197	4846.55	3963.75
984.0216	2573.222	4835.35	3951
984.1476	2574.5236	4819.15	3935.5
984.2737	2575.8246	4826.2	3941.1
984.3996	2577.1248	4804.05	3918.6
984.5256	2578.4244	4781.1	3898.45
984.6515	2579.7232	4758.55	3875.9
984.7774	2581.0214	4790.75	3881.65
984.9032	2582.3189	4767.7	3885.35
985.029	2583.6157	4760.1	3871.65
985.1548	2584.9118	4729.5	3847.05
985.2806	2586.2072	4738.25	3856.05
985.4063	2587.5019	4713.15	3830.35
985.5319	2588.7959	4692.3	3808
985.6576	2590.0893	4701.45	3815.2
985.7832	2591.3819	4686.6	3802.95
985.9087	2592.6739	4658.5	3775.85
986.0343	2593.9652	4652.8	3769.05
986.1597	2595.2557	4645.8	3763.9
986.2852	2596.5456	4631.7	3745.3
986.4106	2597.8348	4603.85	3721.5
986.536	2599.1234	4580.8	3699.2
986.6614	2600.4112	4569.15	3684.55
986.7867	2601.6983	4555.1	3670
986.912	2602.9848	4535.4	3653.55
987.0372	2604.2705	4532.7	3645.35
987.1624	2605.5556	4517.1	3635.1
987.2876	2606.84	4493.85	3611.45
987.4128	2608.1237	4476.05	3591.6
987.5379	2609.4067	4475.35	3593.7
987.6629	2610.689	4471.95	3580.9
987.788	2611.9707	4457.8	3572.35
987.913	2613.2516	4440.7	3553.6
988.0379	2614.5319	4398.3	3516.4
988.1629	2615.8115	4402.5	3520.3
988.2878	2617.0903	4393.4	3508.5
988.4126	2618.3685	4377.1	3491.95
988.5375	2619.6461	4344.75	3462.75
988.6622	2620.9229	4334.5	3451.35
988.787	2622.199	4326.35	3443.65
988.9117	2623.4745	4319.7	3436.8
989.0364	2624.7493	4309.75	3425.4
989.161	2626.0234	4307.25	3427.05
989.2857	2627.2968	4286.7	3404.75
989.4102	2628.5695	4268.4	3384.5
989.5348	2629.8415	4247.85	3365.1
989.6593	2631.1128	4225.55	3342.6
989.7837	2632.3835	4227.8	3345.3
989.9082	2633.6535	4192.3	3309.35
990.0326	2634.9228	4188.55	3305.65
990.1569	2636.1914	4179.75	3297.85
990.2812	2637.4593	4168.35	3280.7
990.4055	2638.7265	4170.1	3287.6
990.5298	2639.9931	4141	3257.15
990.654	2641.259	4145.55	3261.6
990.7782	2642.5242	4118.3	3236.05
990.9023	2643.7887	4119.5	3238.2
991.0264	2645.0525	4103.55	3221.1
991.1505	2646.3156	4087.5	3204.8
991.2745	2647.5781	4080.75	3199.45
991.3985	2648.8398	4068.75	3189.05
991.5225	2650.1009	4082.3	3162.7
991.6464	2651.3613	4061.15	3180.6
991.7703	2652.6211	4043.6	3161.55
991.8942	2653.8801	4029.2	3145.8
992.018	2655.1385	4030.6	3145
992.1418	2656.3961	4018.9	3137.95
992.2655	2657.6531	4008.5	3125.2
992.3892	2658.9094	3996.35	3111.85
992.5129	2660.1651	3975	3094.1
992.6366	2661.42	3969.85	3087.15
992.7602	2662.6743	3971	3088.45
992.8837	2663.9279	3971.55	3089.85
993.0073	2665.1808	3931.9	3049.8
993.1307	2666.433	3938.4	3056.2
993.2542	2667.6846	3919.9	3038.05
993.3776	2668.9354	3922.85	3035.95
993.501	2670.1856	3905.15	3022.5
993.6244	2671.4351	3886.1	3004.25
993.7477	2672.6839	3891.05	3006.8
993.8709	2673.9321	3872.45	2990.35
993.9942	2675.1795	3861.65	2979.75
994.1174	2676.4263	3850.55	2969.15
994.2405	2677.6724	3844.95	2963.45
994.3637	2678.9179	3837.7	2953.15
994.4868	2680.1626	3813.2	2930.2
994.6098	2681.4067	3816.6	2933.2
994.7328	2682.6501	3805.85	2924.55
994.8558	2683.8928	3790.85	2908.25
994.9788	2685.1348	3764.55	2881.95
995.1017	2686.3761	3767.05	2886.95
995.2245	2687.6168	3754.8	2871.3
995.3474	2688.8568	3766.35	2885.25
995.4702	2690.0961	3750.8	2870.7
995.5929	2691.3348	3735.85	2853.15
995.7156	2692.5727	3726.7	2845.25
995.8383	2693.81	3700.45	2819.25
995.961	2695.0466	3701.1	2820.05
996.0836	2696.2826	3688.95	2806.9
996.2062	2697.5178	3704.6	2803.55
996.3287	2698.7524	3655.45	2774.5
996.4512	2699.9863	3666.45	2782.35
996.5737	2701.2195	3653.55	2773.55
996.6961	2702.452	3648.35	2762.85
996.8185	2703.6839	3628.1	2746.35
996.9408	2704.9151	3640.15	2759.3
997.0631	2706.1456	3604.45	2723
997.1854	2707.3755	3610.2	2727.75
997.3077	2708.6046	3601.5	2718.45
997.4299	2709.8331	3586.8	2705.1
997.552	2711.0609	3569.8	2688.55
997.6742	2712.2881	3562.6	2680.65
997.7963	2713.5145	3564.65	2678.8
997.9183	2714.7403	3570.55	2691.15
998.0403	2715.9654	3540.05	2658.5
998.1623	2717.1899	3551	2668.8
998.2842	2718.4136	3534.3	2651.35
998.4062	2719.6367	3532.55	2652.6
998.528	2720.8591	3521.85	2634.1
998.6498	2722.0809	3497	2616.5
998.7716	2723.3019	3495.65	2611.35
998.8934	2724.5223	3499	2617
999.0151	2725.7421	3480.65	2597.55
999.1368	2726.9611	3465.9	2582.25
999.2584	2728.1795	3466	2578
999.38	2729.3972	3440.55	2559.55
999.5016	2730.6142	3441.9	2545.85
999.6231	2731.8306	3406.7	2524.3
999.7446	2733.0462	3415.6	2531.8
999.8661	2734.2612	3411.1	2523.65
999.9875	2735.4756	3373.45	2489.45
1000.1089	2736.6892	3360.95	2481.55
1000.2302	2737.9022	3341.25	2458.5
1000.3515	2739.1145	3332.55	2449.8
1000.4728	2740.3262	3331.55	2441.45
1000.594	2741.5372	3306.25	2425.1
1000.7152	2742.7475	3286.8	2403.8
1000.8363	2743.9571	3293	2409.3
1000.9575	2745.1661	3300	2411.7
1001.0785	2746.3744	3265.85	2383.25
1001.1996	2747.582	3253.4	2372.35
1001.3206	2748.7889	3252.3	2368.1
1001.4415	2749.9952	3244.3	2363.1
1001.5625	2751.2008	3228.2	2346.1
1001.6833	2752.4057	3223.8	2339.3
1001.8042	2753.61	3207.3	2324.3
1001.925	2754.8136	3193.3	2310.2
1002.0458	2756.0165	3182.95	2300.75
1002.1665	2757.2188	3174.3	2292.85
1002.2872	2758.4204	3180.8	2298.3
1002.4078	2759.6213	3163.05	2279.75
1002.5285	2760.8215	3155.55	2268.25
1002.649	2762.0211	3150.15	2266.25
1002.7696	2763.22	3147.1	2262.7
1002.8901	2764.4182	3132.35	2249.1
1003.0106	2765.6158	3124.45	2242.6
1003.131	2766.8127	3122.1	2241.55
1003.2514	2768.009	3102.75	2222
1003.3717	2769.2045	3079.8	2197.65
1003.492	2770.3994	3088.55	2204.95
1003.6123	2771.5936	3079.85	2195.35
1003.7325	2772.7872	3079.25	2199.05
1003.8527	2773.9801	3055.3	2173.25
1003.9729	2775.1723	3057.85	2157.6
1004.093	2776.3639	3046.1	2165.05
1004.2131	2777.5548	3040.5	2156.6
1004.3331	2778.745	3029.35	2148.45
1004.4531	2779.9346	3021.35	2140.1
1004.5731	2781.1235	3005.45	2121.3
1004.693	2782.3117	2996.7	2115.25
1004.8129	2783.4992	2988.5	2106.5
1004.9328	2784.6861	2991.45	2110.75
1005.0526	2785.8723	2989.6	2109.7
1005.1723	2787.0579	2976.75	2094.1
1005.2921	2788.2428	2970.3	2090.7
1005.4118	2789.427	2955.05	2075.15
1005.5314	2790.6106	2950.2	2069.9
1005.651	2791.7935	2936.95	2055.1
1005.7706	2792.9757	2943	2062.75
1005.8902	2794.1573	2932.7	2049.8
1006.0097	2795.3382	2913.3	2033.45
1006.1291	2796.5184	2910.15	2029.45
1006.2485	2797.698	2909.8	2027
1006.3679	2798.8769	2911.35	2030.25
1006.4873	2800.0551	2906.4	2025.45
1006.6066	2801.2327	2907.65	2022.9
1006.7258	2802.4096	2895.25	2015
1006.8451	2803.5859	2890.65	2009.3
1006.9642	2804.7615	2896.75	2013.95
1007.0834	2805.9364	2891.5	2012.3
1007.2025	2807.1106	2883.45	2003.55
1007.3216	2808.2842	2889.75	2006
1007.4406	2809.4572	2881	2000.55
1007.5596	2810.6294	2884.55	2003.2
1007.6785	2811.801	2895.55	2014.95
1007.7975	2812.972	2907.45	2026.35
1007.9163	2814.1423	2910.6	2027.8
1008.0352	2815.3119	2907.5	2026.25
1008.154	2816.4808	2919.9	2041.2
1008.2727	2817.6491	2927.5	2045.7
1008.3914	2818.8167	2928.25	2050.75
1008.5101	2819.9837	2955.1	2069.45
1008.6288	2821.15	2949.05	2070.8
1008.7474	2822.3157	2970	2090.95
1008.8659	2823.4807	2982.25	2101.5
1008.9844	2824.645	2986.6	2102.15
1009.1029	2825.8086	3002	2122
1009.2214	2826.9716	3020.4	2140.6
1009.3398	2828.134	3023.7	2142.3
1009.4581	2829.2957	3035.05	2153.9
1009.5764	2830.4567	3043.2	2161.95
1009.6947	2831.617	3035.15	2156.85
1009.813	2832.7767	3045.3	2164.5
1009.9312	2833.9358	3029.6	2149.2
1010.0493	2835.0941	3039.1	2157.95
1010.1675	2836.2519	3004.95	2125.05
1010.2855	2837.4089	3007.2	2126.1
1010.4036	2838.5653	3002.3	2120.85
1010.5216	2839.7211	2994.65	2114.75
1010.6396	2840.8761	2988	2104.25
1010.7575	2842.0306	2984.45	2103.55
1010.8754	2843.1843	2984.75	2103.7
1010.9932	2844.3374	2999.95	2120.55
1011.111	2845.4899	2997.15	2116.05
1011.2288	2846.6417	3018	2136.95
1011.3465	2847.7928	3030.7	2152.3
1011.4642	2848.9433	3034.9	2154.85
1011.5818	2850.0931	3046.3	2166.6
1011.6995	2851.2422	3063.1	2181.9
1011.817	2852.3907	3076	2193.1
1011.9345	2853.5385	3087.7	2206.35
1012.052	2854.6857	3111	2223.55
1012.1695	2855.8323	3106.85	2227.4
1012.2869	2856.9781	3121.95	2241.2
1012.4042	2858.1233	3121.25	2240.35
1012.5216	2859.2679	3130.55	2250.45
1012.6389	2860.4118	3149.8	2270.55
1012.7561	2861.555	3148.15	2262.75
1012.8733	2862.6976	3153.1	2269.3
1012.9905	2863.8395	3158.1	2278.4
1013.1076	2864.9808	3160.7	2278
1013.2247	2866.1214	3165.45	2287.95
1013.3417	2867.2614	3162.9	2281.95
1013.4587	2868.4007	3172.35	2291.45
1013.5757	2869.5393	3157.7	2274.4
1013.6926	2870.6773	3158.95	2275.4
1013.8095	2871.8146	3154	2269.2
1013.9263	2872.9513	3144.95	2261.5
1014.0431	2874.0874	3132.3	2253.15
1014.1599	2875.2227	3124.3	2242.2
1014.2766	2876.3574	3116.9	2237.2
1014.3933	2877.4915	3106.65	2225.75
1014.51	2878.6249	3092.75	2213.35
1014.6266	2879.7577	3069.9	2188.6
1014.7431	2880.8898	3076.45	2188.45
1014.8596	2882.0212	3046.3	2168.75
1014.9761	2883.152	3036.25	2155.3
1015.0925	2884.2821	3014.9	2135.85
1015.2089	2885.4116	3009.2	2130.4
1015.3253	2886.5405	3006.5	2129.25
1015.4416	2887.6686	3010.85	2127.3
1015.5579	2888.7962	3000.15	2121.3
1015.6741	2889.923	2994.8	2115.65
1015.7903	2891.0493	2991	2113.6
1015.9065	2892.1748	2992.95	2112.95
1016.0226	2893.2997	2980.8	2100.1
1016.1387	2894.424	2980.75	2100.65
1016.2547	2895.5476	2983.35	2105.1
1016.3707	2896.6706	2976.7	2096.3
1016.4866	2897.7929	2987.2	2106.45
1016.6025	2898.9145	2989.75	2108.25
1016.7184	2900.0355	2992.7	2111.4
1016.8342	2901.1559	2989.75	2107.25
1016.95	2902.2756	2994.25	2115.45
1017.0658	2903.3946	2995.15	2116.25
1017.1815	2904.513	3009.6	2125.6
1017.2971	2905.6308	2992.35	2114.5
1017.4127	2906.7479	3013.95	2133
1017.5283	2907.8643	3012.45	2130.05
1017.6439	2908.9801	3005.9	2125.15
1017.7594	2910.0953	2991.45	2111.95
1017.8748	2911.2098	2995.9	2111.75
1017.9902	2912.3236	2990.15	2103.15
1018.1056	2913.4368	2982.8	2101.7
1018.2209	2914.5494	2957.45	2074.6
1018.3362	2915.6613	2946.4	2059.95
1018.4515	2916.7725	2938.6	2055.3
1018.5667	2917.8831	2923.9	2043.7
1018.6819	2918.9931	2915.45	2031.9
1018.797	2920.1024	2897.7	2017.5
1018.9121	2921.211	2875.45	1994.7
1019.0271	2922.319	2872.25	1991.6
1019.1421	2923.4264	2864.65	1984.65
1019.2571	2924.5331	2855.65	1977.5
1019.372	2925.6391	2850.35	1971.6
1019.4869	2926.7445	2833.95	1955.15
1019.6017	2927.8493	2838.9	1958.1
1019.7165	2928.9534	2821.3	1939.35
1019.8313	2930.0569	2825.6	1939.95
1019.946	2931.1597	2828.25	1948.7
1020.0606	2932.2619	2820.15	1941.25
1020.1753	2933.3634	2808.3	1929.1
1020.2899	2934.4643	2830.85	1942.3
1020.4044	2935.5645	2808.1	1921.15
1020.5189	2936.6641	2795	1911.6
1020.6334	2937.763	2791.45	1911.7
1020.7478	2938.8613	2762.95	1882.25
1020.8622	2939.959	2745.2	1859.6
1020.9765	2941.056	2711	1831.1
1021.0908	2942.1523	2683.45	1801.15
1021.2051	2943.248	2667.55	1788.05
1021.3193	2944.3431	2644.2	1765.05
1021.4334	2945.4375	2601.6	1721.25
1021.5476	2946.5313	2565.85	1687.75
1021.6617	2947.6244	2523.35	1641.9
1021.7757	2948.7169	2495.7	1613.15
1021.8897	2949.8087	2452.8	1574.3
1022.0037	2950.8999	2427.75	1548
1022.1176	2951.9904	2393.05	1513
1022.2315	2953.0803	2371.75	1490.15
1022.3453	2954.1696	2357.25	1477.75
1022.4591	2955.2582	2330.9	1451.85
1022.5728	2956.3462	2309.25	1428.8
1022.6865	2957.4335	2283.65	1402
1022.8002	2958.5202	2274.65	1392.9
1022.9138	2959.6062	2256.5	1377.55
1023.0274	2960.6916	2248.8	1369.8
1023.141	2961.7764	2242.55	1362.5
1023.2545	2962.8605	2226.3	1345.55
1023.3679	2963.9439	2223.6	1343.55
1023.4813	2965.0267	2208.85	1328.85
1023.5947	2966.1089	2229.4	1326.05
1023.708	2967.1905	2196	1316.6
1023.8213	2968.2714	2199.8	1321.45
1023.9346	2969.3516	2187.05	1307.15
1024.0478	2970.4312	2208.45	1320.5
1024.1609	2971.5102	2185.95	1307.05
1024.274	2972.5885	2184.95	1304.9
1024.3871	2973.6662	2182.45	1297.85
1024.5002	2974.7432	2168	1288.55
1024.6132	2975.8196	2169.25	1287.45
1024.7261	2976.8954	2155.05	1276
1024.839	2977.9705	2157.4	1277
1024.9519	2979.045	2133.25	1254.8
1025.0647	2980.1188	2142.6	1264.25
1025.1775	2981.192	2122.65	1243.85
1025.2902	2982.2645	2115.8	1234.5
1025.4029	2983.3364	2106.35	1227.95
1025.5156	2984.4077	2099.7	1220.6
1025.6282	2985.4783	2083.95	1196.7
1025.7407	2986.5483	2063.05	1185.5
1025.8532	2987.6177	2052.9	1173.9
1025.9657	2988.6864	2032.6	1152.75
1026.0782	2989.7545	2026.65	1145.6
1026.1906	2990.8219	2010.1	1129.4
1026.3029	2991.8887	1998.3	1115.85
1026.4152	2992.9548	1986.8	1106.65
1026.5275	2994.0204	1965.55	1087.6
1026.6397	2995.0852	1965.8	1087.8
1026.7519	2996.1495	1945.1	1064.85
1026.864	2997.2131	1940.35	1061.05
1026.9761	2998.276	1922.45	1043.35
1027.0882	2999.3383	1915.6	1034.75
1027.2002	3000.4	1906.2	1026.3
1027.3122	3001.4611	1897.6	1016.75
1027.4241	3002.5215	1887.1	1008.35
1027.536	3003.5812	1869.65	992.15
1027.6478	3004.6404	1863.5	983.65
1027.7596	3005.6989	1865.65	984.5
1027.8714	3006.7567	1850.35	971.45
1027.9831	3007.8139	1871.05	962.85
1028.0947	3008.8705	1839.05	958.85
1028.2064	3009.9264	1847.4	964.25
1028.3179	3010.9818	1836.3	958.5
1028.4295	3012.0364	1821.65	939.4
1028.541	3013.0905	1822.55	944.35
1028.6524	3014.1439	1804.7	924.4
1028.7638	3015.1966	1810.1	931.45
1028.8752	3016.2487	1810.1	931.35
1028.9865	3017.3002	1803.1	921.5
1029.0978	3018.3511	1800.9	922
1029.209	3019.4013	1783.85	903.9
1029.3202	3020.4509	1781.35	901.1
1029.4314	3021.4998	1792	912.95
1029.5425	3022.5481	1783.1	904.9
1029.6535	3023.5958	1777.25	897.35
1029.7645	3024.6428	1778.95	897.5
1029.8755	3025.6892	1770.8	891.9
1029.9864	3026.735	1763.45	884.5
1030.0973	3027.7802	1765.65	887.6
1030.2082	3028.8247	1756.95	875.8
1030.319	3029.8685	1756.8	877.9
1030.4297	3030.9118	1755.05	876.45
1030.5404	3031.9544	1748.6	871.75
1030.6511	3032.9963	1754.45	874.4
1030.7617	3034.0376	1743.7	865.55
1030.8723	3035.0783	1734.55	852.5
1030.9829	3036.1184	1738.25	858.65
1031.0934	3037.1578	1739.25	862.9
1031.2038	3038.1966	1741.85	862.5
1031.3142	3039.2348	1724.8	847.05
1031.4246	3040.2723	1733.1	846.25
1031.5349	3041.3092	1728.5	851.05
1031.6452	3042.3455	1715.25	835.5
1031.7554	3043.3811	1718.55	838.6
1031.8656	3044.4161	1717.2	835.1
1031.9758	3045.4505	1716.3	837.8
1032.0859	3046.4842	1708.45	828.45
1032.1959	3047.5173	1703.15	826.3
1032.3059	3048.5498	1695.7	815.1
1032.4159	3049.5816	1691.85	813.35
1032.5258	3050.6128	1689.05	809.8
1032.6357	3051.6434	1688.85	808.7
1032.7455	3052.6734	1687	805.8
1032.8553	3053.7027	1684.55	806.25
1032.9651	3054.7314	1676.7	798.15
1033.0748	3055.7594	1669.6	791.35
1033.1845	3056.7868	1675.85	794.85
1033.2941	3057.8136	1662.55	784.1
1033.4037	3058.8398	1660.75	785.05
1033.5132	3059.8653	1645.75	768.95
1033.6227	3060.8902	1647.7	768.4
1033.7321	3061.9145	1637.35	759.45
1033.8415	3062.9381	1639.9	760.05
1033.9509	3063.9612	1668.1	772.35
1034.0602	3064.9835	1638.25	758.75
1034.1694	3066.0053	1638.15	755.35
1034.2787	3067.0264	1631.8	753.1
1034.3878	3068.0469	1636.2	758.95
1034.497	3069.0668	1626.35	742.3
1034.6061	3070.086	1622.05	744
1034.7151	3071.1046	1618.35	740.25
1034.8241	3072.1226	1614.1	731.1
1034.9331	3073.1399	1597.4	719.35
1035.042	3074.1567	1597.4	717.85
1035.1508	3075.1727	1592.85	713.45
1035.2597	3076.1882	1604.2	725.35
1035.3684	3077.203	1584.15	707
1035.4772	3078.2173	1580.3	697.6
1035.5859	3079.2308	1580.15	698.8
1035.6945	3080.2438	1571.5	689.8
1035.8031	3081.2561	1569.65	690.35
1035.9117	3082.2678	1561.45	682.6
1036.0202	3083.2789	1555.35	676.9
1036.1286	3084.2893	1554.75	676.8
1036.2371	3085.2991	1555.4	676.35
1036.3454	3086.3083	1544.85	660.8
1036.4538	3087.3169	1540.8	662
1036.562	3088.3248	1538.5	656.4
1036.6703	3089.3321	1532.85	653.35
1036.7785	3090.3388	1526.95	649.9
1036.8866	3091.3449	1525.5	644.2
1036.9948	3092.3503	1531	648.45
1037.1028	3093.3551	1515.8	638.15
1037.2108	3094.3593	1514.65	638.1
1037.3188	3095.3629	1514.05	635.8
1037.4267	3096.3658	1510.65	631
1037.5346	3097.3681	1513.85	633.9
1037.6425	3098.3698	1508.05	627.15
1037.7503	3099.3708	1501	614.6
1037.858	3100.3713	1500.35	620.6
1037.9657	3101.3711	1494	614.35
1038.0734	3102.3702	1615.6	599.2
1038.181	3103.3688	1483	600.95
1038.2886	3104.3667	1470.3	594.05
1038.3961	3105.364	1472.95	594
1038.5036	3106.3607	1470.1	588.75
1038.611	3107.3568	1469.3	590.05
1038.7184	3108.3522	1462.45	583.9
1038.8257	3109.347	1461.35	583.05
1038.933	3110.3412	1459.05	576.45
1039.0403	3111.3348	1448.1	569.5
1039.1475	3112.3277	1449.05	569.5
1039.2547	3113.32	1441.45	563.3
1039.3618	3114.3117	1444.95	566.05
1039.4689	3115.3028	1434.55	554.8
1039.5759	3116.2932	1440.95	560.25
1039.6829	3117.2831	1434.35	551.3
1039.7898	3118.2723	1430.85	552.8
1039.8967	3119.2608	1429.55	550.7
1040.0035	3120.2488	1424.3	544.6
1040.1103	3121.2361	1427.8	549.85
1040.2171	3122.2229	1418.7	539.8
1040.3238	3123.209	1420.05	539.4
1040.4305	3124.1944	1409.6	532.25
1040.5371	3125.1793	1412.9	530.3
1040.6437	3126.1635	1403.65	526.1
1040.7502	3127.1471	1404.9	528.7
1040.8567	3128.1301	1403.9	526
1040.9631	3129.1125	1388.2	511.05
1041.0695	3130.0942	1394.05	515.45
1041.1759	3131.0753	1405.35	516.35
1041.2822	3132.0558	1391.2	508.25
1041.3884	3133.0357	1391.35	512.95
1041.4946	3134.015	1385.25	505.2
1041.6008	3134.9936	1386.4	507.3
1041.7069	3135.9716	1401.75	501.05
1041.813	3136.949	1379.9	502.9
1041.919	3137.9258	1379.5	492.65
1042.025	3138.902	1373.75	489.75
1042.1309	3139.8775	1378.85	500.9
1042.2368	3140.8524	1367.9	488.2
1042.3427	3141.8267	1369	489.6
1042.4485	3142.8004	1369.45	490.35
1042.5542	3143.7735	1365.55	478.95
1042.6599	3144.7459	1369.5	489.35
1042.7656	3145.7178	1361.8	481.4
1042.8712	3146.689	1354.75	478
1042.9768	3147.6596	1354.2	471.65
1043.0823	3148.6295	1348.3	470.3
1043.1878	3149.5989	1352.9	475.7
1043.2932	3150.5676	1345.75	469.35
1043.3986	3151.5357	1345.85	469.05
1043.5039	3152.5032	1336.15	459.2
1043.6092	3153.4701	1337.15	458.4
1043.7145	3154.4364	1337.45	456.95
1043.8197	3155.402	1331.35	452.65
1043.9248	3156.367	1332.75	453.2
1044.03	3157.3315	1362.2	444.8
1044.135	3158.2952	1329.4	449.7
1044.24	3159.2584	1323.85	445.85
1044.345	3160.221	1318.35	437.2
1044.4499	3161.1829	1318.95	439.7
1044.5548	3162.1442	1318.85	441.6
1044.6596	3163.105	1313.5	436.85
1044.7644	3164.065	1308.5	431.85
1044.8692	3165.0245	1312.45	431.35
1044.9739	3165.9834	1302.55	427.15
1045.0785	3166.9416	1299.05	421.7
1045.1831	3167.8993	1300.4	421.6
1045.2877	3168.8563	1302.95	424.05
1045.3922	3169.8127	1294.75	415.75
1045.4966	3170.7684	1292.4	415.1
1045.6011	3171.7236	1293.75	412.95
1045.7054	3172.6782	1292.1	411.75
1045.8098	3173.6321	1292.15	414.3
1045.914	3174.5854	1289.65	407.35
1046.0183	3175.5381	1286.4	405.75
1046.1224	3176.4902	1278.7	399.6
1046.2266	3177.4417	1276.85	396.65
1046.3307	3178.3926	1275.05	395.85
1046.4347	3179.3428	1270.1	392.65
1046.5387	3180.2924	1273.8	395
1046.6427	3181.2415	1272.3	394.5
1046.7466	3182.1899	1267.8	388.25
1046.8504	3183.1377	1271.6	395.15
1046.9542	3184.0848	1262.7	381.7
1047.058	3185.0314	1260.65	380.65
1047.1617	3185.9773	1256.7	377.35
1047.2654	3186.9227	1254.55	375.65
1047.369	3187.8674	1255.15	377
1047.4726	3188.8115	1260.15	376.2
1047.5761	3189.755	1252.85	374.9
1047.6796	3190.6979	1244.15	366.55
1047.783	3191.6402	1249.7	371.4
1047.8864	3192.5818	1242.7	365.4
1047.9898	3193.5229	1263.35	368.3
1048.0931	3194.4633	1243.1	365.55
1048.1963	3195.4031	1241.3	363.2
1048.2995	3196.3423	1237.85	361.6
1048.4027	3197.2809	1241.15	362.3
1048.5058	3198.2189	1235.9	356.65
1048.6089	3199.1563	1248.7	351.3
1048.7119	3200.0931	1226.6	351.25
1048.8148	3201.0292	1227	347.65
1048.9178	3201.9648	1223.1	344.35
1049.0206	3202.8997	1225.25	344
1049.1235	3203.834	1224.45	346.85
1049.2262	3204.7677	1218.85	342.3
1049.329	3205.7008	1223.5	343.35
1049.4317	3206.6333	1213.45	334.9
1049.5343	3207.5652	1215.85	332.9
1049.6369	3208.4964	1211.95	332.35
1049.7394	3209.4271	1207.6	329.2
1049.8419	3210.3571	1208.7	330.85
1049.9444	3211.2865	1208.45	328.95
1050.0468	3212.2154	1208.55	332
1050.1491	3213.1436	1207.85	326.5
1050.2514	3214.0712	1214.55	329.85
1050.3537	3214.9982	1201.6	322.85
1050.4559	3215.9246	1200.2	320
1050.5581	3216.8503	1196.35	319.35
1050.6602	3217.7755	1199.4	322.75
1050.7623	3218.7001	1196.4	318.25
1050.8643	3219.624	1194.95	315
1050.9663	3220.5473	1196.25	315.6
1051.0682	3221.4701	1195	315
1051.1701	3222.3922	1190.1	308.6
1051.2719	3223.3137	1186.85	309.9
1051.3737	3224.2346	1187.75	309.15
1051.4754	3225.1549	1182.85	303.9
1051.5771	3226.0746	1183.6	306.05
1051.6788	3226.9937	1185.35	305.05
1051.7804	3227.9121	1176.95	300.3
1051.8819	3228.83	1178.55	300.85
1051.9834	3229.7473	1175.85	297.2
1052.0849	3230.6639	1172.15	294.3
1052.1863	3231.5799	1166.65	290.55
1052.2876	3232.4954	1171.4	291.15
1052.3889	3233.4102	1160.65	281.75
1052.4902	3234.3244	1171.75	289.75
1052.5914	3235.238	1165.6	290.05
1052.6926	3236.151	1185.2	282.1
1052.7937	3237.0634	1161.4	284.95
1052.8948	3237.9752	1160.15	281.7
1052.9958	3238.8864	1157.15	278.55
1053.0968	3239.797	1158.5	279.95
1053.1977	3240.7069	1153.2	273.45
1053.2986	3241.6163	1152.5	273.2
1053.3994	3242.5251	1149.6	271.45
1053.5002	3243.4332	1147.8	270.25
1053.6009	3244.3408	1153.15	275.95
1053.7016	3245.2477	1149.6	271
1053.8022	3246.154	1148.85	269
1053.9028	3247.0598	1147.95	269.95
1054.0034	3247.9649	1146.8	268.6
1054.1039	3248.8694	1142.8	262.3
1054.2043	3249.7733	1142.55	262.9
1054.3047	3250.6766	1135.15	255.2
1054.4051	3251.5793	1135.5	257.5
1054.5054	3252.4814	1132.65	256
1054.6056	3253.3829	1137.3	258.8
1054.7058	3254.2838	1129.5	251
1054.806	3255.1841	1130.6	251.95
1054.9061	3256.0838	1129.1	251.1
1055.0061	3256.9829	1121.8	242.2
1055.1062	3257.8814	1124.1	242.85
1055.2061	3258.7792	1122.25	242.2
1055.306	3259.6765	1119.15	240.35
1055.4059	3260.5731	1115.85	236.8
1055.5057	3261.4692	1112.6	231.8
1055.6055	3262.3647	1110.65	231.8
1055.7052	3263.2595	1105.5	227.15
1055.8049	3264.1538	1102.8	225.6
1055.9045	3265.0474	1100.55	222.25
1056.0041	3265.9404	1096	219.1
1056.1036	3266.8329	1094.75	217.3
1056.2031	3267.7247	1094.55	206.45
1056.3025	3268.616	1082.95	204.6
1056.4019	3269.5066	1074.7	196.7
1056.5013	3270.3966	1074.3	193.5
1056.6005	3271.286	1068.55	191.35
