Software Version:	3.9.2.0
Unit SN:	10000200
Spectrometer SN:	6960
Date:	3/6/2024 10:15:44 AM
Data Line Index:	25
Spectral Points:	2048
Integration time (ms):	125
Averages:	20
Delay (ms):	30
Sequence Number:	1
Processing:	dark subtract
Laser Power (mW):	305
Laser Current (mA):	824
Laser Diode Temp (C):	25
Laser Case Temp (C):	25
System Temp (C):	24.8
Spectrometer Temp (C):	22.4
CCD Temp (C):	-0.003
Secondary Temp (C):	20.022
Heatsink Temp (C):	19.536
CCDPCB Temp (C):	31.738
SecondaryPCB Temp (C):	26.069

Wavelength	RamanShift	Raw Counts	Dark Subtracted
787.061	30.1047	791.5	384.6
787.2016	32.3739	814.25	408.15
787.3422	34.6426	833.15	424.65
787.4828	36.9109	862	453.1
787.6235	39.1787	890.85	477.85
787.7642	41.4461	922.45	504
787.9049	43.7131	967.1	548.65
788.0456	45.9796	987.95	563.45
788.1863	48.2456	1021.5	592.3
788.3271	50.5112	1067.45	634.95
788.4679	52.7764	1102.65	667.8
788.6087	55.0411	1145.8	706.3
788.7496	57.3054	1196	751.45
788.8904	59.5692	1241.5	794.95
789.0313	61.8326	1289.45	841.45
789.1722	64.0955	1350.45	898.4
789.3132	66.3579	1421.15	962.45
789.4541	68.6199	1508.65	1047.2
789.5951	70.8815	1667.7	1201.05
789.7361	73.1426	1980.65	1510.2
789.8771	75.4032	2796.5	2323.25
790.0181	77.6634	4851.65	4373.5
790.1592	79.9231	10047.25	9566.05
790.3003	82.1824	24652.25	24163
790.4414	84.4412	52331.75	51827.75
790.5825	86.6995	64260.75	63737.8
790.7237	88.9574	65526.4	64990.5
790.8648	91.2148	65535	64984.15
791.006	93.4717	65535	64979.8
791.1472	95.7282	65535	64973.8
791.2885	97.9842	65535	64973.35
791.4297	100.2398	65535	64971.35
791.571	102.4949	65535	64967.65
791.7123	104.7495	65535	64957.1
791.8536	107.0036	65535	64961.15
791.9949	109.2573	65535	64963.45
792.1363	111.5105	65535	64960.25
792.2777	113.7632	65535	64958
792.4191	116.0154	65535	64948.75
792.5605	118.2672	65535	64953.55
792.7019	120.5185	65535	64953.8
792.8434	122.7693	65535	64946.85
792.9849	125.0197	65535	64944.2
793.1264	127.2696	65535	64940.1
793.2679	129.519	65535	64936.75
793.4094	131.7679	65535	64936.55
793.551	134.0163	65535	64932.95
793.6926	136.2642	65535	64930.5
793.8342	138.5117	65535	64924.4
793.9758	140.7587	65535	64928.4
794.1175	143.0052	65535	64921.5
794.2591	145.2512	65535	64926.8
794.4008	147.4967	65535	64920.2
794.5425	149.7417	65535	64918.8
794.6842	151.9863	65535	64911.25
794.826	154.2304	65535	64909.8
794.9677	156.4739	65535	64906.1
795.1095	158.717	65535	64906.65
795.2513	160.9596	65535	64899.9
795.3931	163.2017	65535	64896.55
795.535	165.4433	65535	64897.3
795.6768	167.6844	65535	64894.25
795.8187	169.925	65535	64891.05
795.9606	172.1651	65535	64885.7
796.1025	174.4047	65535	64883.3
796.2445	176.6439	65535	64880.8
796.3864	178.8825	65535	64876.15
796.5284	181.1206	65535	64874.25
796.6704	183.3582	65535	64871.6
796.8124	185.5954	65535	64873.35
796.9544	187.832	65535	64867.75
797.0965	190.0681	65535	64866.9
797.2386	192.3037	65535	64861.5
797.3806	194.5388	65535	64857.1
797.5228	196.7734	65535	64858
797.6649	199.0075	65535	64853.85
797.807	201.2411	65535	64852.1
797.9492	203.4742	65535	64852.5
798.0914	205.7068	65535	64848.65
798.2336	207.9389	65535	64848
798.3758	210.1704	65535	64850.75
798.518	212.4015	65535	64858.65
798.6603	214.632	65535	64868.8
798.8025	216.862	65535	64868.55
798.9448	219.0915	65535	64869.65
799.0871	221.3205	65535	64866.6
799.2294	223.549	65535	64868.25
799.3718	225.777	65535	64867.55
799.5141	228.0044	65535	64862.1
799.6565	230.2314	65535	64858.2
799.7989	232.4578	65535	64856.85
799.9413	234.6837	65535	64846.6
800.0837	236.909	65535	64844.75
800.2262	239.1339	65535	64824.2
800.3687	241.3582	65535	64835.95
800.5111	243.582	65535	64805.35
800.6536	245.8053	65535	64820.05
800.7961	248.0281	65535	64823.35
800.9387	250.2503	65535	64823.25
801.0812	252.472	65535	64818.65
801.2238	254.6932	65535	64818.55
801.3664	256.9139	65535	64818.1
801.509	259.134	65535	64812.45
801.6516	261.3536	65535	64813.15
801.7942	263.5727	65535	64813.15
801.9369	265.7912	65535	64813.95
802.0795	268.0092	65535	64815.45
802.2222	270.2267	65535	64813.45
802.3649	272.4436	65535	64807.05
802.5076	274.6601	65535	64799.45
802.6504	276.8759	65535	64804.15
802.7931	279.0913	65535	64806.45
802.9359	281.3061	65535	64802.95
803.0787	283.5204	65535	64799.2
803.2215	285.7341	65535	64795.9
803.3643	287.9473	65535	64787.2
803.5071	290.16	65535	64794.05
803.6499	292.3721	65535	64798.05
803.7928	294.5837	65535	64799.05
803.9357	296.7947	65535	64799.3
804.0786	299.0052	65535	64798.35
804.2215	301.2152	65535	64796.85
804.3644	303.4246	65535	64797.3
804.5074	305.6334	65535	64795.6
804.6503	307.8418	65535	64792.05
804.7933	310.0495	65535	64791.5
804.9363	312.2568	65535	64791.95
805.0793	314.4635	65535	64788.75
805.2223	316.6696	65535	64786.3
805.3653	318.8752	65535	64774.8
805.5084	321.0802	65535	64785.45
805.6514	323.2847	65535	64784.9
805.7945	325.4887	65535	64782.3
805.9376	327.692	65535	64781.05
806.0807	329.8949	65535	64779.95
806.2238	332.0972	65535	64776.95
806.367	334.2989	65535	64771.65
806.5101	336.5001	65535	64774.6
806.6533	338.7007	65535	64772
806.7965	340.9008	65535	64774.2
806.9397	343.1003	65535	64770.8
807.0829	345.2992	65535	64769.4
807.2261	347.4976	65535	64771.05
807.3693	349.6955	65535	64766.35
807.5126	351.8927	65535	64764.35
807.6559	354.0895	65535	64755.95
807.7991	356.2856	65535	64762.9
807.9424	358.4812	65535	64761.85
808.0857	360.6763	65535	64760.2
808.2291	362.8707	65535	64759
808.3724	365.0646	65535	64753.75
808.5158	367.258	65535	64754.95
808.6591	369.4508	65535	64749.1
808.8025	371.643	65535	64749.9
808.9459	373.8346	65535	64746.55
809.0893	376.0257	65535	64745
809.2327	378.2162	65535	64746.05
809.3762	380.4062	65535	64744.75
809.5196	382.5956	65535	64745.55
809.6631	384.7844	65535	64751.35
809.8066	386.9726	65535	64753
809.9501	389.1603	65535	64754.8
810.0936	391.3474	65535	64707.7
810.2371	393.5339	65535	64747.5
810.3806	395.7199	65535	64756.05
810.5241	397.9052	65535	64754.3
810.6677	400.09	65535	64754.7
810.8113	402.2743	65535	64753
810.9548	404.4579	65535	64750.6
811.0984	406.641	65535	64747.25
811.2421	408.8235	65535	64746.65
811.3857	411.0054	65535	64743.55
811.5293	413.1868	65535	64742.25
811.673	415.3675	65535	64740
811.8166	417.5477	65535	64739.95
811.9603	419.7273	65535	64733.5
812.104	421.9064	65535	64727.2
812.2477	424.0848	65535	64731.85
812.3914	426.2627	65535	64734.2
812.5351	428.4399	65535	64732.55
812.6788	430.6166	65535	64728.35
812.8226	432.7928	65535	64726.7
812.9663	434.9683	65535	64728.9
813.1101	437.1432	65535	64722.3
813.2539	439.3176	65535	64727.25
813.3977	441.4914	65535	64728.05
813.5415	443.6645	65535	64723.75
813.6853	445.8371	65535	64725.1
813.8291	448.0091	65535	64727.5
813.973	450.1806	65535	64722.8
814.1168	452.3514	65535	64719.8
814.2607	454.5216	65535	64712.75
814.4046	456.6913	65535	64720.85
814.5485	458.8603	65535	64722.45
814.6924	461.0288	65535	64722.9
814.8363	463.1967	65535	64721.6
814.9802	465.3639	65535	64717.35
815.1241	467.5306	65535	64715.8
815.2681	469.6967	65535	64720.2
815.412	471.8622	65535	64719.45
815.556	474.0271	65535	64720.05
815.7	476.1914	65535	64716.15
815.844	478.3551	65535	64718.55
815.988	480.5182	65535	64719.4
816.132	482.6807	65535	64714.6
816.276	484.8426	65535	64717.6
816.4201	487.0039	65535	64715.1
816.5641	489.1647	65535	64716.4
816.7082	491.3248	65535	64715.8
816.8522	493.4843	65535	64714.8
816.9963	495.6432	65535	64713.85
817.1404	497.8015	65535	64710.5
817.2845	499.9592	65535	64712
817.4286	502.1163	65535	64709.9
817.5727	504.2728	65535	64707.9
817.7168	506.4287	65535	64709.75
817.861	508.5839	65535	64709.5
818.0051	510.7386	65535	64709.1
818.1493	512.8927	65535	64705.45
818.2935	515.0461	65535	64705.8
818.4377	517.199	65535	64709.25
818.5818	519.3512	65535	64705.15
818.726	521.5029	65535	64700.75
818.8703	523.6539	65535	64702.35
819.0145	525.8043	65535	64704.45
819.1587	527.9541	65535	64699.95
819.303	530.1033	65535	64701.4
819.4472	532.2519	65535	64706.95
819.5915	534.3999	65535	64700.35
819.7357	536.5472	65535	64702.65
819.88	538.694	65535	64702.2
820.0243	540.8401	65535	64700.95
820.1686	542.9856	65535	64700.25
820.3129	545.1305	65535	64695.9
820.4572	547.2748	65535	64698.3
820.6016	549.4185	65535	64696.45
820.7459	551.5615	65535	64697.6
820.8902	553.704	65535	64695.6
821.0346	555.8458	65535	64698.65
821.1789	557.987	65535	64696.5
821.3233	560.1276	65535	64696.25
821.4677	562.2675	65535	64698.7
821.6121	564.4069	65535	64696.65
821.7565	566.5456	65535	64697.75
821.9009	568.6837	65535	64699.25
822.0453	570.8212	65535	64696.85
822.1897	572.958	65535	64693.1
822.3342	575.0942	65535	64697.25
822.4786	577.2299	65535	64695.15
822.6231	579.3648	65535	64695.35
822.7675	581.4992	65535	64696.1
822.912	583.6329	65535	64694.6
823.0565	585.766	65535	64694.75
823.201	587.8985	65535	64696.15
823.3454	590.0304	65535	64666.65
823.4899	592.1616	65535	64689.35
823.6345	594.2922	65535	64690
823.779	596.4222	65535	64686.75
823.9235	598.5515	65535	64689.65
824.068	600.6802	65535	64690.7
824.2126	602.8083	65535	64691.5
824.3571	604.9358	65535	64687.9
824.5017	607.0626	65535	64687.2
824.6462	609.1888	65535	64690.25
824.7908	611.3144	65535	64686.35
824.9354	613.4393	65535	64690.1
825.08	615.5636	65535	64689.2
825.2246	617.6873	65535	64688.5
825.3692	619.8103	65535	64687.1
825.5138	621.9327	65535	64682.75
825.6584	624.0544	65535	64686.5
825.803	626.1756	65535	64688.35
825.9477	628.2961	65535	64683.5
826.0923	630.4159	65535	64686.45
826.237	632.5351	65535	64684.05
826.3816	634.6537	65535	64685.25
826.5263	636.7716	65535	64682.3
826.6709	638.8889	65535	64679.8
826.8156	641.0056	65535	64681.9
826.9603	643.1216	65535	64680.35
827.105	645.237	65535	64680.1
827.2497	647.3518	65535	64683.05
827.3944	649.4659	65535	64683
827.5391	651.5793	65535	64683.3
827.6838	653.6922	65535	64683.7
827.8285	655.8043	65535	64682.9
827.9733	657.9159	65535	64680.25
828.118	660.0268	65535	64677.45
828.2627	662.137	65535	64679.4
828.4075	664.2466	65535	64677.2
828.5522	666.3556	65535	64681.05
828.697	668.4639	65535	64676.9
828.8418	670.5716	65535	64677.3
828.9865	672.6786	65535	64677.85
829.1313	674.785	65535	64674.95
829.2761	676.8907	65535	64678.3
829.4209	678.9958	65535	64677.65
829.5657	681.1002	65535	64675.95
829.7105	683.204	65535	64673
829.8553	685.3072	65535	64673.55
830.0001	687.4097	65535	64676.55
830.1449	689.5115	65535	64674
830.2898	691.6127	65535	64677.05
830.4346	693.7132	65535	64676.25
830.5794	695.8131	65535	64654.15
830.7243	697.9123	65535	64672.5
830.8691	700.0109	65535	64673.9
831.014	702.1089	65535	64674.1
831.1588	704.2061	65535	64672.05
831.3037	706.3028	65535	64670.95
831.4486	708.3987	65535	64671.2
831.5935	710.4941	65535	64672.6
831.7383	712.5887	65535	64670.25
831.8832	714.6827	65535	64669
832.0281	716.7761	65535	64671.3
832.173	718.8688	65535	64669.35
832.3179	720.9608	65535	64668.9
832.4628	723.0522	65535	64667.15
832.6077	725.1429	65535	64668
832.7527	727.233	65535	64671.95
832.8976	729.3224	65535	64671.35
833.0425	731.4112	65535	64667.7
833.1874	733.4993	65535	64665.1
833.3324	735.5867	65535	64671.05
833.4773	737.6735	65535	64666.85
833.6222	739.7596	65535	64665.55
833.7672	741.845	65535	64667.25
833.9122	743.9298	65535	64665.85
834.0571	746.014	65535	64668.5
834.2021	748.0974	65535	64666.65
834.347	750.1802	65535	64665.85
834.492	752.2624	65535	64666.55
834.637	754.3439	65535	64664.3
834.782	756.4247	65535	64657.9
834.9269	758.5048	65535	64666.4
835.0719	760.5843	65535	64666.7
835.2169	762.6631	65535	64666
835.3619	764.7413	65535	64670.45
835.5069	766.8188	65535	64663.55
835.6519	768.8956	65535	64664.65
835.7969	770.9718	65535	64661.9
835.9419	773.0473	65535	64667.25
836.0869	775.1221	65535	64666
836.232	777.1962	65535	64664.9
836.377	779.2697	65535	64662.95
836.522	781.3426	65535	64646.75
836.667	783.4147	65535	64663.15
836.8121	785.4862	65535	64666.75
836.9571	787.557	65535	64665.75
837.1021	789.6271	65535	64663.9
837.2472	791.6966	65535	64663.25
837.3922	793.7654	65535	64664
837.5373	795.8335	65535	64664.95
837.6823	797.901	65535	64664.1
837.8274	799.9678	65535	64661.45
837.9724	802.0339	65535	64664.3
838.1175	804.0993	65535	64652.1
838.2626	806.1641	65535	64666.5
838.4076	808.2282	65535	64662.4
838.5527	810.2916	65535	64660.25
838.6978	812.3544	65535	64664.95
838.8428	814.4164	65535	64664.05
838.9879	816.4778	65535	64662.7
839.133	818.5385	65535	64661.75
839.2781	820.5986	65535	64660.65
839.4232	822.658	65535	64660.8
839.5682	824.7166	65535	64663.65
839.7133	826.7747	65535	64664.1
839.8584	828.832	65535	64661.8
840.0035	830.8886	65535	64657.45
840.1486	832.9446	65535	64660.1
840.2937	834.9999	65535	64661.6
840.4388	837.0545	65535	64659.45
840.5839	839.1085	65535	64659.3
840.729	841.1618	65535	64656.3
840.8741	843.2143	65535	64660.3
841.0192	845.2662	65535	64661.7
841.1643	847.3175	65535	64659.9
841.3095	849.368	65535	64660.6
841.4546	851.4179	65535	64658.65
841.5997	853.467	65535	64660.8
841.7448	855.5155	65535	64658.85
841.8899	857.5633	65535	64660.15
842.0351	859.6105	65535	64659.65
842.1802	861.6569	65535	64659.25
842.3253	863.7027	65535	64657.5
842.4704	865.7478	65535	64657.25
842.6156	867.7922	65535	64659.35
842.7607	869.8359	65535	64657.05
842.9058	871.8789	65535	64657.6
843.0509	873.9212	65535	64626.2
843.1961	875.9629	65535	64659.9
843.3412	878.0039	65535	64655.7
843.4863	880.0441	65535	64661.55
843.6315	882.0837	65535	64654.75
843.7766	884.1226	65535	64655
843.9218	886.1609	65535	64658.95
844.0669	888.1984	65535	64657.45
844.212	890.2352	65535	64658.35
844.3572	892.2714	65535	64652.9
844.5023	894.3069	65535	64659.1
844.6475	896.3416	65535	64657.7
844.7926	898.3757	65535	64657.35
844.9377	900.4091	65535	64657.95
845.0829	902.4418	65535	64651.1
845.228	904.4739	65535	64654.55
845.3732	906.5052	65535	64654.1
845.5183	908.5358	65535	64658
845.6635	910.5658	65535	64650.45
845.8086	912.595	65535	64657.1
845.9538	914.6236	65535	64655.15
846.0989	916.6515	65535	64656.25
846.2441	918.6786	65535	64655.45
846.3892	920.7051	65535	64655.35
846.5344	922.7309	65535	64655.25
846.6795	924.756	65535	64656.15
846.8246	926.7804	65535	64654.45
846.9698	928.8041	65535	64646
847.1149	930.8272	65535	64656.1
847.2601	932.8495	65535	64653.6
847.4052	934.8711	65535	64655.7
847.5504	936.892	65535	64651.6
847.6955	938.9123	65535	64655.35
847.8407	940.9318	65535	64655.25
847.9858	942.9506	65535	64653.45
848.131	944.9688	65535	64655.85
848.2761	946.9862	65535	64654.05
848.4213	949.003	65535	64656.15
848.5664	951.019	65535	64654.55
848.7115	953.0344	65535	64654.7
848.8567	955.0491	65535	64653.9
849.0018	957.063	65535	64653.95
849.147	959.0763	65535	64655.6
849.2921	961.0888	65535	64651.05
849.4373	963.1007	65535	64655.9
849.5824	965.1119	65535	64653.9
849.7275	967.1223	65535	64649.85
849.8727	969.1321	65535	64654.45
850.0178	971.1412	65533.5	64652.7
850.1629	973.1495	65528.4	64647.85
850.3081	975.1572	65535	64620.7
850.4532	977.1641	65527.95	64644.65
850.5983	979.1704	65532.8	64651.5
850.7435	981.1759	65533.25	64648.4
850.8886	983.1808	65526.1	64643.05
851.0337	985.1849	65524.35	64631.4
851.1788	987.1884	65531.65	64646.75
851.324	989.1911	65532	64647
851.4691	991.1932	65491.3	64608.1
851.6142	993.1945	65517.55	64636.2
851.7593	995.1951	65524.3	64639.85
851.9045	997.1951	65496.85	64612.15
852.0496	999.1943	65499.35	64617.5
852.1947	1001.1928	65475.4	64593.15
852.3398	1003.1906	65495.8	64613.15
852.4849	1005.1877	65429.65	64546.85
852.63	1007.1841	65428	64546.75
852.7751	1009.1798	65440.75	64559.4
852.9202	1011.1748	65446.25	64562.85
853.0653	1013.1691	65453.55	64570.05
853.2104	1015.1627	65333.75	64450.2
853.3555	1017.1556	65398.7	64517.1
853.5006	1019.1477	65415.65	64532.7
853.6457	1021.1392	65367.85	64486.55
853.7908	1023.1299	65290.9	64407.35
853.9359	1025.12	65341.15	64456.85
854.081	1027.1093	65308.3	64427.8
854.2261	1029.0979	65320.05	64439.6
854.3712	1031.0859	65311.25	64431
854.5163	1033.0731	65240.4	64355.9
854.6613	1035.0596	65280.5	64399.4
854.8064	1037.0454	65274.25	64391.55
854.9515	1039.0304	65238.4	64354.4
855.0965	1041.0148	65097.9	64217.05
855.2416	1042.9985	65149.3	64265.55
855.3867	1044.9814	65241.9	64360.5
855.5317	1046.9636	65095.6	64210.55
855.6768	1048.9452	65138.1	64256.05
855.8219	1050.926	65109.8	64228.45
855.9669	1052.9061	65104.45	64220.5
856.112	1054.8855	65109.95	64228.35
856.257	1056.8642	65054.8	64169.05
856.4021	1058.8421	64962.25	64077.95
856.5471	1060.8194	64985.9	64100.85
856.6921	1062.7959	64875.05	63991.35
856.8372	1064.7717	65015.2	64130.35
856.9822	1066.7469	64970.1	64083.65
857.1272	1068.7213	64976.1	64089.45
857.2723	1070.695	64889.75	64004.95
857.4173	1072.6679	64796.35	63912.75
857.5623	1074.6402	64896.55	64011.4
857.7073	1076.6117	64761.4	63873.1
857.8523	1078.5826	64763.2	63878.5
857.9973	1080.5527	64790.3	63904.1
858.1423	1082.5221	64668.65	63784.25
858.2873	1084.4908	64713.95	63830.9
858.4323	1086.4587	64641.15	63756.65
858.5773	1088.426	64629.75	63745.45
858.7223	1090.3925	64638.9	63746.7
858.8673	1092.3584	64620.55	63737.2
859.0123	1094.3235	64478.15	63594.4
859.1573	1096.2879	64486.5	63602.4
859.3022	1098.2515	64540.45	63656.25
859.4472	1100.2145	64416.4	63533.6
859.5922	1102.1767	64433.3	63549.05
859.7371	1104.1382	64507.6	63623.75
859.8821	1106.099	64414.75	63528.8
860.027	1108.0591	64379.05	63494.25
860.172	1110.0185	64156.15	63269.35
860.3169	1111.9771	64404.8	63517.95
860.4619	1113.9351	64304.35	63419.5
860.6068	1115.8923	64233.65	63349.1
860.7517	1117.8488	64147.65	63262.15
860.8967	1119.8045	64035.7	63153.65
861.0416	1121.7596	64109.95	63225.15
861.1865	1123.7139	64031.1	63150.65
861.3314	1125.6675	64044.8	63159.8
861.4763	1127.6204	63976.45	63092.85
861.6212	1129.5726	63805.95	62918.6
861.7661	1131.524	63928.8	63044.9
861.911	1133.4748	63935.45	63051.7
862.0559	1135.4248	63781.1	62894.45
862.2008	1137.3741	63795.2	62910.35
862.3457	1139.3226	63759	62874.15
862.4905	1141.2705	63709.15	62824.95
862.6354	1143.2176	63720.65	62829.55
862.7803	1145.164	63529.7	62644.75
862.9251	1147.1097	63623.85	62738.9
863.07	1149.0546	63609.45	62722.05
863.2148	1150.9989	63631.45	62747.9
863.3597	1152.9424	63430.05	62544.25
863.5045	1154.8852	63606.4	62723.45
863.6493	1156.8272	63422.7	62537.55
863.7942	1158.7686	63627.1	62737.05
863.939	1160.7092	63315.45	62429.45
864.0838	1162.6491	63334.55	62447.7
864.2286	1164.5883	63370.2	62485.1
864.3734	1166.5267	63238.1	62350.6
864.5182	1168.4644	63330.5	62444.7
864.663	1170.4014	63265.45	62373.6
864.8078	1172.3377	63347.1	62461.6
864.9526	1174.2732	63418.25	62532.5
865.0974	1176.2081	63280.45	62395.9
865.2421	1178.1421	63221.85	62334.15
865.3869	1180.0755	63370.55	62487.2
865.5317	1182.0082	63280.05	62393.3
865.6764	1183.9401	63257.3	62371.8
865.8212	1185.8713	63073.15	62187
865.9659	1187.8017	63090.8	62206.2
866.1106	1189.7315	63094.95	62211.55
866.2554	1191.6605	63023.55	62110.85
866.4001	1193.5888	62932.05	62047.8
866.5448	1195.5163	62778.85	61893.55
866.6895	1197.4432	62802.3	61916.7
866.8342	1199.3693	62788.8	61905.5
866.9789	1201.2947	62704.3	61816.9
867.1236	1203.2193	62760.25	61873.85
867.2683	1205.1432	62530.65	61643.8
867.413	1207.0664	62522	61636.5
867.5576	1208.9889	62510.65	61620.85
867.7023	1210.9106	62508.15	61622.7
867.847	1212.8316	62392.65	61508.85
867.9916	1214.7519	62379.95	61485.7
868.1363	1216.6715	62292.25	61407.95
868.2809	1218.5903	62288.7	61403.75
868.4255	1220.5084	62217	61332.45
868.5701	1222.4257	62248.2	61362.65
868.7148	1224.3424	62180.95	61296.85
868.8594	1226.2583	62071.75	61181.85
869.004	1228.1735	62142.85	61257.25
869.1486	1230.0879	61960.8	61072.95
869.2932	1232.0016	62062.15	61176.6
869.4377	1233.9146	61882.85	60995.2
869.5823	1235.8269	61899.2	61014.35
869.7269	1237.7384	61858.5	60974.2
869.8715	1239.6492	61790.8	60907.35
870.016	1241.5592	61655	60768.7
870.1606	1243.4686	61757.55	60870.85
870.3051	1245.3772	61605.3	60720.6
870.4496	1247.285	61677.9	60792.1
870.5941	1249.1922	61508.8	60624.15
870.7387	1251.0986	61561.6	60675.8
870.8832	1253.0042	61425.7	60540.3
871.0277	1254.9092	61518.85	60632.65
871.1722	1256.8134	61306.35	60422.15
871.3167	1258.7169	61478.7	60593.25
871.4611	1260.6196	61313.65	60428.65
871.6056	1262.5216	61296	60411.6
871.7501	1264.4229	61321.9	60439.5
871.8945	1266.3234	61360.95	60476.45
872.039	1268.2232	61294.85	60407.2
872.1834	1270.1223	61185.55	60297.45
872.3278	1272.0207	61160.55	60273.95
872.4723	1273.9183	61143.3	60250.3
872.6167	1275.8151	61100.55	60213.2
872.7611	1277.7113	61062.1	60174.7
872.9055	1279.6067	60980.75	60095.75
873.0499	1281.5014	60958.15	60070.35
873.1943	1283.3953	61079.1	60191.7
873.3386	1285.2885	60990.3	60105.45
873.483	1287.181	60998.85	60111.1
873.6274	1289.0727	60997	60112.45
873.7717	1290.9637	60817.6	59933.5
873.9161	1292.854	61033.35	60148.6
874.0604	1294.7435	60930.55	60043.1
874.2047	1296.6323	60918.55	60035.5
874.349	1298.5204	60817.85	59930.2
874.4933	1300.4077	60895.15	60008.65
874.6376	1302.2943	60729.2	59843.55
874.7819	1304.1802	60670.6	59785.75
874.9262	1306.0653	60602.5	59714.5
875.0705	1307.9497	60525.8	59637.85
875.2147	1309.8333	60521.95	59637.4
875.359	1311.7162	60399.05	59509.75
875.5032	1313.5984	60410.6	59522.05
875.6475	1315.4798	60250.6	59355.6
875.7917	1317.3605	60235.6	59331.85
875.9359	1319.2405	60220.45	59333.9
876.0801	1321.1197	59991.3	59102.65
876.2243	1322.9982	60029.7	59139.8
876.3685	1324.876	59939.25	59051.65
876.5127	1326.753	59735.3	58848.3
876.6569	1328.6293	60026.6	59139.55
876.801	1330.5048	59862.3	58973.1
876.9452	1332.3796	59673.15	58786.15
877.0893	1334.2537	59561.95	58651.7
877.2335	1336.127	59686.8	58799.15
877.3776	1337.9996	59469.5	58583.5
877.5217	1339.8714	59607.7	58724.15
877.6658	1341.7426	59162.6	58230.95
877.8099	1343.6129	59410.5	58522.55
877.954	1345.4826	59399.4	58510.85
878.0981	1347.3515	59069.75	58181.2
878.2422	1349.2196	59264.45	58376.7
878.3862	1351.087	59203.6	58317.8
878.5303	1352.9537	59201	58316.15
878.6743	1354.8197	59187.05	58301.25
878.8184	1356.6849	59191.25	58305.2
878.9624	1358.5493	59129.35	58243.15
879.1064	1360.4131	58925.75	58039.95
879.2504	1362.276	59150.35	58264.95
879.3944	1364.1383	58809.7	57924.15
879.5384	1365.9998	58668.75	57776.6
879.6823	1367.8606	58766.7	57878.4
879.8263	1369.7206	58505.2	57619.3
879.9702	1371.5799	58383.35	57494.45
880.1142	1373.4384	58192.15	57306.85
880.2581	1375.2962	58263.1	57376.25
880.402	1377.1533	57844.4	56958.3
880.5459	1379.0096	57684.4	56799.25
880.6898	1380.8652	57605.25	56719.5
880.8337	1382.7201	57435.55	56550
880.9776	1384.5742	57432.25	56546.4
881.1215	1386.4275	56982.65	56095.35
881.2653	1388.2802	57077.35	56190.3
881.4092	1390.132	57157.5	56270.65
881.553	1391.9832	56789.9	55902.2
881.6968	1393.8336	56540.35	55655.3
881.8406	1395.6832	56598.9	55710.3
881.9844	1397.5322	56598.7	55712.35
882.1282	1399.3803	56288.25	55396.8
882.272	1401.2278	56236.2	55351.15
882.4158	1403.0745	56131.55	55245.3
882.5595	1404.9204	56019.3	55134.15
882.7033	1406.7656	55974.45	55086.3
882.847	1408.6101	55714.2	54827
882.9908	1410.4538	55719.95	54834.45
883.1345	1412.2968	55744.4	54858.55
883.2782	1414.139	55424.65	54538.7
883.4219	1415.9805	55512.7	54628.15
883.5656	1417.8213	55305.35	54411.3
883.7092	1419.6613	55408.85	54523.7
883.8529	1421.5006	55221	54333.8
883.9965	1423.3391	55166.85	54278.95
884.1402	1425.1769	55142.55	54254.55
884.2838	1427.0139	55319.95	54431.15
884.4274	1428.8502	55228.4	54340.35
884.571	1430.6858	55248.55	54362.9
884.7146	1432.5206	55409.25	54521.15
884.8582	1434.3547	55207.5	54322.7
885.0018	1436.188	55059.75	54172.65
885.1453	1438.0206	55159	54271.65
885.2889	1439.8524	55057.7	54170.35
885.4324	1441.6835	54886.85	53998
885.5759	1443.5139	54936.15	54048
885.7194	1445.3435	54738.5	53852.7
885.8629	1447.1724	54729.5	53843.15
886.0064	1449.0005	54514.8	53627.4
886.1499	1450.8279	54598.55	53709.5
886.2933	1452.6545	54516.95	53632.9
886.4368	1454.4804	54458.05	53573.4
886.5802	1456.3056	54299.2	53407.65
886.7237	1458.13	54304.5	53419.5
886.8671	1459.9536	54458.2	53572.05
887.0105	1461.7766	54162.05	53275.05
887.1539	1463.5987	53917	53030.45
887.2972	1465.4202	53891.45	53006.95
887.4406	1467.2409	53745.3	52858.75
887.584	1469.0608	53530.95	52646.8
887.7273	1470.88	53530.05	52643.8
887.8706	1472.6984	53494.9	52610.1
888.0139	1474.5161	53170.3	52282.1
888.1572	1476.3331	53194.5	52308.6
888.3005	1478.1493	52983.95	52095.3
888.4438	1479.9648	52933.25	52046.3
888.5871	1481.7795	52920.4	52032.85
888.7303	1483.5935	52904.55	52018.4
888.8736	1485.4067	52646.1	51759.6
889.0168	1487.2192	52711.75	51825.25
889.16	1489.031	52566.3	51678.8
889.3032	1490.842	52583.95	51701.6
889.4464	1492.6522	52565.2	51679.9
889.5896	1494.4618	52373.4	51486.15
889.7327	1496.2705	52451.15	51566.25
889.8759	1498.0785	52181.1	51295.25
890.019	1499.8858	52221.15	51335.7
890.1622	1501.6924	52268.05	51381.8
890.3053	1503.4981	52055.85	51168.6
890.4484	1505.3032	52062.95	51176.25
890.5914	1507.1075	51888.6	51002.55
890.7345	1508.911	51861.65	50975.8
890.8776	1510.7138	51779.75	50893
891.0206	1512.5159	51771.95	50885.75
891.1637	1514.3172	51393	50507.8
891.3067	1516.1178	51421.3	50535.85
891.4497	1517.9176	51485.05	50596.7
891.5927	1519.7166	51248.4	50364.05
891.7357	1521.515	51164.05	50273.85
891.8786	1523.3126	50994.75	50108.75
892.0216	1525.1094	51042.75	50155.15
892.1645	1526.9055	50861.7	49975.85
892.3074	1528.7008	50838.75	49951.7
892.4503	1530.4954	50520.05	49632.3
892.5932	1532.2893	50664.15	49777.9
892.7361	1534.0824	50339.65	49447.65
892.879	1535.8747	50166.15	49281.1
893.0218	1537.6663	50435	49548.95
893.1647	1539.4572	49784.05	48897.75
893.3075	1541.2473	49974.95	49090.55
893.4503	1543.0367	49835.6	48950.2
893.5931	1544.8253	49666.1	48777.05
893.7359	1546.6132	49691	48802.25
893.8787	1548.4003	49489.65	48596.6
894.0214	1550.1867	49398.2	48503.6
894.1642	1551.9723	49373.6	48482.95
894.3069	1553.7572	49362.1	48476
894.4496	1555.5414	49384.25	48497.15
894.5923	1557.3247	48910.5	48025.95
894.735	1559.1074	49220.2	48336.45
894.8777	1560.8893	49016.05	48131.8
895.0204	1562.6705	49038.1	48154.1
895.163	1564.4509	48770.1	47884.8
895.3056	1566.2305	48775.5	47892.45
895.4482	1568.0094	48997.9	48113.6
895.5908	1569.7876	48772.2	47885.35
895.7334	1571.565	48557.6	47672.15
895.876	1573.3417	48623.4	47737.15
896.0186	1575.1176	48527.9	47642.25
896.1611	1576.8928	48454.55	47568.1
896.3036	1578.6672	48185.15	47297.8
896.4461	1580.4409	48210.1	47328.25
896.5886	1582.2138	47892.6	47005.75
896.7311	1583.986	47955.05	47071.95
896.8736	1585.7575	47767.4	46883.6
897.0161	1587.5282	47785.3	46900.5
897.1585	1589.2981	47774.75	46889.3
897.3009	1591.0673	47551.9	46666.85
897.4433	1592.8358	47462.6	46579.5
897.5857	1594.6035	47525.6	46639.9
897.7281	1596.3704	47479.65	46594.4
897.8705	1598.1366	47179.55	46294.45
898.0128	1599.9021	46970.05	46087.95
898.1551	1601.6668	47086.4	46200.55
898.2975	1603.4308	46938.25	46052.95
898.4398	1605.194	46994.05	46103.95
898.5821	1606.9564	46680.9	45796.55
898.7243	1608.7182	46840.1	45951.1
898.8666	1610.4791	46710.6	45824.55
899.0088	1612.2394	46761.95	45879.4
899.1511	1613.9988	46649.85	45765.2
899.2933	1615.7576	46797.85	45913.2
899.4355	1617.5156	46778.9	45888.45
899.5776	1619.2728	46970.5	46085.85
899.7198	1621.0293	46575.95	45692.4
899.862	1622.785	46426.6	45537.9
900.0041	1624.54	46398.2	45512.15
900.1462	1626.2942	46131.6	45246.9
900.2883	1628.0477	45659.05	44770.5
900.4304	1629.8005	45400.25	44513.65
900.5725	1631.5525	45459	44575.05
900.7145	1633.3037	45082.8	44199.05
900.8566	1635.0542	45000.6	44117.15
900.9986	1636.804	44957.85	44073.55
901.1406	1638.553	44699.6	43734.05
901.2826	1640.3013	44687.1	43803.1
901.4245	1642.0488	44406.4	43521.5
901.5665	1643.7955	44457.15	43576.5
901.7085	1645.5416	44277.85	43395.2
901.8504	1647.2868	44200.65	43316.75
901.9923	1649.0313	44241.2	43358.65
902.1342	1650.7751	44137.8	43248.85
902.2761	1652.5181	44002.3	43119.2
902.4179	1654.2604	43901	43016.8
902.5598	1656.0019	44015.25	43130.25
902.7016	1657.7427	43896.45	43013.7
902.8434	1659.4828	44071.05	43186.4
902.9852	1661.222	43938.9	43054.85
903.127	1662.9606	43959.75	43077.85
903.2687	1664.6984	43719.85	42835
903.4105	1666.4354	43646.4	42761.05
903.5522	1668.1717	43206.35	42322.3
903.6939	1669.9072	42806.15	41923.65
903.8356	1671.642	42647.55	41761.75
903.9773	1673.3761	42411	41528.95
904.119	1675.1094	42196.55	41312.2
904.2606	1676.8419	41940.65	41057.65
904.4022	1678.5737	41785.35	40901.8
904.5439	1680.3048	41579.6	40695.6
904.6855	1682.0351	41380.3	40499.25
904.827	1683.7646	41136.35	40251.55
904.9686	1685.4934	41111.95	40230.6
905.1101	1687.2215	40798.95	39914.15
905.2517	1688.9488	40785.95	39903.7
905.3932	1690.6754	40362.75	39479.4
905.5347	1692.4012	40465.1	39582.85
905.6761	1694.1263	40348.05	39466.45
905.8176	1695.8506	40170.75	39284.85
905.9591	1697.5742	40086.4	39204.85
906.1005	1699.297	39912.65	39029.8
906.2419	1701.0191	39769.6	38888.15
906.3833	1702.7404	39559.65	38675.05
906.5246	1704.461	39352.5	38467.15
906.666	1706.1808	39300.3	38416.85
906.8073	1707.8999	39219.3	38332.95
906.9487	1709.6182	39090.05	38208.8
907.09	1711.3358	38996.65	38113.9
907.2313	1713.0527	38859.85	37978.15
907.3725	1714.7688	38770.6	37882.5
907.5138	1716.4841	38447.45	37562.3
907.655	1718.1987	38475.2	37586.65
907.7962	1719.9126	38288.8	37405.85
907.9374	1721.6257	38222.4	37333.3
908.0786	1723.338	38215.4	37330.25
908.2198	1725.0496	37860.5	36978.15
908.3609	1726.7605	37880.1	36995.75
908.502	1728.4706	37743.25	36858.25
908.6431	1730.18	37585.05	36699.5
908.7842	1731.8886	37459.6	36575.8
908.9253	1733.5964	37352.45	36466.25
909.0664	1735.3036	37365.05	36478.6
909.2074	1737.0099	37259.75	36377.75
909.3484	1738.7156	37134.9	36253.7
909.4894	1740.4204	36945.3	36059.2
909.6304	1742.1246	36912.25	36028.35
909.7714	1743.8279	36860.45	35976.95
909.9123	1745.5306	36783.6	35899.25
910.0532	1747.2325	36576.5	35694.1
910.1941	1748.9336	36521.1	35640.45
910.335	1750.634	36394.95	35511.75
910.4759	1752.3336	36324.6	35442.9
910.6168	1754.0325	36234	35353.85
910.7576	1755.7307	36222.25	35339.25
910.8984	1757.4281	36125.6	35243.25
911.0392	1759.1247	36105.5	35214.4
911.18	1760.8206	35902.45	35015.85
911.3208	1762.5158	35861.55	34973.95
911.4615	1764.2102	35727.5	34844.25
911.6022	1765.9039	35599.55	34717.55
911.7429	1767.5968	35509.45	34625.35
911.8836	1769.289	35433.8	34550.5
912.0243	1770.9804	35346.95	34463.2
912.1649	1772.6711	35328.15	34445.8
912.3056	1774.361	35193.9	34309.8
912.4462	1776.0502	35174.65	34292.2
912.5868	1777.7386	34994.05	34106.9
912.7274	1779.4263	34948.25	34064.25
912.8679	1781.1132	34892	34009.65
913.0084	1782.7994	34763.6	33879.35
913.149	1784.4849	34726.45	33842.7
913.2895	1786.1696	34586.35	33698.1
913.4299	1787.8535	34514.75	33631.1
913.5704	1789.5367	34465.1	33581.35
913.7108	1791.2192	34338	33454.05
913.8513	1792.9009	34185.15	33273.4
913.9917	1794.5818	34145.1	33261.4
914.132	1796.2621	34049.2	33168.75
914.2724	1797.9415	33988.6	33105.9
914.4128	1799.6202	33862.55	32979.05
914.5531	1801.2982	33870.95	32987.1
914.6934	1802.9755	33727.5	32841.75
914.8337	1804.6519	33684.65	32800.25
914.9739	1806.3277	33585.25	32703.6
915.1142	1808.0027	33415.05	32532.55
915.2544	1809.6769	33433.55	32550.65
915.3946	1811.3504	33306.8	32421.65
915.5348	1813.0231	33185.45	32300.65
915.675	1814.6951	33202.8	32320.8
915.8151	1816.3664	33128.85	32244.3
915.9553	1818.0369	33043.1	32159.25
916.0954	1819.7067	32928.95	32048.65
916.2355	1821.3757	32884.1	32000.7
916.3755	1823.044	32820.35	31938.45
916.5156	1824.7115	32721	31837.8
916.6556	1826.3783	32560.15	31678.9
916.7956	1828.0443	32499.75	31618.15
916.9356	1829.7096	32478.95	31595.45
917.0756	1831.3741	32415.4	31529.25
917.2155	1833.0379	32301.7	31419.85
917.3555	1834.701	32242.6	31356.8
917.4954	1836.3633	32130.95	31247.15
917.6353	1838.0248	32114.8	31230
917.7751	1839.6856	32049.95	31168.1
917.915	1841.3457	31938.65	31057.5
918.0548	1843.005	31900.2	31015.7
918.1946	1844.6636	31873.7	30993.4
918.3344	1846.3214	31744.85	30861.15
918.4742	1847.9785	31709.9	30826.75
918.6139	1849.6349	31637.4	30754.05
918.7537	1851.2904	31614.65	30720.1
918.8934	1852.9453	31462.8	30580.2
919.0331	1854.5994	31361.1	30477.3
919.1727	1856.2528	31368.75	30481.5
919.3124	1857.9054	31306.85	30423.5
919.452	1859.5572	31276.95	30392.9
919.5916	1861.2083	31215.35	30331.15
919.7312	1862.8587	31173.45	30291.6
919.8708	1864.5084	31058.5	30172.45
920.0103	1866.1572	30975.35	30092.7
920.1498	1867.8054	30843.25	29961.1
920.2893	1869.4528	30779.2	29895.25
920.4288	1871.0994	30689	29805.4
920.5683	1872.7453	30652.8	29769.15
920.7077	1874.3905	30605.15	29715.2
920.8471	1876.0349	30459.9	29575.65
920.9865	1877.6786	30434.6	29550.15
921.1259	1879.3215	30381.55	29498.6
921.2653	1880.9637	30295.9	29412.85
921.4046	1882.6051	30284.85	29401.1
921.5439	1884.2458	30196.95	29313.2
921.6832	1885.8858	30082.3	29199.4
921.8225	1887.525	30044.8	29160.55
921.9617	1889.1634	29940.45	29055.85
922.101	1890.8011	29809.85	28927.55
922.2402	1892.4381	29769.35	28885.95
922.3794	1894.0743	29769	28889
922.5185	1895.7098	29662.75	28779
922.6577	1897.3446	29578.5	28694.6
922.7968	1898.9786	29484.45	28596.85
922.9359	1900.6118	29408.4	28528.7
923.075	1902.2443	29257.35	28372.65
923.214	1903.8761	29221.15	28339.9
923.3531	1905.5071	29051.2	28165.8
923.4921	1907.1374	28987.55	28102.9
923.6311	1908.7669	28923.8	28042.55
923.77	1910.3957	28875.75	27993.75
923.909	1912.0237	28708.8	27828.9
924.0479	1913.651	28683.75	27800.5
924.1868	1915.2776	28623.95	27742.55
924.3257	1916.9034	28498.25	27616.9
924.4646	1918.5285	28340.5	27459.9
924.6034	1920.1528	28215.75	27332.5
924.7422	1921.7764	28240.35	27356.95
924.881	1923.3992	28120.65	27238.1
925.0198	1925.0213	27891.7	27008.1
925.1586	1926.6427	27768.2	26886.7
925.2973	1928.2633	27835.6	26873.4
925.436	1929.8832	27663.45	26777.95
925.5747	1931.5023	27559.7	26676.65
925.7134	1933.1207	27510.45	26628.1
925.852	1934.7383	27422.35	26541.05
925.9906	1936.3552	27328.25	26445.8
926.1292	1937.9714	27291.65	26407.35
926.2678	1939.5868	27158.45	26277
926.4064	1941.2015	26982.15	26097.85
926.5449	1942.8154	26945	26061.5
926.6834	1944.4286	26838.85	25959.4
926.8219	1946.041	26724.8	25822.65
926.9604	1947.6528	26600.3	25712.55
927.0988	1949.2637	26512.35	25629.05
927.2372	1950.8739	26440.3	25555.6
927.3756	1952.4834	26431.25	25549.2
927.514	1954.0921	26332.7	25448.9
927.6523	1955.7001	26287.2	25400.25
927.7907	1957.3074	26169.35	25285.75
927.929	1958.9139	26068.8	25186.95
928.0673	1960.5197	25983.7	25098.5
928.2055	1962.1247	25845.1	24962.4
928.3438	1963.729	25719.15	24836.1
928.482	1965.3325	25643.5	24735.65
928.6202	1966.9353	25554.15	24672.4
928.7584	1968.5374	25497.2	24614.3
928.8965	1970.1387	25421.9	24540.65
929.0346	1971.7393	25359.25	24477.3
929.1727	1973.3392	25232.85	24351.75
929.3108	1974.9383	25149.15	24268.15
929.4489	1976.5366	25019.1	24135.6
929.5869	1978.1342	25008.9	24125.85
929.7249	1979.7311	24941.3	24055.15
929.8629	1981.3273	24833.65	23950.8
930.0009	1982.9227	24786.3	23903.55
930.1388	1984.5173	24671.3	23789.55
930.2767	1986.1112	24620.1	23738.55
930.4146	1987.7044	24575.8	23694.1
930.5525	1989.2968	24499.45	23616.55
930.6904	1990.8885	24418.3	23532.05
930.8282	1992.4795	24349.15	23464.75
930.966	1994.0697	24275.65	23395.05
931.1038	1995.6592	24157.5	23274.05
931.2415	1997.2479	24095.8	23213.1
931.3793	1998.8359	24015.25	23134.05
931.517	2000.4232	23948.25	23067.5
931.6547	2002.0097	23872.8	22992
931.7923	2003.5955	23753.6	22873.05
931.93	2005.1805	23722.05	22838
932.0676	2006.7648	23677.35	22794.35
932.2052	2008.3484	23560.9	22679.1
932.3427	2009.9312	23628.25	22744.95
932.4803	2011.5133	23503.9	22621.3
932.6178	2013.0946	23438.8	22556.55
932.7553	2014.6752	23348.7	22467.55
932.8928	2016.2551	23307.55	22425.85
933.0302	2017.8342	23204.25	22322.7
933.1676	2019.4126	23137.7	22256.15
933.305	2020.9902	22987.05	22105.25
933.4424	2022.5672	22955.75	22072.95
933.5798	2024.1433	22928.35	22040.7
933.7171	2025.7188	22801.5	21919.05
933.8544	2027.2935	22762.75	21879.05
933.9917	2028.8674	22696.25	21812.15
934.129	2030.4406	22607.1	21727.1
934.2662	2032.0131	22517.15	21637.65
934.4034	2033.5849	22423.35	21531.15
934.5406	2035.1559	22394.7	21512.25
934.6778	2036.7261	22381.95	21499.8
934.8149	2038.2957	22261	21377.65
934.952	2039.8645	22242.3	21361.15
935.0891	2041.4325	22202.95	21319.4
935.2262	2042.9998	22109.55	21227.65
935.3632	2044.5664	22090.4	21204.85
935.5002	2046.1323	22016.8	21133.45
935.6372	2047.6974	21954.1	21073
935.7742	2049.2617	21873.9	20991.4
935.9111	2050.8254	21857.15	20972.2
936.048	2052.3883	21831.9	20949.3
936.1849	2053.9504	21748.5	20865.4
936.3218	2055.5118	21646.4	20763.2
936.4586	2057.0725	21557.3	20670.8
936.5955	2058.6325	21516.35	20632.55
936.7323	2060.1917	21410.1	20527.85
936.869	2061.7502	21392.5	20507.25
937.0058	2063.3079	21319.75	20438.8
937.1425	2064.8649	21258.45	20372.5
937.2792	2066.4212	21159.95	20276.2
937.4159	2067.9767	21125.3	20244.4
937.5525	2069.5315	21040.15	20158.2
937.6891	2071.0856	20931.75	20049.3
937.8257	2072.6389	20840.75	19957.1
937.9623	2074.1915	20783.4	19902.15
938.0989	2075.7433	20677.65	19792.65
938.2354	2077.2945	20615	19734.6
938.3719	2078.8448	20578.15	19698.05
938.5084	2080.3945	20460.95	19577.65
938.6448	2081.9434	20459.4	19577.65
938.7812	2083.4916	20409.75	19526.5
938.9176	2085.039	20333.45	19449.9
939.054	2086.5857	20293.3	19408.2
939.1903	2088.1317	20250.9	19369.1
939.3267	2089.677	20191.45	19309.25
939.463	2091.2215	20153.45	19270.35
939.5992	2092.7652	20057.3	19173.6
939.7355	2094.3083	20036.4	19153.3
939.8717	2095.8506	20028.1	19146.25
940.0079	2097.3921	19991.7	19110.8
940.1441	2098.933	19911.15	19031
940.2802	2100.4731	19836.65	18954.45
940.4163	2102.0124	19804.55	18903.5
940.5524	2103.5511	19763.3	18880.75
940.6885	2105.089	19731.5	18849.15
940.8245	2106.6261	19671.45	18789.35
940.9606	2108.1626	19630.1	18747.7
941.0965	2109.6983	19617.35	18704.5
941.2325	2111.2332	19545.35	18663.45
941.3684	2112.7675	19472.2	18589.75
941.5044	2114.301	19366	18483.05
941.6403	2115.8337	19381.5	18501.8
941.7761	2117.3657	19310.3	18429.05
941.912	2118.897	19248.6	18365.25
942.0478	2120.4276	19234.2	18345.15
942.1835	2121.9575	19123.2	18240.7
942.3193	2123.4866	19118.55	18222.75
942.455	2125.0149	19036.6	18152.75
942.5907	2126.5426	18908.15	18024.85
942.7264	2128.0695	18875.85	17989.65
942.8621	2129.5956	18859.9	17979.95
942.9977	2131.1211	18831.6	17943.4
943.1333	2132.6458	18767.3	17886.45
943.2689	2134.1698	18727.65	17844.1
943.4044	2135.693	18663.45	17779.8
943.54	2137.2155	18612.15	17727.5
943.6755	2138.7373	18583.2	17700.95
943.8109	2140.2584	18479.8	17597.65
943.9464	2141.7787	18433.35	17545.85
944.0818	2143.2983	18386.8	17504.95
944.2172	2144.8171	18285.35	17403.9
944.3526	2146.3353	18290.05	17405.45
944.4879	2147.8527	18157.5	17276.5
944.6232	2149.3693	18142	17260.45
944.7585	2150.8853	18089.8	17207.95
944.8938	2152.4005	17986.75	17104.25
945.029	2153.9149	17974.95	17095
945.1642	2155.4287	17926.8	17046.45
945.2994	2156.9417	17865.85	16982.3
945.4346	2158.454	17803.5	16918.15
945.5697	2159.9655	17795.4	16912.65
945.7048	2161.4764	17752.95	16871
945.8399	2162.9865	17705.05	16824
945.9749	2164.4958	17667.5	16783
946.1099	2166.0045	17562.4	16677.8
946.2449	2167.5124	17521.95	16640.1
946.3799	2169.0195	17491.9	16608.05
946.5148	2170.526	17450.4	16565.95
946.6498	2172.0317	17392.95	16510.4
946.7846	2173.5367	17362.85	16481.15
946.9195	2175.0409	17272.15	16390.55
947.0543	2176.5445	17275.15	16394.5
947.1891	2178.0473	17207.05	16326.35
947.3239	2179.5494	17113.5	16227.65
947.4587	2181.0507	17080.25	16200.05
947.5934	2182.5513	17072.7	16189.15
947.7281	2184.0512	17001.5	16120.5
947.8628	2185.5504	16938.3	16055.95
947.9974	2187.0488	16840.05	15956.55
948.132	2188.5465	16786.35	15905.35
948.2666	2190.0435	16743.55	15860.85
948.4012	2191.5397	16673.45	15791.15
948.5357	2193.0353	16652.75	15771.65
948.6702	2194.5301	16536.65	15653.25
948.8047	2196.0241	16474.35	15591.25
948.9392	2197.5175	16476	15593.75
949.0736	2199.0101	16380.65	15496.15
949.208	2200.502	16299.15	15417.05
949.3424	2201.9931	16281.85	15399.35
949.4767	2203.4835	16206.05	15322.55
949.611	2204.9733	16176.05	15288.7
949.7453	2206.4622	16128.25	15247.55
949.8796	2207.9505	16031.9	15147.45
950.0138	2209.438	15954.7	15073.95
950.148	2210.9248	15923.65	15040.55
950.2822	2212.4109	15922.85	15041.65
950.4164	2213.8962	15825.4	14939.25
950.5505	2215.3809	15776.95	14893.35
950.6846	2216.8648	15763.95	14880.5
950.8186	2218.3479	15710.4	14824.4
950.9527	2219.8304	15641.8	14754.5
951.0867	2221.3121	15600.55	14717.3
951.2207	2222.7931	15527.75	14645.6
951.3546	2224.2733	15468.45	14585.55
951.4886	2225.7529	15428.45	14545.3
951.6225	2227.2317	15361.9	14476.8
951.7563	2228.7098	15340.25	14459.8
951.8902	2230.1872	15298.4	14417
952.024	2231.6638	15260.45	14377.7
952.1578	2233.1397	15200.05	14312.5
952.2916	2234.6149	15124.35	14243.1
952.4253	2236.0894	15075.4	14192.45
952.559	2237.5632	15057.6	14175.05
952.6927	2239.0362	14986.75	14104.3
952.8263	2240.5085	14963.35	14082.4
952.9599	2241.9801	14896.1	14013.1
953.0935	2243.4509	14838.15	13957.05
953.2271	2244.921	14812.5	13931.45
953.3606	2246.3904	14762.3	13878.1
953.4941	2247.8591	14705.95	13823.05
953.6276	2249.3271	14638.05	13756.85
953.7611	2250.7943	14578.15	13695.5
953.8945	2252.2608	14534.9	13652.45
954.0279	2253.7266	14520.3	13638.7
954.1612	2255.1917	14489.05	13605.6
954.2946	2256.656	14414.6	13532.2
954.4279	2258.1197	14383.55	13500.9
954.5612	2259.5826	14359.9	13477.7
954.6944	2261.0447	14311.65	13427.4
954.8276	2262.5062	14250.65	13367.35
954.9608	2263.9669	14228.75	13345.45
955.094	2265.4269	14212.05	13329.65
955.2271	2266.8862	14145	13263.8
955.3602	2268.3448	14126.4	13243.85
955.4933	2269.8026	14098.35	13217.3
955.6264	2271.2598	14075.65	13195.55
955.7594	2272.7162	14003.7	13121.95
955.8924	2274.1719	13941.25	13059.05
956.0253	2275.6268	13885.1	13003.45
956.1583	2277.0811	13877.95	12993
956.2912	2278.5346	13823.95	12943.5
956.4241	2279.9874	13800.95	12919.2
956.5569	2281.4395	13752.4	12873.35
956.6897	2282.8908	13701.45	12813.55
956.8225	2284.3414	13687.5	12803.05
956.9553	2285.7914	13639.65	12755.95
957.088	2287.2406	13601.7	12717.4
957.2207	2288.689	13556.7	12673.2
957.3534	2290.1368	13533.6	12648.95
957.486	2291.5838	13462.85	12578.7
957.6186	2293.0302	13418.05	12537.6
957.7512	2294.4758	13387.5	12505.3
957.8838	2295.9206	13312.7	12429
958.0163	2297.3648	13262.6	12382.55
958.1488	2298.8082	13275.5	12390.5
958.2813	2300.251	13219.65	12337.15
958.4137	2301.693	13176.6	12291.75
958.5461	2303.1343	13155.3	12271.4
958.6785	2304.5748	13082.05	12200.55
958.8108	2306.0147	13075.45	12194.1
958.9432	2307.4538	13050.85	12167.05
959.0754	2308.8922	12986.65	12107.35
959.2077	2310.3299	12942.8	12060.55
959.3399	2311.7669	12923.1	12042.2
959.4721	2313.2031	12878.9	11996.15
959.6043	2314.6387	12782.8	11900.65
959.7365	2316.0735	12769.6	11886.8
959.8686	2317.5076	12747	11867.8
960.0006	2318.941	12719.45	11838.35
960.1327	2320.3737	12688.2	11804.7
960.2647	2321.8056	12647.4	11764.35
960.3967	2323.2369	12608	11725.3
960.5287	2324.6674	12570.5	11684.75
960.6606	2326.0972	12515.5	11631.1
960.7925	2327.5263	12474.75	11591.35
960.9244	2328.9547	12444.4	11561.75
961.0562	2330.3823	12400.6	11517.2
961.1881	2331.8092	12410.45	11526.3
961.3198	2333.2355	12332.9	11452.65
961.4516	2334.661	12323.1	11440.1
961.5833	2336.0858	12302.75	11418.05
961.715	2337.5098	12245.7	11363.6
961.8467	2338.9332	12212.45	11329.75
961.9783	2340.3558	12173.55	11287.3
962.1099	2341.7778	12140.05	11256.05
962.2415	2343.199	12093.6	11210.25
962.373	2344.6195	12055.85	11174.55
962.5045	2346.0393	12010.5	11129.2
962.636	2347.4583	12017.6	11136.55
962.7675	2348.8767	11952.85	11069.5
962.8989	2350.2943	11912.75	11029.15
963.0303	2351.7113	11895.85	11013.75
963.1617	2353.1275	11852.75	10970
963.293	2354.543	11794.45	10904.7
963.4243	2355.9578	11776.15	10891.3
963.5556	2357.3718	11697.75	10814.65
963.6868	2358.7852	11622.3	10737
963.818	2360.1978	11597.75	10713.45
963.9492	2361.6098	11587.55	10705.75
964.0803	2363.021	11552.8	10667.25
964.2114	2364.4315	11544.45	10664
964.3425	2365.8413	11470	10585.15
964.4736	2367.2504	11443.35	10562.25
964.6046	2368.6587	11371.35	10490.1
964.7356	2370.0664	11317.05	10434.95
964.8666	2371.4733	11291	10408.65
964.9975	2372.8795	11275.85	10394.7
965.1284	2374.285	11254.65	10371.25
965.2593	2375.6899	11177.35	10296.45
965.3901	2377.0939	11133.85	10252.75
965.5209	2378.4973	11102.1	10221
965.6517	2379.9	11070.3	10188.65
965.7825	2381.3019	10995.85	10112.65
965.9132	2382.7032	10966.15	10085.7
966.0439	2384.1037	10968.75	10089.75
966.1745	2385.5035	10927.35	10043.7
966.3051	2386.9027	10896.35	10014.55
966.4357	2388.3011	10875.25	9988.6
966.5663	2389.6987	10830.85	9947.4
966.6968	2391.0957	10801.35	9919.8
966.8273	2392.492	10748.55	9866.2
966.9578	2393.8876	10686.1	9805.25
967.0882	2395.2824	10666.2	9784.4
967.2186	2396.6765	10604.75	9723.35
967.349	2398.07	10566	9685.7
967.4793	2399.4627	10537.05	9654.15
967.6097	2400.8547	10546.9	9665.75
967.7399	2402.246	10485.55	9598.25
967.8702	2403.6366	10424.9	9543.2
968.0004	2405.0265	10367.85	9485.5
968.1306	2406.4156	10376	9488.5
968.2607	2407.8041	10301.85	9417.2
968.3909	2409.1918	10260.3	9377.1
968.521	2410.5789	10236.2	9354.4
968.651	2411.9652	10229.65	9347.15
968.781	2413.3508	10190.2	9308.05
968.911	2414.7358	10118.9	9236.5
969.041	2416.12	10089.5	9210.4
969.1709	2417.5035	10074.4	9193.6
969.3008	2418.8863	10033.05	9150.4
969.4307	2420.2684	10002.35	9120.25
969.5606	2421.6497	9923.2	9040.45
969.6904	2423.0304	9891.8	9011.05
969.8201	2424.4104	9859.1	8977.7
969.9499	2425.7896	9811.25	8926.45
970.0796	2427.1682	9808.25	8924.85
970.2093	2428.546	9768.7	8883.85
970.3389	2429.9232	9750.4	8868.45
970.4685	2431.2996	9733.7	8851.55
970.5981	2432.6753	9692.4	8811.05
970.7277	2434.0503	9695.7	8814.2
970.8572	2435.4246	9621.8	8740.5
970.9867	2436.7982	9604.6	8721.8
971.1161	2438.1711	9594.15	8714.15
971.2456	2439.5433	9569.8	8685.15
971.375	2440.9148	9510.65	8628.05
971.5043	2442.2856	9462	8582.05
971.6336	2443.6557	9435.2	8552.9
971.7629	2445.025	9396.6	8514.55
971.8922	2446.3937	9371.1	8489.75
972.0214	2447.7617	9328.15	8447.1
972.1506	2449.1289	9334.35	8453.4
972.2798	2450.4955	9313.5	8428.6
972.4089	2451.8613	9288.35	8408.35
972.538	2453.2265	9262.4	8382.35
972.6671	2454.5909	9236.75	8353.35
972.7961	2455.9546	9209.95	8328.85
972.9251	2457.3177	9158.75	8278.1
973.0541	2458.68	9131.1	8248.15
973.1831	2460.0416	9124.55	8243.35
973.312	2461.4025	9115.15	8232.3
973.4408	2462.7627	9069.25	8177.9
973.5697	2464.1222	9042.85	8161.8
973.6985	2465.4811	9035.65	8154.05
973.8273	2466.8392	8980.2	8097.8
973.956	2468.1966	8946.95	8062.4
974.0847	2469.5533	8936.45	8053.25
974.2134	2470.9093	8923.85	8040.95
974.3421	2472.2645	8880	7994.85
974.4707	2473.6191	8872.85	7990.1
974.5993	2474.973	8825.75	7943.65
974.7278	2476.3262	8799.15	7914.95
974.8563	2477.6787	8757.65	7876.05
974.9848	2479.0305	8714	7832.25
975.1132	2480.3816	8679.2	7796.6
975.2417	2481.7319	8671.5	7790.35
975.37	2483.0816	8635.55	7749.95
975.4984	2484.4306	8571.65	7689.55
975.6267	2485.7789	8583.2	7702.7
975.755	2487.1264	8538.5	7654.2
975.8833	2488.4733	8500.1	7618.5
976.0115	2489.8195	8483.05	7593.65
976.1397	2491.165	8440.35	7555
976.2678	2492.5097	8424.25	7540.6
976.3959	2493.8538	8381.85	7499.35
976.524	2495.1972	8341.75	7460.2
976.6521	2496.5398	8301.3	7416.8
976.7801	2497.8818	8282.85	7397.65
976.9081	2499.2231	8276.8	7396
977.036	2500.5637	8231.7	7348.2
977.164	2501.9035	8217.9	7335.75
977.2918	2503.2427	8193.35	7307.55
977.4197	2504.5812	8158.4	7277.1
977.5475	2505.919	8133.9	7249.1
977.6753	2507.256	8122	7241.15
977.8031	2508.5924	8093.2	7213.35
977.9308	2509.9281	8044.4	7158.15
978.0585	2511.2631	8035.1	7153.1
978.1861	2512.5974	8011.95	7132.7
978.3137	2513.9309	7991.75	7109.15
978.4413	2515.2638	7994.95	7084.8
978.5689	2516.596	7954.7	7071.85
978.6964	2517.9275	7886.75	7002.1
978.8239	2519.2583	7866.55	6983.7
978.9513	2520.5884	7842.7	6960.9
979.0788	2521.9178	7812.8	6929.95
979.2062	2523.2465	7801.95	6919.45
979.3335	2524.5745	7758.9	6879.1
979.4608	2525.9018	7752.6	6868.65
979.5881	2527.2284	7718.65	6837.45
979.7154	2528.5543	7710.3	6826.85
979.8426	2529.8796	7685.05	6803.3
979.9698	2531.2041	7636.6	6754.4
980.0969	2532.5279	7625.85	6746.1
980.224	2533.851	7616.65	6734.8
980.3511	2535.1735	7584.5	6706.15
980.4781	2536.4952	7560.5	6677.55
980.6052	2537.8163	7564.95	6684.65
980.7321	2539.1366	7544.55	6662.2
980.8591	2540.4562	7509.9	6628.45
980.986	2541.7752	7498.45	6618.95
981.1129	2543.0935	7485.6	6602.35
981.2397	2544.411	7443.2	6562.75
981.3665	2545.7279	7445.2	6562.9
981.4933	2547.0441	7439.15	6557.85
981.62	2548.3596	7417.15	6532.35
981.7467	2549.6744	7383.5	6502.6
981.8734	2550.9885	7379	6489.55
982.0001	2552.3019	7370.8	6488.55
982.1267	2553.6146	7351.95	6472.35
982.2532	2554.9266	7321.25	6439.9
982.3798	2556.2379	7292.5	6409.9
982.5063	2557.5485	7268.6	6388.5
982.6327	2558.8585	7264.25	6376.65
982.7592	2560.1677	7242.9	6358.15
982.8856	2561.4762	7223.4	6342.3
983.0119	2562.7841	7232.05	6347.85
983.1383	2564.0913	7193.35	6313.25
983.2646	2565.3977	7177.15	6296.7
983.3908	2566.7035	7155.6	6272.85
983.517	2568.0086	7168.2	6284.75
983.6432	2569.313	7137.15	6255.95
983.7694	2570.6167	7133.9	6247.95
983.8955	2571.9197	7106.05	6223.2
984.0216	2573.222	7093.5	6207.95
984.1476	2574.5236	7064.65	6182.7
984.2737	2575.8246	7078.6	6192.5
984.3996	2577.1248	7037.45	6151.8
984.5256	2578.4244	7034.15	6153.55
984.6515	2579.7232	7014.4	6130.6
984.7774	2581.0214	7004.25	6096.7
984.9032	2582.3189	6991.15	6110.8
985.029	2583.6157	6983.7	6096.55
985.1548	2584.9118	6962.6	6079.7
985.2806	2586.2072	6926.45	6045.45
985.4063	2587.5019	6909.65	6029.8
985.5319	2588.7959	6882.75	5999.75
985.6576	2590.0893	6879.8	5995.75
985.7832	2591.3819	6852.6	5973.45
985.9087	2592.6739	6832	5950.8
986.0343	2593.9652	6793.25	5909.3
986.1597	2595.2557	6776.05	5894.1
986.2852	2596.5456	6758.85	5876.3
986.4106	2597.8348	6720.4	5840.3
986.536	2599.1234	6715.7	5835.25
986.6614	2600.4112	6680.4	5799.6
986.7867	2601.6983	6670.3	5786.45
986.912	2602.9848	6655	5773.3
987.0372	2604.2705	6604.8	5716.5
987.1624	2605.5556	6614.45	5732.9
987.2876	2606.84	6593.6	5714.05
987.4128	2608.1237	6557.8	5674.4
987.5379	2609.4067	6528.15	5647.9
987.6629	2610.689	6512.75	5622.65
987.788	2611.9707	6480.65	5594.8
987.913	2613.2516	6474.25	5588.9
988.0379	2614.5319	6414.35	5532.2
988.1629	2615.8115	6402.7	5520.1
988.2878	2617.0903	6388.05	5506.25
988.4126	2618.3685	6368.8	5486.15
988.5375	2619.6461	6337.75	5457.5
988.6622	2620.9229	6325.55	5441.35
988.787	2622.199	6303.45	5421.05
988.9117	2623.4745	6298.15	5416.35
989.0364	2624.7493	6259.15	5378.1
989.161	2626.0234	6244.8	5363.2
989.2857	2627.2968	6242.55	5359.25
989.4102	2628.5695	6207.3	5324.8
989.5348	2629.8415	6171.65	5292.55
989.6593	2631.1128	6161.55	5278.05
989.7837	2632.3835	6117.35	5237.35
989.9082	2633.6535	6104.15	5220.55
990.0326	2634.9228	6085.95	5206.9
990.1569	2636.1914	6055.65	5173.3
990.2812	2637.4593	6055.95	5169.55
990.4055	2638.7265	6039.45	5157.55
990.5298	2639.9931	6008.2	5126.5
990.654	2641.259	5995.35	5113.05
990.7782	2642.5242	5979.7	5099.15
990.9023	2643.7887	5973.1	5091.75
991.0264	2645.0525	5945.95	5064.7
991.1505	2646.3156	5925.2	5042.85
991.2745	2647.5781	5901.55	5018
991.3985	2648.8398	5884.7	5004.8
991.5225	2650.1009	5889.25	4969.7
991.6464	2651.3613	5857.2	4975.8
991.7703	2652.6211	5832.25	4951.2
991.8942	2653.8801	5820.4	4940.95
992.018	2655.1385	5802.15	4915.85
992.1418	2656.3961	5789.05	4905.85
992.2655	2657.6531	5780.25	4897.95
992.3892	2658.9094	5770.1	4888.25
992.5129	2660.1651	5753.7	4872.7
992.6366	2661.42	5740.8	4859.5
992.7602	2662.6743	5709.7	4827.45
992.8837	2663.9279	5704.45	4823.15
993.0073	2665.1808	5684.95	4803.6
993.1307	2666.433	5684.5	4800.85
993.2542	2667.6846	5651.45	4769.65
993.3776	2668.9354	5646.8	4761.7
993.501	2670.1856	5607.85	4723.6
993.6244	2671.4351	5619.6	4740.1
993.7477	2672.6839	5597.35	4713.2
993.8709	2673.9321	5570.3	4688.65
993.9942	2675.1795	5560.7	4679.35
994.1174	2676.4263	5546.55	4664.6
994.2405	2677.6724	5530.5	4650.5
994.3637	2678.9179	5517.5	4635.95
994.4868	2680.1626	5500.5	4620.8
994.6098	2681.4067	5492.1	4610.85
994.7328	2682.6501	5464.05	4582.25
994.8558	2683.8928	5447.5	4564.2
994.9788	2685.1348	5433.5	4553.65
995.1017	2686.3761	5388.55	4506.4
995.2245	2687.6168	5396.1	4516.65
995.3474	2688.8568	5378.55	4497.15
995.4702	2690.0961	5351.4	4470.3
995.5929	2691.3348	5351.3	4469.2
995.7156	2692.5727	5336.15	4455.3
995.8383	2693.81	5302.7	4420.65
995.961	2695.0466	5315.5	4436.9
996.0836	2696.2826	5282.45	4400.3
996.2062	2697.5178	5270.15	4386.35
996.3287	2698.7524	5236.75	4355
996.4512	2699.9863	5249.95	4365
996.5737	2701.2195	5224.15	4343.2
996.6961	2702.452	5204.75	4322.55
996.8185	2703.6839	5200.75	4317.55
996.9408	2704.9151	5179.3	4298.1
997.0631	2706.1456	5162.15	4279.6
997.1854	2707.3755	5142.25	4261.25
997.3077	2708.6046	5133.9	4250.05
997.4299	2709.8331	5115.2	4235.1
997.552	2711.0609	5098.2	4217.1
997.6742	2712.2881	5086.6	4204.35
997.7963	2713.5145	5086.6	4202.5
997.9183	2714.7403	5068.45	4187.4
998.0403	2715.9654	5052.15	4171.3
998.1623	2717.1899	5036.4	4152.45
998.2842	2718.4136	5028.7	4147.4
998.4062	2719.6367	4996.15	4115.65
998.528	2720.8591	4998.35	4111.85
998.6498	2722.0809	4971.15	4088.85
998.7716	2723.3019	4971.6	4085.3
998.8934	2724.5223	4946.6	4063.75
999.0151	2725.7421	4925.5	4043.05
999.1368	2726.9611	4916.8	4032.65
999.2584	2728.1795	4925.9	4040.4
999.38	2729.3972	4875.45	3994.05
999.5016	2730.6142	4883.35	3992.7
999.6231	2731.8306	4847.4	3966.05
999.7446	2733.0462	4806.9	3924.55
999.8661	2734.2612	4815.75	3930.75
999.9875	2735.4756	4773.3	3890.85
1000.1089	2736.6892	4757.7	3875.75
1000.2302	2737.9022	4732.45	3852.6
1000.3515	2739.1145	4707.85	3823.5
1000.4728	2740.3262	4700.05	3813.65
1000.594	2741.5372	4671.35	3791.15
1000.7152	2742.7475	4646.75	3763.8
1000.8363	2743.9571	4647.8	3764.75
1000.9575	2745.1661	4625.5	3737.6
1001.0785	2746.3744	4604.55	3721.95
1001.1996	2747.582	4595.35	3713.05
1001.3206	2748.7889	4566.75	3685.45
1001.4415	2749.9952	4559.6	3678.65
1001.5625	2751.2008	4557.8	3674.65
1001.6833	2752.4057	4531.6	3648.5
1001.8042	2753.61	4543.1	3660.4
1001.925	2754.8136	4504.75	3621.45
1002.0458	2756.0165	4480.65	3599.85
1002.1665	2757.2188	4455.3	3571.95
1002.2872	2758.4204	4447.35	3565.55
1002.4078	2759.6213	4427.3	3543.85
1002.5285	2760.8215	4440.75	3555.75
1002.649	2762.0211	4419.4	3538
1002.7696	2763.22	4405.75	3520.95
1002.8901	2764.4182	4394.65	3514.4
1003.0106	2765.6158	4382.9	3498
1003.131	2766.8127	4358.55	3476.5
1003.2514	2768.009	4335.8	3452.75
1003.3717	2769.2045	4343.25	3461.35
1003.492	2770.3994	4321.4	3437.85
1003.6123	2771.5936	4307.55	3424.85
1003.7325	2772.7872	4293.65	3412.55
1003.8527	2773.9801	4278.65	3395.2
1003.9729	2775.1723	4288.35	3390.9
1004.093	2776.3639	4256.85	3376.2
1004.2131	2777.5548	4227.2	3343.75
1004.3331	2778.745	4219.35	3337.55
1004.4531	2779.9346	4202.3	3321.6
1004.5731	2781.1235	4213.2	3329.85
1004.693	2782.3117	4201.5	3321.25
1004.8129	2783.4992	4186.25	3305.55
1004.9328	2784.6861	4178.15	3294.85
1005.0526	2785.8723	4165.1	3284.35
1005.1723	2787.0579	4157.95	3275.4
1005.2921	2788.2428	4140	3257.15
1005.4118	2789.427	4105.25	3223.9
1005.5314	2790.6106	4102.45	3223.45
1005.651	2791.7935	4110.65	3229.35
1005.7706	2792.9757	4091	3209.8
1005.8902	2794.1573	4083.9	3199.4
1006.0097	2795.3382	4067.4	3188.05
1006.1291	2796.5184	4050.8	3169.9
1006.2485	2797.698	4054.2	3170.9
1006.3679	2798.8769	4039.2	3158.4
1006.4873	2800.0551	4032.65	3150.95
1006.6066	2801.2327	4009.25	3124.45
1006.7258	2802.4096	3999.3	3118.35
1006.8451	2803.5859	4011.1	3130.35
1006.9642	2804.7615	3998.85	3117.85
1007.0834	2805.9364	3994.35	3115.75
1007.2025	2807.1106	3992.3	3112.3
1007.3216	2808.2842	3993.55	3110.05
1007.4406	2809.4572	3996.15	3115.85
1007.5596	2810.6294	3995.25	3111.5
1007.6785	2811.801	4004	3124.25
1007.7975	2812.972	4011.25	3130.8
1007.9163	2814.1423	4009.25	3127.15
1008.0352	2815.3119	4019.35	3136.65
1008.154	2816.4808	4026.55	3145.4
1008.2727	2817.6491	4025.65	3143.2
1008.3914	2818.8167	4037	3157.7
1008.5101	2819.9837	4058.9	3172.15
1008.6288	2821.15	4074.3	3192.8
1008.7474	2822.3157	4089.5	3208.2
1008.8659	2823.4807	4104.1	3221.25
1008.9844	2824.645	4113.9	3231.45
1009.1029	2825.8086	4128.4	3246.3
1009.2214	2826.9716	4151.3	3270.3
1009.3398	2828.134	4173.15	3292.45
1009.4581	2829.2957	4192.65	3313.1
1009.5764	2830.4567	4184.7	3305
1009.6947	2831.617	4181.5	3300.7
1009.813	2832.7767	4189.05	3306.85
1009.9312	2833.9358	4168.4	3289.5
1010.0493	2835.0941	4162.85	3279.9
1010.1675	2836.2519	4151.45	3270.6
1010.2855	2837.4089	4137.5	3255.4
1010.4036	2838.5653	4118.35	3237
1010.5216	2839.7211	4109.85	3228.95
1010.6396	2840.8761	4092.7	3209.45
1010.7575	2842.0306	4093.3	3214.85
1010.8754	2843.1843	4097.05	3217.1
1010.9932	2844.3374	4093.85	3214.75
1011.111	2845.4899	4105.75	3225
1011.2288	2846.6417	4129.9	3249.55
1011.3465	2847.7928	4155.8	3275.95
1011.4642	2848.9433	4162.1	3281.95
1011.5818	2850.0931	4187.65	3305.85
1011.6995	2851.2422	4191.05	3307.3
1011.817	2852.3907	4230.8	3349.05
1011.9345	2853.5385	4234.95	3352.65
1012.052	2854.6857	4274.35	3380.7
1012.1695	2855.8323	4262.9	3383.05
1012.2869	2856.9781	4281.3	3400.35
1012.4042	2858.1233	4295.5	3414.65
1012.5216	2859.2679	4308.5	3429.3
1012.6389	2860.4118	4307.5	3426.15
1012.7561	2861.555	4319.8	3434.6
1012.8733	2862.6976	4317.75	3435.45
1012.9905	2863.8395	4330.75	3447.05
1013.1076	2864.9808	4318.65	3438.25
1013.2247	2866.1214	4327	3448
1013.3417	2867.2614	4322.45	3443.2
1013.4587	2868.4007	4321.2	3439.85
1013.5757	2869.5393	4318.5	3437.25
1013.6926	2870.6773	4321.85	3437.15
1013.8095	2871.8146	4327.65	3443.8
1013.9263	2872.9513	4289.05	3404.8
1014.0431	2874.0874	4281.7	3400.65
1014.1599	2875.2227	4276.95	3395.4
1014.2766	2876.3574	4247.85	3367.85
1014.3933	2877.4915	4211.15	3329.65
1014.51	2878.6249	4210.35	3329
1014.6266	2879.7577	4183.75	3300.15
1014.7431	2880.8898	4182.7	3288.1
1014.8596	2882.0212	4152.8	3271.7
1014.9761	2883.152	4154.45	3271.25
1015.0925	2884.2821	4128.65	3248.35
1015.2089	2885.4116	4111.5	3232.15
1015.3253	2886.5405	4109.1	3227.4
1015.4416	2887.6686	4099.45	3213.75
1015.5579	2888.7962	4098.85	3219.55
1015.6741	2889.923	4081.9	3200.3
1015.7903	2891.0493	4075.1	3194.3
1015.9065	2892.1748	4065.65	3185.3
1016.0226	2893.2997	4052.6	3169.85
1016.1387	2894.424	4052.05	3172.15
1016.2547	2895.5476	4035.6	3153.95
1016.3707	2896.6706	4057.4	3174.75
1016.4866	2897.7929	4039.8	3157.45
1016.6025	2898.9145	4039.55	3159.2
1016.7184	2900.0355	4046.9	3166.75
1016.8342	2901.1559	4052	3169.2
1016.95	2902.2756	4036.6	3157.85
1017.0658	2903.3946	4053.45	3172.05
1017.1815	2904.513	4062.95	3179.85
1017.2971	2905.6308	4060.45	3178.9
1017.4127	2906.7479	4056.3	3173.05
1017.5283	2907.8643	4063.35	3181.2
1017.6439	2908.9801	4063.8	3181.75
1017.7594	2910.0953	4051.75	3170.35
1017.8748	2911.2098	4028.85	3141.95
1017.9902	2912.3236	4030.65	3142.05
1018.1056	2913.4368	4010.85	3128.75
1018.2209	2914.5494	4000.15	3121.6
1018.3362	2915.6613	3991.25	3103.8
1018.4515	2916.7725	3955.6	3071.3
1018.5667	2917.8831	3944	3062.95
1018.6819	2918.9931	3917.45	3033.8
1018.797	2920.1024	3901.25	3020.35
1018.9121	2921.211	3883.8	3001.3
1019.0271	2922.319	3869.2	2987.6
1019.1421	2923.4264	3855.05	2973.65
1019.2571	2924.5331	3839.45	2957.6
1019.372	2925.6391	3826	2943.65
1019.4869	2926.7445	3810.85	2931.6
1019.6017	2927.8493	3817.1	2937.1
1019.7165	2928.9534	3810.1	2928.2
1019.8313	2930.0569	3807.95	2925.85
1019.946	2931.1597	3785.9	2901.5
1020.0606	2932.2619	3798.95	2918.55
1020.1753	2933.3634	3786.95	2908.05
1020.2899	2934.4643	3783	2894.8
1020.4044	2935.5645	3783.4	2897.2
1020.5189	2936.6641	3756	2871.3
1020.6334	2937.763	3730.75	2849.6
1020.7478	2938.8613	3703.65	2821.2
1020.8622	2939.959	3689.4	2801.8
1020.9765	2941.056	3625.05	2746.2
1021.0908	2942.1523	3591.15	2708.85
1021.2051	2943.248	3572.1	2691.25
1021.3193	2944.3431	3514	2634.2
1021.4334	2945.4375	3456.35	2574.75
1021.5476	2946.5313	3405	2526.8
1021.6617	2947.6244	3367.7	2485.45
1021.7757	2948.7169	3310.25	2427.15
1021.8897	2949.8087	3258.55	2379.1
1022.0037	2950.8999	3209.05	2327.9
1022.1176	2951.9904	3166.1	2285.4
1022.2315	2953.0803	3127.05	2244.35
1022.3453	2954.1696	3093.25	2213.05
1022.4591	2955.2582	3068	2186
1022.5728	2956.3462	3049.3	2166.7
1022.6865	2957.4335	3013.45	2131.2
1022.8002	2958.5202	3003.3	2120.8
1022.9138	2959.6062	2969.15	2088.65
1023.0274	2960.6916	2963.9	2084
1023.141	2961.7764	2947.05	2064
1023.2545	2962.8605	2937.1	2053.55
1023.3679	2963.9439	2914.6	2034.4
1023.4813	2965.0267	2896.1	2013.6
1023.5947	2966.1089	2925.3	2020.75
1023.708	2967.1905	2886.6	2007.5
1023.8213	2968.2714	2874.55	1992.55
1023.9346	2969.3516	2868.95	1988.65
1024.0478	2970.4312	2879.1	1987.85
1024.1609	2971.5102	2855.9	1975.1
1024.274	2972.5885	2840.35	1960.15
1024.3871	2973.6662	2846.75	1961.85
1024.5002	2974.7432	2840.85	1961.1
1024.6132	2975.8196	2830.5	1949.15
1024.7261	2976.8954	2821.9	1942.65
1024.839	2977.9705	2806.1	1924.25
1024.9519	2979.045	2795.3	1915.5
1025.0647	2980.1188	2779.8	1900.9
1025.1775	2981.192	2772.8	1893.95
1025.2902	2982.2645	2759.45	1876.1
1025.4029	2983.3364	2742.95	1862.95
1025.5156	2984.4077	2702.35	1821.65
1025.6282	2985.4783	2711.95	1823.7
1025.7407	2986.5483	2674.9	1795.3
1025.8532	2987.6177	2656.7	1774.9
1025.9657	2988.6864	2638	1756.25
1026.0782	2989.7545	2630.75	1748.4
1026.1906	2990.8219	2599.1	1718.55
1026.3029	2991.8887	2576.2	1694.7
1026.4152	2992.9548	2572.5	1688.75
1026.5275	2994.0204	2550.75	1671.45
1026.6397	2995.0852	2526.1	1644.75
1026.7519	2996.1495	2504.7	1624.3
1026.864	2997.2131	2491.4	1611.55
1026.9761	2998.276	2491.3	1610.5
1027.0882	2999.3383	2462.75	1581.8
1027.2002	3000.4	2443.65	1561.5
1027.3122	3001.4611	2437.45	1556.35
1027.4241	3002.5215	2420.85	1538.95
1027.536	3003.5812	2409.6	1528.4
1027.6478	3004.6404	2403.4	1520.8
1027.7596	3005.6989	2390.75	1508.75
1027.8714	3006.7567	2382.2	1500.3
1027.9831	3007.8139	2408.5	1499.35
1028.0947	3008.8705	2362.8	1482.25
1028.2064	3009.9264	2346.55	1459.7
1028.3179	3010.9818	2352.05	1471.2
1028.4295	3012.0364	2337.15	1455.75
1028.541	3013.0905	2325.7	1444.7
1028.6524	3014.1439	2321.2	1440.3
1028.7638	3015.1966	2305.7	1425.1
1028.8752	3016.2487	2304.3	1422.9
1028.9865	3017.3002	2306.5	1421.35
1029.0978	3018.3511	2302.95	1424.2
1029.209	3019.4013	2296.8	1416.05
1029.3202	3020.4509	2292.75	1412.6
1029.4314	3021.4998	2282.6	1401.7
1029.5425	3022.5481	2277.2	1396.75
1029.6535	3023.5958	2257.55	1376.55
1029.7645	3024.6428	2264.5	1383.5
1029.8755	3025.6892	2264.8	1384.1
1029.9864	3026.735	2251	1368.5
1030.0973	3027.7802	2241.15	1359.65
1030.2082	3028.8247	2239.75	1359.65
1030.319	3029.8685	2232.6	1351.25
1030.4297	3030.9118	2226.95	1345.9
1030.5404	3031.9544	2228.85	1349.45
1030.6511	3032.9963	2217.25	1333.8
1030.7617	3034.0376	2214.2	1334.55
1030.8723	3035.0783	2215	1333
1030.9829	3036.1184	2198.2	1317.05
1031.0934	3037.1578	2194.75	1316.35
1031.2038	3038.1966	2199.65	1316.8
1031.3142	3039.2348	2195.55	1315.2
1031.4246	3040.2723	2188.45	1298.1
1031.5349	3041.3092	2183.15	1306.05
1031.6452	3042.3455	2171	1289.9
1031.7554	3043.3811	2162.7	1279.5
1031.8656	3044.4161	2163.5	1281.85
1031.9758	3045.4505	2159.1	1277.8
1032.0859	3046.4842	2144.55	1263.2
1032.1959	3047.5173	2143.4	1265.9
1032.3059	3048.5498	2144	1262.25
1032.4159	3049.5816	2134.8	1255.9
1032.5258	3050.6128	2132.4	1248.1
1032.6357	3051.6434	2126.55	1244.55
1032.7455	3052.6734	2114.1	1232.65
1032.8553	3053.7027	2122	1240.75
1032.9651	3054.7314	2107.25	1228.05
1033.0748	3055.7594	2104.7	1222.8
1033.1845	3056.7868	2094.75	1211.35
1033.2941	3057.8136	2097.95	1219.2
1033.4037	3058.8398	2082.45	1202.6
1033.5132	3059.8653	2092.3	1211.15
1033.6227	3060.8902	2072.25	1191.8
1033.7321	3061.9145	2056.9	1175.7
1033.8415	3062.9381	2060.55	1181.85
1033.9509	3063.9612	2061.55	1163.9
1034.0602	3064.9835	2044.3	1163.7
1034.1694	3066.0053	2045.65	1163.15
1034.2787	3067.0264	2027.5	1147.05
1034.3878	3068.0469	2026.55	1142.9
1034.497	3069.0668	2027.45	1142.7
1034.6061	3070.086	2024.2	1144.95
1034.7151	3071.1046	2011.8	1130.85
1034.8241	3072.1226	2015.6	1133.85
1034.9331	3073.1399	2000.6	1120.45
1035.042	3074.1567	1988.5	1105.9
1035.1508	3075.1727	1974.95	1090.85
1035.2597	3076.1882	1981.3	1101.6
1035.3684	3077.203	1964.3	1081.85
1035.4772	3078.2173	1969.05	1088.15
1035.5859	3079.2308	1958.7	1074.65
1035.6945	3080.2438	1959.65	1077.85
1035.8031	3081.2561	1937.8	1056.85
1035.9117	3082.2678	1931.75	1050.9
1036.0202	3083.2789	1929.85	1048.65
1036.1286	3084.2893	1928.25	1048.25
1036.2371	3085.2991	1918.7	1038.2
1036.3454	3086.3083	1915.95	1030.85
1036.4538	3087.3169	1910.15	1025.1
1036.562	3088.3248	1901.5	1019.45
1036.6703	3089.3321	1893.15	1011.9
1036.7785	3090.3388	1888.55	1008.8
1036.8866	3091.3449	1876.55	995.75
1036.9948	3092.3503	1879.7	995.95
1037.1028	3093.3551	1869.5	989.4
1037.2108	3094.3593	1870.7	990.05
1037.3188	3095.3629	1855.2	973.7
1037.4267	3096.3658	1857.35	976.35
1037.5346	3097.3681	1844.85	963.85
1037.6425	3098.3698	1836.95	953.3
1037.7503	3099.3708	1840.7	954.55
1037.858	3100.3713	1824.75	944.45
1037.9657	3101.3711	1826.65	945.05
1038.0734	3102.3702	1954.65	938.55
1038.181	3103.3688	1825.65	943.9
1038.2886	3104.3667	1801.8	924
1038.3961	3105.364	1805.65	925
1038.5036	3106.3607	1797.05	916.2
1038.611	3107.3568	1788.35	907.25
1038.7184	3108.3522	1778.85	898.25
1038.8257	3109.347	1781.65	900.65
1038.933	3110.3412	1790.15	903
1039.0403	3111.3348	1765.15	885.25
1039.1475	3112.3277	1766	883.2
1039.2547	3113.32	1756.55	878.15
1039.3618	3114.3117	1757.55	876.95
1039.4689	3115.3028	1750.75	868.35
1039.5759	3116.2932	1755.55	872
1039.6829	3117.2831	1740.85	854.05
1039.7898	3118.2723	1732.15	850.65
1039.8967	3119.2608	1733.45	853
1040.0035	3120.2488	1722.6	841.5
1040.1103	3121.2361	1723.35	842.5
1040.2171	3122.2229	1705.8	826.4
1040.3238	3123.209	1715.65	832.8
1040.4305	3124.1944	1703.05	822.5
1040.5371	3125.1793	1711.9	829.95
1040.6437	3126.1635	1706.35	824.6
1040.7502	3127.1471	1695.4	814.95
1040.8567	3128.1301	1692.5	811.45
1040.9631	3129.1125	1684.65	804.2
1041.0695	3130.0942	1678.25	796.9
1041.1759	3131.0753	1677.3	787.9
1041.2822	3132.0558	1681.95	798.65
1041.3884	3133.0357	1668.8	786.75
1041.4946	3134.015	1664.45	783.8
1041.6008	3134.9936	1660.2	775.2
1041.7069	3135.9716	1674.85	775.85
1041.813	3136.949	1660.35	779.65
1041.919	3137.9258	1658.75	771.15
1042.025	3138.902	1654.9	770.85
1042.1309	3139.8775	1637.65	756.4
1042.2368	3140.8524	1640.9	759.3
1042.3427	3141.8267	1641.95	760.6
1042.4485	3142.8004	1645.65	765.45
1042.5542	3143.7735	1638.25	752.55
1042.6599	3144.7459	1628.55	746.75
1042.7656	3145.7178	1625.7	745.6
1042.8712	3146.689	1613.05	733.35
1042.9768	3147.6596	1621.15	738.45
1043.0823	3148.6295	1613.7	732.2
1043.1878	3149.5989	1604.05	721.25
1043.2932	3150.5676	1606	727.35
1043.3986	3151.5357	1595.4	715.45
1043.5039	3152.5032	1594.35	715.35
1043.6092	3153.4701	1596.65	715.85
1043.7145	3154.4364	1591.45	709.6
1043.8197	3155.402	1586.45	706.8
1043.9248	3156.367	1579.2	697.75
1044.03	3157.3315	1612.15	691
1044.135	3158.2952	1579.85	699.35
1044.24	3159.2584	1570.05	689.45
1044.345	3160.221	1563.4	683.15
1044.4499	3161.1829	1560.8	678.55
1044.5548	3162.1442	1559.3	679.2
1044.6596	3163.105	1560.65	680.5
1044.7644	3164.065	1546	668.2
1044.8692	3165.0245	1554.75	671
1044.9739	3165.9834	1536.7	656.7
1045.0785	3166.9416	1543.1	662.55
1045.1831	3167.8993	1538.05	656.1
1045.2877	3168.8563	1528.05	647.05
1045.3922	3169.8127	1523.95	644.55
1045.4966	3170.7684	1527.9	647.2
1045.6011	3171.7236	1525.5	643.15
1045.7054	3172.6782	1522.5	640.95
1045.8098	3173.6321	1517.6	636.9
1045.914	3174.5854	1509.5	623.95
1046.0183	3175.5381	1506.7	626.8
1046.1224	3176.4902	1506.35	625.15
1046.2266	3177.4417	1493.45	612.25
1046.3307	3178.3926	1487.4	607.15
1046.4347	3179.3428	1487.1	606.45
1046.5387	3180.2924	1484.75	603.7
1046.6427	3181.2415	1479.4	597.2
1046.7466	3182.1899	1483.25	602.55
1046.8504	3183.1377	1478.6	599.8
1046.9542	3184.0848	1486.85	603.5
1047.058	3185.0314	1477.85	596.05
1047.1617	3185.9773	1468.65	588.6
1047.2654	3186.9227	1465.35	582.85
1047.369	3187.8674	1471.9	591.1
1047.4726	3188.8115	1458.55	573.45
1047.5761	3189.755	1458.8	576.15
1047.6796	3190.6979	1453.45	573.9
1047.783	3191.6402	1455.35	574.85
1047.8864	3192.5818	1454.05	574
1047.9898	3193.5229	1461.45	564.1
1048.0931	3194.4633	1441.1	560.15
1048.1963	3195.4031	1437.7	556.75
1048.2995	3196.3423	1438.7	558.85
1048.4027	3197.2809	1433.25	550.85
1048.5058	3198.2189	1439.6	557.75
1048.6089	3199.1563	1445.5	544.75
1048.7119	3200.0931	1422	542.35
1048.8148	3201.0292	1425.5	545.8
1048.9178	3201.9648	1418.4	539.7
1049.0206	3202.8997	1419.4	536.6
1049.1235	3203.834	1419	537.9
1049.2262	3204.7677	1409.5	526.5
1049.329	3205.7008	1404.8	522.8
1049.4317	3206.6333	1399.05	520.4
1049.5343	3207.5652	1409.65	527.05
1049.6369	3208.4964	1404.95	524.4
1049.7394	3209.4271	1395.7	514.55
1049.8419	3210.3571	1395.3	515.65
1049.9444	3211.2865	1391.6	509.85
1050.0468	3212.2154	1390.35	510.9
1050.1491	3213.1436	1392.95	511.35
1050.2514	3214.0712	1392.7	505.65
1050.3537	3214.9982	1385.65	504.15
1050.4559	3215.9246	1383.95	502.65
1050.5581	3216.8503	1378.7	497.75
1050.6602	3217.7755	1378.55	498.5
1050.7623	3218.7001	1378.35	497
1050.8643	3219.624	1379.75	500.45
1050.9663	3220.5473	1366.55	485.65
1051.0682	3221.4701	1363.65	481.85
1051.1701	3222.3922	1361.05	479.7
1051.2719	3223.3137	1355.65	475.85
1051.3737	3224.2346	1358.45	477.2
1051.4754	3225.1549	1361.25	480.95
1051.5771	3226.0746	1354.6	475.25
1051.6788	3226.9937	1350.45	471.55
1051.7804	3227.9121	1345.25	463.85
1051.8819	3228.83	1352.65	473.95
1051.9834	3229.7473	1344.85	462.65
1052.0849	3230.6639	1341.75	460.85
1052.1863	3231.5799	1339	460.45
1052.2876	3232.4954	1337.3	456.1
1052.3889	3233.4102	1332.3	451.6
1052.4902	3234.3244	1333.55	454.95
1052.5914	3235.238	1331.25	450.7
1052.6926	3236.151	1348.4	443.45
1052.7937	3237.0634	1321.2	440.45
1052.8948	3237.9752	1314.65	433.8
1052.9958	3238.8864	1316.45	435.95
1053.0968	3239.797	1314.55	433.25
1053.1977	3240.7069	1313.55	433.3
1053.2986	3241.6163	1312.95	431.9
1053.3994	3242.5251	1304.4	425.9
1053.5002	3243.4332	1304.7	424.85
1053.6009	3244.3408	1295.4	411.75
1053.7016	3245.2477	1303.7	425.15
1053.8022	3246.154	1295.65	412.45
1053.9028	3247.0598	1290	408.1
1054.0034	3247.9649	1289.9	410.25
1054.1039	3248.8694	1289	409.8
1054.2043	3249.7733	1281.1	400.65
1054.3047	3250.6766	1285.65	405
1054.4051	3251.5793	1282.5	400.3
1054.5054	3252.4814	1279.65	400.9
1054.6056	3253.3829	1278.15	396.7
1054.7058	3254.2838	1273.35	392.3
1054.806	3255.1841	1271.9	391.4
1054.9061	3256.0838	1260.1	380
1055.0061	3256.9829	1258.1	378.8
1055.1062	3257.8814	1265.4	382
1055.2061	3258.7792	1261.8	379.25
1055.306	3259.6765	1260.4	378.1
1055.4059	3260.5731	1249.55	369.25
1055.5057	3261.4692	1247.65	367.4
1055.6055	3262.3647	1242.95	362.15
1055.7052	3263.2595	1236.55	354.2
1055.8049	3264.1538	1233	353.05
1055.9045	3265.0474	1230.55	348.7
1056.0041	3265.9404	1225.55	345.4
1056.1036	3266.8329	1213.2	332.85
1056.2031	3267.7247	1218.95	327.4
1056.3025	3268.616	1203.15	326.15
1056.4019	3269.5066	1191.9	310.45
1056.5013	3270.3966	1188.3	307.15
1056.6005	3271.286	1174.4	295.5
