Software Version:	3.9.2.0
Unit SN:	10000200
Spectrometer SN:	6960
Date:	3/6/2024 10:52:30 AM
Data Line Index:	25
Spectral Points:	2048
Integration time (ms):	125
Averages:	20
Delay (ms):	30
Sequence Number:	1
Processing:	dark subtract
Laser Power (mW):	305
Laser Current (mA):	822
Laser Diode Temp (C):	25
Laser Case Temp (C):	27.7
System Temp (C):	27.5
Spectrometer Temp (C):	25.1
CCD Temp (C):	0.002
Secondary Temp (C):	20
Heatsink Temp (C):	23.231
CCDPCB Temp (C):	36.84
SecondaryPCB Temp (C):	34.539

Wavelength	RamanShift	Raw Counts	Dark Subtracted
787.061	30.1047	1121.3	707.9
787.2016	32.3739	1144.95	734.6
787.3422	34.6426	1186.45	773.6
787.4828	36.9109	1246.75	831.65
787.6235	39.1787	1301	883.25
787.7642	41.4461	1359.2	935.95
787.9049	43.7131	1415.85	989.4
788.0456	45.9796	1483.6	1054.45
788.1863	48.2456	1554	1119.45
788.3271	50.5112	1626.25	1188.05
788.4679	52.7764	1692.3	1251.45
788.6087	55.0411	1764.75	1322.2
788.7496	57.3054	1853.95	1405.8
788.8904	59.5692	1952.05	1500.55
789.0313	61.8326	2045.65	1590.5
789.1722	64.0955	2145.8	1685.15
789.3132	66.3579	2273.4	1808.25
789.4541	68.6199	2433.75	1966.7
789.5951	70.8815	2672.25	2201.35
789.7361	73.1426	3173.6	2698.35
789.8771	75.4032	4445.4	3965.35
790.0181	77.6634	7699.3	7214.6
790.1592	79.9231	16148.35	15660.15
790.3003	82.1824	52830.4	52331.2
790.4414	84.4412	65535	65020.05
790.5825	86.6995	65535	64994
790.7237	88.9574	65535	64972.75
790.8648	91.2148	65535	64954.05
791.006	93.4717	65535	64947.65
791.1472	95.7282	65535	64938.6
791.2885	97.9842	65535	64940.55
791.4297	100.2398	65535	64936.55
791.571	102.4949	65535	64933.15
791.7123	104.7495	65535	64926.55
791.8536	107.0036	65535	64926.95
791.9949	109.2573	65535	64931.45
792.1363	111.5105	65535	64925.7
792.2777	113.7632	65535	64925.7
792.4191	116.0154	65535	64915.5
792.5605	118.2672	65535	64920.6
792.7019	120.5185	65535	64919.6
792.8434	122.7693	65535	64917.9
792.9849	125.0197	65535	64915.45
793.1264	127.2696	65535	64909.7
793.2679	129.519	65535	64903.8
793.4094	131.7679	65535	64905.45
793.551	134.0163	65535	64899.35
793.6926	136.2642	65535	64896.65
793.8342	138.5117	65535	64886.3
793.9758	140.7587	65535	64892.7
794.1175	143.0052	65535	64890.7
794.2591	145.2512	65535	64886.9
794.4008	147.4967	65535	64891.45
794.5425	149.7417	65535	64885.65
794.6842	151.9863	65535	64885.1
794.826	154.2304	65535	64878.55
794.9677	156.4739	65535	64873.95
795.1095	158.717	65535	64875.85
795.2513	160.9596	65535	64869.6
795.3931	163.2017	65535	64867.2
795.535	165.4433	65535	64862.35
795.6768	167.6844	65535	64862.65
795.8187	169.925	65535	64858.45
795.9606	172.1651	65535	64856.65
796.1025	174.4047	65535	64853
796.2445	176.6439	65535	64853.65
796.3864	178.8825	65535	64850.9
796.5284	181.1206	65535	64842.75
796.6704	183.3582	65535	64837.75
796.8124	185.5954	65535	64838.9
796.9544	187.832	65535	64835.3
797.0965	190.0681	65535	64831.05
797.2386	192.3037	65535	64828.8
797.3806	194.5388	65535	64828.2
797.5228	196.7734	65535	64824.3
797.6649	199.0075	65535	64823.5
797.807	201.2411	65535	64821.05
797.9492	203.4742	65535	64821.5
798.0914	205.7068	65535	64820.05
798.2336	207.9389	65535	64817
798.3758	210.1704	65535	64814.45
798.518	212.4015	65535	64814.95
798.6603	214.632	65535	64822.4
798.8025	216.862	65535	64829.6
798.9448	219.0915	65535	64835.5
799.0871	221.3205	65535	64834.8
799.2294	223.549	65535	64836.3
799.3718	225.777	65535	64832
799.5141	228.0044	65535	64833.85
799.6565	230.2314	65535	64833.3
799.7989	232.4578	65535	64829.2
799.9413	234.6837	65535	64821.55
800.0837	236.909	65535	64818.25
800.2262	239.1339	65535	64798.15
800.3687	241.3582	65535	64811.65
800.5111	243.582	65535	64783.3
800.6536	245.8053	65535	64791.45
800.7961	248.0281	65535	64793.15
800.9387	250.2503	65535	64789.55
801.0812	252.472	65535	64787.1
801.2238	254.6932	65535	64785.15
801.3664	256.9139	65535	64787.5
801.509	259.134	65535	64784.25
801.6516	261.3536	65535	64784.05
801.7942	263.5727	65535	64784.65
801.9369	265.7912	65535	64782.25
802.0795	268.0092	65535	64778.7
802.2222	270.2267	65535	64781.5
802.3649	272.4436	65535	64781.35
802.5076	274.6601	65535	64769.95
802.6504	276.8759	65535	64778.35
802.7931	279.0913	65535	64775.9
802.9359	281.3061	65535	64777.05
803.0787	283.5204	65535	64772.4
803.2215	285.7341	65535	64764.25
803.3643	287.9473	65535	64752.85
803.5071	290.16	65535	64759.95
803.6499	292.3721	65535	64767.95
803.7928	294.5837	65535	64767
803.9357	296.7947	65535	64767.9
804.0786	299.0052	65535	64765.45
804.2215	301.2152	65535	64764.9
804.3644	303.4246	65535	64768.7
804.5074	305.6334	65535	64767.2
804.6503	307.8418	65535	64763.6
804.7933	310.0495	65535	64761
804.9363	312.2568	65535	64762.15
805.0793	314.4635	65535	64761.25
805.2223	316.6696	65535	64760.15
805.3653	318.8752	65535	64748
805.5084	321.0802	65535	64756.05
805.6514	323.2847	65535	64752.7
805.7945	325.4887	65535	64754.6
805.9376	327.692	65535	64754.15
806.0807	329.8949	65535	64753.9
806.2238	332.0972	65535	64753
806.367	334.2989	65535	64746.9
806.5101	336.5001	65535	64748.95
806.6533	338.7007	65535	64747.2
806.7965	340.9008	65535	64746.4
806.9397	343.1003	65535	64743.1
807.0829	345.2992	65535	64742.15
807.2261	347.4976	65535	64743.45
807.3693	349.6955	65535	64738.9
807.5126	351.8927	65535	64735.7
807.6559	354.0895	65535	64725.15
807.7991	356.2856	65535	64731.75
807.9424	358.4812	65535	64736.4
808.0857	360.6763	65535	64733.55
808.2291	362.8707	65535	64731.35
808.3724	365.0646	65535	64727.4
808.5158	367.258	65535	64725.8
808.6591	369.4508	65535	64721.4
808.8025	371.643	65535	64722.95
808.9459	373.8346	65535	64719.4
809.0893	376.0257	65535	64719.4
809.2327	378.2162	65535	64718.45
809.3762	380.4062	65535	64716.4
809.5196	382.5956	65535	64718.5
809.6631	384.7844	65535	64719.8
809.8066	386.9726	65535	64720.05
809.9501	389.1603	65535	64722.4
810.0936	391.3474	65535	64684.55
810.2371	393.5339	65535	64720.2
810.3806	395.7199	65535	64727.45
810.5241	397.9052	65535	64724.9
810.6677	400.09	65535	64725.6
810.8113	402.2743	65535	64725.5
810.9548	404.4579	65535	64725.2
811.0984	406.641	65535	64725.3
811.2421	408.8235	65535	64720.8
811.3857	411.0054	65535	64719.7
811.5293	413.1868	65535	64718.2
811.673	415.3675	65535	64717.6
811.8166	417.5477	65535	64711.75
811.9603	419.7273	65535	64713
812.104	421.9064	65535	64703.2
812.2477	424.0848	65535	64707.15
812.3914	426.2627	65535	64706.1
812.5351	428.4399	65535	64705.65
812.6788	430.6166	65535	64701.75
812.8226	432.7928	65535	64704.1
812.9663	434.9683	65535	64703.75
813.1101	437.1432	65535	64699.05
813.2539	439.3176	65535	64700.85
813.3977	441.4914	65535	64701.7
813.5415	443.6645	65535	64700.4
813.6853	445.8371	65535	64701.25
813.8291	448.0091	65535	64701.15
813.973	450.1806	65535	64699.05
814.1168	452.3514	65535	64698.25
814.2607	454.5216	65535	64690.55
814.4046	456.6913	65535	64698.2
814.5485	458.8603	65535	64696.65
814.6924	461.0288	65535	64697.45
814.8363	463.1967	65535	64694.9
814.9802	465.3639	65535	64698.05
815.1241	467.5306	65535	64696.25
815.2681	469.6967	65535	64695.05
815.412	471.8622	65535	64694.05
815.556	474.0271	65535	64693.4
815.7	476.1914	65535	64692.2
815.844	478.3551	65535	64693.9
815.988	480.5182	65535	64694.3
816.132	482.6807	65535	64693.3
816.276	484.8426	65535	64694.85
816.4201	487.0039	65535	64692.25
816.5641	489.1647	65535	64690.85
816.7082	491.3248	65535	64691.9
816.8522	493.4843	65535	64694.5
816.9963	495.6432	65535	64691.8
817.1404	497.8015	65535	64686.35
817.2845	499.9592	65535	64688.6
817.4286	502.1163	65535	64685.75
817.5727	504.2728	65535	64685.8
817.7168	506.4287	65535	64690.8
817.861	508.5839	65535	64689.25
818.0051	510.7386	65535	64689.2
818.1493	512.8927	65535	64683.6
818.2935	515.0461	65535	64685.8
818.4377	517.199	65535	64684
818.5818	519.3512	65535	64682.6
818.726	521.5029	65535	64676.3
818.8703	523.6539	65535	64681
819.0145	525.8043	65535	64679.55
819.1587	527.9541	65535	64681.25
819.303	530.1033	65535	64677.1
819.4472	532.2519	65535	64680.05
819.5915	534.3999	65535	64677.85
819.7357	536.5472	65535	64679.25
819.88	538.694	65535	64679.3
820.0243	540.8401	65535	64677.1
820.1686	542.9856	65535	64678.05
820.3129	545.1305	65535	64671.75
820.4572	547.2748	65535	64673.7
820.6016	549.4185	65535	64673.7
820.7459	551.5615	65535	64675.55
820.8902	553.704	65535	64672.15
821.0346	555.8458	65535	64675.6
821.1789	557.987	65535	64679.3
821.3233	560.1276	65535	64675.9
821.4677	562.2675	65535	64679.35
821.6121	564.4069	65535	64676.4
821.7565	566.5456	65535	64676.95
821.9009	568.6837	65535	64671.45
822.0453	570.8212	65535	64678.2
822.1897	572.958	65535	64670.45
822.3342	575.0942	65535	64675.85
822.4786	577.2299	65535	64674
822.6231	579.3648	65535	64675.1
822.7675	581.4992	65535	64675.9
822.912	583.6329	65535	64675.8
823.0565	585.766	65535	64673.95
823.201	587.8985	65535	64673.05
823.3454	590.0304	65535	64648.4
823.4899	592.1616	65535	64667.45
823.6345	594.2922	65535	64669.05
823.779	596.4222	65535	64668.7
823.9235	598.5515	65535	64666.35
824.068	600.6802	65535	64666.4
824.2126	602.8083	65535	64669.05
824.3571	604.9358	65535	64667
824.5017	607.0626	65535	64668.3
824.6462	609.1888	65535	64666.6
824.7908	611.3144	65535	64665.85
824.9354	613.4393	65535	64670.45
825.08	615.5636	65535	64666.9
825.2246	617.6873	65535	64666.2
825.3692	619.8103	65535	64666.3
825.5138	621.9327	65535	64664.7
825.6584	624.0544	65535	64668.3
825.803	626.1756	65535	64665.6
825.9477	628.2961	65535	64665.1
826.0923	630.4159	65535	64667.2
826.237	632.5351	65535	64665.1
826.3816	634.6537	65535	64659.75
826.5263	636.7716	65535	64661.1
826.6709	638.8889	65535	64662.15
826.8156	641.0056	65535	64662.5
826.9603	643.1216	65535	64660.8
827.105	645.237	65535	64658.1
827.2497	647.3518	65535	64660.1
827.3944	649.4659	65535	64664.4
827.5391	651.5793	65535	64662.6
827.6838	653.6922	65535	64661.4
827.8285	655.8043	65535	64658.45
827.9733	657.9159	65535	64659.85
828.118	660.0268	65535	64656
828.2627	662.137	65535	64661.45
828.4075	664.2466	65535	64656.55
828.5522	666.3556	65535	64657.45
828.697	668.4639	65535	64655.75
828.8418	670.5716	65535	64659.5
828.9865	672.6786	65535	64656.65
829.1313	674.785	65535	64657.2
829.2761	676.8907	65535	64657.8
829.4209	678.9958	65535	64658
829.5657	681.1002	65535	64655.5
829.7105	683.204	65535	64650.65
829.8553	685.3072	65535	64653.85
830.0001	687.4097	65535	64656.15
830.1449	689.5115	65535	64652.75
830.2898	691.6127	65535	64654.95
830.4346	693.7132	65535	64656.8
830.5794	695.8131	65535	64646.2
830.7243	697.9123	65535	64652.25
830.8691	700.0109	65535	64652
831.014	702.1089	65535	64655.65
831.1588	704.2061	65535	64656.75
831.3037	706.3028	65535	64652.2
831.4486	708.3987	65535	64653.15
831.5935	710.4941	65535	64653
831.7383	712.5887	65535	64649.3
831.8832	714.6827	65535	64651.7
832.0281	716.7761	65535	64651.75
832.173	718.8688	65535	64650.15
832.3179	720.9608	65535	64646.4
832.4628	723.0522	65535	64646.15
832.6077	725.1429	65535	64649.45
832.7527	727.233	65535	64647.9
832.8976	729.3224	65535	64652.95
833.0425	731.4112	65535	64645.8
833.1874	733.4993	65535	64646.95
833.3324	735.5867	65535	64649.95
833.4773	737.6735	65535	64650.95
833.6222	739.7596	65535	64649.1
833.7672	741.845	65535	64649.45
833.9122	743.9298	65535	64648.15
834.0571	746.014	65535	64649.85
834.2021	748.0974	65535	64647.75
834.347	750.1802	65535	64644.5
834.492	752.2624	65535	64644.7
834.637	754.3439	65535	64646.5
834.782	756.4247	65535	64638.2
834.9269	758.5048	65535	64647.85
835.0719	760.5843	65535	64646.45
835.2169	762.6631	65535	64649.8
835.3619	764.7413	65535	64647.4
835.5069	766.8188	65535	64646.1
835.6519	768.8956	65535	64644.6
835.7969	770.9718	65535	64648.5
835.9419	773.0473	65535	64648.95
836.0869	775.1221	65535	64645.1
836.232	777.1962	65535	64646.5
836.377	779.2697	65535	64645.1
836.522	781.3426	65535	64627.7
836.667	783.4147	65535	64647.05
836.8121	785.4862	65535	64647.65
836.9571	787.557	65535	64647.4
837.1021	789.6271	65535	64644.2
837.2472	791.6966	65535	64645.1
837.3922	793.7654	65535	64646.55
837.5373	795.8335	65535	64644.9
837.6823	797.901	65535	64646.55
837.8274	799.9678	65535	64644.1
837.9724	802.0339	65535	64645.35
838.1175	804.0993	65535	64633.55
838.2626	806.1641	65535	64645.8
838.4076	808.2282	65535	64645.5
838.5527	810.2916	65535	64640.75
838.6978	812.3544	65535	64645.2
838.8428	814.4164	65535	64646.55
838.9879	816.4778	65535	64642.55
839.133	818.5385	65535	64643.5
839.2781	820.5986	65535	64643.1
839.4232	822.658	65535	64640.95
839.5682	824.7166	65535	64645.6
839.7133	826.7747	65535	64644.4
839.8584	828.832	65535	64643.55
840.0035	830.8886	65535	64641.6
840.1486	832.9446	65535	64642.55
840.2937	834.9999	65535	64642.45
840.4388	837.0545	65535	64640.1
840.5839	839.1085	65535	64642.7
840.729	841.1618	65535	64637
840.8741	843.2143	65535	64643.7
841.0192	845.2662	65535	64644.25
841.1643	847.3175	65535	64643.8
841.3095	849.368	65535	64639.95
841.4546	851.4179	65535	64643.9
841.5997	853.467	65535	64641.2
841.7448	855.5155	65535	64643
841.8899	857.5633	65535	64645.75
842.0351	859.6105	65535	64643.75
842.1802	861.6569	65535	64642.15
842.3253	863.7027	65535	64639.25
842.4704	865.7478	65535	64641.8
842.6156	867.7922	65535	64641.5
842.7607	869.8359	65535	64640.2
842.9058	871.8789	65535	64638.9
843.0509	873.9212	65535	64609.1
843.1961	875.9629	65535	64642.85
843.3412	878.0039	65535	64639.75
843.4863	880.0441	65535	64642.9
843.6315	882.0837	65535	64636.55
843.7766	884.1226	65535	64636.8
843.9218	886.1609	65535	64642.9
844.0669	888.1984	65535	64642.3
844.212	890.2352	65535	64641.05
844.3572	892.2714	65535	64636.8
844.5023	894.3069	65535	64635.95
844.6475	896.3416	65535	64638.05
844.7926	898.3757	65535	64637.45
844.9377	900.4091	65535	64639.2
845.0829	902.4418	65535	64634.2
845.228	904.4739	65535	64635.8
845.3732	906.5052	65535	64637.75
845.5183	908.5358	65535	64639.4
845.6635	910.5658	65535	64638.75
845.8086	912.595	65535	64639.8
845.9538	914.6236	65535	64639.2
846.0989	916.6515	65535	64640.4
846.2441	918.6786	65535	64637.35
846.3892	920.7051	65535	64635.85
846.5344	922.7309	65535	64636.4
846.6795	924.756	65535	64639.1
846.8246	926.7804	65535	64638.8
846.9698	928.8041	65535	64637.35
847.1149	930.8272	65535	64636.9
847.2601	932.8495	65535	64634.1
847.4052	934.8711	65535	64638.15
847.5504	936.892	65535	64636.2
847.6955	938.9123	65535	64637.8
847.8407	940.9318	65535	64636.9
847.9858	942.9506	65535	64641
848.131	944.9688	65535	64638.5
848.2761	946.9862	65535	64636.95
848.4213	949.003	65535	64636.2
848.5664	951.019	65535	64636.55
848.7115	953.0344	65535	64638.7
848.8567	955.0491	65535	64639.2
849.0018	957.063	65535	64639.65
849.147	959.0763	65535	64639.3
849.2921	961.0888	65535	64633.6
849.4373	963.1007	65535	64634.25
849.5824	965.1119	65535	64637.15
849.7275	967.1223	65535	64641.15
849.8727	969.1321	65535	64639.05
850.0178	971.1412	65535	64638.5
850.1629	973.1495	65535	64637.1
850.3081	975.1572	65535	64603.75
850.4532	977.1641	65535	64635.95
850.5983	979.1704	65535	64635.45
850.7435	981.1759	65535	64634.9
850.8886	983.1808	65535	64634.55
851.0337	985.1849	65535	64626.2
851.1788	987.1884	65535	64633.7
851.324	989.1911	65535	64635.8
851.4691	991.1932	65535	64636.6
851.6142	993.1945	65535	64636.15
851.7593	995.1951	65535	64637.4
851.9045	997.1951	65535	64631.4
852.0496	999.1943	65535	64636.85
852.1947	1001.1928	65535	64635.2
852.3398	1003.1906	65535	64636.3
852.4849	1005.1877	65535	64634.8
852.63	1007.1841	65535	64634.4
852.7751	1009.1798	65535	64635.5
852.9202	1011.1748	65535	64636.2
853.0653	1013.1691	65535	64635.45
853.2104	1015.1627	65535	64638.6
853.3555	1017.1556	65535	64634.1
853.5006	1019.1477	65535	64633.9
853.6457	1021.1392	65535	64639.25
853.7908	1023.1299	65535	64636.1
853.9359	1025.12	65535	64636.2
854.081	1027.1093	65535	64642.45
854.2261	1029.0979	65535	64642.15
854.3712	1031.0859	65535	64639.05
854.5163	1033.0731	65535	64635.5
854.6613	1035.0596	65535	64635.6
854.8064	1037.0454	65535	64637.2
854.9515	1039.0304	65535	64634.85
855.0965	1041.0148	65535	64635.45
855.2416	1042.9985	65535	64634.1
855.3867	1044.9814	65535	64638.35
855.5317	1046.9636	65535	64635.55
855.6768	1048.9452	65535	64639.5
855.8219	1050.926	65535	64636.55
855.9669	1052.9061	65535	64638.2
856.112	1054.8855	65535	64635.15
856.257	1056.8642	65535	64637.15
856.4021	1058.8421	65535	64631.85
856.5471	1060.8194	65535	64634.65
856.6921	1062.7959	65535	64637.55
856.8372	1064.7717	65535	64635.35
856.9822	1066.7469	65535	64634.6
857.1272	1068.7213	65535	64630.3
857.2723	1070.695	65535	64637.95
857.4173	1072.6679	65535	64637.3
857.5623	1074.6402	65535	64638.15
857.7073	1076.6117	65535	64630.75
857.8523	1078.5826	65535	64634.85
857.9973	1080.5527	65535	64632.95
858.1423	1082.5221	65535	64634.95
858.2873	1084.4908	65535	64636.7
858.4323	1086.4587	65535	64636.6
858.5773	1088.426	65535	64635.25
858.7223	1090.3925	65535	64629.2
858.8673	1092.3584	65535	64634.9
859.0123	1094.3235	65535	64637.5
859.1573	1096.2879	65535	64634.05
859.3022	1098.2515	65535	64633.75
859.4472	1100.2145	65535	64635.65
859.5922	1102.1767	65535	64634.4
859.7371	1104.1382	65535	64635.45
859.8821	1106.099	65535	64633.9
860.027	1108.0591	65535	64636.2
860.172	1110.0185	65535	64634.8
860.3169	1111.9771	65535	64635.6
860.4619	1113.9351	65535	64635.4
860.6068	1115.8923	65535	64636.6
860.7517	1117.8488	65535	64633.75
860.8967	1119.8045	65535	64635.7
861.0416	1121.7596	65535	64632.6
861.1865	1123.7139	65535	64636.3
861.3314	1125.6675	65535	64637.3
861.4763	1127.6204	65535	64636.25
861.6212	1129.5726	65535	64633.7
861.7661	1131.524	65535	64636.4
861.911	1133.4748	65535	64634.9
862.0559	1135.4248	65535	64634.4
862.2008	1137.3741	65535	64635.3
862.3457	1139.3226	65535	64634.1
862.4905	1141.2705	65535	64635.85
862.6354	1143.2176	65535	64630.7
862.7803	1145.164	65535	64633.85
862.9251	1147.1097	65535	64634.35
863.07	1149.0546	65535	64635.4
863.2148	1150.9989	65535	64632
863.3597	1152.9424	65535	64635.6
863.5045	1154.8852	65535	64635.2
863.6493	1156.8272	65535	64636.8
863.7942	1158.7686	65535	64630.1
863.939	1160.7092	65535	64635.65
864.0838	1162.6491	65535	64632.6
864.2286	1164.5883	65535	64635.5
864.3734	1166.5267	65535	64634
864.5182	1168.4644	65535	64634.4
864.663	1170.4014	65535	64628.3
864.8078	1172.3377	65535	64634.9
864.9526	1174.2732	65535	64634.5
865.0974	1176.2081	65535	64636.15
865.2421	1178.1421	65535	64631.25
865.3869	1180.0755	65535	64633.9
865.5317	1182.0082	65535	64635.8
865.6764	1183.9401	65535	64634.45
865.8212	1185.8713	65535	64635.3
865.9659	1187.8017	65535	64635.7
866.1106	1189.7315	65535	64637.3
866.2554	1191.6605	65535	64609.7
866.4001	1193.5888	65535	64636.05
866.5448	1195.5163	65535	64636.2
866.6895	1197.4432	65535	64633.6
866.8342	1199.3693	65535	64636.2
866.9789	1201.2947	65535	64632.25
867.1236	1203.2193	65535	64634.2
867.2683	1205.1432	65535	64636.45
867.413	1207.0664	65535	64634
867.5576	1208.9889	65535	64631.85
867.7023	1210.9106	65535	64634.35
867.847	1212.8316	65535	64638.05
867.9916	1214.7519	65535	64626.35
868.1363	1216.6715	65535	64637.3
868.2809	1218.5903	65535	64637.9
868.4255	1220.5084	65535	64636.3
868.5701	1222.4257	65535	64635.2
868.7148	1224.3424	65535	64636.15
868.8594	1226.2583	65535	64632.45
869.004	1228.1735	65535	64634.4
869.1486	1230.0879	65535	64633.75
869.2932	1232.0016	65535	64636.65
869.4377	1233.9146	65535	64634.65
869.5823	1235.8269	65535	64635.15
869.7269	1237.7384	65535	64636.5
869.8715	1239.6492	65535	64635.75
870.016	1241.5592	65535	64633.4
870.1606	1243.4686	65535	64635.65
870.3051	1245.3772	65535	64635.45
870.4496	1247.285	65535	64633.9
870.5941	1249.1922	65535	64634.8
870.7387	1251.0986	65535	64634.45
870.8832	1253.0042	65535	64635.05
871.0277	1254.9092	65535	64638
871.1722	1256.8134	65535	64637.45
871.3167	1258.7169	65535	64635.75
871.4611	1260.6196	65535	64635.75
871.6056	1262.5216	65535	64634.25
871.7501	1264.4229	65535	64638.05
871.8945	1266.3234	65535	64635.4
872.039	1268.2232	65535	64632.85
872.1834	1270.1223	65535	64634.3
872.3278	1272.0207	65535	64636.7
872.4723	1273.9183	65535	64629.5
872.6167	1275.8151	65535	64638.25
872.7611	1277.7113	65535	64636.95
872.9055	1279.6067	65535	64632.95
873.0499	1281.5014	65535	64633.85
873.1943	1283.3953	65535	64635.25
873.3386	1285.2885	65535	64637.15
873.483	1287.181	65535	64635.05
873.6274	1289.0727	65535	64635.75
873.7717	1290.9637	65535	64636.8
873.9161	1292.854	65535	64636.5
874.0604	1294.7435	65535	64633.4
874.2047	1296.6323	65535	64636.55
874.349	1298.5204	65535	64631.55
874.4933	1300.4077	65535	64634.75
874.6376	1302.2943	65535	64633.7
874.7819	1304.1802	65535	64634.95
874.9262	1306.0653	65535	64634.9
875.0705	1307.9497	65535	64633.8
875.2147	1309.8333	65535	64635.05
875.359	1311.7162	65535	64635.45
875.5032	1313.5984	65535	64633
875.6475	1315.4798	65535	64623.15
875.7917	1317.3605	65535	64618.45
875.9359	1319.2405	65535	64633.8
876.0801	1321.1197	65535	64632.7
876.2243	1322.9982	65535	64630.85
876.3685	1324.876	65535	64635.6
876.5127	1326.753	65535	64635.1
876.6569	1328.6293	65535	64633.85
876.801	1330.5048	65535	64632.85
876.9452	1332.3796	65535	64636.55
877.0893	1334.2537	65535	64610.25
877.2335	1336.127	65535	64633.5
877.3776	1337.9996	65535	64635.7
877.5217	1339.8714	65535	64636.75
877.6658	1341.7426	65535	64590.6
877.8099	1343.6129	65535	64631.7
877.954	1345.4826	65535	64632.95
878.0981	1347.3515	65535	64632.75
878.2422	1349.2196	65535	64632.75
878.3862	1351.087	65535	64633.75
878.5303	1352.9537	65535	64634.45
878.6743	1354.8197	65535	64633.7
878.8184	1356.6849	65535	64635
878.9624	1358.5493	65535	64633.55
879.1064	1360.4131	65535	64635.6
879.2504	1362.276	65535	64636.45
879.3944	1364.1383	65535	64634.55
879.5384	1365.9998	65535	64628.15
879.6823	1367.8606	65535	64634.55
879.8263	1369.7206	65535	64634.9
879.9702	1371.5799	65535	64633.1
880.1142	1373.4384	65535	64635.7
880.2581	1375.2962	65535	64634.25
880.402	1377.1533	65535	64635.8
880.5459	1379.0096	65535	64634.8
880.6898	1380.8652	65535	64635.7
880.8337	1382.7201	65535	64636
880.9776	1384.5742	65535	64636.85
881.1215	1386.4275	65535	64635.1
881.2653	1388.2802	65535	64637.5
881.4092	1390.132	65535	64633.6
881.553	1391.9832	65535	64635.3
881.6968	1393.8336	65535	64634.75
881.8406	1395.6832	65535	64632.9
881.9844	1397.5322	65535	64633.2
882.1282	1399.3803	65535	64632.55
882.272	1401.2278	65535	64634.9
882.4158	1403.0745	65535	64636.45
882.5595	1404.9204	65535	64637.2
882.7033	1406.7656	65535	64635.75
882.847	1408.6101	65535	64636.25
882.9908	1410.4538	65535	64636.55
883.1345	1412.2968	65535	64633.75
883.2782	1414.139	65535	64634.45
883.4219	1415.9805	65535	64635.25
883.5656	1417.8213	65535	64629.3
883.7092	1419.6613	65535	64636
883.8529	1421.5006	65535	64635.2
883.9965	1423.3391	65535	64636.7
884.1402	1425.1769	65535	64634.75
884.2838	1427.0139	65535	64636.55
884.4274	1428.8502	65535	64632.9
884.571	1430.6858	65535	64634.2
884.7146	1432.5206	65535	64636.15
884.8582	1434.3547	65535	64634.2
885.0018	1436.188	65535	64634.5
885.1453	1438.0206	65535	64633.5
885.2889	1439.8524	65535	64635.3
885.4324	1441.6835	65535	64636.05
885.5759	1443.5139	65535	64634.25
885.7194	1445.3435	65535	64636.15
885.8629	1447.1724	65535	64635.4
886.0064	1449.0005	65535	64632.6
886.1499	1450.8279	65535	64635.35
886.2933	1452.6545	65535	64634.55
886.4368	1454.4804	65535	64637.05
886.5802	1456.3056	65535	64629.3
886.7237	1458.13	65535	64634.3
886.8671	1459.9536	65535	64634.65
887.0105	1461.7766	65535	64635.7
887.1539	1463.5987	65535	64632.3
887.2972	1465.4202	65535	64634.2
887.4406	1467.2409	65535	64635.85
887.584	1469.0608	65535	64634.35
887.7273	1470.88	65535	64637.85
887.8706	1472.6984	65535	64635.65
888.0139	1474.5161	65535	64633.3
888.1572	1476.3331	65535	64637.3
888.3005	1478.1493	65535	64634.35
888.4438	1479.9648	65535	64634.25
888.5871	1481.7795	65535	64637
888.7303	1483.5935	65535	64637.8
888.8736	1485.4067	65535	64637.75
889.0168	1487.2192	65535	64636.75
889.16	1489.031	65535	64632.25
889.3032	1490.842	65535	64636.1
889.4464	1492.6522	65535	64637.1
889.5896	1494.4618	65535	64635
889.7327	1496.2705	65535	64635.65
889.8759	1498.0785	65535	64636.55
890.019	1499.8858	65535	64634.85
890.1622	1501.6924	65535	64637.8
890.3053	1503.4981	65535	64635.45
890.4484	1505.3032	65535	64635.85
890.5914	1507.1075	65535	64635.85
890.7345	1508.911	65535	64636.6
890.8776	1510.7138	65535	64634
891.0206	1512.5159	65535	64634.65
891.1637	1514.3172	65535	64636.25
891.3067	1516.1178	65535	64636.9
891.4497	1517.9176	65535	64632.8
891.5927	1519.7166	65535	64636.85
891.7357	1521.515	65535	64630.1
891.8786	1523.3126	65535	64636.45
892.0216	1525.1094	65535	64634.6
892.1645	1526.9055	65535	64636.4
892.3074	1528.7008	65535	64635.2
892.4503	1530.4954	65535	64631.65
892.5932	1532.2893	65535	64638.35
892.7361	1534.0824	65535	64633.35
892.879	1535.8747	65535	64637.4
893.0218	1537.6663	65535	64635.2
893.1647	1539.4572	65535	64635.8
893.3075	1541.2473	65535	64636.05
893.4503	1543.0367	65535	64636.75
893.5931	1544.8253	65535	64632.25
893.7359	1546.6132	65535	64633.5
893.8787	1548.4003	65535	64627
894.0214	1550.1867	65535	64627.25
894.1642	1551.9723	65531.2	64629
894.3069	1553.7572	65534.15	64634.7
894.4496	1555.5414	65535	64637.1
894.5923	1557.3247	65444.75	64548.6
894.735	1559.1074	65535	64638.9
894.8777	1560.8893	65512.3	64615.45
895.0204	1562.6705	65522.4	64626.2
895.163	1564.4509	65438	64542.55
895.3056	1566.2305	65503.75	64604.9
895.4482	1568.0094	65531.35	64636.55
895.5908	1569.7876	65503.85	64608.5
895.7334	1571.565	65423.8	64526.55
895.876	1573.3417	65485	64588.95
896.0186	1575.1176	65471.5	64575.95
896.1611	1576.8928	65414.9	64517.6
896.3036	1578.6672	65269.85	64376
896.4461	1580.4409	65376.35	64480.55
896.5886	1582.2138	65120.65	64222.95
896.7311	1583.986	65190.55	64292.5
896.8736	1585.7575	64873.8	63977.35
897.0161	1587.5282	65014.45	64119.75
897.1585	1589.2981	64987.7	64093.05
897.3009	1591.0673	64660.1	63766.15
897.4433	1592.8358	64319.5	63423.8
897.5857	1594.6035	64667.4	63769.7
897.7281	1596.3704	64727.25	63829.05
897.8705	1598.1366	64059.4	63163.05
898.0128	1599.9021	63612.35	62717.05
898.1551	1601.6668	64284.55	63387.05
898.2975	1603.4308	63854.45	62958.45
898.4398	1605.194	63894.95	62994.8
898.5821	1606.9564	62926.2	62028.8
898.7243	1608.7182	63459.6	62561.05
898.8666	1610.4791	62928.5	62034.4
899.0088	1612.2394	63482.95	62588.75
899.1511	1613.9988	62838.9	61944.5
899.2933	1615.7576	63605.5	62710.4
899.4355	1617.5156	63535.25	62633.55
899.5776	1619.2728	64228.4	63331.9
899.7198	1621.0293	63126.95	62232.4
899.862	1622.785	63143.85	62244.55
900.0041	1624.54	63545.1	62646.25
900.1462	1626.2942	62855.4	61961
900.2883	1628.0477	61873.1	60977.8
900.4304	1629.8005	61213	60314.1
900.5725	1631.5525	61881.9	60987
900.7145	1633.3037	60689.5	59794.8
900.8566	1635.0542	60536.8	59640.75
900.9986	1636.804	60928.55	60033.85
901.1406	1638.553	59858.85	58852.9
901.2826	1640.3013	60243.85	59348.2
901.4245	1642.0488	59510.1	58614.1
901.5665	1643.7955	59966.1	59071.35
901.7085	1645.5416	59437.5	58542.9
901.8504	1647.2868	58947	58052.9
901.9923	1649.0313	59734.05	58838.35
902.1342	1650.7751	59264.1	58366.9
902.2761	1652.5181	58879.35	57984.4
902.4179	1654.2604	59012.6	58117.3
902.5598	1656.0019	59445.45	58552.2
902.7016	1657.7427	59227.45	58332.55
902.8434	1659.4828	59767.7	58874.9
902.9852	1661.222	59423.65	58527.05
903.127	1662.9606	59891.35	58998.75
903.2687	1664.6984	59097.95	58201.4
903.4105	1666.4354	59155.85	58259.95
903.5522	1668.1717	58026.75	57131.3
903.6939	1669.9072	57275.25	56381.3
903.8356	1671.642	56951.1	56054.8
903.9773	1673.3761	56603.5	55708.9
904.119	1675.1094	56296.05	55401
904.2606	1676.8419	55765.6	54872.4
904.4022	1678.5737	55601.7	54706.95
904.5439	1680.3048	55252.5	54358.55
904.6855	1682.0351	54979.25	54087.95
904.827	1683.7646	54600	53703.45
904.9686	1685.4934	54626.7	53732.5
905.1101	1687.2215	53825.2	52929.85
905.2517	1688.9488	54264.05	53368.8
905.3932	1690.6754	53107.2	52213.25
905.5347	1692.4012	53444.5	52549.6
905.6761	1694.1263	53359.5	52465.95
905.8176	1695.8506	53001.2	52104.65
905.9591	1697.5742	52857.3	51964.6
906.1005	1699.297	52568.65	51674.45
906.2419	1701.0191	52395.65	51502.25
906.3833	1702.7404	52024.25	51131.25
906.5246	1704.461	51799	50903.75
906.666	1706.1808	51615.5	50719.25
906.8073	1707.8999	51519.4	50624.75
906.9487	1709.6182	51247.1	50352.7
907.09	1711.3358	51115.55	50221.1
907.2313	1713.0527	50955.4	50064.75
907.3725	1714.7688	50762.2	49863.25
907.5138	1716.4841	50344.3	49448.45
907.655	1718.1987	50407.6	49507.25
907.7962	1719.9126	50121.1	49229.15
907.9374	1721.6257	49971.55	49074.2
908.0786	1723.338	50000.5	49105.55
908.2198	1725.0496	49454.75	48562.85
908.3609	1726.7605	49392.65	48499.35
908.502	1728.4706	49237.85	48343.25
908.6431	1730.18	48989.2	48093.05
908.7842	1731.8886	48867.3	47972.75
908.9253	1733.5964	48741.65	47828.45
909.0664	1735.3036	48622.95	47727.4
909.2074	1737.0099	48459.7	47568.65
909.3484	1738.7156	48222.85	47331.05
909.4894	1740.4204	48069.4	47174.3
909.6304	1742.1246	47991.25	47096.05
909.7714	1743.8279	47780.2	46886.6
909.9123	1745.5306	47715.4	46823.45
910.0532	1747.2325	47459.05	46565.95
910.1941	1748.9336	47330.05	46437.95
910.335	1750.634	47084.9	46189.35
910.4759	1752.3336	47048.55	46155.9
910.6168	1754.0325	46898.65	46007.45
910.7576	1755.7307	46877.95	45984.7
910.8984	1757.4281	46761.1	45867.85
911.0392	1759.1247	46671.75	45770.7
911.18	1760.8206	46458.9	45559.45
911.3208	1762.5158	46418.35	45521.25
911.4615	1764.2102	46137.4	45245.2
911.6022	1765.9039	45954.5	45061.85
911.7429	1767.5968	45861.3	44970.7
911.8836	1769.289	45756.15	44863.85
912.0243	1770.9804	45572.7	44678.55
912.1649	1772.6711	45514.4	44622.7
912.3056	1774.361	45351.55	44457.1
912.4462	1776.0502	45252.4	44357.4
912.5868	1777.7386	45112.9	44214.4
912.7274	1779.4263	44963.75	44069.45
912.8679	1781.1132	44932.9	44041.35
913.0084	1782.7994	44751.3	43858.25
913.149	1784.4849	44609.75	43718.55
913.2895	1786.1696	44332.25	43433.45
913.4299	1787.8535	44326.2	43434.55
913.5704	1789.5367	44189.7	43297.9
913.7108	1791.2192	44101.7	43209
913.8513	1792.9009	43887.25	42966.25
913.9917	1794.5818	43767.3	42871.4
914.132	1796.2621	43653.9	42760.1
914.2724	1797.9415	43529.2	42635.9
914.4128	1799.6202	43391.95	42499.2
914.5531	1801.2982	43299.75	42408.95
914.6934	1802.9755	43144.1	42247.95
914.8337	1804.6519	43044.75	42151.6
914.9739	1806.3277	42823.4	41930.55
915.1142	1808.0027	42659.7	41768.25
915.2544	1809.6769	42614.4	41722.3
915.3946	1811.3504	42449.45	41555.05
915.5348	1813.0231	42327.95	41435.35
915.675	1814.6951	42309	41416.65
915.8151	1816.3664	42269.35	41375.5
915.9553	1818.0369	42111.45	41216.95
916.0954	1819.7067	41937.3	41046.85
916.2355	1821.3757	41849.25	40955.15
916.3755	1823.044	41786.9	40897
916.5156	1824.7115	41641.65	40749.75
916.6556	1826.3783	41439.9	40549.7
916.7956	1828.0443	41312.95	40422.4
916.9356	1829.7096	41225.25	40331.3
917.0756	1831.3741	41052.2	40155.45
917.2155	1833.0379	41027.05	40132.8
917.3555	1834.701	40845.7	39950.25
917.4954	1836.3633	40743.75	39851.05
917.6353	1838.0248	40629.25	39734.7
917.7751	1839.6856	40514.15	39621.55
917.915	1841.3457	40455.55	39564.95
918.0548	1843.005	40334.75	39442.95
918.1946	1844.6636	40270.6	39378.75
918.3344	1846.3214	40092.2	39198.4
918.4742	1847.9785	40066.3	39174.95
918.6139	1849.6349	39907.55	39012
918.7537	1851.2904	39791.55	38890.1
918.8934	1852.9453	39670.7	38777.65
919.0331	1854.5994	39548.25	38654.15
919.1727	1856.2528	39603	38705.35
919.3124	1857.9054	39441	38547.85
919.452	1859.5572	39361.4	38468
919.5916	1861.2083	39256.9	38363.45
919.7312	1862.8587	39216.15	38324.4
919.8708	1864.5084	39034.95	38140.9
920.0103	1866.1572	38871.6	37980.25
920.1498	1867.8054	38766.95	37874.85
920.2893	1869.4528	38650.5	37757.8
920.4288	1871.0994	38591.65	37700
920.5683	1872.7453	38448.8	37554.4
920.7077	1874.3905	38374.9	37476.7
920.8471	1876.0349	38240	37347.5
920.9865	1877.6786	38234.75	37342.6
921.1259	1879.3215	38192.15	37299.85
921.2653	1880.9637	38051.2	37157.7
921.4046	1882.6051	37956	37063.55
921.5439	1884.2458	37830.7	36937.2
921.6832	1885.8858	37682.7	36791.35
921.8225	1887.525	37543.5	36650.35
921.9617	1889.1634	37348.05	36455.45
922.101	1890.8011	37224.2	36331.35
922.2402	1892.4381	37141.05	36247.8
922.3794	1894.0743	37095.6	36204.4
922.5185	1895.7098	37006.1	36115.75
922.6577	1897.3446	36838.3	35945.45
922.7968	1898.9786	36733.7	35835.85
922.9359	1900.6118	36677.85	35787.45
923.075	1902.2443	36481.4	35587.3
923.214	1903.8761	36358.3	35467.4
923.3531	1905.5071	36156.3	35261.8
923.4921	1907.1374	36071	35176.3
923.6311	1908.7669	35983.95	35090.9
923.77	1910.3957	35921.35	35031.45
923.909	1912.0237	35652.15	34758.55
924.0479	1913.651	35639.7	34747.8
924.1868	1915.2776	35524.4	34634.2
924.3257	1916.9034	35378.35	34486.8
924.4646	1918.5285	35213.35	34322.9
924.6034	1920.1528	34989.35	34095.45
924.7422	1921.7764	34937.2	34045
924.881	1923.3992	34821.65	33929.15
925.0198	1925.0213	34595.25	33701.8
925.1586	1926.6427	34420.6	33529.25
925.2973	1928.2633	34417.8	33416.3
925.436	1929.8832	34233.95	33340.1
925.5747	1931.5023	34031.55	33138.75
925.7134	1933.1207	34010.35	33118.1
925.852	1934.7383	33918.6	33024.65
925.9906	1936.3552	33738.15	32846.45
926.1292	1937.9714	33682.65	32790.35
926.2678	1939.5868	33494.8	32602.4
926.4064	1941.2015	33304.65	32409.9
926.5449	1942.8154	33199.8	32306.05
926.6834	1944.4286	33004.95	32112.75
926.8219	1946.041	32896.5	31985.65
926.9604	1947.6528	32703.65	31805.7
927.0988	1949.2637	32688.5	31797.3
927.2372	1950.8739	32531.1	31638.4
927.3756	1952.4834	32473.1	31580.3
927.514	1954.0921	32406.9	31515.05
927.6523	1955.7001	32244.45	31346.55
927.7907	1957.3074	32119	31227
927.929	1958.9139	31987.95	31096.7
928.0673	1960.5197	31913.05	31018.05
928.2055	1962.1247	31715	30823.45
928.3438	1963.729	31554.75	30663.95
928.482	1965.3325	31437.5	30523.1
928.6202	1966.9353	31327	30434.65
928.7584	1968.5374	31239.3	30348.1
928.8965	1970.1387	31120.5	30228.15
929.0346	1971.7393	31023.3	30132.35
929.1727	1973.3392	30859.2	29966.05
929.3108	1974.9383	30758.35	29868.6
929.4489	1976.5366	30582.65	29693.5
929.5869	1978.1342	30608.55	29717.3
929.7249	1979.7311	30522.6	29629.7
929.8629	1981.3273	30346.6	29455.3
930.0009	1982.9227	30289.75	29395.7
930.1388	1984.5173	30141.85	29250.05
930.2767	1986.1112	29974.65	29084.35
930.4146	1987.7044	29983.5	29095.1
930.5525	1989.2968	29852.7	28960.2
930.6904	1990.8885	29792.4	28895.9
930.8282	1992.4795	29719.9	28824
930.966	1994.0697	29570.2	28678.25
931.1038	1995.6592	29457.45	28565.4
931.2415	1997.2479	29371.55	28479.35
931.3793	1998.8359	29260.4	28369.25
931.517	2000.4232	29089.75	28199.55
931.6547	2002.0097	29016.7	28125.85
931.7923	2003.5955	28872.7	27983.35
931.93	2005.1805	28822.8	27930.05
932.0676	2006.7648	28705.15	27814.05
932.2052	2008.3484	28649.55	27755.9
932.3427	2009.9312	28659.2	27764.55
932.4803	2011.5133	28454.65	27565.65
932.6178	2013.0946	28304.7	27414.75
932.7553	2014.6752	28297.55	27408.05
932.8928	2016.2551	28223.75	27330.5
933.0302	2017.8342	28048	27155.85
933.1676	2019.4126	27965.3	27074.55
933.305	2020.9902	27841.65	26949.3
933.4424	2022.5672	27793.25	26897.65
933.5798	2024.1433	27702.25	26803.65
933.7171	2025.7188	27580.5	26692.7
933.8544	2027.2935	27529.7	26638.3
933.9917	2028.8674	27420.8	26531.45
934.129	2030.4406	27299.25	26408.1
934.2662	2032.0131	27168.35	26280.4
934.4034	2033.5849	27063.9	26167.65
934.5406	2035.1559	27011.8	26120.55
934.6778	2036.7261	26964.9	26074.2
934.8149	2038.2957	26877.85	25984.9
934.952	2039.8645	26818.6	25928.55
935.0891	2041.4325	26786.25	25890.6
935.2262	2042.9998	26642.15	25751.85
935.3632	2044.5664	26611.95	25718.7
935.5002	2046.1323	26483.95	25593.85
935.6372	2047.6974	26402.05	25510.45
935.7742	2049.2617	26349.15	25457.75
935.9111	2050.8254	26321.8	25410.55
936.048	2052.3883	26225.35	25332.8
936.1849	2053.9504	26133.3	25240.7
936.3218	2055.5118	26013.7	25123.55
936.4586	2057.0725	25887.7	24995.7
936.5955	2058.6325	25836.1	24944.9
936.7323	2060.1917	25733	24841.35
936.869	2061.7502	25639.3	24746.45
937.0058	2063.3079	25586.8	24695.3
937.1425	2064.8649	25490.35	24596.55
937.2792	2066.4212	25424.15	24531.7
937.4159	2067.9767	25354.35	24463.2
937.5525	2069.5315	25211.25	24320.2
937.6891	2071.0856	25096.45	24204.95
937.8257	2072.6389	24988.75	24096.35
937.9623	2074.1915	24847	23956.45
938.0989	2075.7433	24753.4	23860.4
938.2354	2077.2945	24700.15	23810.15
938.3719	2078.8448	24631.3	23740.5
938.5084	2080.3945	24526.65	23636.1
938.6448	2081.9434	24484.85	23593.5
938.7812	2083.4916	24448.6	23556.4
938.9176	2085.039	24307.05	23412.6
939.054	2086.5857	24221.15	23328.4
939.1903	2088.1317	24171.2	23278.6
939.3267	2089.677	24042.6	23150
939.463	2091.2215	23967.8	23075.75
939.5992	2092.7652	23934.35	23043.15
939.7355	2094.3083	23862.45	22970.15
939.8717	2095.8506	23819.15	22929.25
940.0079	2097.3921	23793.5	22902
940.1441	2098.933	23690.55	22799.1
940.2802	2100.4731	23632.4	22740.5
940.4163	2102.0124	23588.05	22689.15
940.5524	2103.5511	23489.5	22598.05
940.6885	2105.089	23455	22563.5
940.8245	2106.6261	23360.25	22469.75
940.9606	2108.1626	23311.25	22419.95
941.0965	2109.6983	23272.9	22353.1
941.2325	2111.2332	23159.75	22267.2
941.3684	2112.7675	23111.8	22218.5
941.5044	2114.301	23008.45	22115.95
941.6403	2115.8337	22972.65	22081.15
941.7761	2117.3657	22929.5	22039.45
941.912	2118.897	22867.9	21976.55
942.0478	2120.4276	22735.9	21837.65
942.1835	2121.9575	22641.35	21748.75
942.3193	2123.4866	22654.3	21746.65
942.455	2125.0149	22584.45	21686.3
942.5907	2126.5426	22442.25	21550.7
942.7264	2128.0695	22383.7	21487.95
942.8621	2129.5956	22310.2	21419.55
942.9977	2131.1211	22265.15	21370.15
943.1333	2132.6458	22176.6	21285.7
943.2689	2134.1698	22132.3	21240.65
943.4044	2135.693	22057.75	21163
943.54	2137.2155	21979.1	21085.3
943.6755	2138.7373	21945.8	21054.65
943.8109	2140.2584	21854.15	20961.8
943.9464	2141.7787	21736.8	20839.15
944.0818	2143.2983	21649.2	20757.65
944.2172	2144.8171	21557.3	20667.25
944.3526	2146.3353	21500.3	20608.05
944.4879	2147.8527	21445.15	20553.95
944.6232	2149.3693	21424.6	20533.05
944.7585	2150.8853	21307.65	20414.6
944.8938	2152.4005	21205.5	20312.6
945.029	2153.9149	21191.9	20300
945.1642	2155.4287	21141.05	20249.2
945.2994	2156.9417	21030	20137.65
945.4346	2158.454	20993.9	20098.35
945.5697	2159.9655	20923.65	20032.55
945.7048	2161.4764	20890.05	19998.3
945.8399	2162.9865	20790	19897.5
945.9749	2164.4958	20740.9	19847.75
946.1099	2166.0045	20675.4	19778.4
946.2449	2167.5124	20662.85	19772.1
946.3799	2169.0195	20605.15	19713.85
946.5148	2170.526	20542.4	19650.3
946.6498	2172.0317	20436.95	19544.9
946.7846	2173.5367	20361.8	19469.55
946.9195	2175.0409	20336.45	19444.75
947.0543	2176.5445	20296.05	19404.35
947.1891	2178.0473	20217.2	19325.55
947.3239	2179.5494	20130.85	19235.05
947.4587	2181.0507	20031.1	19137.75
947.5934	2182.5513	19953.05	19058.85
947.7281	2184.0512	19923.85	19032
947.8628	2185.5504	19852.5	18959.9
947.9974	2187.0488	19732.55	18840.6
948.132	2188.5465	19660.95	18768.4
948.2666	2190.0435	19608.35	18715.4
948.4012	2191.5397	19535.1	18642.75
948.5357	2193.0353	19503.35	18610.1
948.6702	2194.5301	19376.25	18483.9
948.8047	2196.0241	19267.35	18373.3
948.9392	2197.5175	19217.55	18325.7
949.0736	2199.0101	19131.6	18237.05
949.208	2200.502	19071.45	18180.2
949.3424	2201.9931	19008.2	18118.3
949.4767	2203.4835	18894.6	18000.75
949.611	2204.9733	18827.4	17929.7
949.7453	2206.4622	18824	17933.45
949.8796	2207.9505	18744	17846.3
950.0138	2209.438	18636.9	17747.6
950.148	2210.9248	18586.25	17692.15
950.2822	2212.4109	18510.4	17618.3
950.4164	2213.8962	18464.85	17571.75
950.5505	2215.3809	18404.45	17510.6
950.6846	2216.8648	18354.05	17461.75
950.8186	2218.3479	18301.15	17404.2
950.9527	2219.8304	18206.6	17311.55
951.0867	2221.3121	18136.5	17243.3
951.2207	2222.7931	18060.2	17167.8
951.3546	2224.2733	18037.4	17146.05
951.4886	2225.7529	17974.15	17080.9
951.6225	2227.2317	17894.8	17001.3
951.7563	2228.7098	17852.05	16961.45
951.8902	2230.1872	17743.75	16850.65
952.024	2231.6638	17742.9	16852.1
952.1578	2233.1397	17643.3	16745.5
952.2916	2234.6149	17576.15	16681.95
952.4253	2236.0894	17527.65	16636.15
952.559	2237.5632	17510.6	16606.6
952.6927	2239.0362	17415.6	16521.25
952.8263	2240.5085	17324.5	16433.55
952.9599	2241.9801	17302	16409.4
953.0935	2243.4509	17225.7	16334.9
953.2271	2244.921	17138.35	16246
953.3606	2246.3904	17051.8	16156.65
953.4941	2247.8591	17022.5	16131.15
953.6276	2249.3271	17007.15	16116.6
953.7611	2250.7943	16937.15	16045.15
953.8945	2252.2608	16849.7	15959.15
954.0279	2253.7266	16820.3	15930.2
954.1612	2255.1917	16747.95	15855.9
954.2946	2256.656	16679.75	15787.5
954.4279	2258.1197	16582.55	15691.7
954.5612	2259.5826	16591.9	15697.15
954.6944	2261.0447	16509.5	15616.6
954.8276	2262.5062	16478	15584.15
954.9608	2263.9669	16441.35	15547.85
955.094	2265.4269	16395.55	15504.25
955.2271	2266.8862	16327.15	15434.2
955.3602	2268.3448	16295	15402.9
955.4933	2269.8026	16267.15	15375
955.6264	2271.2598	16166.45	15274.2
955.7594	2272.7162	16144.95	15253
955.8924	2274.1719	16077.6	15185.75
956.0253	2275.6268	16043.45	15151.9
956.1583	2277.0811	15986.7	15095.3
956.2912	2278.5346	15940.05	15048.2
956.4241	2279.9874	15906.55	15015.4
956.5569	2281.4395	15880.1	14988.4
956.6897	2282.8908	15781.65	14883.85
956.8225	2284.3414	15772.2	14877.55
956.9553	2285.7914	15661.95	14771.35
957.088	2287.2406	15637.8	14744.05
957.2207	2288.689	15574.45	14682.15
957.3534	2290.1368	15540.15	14646.6
957.486	2291.5838	15461.75	14568.65
957.6186	2293.0302	15449.4	14555.9
957.7512	2294.4758	15349.05	14457.25
957.8838	2295.9206	15278.65	14385.75
958.0163	2297.3648	15239	14345.95
958.1488	2298.8082	15228.5	14335.45
958.2813	2300.251	15174.45	14281.75
958.4137	2301.693	15106.1	14212
958.5461	2303.1343	15123.95	14230.35
958.6785	2304.5748	15073.6	14181.2
958.8108	2306.0147	15001	14108.1
958.9432	2307.4538	14960.9	14066.95
959.0754	2308.8922	14873.25	13982.1
959.2077	2310.3299	14860.9	13969.5
959.3399	2311.7669	14790.4	13898.35
959.4721	2313.2031	14759.25	13868.55
959.6043	2314.6387	14696.15	13802.9
959.7365	2316.0735	14628.75	13736.8
959.8686	2317.5076	14592.1	13700.1
960.0006	2318.941	14540.3	13647.45
960.1327	2320.3737	14522.55	13629.85
960.2647	2321.8056	14433.5	13538.8
960.3967	2323.2369	14420	13527.45
960.5287	2324.6674	14356.75	13462.75
960.6606	2326.0972	14293.25	13398.95
960.7925	2327.5263	14257.7	13366.85
960.9244	2328.9547	14213.55	13321.55
961.0562	2330.3823	14158.65	13264.9
961.1881	2331.8092	14150.5	13254.65
961.3198	2333.2355	14049.6	13156.2
961.4516	2334.661	14052.65	13158.85
961.5833	2336.0858	14007.1	13112.1
961.715	2337.5098	13935.35	13041.8
961.8467	2338.9332	13909	13015
961.9783	2340.3558	13859.8	12964.25
962.1099	2341.7778	13806.65	12914.4
962.2415	2343.199	13784.15	12891.25
962.373	2344.6195	13725.95	12833.7
962.5045	2346.0393	13681.75	12789.55
962.636	2347.4583	13664.8	12771.35
962.7675	2348.8767	13597.75	12703.55
962.8989	2350.2943	13539.4	12647.25
963.0303	2351.7113	13532.05	12637.05
963.1617	2353.1275	13483.05	12591.6
963.293	2354.543	13463.75	12549.2
963.4243	2355.9578	13414.85	12522.5
963.5556	2357.3718	13309.7	12418.2
963.6868	2358.7852	13245.15	12350.4
963.818	2360.1978	13190.85	12297.8
963.9492	2361.6098	13178.1	12285.75
964.0803	2363.021	13102.65	12204.7
964.2114	2364.4315	13083.35	12192.2
964.3425	2365.8413	13026.15	12132.8
964.4736	2367.2504	12985.3	12094.6
964.6046	2368.6587	12905.1	12013.25
964.7356	2370.0664	12871.85	11980.55
964.8666	2371.4733	12846.35	11952.75
964.9975	2372.8795	12776.4	11885.35
965.1284	2374.285	12734.2	11843.25
965.2593	2375.6899	12656.1	11764.7
965.3901	2377.0939	12578.2	11687.55
965.5209	2378.4973	12527.95	11636.25
965.6517	2379.9	12488.45	11596.15
965.7825	2381.3019	12427.5	11536.05
965.9132	2382.7032	12423.65	11531.4
966.0439	2384.1037	12391.5	11502.1
966.1745	2385.5035	12316.7	11425.8
966.3051	2386.9027	12282	11390.25
966.4357	2388.3011	12266.85	11371.85
966.5663	2389.6987	12220	11327
966.6968	2391.0957	12163.2	11272.7
966.8273	2392.492	12123.65	11234.6
966.9578	2393.8876	12052.7	11162.1
967.0882	2395.2824	11971.55	11081.9
967.2186	2396.6765	11928.15	11037.85
967.349	2398.07	11890.55	10999.6
967.4793	2399.4627	11905.8	11014.6
967.6097	2400.8547	11835.8	10945.65
967.7399	2402.246	11784.05	10887.7
967.8702	2403.6366	11712.1	10820.8
968.0004	2405.0265	11636.1	10745
968.1306	2406.4156	11616.1	10720.2
968.2607	2407.8041	11576.9	10683.1
968.3909	2409.1918	11530.9	10637.5
968.521	2410.5789	11478.75	10585.1
968.651	2411.9652	11409.3	10514.1
968.781	2413.3508	11398.15	10506
968.911	2414.7358	11356.75	10464.4
969.041	2416.12	11328.9	10438.55
969.1709	2417.5035	11263.7	10374.4
969.3008	2418.8863	11238.2	10343.8
969.4307	2420.2684	11211.95	10320.8
969.5606	2421.6497	11152.6	10261.2
969.6904	2423.0304	11062.8	10173.1
969.8201	2424.4104	11046.75	10155.8
969.9499	2425.7896	10984.5	10087.3
970.0796	2427.1682	10981.25	10089.7
970.2093	2428.546	10947.45	10055.2
970.3389	2429.9232	10936.85	10043.3
970.4685	2431.2996	10895.85	10004.85
970.5981	2432.6753	10867.7	9976.4
970.7277	2434.0503	10840.95	9949.6
970.8572	2435.4246	10784.3	9894.2
970.9867	2436.7982	10760.55	9867.15
971.1161	2438.1711	10704.7	9813.9
971.2456	2439.5433	10662.75	9768.65
971.375	2440.9148	10604.6	9711.55
971.5043	2442.2856	10581.6	9690.6
971.6336	2443.6557	10556.65	9666.25
971.7629	2445.025	10505.35	9616.2
971.8922	2446.3937	10500.35	9610.15
972.0214	2447.7617	10446.65	9553.35
972.1506	2449.1289	10432.15	9541
972.2798	2450.4955	10375.15	9478.5
972.4089	2451.8613	10344.1	9453.6
972.538	2453.2265	10313.6	9422.75
972.6671	2454.5909	10266.15	9372.55
972.7961	2455.9546	10247.6	9357.4
972.9251	2457.3177	10194.65	9303.95
973.0541	2458.68	10206.7	9314
973.1831	2460.0416	10189.15	9297.25
973.312	2461.4025	10183.25	9288.9
973.4408	2462.7627	10128.55	9224.85
973.5697	2464.1222	10088.35	9195.45
973.6985	2465.4811	10056.45	9164.55
973.8273	2466.8392	10042.1	9149.7
973.956	2468.1966	9995	9101.6
974.0847	2469.5533	9982.45	9087.35
974.2134	2470.9093	9979.05	9087.35
974.3421	2472.2645	9939.05	9047.85
974.4707	2473.6191	9885.85	8995.25
974.5993	2474.973	9816	8924.65
974.7278	2476.3262	9824.8	8931.75
974.8563	2477.6787	9772.75	8880.4
974.9848	2479.0305	9722.3	8832.35
975.1132	2480.3816	9704.45	8812.1
975.2417	2481.7319	9674.95	8784.1
975.37	2483.0816	9612.35	8717.2
975.4984	2484.4306	9575.35	8683.1
975.6267	2485.7789	9543.45	8653.8
975.755	2487.1264	9480.55	8586.9
975.8833	2488.4733	9467.3	8575.95
976.0115	2489.8195	9434.95	8535.85
976.1397	2491.165	9401.9	8505.9
976.2678	2492.5097	9349.3	8455.5
976.3959	2493.8538	9313.15	8421.45
976.524	2495.1972	9277.45	8385.4
976.6521	2496.5398	9249.95	8357.6
976.7801	2497.8818	9208.75	8315.75
976.9081	2499.2231	9174.85	8281.65
977.036	2500.5637	9120.95	8226.2
977.164	2501.9035	9121.7	8229.75
977.2918	2503.2427	9091.25	8195.25
977.4197	2504.5812	9030.85	8140
977.5475	2505.919	9034.9	8140.5
977.6753	2507.256	9000.2	8107.7
977.8031	2508.5924	8947.65	8057.25
977.9308	2509.9281	8938.75	8040.6
978.0585	2511.2631	8911.85	8019.7
978.1861	2512.5974	8874.65	7984
978.3137	2513.9309	8844.65	7952.9
978.4413	2515.2638	8832.1	7906.2
978.5689	2516.596	8780.45	7888.8
978.6964	2517.9275	8739.8	7847.75
978.8239	2519.2583	8718.2	7826.2
978.9513	2520.5884	8671.55	7778.85
979.0788	2521.9178	8633	7740.3
979.2062	2523.2465	8635.45	7744.35
979.3335	2524.5745	8571.7	7678.8
979.4608	2525.9018	8554.35	7661.05
979.5881	2527.2284	8533.05	7642.85
979.7154	2528.5543	8517.25	7626.2
979.8426	2529.8796	8491.7	7602.75
979.9698	2531.2041	8461.55	7569.85
980.0969	2532.5279	8411.85	7520.2
980.224	2533.851	8434.1	7543.95
980.3511	2535.1735	8380.25	7489.45
980.4781	2536.4952	8377.65	7486.4
980.6052	2537.8163	8337.3	7445.15
980.7321	2539.1366	8335.05	7443.15
980.8591	2540.4562	8281.3	7388.6
980.986	2541.7752	8255.25	7363.5
981.1129	2543.0935	8235.1	7344.15
981.2397	2544.411	8240.45	7348.6
981.3665	2545.7279	8215.95	7324
981.4933	2547.0441	8202.1	7309.05
981.62	2548.3596	8195.1	7299.15
981.7467	2549.6744	8161.95	7270.4
981.8734	2550.9885	8133.25	7239.55
982.0001	2552.3019	8097.5	7206.5
982.1267	2553.6146	8074.7	7182.35
982.2532	2554.9266	8053.85	7160.25
982.3798	2556.2379	8023.45	7129.1
982.5063	2557.5485	8008.7	7116.3
982.6327	2558.8585	7982.35	7082
982.7592	2560.1677	7983.6	7088.15
982.8856	2561.4762	7948.65	7055.75
983.0119	2562.7841	7930.3	7034.9
983.1383	2564.0913	7898.4	7009.7
983.2646	2565.3977	7896.35	7005.5
983.3908	2566.7035	7867.15	6975.25
983.517	2568.0086	7860.35	6965.25
983.6432	2569.313	7852.2	6958.15
983.7694	2570.6167	7840.45	6945.65
983.8955	2571.9197	7810.5	6917.55
984.0216	2573.222	7784.25	6888.95
984.1476	2574.5236	7772.45	6879.1
984.2737	2575.8246	7736	6841.95
984.3996	2577.1248	7729.65	6834.1
984.5256	2578.4244	7708.1	6816.65
984.6515	2579.7232	7695.75	6804.3
984.7774	2581.0214	7690.35	6774.85
984.9032	2582.3189	7656.1	6763.9
985.029	2583.6157	7651	6753.8
985.1548	2584.9118	7633.2	6739.05
985.2806	2586.2072	7599.35	6706.1
985.4063	2587.5019	7582.85	6692.3
985.5319	2588.7959	7545.1	6652.95
985.6576	2590.0893	7561.1	6666.15
985.7832	2591.3819	7531	6641.05
985.9087	2592.6739	7498.6	6607.65
986.0343	2593.9652	7448.05	6553.95
986.1597	2595.2557	7470.15	6579.8
986.2852	2596.5456	7441.4	6549.1
986.4106	2597.8348	7393.9	6502.5
986.536	2599.1234	7374.15	6482.95
986.6614	2600.4112	7356.55	6463.25
986.7867	2601.6983	7341.2	6445.5
986.912	2602.9848	7296.25	6403.85
987.0372	2604.2705	7268.7	6369.65
987.1624	2605.5556	7253.5	6361.95
987.2876	2606.84	7231.7	6339.4
987.4128	2608.1237	7193.65	6303.25
987.5379	2609.4067	7166.9	6276.7
987.6629	2610.689	7158.1	6257.15
987.788	2611.9707	7141.9	6248.15
987.913	2613.2516	7089.9	6192
988.0379	2614.5319	7055.65	6163.5
988.1629	2615.8115	7023.8	6130.15
988.2878	2617.0903	7016.3	6121.4
988.4126	2618.3685	6989.5	6096.65
988.5375	2619.6461	6966.8	6072.55
988.6622	2620.9229	6913.75	6021.7
988.787	2622.199	6927.5	6035.1
988.9117	2623.4745	6908.35	6013.9
989.0364	2624.7493	6857.05	5966.1
989.161	2626.0234	6843.3	5953.05
989.2857	2627.2968	6835.3	5941.75
989.4102	2628.5695	6801.1	5905.75
989.5348	2629.8415	6755.6	5863.4
989.6593	2631.1128	6742.75	5848.45
989.7837	2632.3835	6712.75	5822.2
989.9082	2633.6535	6688.85	5796.7
990.0326	2634.9228	6689.4	5797.4
990.1569	2636.1914	6659.3	5768.7
990.2812	2637.4593	6641.5	5744.65
990.4055	2638.7265	6612.6	5719.05
990.5298	2639.9931	6589.35	5695.6
990.654	2641.259	6568.35	5673
990.7782	2642.5242	6548.1	5655.8
990.9023	2643.7887	6512.1	5620.7
991.0264	2645.0525	6512.25	5622
991.1505	2646.3156	6484.05	5590.05
991.2745	2647.5781	6457.8	5566.2
991.3985	2648.8398	6433.45	5542.95
991.5225	2650.1009	6398.1	5497.4
991.6464	2651.3613	6388.25	5495.3
991.7703	2652.6211	6383.5	5490.75
991.8942	2653.8801	6362.45	5471.35
992.018	2655.1385	6354.65	5461.15
992.1418	2656.3961	6326.7	5434.7
992.2655	2657.6531	6337.4	5446.65
992.3892	2658.9094	6314.95	5423
992.5129	2660.1651	6287.9	5398.15
992.6366	2661.42	6271.45	5378.25
992.7602	2662.6743	6263.1	5370.95
992.8837	2663.9279	6254.3	5364.65
993.0073	2665.1808	6224.75	5330.65
993.1307	2666.433	6203.1	5309.15
993.2542	2667.6846	6176.2	5283.2
993.3776	2668.9354	6184.5	5287.1
993.501	2670.1856	6165.9	5271.9
993.6244	2671.4351	6151.8	5263.5
993.7477	2672.6839	6136.1	5244.45
993.8709	2673.9321	6116.8	5226.15
993.9942	2675.1795	6096.65	5206.6
994.1174	2676.4263	6079.1	5186.15
994.2405	2677.6724	6057.6	5166.65
994.3637	2678.9179	6049.65	5158.9
994.4868	2680.1626	6021.15	5129.25
994.6098	2681.4067	6014	5122.85
994.7328	2682.6501	5977.35	5086.2
994.8558	2683.8928	5966.25	5074.7
994.9788	2685.1348	5939.65	5046.85
995.1017	2686.3761	5919.95	5029.3
995.2245	2687.6168	5913	5019.25
995.3474	2688.8568	5879.45	4987.75
995.4702	2690.0961	5855.7	4966.2
995.5929	2691.3348	5826.6	4936.35
995.7156	2692.5727	5833.8	4942.65
995.8383	2693.81	5802.85	4909.75
995.961	2695.0466	5774.85	4884.7
996.0836	2696.2826	5760.5	4867.6
996.2062	2697.5178	5762.55	4869.5
996.3287	2698.7524	5741.6	4849.35
996.4512	2699.9863	5722.55	4829.55
996.5737	2701.2195	5714.4	4823.45
996.6961	2702.452	5687.45	4794.05
996.8185	2703.6839	5672.65	4780.05
996.9408	2704.9151	5655.05	4762.45
997.0631	2706.1456	5633.25	4739.2
997.1854	2707.3755	5632.1	4740.4
997.3077	2708.6046	5618.85	4723.7
997.4299	2709.8331	5621.4	4727.45
997.552	2711.0609	5606.75	4716.75
997.6742	2712.2881	5585.8	4693
997.7963	2713.5145	5578.3	4683.2
997.9183	2714.7403	5573.5	4681.55
998.0403	2715.9654	5541.85	4649.6
998.1623	2717.1899	5551.85	4645.5
998.2842	2718.4136	5546.35	4654.95
998.4062	2719.6367	5513.75	4623.2
998.528	2720.8591	5529.6	4630.5
998.6498	2722.0809	5506.45	4613.65
998.7716	2723.3019	5499.55	4604.1
998.8934	2724.5223	5487.7	4594.4
999.0151	2725.7421	5481.65	4588.45
999.1368	2726.9611	5469.3	4576.45
999.2584	2728.1795	5450.35	4554.15
999.38	2729.3972	5440.8	4547.5
999.5016	2730.6142	5410.65	4511.75
999.6231	2731.8306	5366.75	4471.8
999.7446	2733.0462	5313.5	4420.35
999.8661	2734.2612	5309.35	4412.45
999.9875	2735.4756	5280.75	4387.75
1000.1089	2736.6892	5245.2	4351.65
1000.2302	2737.9022	5201.95	4313.15
1000.3515	2739.1145	5164.5	4272.25
1000.4728	2740.3262	5151.1	4253.7
1000.594	2741.5372	5125	4232.8
1000.7152	2742.7475	5085.5	4193.05
1000.8363	2743.9571	5072.1	4178.7
1000.9575	2745.1661	5047.45	4152.05
1001.0785	2746.3744	5026.4	4134.25
1001.1996	2747.582	5005.25	4112.9
1001.3206	2748.7889	4978.6	4085.65
1001.4415	2749.9952	4974.7	4084.45
1001.5625	2751.2008	4935.1	4041.85
1001.6833	2752.4057	4934	4040.45
1001.8042	2753.61	4905.45	4014.25
1001.925	2754.8136	4909.6	4016.15
1002.0458	2756.0165	4870.8	3979.9
1002.1665	2757.2188	4858	3967.55
1002.2872	2758.4204	4840.65	3951.35
1002.4078	2759.6213	4826.2	3932.6
1002.5285	2760.8215	4818.35	3921.85
1002.649	2762.0211	4802.75	3907.15
1002.7696	2763.22	4785.8	3889.05
1002.8901	2764.4182	4775.75	3882.85
1003.0106	2765.6158	4757.4	3863.85
1003.131	2766.8127	4742.45	3850.05
1003.2514	2768.009	4723.9	3831.95
1003.3717	2769.2045	4708.15	3816
1003.492	2770.3994	4697.15	3800.8
1003.6123	2771.5936	4690.2	3798.8
1003.7325	2772.7872	4657.6	3766.55
1003.8527	2773.9801	4619.75	3726.85
1003.9729	2775.1723	4636.25	3728.3
1004.093	2776.3639	4611.7	3718.35
1004.2131	2777.5548	4591.7	3700.1
1004.3331	2778.745	4576.1	3681.55
1004.4531	2779.9346	4581.35	3688.45
1004.5731	2781.1235	4578.8	3686.4
1004.693	2782.3117	4546.7	3655.05
1004.8129	2783.4992	4554.8	3663.3
1004.9328	2784.6861	4523.3	3631.85
1005.0526	2785.8723	4523.55	3631.7
1005.1723	2787.0579	4520.3	3626.5
1005.2921	2788.2428	4504.25	3609.95
1005.4118	2789.427	4501.4	3608.4
1005.5314	2790.6106	4497.9	3607.65
1005.651	2791.7935	4491.15	3598.3
1005.7706	2792.9757	4481.4	3592.9
1005.8902	2794.1573	4479.4	3584.75
1006.0097	2795.3382	4476.2	3584.5
1006.1291	2796.5184	4476.85	3585.75
1006.2485	2797.698	4481.8	3588.1
1006.3679	2798.8769	4499.25	3608.7
1006.4873	2800.0551	4488.5	3596.95
1006.6066	2801.2327	4492.95	3598.95
1006.7258	2802.4096	4489.3	3598.5
1006.8451	2803.5859	4504.85	3613.2
1006.9642	2804.7615	4510.85	3619.85
1007.0834	2805.9364	4537.35	3647.8
1007.2025	2807.1106	4544.4	3652.5
1007.3216	2808.2842	4556.05	3662.75
1007.4406	2809.4572	4577.45	3686.35
1007.5596	2810.6294	4610.35	3718.5
1007.6785	2811.801	4628.15	3738.25
1007.7975	2812.972	4656.45	3765.05
1007.9163	2814.1423	4678.9	3789.4
1008.0352	2815.3119	4726.7	3833.25
1008.154	2816.4808	4780.1	3888.45
1008.2727	2817.6491	4818.55	3927.55
1008.3914	2818.8167	4835.1	3943.75
1008.5101	2819.9837	4880	3983.3
1008.6288	2821.15	4911.6	4018.95
1008.7474	2822.3157	4945.55	4054.85
1008.8659	2823.4807	4985.2	4092.4
1008.9844	2824.645	5041.15	4148.45
1009.1029	2825.8086	5052.6	4163.05
1009.2214	2826.9716	5075.1	4183.35
1009.3398	2828.134	5125.2	4233.1
1009.4581	2829.2957	5141.65	4249.8
1009.5764	2830.4567	5170.45	4280.9
1009.6947	2831.617	5171.05	4278.45
1009.813	2832.7767	5171.6	4280.65
1009.9312	2833.9358	5159.65	4269.85
1010.0493	2835.0941	5163.5	4269.9
1010.1675	2836.2519	5143.95	4253.2
1010.2855	2837.4089	5121.3	4231.15
1010.4036	2838.5653	5098.45	4205.8
1010.5216	2839.7211	5086.45	4196.25
1010.6396	2840.8761	5099.9	4208.45
1010.7575	2842.0306	5095.7	4204.6
1010.8754	2843.1843	5126.1	4234.45
1010.9932	2844.3374	5168.1	4276.25
1011.111	2845.4899	5216	4323.35
1011.2288	2846.6417	5287.65	4397.55
1011.3465	2847.7928	5374.15	4483.9
1011.4642	2848.9433	5428.45	4537.75
1011.5818	2850.0931	5499.55	4609
1011.6995	2851.2422	5572.15	4677.15
1011.817	2852.3907	5640.4	4748.85
1011.9345	2853.5385	5708.25	4815
1012.052	2854.6857	5736.45	4818.05
1012.1695	2855.8323	5777.7	4887.55
1012.2869	2856.9781	5828.75	4936.7
1012.4042	2858.1233	5862.45	4972.4
1012.5216	2859.2679	5901.8	5010.4
1012.6389	2860.4118	5938.45	5046.8
1012.7561	2861.555	5971.75	5073.45
1012.8733	2862.6976	6001.25	5107.7
1012.9905	2863.8395	6001.65	5110.05
1013.1076	2864.9808	6015.05	5124.8
1013.2247	2866.1214	6044.9	5154.05
1013.3417	2867.2614	6022.85	5130.85
1013.4587	2868.4007	6024.1	5129.55
1013.5757	2869.5393	6054.3	5161.15
1013.6926	2870.6773	6038.6	5143.6
1013.8095	2871.8146	6033.8	5139.75
1013.9263	2872.9513	6025.4	5130.95
1014.0431	2874.0874	6014.65	5123.65
1014.1599	2875.2227	6001.4	5112.2
1014.2766	2876.3574	5958.6	5067.45
1014.3933	2877.4915	5914.3	5024.1
1014.51	2878.6249	5902.2	5011.65
1014.6266	2879.7577	5853.85	4962.7
1014.7431	2880.8898	5837.25	4938.8
1014.8596	2882.0212	5790.7	4900.55
1014.9761	2883.152	5782.25	4891.05
1015.0925	2884.2821	5756.7	4868.05
1015.2089	2885.4116	5716.45	4824.9
1015.3253	2886.5405	5726.25	4836.05
1015.4416	2887.6686	5731.45	4835.7
1015.5579	2888.7962	5702.2	4814.15
1015.6741	2889.923	5706.45	4815.4
1015.7903	2891.0493	5707.85	4819.45
1015.9065	2892.1748	5714.35	4823.4
1016.0226	2893.2997	5705.8	4813.25
1016.1387	2894.424	5715.1	4825.7
1016.2547	2895.5476	5742.8	4851.15
1016.3707	2896.6706	5752.5	4861.5
1016.4866	2897.7929	5752.3	4859.5
1016.6025	2898.9145	5793.65	4902.05
1016.7184	2900.0355	5786.15	4895
1016.8342	2901.1559	5826.6	4935.3
1016.95	2902.2756	5848.1	4956.3
1017.0658	2903.3946	5873.1	4981.05
1017.1815	2904.513	5900.85	5005.1
1017.2971	2905.6308	5914.5	5023.75
1017.4127	2906.7479	5914.75	5024.25
1017.5283	2907.8643	5917.85	5026.65
1017.6439	2908.9801	5927.45	5036.4
1017.7594	2910.0953	5926.9	5034.75
1017.8748	2911.2098	5934.55	5040.15
1017.9902	2912.3236	5903.2	5004.5
1018.1056	2913.4368	5885.85	4991.25
1018.2209	2914.5494	5880.4	4987.7
1018.3362	2915.6613	5828.85	4930.8
1018.4515	2916.7725	5804.75	4908.7
1018.5667	2917.8831	5769.65	4876.75
1018.6819	2918.9931	5727.55	4834.45
1018.797	2920.1024	5677.9	4784.05
1018.9121	2921.211	5659.95	4768.85
1019.0271	2922.319	5628.5	4737.15
1019.1421	2923.4264	5613.85	4721.55
1019.2571	2924.5331	5587	4697.9
1019.372	2925.6391	5564.4	4674.3
1019.4869	2926.7445	5549.9	4657.65
1019.6017	2927.8493	5530.7	4639.15
1019.7165	2928.9534	5511.9	4620.35
1019.8313	2930.0569	5501.25	4605.35
1019.946	2931.1597	5478.25	4586
1020.0606	2932.2619	5458.95	4567.8
1020.1753	2933.3634	5455.15	4562.9
1020.2899	2934.4643	5437.5	4539.45
1020.4044	2935.5645	5416.35	4519.3
1020.5189	2936.6641	5361.55	4467.8
1020.6334	2937.763	5295.3	4403.85
1020.7478	2938.8613	5260.5	4368.45
1020.8622	2939.959	5198.3	4301.3
1020.9765	2941.056	5112.45	4223.1
1021.0908	2942.1523	5001.25	4108.5
1021.2051	2943.248	4915.9	4024.25
1021.3193	2944.3431	4796.25	3905.7
1021.4334	2945.4375	4701.15	3809.85
1021.5476	2946.5313	4580.25	3690.45
1021.6617	2947.6244	4471.25	3576.8
1021.7757	2948.7169	4370.9	3480.15
1021.8897	2949.8087	4254.3	3361.6
1022.0037	2950.8999	4169.95	3277.3
1022.1176	2951.9904	4077.55	3185.85
1022.2315	2953.0803	3986.75	3097.15
1022.3453	2954.1696	3928.8	3036.9
1022.4591	2955.2582	3866.45	2975.15
1022.5728	2956.3462	3816.8	2925.7
1022.6865	2957.4335	3767.75	2875.25
1022.8002	2958.5202	3718.55	2825.1
1022.9138	2959.6062	3696.7	2805.65
1023.0274	2960.6916	3667.8	2775.4
1023.141	2961.7764	3608.65	2716
1023.2545	2962.8605	3602.55	2710.45
1023.3679	2963.9439	3574.75	2684.1
1023.4813	2965.0267	3568.35	2674.05
1023.5947	2966.1089	3559.65	2643.1
1023.708	2967.1905	3530.4	2640.6
1023.8213	2968.2714	3522.5	2631.6
1023.9346	2969.3516	3519.2	2626.4
1024.0478	2970.4312	3510.7	2612
1024.1609	2971.5102	3505.3	2612.9
1024.274	2972.5885	3486.85	2596.7
1024.3871	2973.6662	3493.4	2597.3
1024.5002	2974.7432	3469.25	2579.75
1024.6132	2975.8196	3462.85	2573.3
1024.7261	2976.8954	3448.4	2557.6
1024.839	2977.9705	3409	2518.25
1024.9519	2979.045	3405.75	2516.15
1025.0647	2980.1188	3375.65	2485.9
1025.1775	2981.192	3349.85	2459.2
1025.2902	2982.2645	3315.05	2423.2
1025.4029	2983.3364	3293.15	2401.75
1025.5156	2984.4077	3266.2	2375.55
1025.6282	2985.4783	3240.7	2343.25
1025.7407	2986.5483	3185.45	2297.1
1025.8532	2987.6177	3156.6	2265.75
1025.9657	2988.6864	3108.75	2219.35
1026.0782	2989.7545	3068.2	2175.55
1026.1906	2990.8219	3039.1	2149.2
1026.3029	2991.8887	2994.95	2102
1026.4152	2992.9548	2968.35	2076.25
1026.5275	2994.0204	2923.75	2033.8
1026.6397	2995.0852	2897	2007.1
1026.7519	2996.1495	2872.55	1981
1026.864	2997.2131	2836.95	1946.75
1026.9761	2998.276	2808.7	1917.95
1027.0882	2999.3383	2769.25	1876.65
1027.2002	3000.4	2756.8	1865.3
1027.3122	3001.4611	2738.8	1849.35
1027.4241	3002.5215	2723.25	1832.3
1027.536	3003.5812	2692.6	1803.55
1027.6478	3004.6404	2682.15	1792.6
1027.7596	3005.6989	2676.35	1783.8
1027.8714	3006.7567	2645	1753.55
1027.9831	3007.8139	2663.85	1749.8
1028.0947	3008.8705	2620.65	1731.65
1028.2064	3009.9264	2622.25	1727.5
1028.3179	3010.9818	2607.7	1716.9
1028.4295	3012.0364	2600.5	1708.35
1028.541	3013.0905	2595.85	1705.95
1028.6524	3014.1439	2580.2	1689.55
1028.7638	3015.1966	2578.45	1688.4
1028.8752	3016.2487	2575.45	1683.6
1028.9865	3017.3002	2569.9	1671.4
1029.0978	3018.3511	2563.55	1673.45
1029.209	3019.4013	2554.65	1663.8
1029.3202	3020.4509	2543.5	1652.8
1029.4314	3021.4998	2549.3	1658
1029.5425	3022.5481	2544.3	1655.45
1029.6535	3023.5958	2548.5	1657.7
1029.7645	3024.6428	2538.9	1647.45
1029.8755	3025.6892	2536.45	1646.25
1029.9864	3026.735	2530.7	1641.1
1030.0973	3027.7802	2510.45	1618.45
1030.2082	3028.8247	2510.45	1619.95
1030.319	3029.8685	2517.95	1627.8
1030.4297	3030.9118	2507.95	1615.05
1030.5404	3031.9544	2519.95	1629.9
1030.6511	3032.9963	2514	1620.55
1030.7617	3034.0376	2511.45	1622.05
1030.8723	3035.0783	2516.3	1622.7
1030.9829	3036.1184	2516.2	1623.45
1031.0934	3037.1578	2513.1	1623.55
1031.2038	3038.1966	2503	1610.6
1031.3142	3039.2348	2502.45	1612.6
1031.4246	3040.2723	2491.9	1592.45
1031.5349	3041.3092	2494.15	1604.1
1031.6452	3042.3455	2482.1	1590.65
1031.7554	3043.3811	2469.9	1578.75
1031.8656	3044.4161	2474.8	1585.05
1031.9758	3045.4505	2465.95	1576.3
1032.0859	3046.4842	2448.85	1558.2
1032.1959	3047.5173	2427.1	1536.5
1032.3059	3048.5498	2421.05	1529.9
1032.4159	3049.5816	2412.4	1521.25
1032.5258	3050.6128	2408.75	1516.45
1032.6357	3051.6434	2393.75	1502.45
1032.7455	3052.6734	2379.05	1488.55
1032.8553	3053.7027	2372.6	1480.6
1032.9651	3054.7314	2355.55	1466.3
1033.0748	3055.7594	2346.15	1457.8
1033.1845	3056.7868	2335.95	1446.25
1033.2941	3057.8136	2332.25	1441.8
1033.4037	3058.8398	2312.3	1421.05
1033.5132	3059.8653	2309.4	1418.75
1033.6227	3060.8902	2290.95	1401.15
1033.7321	3061.9145	2292.4	1400.15
1033.8415	3062.9381	2286	1396.45
1033.9509	3063.9612	2290.95	1386.1
1034.0602	3064.9835	2263.45	1373.45
1034.1694	3066.0053	2246.75	1354.45
1034.2787	3067.0264	2226.4	1335.9
1034.3878	3068.0469	2221.9	1329.6
1034.497	3069.0668	2224.55	1330.95
1034.6061	3070.086	2204.65	1315.3
1034.7151	3071.1046	2196.7	1303.95
1034.8241	3072.1226	2181.4	1290
1034.9331	3073.1399	2154.35	1264.3
1035.042	3074.1567	2149.35	1258.45
1035.1508	3075.1727	2145.8	1254.25
1035.2597	3076.1882	2129.45	1238
1035.3684	3077.203	2112.8	1221.2
1035.4772	3078.2173	2095.35	1203.15
1035.5859	3079.2308	2095.7	1203.45
1035.6945	3080.2438	2077.7	1183.35
1035.8031	3081.2561	2071.95	1181.35
1035.9117	3082.2678	2070.2	1179.8
1036.0202	3083.2789	2056.4	1166.45
1036.1286	3084.2893	2033.55	1142.7
1036.2371	3085.2991	2023.75	1133.3
1036.3454	3086.3083	2017.9	1122.05
1036.4538	3087.3169	2015.55	1124.55
1036.562	3088.3248	2002.4	1110.6
1036.6703	3089.3321	1993.6	1101.2
1036.7785	3090.3388	1984.25	1094.6
1036.8866	3091.3449	1976.55	1084.95
1036.9948	3092.3503	1962.6	1070.15
1037.1028	3093.3551	1960.2	1070.55
1037.2108	3094.3593	1957.25	1067.7
1037.3188	3095.3629	1941.35	1051.3
1037.4267	3096.3658	1934.55	1042.05
1037.5346	3097.3681	1924.5	1035.25
1037.6425	3098.3698	1933	1042.25
1037.7503	3099.3708	1927	1029.7
1037.858	3100.3713	1906.7	1015.8
1037.9657	3101.3711	1904.25	1013.6
1038.0734	3102.3702	2000.85	993.25
1038.181	3103.3688	1902.95	1011.35
1038.2886	3104.3667	1885.75	998.6
1038.3961	3105.364	1878.45	988.75
1038.5036	3106.3607	1872	980.9
1038.611	3107.3568	1858.85	967.7
1038.7184	3108.3522	1857.7	967.1
1038.8257	3109.347	1849.95	957.05
1038.933	3110.3412	1847.95	952.7
1039.0403	3111.3348	1842.4	952.7
1039.1475	3112.3277	1840.45	950.8
1039.2547	3113.32	1838.3	948.05
1039.3618	3114.3117	1821.5	932.3
1039.4689	3115.3028	1821.65	930.15
1039.5759	3116.2932	1809.45	914.8
1039.6829	3117.2831	1809.9	914.75
1039.7898	3118.2723	1800.35	909.5
1039.8967	3119.2608	1803.7	914.6
1040.0035	3120.2488	1792.3	901.5
1040.1103	3121.2361	1789.3	899.75
1040.2171	3122.2229	1781.9	890.9
1040.3238	3123.209	1778.75	887.1
1040.4305	3124.1944	1767.6	877.35
1040.5371	3125.1793	1766.95	874.15
1040.6437	3126.1635	1763.55	874.75
1040.7502	3127.1471	1749.2	859.75
1040.8567	3128.1301	1754.55	862.95
1040.9631	3129.1125	1747.15	857.6
1041.0695	3130.0942	1744.05	855.9
1041.1759	3131.0753	1742.8	844.95
1041.2822	3132.0558	1731.25	837.9
1041.3884	3133.0357	1732.75	842.85
1041.4946	3134.015	1728.25	837.5
1041.6008	3134.9936	1732.95	842.1
1041.7069	3135.9716	1733.6	822.5
1041.813	3136.949	1708.2	818.4
1041.919	3137.9258	1717.55	822.85
1042.025	3138.902	1713.3	818
1042.1309	3139.8775	1699.15	809.4
1042.2368	3140.8524	1703.25	812.8
1042.3427	3141.8267	1705.3	813.9
1042.4485	3142.8004	1688.55	796.1
1042.5542	3143.7735	1695	796.75
1042.6599	3144.7459	1685.8	793
1042.7656	3145.7178	1679.7	789.4
1042.8712	3146.689	1674.25	784.1
1042.9768	3147.6596	1672.65	781.05
1043.0823	3148.6295	1666.75	776.35
1043.1878	3149.5989	1665.45	774.4
1043.2932	3150.5676	1651.1	760.4
1043.3986	3151.5357	1646.4	758
1043.5039	3152.5032	1651.25	764.25
1043.6092	3153.4701	1644.2	754.45
1043.7145	3154.4364	1637.6	744.3
1043.8197	3155.402	1636.7	745.35
1043.9248	3156.367	1638.95	745.85
1044.03	3157.3315	1666.2	734.05
1044.135	3158.2952	1617.55	728.25
1044.24	3159.2584	1614.6	725.5
1044.345	3160.221	1615.05	725
1044.4499	3161.1829	1614.95	726.55
1044.5548	3162.1442	1606.5	718.2
1044.6596	3163.105	1603.5	715.2
1044.7644	3164.065	1600.8	710.55
1044.8692	3165.0245	1598.85	705.8
1044.9739	3165.9834	1583.55	693.2
1045.0785	3166.9416	1584.45	694
1045.1831	3167.8993	1578.05	686.55
1045.2877	3168.8563	1579.45	691.45
1045.3922	3169.8127	1563.4	674.65
1045.4966	3170.7684	1564.95	674.35
1045.6011	3171.7236	1557.95	666.85
1045.7054	3172.6782	1564.65	673.55
1045.8098	3173.6321	1553.85	664.6
1045.914	3174.5854	1568.35	674.6
1046.0183	3175.5381	1548	658.05
1046.1224	3176.4902	1546.5	658.75
1046.2266	3177.4417	1542.85	653
1046.3307	3178.3926	1542	651.95
1046.4347	3179.3428	1528	637.8
1046.5387	3180.2924	1534.1	642.95
1046.6427	3181.2415	1532.05	642.65
1046.7466	3182.1899	1518.55	627.05
1046.8504	3183.1377	1519.45	630.45
1046.9542	3184.0848	1517.3	624.9
1047.058	3185.0314	1509.5	621.15
1047.1617	3185.9773	1513.15	624
1047.2654	3186.9227	1510.55	618.55
1047.369	3187.8674	1507.85	617
1047.4726	3188.8115	1504.15	607.65
1047.5761	3189.755	1497.65	607.95
1047.6796	3190.6979	1495.85	606.15
1047.783	3191.6402	1490.7	603.1
1047.8864	3192.5818	1489.4	598.5
1047.9898	3193.5229	1509.85	596.15
1048.0931	3194.4633	1481.4	592.1
1048.1963	3195.4031	1479.8	590.4
1048.2995	3196.3423	1473.45	584.65
1048.4027	3197.2809	1475	585.35
1048.5058	3198.2189	1471.5	581.25
1048.6089	3199.1563	1474.75	579.5
1048.7119	3200.0931	1469.85	580.9
1048.8148	3201.0292	1462.25	573.55
1048.9178	3201.9648	1465.65	575
1049.0206	3202.8997	1458.1	564.2
1049.1235	3203.834	1452.4	562.35
1049.2262	3204.7677	1451.85	562.35
1049.329	3205.7008	1446.3	554.35
1049.4317	3206.6333	1448.65	559.8
1049.5343	3207.5652	1445.4	555.1
1049.6369	3208.4964	1434.65	546.1
1049.7394	3209.4271	1436.7	548.45
1049.8419	3210.3571	1428.95	540.65
1049.9444	3211.2865	1436	545.9
1050.0468	3212.2154	1434	541.45
1050.1491	3213.1436	1427.7	533.05
1050.2514	3214.0712	1432.35	534.6
1050.3537	3214.9982	1422.55	533.4
1050.4559	3215.9246	1422.95	532.15
1050.5581	3216.8503	1419.2	530.35
1050.6602	3217.7755	1413.6	524.75
1050.7623	3218.7001	1407.15	517.6
1050.8643	3219.624	1413.6	524.2
1050.9663	3220.5473	1409.55	521.45
1051.0682	3221.4701	1398.8	508.2
1051.1701	3222.3922	1400.6	508.55
1051.2719	3223.3137	1395.4	505.35
1051.3737	3224.2346	1396.45	507.45
1051.4754	3225.1549	1390.9	502.15
1051.5771	3226.0746	1381.7	490.65
1051.6788	3226.9937	1388.2	499.65
1051.7804	3227.9121	1382.15	496.25
1051.8819	3228.83	1382.9	493.75
1051.9834	3229.7473	1375.65	486.6
1052.0849	3230.6639	1373.9	484.35
1052.1863	3231.5799	1370.75	479.75
1052.2876	3232.4954	1374.4	483.8
1052.3889	3233.4102	1366.1	477.4
1052.4902	3234.3244	1372.4	482.75
1052.5914	3235.238	1354.4	464.15
1052.6926	3236.151	1381.4	465.4
1052.7937	3237.0634	1357.4	468
1052.8948	3237.9752	1355.05	465.35
1052.9958	3238.8864	1354.35	467
1053.0968	3239.797	1348.75	457.9
1053.1977	3240.7069	1345.5	454.4
1053.2986	3241.6163	1342.8	452.1
1053.3994	3242.5251	1337.45	448.65
1053.5002	3243.4332	1337.35	448.6
1053.6009	3244.3408	1333.6	443.25
1053.7016	3245.2477	1339.95	449.65
1053.8022	3246.154	1327.75	435.85
1053.9028	3247.0598	1329.7	438.7
1054.0034	3247.9649	1324.05	434.6
1054.1039	3248.8694	1318.95	428.9
1054.2043	3249.7733	1313.1	424.2
1054.3047	3250.6766	1316.8	427.35
1054.4051	3251.5793	1316.95	427.1
1054.5054	3252.4814	1310.3	421.65
1054.6056	3253.3829	1307.35	418.4
1054.7058	3254.2838	1301.55	412.5
1054.806	3255.1841	1307.95	418.55
1054.9061	3256.0838	1303	412.7
1055.0061	3256.9829	1291.3	401.4
1055.1062	3257.8814	1288.45	396.15
1055.2061	3258.7792	1296.7	405.3
1055.306	3259.6765	1287.1	396.5
1055.4059	3260.5731	1279.35	389.8
1055.5057	3261.4692	1274.55	384.9
1055.6055	3262.3647	1274.7	385.15
1055.7052	3263.2595	1262.3	374.3
1055.8049	3264.1538	1261.75	372.25
1055.9045	3265.0474	1252.6	362.65
1056.0041	3265.9404	1244.8	356.05
1056.1036	3266.8329	1238.75	349.85
1056.2031	3267.7247	1247.65	348.95
1056.3025	3268.616	1229.4	339.35
1056.4019	3269.5066	1219.7	330
1056.5013	3270.3966	1213.85	322.35
1056.6005	3271.286	1200.3	312.1
