Software Version:	3.9.2.0
Unit SN:	10000200
Spectrometer SN:	6960
Date:	3/6/2024 10:00:27 AM
Data Line Index:	25
Spectral Points:	2048
Integration time (ms):	125
Averages:	20
Delay (ms):	30
Sequence Number:	1
Processing:	dark subtract
Laser Power (mW):	300
Laser Current (mA):	826
Laser Diode Temp (C):	25.1
Laser Case Temp (C):	24.7
System Temp (C):	24.5
Spectrometer Temp (C):	22.1
CCD Temp (C):	0.001
Secondary Temp (C):	20.008
Heatsink Temp (C):	18.339
CCDPCB Temp (C):	30.927
SecondaryPCB Temp (C):	26.303

Wavelength	RamanShift	Raw Counts	Dark Subtracted
787.061	30.1047	637.8	229.65
787.2016	32.3739	645.45	237.8
787.3422	34.6426	664.95	258.4
787.4828	36.9109	680.35	270.75
787.6235	39.1787	703	289.25
787.7642	41.4461	723.05	304.5
787.9049	43.7131	746.25	324.85
788.0456	45.9796	763.5	340
788.1863	48.2456	796.7	369.9
788.3271	50.5112	814.25	383.4
788.4679	52.7764	842.45	411.05
788.6087	55.0411	869.3	433.05
788.7496	57.3054	896.6	452.4
788.8904	59.5692	924.75	478.8
789.0313	61.8326	960.95	511.85
789.1722	64.0955	1000.3	548.2
789.3132	66.3579	1042.95	585.9
789.4541	68.6199	1103.75	646.8
789.5951	70.8815	1197.55	733.95
789.7361	73.1426	1406.1	937.9
789.8771	75.4032	1946.45	1472.3
790.0181	77.6634	3298.3	2822.05
790.1592	79.9231	6663.45	6184.2
790.3003	82.1824	14925.75	14437.3
790.4414	84.4412	31294.75	30787.6
790.5825	86.6995	46051.5	45525.95
790.7237	88.9574	53521.25	52977.55
790.8648	91.2148	57621.9	57069.9
791.006	93.4717	58843.45	58283.65
791.1472	95.7282	59390	58827.15
791.2885	97.9842	59635.15	59066.15
791.4297	100.2398	59694	59122.5
791.571	102.4949	59598.4	59025
791.7123	104.7495	59696.55	59121
791.8536	107.0036	59502.65	58926.05
791.9949	109.2573	59781.5	59203.7
792.1363	111.5105	59532.1	58954.9
792.2777	113.7632	59694.75	59111.75
792.4191	116.0154	59764.8	59170.4
792.5605	118.2672	59937.85	59348.2
792.7019	120.5185	59935	59344.85
792.8434	122.7693	59957	59364.45
792.9849	125.0197	59742.6	59145.2
793.1264	127.2696	60226.9	59628.85
793.2679	129.519	60167.15	59563.7
793.4094	131.7679	60346.7	59743.2
793.551	134.0163	59803.2	59192.85
793.6926	136.2642	60030.2	59420.1
793.8342	138.5117	60395.35	59780.45
793.9758	140.7587	60252.4	59637.25
794.1175	143.0052	60274.15	59656.95
794.2591	145.2512	59976.25	59354.25
794.4008	147.4967	60346.05	59725
794.5425	149.7417	60235.2	59609.35
794.6842	151.9863	60237.4	59606.95
794.826	154.2304	60002.3	59371.75
794.9677	156.4739	60239	59602.15
795.1095	158.717	60401.4	59763.05
795.2513	160.9596	60280.35	59640.6
795.3931	163.2017	60024.5	59383.4
795.535	165.4433	60315.95	59670.5
795.6768	167.6844	60147.1	59500.45
795.8187	169.925	60325.1	59671.85
795.9606	172.1651	60197.85	59546.8
796.1025	174.4047	60200.75	59545.55
796.2445	176.6439	60219.35	59560.75
796.3864	178.8825	60206.95	59545.6
796.5284	181.1206	60380	59714.8
796.6704	183.3582	60372.9	59701.55
796.8124	185.5954	60186.4	59514.6
796.9544	187.832	60286.2	59609.95
797.0965	190.0681	60121.8	59440.75
797.2386	192.3037	60461.9	59780.6
797.3806	194.5388	60752.75	60070.25
797.5228	196.7734	60014.9	59329.45
797.6649	199.0075	60659.6	59972.85
797.807	201.2411	60460.8	59771.3
797.9492	203.4742	60836.4	60147.7
798.0914	205.7068	60742.8	60046
798.2336	207.9389	60700.45	60003.9
798.3758	210.1704	60681.55	59995.8
798.518	212.4015	60984.4	60302.7
798.6603	214.632	60601.4	59926.15
798.8025	216.862	60973.3	60299.75
798.9448	219.0915	60833.3	60161.25
799.0871	221.3205	60741.85	60063.9
799.2294	223.549	61055.15	60384.1
799.3718	225.777	61037.75	60362.5
799.5141	228.0044	61188.45	60510.8
799.6565	230.2314	61091.55	60406.8
799.7989	232.4578	61083.05	60393.4
799.9413	234.6837	61135.3	60443.1
800.0837	236.909	61714.6	61013.8
800.2262	239.1339	60892.7	60171
800.3687	241.3582	61246.05	60536.7
800.5111	243.582	61283.05	60545.9
800.6536	245.8053	61281.15	60558.8
800.7961	248.0281	61281.15	60560.3
800.9387	250.2503	61434.85	60710.9
801.0812	252.472	61182.75	60457
801.2238	254.6932	61367.1	60643
801.3664	256.9139	61270.9	60545.05
801.509	259.134	61812.3	61082.45
801.6516	261.3536	61148.45	60420.5
801.7942	263.5727	61516.2	60783.45
801.9369	265.7912	61332.55	60600.3
802.0795	268.0092	61409.25	60678.25
802.2222	270.2267	61510.05	60778.85
802.3649	272.4436	61262.2	60527.3
802.5076	274.6601	61492.45	60747.5
802.6504	276.8759	61629.75	60889
802.7931	279.0913	61504.95	60764.95
802.9359	281.3061	61503.7	60762.9
803.0787	283.5204	61562.8	60821.8
803.2215	285.7341	61528.2	60782
803.3643	287.9473	61800.4	61041.6
803.5071	290.16	61582.9	60831.6
803.6499	292.3721	61736.35	60993.15
803.7928	294.5837	61466.45	60718.25
803.9357	296.7947	61300.1	60554.3
804.0786	299.0052	61718.15	60972.05
804.2215	301.2152	61543.75	60794
804.3644	303.4246	61789.8	61041.9
804.5074	305.6334	61757.3	61009.05
804.6503	307.8418	61417.15	60669.2
804.7933	310.0495	61481.75	60726.7
804.9363	312.2568	61435.15	60684.4
805.0793	314.4635	61443.6	60688.4
805.2223	316.6696	61596.45	60838.25
805.3653	318.8752	61756.25	60990.35
805.5084	321.0802	61172.8	60411.45
805.6514	323.2847	61395.3	60630.3
805.7945	325.4887	61401.35	60640.4
805.9376	327.692	61278.3	60513.3
806.0807	329.8949	61437.1	60674.2
806.2238	332.0972	61326.95	60560.4
806.367	334.2989	61420.35	60649
806.5101	336.5001	61627.45	60854.9
806.6533	338.7007	61182.7	60413.05
806.7965	340.9008	61414.45	60641.05
806.9397	343.1003	61478.7	60704
807.0829	345.2992	61606.1	60830.05
807.2261	347.4976	61371.6	60598
807.3693	349.6955	61455.05	60672.55
807.5126	351.8927	61305.05	60524.55
807.6559	354.0895	61492.65	60696.45
807.7991	356.2856	61460.5	60672.35
807.9424	358.4812	61659.25	60876.7
808.0857	360.6763	61341.75	60556.4
808.2291	362.8707	61597.2	60809.45
808.3724	365.0646	61449.15	60655.3
808.5158	367.258	61418.25	60626.9
808.6591	369.4508	61240.25	60443.7
808.8025	371.643	61565	60768.05
808.9459	373.8346	61398.35	60601.4
809.0893	376.0257	61410.75	60612.45
809.2327	378.2162	61323.75	60527.75
809.3762	380.4062	61102.7	60306.5
809.5196	382.5956	61282.35	60487.75
809.6631	384.7844	61299.5	60508.7
809.8066	386.9726	61387.85	60595.9
809.9501	389.1603	61434	60642.25
810.0936	391.3474	61151.4	60327.05
810.2371	393.5339	61383.7	60590.7
810.3806	395.7199	61036.2	60248.35
810.5241	397.9052	61128.55	60336.9
810.6677	400.09	61197.8	60404.55
810.8113	402.2743	61348.3	60549.35
810.9548	404.4579	61144.55	60346.55
811.0984	406.641	61130.1	60334.05
811.2421	408.8235	61254.75	60457.5
811.3857	411.0054	61234.75	60433.5
811.5293	413.1868	61267.3	60462.4
811.673	415.3675	61217.7	60407.85
811.8166	417.5477	61254.2	60446
811.9603	419.7273	61213.55	60403.65
812.104	421.9064	61142.9	60323.4
812.2477	424.0848	61187.85	60378.8
812.3914	426.2627	61325.7	60514.55
812.5351	428.4399	61028.55	60214.75
812.6788	430.6166	60859.95	60040.5
812.8226	432.7928	61081.25	60260.2
812.9663	434.9683	60858.3	60039.9
813.1101	437.1432	60871.55	60052.45
813.2539	439.3176	61015.2	60198.35
813.3977	441.4914	60704.5	59893.3
813.5415	443.6645	60763.85	59946.15
813.6853	445.8371	60749.5	59930.75
813.8291	448.0091	60610.05	59790.65
813.973	450.1806	60565.5	59744.1
814.1168	452.3514	60590.35	59769.1
814.2607	454.5216	60464	59635.9
814.4046	456.6913	60515.45	59694.35
814.5485	458.8603	60552.75	59732
814.6924	461.0288	60384	59567.5
814.8363	463.1967	60547.55	59728.65
814.9802	465.3639	60574.85	59754.5
815.1241	467.5306	60226.35	59402.7
815.2681	469.6967	60395.3	59575.3
815.412	471.8622	60473.65	59657.85
815.556	474.0271	60349.35	59526.05
815.7	476.1914	60370.1	59541.85
815.844	478.3551	60396	59572.8
815.988	480.5182	60557.8	59734.2
816.132	482.6807	60351.05	59527.1
816.276	484.8426	60358.85	59541.3
816.4201	487.0039	60568.8	59746.7
816.5641	489.1647	60544.1	59718.8
816.7082	491.3248	60326.05	59499.95
816.8522	493.4843	60595.1	59771.15
816.9963	495.6432	60587.05	59759
817.1404	497.8015	60285.5	59452.05
817.2845	499.9592	60465.4	59629.85
817.4286	502.1163	60424.7	59590.85
817.5727	504.2728	60419.45	59585
817.7168	506.4287	60466.55	59639.6
817.861	508.5839	60280	59452.3
818.0051	510.7386	60347.7	59516.7
818.1493	512.8927	60396.35	59560.4
818.2935	515.0461	60332.3	59497.1
818.4377	517.199	60467.65	59632.45
818.5818	519.3512	60373.25	59537.3
818.726	521.5029	60301.3	59460.2
818.8703	523.6539	60354.05	59518.85
819.0145	525.8043	60153.5	59315.25
819.1587	527.9541	60299.85	59457.75
819.303	530.1033	60281.7	59440.35
819.4472	532.2519	60191.3	59354.05
819.5915	534.3999	60270.75	59428.95
819.7357	536.5472	60387.15	59547.4
819.88	538.694	60118.25	59281.05
820.0243	540.8401	60300.5	59461.2
820.1686	542.9856	60292.15	59446
820.3129	545.1305	60333.25	59484.9
820.4572	547.2748	60209.3	59358.75
820.6016	549.4185	60201.6	59351.7
820.7459	551.5615	60295.2	59443.9
820.8902	553.704	60247.45	59398.35
821.0346	555.8458	60127.45	59284.35
821.1789	557.987	60168.2	59321
821.3233	560.1276	60245.3	59396.35
821.4677	562.2675	60132.15	59283.9
821.6121	564.4069	60175.3	59327.55
821.7565	566.5456	60270.3	59425.7
821.9009	568.6837	60082.6	59234.9
822.0453	570.8212	60109.2	59262.45
822.1897	572.958	59898.4	59050.15
822.3342	575.0942	60056.45	59208.85
822.4786	577.2299	59875.8	59028.95
822.6231	579.3648	59830.5	58986.75
822.7675	581.4992	59731.65	58890.25
822.912	583.6329	59696.55	58858.3
823.0565	585.766	59684.65	58841.6
823.201	587.8985	59744.35	58898.8
823.3454	590.0304	59488.55	58628.5
823.4899	592.1616	59604	58749.65
823.6345	594.2922	59520.85	58667.85
823.779	596.4222	59445.1	58591.3
823.9235	598.5515	59439.55	58581.95
824.068	600.6802	59452.45	58595.95
824.2126	602.8083	59333.35	58476.1
824.3571	604.9358	59301.15	58444.2
824.5017	607.0626	59353.65	58494.6
824.6462	609.1888	59235.8	58375.45
824.7908	611.3144	59338.45	58479.15
824.9354	613.4393	59230.6	58371.2
825.08	615.5636	59170.9	58308.9
825.2246	617.6873	59204.85	58344.8
825.3692	619.8103	59175.25	58315.1
825.5138	621.9327	59155.85	58293.6
825.6584	624.0544	59214.25	58355.1
825.803	626.1756	59138.55	58280.9
825.9477	628.2961	59109.8	58248.4
826.0923	630.4159	58996.85	58134.6
826.237	632.5351	59023.8	58159.9
826.3816	634.6537	59166.75	58303.5
826.5263	636.7716	58959.1	58092.4
826.6709	638.8889	59035.2	58167.6
826.8156	641.0056	59027.75	58161.6
826.9603	643.1216	59022.55	58155.05
827.105	645.237	59081.7	58214.9
827.2497	647.3518	58936.15	58075.65
827.3944	649.4659	59000.1	58139.95
827.5391	651.5793	58972.55	58111.3
827.6838	653.6922	58917.45	58055.05
827.8285	655.8043	58852.4	57988.25
827.9733	657.9159	58972.55	58108.8
828.118	660.0268	58715.6	57851.85
828.2627	662.137	58800.2	57935.45
828.4075	664.2466	58834.8	57967.5
828.5522	666.3556	58780.3	57911
828.697	668.4639	58720.95	57850.8
828.8418	670.5716	58726.8	57864.3
828.9865	672.6786	58739.25	57871.75
829.1313	674.785	58626.1	57754.3
829.2761	676.8907	58613	57743.95
829.4209	678.9958	58629.45	57764.55
829.5657	681.1002	58608.2	57737.95
829.7105	683.204	58513.9	57638.95
829.8553	685.3072	58505.15	57632.2
830.0001	687.4097	58479	57606.7
830.1449	689.5115	58464.7	57590.7
830.2898	691.6127	58487.55	57619.45
830.4346	693.7132	58387	57516.8
830.5794	695.8131	58427.25	57535.9
830.7243	697.9123	58417.85	57546.75
830.8691	700.0109	58426.15	57552.45
831.014	702.1089	58327.25	57453.3
831.1588	704.2061	58346.95	57474.25
831.3037	706.3028	58376.85	57499.75
831.4486	708.3987	58302.7	57428.65
831.5935	710.4941	58248.1	57371.85
831.7383	712.5887	58261.7	57388.75
831.8832	714.6827	58282.25	57405.25
832.0281	716.7761	58305	57432
832.173	718.8688	58308.25	57432
832.3179	720.9608	58236.65	57358.75
832.4628	723.0522	58239.6	57355.75
832.6077	725.1429	58149.4	57267.95
832.7527	727.233	58242.15	57364.3
832.8976	729.3224	58116.35	57240.2
833.0425	731.4112	58094.15	57212
833.1874	733.4993	58050.45	57171.45
833.3324	735.5867	58002.25	57124.55
833.4773	737.6735	57967.9	57088.5
833.6222	739.7596	57899.75	57017.9
833.7672	741.845	57839.85	56959.7
833.9122	743.9298	57834.5	56953.3
834.0571	746.014	57798.05	56919.6
834.2021	748.0974	57754.2	56871.95
834.347	750.1802	57766.85	56885.2
834.492	752.2624	57637.8	56756.5
834.637	754.3439	57599.35	56715.7
834.782	756.4247	57550.25	56658.45
834.9269	758.5048	57440.9	56558.6
835.0719	760.5843	57478.05	56591.85
835.2169	762.6631	57458.45	56577.2
835.3619	764.7413	57450.25	56569.5
835.5069	766.8188	57474.15	56590.75
835.6519	768.8956	57413.8	56528.4
835.7969	770.9718	57410.35	56528.8
835.9419	773.0473	57354.25	56468.8
836.0869	775.1221	57289.65	56406.4
836.232	777.1962	57192.75	56310.35
836.377	779.2697	57091.4	56208.1
836.522	781.3426	57132.45	56227.3
836.667	783.4147	57089.95	56206.75
836.8121	785.4862	57048.95	56167.6
836.9571	787.557	56943.45	56057.35
837.1021	789.6271	56994.15	56108.95
837.2472	791.6966	56920.3	56034.05
837.3922	793.7654	56802.4	55916.4
837.5373	795.8335	56782.25	55899.6
837.6823	797.901	56745.6	55861.6
837.8274	799.9678	56721.25	55832.2
837.9724	802.0339	56656.9	55772
838.1175	804.0993	56674.05	55773.25
838.2626	806.1641	56549.25	55659.5
838.4076	808.2282	56501.85	55613.15
838.5527	810.2916	56480.85	55590.65
838.6978	812.3544	56499.1	55614.5
838.8428	814.4164	56398.55	55512.35
838.9879	816.4778	56425.7	55535.7
839.133	818.5385	56345.25	55458.9
839.2781	820.5986	56349.95	55459.15
839.4232	822.658	56351.3	55462.3
839.5682	824.7166	56310.05	55424.65
839.7133	826.7747	56295.85	55409.4
839.8584	828.832	56302.45	55412.1
840.0035	830.8886	56235.55	55343.25
840.1486	832.9446	56250.2	55359.65
840.2937	834.9999	56084.1	55194.35
840.4388	837.0545	56120.55	55225.5
840.5839	839.1085	56131.25	55239.05
840.729	841.1618	56067.2	55171.65
840.8741	843.2143	55875.35	54985.75
841.0192	845.2662	55838.65	54949.65
841.1643	847.3175	55888.35	54998.3
841.3095	849.368	55666.85	54777.55
841.4546	851.4179	55820.2	54928.15
841.5997	853.467	55610.4	54720.85
841.7448	855.5155	55699.1	54806.65
841.8899	857.5633	55527.7	54634.4
842.0351	859.6105	55426.9	54536.3
842.1802	861.6569	55476.7	54586.25
842.3253	863.7027	55317.25	54424.25
842.4704	865.7478	55385.4	54489.7
842.6156	867.7922	55302.95	54411.65
842.7607	869.8359	55345.45	54450.85
842.9058	871.8789	55147.85	54254.95
843.0509	873.9212	55253.7	54329.35
843.1961	875.9629	55186	54290.7
843.3412	878.0039	55142	54247.45
843.4863	880.0441	55042	54149.2
843.6315	882.0837	55058.1	54163.8
843.7766	884.1226	55052.75	54156
843.9218	886.1609	55036.6	54142.7
844.0669	888.1984	54971.25	54077.85
844.212	890.2352	55095.45	54201.55
844.3572	892.2714	54900.85	54003.15
844.5023	894.3069	54997.55	54103.35
844.6475	896.3416	54835.45	53939.6
844.7926	898.3757	54803.9	53909.5
844.9377	900.4091	54621.8	53725.85
845.0829	902.4418	54789.6	53889.7
845.228	904.4739	54616.35	53718.4
845.3732	906.5052	54613.15	53717.75
845.5183	908.5358	54525.95	53627.9
845.6635	910.5658	54456.25	53559.55
845.8086	912.595	54443.95	53546.35
845.9538	914.6236	54222.25	53325.1
846.0989	916.6515	54452.65	53556.3
846.2441	918.6786	54196.9	53299.4
846.3892	920.7051	54191.9	53293.25
846.5344	922.7309	54157.8	53261.05
846.6795	924.756	54157	53259.85
846.8246	926.7804	54028.9	53130.25
846.9698	928.8041	53839.8	52941.85
847.1149	930.8272	53930.65	53032.45
847.2601	932.8495	53836.25	52937.7
847.4052	934.8711	53747.25	52849.15
847.5504	936.892	53592.45	52695.3
847.6955	938.9123	53621.8	52723.05
847.8407	940.9318	53508.8	52611.55
847.9858	942.9506	53443.55	52544.5
848.131	944.9688	53402.15	52504.5
848.2761	946.9862	53248.4	52349.9
848.4213	949.003	53191.9	52291.5
848.5664	951.019	53008.1	52110.5
848.7115	953.0344	53023.6	52122.45
848.8567	955.0491	52992.95	52096.1
849.0018	957.063	53042.2	52145.35
849.147	959.0763	53048.6	52150.5
849.2921	961.0888	52918.6	52018.3
849.4373	963.1007	52966.4	52068.35
849.5824	965.1119	52924.2	52028.4
849.7275	967.1223	52809.05	51917.5
849.8727	969.1321	52872.6	51979.3
850.0178	971.1412	52724.25	51829.85
850.1629	973.1495	52621.7	51725.15
850.3081	975.1572	52638.7	51704.1
850.4532	977.1641	52624.3	51723.9
850.5983	979.1704	52519.9	51621.3
850.7435	981.1759	52486.7	51586.65
850.8886	983.1808	52417.2	51516.45
851.0337	985.1849	52399.6	51489.25
851.1788	987.1884	52366.5	51464.4
851.324	989.1911	52367.7	51467.75
851.4691	991.1932	52248.7	51347.75
851.6142	993.1945	52167.6	51267.75
851.7593	995.1951	52085.3	51186.3
851.9045	997.1951	52019.6	51115.4
852.0496	999.1943	51940.95	51040.95
852.1947	1001.1928	51826.6	50926.75
852.3398	1003.1906	51769.85	50870.95
852.4849	1005.1877	51653.2	50751
852.63	1007.1841	51582.75	50682.85
852.7751	1009.1798	51537.85	50639.55
852.9202	1011.1748	51458.65	50559.7
853.0653	1013.1691	51416.7	50518.4
853.2104	1015.1627	51103	50200.9
853.3555	1017.1556	51090.25	50192.15
853.5006	1019.1477	51082.3	50183.1
853.6457	1021.1392	50906.65	50012.2
853.7908	1023.1299	50654.35	49760
853.9359	1025.12	50725.4	49829.45
854.081	1027.1093	50563.55	49674.45
854.2261	1029.0979	50517.75	49629.8
854.3712	1031.0859	50416.1	49525.5
854.5163	1033.0731	50247.95	49352.75
854.6613	1035.0596	50257.1	49358.7
854.8064	1037.0454	50110.9	49210.8
854.9515	1039.0304	49997.85	49099.45
855.0965	1041.0148	49722.15	48822.45
855.2416	1042.9985	49767.6	48867.45
855.3867	1044.9814	49888.55	48991.5
855.5317	1046.9636	49606.45	48706.5
855.6768	1048.9452	49558.25	48658.75
855.8219	1050.926	49492.1	48594.3
855.9669	1052.9061	49467.05	48568.3
856.112	1054.8855	49436.55	48537.05
856.257	1056.8642	49301.75	48400.9
856.4021	1058.8421	49155.45	48251
856.5471	1060.8194	49134.35	48231.4
856.6921	1062.7959	49005.5	48105.15
856.8372	1064.7717	49127.55	48225.3
856.9822	1066.7469	49081.7	48181.2
857.1272	1068.7213	49042.1	48141.35
857.2723	1070.695	48916.9	48016.5
857.4173	1072.6679	48702.4	47802.8
857.5623	1074.6402	48833.15	47930.9
857.7073	1076.6117	48665.55	47760.55
857.8523	1078.5826	48673.7	47769.4
857.9973	1080.5527	48639.85	47738.95
858.1423	1082.5221	48439.25	47535.85
858.2873	1084.4908	48439.85	47537.6
858.4323	1086.4587	48329.65	47428.05
858.5773	1088.426	48305.9	47404.35
858.7223	1090.3925	48241.35	47336.75
858.8673	1092.3584	48223.1	47323.25
859.0123	1094.3235	48000.6	47104.3
859.1573	1096.2879	47992.95	47092.75
859.3022	1098.2515	48059.25	47156.9
859.4472	1100.2145	47947.15	47042.5
859.5922	1102.1767	47811.45	46907.9
859.7371	1104.1382	47854	46952.7
859.8821	1106.099	47758.8	46855.9
860.027	1108.0591	47692.25	46788.7
860.172	1110.0185	47448.05	46544.35
860.3169	1111.9771	47715.2	46815
860.4619	1113.9351	47518.25	46616.1
860.6068	1115.8923	47339.9	46439.8
860.7517	1117.8488	47166.35	46266.2
860.8967	1119.8045	46967	46065.8
861.0416	1121.7596	47077.5	46177.95
861.1865	1123.7139	46939.85	46039.6
861.3314	1125.6675	46874.75	45975
861.4763	1127.6204	46814.25	45912.85
861.6212	1129.5726	46613.8	45714.4
861.7661	1131.524	46711.35	45811.8
861.911	1133.4748	46677.55	45776.5
862.0559	1135.4248	46493.65	45590.45
862.2008	1137.3741	46445.9	45544.7
862.3457	1139.3226	46356.15	45452.75
862.4905	1141.2705	46350.1	45449.8
862.6354	1143.2176	46206.2	45299.55
862.7803	1145.164	46005.95	45103.5
862.9251	1147.1097	46066.15	45165.6
863.07	1149.0546	46031.15	45127.8
863.2148	1150.9989	46056.4	45153.9
863.3597	1152.9424	45820.75	44919.2
863.5045	1154.8852	45927.6	45022.55
863.6493	1156.8272	45729	44828.65
863.7942	1158.7686	45911.6	45006.2
863.939	1160.7092	45549.4	44650
864.0838	1162.6491	45552.05	44649
864.2286	1164.5883	45607.5	44706.05
864.3734	1166.5267	45413.95	44512.4
864.5182	1168.4644	45525.45	44625.15
864.663	1170.4014	45460.15	44555.6
864.8078	1172.3377	45532.85	44632
864.9526	1174.2732	45614.05	44713.55
865.0974	1176.2081	45556.25	44657.4
865.2421	1178.1421	45420.8	44515.05
865.3869	1180.0755	45634.3	44733.25
865.5317	1182.0082	45475.5	44573.35
865.6764	1183.9401	45502.05	44600.5
865.8212	1185.8713	45250.5	44353.15
865.9659	1187.8017	45196.05	44302.45
866.1106	1189.7315	45128.05	44235.2
866.2554	1191.6605	44957.8	44063.3
866.4001	1193.5888	44766.1	43870.95
866.5448	1195.5163	44565.8	43669.45
866.6895	1197.4432	44498.45	43599.5
866.8342	1199.3693	44488.55	43588.15
866.9789	1201.2947	44325.9	43418.8
867.1236	1203.2193	44314.75	43414
867.2683	1205.1432	44099.65	43200.85
867.413	1207.0664	44050.1	43147.05
867.5576	1208.9889	44001.45	43097.65
867.7023	1210.9106	43916.6	43015.65
867.847	1212.8316	43747.75	42846.4
867.9916	1214.7519	43702.35	42792.65
868.1363	1216.6715	43601	42700.3
868.2809	1218.5903	43571.3	42668.95
868.4255	1220.5084	43472	42572.6
868.5701	1222.4257	43485.75	42585.45
868.7148	1224.3424	43366.85	42467.85
868.8594	1226.2583	43277.1	42372.35
869.004	1228.1735	43318.35	42417.2
869.1486	1230.0879	43116.95	42215.15
869.2932	1232.0016	43124.85	42223.5
869.4377	1233.9146	43034.7	42130.2
869.5823	1235.8269	42984.4	42084.45
869.7269	1237.7384	42995.95	42096.05
869.8715	1239.6492	42784.95	41887.9
870.016	1241.5592	42713.7	41812.4
870.1606	1243.4686	42715.95	41815
870.3051	1245.3772	42612.3	41711.05
870.4496	1247.285	42645	41744.95
870.5941	1249.1922	42492.7	41592.9
870.7387	1251.0986	42549.3	41649.85
870.8832	1253.0042	42336.5	41437.25
871.0277	1254.9092	42405.2	41502.5
871.1722	1256.8134	42240.9	41341
871.3167	1258.7169	42330.5	41429.9
871.4611	1260.6196	42167.5	41267.45
871.6056	1262.5216	42197.95	41295.4
871.7501	1264.4229	42185.8	41286.85
871.8945	1266.3234	42289.15	41388.7
872.039	1268.2232	42212.7	41309.3
872.1834	1270.1223	42090.8	41190.3
872.3278	1272.0207	42070.6	41171.3
872.4723	1273.9183	42017	41110
872.6167	1275.8151	41928.45	41028.4
872.7611	1277.7113	41923.55	41021.1
872.9055	1279.6067	41825.25	40925.95
873.0499	1281.5014	41779.95	40877.8
873.1943	1283.3953	41830.65	40928.6
873.3386	1285.2885	41815.45	40915.3
873.483	1287.181	41859.25	40955.85
873.6274	1289.0727	41968.8	41067.75
873.7717	1290.9637	41850.05	40946.85
873.9161	1292.854	41989.35	41091.05
874.0604	1294.7435	41896.55	40996.15
874.2047	1296.6323	41839.35	40938.55
874.349	1298.5204	41730.45	40828.8
874.4933	1300.4077	41722.65	40822.2
874.6376	1302.2943	41602.95	40703.7
874.7819	1304.1802	41528.2	40630
874.9262	1306.0653	41356.5	40455.95
875.0705	1307.9497	41263.9	40366.3
875.2147	1309.8333	41183.85	40283.95
875.359	1311.7162	41102.1	40201.55
875.5032	1313.5984	41067.5	40164.8
875.6475	1315.4798	40934.7	40033.95
875.7917	1317.3605	40877.55	39960.5
875.9359	1319.2405	40870.1	39966.6
876.0801	1321.1197	40730.4	39828.55
876.2243	1322.9982	40593.15	39689.05
876.3685	1324.876	40593.6	39693.8
876.5127	1326.753	40423.05	39522.1
876.6569	1328.6293	40450.55	39548.95
876.801	1330.5048	40387.65	39487.7
876.9452	1332.3796	40295.4	39395.5
877.0893	1334.2537	40238.2	39311.7
877.2335	1336.127	40168.2	39268
877.3776	1337.9996	40134.95	39232.3
877.5217	1339.8714	40039.2	39137.9
877.6658	1341.7426	39966.5	39021
877.8099	1343.6129	39956.05	39053.85
877.954	1345.4826	39850.75	38950
878.0981	1347.3515	39881.35	38975.15
878.2422	1349.2196	39851.4	38948.3
878.3862	1351.087	39805.05	38900.5
878.5303	1352.9537	39790.6	38889.75
878.6743	1354.8197	39763.5	38862.45
878.8184	1356.6849	39812.45	38912.45
878.9624	1358.5493	39755	38854.75
879.1064	1360.4131	39751.75	38849.8
879.2504	1362.276	39708.1	38805.15
879.3944	1364.1383	39573.25	38672.95
879.5384	1365.9998	39533.05	38625.65
879.6823	1367.8606	39369.95	38470.35
879.8263	1369.7206	39278.2	38376.8
879.9702	1371.5799	39130.65	38227.95
880.1142	1373.4384	38986.9	38086.3
880.2581	1375.2962	38940.15	38034.8
880.402	1377.1533	38794.65	37893.6
880.5459	1379.0096	38613.95	37715.75
880.6898	1380.8652	38517.55	37618.6
880.8337	1382.7201	38372.1	37471.45
880.9776	1384.5742	38239.3	37338.8
881.1215	1386.4275	38077.75	37174.5
881.2653	1388.2802	37982.75	37083.6
881.4092	1390.132	37865.35	36963.45
881.553	1391.9832	37839.35	36936.6
881.6968	1393.8336	37700.7	36800.1
881.8406	1395.6832	37631.1	36730.65
881.9844	1397.5322	37582.4	36682.2
882.1282	1399.3803	37436.05	36531.1
882.272	1401.2278	37306.55	36406.6
882.4158	1403.0745	37272.2	36374.3
882.5595	1404.9204	37118.95	36221.15
882.7033	1406.7656	37103.3	36201.95
882.847	1408.6101	36959.2	36058.6
882.9908	1410.4538	36907.3	36006.25
883.1345	1412.2968	36841.95	35942.3
883.2782	1414.139	36708.25	35809.3
883.4219	1415.9805	36730.5	35832.05
883.5656	1417.8213	36561.2	35654.15
883.7092	1419.6613	36534.9	35637.6
883.8529	1421.5006	36515.35	35615.85
883.9965	1423.3391	36492.9	35592.55
884.1402	1425.1769	36467.3	35565.55
884.2838	1427.0139	36572.15	35671.85
884.4274	1428.8502	36626.45	35724.3
884.571	1430.6858	36667.7	35765.1
884.7146	1432.5206	36723.05	35824.1
884.8582	1434.3547	36672.25	35772.95
885.0018	1436.188	36563.4	35663.9
885.1453	1438.0206	36600.05	35699.15
885.2889	1439.8524	36464.65	35562
885.4324	1441.6835	36377.85	35476.85
885.5759	1443.5139	36394.5	35492.4
885.7194	1445.3435	36226.2	35326.5
885.8629	1447.1724	36246.9	35348.9
886.0064	1449.0005	36083.9	35187.1
886.1499	1450.8279	36076.6	35176.7
886.2933	1452.6545	36027.2	35130.25
886.4368	1454.4804	36065.25	35168.2
886.5802	1456.3056	35934.5	35029.7
886.7237	1458.13	35888.9	34989.7
886.8671	1459.9536	35897.7	34997.5
887.0105	1461.7766	35697.3	34797.7
887.1539	1463.5987	35510.75	34609.8
887.2972	1465.4202	35415	34515.8
887.4406	1467.2409	35284.55	34385.6
887.584	1469.0608	35120.9	34224.55
887.7273	1470.88	35041.2	34141.65
887.8706	1472.6984	35013.6	34113.35
888.0139	1474.5161	34773.7	33873.45
888.1572	1476.3331	34763.65	33864.95
888.3005	1478.1493	34611.75	33711.2
888.4438	1479.9648	34587.15	33689.15
888.5871	1481.7795	34548.1	33648.55
888.7303	1483.5935	34492.05	33593.1
888.8736	1485.4067	34346.3	33445.8
889.0168	1487.2192	34406.2	33506.2
889.16	1489.031	34280.85	33379.05
889.3032	1490.842	34288.1	33390
889.4464	1492.6522	34302.85	33405
889.5896	1494.4618	34159.95	33259.55
889.7327	1496.2705	34164.5	33265.7
889.8759	1498.0785	33975.5	33075.65
890.019	1499.8858	33931.25	33030.15
890.1622	1501.6924	33936.8	33038.8
890.3053	1503.4981	33826.9	32929.4
890.4484	1505.3032	33814.5	32914.7
890.5914	1507.1075	33659.2	32759.95
890.7345	1508.911	33681.7	32782.1
890.8776	1510.7138	33616.65	32717.65
891.0206	1512.5159	33528.75	32629.9
891.1637	1514.3172	33374.15	32476.25
891.3067	1516.1178	33294.95	32399
891.4497	1517.9176	33357.35	32458.75
891.5927	1519.7166	33203.8	32308.6
891.7357	1521.515	33124.75	32221.9
891.8786	1523.3126	33040.4	32140.15
892.0216	1525.1094	33007.65	32107.1
892.1645	1526.9055	32914.25	32019.05
892.3074	1528.7008	32882.75	31986.15
892.4503	1530.4954	32615.35	31715.6
892.5932	1532.2893	32700.05	31804.05
892.7361	1534.0824	32519.05	31619.95
892.879	1535.8747	32487.3	31593.5
893.0218	1537.6663	32487.8	31591.45
893.1647	1539.4572	32294.55	31397.95
893.3075	1541.2473	32331.05	31435.2
893.4503	1543.0367	32212.25	31315.3
893.5931	1544.8253	32092.6	31193.4
893.7359	1546.6132	32117.45	31219.4
893.8787	1548.4003	31971.6	31063.85
894.0214	1550.1867	31925.15	31019.95
894.1642	1551.9723	31893.3	30994.05
894.3069	1553.7572	31879.05	30983.5
894.4496	1555.5414	31888.4	30994.95
894.5923	1557.3247	31760.8	30867.75
894.735	1559.1074	31805.4	30912
894.8777	1560.8893	31690.5	30797.7
895.0204	1562.6705	31754.9	30862
895.163	1564.4509	31597.6	30704.15
895.3056	1566.2305	31599	30707.1
895.4482	1568.0094	31663.45	30773.35
895.5908	1569.7876	31654.45	30762.2
895.7334	1571.565	31488.95	30595.15
895.876	1573.3417	31482.45	30591.4
896.0186	1575.1176	31440.85	30548.4
896.1611	1576.8928	31375.3	30481.55
896.3036	1578.6672	31195.75	30305.45
896.4461	1580.4409	31188.25	30302.3
896.5886	1582.2138	31036.3	30145.2
896.7311	1583.986	31011.4	30119.75
896.8736	1585.7575	30948.3	30057.35
897.0161	1587.5282	30965.45	30077.8
897.1585	1589.2981	30924.3	30038.1
897.3009	1591.0673	30820.35	29932.9
897.4433	1592.8358	30793.55	29904.1
897.5857	1594.6035	30815.6	29921.65
897.7281	1596.3704	30778.25	29887.25
897.8705	1598.1366	30626.6	29736.45
898.0128	1599.9021	30566	29676.15
898.1551	1601.6668	30581.65	29688.95
898.2975	1603.4308	30523.25	29630.8
898.4398	1605.194	30543.35	29648.75
898.5821	1606.9564	30410.55	29522.15
898.7243	1608.7182	30484.85	29595.55
898.8666	1610.4791	30505.95	29619.85
899.0088	1612.2394	30515.25	29630.9
899.1511	1613.9988	30457.3	29570.25
899.2933	1615.7576	30594.65	29705.8
899.4355	1617.5156	30602.7	29708.25
899.5776	1619.2728	30700.2	29809.1
899.7198	1621.0293	30472.35	29582.75
899.862	1622.785	30345.35	29451.85
900.0041	1624.54	30209.45	29318.4
900.1462	1626.2942	30083.9	29195.15
900.2883	1628.0477	29739.55	28847.05
900.4304	1629.8005	29595	28703.6
900.5725	1631.5525	29540.3	28651.8
900.7145	1633.3037	29327.45	28438.6
900.8566	1635.0542	29266.3	28381
900.9986	1636.804	29188.3	28299.5
901.1406	1638.553	29075.7	28142.1
901.2826	1640.3013	28998.3	28111.6
901.4245	1642.0488	28882.75	27993.2
901.5665	1643.7955	28859.05	27972.75
901.7085	1645.5416	28812.6	27927.1
901.8504	1647.2868	28719.25	27830.35
901.9923	1649.0313	28721.2	27833.4
902.1342	1650.7751	28699.95	27807.95
902.2761	1652.5181	28698.2	27811.25
902.4179	1654.2604	28627.25	27740.3
902.5598	1656.0019	28661.5	27775.5
902.7016	1657.7427	28646.5	27759.7
902.8434	1659.4828	28712.8	27827.25
902.9852	1661.222	28692.5	27803.15
903.127	1662.9606	28627.15	27740.45
903.2687	1664.6984	28482.4	27593.1
903.4105	1666.4354	28429.7	27540.4
903.5522	1668.1717	28124.5	27235.9
903.6939	1669.9072	27825.3	26936.8
903.8356	1671.642	27677.25	26782.2
903.9773	1673.3761	27513.5	26626.05
904.119	1675.1094	27376.75	26489.35
904.2606	1676.8419	27144.35	26256.3
904.4022	1678.5737	27046.55	26158.95
904.5439	1680.3048	26926.55	26037.6
904.6855	1682.0351	26742.65	25855.4
904.827	1683.7646	26605.7	25715.3
904.9686	1685.4934	26576.2	25688.25
905.1101	1687.2215	26359.55	25470.2
905.2517	1688.9488	26312.9	25424.5
905.3932	1690.6754	26018.6	25131.4
905.5347	1692.4012	26068.4	25180.35
905.6761	1694.1263	26033.95	25144.65
905.8176	1695.8506	25899.8	25013.45
905.9591	1697.5742	25816.75	24930.15
906.1005	1699.297	25718.75	24831.2
906.2419	1701.0191	25620.45	24732.75
906.3833	1702.7404	25481.95	24596.4
906.5246	1704.461	25360.5	24472.05
906.666	1706.1808	25305.25	24417
906.8073	1707.8999	25209.6	24324.5
906.9487	1709.6182	25149.1	24264.55
907.09	1711.3358	25117.3	24230.35
907.2313	1713.0527	25011.75	24128.3
907.3725	1714.7688	24958.75	24068.15
907.5138	1716.4841	24781.15	23892.65
907.655	1718.1987	24813.55	23923
907.7962	1719.9126	24688.85	23804.7
907.9374	1721.6257	24616.35	23730.6
908.0786	1723.338	24614.05	23728.85
908.2198	1725.0496	24422.7	23535
908.3609	1726.7605	24398.3	23510.35
908.502	1728.4706	24332.95	23445.8
908.6431	1730.18	24219.45	23332.8
908.7842	1731.8886	24127.85	23242.25
908.9253	1733.5964	24093.45	23202.7
909.0664	1735.3036	24104.45	23218
909.2074	1737.0099	24024.3	23140.1
909.3484	1738.7156	23957.4	23073.3
909.4894	1740.4204	23812.8	22925
909.6304	1742.1246	23812	22925.6
909.7714	1743.8279	23755.05	22871.1
909.9123	1745.5306	23735.15	22849.1
910.0532	1747.2325	23608.45	22723.1
910.1941	1748.9336	23551.85	22668.35
910.335	1750.634	23445.2	22556.05
910.4759	1752.3336	23442.95	22557.6
910.6168	1754.0325	23350.35	22468.75
910.7576	1755.7307	23334.35	22449.7
910.8984	1757.4281	23300.3	22414.9
911.0392	1759.1247	23289.25	22396.35
911.18	1760.8206	23215.55	22324.45
911.3208	1762.5158	23200.35	22311.7
911.4615	1764.2102	23093.65	22209.85
911.6022	1765.9039	22985.55	22102
911.7429	1767.5968	22920.25	22036.7
911.8836	1769.289	22880.55	21994.8
912.0243	1770.9804	22809.85	21923.25
912.1649	1772.6711	22806.35	21921.45
912.3056	1774.361	22746.35	21860.75
912.4462	1776.0502	22706	21819.45
912.5868	1777.7386	22639.7	21752.95
912.7274	1779.4263	22606.75	21721.1
912.8679	1781.1132	22574.55	21689.8
913.0084	1782.7994	22484.95	21600.15
913.149	1784.4849	22488.8	21606
913.2895	1786.1696	22397.95	21498
913.4299	1787.8535	22326.85	21444.65
913.5704	1789.5367	22309.55	21427.05
913.7108	1791.2192	22258.9	21374.45
913.8513	1792.9009	22176.95	21262
913.9917	1794.5818	22158.1	21271.85
914.132	1796.2621	22052.55	21168.65
914.2724	1797.9415	22014.25	21129.2
914.4128	1799.6202	21973.65	21085.9
914.5531	1801.2982	21938	21051.05
914.6934	1802.9755	21896.55	21008.35
914.8337	1804.6519	21860.8	20976.25
914.9739	1806.3277	21773.05	20889.8
915.1142	1808.0027	21674.75	20795
915.2544	1809.6769	21629.75	20746.7
915.3946	1811.3504	21596	20711.5
915.5348	1813.0231	21532.45	20649
915.675	1814.6951	21529.65	20646.9
915.8151	1816.3664	21525	20639.6
915.9553	1818.0369	21492.3	20607.85
916.0954	1819.7067	21371.65	20487.1
916.2355	1821.3757	21356.55	20471.8
916.3755	1823.044	21287.7	20401.6
916.5156	1824.7115	21234.9	20349.85
916.6556	1826.3783	21144.85	20261.9
916.7956	1828.0443	21099.45	20217.05
916.9356	1829.7096	21073.95	20187.55
917.0756	1831.3741	21069.9	20184.6
917.2155	1833.0379	21027.25	20144.5
917.3555	1834.701	20977.2	20092.65
917.4954	1836.3633	20895.55	20011.8
917.6353	1838.0248	20817.3	19931.45
917.7751	1839.6856	20799.45	19915.15
917.915	1841.3457	20763.65	19881.1
918.0548	1843.005	20721.1	19838.2
918.1946	1844.6636	20679.85	19796.15
918.3344	1846.3214	20622.35	19737.35
918.4742	1847.9785	20585	19700.15
918.6139	1849.6349	20522.4	19635.3
918.7537	1851.2904	20514.25	19619.35
918.8934	1852.9453	20455.95	19569.6
919.0331	1854.5994	20421.95	19534.35
919.1727	1856.2528	20423.95	19533.55
919.3124	1857.9054	20338.35	19451.9
919.452	1859.5572	20306.15	19421.15
919.5916	1861.2083	20281.7	19395.55
919.7312	1862.8587	20305.95	19420.6
919.8708	1864.5084	20237.6	19351.35
920.0103	1866.1572	20174.4	19290.65
920.1498	1867.8054	20093	19205.6
920.2893	1869.4528	20034.75	19149.35
920.4288	1871.0994	19977.65	19092.7
920.5683	1872.7453	19956.45	19070.5
920.7077	1874.3905	19962.55	19071.4
920.8471	1876.0349	19860	18975.15
920.9865	1877.6786	19860.4	18973.6
921.1259	1879.3215	19830.5	18947.95
921.2653	1880.9637	19788.5	18901.9
921.4046	1882.6051	19750.5	18867.2
921.5439	1884.2458	19643.05	18756.45
921.6832	1885.8858	19625.8	18743.8
921.8225	1887.525	19563.1	18676.55
921.9617	1889.1634	19534.95	18651.9
922.101	1890.8011	19464.1	18576.55
922.2402	1892.4381	19431.8	18545.95
922.3794	1894.0743	19374.65	18490.35
922.5185	1895.7098	19331.4	18448.65
922.6577	1897.3446	19282.25	18397.5
922.7968	1898.9786	19231.05	18342.05
922.9359	1900.6118	19209.05	18324.95
923.075	1902.2443	19097.25	18211.05
923.214	1903.8761	19072.9	18190
923.3531	1905.5071	18978.35	18091.55
923.4921	1907.1374	18923.8	18039.85
923.6311	1908.7669	18903.35	18019.7
923.77	1910.3957	18854.25	17970.8
923.909	1912.0237	18748.9	17864.95
924.0479	1913.651	18747.05	17861.75
924.1868	1915.2776	18685.9	17802.55
924.3257	1916.9034	18608.4	17725.65
924.4646	1918.5285	18518.6	17635.45
924.6034	1920.1528	18429.4	17544.65
924.7422	1921.7764	18449	17565
924.881	1923.3992	18373.4	17489.75
925.0198	1925.0213	18262.75	17376.75
925.1586	1926.6427	18207.35	17324.3
925.2973	1928.2633	18340.55	17210.25
925.436	1929.8832	18138.1	17247.75
925.5747	1931.5023	18003.6	17119.1
925.7134	1933.1207	17973.75	17088.15
925.852	1934.7383	17962.35	17077.45
925.9906	1936.3552	17921.45	17038.15
926.1292	1937.9714	17898.5	17014.95
926.2678	1939.5868	17809	16921.65
926.4064	1941.2015	17694.1	16809.05
926.5449	1942.8154	17649	16762.55
926.6834	1944.4286	17576.35	16690.15
926.8219	1946.041	17515.55	16608.25
926.9604	1947.6528	17435.4	16544.3
927.0988	1949.2637	17435.25	16553.7
927.2372	1950.8739	17319.95	16436.1
927.3756	1952.4834	17299.75	16416.45
927.514	1954.0921	17294.3	16410.2
927.6523	1955.7001	17195.05	16307.25
927.7907	1957.3074	17157.5	16276
927.929	1958.9139	17089.75	16207.35
928.0673	1960.5197	17073.55	16189.15
928.2055	1962.1247	16983.85	16100.1
928.3438	1963.729	16865.95	15984.4
928.482	1965.3325	16836.8	15930.5
928.6202	1966.9353	16806.75	15925.4
928.7584	1968.5374	16778.2	15895.2
928.8965	1970.1387	16705.8	15823.2
929.0346	1971.7393	16623.6	15739.7
929.1727	1973.3392	16559.35	15677.75
929.3108	1974.9383	16534	15651.8
929.4489	1976.5366	16441.55	15560.85
929.5869	1978.1342	16435.15	15550.55
929.7249	1979.7311	16392	15507.3
929.8629	1981.3273	16329.8	15447.65
930.0009	1982.9227	16321.5	15438.05
930.1388	1984.5173	16221.15	15339.85
930.2767	1986.1112	16202.35	15320.2
930.4146	1987.7044	16184.05	15302.9
930.5525	1989.2968	16117.5	15234.3
930.6904	1990.8885	16048.4	15163.75
930.8282	1992.4795	16063.5	15183.1
930.966	1994.0697	15982.9	15101.6
931.1038	1995.6592	15949.8	15069.85
931.2415	1997.2479	15865.3	14982.6
931.3793	1998.8359	15849.5	14968.1
931.517	2000.4232	15763.7	14884.05
931.6547	2002.0097	15730.45	14853.05
931.7923	2003.5955	15663.15	14783.1
931.93	2005.1805	15645.7	14764.65
932.0676	2006.7648	15615.35	14734
932.2052	2008.3484	15545.35	14665.15
932.3427	2009.9312	15572.45	14692.4
932.4803	2011.5133	15487.85	14609.1
932.6178	2013.0946	15444.4	14563.05
932.7553	2014.6752	15417	14536.65
932.8928	2016.2551	15369.15	14489.65
933.0302	2017.8342	15274.35	14393.15
933.1676	2019.4126	15248.5	14369.4
933.305	2020.9902	15216.15	14336.4
933.4424	2022.5672	15170.7	14290.15
933.5798	2024.1433	15121.25	14237.95
933.7171	2025.7188	15069.05	14192.6
933.8544	2027.2935	15030	14149.95
933.9917	2028.8674	14982.6	14103.5
934.129	2030.4406	14948.7	14071.05
934.2662	2032.0131	14868.4	13990.65
934.4034	2033.5849	14798.1	13910.7
934.5406	2035.1559	14787.3	13908.05
934.6778	2036.7261	14771.2	13892.55
934.8149	2038.2957	14743.05	13863.25
934.952	2039.8645	14723.65	13843.25
935.0891	2041.4325	14677	13793.3
935.2262	2042.9998	14645.95	13767.3
935.3632	2044.5664	14593.25	13711
935.5002	2046.1323	14551.4	13672.8
935.6372	2047.6974	14519	13640.6
935.7742	2049.2617	14467.2	13588.35
935.9111	2050.8254	14459.25	13574.2
936.048	2052.3883	14455.55	13572.75
936.1849	2053.9504	14383.35	13502.65
936.3218	2055.5118	14326.55	13445.95
936.4586	2057.0725	14285.95	13400.1
936.5955	2058.6325	14259.65	13379.5
936.7323	2060.1917	14219.05	13338.8
936.869	2061.7502	14212.55	13330.25
937.0058	2063.3079	14147.35	13269.35
937.1425	2064.8649	14088.95	13206
937.2792	2066.4212	14074.9	13196
937.4159	2067.9767	14011.5	13130.85
937.5525	2069.5315	13945.55	13064.55
937.6891	2071.0856	13894.7	13014.55
937.8257	2072.6389	13854.25	12974.2
937.9623	2074.1915	13800.8	12924.45
938.0989	2075.7433	13751.2	12869.1
938.2354	2077.2945	13713.1	12835.55
938.3719	2078.8448	13658.5	12778.85
938.5084	2080.3945	13636.1	12753.65
938.6448	2081.9434	13602.4	12722.2
938.7812	2083.4916	13553.65	12671.6
938.9176	2085.039	13503	12619.95
939.054	2086.5857	13523.2	12639.3
939.1903	2088.1317	13468.3	12584.9
939.3267	2089.677	13432.7	12548.95
939.463	2091.2215	13389	12506.1
939.5992	2092.7652	13334.55	12448.75
939.7355	2094.3083	13346.4	12463.4
939.8717	2095.8506	13293.45	12411.7
940.0079	2097.3921	13295.7	12416.65
940.1441	2098.933	13258.4	12377.7
940.2802	2100.4731	13246.8	12364.15
940.4163	2102.0124	13211.45	12313.65
940.5524	2103.5511	13187.6	12306.4
940.6885	2105.089	13152.45	12270.05
940.8245	2106.6261	13121.75	12241.4
940.9606	2108.1626	13048.9	12166.85
941.0965	2109.6983	13060.8	12153.75
941.2325	2111.2332	13013.6	12131.1
941.3684	2112.7675	12966.15	12083.65
941.5044	2114.301	12922.75	12040.15
941.6403	2115.8337	12934.95	12051.5
941.7761	2117.3657	12889.65	12008.4
941.912	2118.897	12871.95	11987.1
942.0478	2120.4276	12792.2	11904.7
942.1835	2121.9575	12730.4	11848.7
942.3193	2123.4866	12744.1	11848.05
942.455	2125.0149	12721.9	11833.8
942.5907	2126.5426	12637.65	11757.2
942.7264	2128.0695	12627.95	11742.6
942.8621	2129.5956	12601.7	11724.3
942.9977	2131.1211	12567.3	11680.6
943.1333	2132.6458	12510.85	11630.6
943.2689	2134.1698	12487.05	11605.75
943.4044	2135.693	12423.7	11538.45
943.54	2137.2155	12464.2	11578.85
943.6755	2138.7373	12425.35	11540.85
943.8109	2140.2584	12388.9	11510.3
943.9464	2141.7787	12342.2	11457.3
944.0818	2143.2983	12318.6	11439
944.2172	2144.8171	12216.3	11336.75
944.3526	2146.3353	12206.5	11322.25
944.4879	2147.8527	12140.6	11263.15
944.6232	2149.3693	12159.8	11276.15
944.7585	2150.8853	12102.3	11218.6
944.8938	2152.4005	12085.1	11204.4
945.029	2153.9149	12045.8	11161.8
945.1642	2155.4287	12019.35	11137.85
945.2994	2156.9417	11971.1	11088.3
945.4346	2158.454	11927.6	11043.55
945.5697	2159.9655	11910.9	11033.05
945.7048	2161.4764	11891.4	11009.5
945.8399	2162.9865	11849.05	10968.65
945.9749	2164.4958	11818.75	10939.75
946.1099	2166.0045	11779.65	10895.6
946.2449	2167.5124	11766.05	10885.1
946.3799	2169.0195	11725.7	10843.15
946.5148	2170.526	11695.75	10812.95
946.6498	2172.0317	11692.25	10810.2
946.7846	2173.5367	11660.25	10776.15
946.9195	2175.0409	11603.05	10723.25
947.0543	2176.5445	11615.6	10734.7
947.1891	2178.0473	11545	10660.6
947.3239	2179.5494	11490.05	10605.2
947.4587	2181.0507	11450.55	10568.6
947.5934	2182.5513	11413.85	10531.85
947.7281	2184.0512	11415.65	10533.2
947.8628	2185.5504	11372.3	10491.9
947.9974	2187.0488	11317.35	10436.75
948.132	2188.5465	11292.55	10411.85
948.2666	2190.0435	11242.85	10363.45
948.4012	2191.5397	11233.9	10351.3
948.5357	2193.0353	11190.7	10309.6
948.6702	2194.5301	11132.95	10250.95
948.8047	2196.0241	11108.6	10224.4
948.9392	2197.5175	11076.45	10191.05
949.0736	2199.0101	11031.2	10145.3
949.208	2200.502	10974.9	10094.1
949.3424	2201.9931	10939.3	10058.35
949.4767	2203.4835	10927.8	10043.95
949.611	2204.9733	10890.7	10005.1
949.7453	2206.4622	10867.5	9987.7
949.8796	2207.9505	10822.6	9941.4
950.0138	2209.438	10766.45	9885.4
950.148	2210.9248	10742	9859.8
950.2822	2212.4109	10720.3	9839.4
950.4164	2213.8962	10676.2	9791.85
950.5505	2215.3809	10648.5	9765.7
950.6846	2216.8648	10641.4	9756.6
950.8186	2218.3479	10614.75	9728.85
950.9527	2219.8304	10557.5	9672.85
951.0867	2221.3121	10506.05	9622.15
951.2207	2222.7931	10473.9	9590.7
951.3546	2224.2733	10471.9	9588.7
951.4886	2225.7529	10419.7	9538.25
951.6225	2227.2317	10423.3	9540.45
951.7563	2228.7098	10377.75	9496.65
951.8902	2230.1872	10326.15	9445.95
952.024	2231.6638	10310.4	9430.45
952.1578	2233.1397	10274.95	9389.95
952.2916	2234.6149	10257.45	9377.65
952.4253	2236.0894	10214.6	9332.95
952.559	2237.5632	10187.65	9297.3
952.6927	2239.0362	10160.75	9278.65
952.8263	2240.5085	10129.75	9248.2
952.9599	2241.9801	10068.15	9185.55
953.0935	2243.4509	10054.95	9174.35
953.2271	2244.921	10018.95	9135.65
953.3606	2246.3904	9965.85	9080.3
953.4941	2247.8591	9948.5	9067.65
953.6276	2249.3271	9932.35	9051.2
953.7611	2250.7943	9905.75	9022.2
953.8945	2252.2608	9848.45	8966.6
954.0279	2253.7266	9816.9	8932.3
954.1612	2255.1917	9813.05	8931.1
954.2946	2256.656	9770.75	8888.3
954.4279	2258.1197	9746.85	8865.4
954.5612	2259.5826	9702.75	8819.1
954.6944	2261.0447	9710.05	8826.3
954.8276	2262.5062	9666.4	8783.3
954.9608	2263.9669	9649.75	8765.45
955.094	2265.4269	9632.95	8751.6
955.2271	2266.8862	9587.65	8706.35
955.3602	2268.3448	9560.8	8674.95
955.4933	2269.8026	9533.7	8651.95
955.6264	2271.2598	9515.05	8633.25
955.7594	2272.7162	9502.2	8620.85
955.8924	2274.1719	9460.55	8576.3
956.0253	2275.6268	9455.35	8573.35
956.1583	2277.0811	9430.05	8548.95
956.2912	2278.5346	9388.85	8507.05
956.4241	2279.9874	9384.15	8501.65
956.5569	2281.4395	9367.65	8485.75
956.6897	2282.8908	9319.95	8433.55
956.8225	2284.3414	9317.25	8433.25
956.9553	2285.7914	9272.1	8389.35
957.088	2287.2406	9254.9	8370.4
957.2207	2288.689	9211.8	8329.75
957.3534	2290.1368	9184.35	8300
957.486	2291.5838	9179.25	8292.55
957.6186	2293.0302	9150.9	8266.3
957.7512	2294.4758	9089.95	8205.95
957.8838	2295.9206	9090.65	8206.4
958.0163	2297.3648	9060.55	8177.85
958.1488	2298.8082	9054.05	8169.85
958.2813	2300.251	9018.2	8134.9
958.4137	2301.693	8969.45	8084.3
958.5461	2303.1343	8972.1	8091
958.6785	2304.5748	8950.75	8067.75
958.8108	2306.0147	8918.95	8036.45
958.9432	2307.4538	8892.8	8007.55
959.0754	2308.8922	8870.15	7991.3
959.2077	2310.3299	8833.95	7954.75
959.3399	2311.7669	8810.15	7927.5
959.4721	2313.2031	8778.3	7898.9
959.6043	2314.6387	8754.7	7870.35
959.7365	2316.0735	8700.8	7818.5
959.8686	2317.5076	8701.6	7817.4
960.0006	2318.941	8684.05	7801.05
960.1327	2320.3737	8656.3	7773.45
960.2647	2321.8056	8652	7766.75
960.3967	2323.2369	8601.85	7718.45
960.5287	2324.6674	8585.95	7699.35
960.6606	2326.0972	8545.25	7661.95
960.7925	2327.5263	8522.95	7640.05
960.9244	2328.9547	8490	7606.95
961.0562	2330.3823	8488.75	7605.35
961.1881	2331.8092	8484.95	7600.25
961.3198	2333.2355	8433.3	7547.15
961.4516	2334.661	8433.35	7549.9
961.5833	2336.0858	8410	7523.65
961.715	2337.5098	8380.2	7497.95
961.8467	2338.9332	8365	7482.35
961.9783	2340.3558	8327.7	7440.05
962.1099	2341.7778	8305.7	7421.45
962.2415	2343.199	8280.3	7394.3
962.373	2344.6195	8267.5	7384.9
962.5045	2346.0393	8249.9	7368.15
962.636	2347.4583	8220.55	7338.9
962.7675	2348.8767	8190.05	7304.8
962.8989	2350.2943	8159.35	7275.05
963.0303	2351.7113	8158.2	7272.3
963.1617	2353.1275	8136.7	7250.2
963.293	2354.543	8112.35	7217.1
963.4243	2355.9578	8096.2	7211.5
963.5556	2357.3718	8020.7	7136.65
963.6868	2358.7852	8005.75	7122.25
963.818	2360.1978	7978	7095.7
963.9492	2361.6098	7952.1	7071.35
964.0803	2363.021	7951.25	7064.75
964.2114	2364.4315	7909.55	7026.55
964.3425	2365.8413	7902.75	7017.95
964.4736	2367.2504	7867.5	6985.7
964.6046	2368.6587	7837.4	6954.25
964.7356	2370.0664	7827.75	6945.65
964.8666	2371.4733	7781.55	6898.8
964.9975	2372.8795	7746.8	6865.25
965.1284	2374.285	7709.4	6826.2
965.2593	2375.6899	7684.95	6803.55
965.3901	2377.0939	7652.5	6770.3
965.5209	2378.4973	7649.1	6766.85
965.6517	2379.9	7621.85	6739.55
965.7825	2381.3019	7587.2	6704.25
965.9132	2382.7032	7564.3	6682.4
966.0439	2384.1037	7561.85	6681.6
966.1745	2385.5035	7515.55	6633.9
966.3051	2386.9027	7498.65	6618.2
966.4357	2388.3011	7484.75	6601.45
966.5663	2389.6987	7476.15	6594.75
966.6968	2391.0957	7437.4	6557.45
966.8273	2392.492	7403.15	6521.95
966.9578	2393.8876	7359	6475.75
967.0882	2395.2824	7356.8	6476.05
967.2186	2396.6765	7316.4	6433.25
967.349	2398.07	7287.55	6406.75
967.4793	2399.4627	7261.5	6376.85
967.6097	2400.8547	7251.15	6367.75
967.7399	2402.246	7241.3	6353.7
967.8702	2403.6366	7173.4	6288.9
968.0004	2405.0265	7160.1	6277.25
968.1306	2406.4156	7131.6	6246.7
968.2607	2407.8041	7126.2	6240.6
968.3909	2409.1918	7098.55	6216.85
968.521	2410.5789	7053.75	6169.7
968.651	2411.9652	7045.95	6158.8
968.781	2413.3508	7008.15	6125.9
968.911	2414.7358	6991.2	6107.55
969.041	2416.12	6965.85	6083.45
969.1709	2417.5035	6969.3	6086.1
969.3008	2418.8863	6944.35	6060.9
969.4307	2420.2684	6928.75	6044.75
969.5606	2421.6497	6878	5996
969.6904	2423.0304	6846.3	5963.1
969.8201	2424.4104	6829.95	5945.5
969.9499	2425.7896	6805.25	5919.75
970.0796	2427.1682	6783.75	5900.25
970.2093	2428.546	6804.5	5920.65
970.3389	2429.9232	6763.2	5880.65
970.4685	2431.2996	6740.2	5857.3
970.5981	2432.6753	6735.45	5850.5
970.7277	2434.0503	6718.2	5834.95
970.8572	2435.4246	6692.2	5810.4
970.9867	2436.7982	6662.4	5776.8
971.1161	2438.1711	6638.15	5755.7
971.2456	2439.5433	6615.95	5733.65
971.375	2440.9148	6586.55	5697.1
971.5043	2442.2856	6576.5	5694.8
971.6336	2443.6557	6537.4	5653.75
971.7629	2445.025	6515	5632.15
971.8922	2446.3937	6503.4	5619.75
972.0214	2447.7617	6493.65	5609.85
972.1506	2449.1289	6477.45	5593.05
972.2798	2450.4955	6462.1	5579.3
972.4089	2451.8613	6442	5559.9
972.538	2453.2265	6433.05	5549.25
972.6671	2454.5909	6423.35	5541.8
972.7961	2455.9546	6397.45	5514.3
972.9251	2457.3177	6373.3	5493.8
973.0541	2458.68	6369.75	5487.75
973.1831	2460.0416	6350	5467.15
973.312	2461.4025	6341.75	5457.5
973.4408	2462.7627	6333.1	5441.45
973.5697	2464.1222	6289.7	5408.9
973.6985	2465.4811	6262.65	5378.65
973.8273	2466.8392	6260.2	5376.85
973.956	2468.1966	6253.1	5370.5
974.0847	2469.5533	6264.65	5379.8
974.2134	2470.9093	6218.7	5335.85
974.3421	2472.2645	6208.35	5324.9
974.4707	2473.6191	6176.45	5294.15
974.5993	2474.973	6167.1	5283.95
974.7278	2476.3262	6147.55	5262
974.8563	2477.6787	6117.9	5235.05
974.9848	2479.0305	6104.65	5221.8
975.1132	2480.3816	6082.85	5198.65
975.2417	2481.7319	6068.9	5185.35
975.37	2483.0816	6054.7	5172.25
975.4984	2484.4306	6022.6	5138.8
975.6267	2485.7789	6004.95	5124.5
975.755	2487.1264	5952.25	5068.75
975.8833	2488.4733	5951.7	5070.8
976.0115	2489.8195	5964.7	5075.9
976.1397	2491.165	5924.6	5039.45
976.2678	2492.5097	5904.75	5020
976.3959	2493.8538	5874.4	4991.15
976.524	2495.1972	5862.4	4979.3
976.6521	2496.5398	5840	4957.45
976.7801	2497.8818	5821.55	4936.35
976.9081	2499.2231	5816.45	4934.15
977.036	2500.5637	5782.7	4896.1
977.164	2501.9035	5781.3	4897.6
977.2918	2503.2427	5751.95	4865.7
977.4197	2504.5812	5740.65	4859
977.5475	2505.919	5717.65	4832.3
977.6753	2507.256	5696.25	4813.55
977.8031	2508.5924	5678.75	4797.4
977.9308	2509.9281	5675.95	4786.9
978.0585	2511.2631	5665	4782.45
978.1861	2512.5974	5629.6	4746.95
978.3137	2513.9309	5619.5	4736.75
978.4413	2515.2638	5621.2	4707.5
978.5689	2516.596	5585.85	4704.05
978.6964	2517.9275	5565.15	4680.35
978.8239	2519.2583	5546.1	4664.1
978.9513	2520.5884	5538.6	4653.15
979.0788	2521.9178	5513.7	4630.2
979.2062	2523.2465	5482.35	4599.25
979.3335	2524.5745	5462.8	4580
979.4608	2525.9018	5447.15	4563.95
979.5881	2527.2284	5447	4567.15
979.7154	2528.5543	5433.2	4552
979.8426	2529.8796	5398.65	4518.15
979.9698	2531.2041	5390.35	4507.9
980.0969	2532.5279	5382.15	4503.1
980.224	2533.851	5365.75	4481.9
980.3511	2535.1735	5354.7	4471.15
980.4781	2536.4952	5338.8	4456.5
980.6052	2537.8163	5333.35	4450.15
980.7321	2539.1366	5340.2	4459.7
980.8591	2540.4562	5309.75	4425.3
980.986	2541.7752	5295	4412.15
981.1129	2543.0935	5294.2	4410.45
981.2397	2544.411	5282.85	4398.8
981.3665	2545.7279	5287.8	4405.15
981.4933	2547.0441	5276.2	4394.9
981.62	2548.3596	5257.9	4370.45
981.7467	2549.6744	5253.75	4371.95
981.8734	2550.9885	5242.1	4350.5
982.0001	2552.3019	5206.05	4323.9
982.1267	2553.6146	5220.25	4337.9
982.2532	2554.9266	5187.85	4306.05
982.3798	2556.2379	5157.9	4275.05
982.5063	2557.5485	5164.5	4284.2
982.6327	2558.8585	5153.1	4264.3
982.7592	2560.1677	5140.6	4253.9
982.8856	2561.4762	5135.35	4250.05
983.0119	2562.7841	5109.2	4222.9
983.1383	2564.0913	5103.3	4219.25
983.2646	2565.3977	5093.05	4209.05
983.3908	2566.7035	5086.15	4203.35
983.517	2568.0086	5053.8	4168.95
983.6432	2569.313	5058.1	4174.4
983.7694	2570.6167	5072.25	4186.05
983.8955	2571.9197	5028.65	4145.4
984.0216	2573.222	5040.65	4152.95
984.1476	2574.5236	5035.75	4151.25
984.2737	2575.8246	4996.95	4113.6
984.3996	2577.1248	5009.3	4122.8
984.5256	2578.4244	4989.65	4107.85
984.6515	2579.7232	4976.7	4093.1
984.7774	2581.0214	4990.35	4085.25
984.9032	2582.3189	4964.15	4083.3
985.029	2583.6157	4953.85	4066.75
985.1548	2584.9118	4950.95	4067.2
985.2806	2586.2072	4932.8	4051.7
985.4063	2587.5019	4918.6	4038.5
985.5319	2588.7959	4896.95	4012.8
985.6576	2590.0893	4894.3	4010.7
985.7832	2591.3819	4881.9	3999.9
985.9087	2592.6739	4869.6	3986.3
986.0343	2593.9652	4854.4	3969.6
986.1597	2595.2557	4841.55	3958.4
986.2852	2596.5456	4821.8	3937.45
986.4106	2597.8348	4808.95	3925.6
986.536	2599.1234	4784.75	3902.2
986.6614	2600.4112	4762.95	3877.3
986.7867	2601.6983	4771.4	3884.3
986.912	2602.9848	4740.7	3858.5
987.0372	2604.2705	4726.75	3837.2
987.1624	2605.5556	4728.75	3845.9
987.2876	2606.84	4705.45	3821.4
987.4128	2608.1237	4674.35	3789.25
987.5379	2609.4067	4658.45	3778.6
987.6629	2610.689	4651.45	3759.35
987.788	2611.9707	4625.95	3740.2
987.913	2613.2516	4612.55	3725.05
988.0379	2614.5319	4590.95	3709.15
988.1629	2615.8115	4580.9	3697.1
988.2878	2617.0903	4576.3	3692.05
988.4126	2618.3685	4542.15	3659.5
988.5375	2619.6461	4532.8	3651
988.6622	2620.9229	4544.1	3659.8
988.787	2622.199	4507.35	3625.05
988.9117	2623.4745	4507.8	3623.7
989.0364	2624.7493	4491.15	3608.15
989.161	2626.0234	4477.4	3595.7
989.2857	2627.2968	4477.35	3595.3
989.4102	2628.5695	4448.4	3564.8
989.5348	2629.8415	4429.55	3547.45
989.6593	2631.1128	4406.85	3522.15
989.7837	2632.3835	4395.4	3515.2
989.9082	2633.6535	4386.7	3505.1
990.0326	2634.9228	4361.8	3480.85
990.1569	2636.1914	4362.3	3477.25
990.2812	2637.4593	4358.75	3471.4
990.4055	2638.7265	4344.3	3462.95
990.5298	2639.9931	4303.25	3421.45
990.654	2641.259	4310.25	3427.25
990.7782	2642.5242	4302.75	3419.85
990.9023	2643.7887	4289	3405.85
991.0264	2645.0525	4289.65	3407.8
991.1505	2646.3156	4257.8	3375.15
991.2745	2647.5781	4242.45	3360.9
991.3985	2648.8398	4239.7	3360.8
991.5225	2650.1009	4255.65	3336.35
991.6464	2651.3613	4221.7	3340.3
991.7703	2652.6211	4200.4	3318.3
991.8942	2653.8801	4207.35	3325.4
992.018	2655.1385	4182.85	3296.3
992.1418	2656.3961	4183.4	3303.65
992.2655	2657.6531	4184.1	3301.5
992.3892	2658.9094	4156.05	3273.95
992.5129	2660.1651	4145.85	3264.25
992.6366	2661.42	4150.9	3267.25
992.7602	2662.6743	4127.35	3244.35
992.8837	2663.9279	4121.8	3242.25
993.0073	2665.1808	4106	3223.15
993.1307	2666.433	4095.35	3213.55
993.2542	2667.6846	4068	3184.45
993.3776	2668.9354	4083.15	3197.35
993.501	2670.1856	4067.1	3184.95
993.6244	2671.4351	4053.6	3172.65
993.7477	2672.6839	4055.9	3171.65
993.8709	2673.9321	4034.4	3153.25
993.9942	2675.1795	4015.55	3132.75
994.1174	2676.4263	3996.6	3115.5
994.2405	2677.6724	4011.95	3129.6
994.3637	2678.9179	4006.1	3124.35
994.4868	2680.1626	3992.3	3111.55
994.6098	2681.4067	3963.85	3082.4
994.7328	2682.6501	3969.65	3088.25
994.8558	2683.8928	3950.7	3069.2
994.9788	2685.1348	3936.2	3054.05
995.1017	2686.3761	3929.75	3046.6
995.2245	2687.6168	3918.8	3039
995.3474	2688.8568	3902.75	3019.65
995.4702	2690.0961	3901.35	3021.6
995.5929	2691.3348	3882.4	3000.55
995.7156	2692.5727	3874.5	2992.3
995.8383	2693.81	3861.65	2978.85
995.961	2695.0466	3851.85	2971.1
996.0836	2696.2826	3840.8	2957.55
996.2062	2697.5178	3856.3	2955.7
996.3287	2698.7524	3819.5	2936.15
996.4512	2699.9863	3821.8	2937.95
996.5737	2701.2195	3794.6	2915.4
996.6961	2702.452	3800.85	2916.15
996.8185	2703.6839	3789.6	2907.5
996.9408	2704.9151	3772.95	2891.7
997.0631	2706.1456	3756.35	2873.55
997.1854	2707.3755	3768.65	2887.35
997.3077	2708.6046	3746.95	2862.9
997.4299	2709.8331	3747.7	2865.35
997.552	2711.0609	3744.6	2861.45
997.6742	2712.2881	3728.2	2846.05
997.7963	2713.5145	3699.95	2815.05
997.9183	2714.7403	3705.25	2824.4
998.0403	2715.9654	3702.4	2818.65
998.1623	2717.1899	3694.25	2797.8
998.2842	2718.4136	3688.5	2808.9
998.4062	2719.6367	3684.45	2803.75
998.528	2720.8591	3669	2779.4
998.6498	2722.0809	3650.1	2767.25
998.7716	2723.3019	3637.7	2753.75
998.8934	2724.5223	3640.6	2755.8
999.0151	2725.7421	3633.05	2749.25
999.1368	2726.9611	3621	2736.5
999.2584	2728.1795	3586.05	2699.9
999.38	2729.3972	3577.15	2695.7
999.5016	2730.6142	3592.7	2697.75
999.6231	2731.8306	3560.1	2676.7
999.7446	2733.0462	3537.1	2654.15
999.8661	2734.2612	3526.7	2640.4
999.9875	2735.4756	3518.75	2636.4
1000.1089	2736.6892	3508.9	2625.3
1000.2302	2737.9022	3481	2600
1000.3515	2739.1145	3465.5	2584.1
1000.4728	2740.3262	3470.9	2582.2
1000.594	2741.5372	3431.5	2553.6
1000.7152	2742.7475	3429.4	2547.1
1000.8363	2743.9571	3424.65	2541.65
1000.9575	2745.1661	3405.3	2518.9
1001.0785	2746.3744	3404.5	2523.45
1001.1996	2747.582	3383.8	2501.95
1001.3206	2748.7889	3368.9	2485
1001.4415	2749.9952	3370.65	2489.85
1001.5625	2751.2008	3359.1	2477.55
1001.6833	2752.4057	3349.95	2465.5
1001.8042	2753.61	3333.7	2451.8
1001.925	2754.8136	3311.05	2425.55
1002.0458	2756.0165	3321.8	2440.65
1002.1665	2757.2188	3306.4	2425.3
1002.2872	2758.4204	3289.3	2408.85
1002.4078	2759.6213	3289.8	2405.55
1002.5285	2760.8215	3286.25	2398.2
1002.649	2762.0211	3269.8	2387.3
1002.7696	2763.22	3259.65	2377.95
1002.8901	2764.4182	3273.65	2391.05
1003.0106	2765.6158	3250.2	2368.4
1003.131	2766.8127	3238.3	2357
1003.2514	2768.009	3209.3	2327
1003.3717	2769.2045	3215.1	2332.7
1003.492	2770.3994	3209.25	2325.3
1003.6123	2771.5936	3203.1	2320.75
1003.7325	2772.7872	3202	2321.5
1003.8527	2773.9801	3173.65	2290.55
1003.9729	2775.1723	3179.8	2285.7
1004.093	2776.3639	3168.9	2289.15
1004.2131	2777.5548	3150.6	2267.65
1004.3331	2778.745	3152.65	2269
1004.4531	2779.9346	3129.2	2247.7
1004.5731	2781.1235	3138.2	2255.1
1004.693	2782.3117	3112.25	2232.5
1004.8129	2783.4992	3095.05	2213.35
1004.9328	2784.6861	3097.1	2216.8
1005.0526	2785.8723	3102.2	2219.3
1005.1723	2787.0579	3084.7	2203.35
1005.2921	2788.2428	3076.45	2198.7
1005.4118	2789.427	3072.9	2192
1005.5314	2790.6106	3060.15	2179.3
1005.651	2791.7935	3055.55	2172.2
1005.7706	2792.9757	3064.05	2184.2
1005.8902	2794.1573	3046.85	2163.8
1006.0097	2795.3382	3031	2149.85
1006.1291	2796.5184	3023.7	2145.95
1006.2485	2797.698	3028	2144.35
1006.3679	2798.8769	3018.95	2139.5
1006.4873	2800.0551	3015.65	2133.7
1006.6066	2801.2327	3004	2120.3
1006.7258	2802.4096	3007.65	2127.15
1006.8451	2803.5859	3008.85	2127.25
1006.9642	2804.7615	2992.45	2110.85
1007.0834	2805.9364	3001.25	2120.35
1007.2025	2807.1106	2997.05	2117.25
1007.3216	2808.2842	2993.05	2109.55
1007.4406	2809.4572	3000.3	2121.1
1007.5596	2810.6294	3013.7	2133.15
1007.6785	2811.801	3009.95	2128.85
1007.7975	2812.972	3006.8	2128.2
1007.9163	2814.1423	3013.8	2133.35
1008.0352	2815.3119	3035.4	2154.2
1008.154	2816.4808	3034.3	2154.5
1008.2727	2817.6491	3048.85	2167.15
1008.3914	2818.8167	3054.35	2175.3
1008.5101	2819.9837	3071.25	2187.3
1008.6288	2821.15	3080.1	2199.2
1008.7474	2822.3157	3086.85	2207.25
1008.8659	2823.4807	3093.8	2211.3
1008.9844	2824.645	3121.55	2242.2
1009.1029	2825.8086	3128.5	2248.9
1009.2214	2826.9716	3146.75	2264.6
1009.3398	2828.134	3157.7	2277
1009.4581	2829.2957	3161.55	2280.75
1009.5764	2830.4567	3179.95	2301.35
1009.6947	2831.617	3172.7	2292.75
1009.813	2832.7767	3165.5	2284.95
1009.9312	2833.9358	3160.45	2280.9
1010.0493	2835.0941	3165.65	2283.85
1010.1675	2836.2519	3146.4	2266.7
1010.2855	2837.4089	3133.95	2254.15
1010.4036	2838.5653	3117.2	2236.5
1010.5216	2839.7211	3123.85	2242.15
1010.6396	2840.8761	3124.35	2241.45
1010.7575	2842.0306	3117	2238.05
1010.8754	2843.1843	3124.8	2245.1
1010.9932	2844.3374	3129.35	2245.85
1011.111	2845.4899	3143.4	2263.15
1011.2288	2846.6417	3149.75	2269.95
1011.3465	2847.7928	3149.3	2268.2
1011.4642	2848.9433	3164.45	2285.7
1011.5818	2850.0931	3188.6	2307.95
1011.6995	2851.2422	3199.8	2316.65
1011.817	2852.3907	3218.55	2337.95
1011.9345	2853.5385	3245.45	2362.7
1012.052	2854.6857	3257.45	2367.6
1012.1695	2855.8323	3239.1	2359.25
1012.2869	2856.9781	3255.05	2375.15
1012.4042	2858.1233	3273.35	2393.55
1012.5216	2859.2679	3284.25	2402.9
1012.6389	2860.4118	3282.65	2402.25
1012.7561	2861.555	3297.1	2411.85
1012.8733	2862.6976	3318.4	2436.2
1012.9905	2863.8395	3306.75	2428
1013.1076	2864.9808	3314.95	2433.75
1013.2247	2866.1214	3303.75	2423.8
1013.3417	2867.2614	3319.7	2440.45
1013.4587	2868.4007	3318.05	2434.85
1013.5757	2869.5393	3325.75	2445.45
1013.6926	2870.6773	3306.45	2422.5
1013.8095	2871.8146	3309.3	2426.2
1013.9263	2872.9513	3292.5	2409.4
1014.0431	2874.0874	3284.45	2404.55
1014.1599	2875.2227	3275.7	2395.25
1014.2766	2876.3574	3264.05	2384
1014.3933	2877.4915	3243.2	2364.35
1014.51	2878.6249	3221.6	2343.95
1014.6266	2879.7577	3221.3	2340.1
1014.7431	2880.8898	3214.95	2324.15
1014.8596	2882.0212	3190.6	2311.1
1014.9761	2883.152	3176.85	2295.15
1015.0925	2884.2821	3166.65	2286.5
1015.2089	2885.4116	3154.5	2275.25
1015.3253	2886.5405	3150.75	2271.4
1015.4416	2887.6686	3151.05	2269.6
1015.5579	2888.7962	3149.2	2270.25
1015.6741	2889.923	3133.5	2254.3
1015.7903	2891.0493	3139.5	2259.8
1015.9065	2892.1748	3127.35	2247.8
1016.0226	2893.2997	3132.1	2251
1016.1387	2894.424	3130.55	2251.5
1016.2547	2895.5476	3123.9	2243.05
1016.3707	2896.6706	3120.4	2241
1016.4866	2897.7929	3132.75	2251.8
1016.6025	2898.9145	3127.5	2247.55
1016.7184	2900.0355	3135.3	2255.9
1016.8342	2901.1559	3136.7	2256
1016.95	2902.2756	3149.95	2267.6
1017.0658	2903.3946	3141.65	2261.35
1017.1815	2904.513	3150.8	2268.8
1017.2971	2905.6308	3150.55	2272.65
1017.4127	2906.7479	3139.25	2258.2
1017.5283	2907.8643	3163.1	2284.2
1017.6439	2908.9801	3150.25	2268.15
1017.7594	2910.0953	3140.25	2260.1
1017.8748	2911.2098	3144.05	2258.95
1017.9902	2912.3236	3130.4	2241.15
1018.1056	2913.4368	3119.6	2236.65
1018.2209	2914.5494	3105.35	2223.7
1018.3362	2915.6613	3084	2199.25
1018.4515	2916.7725	3080.75	2198.3
1018.5667	2917.8831	3062.85	2181.6
1018.6819	2918.9931	3042.75	2160.6
1018.797	2920.1024	3025.7	2144.8
1018.9121	2921.211	3032.95	2153.35
1019.0271	2922.319	3007.85	2126.7
1019.1421	2923.4264	2989.15	2109.85
1019.2571	2924.5331	2977.25	2098
1019.372	2925.6391	2982.8	2102.55
1019.4869	2926.7445	2980.1	2102.3
1019.6017	2927.8493	2977.15	2097.95
1019.7165	2928.9534	2970	2091.6
1019.8313	2930.0569	2950.45	2067.25
1019.946	2931.1597	2968.9	2087.75
1020.0606	2932.2619	2944.45	2065.35
1020.1753	2933.3634	2960.9	2080.35
1020.2899	2934.4643	2954.2	2068.05
1020.4044	2935.5645	2951.45	2066.6
1020.5189	2936.6641	2935.75	2052.05
1020.6334	2937.763	2914.75	2036.3
1020.7478	2938.8613	2899.45	2018
1020.8622	2939.959	2879.1	1994.3
1020.9765	2941.056	2843.2	1966.3
1021.0908	2942.1523	2811.95	1930.3
1021.2051	2943.248	2798.05	1916.85
1021.3193	2944.3431	2754.5	1874.25
1021.4334	2945.4375	2707.45	1828.8
1021.5476	2946.5313	2673.35	1794.85
1021.6617	2947.6244	2627.9	1748.9
1021.7757	2948.7169	2598.95	1717.1
1021.8897	2949.8087	2560.35	1679.75
1022.0037	2950.8999	2528.6	1647.8
1022.1176	2951.9904	2493.3	1614.8
1022.2315	2953.0803	2464.25	1583.8
1022.3453	2954.1696	2442.7	1561.6
1022.4591	2955.2582	2426	1546.95
1022.5728	2956.3462	2401.25	1520.35
1022.6865	2957.4335	2380.95	1500.95
1022.8002	2958.5202	2363.15	1481.4
1022.9138	2959.6062	2353.45	1472.2
1023.0274	2960.6916	2339.05	1458.8
1023.141	2961.7764	2323.45	1445
1023.2545	2962.8605	2308.95	1429.6
1023.3679	2963.9439	2306.7	1426.45
1023.4813	2965.0267	2293.3	1412.9
1023.5947	2966.1089	2305.9	1402.8
1023.708	2967.1905	2289	1411
1023.8213	2968.2714	2271.75	1393.15
1023.9346	2969.3516	2270.6	1390.75
1024.0478	2970.4312	2273.4	1386.75
1024.1609	2971.5102	2256.2	1376.85
1024.274	2972.5885	2263.5	1383.3
1024.3871	2973.6662	2268.6	1383.6
1024.5002	2974.7432	2250.9	1371.6
1024.6132	2975.8196	2249.05	1371.1
1024.7261	2976.8954	2245.3	1366.95
1024.839	2977.9705	2233.75	1354.2
1024.9519	2979.045	2226.9	1348.6
1025.0647	2980.1188	2215.55	1335.8
1025.1775	2981.192	2203.9	1326.7
1025.2902	2982.2645	2200.05	1319.3
1025.4029	2983.3364	2183.55	1303.15
1025.5156	2984.4077	2168.75	1290.25
1025.6282	2985.4783	2155.5	1268.15
1025.7407	2986.5483	2144.9	1264.4
1025.8532	2987.6177	2124.5	1245.7
1025.9657	2988.6864	2120.35	1239.9
1026.0782	2989.7545	2108.75	1227.3
1026.1906	2990.8219	2089.55	1211.55
1026.3029	2991.8887	2074.4	1194.4
1026.4152	2992.9548	2052.9	1173
1026.5275	2994.0204	2037.95	1157.4
1026.6397	2995.0852	2023.8	1145.05
1026.7519	2996.1495	2020	1139.2
1026.864	2997.2131	2003.6	1125.1
1026.9761	2998.276	1989.85	1110.15
1027.0882	2999.3383	1972.9	1093.45
1027.2002	3000.4	1964.9	1084.85
1027.3122	3001.4611	1957.4	1078.85
1027.4241	3002.5215	1940.45	1060.65
1027.536	3003.5812	1940.9	1064
1027.6478	3004.6404	1925.8	1047.25
1027.7596	3005.6989	1915.7	1034.75
1027.8714	3006.7567	1898.4	1019.25
1027.9831	3007.8139	1923.55	1012.9
1028.0947	3008.8705	1894.9	1015.3
1028.2064	3009.9264	1894.6	1010.75
1028.3179	3010.9818	1892.15	1012.25
1028.4295	3012.0364	1877.65	996.75
1028.541	3013.0905	1880.3	1000.65
1028.6524	3014.1439	1874.65	995.6
1028.7638	3015.1966	1867.65	988.7
1028.8752	3016.2487	1859.95	980.75
1028.9865	3017.3002	1858.55	977.15
1029.0978	3018.3511	1854.1	975.2
1029.209	3019.4013	1849.8	970.65
1029.3202	3020.4509	1844.3	966.45
1029.4314	3021.4998	1842.25	964.3
1029.5425	3022.5481	1839.75	961.4
1029.6535	3023.5958	1830.65	952.9
1029.7645	3024.6428	1827.95	948.3
1029.8755	3025.6892	1827.15	948.95
1029.9864	3026.735	1820.5	940.25
1030.0973	3027.7802	1819.45	940.6
1030.2082	3028.8247	1807.05	927.95
1030.319	3029.8685	1811.35	933.95
1030.4297	3030.9118	1801.2	919.1
1030.5404	3031.9544	1791.65	913.7
1030.6511	3032.9963	1792.8	914.1
1030.7617	3034.0376	1795.75	915.75
1030.8723	3035.0783	1789.7	907.2
1030.9829	3036.1184	1791.55	910.85
1031.0934	3037.1578	1787.7	910.5
1031.2038	3038.1966	1780	900.05
1031.3142	3039.2348	1777.15	900.55
1031.4246	3040.2723	1791.7	900.85
1031.5349	3041.3092	1776.05	897.95
1031.6452	3042.3455	1774.75	895.55
1031.7554	3043.3811	1770.1	890.55
1031.8656	3044.4161	1763.2	884
1031.9758	3045.4505	1759.35	880.95
1032.0859	3046.4842	1761	881.65
1032.1959	3047.5173	1742.55	864.4
1032.3059	3048.5498	1738.95	862.15
1032.4159	3049.5816	1746.25	867.35
1032.5258	3050.6128	1730.9	850.4
1032.6357	3051.6434	1735.2	854.15
1032.7455	3052.6734	1739.8	858.6
1032.8553	3053.7027	1734.75	857.1
1032.9651	3054.7314	1731.75	851.1
1033.0748	3055.7594	1718.75	838.95
1033.1845	3056.7868	1712.6	829.05
1033.2941	3057.8136	1704.8	825.15
1033.4037	3058.8398	1705	826.95
1033.5132	3059.8653	1697.1	816.5
1033.6227	3060.8902	1697.1	819.35
1033.7321	3061.9145	1697.15	818.3
1033.8415	3062.9381	1695.05	816.5
1033.9509	3063.9612	1688.25	795.4
1034.0602	3064.9835	1695.35	816.65
1034.1694	3066.0053	1680.6	799.4
1034.2787	3067.0264	1675.8	796.15
1034.3878	3068.0469	1677.75	798.3
1034.497	3069.0668	1673	791.4
1034.6061	3070.086	1656.1	778.2
1034.7151	3071.1046	1665.75	785.75
1034.8241	3072.1226	1657.35	778.1
1034.9331	3073.1399	1653.75	774.65
1035.042	3074.1567	1638.75	761.75
1035.1508	3075.1727	1636.55	758.8
1035.2597	3076.1882	1630.6	753.25
1035.3684	3077.203	1623.2	744.15
1035.4772	3078.2173	1623.2	740.85
1035.5859	3079.2308	1613.05	730.6
1035.6945	3080.2438	1608	728.45
1035.8031	3081.2561	1603.95	722.3
1035.9117	3082.2678	1604.35	727.15
1036.0202	3083.2789	1603.15	723.75
1036.1286	3084.2893	1600.05	722.55
1036.2371	3085.2991	1596.15	718.7
1036.3454	3086.3083	1593.9	710
1036.4538	3087.3169	1584.2	704.55
1036.562	3088.3248	1575.7	694
1036.6703	3089.3321	1577.25	695.6
1036.7785	3090.3388	1567.75	689.1
1036.8866	3091.3449	1569.05	689.15
1036.9948	3092.3503	1560.55	680.05
1037.1028	3093.3551	1558.6	680.7
1037.2108	3094.3593	1552.7	674.55
1037.3188	3095.3629	1547.85	669.65
1037.4267	3096.3658	1545.55	666.95
1037.5346	3097.3681	1544.05	666
1037.6425	3098.3698	1538	659.15
1037.7503	3099.3708	1541.85	656.9
1037.858	3100.3713	1523.6	645.9
1037.9657	3101.3711	1520.15	639.85
1038.0734	3102.3702	1644.3	629.3
1038.181	3103.3688	1526.5	644.75
1038.2886	3104.3667	1517.15	639.8
1038.3961	3105.364	1515.35	637.35
1038.5036	3106.3607	1508.9	627.45
1038.611	3107.3568	1498.25	618.95
1038.7184	3108.3522	1496.65	620.8
1038.8257	3109.347	1495.65	616.2
1038.933	3110.3412	1491.7	608.7
1039.0403	3111.3348	1489.1	610.8
1039.1475	3112.3277	1481.85	602.55
1039.2547	3113.32	1478.7	601.05
1039.3618	3114.3117	1477.35	597.5
1039.4689	3115.3028	1475.55	595
1039.5759	3116.2932	1475.3	595.35
1039.6829	3117.2831	1472.2	589.45
1039.7898	3118.2723	1465.2	587.25
1039.8967	3119.2608	1461.35	582.2
1040.0035	3120.2488	1457.8	580.45
1040.1103	3121.2361	1443.85	564.35
1040.2171	3122.2229	1443.2	564.55
1040.3238	3123.209	1448.2	569.05
1040.4305	3124.1944	1444.1	566.05
1040.5371	3125.1793	1442.9	564.5
1040.6437	3126.1635	1431.2	553.9
1040.7502	3127.1471	1435.35	554.95
1040.8567	3128.1301	1428.2	550.95
1040.9631	3129.1125	1432.8	554.8
1041.0695	3130.0942	1431.15	552.25
1041.1759	3131.0753	1434	545.95
1041.2822	3132.0558	1429.9	547.2
1041.3884	3133.0357	1416.8	535.5
1041.4946	3134.015	1414.15	534.1
1041.6008	3134.9936	1419.1	540.65
1041.7069	3135.9716	1430.75	531.1
1041.813	3136.949	1405.8	528.3
1041.919	3137.9258	1414.85	529.1
1042.025	3138.902	1403.5	518.4
1042.1309	3139.8775	1403.8	527.95
1042.2368	3140.8524	1394.5	515.25
1042.3427	3141.8267	1401.1	521.55
1042.4485	3142.8004	1399.95	520.8
1042.5542	3143.7735	1397.2	512.7
1042.6599	3144.7459	1393.35	512.35
1042.7656	3145.7178	1395.35	516.05
1042.8712	3146.689	1384.1	506.25
1042.9768	3147.6596	1383.95	503.5
1043.0823	3148.6295	1378.05	499.85
1043.1878	3149.5989	1372.5	495.25
1043.2932	3150.5676	1373	498.35
1043.3986	3151.5357	1370.55	493.55
1043.5039	3152.5032	1370.85	493.05
1043.6092	3153.4701	1368.7	491.05
1043.7145	3154.4364	1365.95	484.6
1043.8197	3155.402	1359.2	479.95
1043.9248	3156.367	1357.3	475.9
1044.03	3157.3315	1392.9	475.35
1044.135	3158.2952	1358.65	479.55
1044.24	3159.2584	1342.15	462.95
1044.345	3160.221	1345.7	466.05
1044.4499	3161.1829	1348.6	471.05
1044.5548	3162.1442	1339.75	460.9
1044.6596	3163.105	1336.2	458.75
1044.7644	3164.065	1336.05	455.5
1044.8692	3165.0245	1330.35	447.7
1044.9739	3165.9834	1324.75	447.4
1045.0785	3166.9416	1330.35	452.25
1045.1831	3167.8993	1328.4	448.95
1045.2877	3168.8563	1321.85	443.75
1045.3922	3169.8127	1324.1	445.75
1045.4966	3170.7684	1314.95	437.15
1045.6011	3171.7236	1314.35	434.1
1045.7054	3172.6782	1313.9	434.9
1045.8098	3173.6321	1311.3	431.7
1045.914	3174.5854	1311.95	429.15
1046.0183	3175.5381	1311.7	432.6
1046.1224	3176.4902	1304.05	425.55
1046.2266	3177.4417	1298.8	421.8
1046.3307	3178.3926	1301	421.8
1046.4347	3179.3428	1289.55	412.45
1046.5387	3180.2924	1288.7	410.5
1046.6427	3181.2415	1293.1	413.5
1046.7466	3182.1899	1288.9	409.9
1046.8504	3183.1377	1291.6	413.15
1046.9542	3184.0848	1290.55	409.35
1047.058	3185.0314	1280.5	401.7
1047.1617	3185.9773	1283.95	407.05
1047.2654	3186.9227	1286.7	408.1
1047.369	3187.8674	1274.25	397
1047.4726	3188.8115	1282	399.35
1047.5761	3189.755	1272.85	394.7
1047.6796	3190.6979	1269.85	391.85
1047.783	3191.6402	1271.45	392.4
1047.8864	3192.5818	1264.6	386.5
1047.9898	3193.5229	1280.8	384.6
1048.0931	3194.4633	1262.05	383.6
1048.1963	3195.4031	1263.85	384.5
1048.2995	3196.3423	1257.5	380.55
1048.4027	3197.2809	1255.1	374.8
1048.5058	3198.2189	1253.2	374.05
1048.6089	3199.1563	1274.25	378.6
1048.7119	3200.0931	1253.35	377.05
1048.8148	3201.0292	1253	375.8
1048.9178	3201.9648	1246.35	366.7
1049.0206	3202.8997	1250	368.9
1049.1235	3203.834	1244.8	366.5
1049.2262	3204.7677	1245	368.05
1049.329	3205.7008	1243.9	363.4
1049.4317	3206.6333	1235.8	359.85
1049.5343	3207.5652	1239.1	357.7
1049.6369	3208.4964	1232.65	354.6
1049.7394	3209.4271	1239.05	361.7
1049.8419	3210.3571	1232.75	352.35
1049.9444	3211.2865	1226.45	344.35
1050.0468	3212.2154	1231.25	353
1050.1491	3213.1436	1228.45	346.7
1050.2514	3214.0712	1231.25	346.65
1050.3537	3214.9982	1221.1	343.15
1050.4559	3215.9246	1219.65	339.2
1050.5581	3216.8503	1217.4	340.5
1050.6602	3217.7755	1219.05	340.25
1050.7623	3218.7001	1216.9	337.6
1050.8643	3219.624	1215.6	337.85
1050.9663	3220.5473	1208.3	329.55
1051.0682	3221.4701	1207.55	328.2
1051.1701	3222.3922	1213.75	332.4
1051.2719	3223.3137	1206.85	327.85
1051.3737	3224.2346	1206.6	326.4
1051.4754	3225.1549	1201.8	325.9
1051.5771	3226.0746	1200.7	323.35
1051.6788	3226.9937	1202.5	323.75
1051.7804	3227.9121	1190.5	313.6
1051.8819	3228.83	1192.95	316.4
1051.9834	3229.7473	1192.85	314.55
1052.0849	3230.6639	1190.45	312.7
1052.1863	3231.5799	1190.3	312.7
1052.2876	3232.4954	1196.7	319.05
1052.3889	3233.4102	1184.1	305.4
1052.4902	3234.3244	1189.3	308.85
1052.5914	3235.238	1184.1	306.25
1052.6926	3236.151	1206.05	304.1
1052.7937	3237.0634	1176.3	300.3
1052.8948	3237.9752	1176.2	298.15
1052.9958	3238.8864	1176.95	298.9
1053.0968	3239.797	1171.3	292.75
1053.1977	3240.7069	1175.85	296.4
1053.2986	3241.6163	1171.7	290.9
1053.3994	3242.5251	1171	292.95
1053.5002	3243.4332	1166	288.95
1053.6009	3244.3408	1165.55	285.85
1053.7016	3245.2477	1165.55	286.6
1053.8022	3246.154	1166	288.25
1053.9028	3247.0598	1155.2	277.5
1054.0034	3247.9649	1155.5	279.15
1054.1039	3248.8694	1160.05	281.75
1054.2043	3249.7733	1155.15	276.95
1054.3047	3250.6766	1156.2	277.25
1054.4051	3251.5793	1149.75	271.4
1054.5054	3252.4814	1148.8	270.55
1054.6056	3253.3829	1147.4	269.3
1054.7058	3254.2838	1145	265.8
1054.806	3255.1841	1142.15	262.3
1054.9061	3256.0838	1145.65	267.3
1055.0061	3256.9829	1141.75	264.25
1055.1062	3257.8814	1139.75	259.7
1055.2061	3258.7792	1137.75	259.05
1055.306	3259.6765	1132.75	252.9
1055.4059	3260.5731	1132.45	255.75
1055.5057	3261.4692	1129.75	250
1055.6055	3262.3647	1120.5	241.6
1055.7052	3263.2595	1121.95	245.05
1055.8049	3264.1538	1113.35	234.1
1055.9045	3265.0474	1115.7	235.7
1056.0041	3265.9404	1110.55	233.15
1056.1036	3266.8329	1103.45	224.25
1056.2031	3267.7247	1113.95	227.55
1056.3025	3268.616	1104	226.95
1056.4019	3269.5066	1090.3	212.45
1056.5013	3270.3966	1089.95	209.5
1056.6005	3271.286	1086.95	209.95
