Software Version:	3.9.2.0
Unit SN:	10000200
Spectrometer SN:	6960
Date:	3/6/2024 10:22:46 AM
Data Line Index:	25
Spectral Points:	2048
Integration time (ms):	125
Averages:	20
Delay (ms):	30
Sequence Number:	1
Processing:	dark subtract
Laser Power (mW):	300
Laser Current (mA):	824
Laser Diode Temp (C):	25.1
Laser Case Temp (C):	25.6
System Temp (C):	25.4
Spectrometer Temp (C):	22.8
CCD Temp (C):	0.001
Secondary Temp (C):	20.006
Heatsink Temp (C):	20.88
CCDPCB Temp (C):	35.051
SecondaryPCB Temp (C):	27.014

Wavelength	RamanShift	Raw Counts	Dark Subtracted
787.061	30.1047	1048.9	639.25
787.2016	32.3739	1074.5	665
787.3422	34.6426	1119.25	709.95
787.4828	36.9109	1165.1	753.4
787.6235	39.1787	1217.75	802.45
787.7642	41.4461	1265.05	844.45
787.9049	43.7131	1322	898.45
788.0456	45.9796	1381.4	954.5
788.1863	48.2456	1443.35	1012.55
788.3271	50.5112	1508.95	1075
788.4679	52.7764	1567.35	1129.25
788.6087	55.0411	1642.1	1200.3
788.7496	57.3054	1714.4	1268.05
788.8904	59.5692	1791.55	1344.8
789.0313	61.8326	1882.35	1432
789.1722	64.0955	1977.25	1521.75
789.3132	66.3579	2078.25	1619.45
789.4541	68.6199	2222.7	1760.8
789.5951	70.8815	2435.85	1970.15
789.7361	73.1426	2941.85	2469.25
789.8771	75.4032	4221.45	3747.15
790.0181	77.6634	7457.15	6974.95
790.1592	79.9231	15979	15493.85
790.3003	82.1824	49894.1	49395.55
790.4414	84.4412	65535	65016.2
790.5825	86.6995	65535	64995.4
790.7237	88.9574	65535	64968.15
790.8648	91.2148	65535	64947.7
791.006	93.4717	65535	64940.35
791.1472	95.7282	65535	64934.3
791.2885	97.9842	65535	64929.65
791.4297	100.2398	65535	64927.95
791.571	102.4949	65535	64925.25
791.7123	104.7495	65535	64922.65
791.8536	107.0036	65535	64922.35
791.9949	109.2573	65535	64922.6
792.1363	111.5105	65535	64923.05
792.2777	113.7632	65535	64921
792.4191	116.0154	65535	64907.25
792.5605	118.2672	65535	64912.35
792.7019	120.5185	65535	64911.05
792.8434	122.7693	65535	64906.45
792.9849	125.0197	65535	64901.7
793.1264	127.2696	65535	64902.25
793.2679	129.519	65535	64898.2
793.4094	131.7679	65535	64896.4
793.551	134.0163	65535	64892.15
793.6926	136.2642	65535	64889.4
793.8342	138.5117	65535	64882.85
793.9758	140.7587	65535	64884.75
794.1175	143.0052	65535	64885.65
794.2591	145.2512	65535	64881.25
794.4008	147.4967	65535	64881.3
794.5425	149.7417	65535	64878.05
794.6842	151.9863	65535	64874.3
794.826	154.2304	65535	64871.45
794.9677	156.4739	65535	64864.8
795.1095	158.717	65535	64866.55
795.2513	160.9596	65535	64865.55
795.3931	163.2017	65535	64859.8
795.535	165.4433	65535	64858.7
795.6768	167.6844	65535	64856.75
795.8187	169.925	65535	64853.95
795.9606	172.1651	65535	64850.6
796.1025	174.4047	65535	64847.05
796.2445	176.6439	65535	64850.95
796.3864	178.8825	65535	64844.95
796.5284	181.1206	65535	64839.85
796.6704	183.3582	65535	64836.6
796.8124	185.5954	65535	64833.15
796.9544	187.832	65535	64827.9
797.0965	190.0681	65535	64826.6
797.2386	192.3037	65535	64824.65
797.3806	194.5388	65535	64824.1
797.5228	196.7734	65535	64820.3
797.6649	199.0075	65535	64820.4
797.807	201.2411	65535	64818.3
797.9492	203.4742	65535	64816.5
798.0914	205.7068	65535	64812.75
798.2336	207.9389	65535	64810.65
798.3758	210.1704	65535	64813.35
798.518	212.4015	65535	64819.7
798.6603	214.632	65535	64832.2
798.8025	216.862	65535	64836.9
798.9448	219.0915	65535	64831.15
799.0871	221.3205	65535	64824.35
799.2294	223.549	65535	64832
799.3718	225.777	65535	64831.9
799.5141	228.0044	65535	64827.85
799.6565	230.2314	65535	64824.85
799.7989	232.4578	65535	64822.35
799.9413	234.6837	65535	64813.4
800.0837	236.909	65535	64812.35
800.2262	239.1339	65535	64785.9
800.3687	241.3582	65535	64800.1
800.5111	243.582	65535	64768.7
800.6536	245.8053	65535	64784.1
800.7961	248.0281	65535	64787.2
800.9387	250.2503	65535	64785.3
801.0812	252.472	65535	64780.9
801.2238	254.6932	65535	64780.8
801.3664	256.9139	65535	64780
801.509	259.134	65535	64776.25
801.6516	261.3536	65535	64779.45
801.7942	263.5727	65535	64782
801.9369	265.7912	65535	64779.65
802.0795	268.0092	65535	64772.55
802.2222	270.2267	65535	64774.45
802.3649	272.4436	65535	64777.95
802.5076	274.6601	65535	64764
802.6504	276.8759	65535	64766.9
802.7931	279.0913	65535	64769.4
802.9359	281.3061	65535	64769.6
803.0787	283.5204	65535	64766.5
803.2215	285.7341	65535	64764.1
803.3643	287.9473	65535	64748.9
803.5071	290.16	65535	64760.2
803.6499	292.3721	65535	64764.55
803.7928	294.5837	65535	64763.2
803.9357	296.7947	65535	64766.8
804.0786	299.0052	65535	64761.25
804.2215	301.2152	65535	64758.55
804.3644	303.4246	65535	64761.55
804.5074	305.6334	65535	64760.6
804.6503	307.8418	65535	64757.1
804.7933	310.0495	65535	64756.3
804.9363	312.2568	65535	64756.05
805.0793	314.4635	65535	64756.6
805.2223	316.6696	65535	64752.8
805.3653	318.8752	65535	64744.3
805.5084	321.0802	65535	64753.85
805.6514	323.2847	65535	64750.85
805.7945	325.4887	65535	64751.5
805.9376	327.692	65535	64748.55
806.0807	329.8949	65535	64749.6
806.2238	332.0972	65535	64744.9
806.367	334.2989	65535	64743.35
806.5101	336.5001	65535	64745.15
806.6533	338.7007	65535	64739.2
806.7965	340.9008	65535	64743.75
806.9397	343.1003	65535	64740.4
807.0829	345.2992	65535	64740.5
807.2261	347.4976	65535	64738.2
807.3693	349.6955	65535	64733.3
807.5126	351.8927	65535	64730
807.6559	354.0895	65535	64720.25
807.7991	356.2856	65535	64731.15
807.9424	358.4812	65535	64729.55
808.0857	360.6763	65535	64726.4
808.2291	362.8707	65535	64729.9
808.3724	365.0646	65535	64723.95
808.5158	367.258	65535	64722.05
808.6591	369.4508	65535	64719.4
808.8025	371.643	65535	64716.75
808.9459	373.8346	65535	64714.25
809.0893	376.0257	65535	64713.1
809.2327	378.2162	65535	64714.95
809.3762	380.4062	65535	64712
809.5196	382.5956	65535	64711
809.6631	384.7844	65535	64715.55
809.8066	386.9726	65535	64718.3
809.9501	389.1603	65535	64719.95
810.0936	391.3474	65535	64682.05
810.2371	393.5339	65535	64720.55
810.3806	395.7199	65535	64722.6
810.5241	397.9052	65535	64726.4
810.6677	400.09	65535	64722.9
810.8113	402.2743	65535	64722.4
810.9548	404.4579	65535	64721
811.0984	406.641	65535	64717.85
811.2421	408.8235	65535	64716.6
811.3857	411.0054	65535	64717.55
811.5293	413.1868	65535	64712.3
811.673	415.3675	65535	64707.75
811.8166	417.5477	65535	64711.5
811.9603	419.7273	65535	64705.25
812.104	421.9064	65535	64699.2
812.2477	424.0848	65535	64700.35
812.3914	426.2627	65535	64701.05
812.5351	428.4399	65535	64702.15
812.6788	430.6166	65535	64699.1
812.8226	432.7928	65535	64699.75
812.9663	434.9683	65535	64699
813.1101	437.1432	65535	64697
813.2539	439.3176	65535	64693.3
813.3977	441.4914	65535	64697.75
813.5415	443.6645	65535	64697
813.6853	445.8371	65535	64694.85
813.8291	448.0091	65535	64696.95
813.973	450.1806	65535	64692.85
814.1168	452.3514	65535	64695.8
814.2607	454.5216	65535	64682.1
814.4046	456.6913	65535	64695.2
814.5485	458.8603	65535	64692.8
814.6924	461.0288	65535	64694.2
814.8363	463.1967	65535	64695.6
814.9802	465.3639	65535	64690.65
815.1241	467.5306	65535	64688.85
815.2681	469.6967	65535	64691.9
815.412	471.8622	65535	64691.2
815.556	474.0271	65535	64694.85
815.7	476.1914	65535	64686.6
815.844	478.3551	65535	64690.15
815.988	480.5182	65535	64687.25
816.132	482.6807	65535	64691.65
816.276	484.8426	65535	64693.3
816.4201	487.0039	65535	64690.15
816.5641	489.1647	65535	64687.75
816.7082	491.3248	65535	64687.6
816.8522	493.4843	65535	64685.55
816.9963	495.6432	65535	64684.7
817.1404	497.8015	65535	64681.55
817.2845	499.9592	65535	64683.3
817.4286	502.1163	65535	64686.65
817.5727	504.2728	65535	64680.8
817.7168	506.4287	65535	64682.25
817.861	508.5839	65535	64680.65
818.0051	510.7386	65535	64685.7
818.1493	512.8927	65535	64680.2
818.2935	515.0461	65535	64682.8
818.4377	517.199	65535	64682
818.5818	519.3512	65535	64681.75
818.726	521.5029	65535	64675.05
818.8703	523.6539	65535	64678.8
819.0145	525.8043	65535	64677.05
819.1587	527.9541	65535	64675.2
819.303	530.1033	65535	64676.05
819.4472	532.2519	65535	64679.15
819.5915	534.3999	65535	64675.5
819.7357	536.5472	65535	64674.35
819.88	538.694	65535	64675.75
820.0243	540.8401	65535	64675.95
820.1686	542.9856	65535	64674.15
820.3129	545.1305	65535	64669.6
820.4572	547.2748	65535	64673.65
820.6016	549.4185	65535	64670.2
820.7459	551.5615	65535	64673.55
820.8902	553.704	65535	64675.2
821.0346	555.8458	65535	64675.25
821.1789	557.987	65535	64673.95
821.3233	560.1276	65535	64672.8
821.4677	562.2675	65535	64674.65
821.6121	564.4069	65535	64672.6
821.7565	566.5456	65535	64673.7
821.9009	568.6837	65535	64672.85
822.0453	570.8212	65535	64672.1
822.1897	572.958	65535	64669.8
822.3342	575.0942	65535	64672.15
822.4786	577.2299	65535	64671.35
822.6231	579.3648	65535	64672.55
822.7675	581.4992	65535	64671
822.912	583.6329	65535	64671.25
823.0565	585.766	65535	64669.7
823.201	587.8985	65535	64672.2
823.3454	590.0304	65535	64643.3
823.4899	592.1616	65535	64664.5
823.6345	594.2922	65535	64664.4
823.779	596.4222	65535	64664.25
823.9235	598.5515	65535	64664.4
824.068	600.6802	65535	64665.3
824.2126	602.8083	65535	64665.5
824.3571	604.9358	65535	64662.3
824.5017	607.0626	65535	64666.05
824.6462	609.1888	65535	64665.8
824.7908	611.3144	65535	64661.8
824.9354	613.4393	65535	64662.85
825.08	615.5636	65535	64664.75
825.2246	617.6873	65535	64663.1
825.3692	619.8103	65535	64660.25
825.5138	621.9327	65535	64661.6
825.6584	624.0544	65535	64662.7
825.803	626.1756	65535	64663.55
825.9477	628.2961	65535	64662.5
826.0923	630.4159	65535	64661.95
826.237	632.5351	65535	64660.35
826.3816	634.6537	65535	64660.95
826.5263	636.7716	65535	64656.85
826.6709	638.8889	65535	64659.55
826.8156	641.0056	65535	64658.8
826.9603	643.1216	65535	64658.8
827.105	645.237	65535	64656.3
827.2497	647.3518	65535	64659.8
827.3944	649.4659	65535	64660
827.5391	651.5793	65535	64660.8
827.6838	653.6922	65535	64658.15
827.8285	655.8043	65535	64661.35
827.9733	657.9159	65535	64655.65
828.118	660.0268	65535	64657.4
828.2627	662.137	65535	64657.4
828.4075	664.2466	65535	64659.25
828.5522	666.3556	65535	64658.8
828.697	668.4639	65535	64652.8
828.8418	670.5716	65535	64658
828.9865	672.6786	65535	64656.6
829.1313	674.785	65535	64650.15
829.2761	676.8907	65535	64654.6
829.4209	678.9958	65535	64658.45
829.5657	681.1002	65535	64651.45
829.7105	683.204	65535	64649.5
829.8553	685.3072	65535	64653.2
830.0001	687.4097	65535	64652.65
830.1449	689.5115	65535	64650.05
830.2898	691.6127	65535	64652.45
830.4346	693.7132	65535	64650.85
830.5794	695.8131	65535	64643.2
830.7243	697.9123	65535	64651.55
830.8691	700.0109	65535	64651.8
831.014	702.1089	65535	64655.2
831.1588	704.2061	65535	64649.3
831.3037	706.3028	65535	64650.8
831.4486	708.3987	65535	64649.45
831.5935	710.4941	65535	64651.95
831.7383	712.5887	65535	64652.05
831.8832	714.6827	65535	64648.15
832.0281	716.7761	65535	64652.65
832.173	718.8688	65535	64647.95
832.3179	720.9608	65535	64646.95
832.4628	723.0522	65535	64645.8
832.6077	725.1429	65535	64650.5
832.7527	727.233	65535	64647.95
832.8976	729.3224	65535	64645.5
833.0425	731.4112	65535	64648.2
833.1874	733.4993	65535	64648
833.3324	735.5867	65535	64646.6
833.4773	737.6735	65535	64646.15
833.6222	739.7596	65535	64644.95
833.7672	741.845	65535	64645.8
833.9122	743.9298	65535	64641.6
834.0571	746.014	65535	64648.75
834.2021	748.0974	65535	64646.5
834.347	750.1802	65535	64644.9
834.492	752.2624	65535	64646.1
834.637	754.3439	65535	64645.9
834.782	756.4247	65535	64637.5
834.9269	758.5048	65535	64646.6
835.0719	760.5843	65535	64644.8
835.2169	762.6631	65535	64642.8
835.3619	764.7413	65535	64645.85
835.5069	766.8188	65535	64643.9
835.6519	768.8956	65535	64643.25
835.7969	770.9718	65535	64645.05
835.9419	773.0473	65535	64643.8
836.0869	775.1221	65535	64645.55
836.232	777.1962	65535	64643.3
836.377	779.2697	65535	64642.9
836.522	781.3426	65535	64625.95
836.667	783.4147	65535	64644.3
836.8121	785.4862	65535	64648.15
836.9571	787.557	65535	64643.7
837.1021	789.6271	65535	64643.45
837.2472	791.6966	65535	64643.95
837.3922	793.7654	65535	64644.6
837.5373	795.8335	65535	64644
837.6823	797.901	65535	64643.9
837.8274	799.9678	65535	64643.05
837.9724	802.0339	65535	64647.1
838.1175	804.0993	65535	64634.25
838.2626	806.1641	65535	64644.15
838.4076	808.2282	65535	64643.6
838.5527	810.2916	65535	64643.6
838.6978	812.3544	65535	64645.15
838.8428	814.4164	65535	64645.3
838.9879	816.4778	65535	64640.05
839.133	818.5385	65535	64639.9
839.2781	820.5986	65535	64642.95
839.4232	822.658	65535	64639.6
839.5682	824.7166	65535	64643.2
839.7133	826.7747	65535	64644.2
839.8584	828.832	65535	64643.7
840.0035	830.8886	65535	64642.5
840.1486	832.9446	65535	64641
840.2937	834.9999	65535	64641.9
840.4388	837.0545	65535	64638.1
840.5839	839.1085	65535	64643.1
840.729	841.1618	65535	64638.9
840.8741	843.2143	65535	64641.5
841.0192	845.2662	65535	64642.7
841.1643	847.3175	65535	64642.9
841.3095	849.368	65535	64642.35
841.4546	851.4179	65535	64642.3
841.5997	853.467	65535	64644.9
841.7448	855.5155	65535	64639.25
841.8899	857.5633	65535	64641.4
842.0351	859.6105	65535	64641.7
842.1802	861.6569	65535	64640.9
842.3253	863.7027	65535	64641.3
842.4704	865.7478	65535	64639.95
842.6156	867.7922	65535	64640.8
842.7607	869.8359	65535	64640.6
842.9058	871.8789	65535	64638.4
843.0509	873.9212	65535	64611.75
843.1961	875.9629	65535	64637.65
843.3412	878.0039	65535	64639.7
843.4863	880.0441	65535	64644.35
843.6315	882.0837	65535	64637.9
843.7766	884.1226	65535	64640.6
843.9218	886.1609	65535	64640.65
844.0669	888.1984	65535	64641.3
844.212	890.2352	65535	64640.95
844.3572	892.2714	65535	64636.7
844.5023	894.3069	65535	64638.7
844.6475	896.3416	65535	64638.9
844.7926	898.3757	65535	64638
844.9377	900.4091	65535	64636.95
845.0829	902.4418	65535	64636.25
845.228	904.4739	65535	64638.6
845.3732	906.5052	65535	64638.6
845.5183	908.5358	65535	64641.05
845.6635	910.5658	65535	64638.45
845.8086	912.595	65535	64638.25
845.9538	914.6236	65535	64639
846.0989	916.6515	65535	64639.2
846.2441	918.6786	65535	64637.95
846.3892	920.7051	65535	64635.85
846.5344	922.7309	65535	64637.7
846.6795	924.756	65535	64636.65
846.8246	926.7804	65535	64634.8
846.9698	928.8041	65535	64634.6
847.1149	930.8272	65535	64637.45
847.2601	932.8495	65535	64638.6
847.4052	934.8711	65535	64635.55
847.5504	936.892	65535	64636.7
847.6955	938.9123	65535	64637.4
847.8407	940.9318	65535	64639.35
847.9858	942.9506	65535	64636.45
848.131	944.9688	65535	64638.2
848.2761	946.9862	65535	64636.15
848.4213	949.003	65535	64638.55
848.5664	951.019	65535	64641.15
848.7115	953.0344	65535	64638.45
848.8567	955.0491	65535	64640.3
849.0018	957.063	65535	64637
849.147	959.0763	65535	64638.6
849.2921	961.0888	65535	64637.8
849.4373	963.1007	65535	64637.25
849.5824	965.1119	65535	64638.1
849.7275	967.1223	65535	64639.3
849.8727	969.1321	65535	64639.45
850.0178	971.1412	65535	64639.95
850.1629	973.1495	65535	64637.65
850.3081	975.1572	65535	64608.75
850.4532	977.1641	65535	64637.4
850.5983	979.1704	65535	64638.6
850.7435	981.1759	65535	64634.4
850.8886	983.1808	65535	64635.85
851.0337	985.1849	65535	64626.7
851.1788	987.1884	65535	64634.9
851.324	989.1911	65535	64633.85
851.4691	991.1932	65535	64637.4
851.6142	993.1945	65535	64638.7
851.7593	995.1951	65535	64638.05
851.9045	997.1951	65535	64630.1
852.0496	999.1943	65535	64637
852.1947	1001.1928	65535	64635.9
852.3398	1003.1906	65535	64636.2
852.4849	1005.1877	65535	64636.3
852.63	1007.1841	65535	64638
852.7751	1009.1798	65535	64639.1
852.9202	1011.1748	65535	64635.5
853.0653	1013.1691	65535	64636.75
853.2104	1015.1627	65535	64637.3
853.3555	1017.1556	65535	64636.3
853.5006	1019.1477	65535	64636.05
853.6457	1021.1392	65535	64641.15
853.7908	1023.1299	65535	64638.15
853.9359	1025.12	65535	64636.1
854.081	1027.1093	65535	64641.75
854.2261	1029.0979	65535	64641.7
854.3712	1031.0859	65535	64638.55
854.5163	1033.0731	65535	64638.6
854.6613	1035.0596	65535	64638.1
854.8064	1037.0454	65535	64638
854.9515	1039.0304	65535	64634.95
855.0965	1041.0148	65535	64637.6
855.2416	1042.9985	65535	64637.9
855.3867	1044.9814	65535	64640.5
855.5317	1046.9636	65535	64636.95
855.6768	1048.9452	65535	64636.95
855.8219	1050.926	65535	64639
855.9669	1052.9061	65535	64638.95
856.112	1054.8855	65535	64636.7
856.257	1056.8642	65535	64636.7
856.4021	1058.8421	65535	64631.75
856.5471	1060.8194	65535	64637.8
856.6921	1062.7959	65535	64638.85
856.8372	1064.7717	65535	64636.7
856.9822	1066.7469	65535	64637.6
857.1272	1068.7213	65535	64635.15
857.2723	1070.695	65535	64637.95
857.4173	1072.6679	65535	64638.6
857.5623	1074.6402	65535	64637.5
857.7073	1076.6117	65535	64632.2
857.8523	1078.5826	65535	64639.25
857.9973	1080.5527	65535	64636.6
858.1423	1082.5221	65535	64637.1
858.2873	1084.4908	65535	64638.2
858.4323	1086.4587	65535	64634.65
858.5773	1088.426	65535	64635.65
858.7223	1090.3925	65535	64631.8
858.8673	1092.3584	65535	64638.2
859.0123	1094.3235	65535	64637.4
859.1573	1096.2879	65535	64637.8
859.3022	1098.2515	65535	64636.75
859.4472	1100.2145	65535	64638.7
859.5922	1102.1767	65535	64635.85
859.7371	1104.1382	65535	64635.75
859.8821	1106.099	65535	64635.25
860.027	1108.0591	65535	64638.05
860.172	1110.0185	65535	64637.3
860.3169	1111.9771	65535	64638
860.4619	1113.9351	65535	64637.85
860.6068	1115.8923	65535	64635.35
860.7517	1117.8488	65535	64635.15
860.8967	1119.8045	65535	64637.35
861.0416	1121.7596	65535	64637.4
861.1865	1123.7139	65535	64638.65
861.3314	1125.6675	65535	64637.25
861.4763	1127.6204	65535	64638.9
861.6212	1129.5726	65535	64636.95
861.7661	1131.524	65535	64637.3
861.911	1133.4748	65535	64636.85
862.0559	1135.4248	65535	64634.1
862.2008	1137.3741	65535	64635.5
862.3457	1139.3226	65535	64634.25
862.4905	1141.2705	65535	64634.5
862.6354	1143.2176	65535	64630.45
862.7803	1145.164	65535	64635.9
862.9251	1147.1097	65535	64639.4
863.07	1149.0546	65535	64639.5
863.2148	1150.9989	65535	64636.75
863.3597	1152.9424	65535	64639
863.5045	1154.8852	65535	64636.3
863.6493	1156.8272	65535	64640.25
863.7942	1158.7686	65535	64630.45
863.939	1160.7092	65535	64634.35
864.0838	1162.6491	65535	64637.65
864.2286	1164.5883	65535	64639.45
864.3734	1166.5267	65535	64637.95
864.5182	1168.4644	65535	64638.05
864.663	1170.4014	65535	64633.75
864.8078	1172.3377	65535	64637.8
864.9526	1174.2732	65535	64638.9
865.0974	1176.2081	65535	64634.85
865.2421	1178.1421	65535	64632.6
865.3869	1180.0755	65535	64637.95
865.5317	1182.0082	65535	64635.85
865.6764	1183.9401	65535	64639.15
865.8212	1185.8713	65535	64638.55
865.9659	1187.8017	65535	64638.35
866.1106	1189.7315	65535	64640.9
866.2554	1191.6605	65535	64609
866.4001	1193.5888	65535	64639.45
866.5448	1195.5163	65535	64638.3
866.6895	1197.4432	65535	64637.35
866.8342	1199.3693	65535	64637.8
866.9789	1201.2947	65535	64635.9
867.1236	1203.2193	65535	64637.05
867.2683	1205.1432	65535	64639.2
867.413	1207.0664	65535	64637.65
867.5576	1208.9889	65535	64634.85
867.7023	1210.9106	65535	64638.55
867.847	1212.8316	65535	64638.4
867.9916	1214.7519	65535	64626.7
868.1363	1216.6715	65535	64638.55
868.2809	1218.5903	65535	64639.4
868.4255	1220.5084	65535	64637.95
868.5701	1222.4257	65535	64636.3
868.7148	1224.3424	65535	64639.05
868.8594	1226.2583	65535	64631.3
869.004	1228.1735	65535	64636.75
869.1486	1230.0879	65535	64636.3
869.2932	1232.0016	65535	64636.6
869.4377	1233.9146	65535	64637.3
869.5823	1235.8269	65535	64639.25
869.7269	1237.7384	65535	64637.7
869.8715	1239.6492	65535	64636.95
870.016	1241.5592	65535	64636
870.1606	1243.4686	65535	64636.15
870.3051	1245.3772	65535	64638.2
870.4496	1247.285	65535	64639
870.5941	1249.1922	65535	64640.05
870.7387	1251.0986	65535	64639.6
870.8832	1253.0042	65535	64637.25
871.0277	1254.9092	65535	64638.25
871.1722	1256.8134	65535	64640.9
871.3167	1258.7169	65535	64636.1
871.4611	1260.6196	65535	64640.3
871.6056	1262.5216	65535	64635.65
871.7501	1264.4229	65535	64639.95
871.8945	1266.3234	65535	64637.1
872.039	1268.2232	65535	64638.2
872.1834	1270.1223	65535	64638.55
872.3278	1272.0207	65535	64638.65
872.4723	1273.9183	65535	64631.75
872.6167	1275.8151	65535	64637.65
872.7611	1277.7113	65535	64638.65
872.9055	1279.6067	65535	64638.2
873.0499	1281.5014	65535	64637.7
873.1943	1283.3953	65535	64637.95
873.3386	1285.2885	65535	64638.65
873.483	1287.181	65535	64638.95
873.6274	1289.0727	65535	64638.65
873.7717	1290.9637	65535	64637.55
873.9161	1292.854	65535	64637.15
874.0604	1294.7435	65535	64634.85
874.2047	1296.6323	65535	64638.3
874.349	1298.5204	65535	64634.4
874.4933	1300.4077	65535	64635.7
874.6376	1302.2943	65535	64637.2
874.7819	1304.1802	65535	64638.8
874.9262	1306.0653	65535	64635.75
875.0705	1307.9497	65535	64637.45
875.2147	1309.8333	65535	64638.75
875.359	1311.7162	65535	64639.55
875.5032	1313.5984	65535	64637.1
875.6475	1315.4798	65535	64638.25
875.7917	1317.3605	65535	64623.55
875.9359	1319.2405	65535	64636.9
876.0801	1321.1197	65535	64637.6
876.2243	1322.9982	65535	64633.05
876.3685	1324.876	65535	64637.3
876.5127	1326.753	65535	64639.45
876.6569	1328.6293	65535	64637.85
876.801	1330.5048	65535	64633.45
876.9452	1332.3796	65535	64639.8
877.0893	1334.2537	65535	64613.5
877.2335	1336.127	65535	64636.55
877.3776	1337.9996	65535	64639.85
877.5217	1339.8714	65535	64637.2
877.6658	1341.7426	65535	64595.1
877.8099	1343.6129	65535	64637.35
877.954	1345.4826	65535	64640.35
878.0981	1347.3515	65535	64634.85
878.2422	1349.2196	65535	64637.15
878.3862	1351.087	65535	64637.65
878.5303	1352.9537	65535	64637.7
878.6743	1354.8197	65535	64638.5
878.8184	1356.6849	65535	64637.1
878.9624	1358.5493	65535	64637.1
879.1064	1360.4131	65535	64637.15
879.2504	1362.276	65535	64639.25
879.3944	1364.1383	65535	64636.75
879.5384	1365.9998	65535	64632.85
879.6823	1367.8606	65535	64637.95
879.8263	1369.7206	65535	64637.9
879.9702	1371.5799	65535	64635.6
880.1142	1373.4384	65535	64637.95
880.2581	1375.2962	65535	64635.65
880.402	1377.1533	65535	64638.65
880.5459	1379.0096	65535	64636.95
880.6898	1380.8652	65535	64639.65
880.8337	1382.7201	65535	64638.2
880.9776	1384.5742	65535	64636.3
881.1215	1386.4275	65535	64637.25
881.2653	1388.2802	65535	64641.15
881.4092	1390.132	65535	64639.15
881.553	1391.9832	65535	64636.15
881.6968	1393.8336	65535	64636.5
881.8406	1395.6832	65535	64637.35
881.9844	1397.5322	65535	64640.65
882.1282	1399.3803	65535	64634.1
882.272	1401.2278	65535	64638.5
882.4158	1403.0745	65535	64638
882.5595	1404.9204	65535	64639.85
882.7033	1406.7656	65535	64637.85
882.847	1408.6101	65535	64637.3
882.9908	1410.4538	65535	64636.65
883.1345	1412.2968	65535	64638.1
883.2782	1414.139	65535	64639.8
883.4219	1415.9805	65535	64640.15
883.5656	1417.8213	65535	64632.85
883.7092	1419.6613	65535	64639.8
883.8529	1421.5006	65535	64638.7
883.9965	1423.3391	65535	64638.25
884.1402	1425.1769	65535	64638.65
884.2838	1427.0139	65535	64639.75
884.4274	1428.8502	65535	64637.8
884.571	1430.6858	65535	64637.4
884.7146	1432.5206	65535	64637.75
884.8582	1434.3547	65535	64636.85
885.0018	1436.188	65535	64638.55
885.1453	1438.0206	65535	64638.05
885.2889	1439.8524	65535	64638.9
885.4324	1441.6835	65535	64637.5
885.5759	1443.5139	65535	64633.6
885.7194	1445.3435	65535	64636.55
885.8629	1447.1724	65535	64638
886.0064	1449.0005	65535	64639
886.1499	1450.8279	65535	64638.3
886.2933	1452.6545	65535	64639.85
886.4368	1454.4804	65535	64640.8
886.5802	1456.3056	65535	64630.6
886.7237	1458.13	65535	64639.15
886.8671	1459.9536	65535	64636.9
887.0105	1461.7766	65535	64641.4
887.1539	1463.5987	65535	64638.1
887.2972	1465.4202	65535	64637.95
887.4406	1467.2409	65535	64639.6
887.584	1469.0608	65535	64637.45
887.7273	1470.88	65535	64639.8
887.8706	1472.6984	65535	64638.5
888.0139	1474.5161	65535	64636.45
888.1572	1476.3331	65535	64639.75
888.3005	1478.1493	65535	64637.25
888.4438	1479.9648	65535	64641.1
888.5871	1481.7795	65535	64639.6
888.7303	1483.5935	65535	64636.35
888.8736	1485.4067	65535	64638.05
889.0168	1487.2192	65535	64637.55
889.16	1489.031	65535	64637.2
889.3032	1490.842	65535	64638.75
889.4464	1492.6522	65535	64638.75
889.5896	1494.4618	65535	64638.5
889.7327	1496.2705	65535	64640.55
889.8759	1498.0785	65535	64640.4
890.019	1499.8858	65535	64639.4
890.1622	1501.6924	65535	64639.85
890.3053	1503.4981	65535	64638.75
890.4484	1505.3032	65535	64638.65
890.5914	1507.1075	65535	64639.85
890.7345	1508.911	65535	64640.7
890.8776	1510.7138	65535	64638
891.0206	1512.5159	65535	64638.65
891.1637	1514.3172	65535	64637.8
891.3067	1516.1178	65535	64640.6
891.4497	1517.9176	65535	64638.7
891.5927	1519.7166	65535	64639.3
891.7357	1521.515	65535	64634.3
891.8786	1523.3126	65535	64640.4
892.0216	1525.1094	65535	64638.45
892.1645	1526.9055	65535	64640.7
892.3074	1528.7008	65535	64639.35
892.4503	1530.4954	65535	64639.3
892.5932	1532.2893	65535	64641.85
892.7361	1534.0824	65535	64635
892.879	1535.8747	65535	64641.6
893.0218	1537.6663	65535	64639.7
893.1647	1539.4572	65535	64638.7
893.3075	1541.2473	65535	64640.4
893.4503	1543.0367	65535	64641.8
893.5931	1544.8253	65535	64637.9
893.7359	1546.6132	65535	64637.5
893.8787	1548.4003	65535	64628.95
894.0214	1550.1867	65535	64631.85
894.1642	1551.9723	65535	64632.95
894.3069	1553.7572	65535	64637.4
894.4496	1555.5414	65535	64641.55
894.5923	1557.3247	65535	64639.2
894.735	1559.1074	65535	64643.3
894.8777	1560.8893	65535	64641.75
895.0204	1562.6705	65535	64642.3
895.163	1564.4509	65535	64641
895.3056	1566.2305	65535	64641.75
895.4482	1568.0094	65535	64642.9
895.5908	1569.7876	65535	64640.9
895.7334	1571.565	65535	64640.3
895.876	1573.3417	65535	64641.05
896.0186	1575.1176	65535	64639.55
896.1611	1576.8928	65535	64641.9
896.3036	1578.6672	65535	64642.65
896.4461	1580.4409	65535	64643.65
896.5886	1582.2138	65535	64641.65
896.7311	1583.986	65535	64641.7
896.8736	1585.7575	65535	64642.25
897.0161	1587.5282	65535	64641.45
897.1585	1589.2981	65535	64643.1
897.3009	1591.0673	65535	64642.45
897.4433	1592.8358	65533.15	64639.8
897.5857	1594.6035	65535	64641.05
897.7281	1596.3704	65535	64641.05
897.8705	1598.1366	65528.7	64636
898.0128	1599.9021	65526.45	64635.05
898.1551	1601.6668	65535	64639.2
898.2975	1603.4308	65532.45	64637.15
898.4398	1605.194	65530.3	64631.7
898.5821	1606.9564	65518.15	64624.6
898.7243	1608.7182	65527.25	64633.15
898.8666	1610.4791	65521.9	64629.35
899.0088	1612.2394	65531.55	64641.35
899.1511	1613.9988	65518.55	64626.15
899.2933	1615.7576	65528.45	64636.9
899.4355	1617.5156	65527.65	64628.9
899.5776	1619.2728	65535	64642.2
899.7198	1621.0293	65518.75	64626.65
899.862	1622.785	65518.1	64622.5
900.0041	1624.54	65525.75	64628.85
900.1462	1626.2942	65500.6	64607.75
900.2883	1628.0477	65449.55	64555.4
900.4304	1629.8005	65382.15	64486.7
900.5725	1631.5525	65474.8	64581.95
900.7145	1633.3037	65379.5	64486.5
900.8566	1635.0542	65361.75	64469.1
900.9986	1636.804	65421.5	64530.95
901.1406	1638.553	65302.6	64320.85
901.2826	1640.3013	65361.25	64469.3
901.4245	1642.0488	65288.15	64394.65
901.5665	1643.7955	65356.6	64466.35
901.7085	1645.5416	65313.55	64419.4
901.8504	1647.2868	65244.8	64354.5
901.9923	1649.0313	65362.15	64471.35
902.1342	1650.7751	65297.15	64402.85
902.2761	1652.5181	65229.75	64339.35
902.4179	1654.2604	65231.35	64339.15
902.5598	1656.0019	65253.85	64363.35
902.7016	1657.7427	65211.55	64321.5
902.8434	1659.4828	65291.8	64400.2
902.9852	1661.222	65198	64305.95
903.127	1662.9606	65301.3	64410.8
903.2687	1664.6984	65164.35	64271.6
903.4105	1666.4354	65224.05	64332.05
903.5522	1668.1717	65109.85	64217.75
903.6939	1669.9072	64970.9	64080.25
903.8356	1671.642	64966.6	64075.25
903.9773	1673.3761	64910.95	64019.5
904.119	1675.1094	64878.15	63986.65
904.2606	1676.8419	64732.05	63840.9
904.4022	1678.5737	64787.2	63896.8
904.5439	1680.3048	64721.15	63830.7
904.6855	1682.0351	64646.9	63756.65
904.827	1683.7646	64591.8	63698.3
904.9686	1685.4934	64654.15	63761.7
905.1101	1687.2215	64295.95	63405.2
905.2517	1688.9488	64572.3	63681.75
905.3932	1690.6754	64006.3	63115.35
905.5347	1692.4012	64324.55	63434.05
905.6761	1694.1263	64360.05	63469.3
905.8176	1695.8506	64086.8	63195.8
905.9591	1697.5742	64139.2	63250.05
906.1005	1699.297	64070.8	63179.7
906.2419	1701.0191	64120.65	63230.65
906.3833	1702.7404	63817.55	62927.6
906.5246	1704.461	63693.55	62800.5
906.666	1706.1808	63872.45	62980.85
906.8073	1707.8999	63762.15	62869.85
906.9487	1709.6182	63695.85	62807.55
907.09	1711.3358	63654.85	62762.9
907.2313	1713.0527	63621.45	62732.8
907.3725	1714.7688	63603.75	62707.15
907.5138	1716.4841	63198.3	62305.4
907.655	1718.1987	63355.1	62458.65
907.7962	1719.9126	63232.3	62340.65
907.9374	1721.6257	63339.6	62448.6
908.0786	1723.338	63347.25	62456.25
908.2198	1725.0496	62785.1	61893.85
908.3609	1726.7605	62865.75	61975.65
908.502	1728.4706	62688.65	61797.7
908.6431	1730.18	62909.9	62018.05
908.7842	1731.8886	62613.05	61723.65
908.9253	1733.5964	62452.5	61557.3
909.0664	1735.3036	62783.95	61892
909.2074	1737.0099	62530.85	61640.85
909.3484	1738.7156	62264.2	61375.5
909.4894	1740.4204	62182.8	61291.25
909.6304	1742.1246	62274.8	61381.65
909.7714	1743.8279	62333.55	61443.4
909.9123	1745.5306	62263.25	61372.95
910.0532	1747.2325	61474.75	60585.35
910.1941	1748.9336	61492.95	60602.5
910.335	1750.634	61686.85	60794.85
910.4759	1752.3336	61902.05	61011.7
910.6168	1754.0325	61362.2	60473.1
910.7576	1755.7307	61856.15	60965.95
910.8984	1757.4281	61172.95	60283.55
911.0392	1759.1247	61724.35	60826.8
911.18	1760.8206	60999.95	60105.6
911.3208	1762.5158	61027.35	60133.5
911.4615	1764.2102	61159.65	60270.55
911.6022	1765.9039	60936.8	60046.75
911.7429	1767.5968	60826.7	59936.9
911.8836	1769.289	60762.35	59873.2
912.0243	1770.9804	60856.8	59964.7
912.1649	1772.6711	60697.5	59806.5
912.3056	1774.361	60542.9	59650.95
912.4462	1776.0502	60579.25	59687.85
912.5868	1777.7386	60090.75	59197.8
912.7274	1779.4263	60304.3	59413.55
912.8679	1781.1132	60327.6	59436.25
913.0084	1782.7994	60150.1	59260.3
913.149	1784.4849	60190	59302.8
913.2895	1786.1696	59549.3	58653.45
913.4299	1787.8535	59870.15	58981.8
913.5704	1789.5367	59890.9	59000.85
913.7108	1791.2192	59535	58644.6
913.8513	1792.9009	59317.55	58398.35
913.9917	1794.5818	59546.75	58652.95
914.132	1796.2621	59224.9	58337.65
914.2724	1797.9415	59241.6	58352.1
914.4128	1799.6202	59178.6	58287.7
914.5531	1801.2982	59257.4	58366.5
914.6934	1802.9755	58893.8	58002.75
914.8337	1804.6519	58765.5	57875.1
914.9739	1806.3277	59133.55	58242.6
915.1142	1808.0027	58386.4	57497.65
915.2544	1809.6769	58598.15	57707.45
915.3946	1811.3504	58698.6	57808.05
915.5348	1813.0231	58132.15	57239.95
915.675	1814.6951	58461	57569.6
915.8151	1816.3664	58221.05	57329.65
915.9553	1818.0369	58270.3	57379.7
916.0954	1819.7067	58059.2	57168.85
916.2355	1821.3757	58347.4	57456.4
916.3755	1823.044	57834	56943.8
916.5156	1824.7115	57605.45	56714.95
916.6556	1826.3783	57692.45	56803.15
916.7956	1828.0443	57685.2	56797.1
916.9356	1829.7096	57495.95	56603.2
917.0756	1831.3741	57142.5	56249.3
917.2155	1833.0379	57335.05	56445.35
917.3555	1834.701	57268.65	56379.85
917.4954	1836.3633	56960.8	56066.9
917.6353	1838.0248	57129.5	56239
917.7751	1839.6856	56957.1	56067.95
917.915	1841.3457	56635.8	55745.5
918.0548	1843.005	56971.05	56082.35
918.1946	1844.6636	56686.1	55797.65
918.3344	1846.3214	56152.9	55260.55
918.4742	1847.9785	56286.35	55397.6
918.6139	1849.6349	56267	55374.6
918.7537	1851.2904	56534.1	55633.55
918.8934	1852.9453	55915.8	55026.05
919.0331	1854.5994	56143.75	55252.05
919.1727	1856.2528	56130.5	55236.95
919.3124	1857.9054	55710.8	54820.95
919.452	1859.5572	55506.25	54617.05
919.5916	1861.2083	55668.25	54777.2
919.7312	1862.8587	56083.6	55195.65
919.8708	1864.5084	54942.15	54051.95
920.0103	1866.1572	55394.05	54505.15
920.1498	1867.8054	54821.25	53932.35
920.2893	1869.4528	55106	54214.8
920.4288	1871.0994	54669.3	53780.65
920.5683	1872.7453	54551.95	53662.6
920.7077	1874.3905	54787.3	53892.3
920.8471	1876.0349	54273.6	53383
920.9865	1877.6786	54584.65	53696.9
921.1259	1879.3215	54145.75	53257.6
921.2653	1880.9637	54526.05	53638.05
921.4046	1882.6051	54121.4	53233.2
921.5439	1884.2458	53870.95	52980.1
921.6832	1885.8858	53571.7	52680.55
921.8225	1887.525	53795.15	52903.85
921.9617	1889.1634	53571.95	52682.85
922.101	1890.8011	53377.55	52488.4
922.2402	1892.4381	52787.45	51896.5
922.3794	1894.0743	53284.45	52396.7
922.5185	1895.7098	52943.35	52055.7
922.6577	1897.3446	52686.75	51798.7
922.7968	1898.9786	52757.75	51864.75
922.9359	1900.6118	52464.1	51577.45
923.075	1902.2443	52161.7	51270.6
923.214	1903.8761	52406.75	51518.25
923.3531	1905.5071	52012.35	51122.6
923.4921	1907.1374	51432.95	50543.05
923.6311	1908.7669	51679.75	50791.35
923.77	1910.3957	51843.25	50954.65
923.909	1912.0237	51249.95	50360.2
924.0479	1913.651	51046.05	50157.05
924.1868	1915.2776	50921.45	50033.3
924.3257	1916.9034	50853.2	49965.85
924.4646	1918.5285	50577.7	49688.5
924.6034	1920.1528	50527.4	49636.3
924.7422	1921.7764	50351.35	49463.1
924.881	1923.3992	50174.35	49284.4
925.0198	1925.0213	49861.15	48971.25
925.1586	1926.6427	49482.25	48594.3
925.2973	1928.2633	49651.4	48680.25
925.436	1929.8832	49491.3	48600.6
925.5747	1931.5023	49235	48344.15
925.7134	1933.1207	48903.7	48014.15
925.852	1934.7383	49057.9	48168.2
925.9906	1936.3552	48754.05	47865.6
926.1292	1937.9714	48656.45	47768.05
926.2678	1939.5868	48588.5	47695.9
926.4064	1941.2015	48167.7	47278.45
926.5449	1942.8154	47873.55	46983.05
926.6834	1944.4286	47861.8	46972.3
926.8219	1946.041	47798.55	46891.65
926.9604	1947.6528	47493.35	46598.35
927.0988	1949.2637	47355.8	46467.55
927.2372	1950.8739	47106.85	46219.3
927.3756	1952.4834	47206.3	46318.6
927.514	1954.0921	47052.55	46164.4
927.6523	1955.7001	46740.2	45846.05
927.7907	1957.3074	46826.45	45937.7
927.929	1958.9139	46421	45532.05
928.0673	1960.5197	46461	45570.5
928.2055	1962.1247	46237.15	45348.25
928.3438	1963.729	45909.25	45020
928.482	1965.3325	45752.2	44840.35
928.6202	1966.9353	45748.6	44860.05
928.7584	1968.5374	45439.25	44548.4
928.8965	1970.1387	45268	44378.7
929.0346	1971.7393	45218.1	44327.3
929.1727	1973.3392	45037.3	44149.65
929.3108	1974.9383	44826.2	43939.85
929.4489	1976.5366	44623.1	43735.3
929.5869	1978.1342	44634.25	43745.65
929.7249	1979.7311	44550.75	43659.5
929.8629	1981.3273	44343.55	43454.1
930.0009	1982.9227	44171.55	43280.6
930.1388	1984.5173	44091.2	43201.45
930.2767	1986.1112	43828.55	42940.4
930.4146	1987.7044	43902.45	43017.75
930.5525	1989.2968	43540.3	42651.4
930.6904	1990.8885	43515	42625.45
930.8282	1992.4795	43374.6	42484.7
930.966	1994.0697	43233.5	42344.5
931.1038	1995.6592	43131	42241.5
931.2415	1997.2479	42936.1	42047.85
931.3793	1998.8359	42875.45	41984.45
931.517	2000.4232	42630.7	41742.5
931.6547	2002.0097	42529.5	41643
931.7923	2003.5955	42337.4	41449.4
931.93	2005.1805	42261.9	41372.95
932.0676	2006.7648	42198.25	41312.25
932.2052	2008.3484	42040.8	41152.3
932.3427	2009.9312	41999.95	41108.25
932.4803	2011.5133	41878.05	40991.05
932.6178	2013.0946	41730.8	40843.8
932.7553	2014.6752	41605.95	40718.35
932.8928	2016.2551	41508.65	40619.9
933.0302	2017.8342	41334.25	40446.5
933.1676	2019.4126	41123.95	40235.35
933.305	2020.9902	40958.8	40073.05
933.4424	2022.5672	40896.85	40005.7
933.5798	2024.1433	40845.1	39950.3
933.7171	2025.7188	40659.15	39772.8
933.8544	2027.2935	40506	39617.6
933.9917	2028.8674	40385.8	39496.3
934.129	2030.4406	40250.35	39363
934.2662	2032.0131	40088.7	39200.85
934.4034	2033.5849	39948.45	39056.65
934.5406	2035.1559	39883.4	38996.75
934.6778	2036.7261	39847.8	38957.65
934.8149	2038.2957	39665.45	38777.9
934.952	2039.8645	39591.25	38703.15
935.0891	2041.4325	39631.2	38739.6
935.2262	2042.9998	39413.85	38526.55
935.3632	2044.5664	39249.8	38360.6
935.5002	2046.1323	39154.85	38267.35
935.6372	2047.6974	39115.15	38226.15
935.7742	2049.2617	38985.65	38098.25
935.9111	2050.8254	38948.9	38055.35
936.048	2052.3883	38770.15	37879.35
936.1849	2053.9504	38700.45	37813.15
936.3218	2055.5118	38542.25	37650.7
936.4586	2057.0725	38370.75	37478.45
936.5955	2058.6325	38303.65	37416
936.7323	2060.1917	38171.55	37284.55
936.869	2061.7502	38079.95	37190.55
937.0058	2063.3079	37920.9	37031.05
937.1425	2064.8649	37793.1	36899.5
937.2792	2066.4212	37750	36860.65
937.4159	2067.9767	37659.2	36773.5
937.5525	2069.5315	37468.05	36580.3
937.6891	2071.0856	37265.15	36376.05
937.8257	2072.6389	37170.5	36280.6
937.9623	2074.1915	36968.35	36082.8
938.0989	2075.7433	36795.1	35905.95
938.2354	2077.2945	36699.3	35813.2
938.3719	2078.8448	36575.55	35688.65
938.5084	2080.3945	36483.7	35596.75
938.6448	2081.9434	36424.1	35536
938.7812	2083.4916	36325.75	35436.7
938.9176	2085.039	36134.5	35245.3
939.054	2086.5857	36077.6	35187.2
939.1903	2088.1317	35992.65	35103.15
939.3267	2089.677	35897.05	35008.85
939.463	2091.2215	35758.9	34871.95
939.5992	2092.7652	35697	34809.2
939.7355	2094.3083	35632.55	34743.2
939.8717	2095.8506	35575.1	34689.65
940.0079	2097.3921	35486.5	34599.2
940.1441	2098.933	35366.5	34480.3
940.2802	2100.4731	35285.35	34396.9
940.4163	2102.0124	35236.75	34342.65
940.5524	2103.5511	35123.75	34237.05
940.6885	2105.089	35009.3	34121.55
940.8245	2106.6261	34945.65	34058.55
940.9606	2108.1626	34867.7	33980.35
941.0965	2109.6983	34776.75	33859.6
941.2325	2111.2332	34654	33764.5
941.3684	2112.7675	34554.2	33665.4
941.5044	2114.301	34453.35	33562.4
941.6403	2115.8337	34424.85	33535.75
941.7761	2117.3657	34306.35	33419.05
941.912	2118.897	34214.8	33324.9
942.0478	2120.4276	34096.15	33204.2
942.1835	2121.9575	33937.5	33048.35
942.3193	2123.4866	33908.2	33003.35
942.455	2125.0149	33795.1	32904.7
942.5907	2126.5426	33662	32775.65
942.7264	2128.0695	33558.4	32666.8
942.8621	2129.5956	33531.3	32644.65
942.9977	2131.1211	33430.15	32537.45
943.1333	2132.6458	33342.35	32456
943.2689	2134.1698	33206.9	32316.25
943.4044	2135.693	33128.4	32236.95
943.54	2137.2155	33075	32185.4
943.6755	2138.7373	32990	32101.95
943.8109	2140.2584	32869.75	31981.6
943.9464	2141.7787	32783.7	31890.95
944.0818	2143.2983	32592.55	31704.5
944.2172	2144.8171	32414.2	31527.9
944.3526	2146.3353	32328.65	31437.6
944.4879	2147.8527	32221.95	31333.8
944.6232	2149.3693	32239.55	31351.5
944.7585	2150.8853	32066.95	31179.2
944.8938	2152.4005	31889.4	31002.3
945.029	2153.9149	31896.05	31006.2
945.1642	2155.4287	31779.3	30891.95
945.2994	2156.9417	31701.2	30811.1
945.4346	2158.454	31602.1	30709.95
945.5697	2159.9655	31569.5	30680.6
945.7048	2161.4764	31524.7	30637.6
945.8399	2162.9865	31359.1	30472.65
945.9749	2164.4958	31317.95	30428.2
946.1099	2166.0045	31130.7	30239.2
946.2449	2167.5124	31162.65	30275.4
946.3799	2169.0195	31036.65	30148.75
946.5148	2170.526	31023.65	30135.2
946.6498	2172.0317	30882.8	29994.65
946.7846	2173.5367	30775.4	29887.2
946.9195	2175.0409	30671.1	29784.25
947.0543	2176.5445	30707.9	29821.95
947.1891	2178.0473	30529.65	29641
947.3239	2179.5494	30390.95	29498.45
947.4587	2181.0507	30254.4	29365.45
947.5934	2182.5513	30159.2	29272.35
947.7281	2184.0512	30128	29240.55
947.8628	2185.5504	30059	29172.05
947.9974	2187.0488	29828.75	28941.1
948.132	2188.5465	29732.8	28846.35
948.2666	2190.0435	29639.3	28750.95
948.4012	2191.5397	29534.95	28645.95
948.5357	2193.0353	29473.5	28585.65
948.6702	2194.5301	29317.35	28428.05
948.8047	2196.0241	29240.35	28350.4
948.9392	2197.5175	29158.35	28270.8
949.0736	2199.0101	29014.1	28124.65
949.208	2200.502	28881.5	27995
949.3424	2201.9931	28818	27930.5
949.4767	2203.4835	28702.7	27813.35
949.611	2204.9733	28590.25	27697.7
949.7453	2206.4622	28536.75	27649.45
949.8796	2207.9505	28437.05	27547.3
950.0138	2209.438	28272.95	27386.7
950.148	2210.9248	28218.2	27328.65
950.2822	2212.4109	28161.75	27275.3
950.4164	2213.8962	28020.15	27129.45
950.5505	2215.3809	27962.6	27073.5
950.6846	2216.8648	27881.85	26994.7
950.8186	2218.3479	27810.95	26919.35
950.9527	2219.8304	27707.25	26816.95
951.0867	2221.3121	27624.45	26733.3
951.2207	2222.7931	27510.75	26622.3
951.3546	2224.2733	27365.15	26477.25
951.4886	2225.7529	27278.3	26391.1
951.6225	2227.2317	27176.75	26285.25
951.7563	2228.7098	27225.6	26335.95
951.8902	2230.1872	27010.35	26120.6
952.024	2231.6638	26998.15	26109.2
952.1578	2233.1397	26820.85	25928.9
952.2916	2234.6149	26769	25878.85
952.4253	2236.0894	26725.6	25836.75
952.559	2237.5632	26656.8	25765.25
952.6927	2239.0362	26530.2	25642.35
952.8263	2240.5085	26442.75	25556.2
952.9599	2241.9801	26356.55	25468.2
953.0935	2243.4509	26227.85	25340.3
953.2271	2244.921	26116.2	25227.2
953.3606	2246.3904	26032.4	25142.2
953.4941	2247.8591	25962.2	25073.65
953.6276	2249.3271	25897.65	25009.1
953.7611	2250.7943	25793	24903.4
953.8945	2252.2608	25711.3	24823
954.0279	2253.7266	25650.35	24761.2
954.1612	2255.1917	25583.2	24694.75
954.2946	2256.656	25476.05	24589.1
954.4279	2258.1197	25427.7	24541.8
954.5612	2259.5826	25318.35	24428.3
954.6944	2261.0447	25250.85	24359.65
954.8276	2262.5062	25168.4	24277.9
954.9608	2263.9669	25115.3	24224.1
955.094	2265.4269	25011.95	24123
955.2271	2266.8862	24952.25	24062.45
955.3602	2268.3448	24931.6	24043.15
955.4933	2269.8026	24875.4	23988.6
955.6264	2271.2598	24732.6	23847.5
955.7594	2272.7162	24670	23783.25
955.8924	2274.1719	24611.55	23722.45
956.0253	2275.6268	24542.2	23653.95
956.1583	2277.0811	24491.4	23603.15
956.2912	2278.5346	24395.65	23509.3
956.4241	2279.9874	24347.8	23459.35
956.5569	2281.4395	24346.2	23460.95
956.6897	2282.8908	24183.85	23291.55
956.8225	2284.3414	24145.25	23255.3
956.9553	2285.7914	24049.05	23162.7
957.088	2287.2406	23973.5	23084.95
957.2207	2288.689	23915.2	23027.6
957.3534	2290.1368	23815.65	22928.1
957.486	2291.5838	23694.45	22804.3
957.6186	2293.0302	23628.45	22739.8
957.7512	2294.4758	23563.05	22676.75
957.8838	2295.9206	23433.1	22540.7
958.0163	2297.3648	23381.1	22491.25
958.1488	2298.8082	23363.1	22476.45
958.2813	2300.251	23295.75	22408.9
958.4137	2301.693	23208.3	22318.5
958.5461	2303.1343	23176.45	22288.3
958.6785	2304.5748	23080.85	22193.5
958.8108	2306.0147	23007.2	22120.7
958.9432	2307.4538	22928.8	22039.45
959.0754	2308.8922	22871.2	21984.7
959.2077	2310.3299	22794.5	21905.75
959.3399	2311.7669	22727	21840
959.4721	2313.2031	22634.35	21745.5
959.6043	2314.6387	22540.25	21650.85
959.7365	2316.0735	22490.8	21604
959.8686	2317.5076	22434	21545.7
960.0006	2318.941	22391.05	21502.45
960.1327	2320.3737	22292.05	21404.1
960.2647	2321.8056	22238.6	21348.05
960.3967	2323.2369	22161.55	21273.7
960.5287	2324.6674	22097.5	21207
960.6606	2326.0972	22032.25	21144.4
960.7925	2327.5263	21909.65	21023.85
960.9244	2328.9547	21857.3	20967.85
961.0562	2330.3823	21787.9	20898.8
961.1881	2331.8092	21766.35	20875.85
961.3198	2333.2355	21635.75	20748.95
961.4516	2334.661	21656	20766.6
961.5833	2336.0858	21551.05	20661.2
961.715	2337.5098	21544.7	20655.8
961.8467	2338.9332	21525.85	20636.8
961.9783	2340.3558	21391.9	20500.55
962.1099	2341.7778	21299.95	20409.35
962.2415	2343.199	21251.9	20362.35
962.373	2344.6195	21156.9	20269.5
962.5045	2346.0393	21097	20210.55
962.636	2347.4583	21085.4	20195.15
962.7675	2348.8767	20967.35	20079.55
962.8989	2350.2943	20925.65	20037.75
963.0303	2351.7113	20906.25	20017.05
963.1617	2353.1275	20815.9	19926.15
963.293	2354.543	20738.95	19844.8
963.4243	2355.9578	20691.55	19802.3
963.5556	2357.3718	20551.85	19665.2
963.6868	2358.7852	20495.35	19607.75
963.818	2360.1978	20389.8	19499.35
963.9492	2361.6098	20360.95	19472.85
964.0803	2363.021	20289.55	19397.25
964.2114	2364.4315	20263.35	19375.35
964.3425	2365.8413	20203.85	19314.75
964.4736	2367.2504	20089.55	19202.5
964.6046	2368.6587	20035.75	19149.65
964.7356	2370.0664	19942.6	19054.4
964.8666	2371.4733	19847.55	18960.15
964.9975	2372.8795	19823.05	18934.2
965.1284	2374.285	19719.15	18831.65
965.2593	2375.6899	19619.65	18733.25
965.3901	2377.0939	19526.2	18639.25
965.5209	2378.4973	19487.65	18601.6
965.6517	2379.9	19410.7	18521.85
965.7825	2381.3019	19344.1	18457.85
965.9132	2382.7032	19325	18439.3
966.0439	2384.1037	19258.9	18373.7
966.1745	2385.5035	19165	18276.7
966.3051	2386.9027	19118.85	18233.2
966.4357	2388.3011	19080.05	18188.05
966.5663	2389.6987	19011.65	18122.05
966.6968	2391.0957	18924.2	18036.65
966.8273	2392.492	18819.05	17930.95
966.9578	2393.8876	18725.35	17838.65
967.0882	2395.2824	18644.85	17758.35
967.2186	2396.6765	18587	17700.75
967.349	2398.07	18490.35	17606.35
967.4793	2399.4627	18476.85	17588.4
967.6097	2400.8547	18405	17516.55
967.7399	2402.246	18351.75	17456.65
967.8702	2403.6366	18218.2	17330.6
968.0004	2405.0265	18175.85	17288.55
968.1306	2406.4156	18114.3	17223.05
968.2607	2407.8041	18002.6	17111.4
968.3909	2409.1918	17953.4	17064.6
968.521	2410.5789	17868.95	16981.95
968.651	2411.9652	17822.7	16935.25
968.781	2413.3508	17768.45	16880.65
968.911	2414.7358	17728.75	16840.85
969.041	2416.12	17631.9	16743.85
969.1709	2417.5035	17609.5	16721.55
969.3008	2418.8863	17508.7	16619.65
969.4307	2420.2684	17447.7	16560.55
969.5606	2421.6497	17359.6	16472.2
969.6904	2423.0304	17247.1	16363.35
969.8201	2424.4104	17240.7	16351.95
969.9499	2425.7896	17196.6	16307.25
970.0796	2427.1682	17144.5	16256.3
970.2093	2428.546	17071.85	16183.7
970.3389	2429.9232	17056	16164.2
970.4685	2431.2996	17029.5	16140
970.5981	2432.6753	16974.6	16088.9
970.7277	2434.0503	16909.8	16019.95
970.8572	2435.4246	16836.05	15949.55
970.9867	2436.7982	16740.35	15851.35
971.1161	2438.1711	16693.85	15807.8
971.2456	2439.5433	16651.05	15764.9
971.375	2440.9148	16602.75	15708.2
971.5043	2442.2856	16534.35	15645.9
971.6336	2443.6557	16473.2	15584.65
971.7629	2445.025	16381.75	15493.3
971.8922	2446.3937	16362.2	15475.15
972.0214	2447.7617	16312.65	15425.15
972.1506	2449.1289	16273.4	15386.3
972.2798	2450.4955	16209.55	15317.3
972.4089	2451.8613	16168.2	15279.2
972.538	2453.2265	16120.1	15233.7
972.6671	2454.5909	16102.45	15215.85
972.7961	2455.9546	16031.15	15144.65
972.9251	2457.3177	15978.6	15092.4
973.0541	2458.68	15911.75	15021.9
973.1831	2460.0416	15911.3	15023.65
973.312	2461.4025	15866	14976.45
973.4408	2462.7627	15778.6	14879.8
973.5697	2464.1222	15763.4	14877.5
973.6985	2465.4811	15682.65	14794.95
973.8273	2466.8392	15633.85	14747.65
973.956	2468.1966	15592.45	14703
974.0847	2469.5533	15586.1	14695.55
974.2134	2470.9093	15548	14660.65
974.3421	2472.2645	15486.4	14597.1
974.4707	2473.6191	15419.6	14532.65
974.5993	2474.973	15338.95	14451.45
974.7278	2476.3262	15316.15	14426.4
974.8563	2477.6787	15271.45	14385.15
974.9848	2479.0305	15168.95	14283.6
975.1132	2480.3816	15110.5	14221.95
975.2417	2481.7319	15038.9	14151.8
975.37	2483.0816	14963.1	14074.1
975.4984	2484.4306	14963.8	14075.7
975.6267	2485.7789	14918.3	14031.4
975.755	2487.1264	14832.8	13943
975.8833	2488.4733	14763.15	13875
976.0115	2489.8195	14729.95	13834.05
976.1397	2491.165	14651.3	13760.3
976.2678	2492.5097	14614.05	13724.5
976.3959	2493.8538	14565.75	13678.05
976.524	2495.1972	14495.7	13610.45
976.6521	2496.5398	14397.5	13507.8
976.7801	2497.8818	14383	13494
976.9081	2499.2231	14334.6	13446.2
977.036	2500.5637	14283.15	13393.6
977.164	2501.9035	14245.1	13355.7
977.2918	2503.2427	14188.25	13295.15
977.4197	2504.5812	14121.95	13234.1
977.5475	2505.919	14125.55	13235.8
977.6753	2507.256	14077.25	13190.45
977.8031	2508.5924	13976.9	13090.3
977.9308	2509.9281	13950.7	13056.4
978.0585	2511.2631	13928.95	13041.05
978.1861	2512.5974	13876.25	12990.85
978.3137	2513.9309	13824.2	12937.4
978.4413	2515.2638	13783.55	12873
978.5689	2516.596	13767.55	12878
978.6964	2517.9275	13668.1	12779.35
978.8239	2519.2583	13596.7	12709.15
978.9513	2520.5884	13566.1	12676.55
979.0788	2521.9178	13481.7	12594.6
979.2062	2523.2465	13451.8	12565.4
979.3335	2524.5745	13414.6	12527.35
979.4608	2525.9018	13369.4	12482.55
979.5881	2527.2284	13348.7	12463.6
979.7154	2528.5543	13299.15	12411.4
979.8426	2529.8796	13245.25	12357.85
979.9698	2531.2041	13214.25	12325.4
980.0969	2532.5279	13178.55	12292.75
980.224	2533.851	13177.55	12287.6
980.3511	2535.1735	13103.75	12217.2
980.4781	2536.4952	13067.15	12180.5
980.6052	2537.8163	13043.15	12155.75
980.7321	2539.1366	12993	12107.75
980.8591	2540.4562	12955.7	12066.8
980.986	2541.7752	12951.35	12065.15
981.1129	2543.0935	12924.75	12036.65
981.2397	2544.411	12874.6	11988.15
981.3665	2545.7279	12853	11964.95
981.4933	2547.0441	12835.1	11948.5
981.62	2548.3596	12804.85	11915.85
981.7467	2549.6744	12765.85	11878.3
981.8734	2550.9885	12713.15	11817.65
982.0001	2552.3019	12661.6	11775.45
982.1267	2553.6146	12624.05	11737.3
982.2532	2554.9266	12624.65	11735.65
982.3798	2556.2379	12571.45	11681.55
982.5063	2557.5485	12557.9	11670.05
982.6327	2558.8585	12533.9	11639.6
982.7592	2560.1677	12500.65	11607.55
982.8856	2561.4762	12455.55	11568.4
983.0119	2562.7841	12410.65	11520.15
983.1383	2564.0913	12371	11484.1
983.2646	2565.3977	12374.75	11489.5
983.3908	2566.7035	12328.65	11438.75
983.517	2568.0086	12310.2	11419.75
983.6432	2569.313	12269.1	11382.25
983.7694	2570.6167	12262.7	11371.2
983.8955	2571.9197	12204.3	11317
984.0216	2573.222	12215.85	11324.9
984.1476	2574.5236	12156	11267.6
984.2737	2575.8246	12138.2	11248.95
984.3996	2577.1248	12110.55	11218.9
984.5256	2578.4244	12074.55	11186.15
984.6515	2579.7232	12078.1	11190.75
984.7774	2581.0214	12063.4	11149.6
984.9032	2582.3189	11991.95	11105.55
985.029	2583.6157	11975.25	11084.9
985.1548	2584.9118	11927.5	11040.55
985.2806	2586.2072	11869.8	10983.4
985.4063	2587.5019	11878.7	10990.15
985.5319	2588.7959	11827.5	10939.8
985.6576	2590.0893	11782.7	10894
985.7832	2591.3819	11788.55	10901.45
985.9087	2592.6739	11725.1	10837.05
986.0343	2593.9652	11681.2	10793.1
986.1597	2595.2557	11668	10780.8
986.2852	2596.5456	11610.05	10718.9
986.4106	2597.8348	11595.95	10708.7
986.536	2599.1234	11523.7	10636.65
986.6614	2600.4112	11503.45	10616.7
986.7867	2601.6983	11468	10578.7
986.912	2602.9848	11400.6	10511.7
987.0372	2604.2705	11345.45	10449.15
987.1624	2605.5556	11342.25	10453.8
987.2876	2606.84	11282.8	10395.05
987.4128	2608.1237	11218.65	10332.45
987.5379	2609.4067	11198	10310.6
987.6629	2610.689	11148.8	10254.55
987.788	2611.9707	11105.5	10213.7
987.913	2613.2516	11060.15	10168.45
988.0379	2614.5319	10999.9	10112.95
988.1629	2615.8115	10979.75	10091.95
988.2878	2617.0903	10927.4	10039.7
988.4126	2618.3685	10925.15	10037.45
988.5375	2619.6461	10883.9	9994.9
988.6622	2620.9229	10827.25	9940.1
988.787	2622.199	10788.3	9898.8
988.9117	2623.4745	10778.5	9890.1
989.0364	2624.7493	10713.65	9825.15
989.161	2626.0234	10660.4	9773.1
989.2857	2627.2968	10637.95	9750.5
989.4102	2628.5695	10607	9719.3
989.5348	2629.8415	10558.45	9672.05
989.6593	2631.1128	10481.35	9591.75
989.7837	2632.3835	10455.55	9569.4
989.9082	2633.6535	10416.95	9532.45
990.0326	2634.9228	10403.4	9517.75
990.1569	2636.1914	10352.85	9465.6
990.2812	2637.4593	10331.9	9437.4
990.4055	2638.7265	10272.85	9384.75
990.5298	2639.9931	10238.65	9353.5
990.654	2641.259	10197.95	9311.55
990.7782	2642.5242	10194.4	9307.55
990.9023	2643.7887	10164.65	9277
991.0264	2645.0525	10113.3	9225.85
991.1505	2646.3156	10088.6	9199.45
991.2745	2647.5781	10055.35	9169.05
991.3985	2648.8398	10003.4	9118.4
991.5225	2650.1009	9994.95	9072.15
991.6464	2651.3613	9944.05	9055.8
991.7703	2652.6211	9932.25	9045.65
991.8942	2653.8801	9887.8	9001.4
992.018	2655.1385	9870.75	8981.75
992.1418	2656.3961	9844.8	8958.2
992.2655	2657.6531	9835.7	8950.6
992.3892	2658.9094	9807	8920.6
992.5129	2660.1651	9758.7	8872.85
992.6366	2661.42	9736.35	8848.6
992.7602	2662.6743	9705.45	8816.6
992.8837	2663.9279	9685.7	8800.3
993.0073	2665.1808	9665.5	8776.75
993.1307	2666.433	9617.9	8727.75
993.2542	2667.6846	9590.15	8702.3
993.3776	2668.9354	9557.25	8666.5
993.501	2670.1856	9548.1	8659.55
993.6244	2671.4351	9531.05	8645.4
993.7477	2672.6839	9507.2	8617.1
993.8709	2673.9321	9443.4	8557.4
993.9942	2675.1795	9423.85	8537.75
994.1174	2676.4263	9419.5	8534
994.2405	2677.6724	9368.4	8480.75
994.3637	2678.9179	9331	8443.5
994.4868	2680.1626	9306.25	8419.15
994.6098	2681.4067	9270.85	8382.05
994.7328	2682.6501	9260.2	8372.8
994.8558	2683.8928	9237.75	8352
994.9788	2685.1348	9196.9	8310.75
995.1017	2686.3761	9154.9	8268.35
995.2245	2687.6168	9122.55	8235
995.3474	2688.8568	9091.1	8204.15
995.4702	2690.0961	9043.55	8159.8
995.5929	2691.3348	9057.85	8171.9
995.7156	2692.5727	9015.2	8126.6
995.8383	2693.81	8952.95	8064.75
995.961	2695.0466	8943.8	8057.15
996.0836	2696.2826	8932.25	8044.8
996.2062	2697.5178	8889.5	7999.6
996.3287	2698.7524	8862.05	7975.75
996.4512	2699.9863	8858.95	7969.55
996.5737	2701.2195	8799	7912.65
996.6961	2702.452	8799.85	7909.3
996.8185	2703.6839	8757.5	7869.65
996.9408	2704.9151	8738.6	7852.4
997.0631	2706.1456	8683.65	7795.6
997.1854	2707.3755	8669.15	7780.45
997.3077	2708.6046	8649.1	7758.6
997.4299	2709.8331	8618	7728.7
997.552	2711.0609	8603.5	7716.55
997.6742	2712.2881	8572.8	7686.2
997.7963	2713.5145	8548.75	7658.5
997.9183	2714.7403	8520.65	7635
998.0403	2715.9654	8493.45	7606.5
998.1623	2717.1899	8462.4	7572.45
998.2842	2718.4136	8444.85	7556.6
998.4062	2719.6367	8448.25	7561.1
998.528	2720.8591	8381.7	7489.3
998.6498	2722.0809	8371.9	7485.2
998.7716	2723.3019	8352.6	7462.55
998.8934	2724.5223	8340.55	7453.55
999.0151	2725.7421	8291.55	7402.75
999.1368	2726.9611	8279.35	7390.8
999.2584	2728.1795	8253.45	7362.35
999.38	2729.3972	8229.5	7341.85
999.5016	2730.6142	8194.45	7299.1
999.6231	2731.8306	8125	7236.65
999.7446	2733.0462	8105.7	7218.75
999.8661	2734.2612	8051.9	7160.85
999.9875	2735.4756	8017.75	7130.2
1000.1089	2736.6892	7953.05	7065.4
1000.2302	2737.9022	7910.65	7025.95
1000.3515	2739.1145	7886.2	6998.9
1000.4728	2740.3262	7861.65	6966.75
1000.594	2741.5372	7815.2	6928.75
1000.7152	2742.7475	7800.3	6910.65
1000.8363	2743.9571	7767.55	6878.15
1000.9575	2745.1661	7728.55	6837.4
1001.0785	2746.3744	7700.4	6813.4
1001.1996	2747.582	7662.6	6775.5
1001.3206	2748.7889	7633.45	6745.7
1001.4415	2749.9952	7605.35	6718.45
1001.5625	2751.2008	7576.35	6688.15
1001.6833	2752.4057	7558.45	6667.75
1001.8042	2753.61	7519.25	6631.25
1001.925	2754.8136	7498.65	6609.4
1002.0458	2756.0165	7463.6	6577.1
1002.1665	2757.2188	7432.85	6547.75
1002.2872	2758.4204	7399.75	6512.75
1002.4078	2759.6213	7402.6	6511.3
1002.5285	2760.8215	7373	6482.25
1002.649	2762.0211	7343.25	6453.25
1002.7696	2763.22	7314.4	6423.85
1002.8901	2764.4182	7294.25	6406.85
1003.0106	2765.6158	7277.55	6390.8
1003.131	2766.8127	7270.85	6384.9
1003.2514	2768.009	7234.75	6348.25
1003.3717	2769.2045	7203.25	6313.15
1003.492	2770.3994	7189.2	6298.55
1003.6123	2771.5936	7163	6275.35
1003.7325	2772.7872	7141.6	6253.25
1003.8527	2773.9801	7059.95	6171.9
1003.9729	2775.1723	7088	6184.45
1004.093	2776.3639	7047.5	6162.75
1004.2131	2777.5548	7028.65	6140.1
1004.3331	2778.745	7005.85	6117.5
1004.4531	2779.9346	6981.75	6097.75
1004.5731	2781.1235	6966.1	6078.25
1004.693	2782.3117	6938.6	6052.75
1004.8129	2783.4992	6925.55	6039.05
1004.9328	2784.6861	6907.8	6021.05
1005.0526	2785.8723	6882.6	5995.1
1005.1723	2787.0579	6876.4	5987.95
1005.2921	2788.2428	6828.7	5941.8
1005.4118	2789.427	6822.55	5936.55
1005.5314	2790.6106	6802.15	5915.45
1005.651	2791.7935	6786.05	5899.05
1005.7706	2792.9757	6751.45	5865.6
1005.8902	2794.1573	6733.45	5842.15
1006.0097	2795.3382	6692.85	5806.3
1006.1291	2796.5184	6685.6	5800.55
1006.2485	2797.698	6686.55	5797.25
1006.3679	2798.8769	6676.45	5791.4
1006.4873	2800.0551	6687.15	5800.45
1006.6066	2801.2327	6652.6	5761.85
1006.7258	2802.4096	6642.4	5755.7
1006.8451	2803.5859	6630.4	5743.7
1006.9642	2804.7615	6601.75	5714.8
1007.0834	2805.9364	6585.7	5700.3
1007.2025	2807.1106	6603.6	5715.75
1007.3216	2808.2842	6612.4	5722.35
1007.4406	2809.4572	6614.1	5725.85
1007.5596	2810.6294	6614.4	5726.2
1007.6785	2811.801	6637.1	5751.4
1007.7975	2812.972	6636.6	5750.65
1007.9163	2814.1423	6643.65	5755.3
1008.0352	2815.3119	6680.25	5793.8
1008.154	2816.4808	6698.55	5812.25
1008.2727	2817.6491	6714.75	5827.1
1008.3914	2818.8167	6755.7	5870.55
1008.5101	2819.9837	6767.2	5875.4
1008.6288	2821.15	6792.55	5904.4
1008.7474	2822.3157	6805.65	5919.2
1008.8659	2823.4807	6839.6	5950.1
1008.9844	2824.645	6891.3	6001.6
1009.1029	2825.8086	6888.4	6001.5
1009.2214	2826.9716	6926.45	6039.05
1009.3398	2828.134	6965.05	6079.25
1009.4581	2829.2957	6976.2	6089.6
1009.5764	2830.4567	6988.05	6101.65
1009.6947	2831.617	6974.1	6085.25
1009.813	2832.7767	6984.4	6099.5
1009.9312	2833.9358	6982.15	6096.85
1010.0493	2835.0941	6950.4	6061.15
1010.1675	2836.2519	6950.65	6062.35
1010.2855	2837.4089	6919.55	6030.35
1010.4036	2838.5653	6906.75	6019.1
1010.5216	2839.7211	6849.75	5964.25
1010.6396	2840.8761	6854.75	5965.4
1010.7575	2842.0306	6852.95	5969.95
1010.8754	2843.1843	6857.6	5972.5
1010.9932	2844.3374	6876.55	5988.6
1011.111	2845.4899	6902.3	6016
1011.2288	2846.6417	6928.1	6040.35
1011.3465	2847.7928	6985.55	6098.7
1011.4642	2848.9433	7023.05	6136.25
1011.5818	2850.0931	7052.8	6167.5
1011.6995	2851.2422	7111.6	6223.05
1011.817	2852.3907	7171.25	6282.85
1011.9345	2853.5385	7172.85	6283.85
1012.052	2854.6857	7227.5	6332.3
1012.1695	2855.8323	7242.5	6355.85
1012.2869	2856.9781	7243.95	6357.7
1012.4042	2858.1233	7276.45	6391.1
1012.5216	2859.2679	7310.7	6425.25
1012.6389	2860.4118	7328.2	6442.4
1012.7561	2861.555	7347.45	6455.85
1012.8733	2862.6976	7355.35	6467.7
1012.9905	2863.8395	7381.85	6495
1013.1076	2864.9808	7386.85	6500.15
1013.2247	2866.1214	7368.35	6484.35
1013.3417	2867.2614	7373.85	6487.8
1013.4587	2868.4007	7356.5	6468.75
1013.5757	2869.5393	7339.7	6451.25
1013.6926	2870.6773	7336.95	6448.5
1013.8095	2871.8146	7338.05	6448.1
1013.9263	2872.9513	7312	6423
1014.0431	2874.0874	7285.35	6398.45
1014.1599	2875.2227	7272.2	6385.8
1014.2766	2876.3574	7238.25	6351.4
1014.3933	2877.4915	7176.2	6289.25
1014.51	2878.6249	7142.5	6255.75
1014.6266	2879.7577	7096.85	6208.9
1014.7431	2880.8898	7086.75	6189.35
1014.8596	2882.0212	7031.65	6147.5
1014.9761	2883.152	7013.35	6127.2
1015.0925	2884.2821	6980	6094.55
1015.2089	2885.4116	6957.8	6072.4
1015.3253	2886.5405	6929.65	6043.75
1015.4416	2887.6686	6950.45	6061.1
1015.5579	2888.7962	6912.95	6027.4
1015.6741	2889.923	6892.4	6005.9
1015.7903	2891.0493	6890.05	6004
1015.9065	2892.1748	6873.6	5985.4
1016.0226	2893.2997	6874.55	5987.7
1016.1387	2894.424	6857.4	5972.55
1016.2547	2895.5476	6856.35	5968.85
1016.3707	2896.6706	6855.35	5970.25
1016.4866	2897.7929	6837.3	5950.35
1016.6025	2898.9145	6862.3	5976.2
1016.7184	2900.0355	6868.55	5981.05
1016.8342	2901.1559	6888	5999.55
1016.95	2902.2756	6878.25	5991.85
1017.0658	2903.3946	6901.2	6014.3
1017.1815	2904.513	6896.95	6006.05
1017.2971	2905.6308	6906.6	6019.9
1017.4127	2906.7479	6892.2	6004.7
1017.5283	2907.8643	6899.55	6012.75
1017.6439	2908.9801	6883.1	5997
1017.7594	2910.0953	6883.45	5997.2
1017.8748	2911.2098	6866.55	5974.65
1017.9902	2912.3236	6853.1	5958.6
1018.1056	2913.4368	6819.05	5929.6
1018.2209	2914.5494	6783.1	5899.2
1018.3362	2915.6613	6762.55	5868.45
1018.4515	2916.7725	6713.15	5825.55
1018.5667	2917.8831	6698.55	5811.95
1018.6819	2918.9931	6641.95	5751.85
1018.797	2920.1024	6619.6	5732
1018.9121	2921.211	6576.95	5688.55
1019.0271	2922.319	6543.45	5656.3
1019.1421	2923.4264	6507.9	5619.85
1019.2571	2924.5331	6496.8	5611.4
1019.372	2925.6391	6465.05	5578.75
1019.4869	2926.7445	6473.6	5587.35
1019.6017	2927.8493	6439.25	5551.5
1019.7165	2928.9534	6419.65	5532.2
1019.8313	2930.0569	6414.55	5523.4
1019.946	2931.1597	6403.55	5514.7
1020.0606	2932.2619	6381.05	5492.8
1020.1753	2933.3634	6367.5	5481.3
1020.2899	2934.4643	6375.6	5482.9
1020.4044	2935.5645	6330.5	5438.4
1020.5189	2936.6641	6298.45	5407.45
1020.6334	2937.763	6230.2	5343.3
1020.7478	2938.8613	6193.9	5307.95
1020.8622	2939.959	6143.25	5251.65
1020.9765	2941.056	6080.2	5192.7
1021.0908	2942.1523	5999.1	5112.55
1021.2051	2943.248	5903.55	5015.95
1021.3193	2944.3431	5819.75	4934.85
1021.4334	2945.4375	5733.95	4848.25
1021.5476	2946.5313	5627.7	4741.75
1021.6617	2947.6244	5531.05	4643.05
1021.7757	2948.7169	5442.2	4554.7
1021.8897	2949.8087	5327.35	4440.35
1022.0037	2950.8999	5253.55	4366.25
1022.1176	2951.9904	5172.2	4285.8
1022.2315	2953.0803	5086.45	4200.3
1022.3453	2954.1696	5013.2	4127
1022.4591	2955.2582	4954.45	4070.75
1022.5728	2956.3462	4917.25	4032
1022.6865	2957.4335	4866.5	3977.15
1022.8002	2958.5202	4827.8	3939.25
1022.9138	2959.6062	4785.1	3898.55
1023.0274	2960.6916	4762	3875.3
1023.141	2961.7764	4718.55	3832
1023.2545	2962.8605	4684.85	3795.3
1023.3679	2963.9439	4654.9	3768.4
1023.4813	2965.0267	4633.55	3748.8
1023.5947	2966.1089	4644.55	3735
1023.708	2967.1905	4594.35	3708
1023.8213	2968.2714	4586.5	3701
1023.9346	2969.3516	4560.25	3676.45
1024.0478	2970.4312	4568.15	3674.75
1024.1609	2971.5102	4538.55	3653.4
1024.274	2972.5885	4520.95	3634.95
1024.3871	2973.6662	4514.95	3623.45
1024.5002	2974.7432	4511.85	3626.6
1024.6132	2975.8196	4493.2	3606.35
1024.7261	2976.8954	4465.5	3577.55
1024.839	2977.9705	4439.35	3554.25
1024.9519	2979.045	4432.1	3547.8
1025.0647	2980.1188	4393.4	3508.1
1025.1775	2981.192	4378.3	3492.7
1025.2902	2982.2645	4355.45	3466.9
1025.4029	2983.3364	4314.7	3427
1025.5156	2984.4077	4270	3384.65
1025.6282	2985.4783	4250.45	3359.5
1025.7407	2986.5483	4189.7	3303.05
1025.8532	2987.6177	4169.75	3282.05
1025.9657	2988.6864	4130.75	3243.65
1026.0782	2989.7545	4093.1	3205.3
1026.1906	2990.8219	4069.9	3184.8
1026.3029	2991.8887	4032.15	3142.75
1026.4152	2992.9548	3995.3	3108.55
1026.5275	2994.0204	3956.3	3068.05
1026.6397	2995.0852	3918.4	3034.5
1026.7519	2996.1495	3891.65	3003.3
1026.864	2997.2131	3855.7	2970.5
1026.9761	2998.276	3824.35	2937.3
1027.0882	2999.3383	3791.1	2904.8
1027.2002	3000.4	3767.45	2882.85
1027.3122	3001.4611	3752.75	2863.55
1027.4241	3002.5215	3721.7	2833.95
1027.536	3003.5812	3691.55	2804.05
1027.6478	3004.6404	3679.75	2793.15
1027.7596	3005.6989	3664.35	2776
1027.8714	3006.7567	3643.4	2755.6
1027.9831	3007.8139	3644.95	2737.5
1028.0947	3008.8705	3596.05	2708.45
1028.2064	3009.9264	3585.45	2697
1028.3179	3010.9818	3563.55	2677.65
1028.4295	3012.0364	3570.15	2684.35
1028.541	3013.0905	3548.95	2662
1028.6524	3014.1439	3533.5	2647
1028.7638	3015.1966	3519.35	2633.4
1028.8752	3016.2487	3496.2	2608.35
1028.9865	3017.3002	3512.6	2621.55
1029.0978	3018.3511	3490.75	2604.65
1029.209	3019.4013	3480.15	2594.45
1029.3202	3020.4509	3478.3	2592.2
1029.4314	3021.4998	3462.05	2575.8
1029.5425	3022.5481	3451.1	2565.2
1029.6535	3023.5958	3445.35	2558.95
1029.7645	3024.6428	3432.4	2547.5
1029.8755	3025.6892	3426.7	2540.7
1029.9864	3026.735	3418.45	2530.7
1030.0973	3027.7802	3408.75	2522.55
1030.2082	3028.8247	3389.4	2503.85
1030.319	3029.8685	3362.95	2477.3
1030.4297	3030.9118	3375.1	2486.5
1030.5404	3031.9544	3354.75	2468.75
1030.6511	3032.9963	3354.45	2468.3
1030.7617	3034.0376	3343.5	2456.45
1030.8723	3035.0783	3359.85	2471.35
1030.9829	3036.1184	3347.45	2459.95
1031.0934	3037.1578	3327.2	2442.6
1031.2038	3038.1966	3325.8	2438.8
1031.3142	3039.2348	3315.45	2430.3
1031.4246	3040.2723	3318.25	2424.9
1031.5349	3041.3092	3289.2	2403.05
1031.6452	3042.3455	3275.9	2390.9
1031.7554	3043.3811	3278.8	2393.2
1031.8656	3044.4161	3261.85	2375.85
1031.9758	3045.4505	3252.85	2368.7
1032.0859	3046.4842	3238.25	2349.5
1032.1959	3047.5173	3222.05	2337.95
1032.3059	3048.5498	3212.9	2327.05
1032.4159	3049.5816	3204.8	2319.4
1032.5258	3050.6128	3199.1	2311.9
1032.6357	3051.6434	3186.2	2299.7
1032.7455	3052.6734	3171.4	2282.7
1032.8553	3053.7027	3158.1	2273.1
1032.9651	3054.7314	3142.5	2256.3
1033.0748	3055.7594	3130.3	2244.85
1033.1845	3056.7868	3126.1	2238.75
1033.2941	3057.8136	3118	2231.95
1033.4037	3058.8398	3098.3	2212.95
1033.5132	3059.8653	3080.35	2194
1033.6227	3060.8902	3075	2188.7
1033.7321	3061.9145	3065.2	2179.45
1033.8415	3062.9381	3041.35	2156
1033.9509	3063.9612	3050.55	2149.2
1034.0602	3064.9835	3020.8	2134.65
1034.1694	3066.0053	3017.95	2128.45
1034.2787	3067.0264	3018.5	2132.85
1034.3878	3068.0469	3000.5	2113.55
1034.497	3069.0668	2986.75	2098.75
1034.6061	3070.086	2977.4	2091.2
1034.7151	3071.1046	2957.4	2071.5
1034.8241	3072.1226	2945.75	2059.45
1034.9331	3073.1399	2938.1	2051.95
1035.042	3074.1567	2918.3	2032.7
1035.1508	3075.1727	2892.4	2004.05
1035.2597	3076.1882	2894.45	2006.2
1035.3684	3077.203	2881	1995.5
1035.4772	3078.2173	2862.5	1975.05
1035.5859	3079.2308	2858.05	1968.8
1035.6945	3080.2438	2831.9	1942.7
1035.8031	3081.2561	2825.2	1939.05
1035.9117	3082.2678	2813.1	1926.7
1036.0202	3083.2789	2810.45	1923.35
1036.1286	3084.2893	2787	1899.55
1036.2371	3085.2991	2770.45	1882.8
1036.3454	3086.3083	2761.55	1871.95
1036.4538	3087.3169	2752.4	1864.6
1036.562	3088.3248	2747.75	1860.2
1036.6703	3089.3321	2739.65	1851.1
1036.7785	3090.3388	2715.6	1830.1
1036.8866	3091.3449	2705.85	1819.35
1036.9948	3092.3503	2708.35	1819.35
1037.1028	3093.3551	2692.65	1806.55
1037.2108	3094.3593	2682.85	1796.8
1037.3188	3095.3629	2666.85	1780.4
1037.4267	3096.3658	2661.55	1776.15
1037.5346	3097.3681	2659.8	1774.95
1037.6425	3098.3698	2643.9	1755.45
1037.7503	3099.3708	2646.2	1755.6
1037.858	3100.3713	2612.7	1728.25
1037.9657	3101.3711	2597.05	1710
1038.0734	3102.3702	2713.8	1689.85
1038.181	3103.3688	2613.5	1724.55
1038.2886	3104.3667	2572.35	1686.7
1038.3961	3105.364	2559.8	1674.55
1038.5036	3106.3607	2561.85	1674.05
1038.611	3107.3568	2550.3	1662.3
1038.7184	3108.3522	2535.3	1651.25
1038.8257	3109.347	2518.9	1630.65
1038.933	3110.3412	2526.35	1637.4
1039.0403	3111.3348	2508.05	1621.45
1039.1475	3112.3277	2498.1	1612.75
1039.2547	3113.32	2489.45	1602.8
1039.3618	3114.3117	2482.45	1595.95
1039.4689	3115.3028	2469.6	1584.7
1039.5759	3116.2932	2459.75	1571.85
1039.6829	3117.2831	2452.4	1560.3
1039.7898	3118.2723	2446.55	1560.9
1039.8967	3119.2608	2433.5	1547.25
1040.0035	3120.2488	2422.85	1536.8
1040.1103	3121.2361	2412.4	1525.4
1040.2171	3122.2229	2403.65	1517
1040.3238	3123.209	2398.65	1509.65
1040.4305	3124.1944	2391.8	1506.45
1040.5371	3125.1793	2385	1499.35
1040.6437	3126.1635	2387.8	1501.95
1040.7502	3127.1471	2364.4	1476.5
1040.8567	3128.1301	2352.45	1467.05
1040.9631	3129.1125	2351.6	1465.4
1041.0695	3130.0942	2351.2	1464.95
1041.1759	3131.0753	2342.75	1447.4
1041.2822	3132.0558	2332.25	1445.15
1041.3884	3133.0357	2328	1440.7
1041.4946	3134.015	2322.45	1434
1041.6008	3134.9936	2313.1	1425.45
1041.7069	3135.9716	2330.8	1426.4
1041.813	3136.949	2307.6	1422.4
1041.919	3137.9258	2303.85	1413.15
1042.025	3138.902	2290.8	1396.3
1042.1309	3139.8775	2288.85	1402.95
1042.2368	3140.8524	2271.05	1383.9
1042.3427	3141.8267	2266.45	1378.45
1042.4485	3142.8004	2261.2	1374.2
1042.5542	3143.7735	2262.55	1373.2
1042.6599	3144.7459	2248.8	1361.8
1042.7656	3145.7178	2250.5	1364.4
1042.8712	3146.689	2244.75	1358.7
1042.9768	3147.6596	2228.6	1341.45
1043.0823	3148.6295	2228.1	1340.7
1043.1878	3149.5989	2209.95	1324
1043.2932	3150.5676	2206.65	1321.15
1043.3986	3151.5357	2208.05	1323.1
1043.5039	3152.5032	2188.2	1302.2
1043.6092	3153.4701	2184.55	1298.05
1043.7145	3154.4364	2181.3	1294.5
1043.8197	3155.402	2170.7	1284.35
1043.9248	3156.367	2177.65	1289.6
1044.03	3157.3315	2196.05	1267.85
1044.135	3158.2952	2158.65	1271.4
1044.24	3159.2584	2141.55	1256.8
1044.345	3160.221	2135.05	1250.15
1044.4499	3161.1829	2122.9	1236.2
1044.5548	3162.1442	2121.9	1235.2
1044.6596	3163.105	2113	1226.25
1044.7644	3164.065	2107.75	1222.35
1044.8692	3165.0245	2103	1213.8
1044.9739	3165.9834	2099.35	1212.5
1045.0785	3166.9416	2089.3	1205.55
1045.1831	3167.8993	2080.25	1192.9
1045.2877	3168.8563	2069.45	1182.45
1045.3922	3169.8127	2064.4	1180.85
1045.4966	3170.7684	2053.7	1167.5
1045.6011	3171.7236	2048.3	1162.6
1045.7054	3172.6782	2042.85	1158.25
1045.8098	3173.6321	2030.7	1143.15
1045.914	3174.5854	2030.35	1138.65
1046.0183	3175.5381	2034.4	1148.65
1046.1224	3176.4902	2030.8	1146.05
1046.2266	3177.4417	2015.45	1129.7
1046.3307	3178.3926	2012.15	1125.05
1046.4347	3179.3428	2003.95	1116.65
1046.5387	3180.2924	1997.35	1112.05
1046.6427	3181.2415	1996.95	1110.4
1046.7466	3182.1899	1985.15	1099.35
1046.8504	3183.1377	1981.85	1094.45
1046.9542	3184.0848	1978.9	1089.45
1047.058	3185.0314	1963.85	1076.3
1047.1617	3185.9773	1954.05	1067.95
1047.2654	3186.9227	1960.65	1074.6
1047.369	3187.8674	1953	1067.35
1047.4726	3188.8115	1944.75	1054.2
1047.5761	3189.755	1932.8	1046.2
1047.6796	3190.6979	1936.45	1050
1047.783	3191.6402	1931.15	1047.35
1047.8864	3192.5818	1924.65	1037.8
1047.9898	3193.5229	1932.1	1022.35
1048.0931	3194.4633	1915.45	1027.65
1048.1963	3195.4031	1903.6	1019.55
1048.2995	3196.3423	1898.25	1013.5
1048.4027	3197.2809	1899.25	1012.95
1048.5058	3198.2189	1897.55	1009.9
1048.6089	3199.1563	1890.5	998.1
1048.7119	3200.0931	1878.4	993.7
1048.8148	3201.0292	1877.4	991.85
1048.9178	3201.9648	1871.65	984.4
1049.0206	3202.8997	1868.5	978.65
1049.1235	3203.834	1871.8	986.35
1049.2262	3204.7677	1859.2	973
1049.329	3205.7008	1847.7	959.95
1049.4317	3206.6333	1846.45	961.4
1049.5343	3207.5652	1837.25	949.5
1049.6369	3208.4964	1829.25	944.25
1049.7394	3209.4271	1831.55	947.75
1049.8419	3210.3571	1830.65	944.45
1049.9444	3211.2865	1824.75	938.25
1050.0468	3212.2154	1818.65	930.85
1050.1491	3213.1436	1812.85	925.35
1050.2514	3214.0712	1819.85	927.05
1050.3537	3214.9982	1807.2	919.8
1050.4559	3215.9246	1802.45	915.05
1050.5581	3216.8503	1796.05	911.5
1050.6602	3217.7755	1779.7	891.15
1050.7623	3218.7001	1786.15	900.15
1050.8643	3219.624	1783.85	896.05
1050.9663	3220.5473	1773.75	889.15
1051.0682	3221.4701	1764.7	876.4
1051.1701	3222.3922	1780.95	892.2
1051.2719	3223.3137	1763.4	876.65
1051.3737	3224.2346	1759.3	873.35
1051.4754	3225.1549	1751.5	866.9
1051.5771	3226.0746	1744.2	857.75
1051.6788	3226.9937	1742.75	857.4
1051.7804	3227.9121	1734	848.1
1051.8819	3228.83	1726.5	842.7
1051.9834	3229.7473	1731.75	846.15
1052.0849	3230.6639	1727.4	841.4
1052.1863	3231.5799	1714.75	828.7
1052.2876	3232.4954	1722.65	836.4
1052.3889	3233.4102	1714.2	829.55
1052.4902	3234.3244	1706.2	819.4
1052.5914	3235.238	1704.65	818.35
1052.6926	3236.151	1720.35	811.6
1052.7937	3237.0634	1689.25	805.2
1052.8948	3237.9752	1689.55	805.2
1052.9958	3238.8864	1679.2	793.05
1053.0968	3239.797	1674.25	787.95
1053.1977	3240.7069	1678.75	792.15
1053.2986	3241.6163	1666.3	778
1053.3994	3242.5251	1658.7	772.5
1053.5002	3243.4332	1656.25	770.95
1053.6009	3244.3408	1655.2	769.25
1053.7016	3245.2477	1654.95	770.35
1053.8022	3246.154	1645.55	760
1053.9028	3247.0598	1638.65	753.25
1054.0034	3247.9649	1631.4	744.55
1054.1039	3248.8694	1632.45	747.6
1054.2043	3249.7733	1622.1	735.65
1054.3047	3250.6766	1621.2	734.9
1054.4051	3251.5793	1614.95	728.35
1054.5054	3252.4814	1611.4	724.6
1054.6056	3253.3829	1608.35	720.95
1054.7058	3254.2838	1599.9	714.9
1054.806	3255.1841	1593.95	709.5
1054.9061	3256.0838	1587.2	701.1
1055.0061	3256.9829	1579.6	695.2
1055.1062	3257.8814	1580.55	689.75
1055.2061	3258.7792	1570.85	681.4
1055.306	3259.6765	1572.1	684.9
1055.4059	3260.5731	1555.15	670.55
1055.5057	3261.4692	1551.9	665.75
1055.6055	3262.3647	1541.9	655.7
1055.7052	3263.2595	1534.65	647.95
1055.8049	3264.1538	1526.75	640.8
1055.9045	3265.0474	1509.1	623.2
1056.0041	3265.9404	1506.7	620.3
1056.1036	3266.8329	1494.15	607.95
1056.2031	3267.7247	1495.75	600.75
1056.3025	3268.616	1476.7	591.35
1056.4019	3269.5066	1451.55	565.35
1056.5013	3270.3966	1444.65	556.1
1056.6005	3271.286	1420.5	536
