Software Version:	3.9.2.0
Unit SN:	10000200
Spectrometer SN:	6960
Date:	3/6/2024 9:45:57 AM
Data Line Index:	25
Spectral Points:	2048
Integration time (ms):	125
Averages:	20
Delay (ms):	30
Sequence Number:	1
Processing:	dark subtract
Laser Power (mW):	305
Laser Current (mA):	824
Laser Diode Temp (C):	25
Laser Case Temp (C):	24.2
System Temp (C):	24
Spectrometer Temp (C):	21.5
CCD Temp (C):	-0.03
Secondary Temp (C):	20.006
Heatsink Temp (C):	18.121
CCDPCB Temp (C):	31.127
SecondaryPCB Temp (C):	25.625

Wavelength	RamanShift	Raw Counts	Dark Subtracted
787.061	30.1047	456.4	48.6
787.2016	32.3739	455.2	47.9
787.3422	34.6426	460.7	54.2
787.4828	36.9109	464.6	55.8
787.6235	39.1787	470.3	57.35
787.7642	41.4461	480.3	62.25
787.9049	43.7131	485.8	63
788.0456	45.9796	491.7	68.5
788.1863	48.2456	499.9	73.65
788.3271	50.5112	512.25	81.15
788.4679	52.7764	516.3	82.85
788.6087	55.0411	524.8	86.9
788.7496	57.3054	536.25	93.75
788.8904	59.5692	542.1	97.25
789.0313	61.8326	553.45	106.65
789.1722	64.0955	562	113.45
789.3132	66.3579	578.5	123.5
789.4541	68.6199	591.85	134.6
789.5951	70.8815	619.6	161.5
789.7361	73.1426	675.65	211.2
789.8771	75.4032	805.75	336.6
790.0181	77.6634	1145.9	671.35
790.1592	79.9231	1923.45	1447.8
790.3003	82.1824	3583.85	3103.1
790.4414	84.4412	6480.7	5989.45
790.5825	86.6995	10418.25	9915.6
790.7237	88.9574	14268.4	13757.75
790.8648	91.2148	17098.45	16580.25
791.006	93.4717	18646.95	18124.7
791.1472	95.7282	19355.15	18828.25
791.2885	97.9842	19705.3	19177.3
791.4297	100.2398	19826.75	19296.9
791.571	102.4949	19845.15	19312.45
791.7123	104.7495	19897.45	19359.25
791.8536	107.0036	19872.55	19333.05
791.9949	109.2573	19883.85	19346
792.1363	111.5105	19943.85	19402.85
792.2777	113.7632	19924.75	19381.4
792.4191	116.0154	19930.8	19377.5
792.5605	118.2672	20002.1	19455.15
792.7019	120.5185	19980.75	19432.55
792.8434	122.7693	20032	19480.85
792.9849	125.0197	20076.75	19521.1
793.1264	127.2696	20081.6	19520.8
793.2679	129.519	20151.25	19590.1
793.4094	131.7679	20214.25	19650.65
793.551	134.0163	20242.25	19675.85
793.6926	136.2642	20246.7	19675.15
793.8342	138.5117	20283.5	19706.65
793.9758	140.7587	20287.9	19712.75
794.1175	143.0052	20322.6	19743.45
794.2591	145.2512	20325.3	19749
794.4008	147.4967	20291.6	19713.95
794.5425	149.7417	20296.05	19714
794.6842	151.9863	20299.55	19711.15
794.826	154.2304	20333.8	19742.15
794.9677	156.4739	20273.55	19675.65
795.1095	158.717	20289.25	19694.45
795.2513	160.9596	20338.95	19739.1
795.3931	163.2017	20318.05	19712.9
795.535	165.4433	20364.75	19758.95
795.6768	167.6844	20381.45	19773.8
795.8187	169.925	20398.65	19789.4
795.9606	172.1651	20332.25	19718.25
796.1025	174.4047	20334.7	19717.65
796.2445	176.6439	20340.75	19721.25
796.3864	178.8825	20353.7	19731.95
796.5284	181.1206	20369.95	19745
796.6704	183.3582	20385.2	19757.35
796.8124	185.5954	20390.35	19758.4
796.9544	187.832	20437	19800.9
797.0965	190.0681	20466.3	19827.7
797.2386	192.3037	20513.75	19870.35
797.3806	194.5388	20541.9	19896.15
797.5228	196.7734	20580.6	19934.35
797.6649	199.0075	20666.3	20017
797.807	201.2411	20773	20123.9
797.9492	203.4742	20763.6	20113.7
798.0914	205.7068	20881.8	20226.45
798.2336	207.9389	20880.9	20223
798.3758	210.1704	20982.1	20329.85
798.518	212.4015	20925.1	20282.4
798.6603	214.632	20968.15	20333.55
798.8025	216.862	20975.85	20345.25
798.9448	219.0915	21003.4	20367.3
799.0871	221.3205	21021.2	20381.55
799.2294	223.549	21068.9	20435.7
799.3718	225.777	21128.6	20495.85
799.5141	228.0044	21148.2	20505.3
799.6565	230.2314	21200.45	20556.1
799.7989	232.4578	21223.05	20575.8
799.9413	234.6837	21235.2	20580.05
800.0837	236.909	21312.55	20655.95
800.2262	239.1339	21301.5	20620.25
800.3687	241.3582	21312.95	20644.25
800.5111	243.582	21348.9	20650.15
800.6536	245.8053	21341.75	20659.35
800.7961	248.0281	21346.1	20667.55
800.9387	250.2503	21379.3	20694.5
801.0812	252.472	21376.4	20689.95
801.2238	254.6932	21446.85	20760.7
801.3664	256.9139	21408.75	20722.45
801.509	259.134	21423.65	20731.85
801.6516	261.3536	21421.5	20730.75
801.7942	263.5727	21502.9	20813.15
801.9369	265.7912	21492.55	20800.8
802.0795	268.0092	21530.1	20839.1
802.2222	270.2267	21540.45	20849.95
802.3649	272.4436	21575.85	20885.65
802.5076	274.6601	21614.45	20909.45
802.6504	276.8759	21606.25	20904.8
802.7931	279.0913	21626.25	20924.65
802.9359	281.3061	21648.55	20946.45
803.0787	283.5204	21696.3	20989.85
803.2215	285.7341	21702.5	20996.5
803.3643	287.9473	21776.3	21056.8
803.5071	290.16	21793.85	21082.8
803.6499	292.3721	21747	21042.65
803.7928	294.5837	21712.5	21008.4
803.9357	296.7947	21705.25	20997.45
804.0786	299.0052	21698.3	20992.5
804.2215	301.2152	21653.05	20942.35
804.3644	303.4246	21687.45	20979.8
804.5074	305.6334	21657.8	20947.85
804.6503	307.8418	21638.15	20925.15
804.7933	310.0495	21634.3	20919.3
804.9363	312.2568	21590.25	20876.15
805.0793	314.4635	21523.55	20807.15
805.2223	316.6696	21477	20756.95
805.3653	318.8752	21420.25	20692.4
805.5084	321.0802	21385.2	20664.7
805.6514	323.2847	21411.45	20687.25
805.7945	325.4887	21394.5	20669.85
805.9376	327.692	21339.9	20615.65
806.0807	329.8949	21440.15	20715.1
806.2238	332.0972	21418.55	20689.6
806.367	334.2989	21481.7	20750.65
806.5101	336.5001	21441.25	20708.5
806.6533	338.7007	21436.55	20705.55
806.7965	340.9008	21465.95	20731.15
806.9397	343.1003	21387.55	20650.1
807.0829	345.2992	21395.3	20657.8
807.2261	347.4976	21357.65	20619.3
807.3693	349.6955	21309.65	20566.95
807.5126	351.8927	21392.45	20648.3
807.6559	354.0895	21316.65	20561.1
807.7991	356.2856	21348	20603.4
807.9424	358.4812	21296.75	20550.25
808.0857	360.6763	21327.45	20577.8
808.2291	362.8707	21303.05	20552.05
808.3724	365.0646	21324.6	20569.95
808.5158	367.258	21289.5	20535
808.6591	369.4508	21264.9	20508.5
808.8025	371.643	21279.75	20523.05
808.9459	373.8346	21214.6	20454.8
809.0893	376.0257	21227.2	20463.65
809.2327	378.2162	21193.4	20433.75
809.3762	380.4062	21211.15	20448.65
809.5196	382.5956	21126.6	20367.35
809.6631	384.7844	21136.05	20380.3
809.8066	386.9726	21049.7	20296.2
809.9501	389.1603	21022.05	20271.2
810.0936	391.3474	21008	20210.65
810.2371	393.5339	20983.85	20229.6
810.3806	395.7199	20914.55	20164.6
810.5241	397.9052	20938.75	20184.85
810.6677	400.09	20910.25	20152.95
810.8113	402.2743	20953.65	20196.55
810.9548	404.4579	20932.8	20173.65
811.0984	406.641	20987.3	20225.4
811.2421	408.8235	21032.5	20267.65
811.3857	411.0054	21053.65	20288.25
811.5293	413.1868	21166.35	20398.95
811.673	415.3675	21163.75	20389.2
811.8166	417.5477	21163.55	20391.55
811.9603	419.7273	21095.1	20318.6
812.104	421.9064	20963.5	20180.5
812.2477	424.0848	20899.35	20122.45
812.3914	426.2627	20789.4	20011
812.5351	428.4399	20762.15	19983.3
812.6788	430.6166	20694.85	19914.45
812.8226	432.7928	20648.55	19866.45
812.9663	434.9683	20578.85	19795.6
813.1101	437.1432	20550.2	19766.65
813.2539	439.3176	20465.25	19681.8
813.3977	441.4914	20376.4	19594.7
813.5415	443.6645	20374.9	19587.7
813.6853	445.8371	20259.95	19478.5
813.8291	448.0091	20232.4	19447.55
813.973	450.1806	20188.2	19402.3
814.1168	452.3514	20102.7	19314.65
814.2607	454.5216	20114.55	19320.35
814.4046	456.6913	20008.9	19220.6
814.5485	458.8603	20031.05	19241.05
814.6924	461.0288	20046.2	19258.9
814.8363	463.1967	19999.35	19212.5
814.9802	465.3639	20019.2	19229.65
815.1241	467.5306	19977.7	19189.45
815.2681	469.6967	19902.15	19112.2
815.412	471.8622	19850.35	19059.8
815.556	474.0271	19857	19066.25
815.7	476.1914	19848.85	19055.1
815.844	478.3551	19821.05	19027.8
815.988	480.5182	19852.75	19062.8
816.132	482.6807	19830.2	19038.15
816.276	484.8426	19870.05	19076.7
816.4201	487.0039	19888.15	19094.45
816.5641	489.1647	19908	19111.95
816.7082	491.3248	19970.75	19175.1
816.8522	493.4843	19967.9	19173.1
816.9963	495.6432	19918.95	19123.25
817.1404	497.8015	19853.8	19051.75
817.2845	499.9592	19886.45	19088.85
817.4286	502.1163	19799.75	19002.9
817.5727	504.2728	19739	18936.55
817.7168	506.4287	19752.55	18953.4
817.861	508.5839	19707.65	18907.3
818.0051	510.7386	19670.35	18869.1
818.1493	512.8927	19658.7	18852.3
818.2935	515.0461	19700.1	18896.2
818.4377	517.199	19668.75	18863.95
818.5818	519.3512	19665.85	18862.1
818.726	521.5029	19718.2	18907.1
818.8703	523.6539	19696.6	18888.85
819.0145	525.8043	19687.1	18878.95
819.1587	527.9541	19663.8	18851.8
819.303	530.1033	19583.95	18772.15
819.4472	532.2519	19540.3	18731.3
819.5915	534.3999	19509.3	18695.9
819.7357	536.5472	19483.45	18670.6
819.88	538.694	19483.65	18674.05
820.0243	540.8401	19543.3	18728.85
820.1686	542.9856	19540.85	18724.6
820.3129	545.1305	19473.2	18656.45
820.4572	547.2748	19512.25	18693.9
820.6016	549.4185	19488.75	18671.55
820.7459	551.5615	19428.6	18613.5
820.8902	553.704	19448.65	18634.9
821.0346	555.8458	19429.75	18615.95
821.1789	557.987	19439.35	18627.15
821.3233	560.1276	19388.1	18571.25
821.4677	562.2675	19439.9	18623.2
821.6121	564.4069	19458.8	18644.4
821.7565	566.5456	19414.35	18600.05
821.9009	568.6837	19436.05	18620.15
822.0453	570.8212	19347.45	18531.3
822.1897	572.958	19272.35	18452.65
822.3342	575.0942	19195.15	18379.4
822.4786	577.2299	19117.9	18301.5
822.6231	579.3648	19066.2	18250.6
822.7675	581.4992	18958.9	18142.75
822.912	583.6329	18897.5	18080.05
823.0565	585.766	18913.15	18097.1
823.201	587.8985	18895.95	18076.75
823.3454	590.0304	18833.75	18003
823.4899	592.1616	18833.25	18008.9
823.6345	594.2922	18808	17983.4
823.779	596.4222	18745.6	17922.4
823.9235	598.5515	18702	17879.05
824.068	600.6802	18630.8	17806
824.2126	602.8083	18526.7	17703.25
824.3571	604.9358	18502.9	17676.05
824.5017	607.0626	18444.3	17618.4
824.6462	609.1888	18469.3	17641.85
824.7908	611.3144	18452.7	17623.5
824.9354	613.4393	18395.75	17568
825.08	615.5636	18415.3	17587.55
825.2246	617.6873	18449.6	17620.9
825.3692	619.8103	18473.05	17641.45
825.5138	621.9327	18410.1	17577.7
825.6584	624.0544	18381.2	17552.35
825.803	626.1756	18348.55	17518.5
825.9477	628.2961	18308.85	17478.35
826.0923	630.4159	18253.25	17424.3
826.237	632.5351	18271.45	17439.8
826.3816	634.6537	18203.55	17368.9
826.5263	636.7716	18201.1	17365.8
826.6709	638.8889	18203.3	17369.25
826.8156	641.0056	18228.8	17396.3
826.9603	643.1216	18176.85	17340.15
827.105	645.237	18196.15	17356.85
827.2497	647.3518	18128.3	17294.25
827.3944	649.4659	18137.6	17304.1
827.5391	651.5793	18081.2	17244.4
827.6838	653.6922	18066.75	17233.15
827.8285	655.8043	17984.2	17148.85
827.9733	657.9159	17989.1	17153.3
828.118	660.0268	17920.45	17083.7
828.2627	662.137	17903.4	17065.2
828.4075	664.2466	17927.15	17087
828.5522	666.3556	17868.3	17030.15
828.697	668.4639	17808.35	16969.2
828.8418	670.5716	17863.85	17026.3
828.9865	672.6786	17837	16995.4
829.1313	674.785	17811.85	16970.95
829.2761	676.8907	17719.5	16877.4
829.4209	678.9958	17713.4	16877.1
829.5657	681.1002	17671.2	16830.45
829.7105	683.204	17661.85	16817.1
829.8553	685.3072	17632.6	16787.45
830.0001	687.4097	17596.3	16753.3
830.1449	689.5115	17587.8	16744.5
830.2898	691.6127	17567.45	16725
830.4346	693.7132	17513.7	16668.75
830.5794	695.8131	17549.65	16682.65
830.7243	697.9123	17561.55	16714.9
830.8691	700.0109	17506.35	16661.15
831.014	702.1089	17493.45	16650.75
831.1588	704.2061	17497.5	16652.55
831.3037	706.3028	17447.05	16600.25
831.4486	708.3987	17470.8	16625
831.5935	710.4941	17431.6	16585.45
831.7383	712.5887	17440.9	16595.8
831.8832	714.6827	17430.65	16580.35
832.0281	716.7761	17442.75	16596.85
832.173	718.8688	17421.35	16572.25
832.3179	720.9608	17375.45	16522.8
832.4628	723.0522	17372.95	16517.2
832.6077	725.1429	17316.25	16468.8
832.7527	727.233	17335.9	16487.35
832.8976	729.3224	17352.95	16503.95
833.0425	731.4112	17350.65	16501.35
833.1874	733.4993	17300.15	16448.45
833.3324	735.5867	17301.35	16447.55
833.4773	737.6735	17194.85	16343.85
833.6222	739.7596	17146.2	16293.3
833.7672	741.845	17103.4	16251.8
833.9122	743.9298	17063.2	16210.05
834.0571	746.014	17038.45	16186.65
834.2021	748.0974	17020.35	16167.5
834.347	750.1802	17001.8	16146.85
834.492	752.2624	16941.4	16087.8
834.637	754.3439	16877.6	16023.75
834.782	756.4247	16827.75	15963.7
834.9269	758.5048	16772.25	15919.45
835.0719	760.5843	16736.6	15882.1
835.2169	762.6631	16740.2	15884.3
835.3619	764.7413	16705.35	15852.7
835.5069	766.8188	16770	15911.45
835.6519	768.8956	16715.25	15858.25
835.7969	770.9718	16732.8	15877.6
835.9419	773.0473	16698.05	15844.15
836.0869	775.1221	16640.2	15783.2
836.232	777.1962	16561	15704.75
836.377	779.2697	16569.85	15712.75
836.522	781.3426	16603.45	15727.05
836.667	783.4147	16606	15749.65
836.8121	785.4862	16585.3	15728.45
836.9571	787.557	16496.9	15638.8
837.1021	789.6271	16423.45	15563.55
837.2472	791.6966	16329.3	15471.25
837.3922	793.7654	16224.65	15366.15
837.5373	795.8335	16189.15	15329.35
837.6823	797.901	16127.2	15267.75
837.8274	799.9678	16107.55	15246.05
837.9724	802.0339	16101.5	15242.95
838.1175	804.0993	16105.35	15236.55
838.2626	806.1641	16009.1	15148.55
838.4076	808.2282	16000.7	15144.4
838.5527	810.2916	15996.85	15134.9
838.6978	812.3544	15946.25	15087.55
838.8428	814.4164	15925.5	15066.75
838.9879	816.4778	15932.1	15069.3
839.133	818.5385	15872.1	15010.95
839.2781	820.5986	15892.15	15033.7
839.4232	822.658	15886.85	15025.4
839.5682	824.7166	15872.6	15012.25
839.7133	826.7747	15953	15094.7
839.8584	828.832	15953	15090.8
840.0035	830.8886	15928.75	15062
840.1486	832.9446	15919.9	15055.2
840.2937	834.9999	15869.95	15009.35
840.4388	837.0545	15860.25	14993.85
840.5839	839.1085	15784.4	14920.75
840.729	841.1618	15733.35	14864.7
840.8741	843.2143	15684.15	14823.1
841.0192	845.2662	15579.6	14718.7
841.1643	847.3175	15589.95	14727
841.3095	849.368	15526.15	14662.45
841.4546	851.4179	15528.95	14664
841.5997	853.467	15478.65	14612.5
841.7448	855.5155	15439.05	14576.4
841.8899	857.5633	15410.1	14545.85
842.0351	859.6105	15361.4	14496.9
842.1802	861.6569	15377.05	14511.9
842.3253	863.7027	15300.8	14437.45
842.4704	865.7478	15298.4	14432.5
842.6156	867.7922	15280.35	14416.2
842.7607	869.8359	15226.45	14361.45
842.9058	871.8789	15203.7	14337.3
843.0509	873.9212	15223.2	14325.55
843.1961	875.9629	15173.6	14306.55
843.3412	878.0039	15180.95	14314.3
843.4863	880.0441	15213	14347.75
843.6315	882.0837	15172.35	14304.85
843.7766	884.1226	15177.3	14308.2
843.9218	886.1609	15171.15	14305.05
844.0669	888.1984	15163.35	14297.85
844.212	890.2352	15231.25	14366.55
844.3572	892.2714	15203.25	14333.1
844.5023	894.3069	15180.95	14313
844.6475	896.3416	15077.65	14208.9
844.7926	898.3757	15061.65	14192.75
844.9377	900.4091	15026.55	14157.75
845.0829	902.4418	15036.4	14162.5
845.228	904.4739	14968.55	14098.05
845.3732	906.5052	14975.35	14104.7
845.5183	908.5358	14917.55	14047
845.6635	910.5658	14877.85	14005.5
845.8086	912.595	14877.45	14007.65
845.9538	914.6236	14815.35	13945.6
846.0989	916.6515	14772.4	13903.6
846.2441	918.6786	14727	13855.95
846.3892	920.7051	14709.85	13837.4
846.5344	922.7309	14736.8	13866.2
846.6795	924.756	14671.6	13799.7
846.8246	926.7804	14662.5	13790.8
846.9698	928.8041	14591.9	13717.65
847.1149	930.8272	14599.35	13729.55
847.2601	932.8495	14524.35	13650.35
847.4052	934.8711	14544.95	13671.8
847.5504	936.892	14476.2	13607.15
847.6955	938.9123	14447.25	13576.2
847.8407	940.9318	14400.9	13528.4
847.9858	942.9506	14381.15	13509.25
848.131	944.9688	14318.35	13446.7
848.2761	946.9862	14292.3	13419.55
848.4213	949.003	14232.25	13358.2
848.5664	951.019	14174.75	13301.7
848.7115	953.0344	14126.1	13254.1
848.8567	955.0491	14107.6	13234.75
849.0018	957.063	14097.75	13225.15
849.147	959.0763	14111.05	13240.75
849.2921	961.0888	14045.9	13169.9
849.4373	963.1007	14059.1	13186
849.5824	965.1119	14011.3	13142.55
849.7275	967.1223	14007.8	13135.65
849.8727	969.1321	13994.45	13123.35
850.0178	971.1412	13962.4	13091.15
850.1629	973.1495	13935.3	13062
850.3081	975.1572	13933.3	13017
850.4532	977.1641	13920.4	13046.5
850.5983	979.1704	13868.65	12993
850.7435	981.1759	13815.2	12938.3
850.8886	983.1808	13816.95	12940.65
851.0337	985.1849	13779.2	12892.7
851.1788	987.1884	13715.15	12839.65
851.324	989.1911	13735.15	12857.95
851.4691	991.1932	13710.5	12835.15
851.6142	993.1945	13653.55	12779.2
851.7593	995.1951	13594	12720.05
851.9045	997.1951	13596.6	12713.15
852.0496	999.1943	13526.75	12653.4
852.1947	1001.1928	13489.1	12612.1
852.3398	1003.1906	13430.55	12554.05
852.4849	1005.1877	13419.2	12543.25
852.63	1007.1841	13386.8	12510.4
852.7751	1009.1798	13357.55	12482.4
852.9202	1011.1748	13302.85	12429.25
853.0653	1013.1691	13232.75	12356.3
853.2104	1015.1627	13159.6	12283.15
853.3555	1017.1556	13069.15	12194.2
853.5006	1019.1477	13033.1	12158.75
853.6457	1021.1392	12946.55	12072.75
853.7908	1023.1299	12937.6	12062.15
853.9359	1025.12	12878.65	12001.25
854.081	1027.1093	12828.75	11955.55
854.2261	1029.0979	12793.35	11923.2
854.3712	1031.0859	12775.2	11902.5
854.5163	1033.0731	12748.1	11872.7
854.6613	1035.0596	12703.95	11830.7
854.8064	1037.0454	12636.65	11758.95
854.9515	1039.0304	12642.9	11766.5
855.0965	1041.0148	12570.15	11693.45
855.2416	1042.9985	12524.35	11645.9
855.3867	1044.9814	12534.9	11659
855.5317	1046.9636	12448.6	11571.4
855.6768	1048.9452	12413.1	11538
855.8219	1050.926	12425.7	11549.65
855.9669	1052.9061	12375.4	11498.5
856.112	1054.8855	12335.85	11457.8
856.257	1056.8642	12329.1	11454.2
856.4021	1058.8421	12321.15	11439.5
856.5471	1060.8194	12244.1	11367.15
856.6921	1062.7959	12232.35	11355.6
856.8372	1064.7717	12192.85	11314.1
856.9822	1066.7469	12220.2	11341.85
857.1272	1068.7213	12199.15	11319.1
857.2723	1070.695	12200.55	11322.1
857.4173	1072.6679	12120.85	11242.55
857.5623	1074.6402	12134.05	11256.5
857.7073	1076.6117	12140	11256.55
857.8523	1078.5826	12114.4	11236.6
857.9973	1080.5527	12071.6	11188.85
858.1423	1082.5221	11989.05	11109.85
858.2873	1084.4908	11977.05	11097.25
858.4323	1086.4587	11920.5	11040.25
858.5773	1088.426	11910.6	11032.7
858.7223	1090.3925	11884	10999.85
858.8673	1092.3584	11879.45	11001.85
859.0123	1094.3235	11792.25	10914.3
859.1573	1096.2879	11800.1	10921.1
859.3022	1098.2515	11791.35	10912.35
859.4472	1100.2145	11807.6	10929.3
859.5922	1102.1767	11753.5	10872
859.7371	1104.1382	11748.85	10869.55
859.8821	1106.099	11744.5	10861.9
860.027	1108.0591	11753.45	10873.2
860.172	1110.0185	11739.5	10860.25
860.3169	1111.9771	11773.9	10895.45
860.4619	1113.9351	11756.45	10877.45
860.6068	1115.8923	11750.1	10871.3
860.7517	1117.8488	11732.55	10849.9
860.8967	1119.8045	11654.25	10777
861.0416	1121.7596	11603.5	10723.1
861.1865	1123.7139	11511.7	10631.75
861.3314	1125.6675	11459.05	10578.35
861.4763	1127.6204	11459.8	10579.75
861.6212	1129.5726	11416.8	10535.7
861.7661	1131.524	11413.2	10534.35
861.911	1133.4748	11369.05	10487.7
862.0559	1135.4248	11304.25	10421.9
862.2008	1137.3741	11245.85	10364.45
862.3457	1139.3226	11230.25	10348.4
862.4905	1141.2705	11228.4	10348.55
862.6354	1143.2176	11176.85	10289.4
862.7803	1145.164	11185.35	10302
862.9251	1147.1097	11144.5	10264.45
863.07	1149.0546	11121.95	10242
863.2148	1150.9989	11086.45	10207.6
863.3597	1152.9424	11064.85	10183.65
863.5045	1154.8852	11043.5	10163.05
863.6493	1156.8272	11023.35	10143.35
863.7942	1158.7686	11049.45	10159.5
863.939	1160.7092	11022.25	10142.55
864.0838	1162.6491	10971.65	10086.75
864.2286	1164.5883	10981.05	10101.75
864.3734	1166.5267	10950.2	10069.3
864.5182	1168.4644	10930.8	10048.1
864.663	1170.4014	10950.75	10065.55
864.8078	1172.3377	10943.55	10064.35
864.9526	1174.2732	10970.6	10089.45
865.0974	1176.2081	10989.85	10109.3
865.2421	1178.1421	11051.35	10163.8
865.3869	1180.0755	11091.75	10212.3
865.5317	1182.0082	11068.6	10188.75
865.6764	1183.9401	11076.1	10192
865.8212	1185.8713	11007.45	10129.25
865.9659	1187.8017	10904.45	10024.05
866.1106	1189.7315	10856.8	9981.5
866.2554	1191.6605	10757.3	9878.25
866.4001	1193.5888	10664.15	9783.85
866.5448	1195.5163	10633.4	9751.7
866.6895	1197.4432	10589.85	9707.9
866.8342	1199.3693	10540.95	9659.85
866.9789	1201.2947	10498.2	9609.15
867.1236	1203.2193	10472.65	9589.05
867.2683	1205.1432	10452.25	9569.7
867.413	1207.0664	10399.75	9516.65
867.5576	1208.9889	10379.4	9495
867.7023	1210.9106	10344.4	9463.35
867.847	1212.8316	10304.25	9424.1
867.9916	1214.7519	10295.35	9407.35
868.1363	1216.6715	10265.8	9384.45
868.2809	1218.5903	10267.15	9387.75
868.4255	1220.5084	10240.1	9357.95
868.5701	1222.4257	10248.3	9365.3
868.7148	1224.3424	10199.15	9319.4
868.8594	1226.2583	10182.6	9295.35
869.004	1228.1735	10183.05	9299.55
869.1486	1230.0879	10164.55	9280.95
869.2932	1232.0016	10185	9302.35
869.4377	1233.9146	10179.2	9295
869.5823	1235.8269	10140.2	9257.5
869.7269	1237.7384	10142.75	9260.85
869.8715	1239.6492	10097.25	9214.4
870.016	1241.5592	10097.5	9214.4
870.1606	1243.4686	10085.6	9204.1
870.3051	1245.3772	10146.9	9264.65
870.4496	1247.285	10152.75	9268.8
870.5941	1249.1922	10150.1	9266.5
870.7387	1251.0986	10188.3	9306.95
870.8832	1253.0042	10200.8	9318.6
871.0277	1254.9092	10265.9	9384.15
871.1722	1256.8134	10256.4	9373.15
871.3167	1258.7169	10321.75	9439.6
871.4611	1260.6196	10297.8	9413.4
871.6056	1262.5216	10300.85	9416.7
871.7501	1264.4229	10258.15	9377.05
871.8945	1266.3234	10238.95	9354.85
872.039	1268.2232	10196.3	9312.85
872.1834	1270.1223	10157.45	9273.05
872.3278	1272.0207	10154.9	9271.9
872.4723	1273.9183	10101.4	9209.4
872.6167	1275.8151	10080.95	9196.9
872.7611	1277.7113	10105.8	9222.3
872.9055	1279.6067	10114.35	9232.6
873.0499	1281.5014	10174.05	9287.8
873.1943	1283.3953	10254.5	9369.65
873.3386	1285.2885	10364.7	9481.75
873.483	1287.181	10432.55	9550.2
873.6274	1289.0727	10456.1	9573.2
873.7717	1290.9637	10436.7	9553.75
873.9161	1292.854	10384.5	9502.2
874.0604	1294.7435	10290.4	9405.4
874.2047	1296.6323	10248.8	9365.65
874.349	1298.5204	10175.3	9288
874.4933	1300.4077	10089.7	9205
874.6376	1302.2943	10035.15	9151.85
874.7819	1304.1802	10039.2	9157.6
874.9262	1306.0653	9985	9099.7
875.0705	1307.9497	9962.1	9078.25
875.2147	1309.8333	9958.65	9076.25
875.359	1311.7162	9923.8	9040.6
875.5032	1313.5984	9894.15	9005.6
875.6475	1315.4798	9858	8958.85
875.7917	1317.3605	9835.9	8935.9
875.9359	1319.2405	9818.8	8934
876.0801	1321.1197	9786.15	8901.1
876.2243	1322.9982	9727.45	8838.5
876.3685	1324.876	9693.4	8811.95
876.5127	1326.753	9598.4	8713.25
876.6569	1328.6293	9567.95	8683.8
876.801	1330.5048	9538	8651.25
876.9452	1332.3796	9443.35	8563.5
877.0893	1334.2537	9430.55	8519.95
877.2335	1336.127	9367.25	8482.85
877.3776	1337.9996	9351.05	8466.45
877.5217	1339.8714	9312.05	8427.65
877.6658	1341.7426	9323.25	8395.1
877.8099	1343.6129	9262.4	8377.05
877.954	1345.4826	9225.05	8340.4
878.0981	1347.3515	9239.25	8351.3
878.2422	1349.2196	9198.3	8313.95
878.3862	1351.087	9196.5	8311.2
878.5303	1352.9537	9195.1	8309.85
878.6743	1354.8197	9178.35	8293.8
878.8184	1356.6849	9195.6	8308.3
878.9624	1358.5493	9174.55	8290.6
879.1064	1360.4131	9156.3	8272.8
879.2504	1362.276	9184.15	8301.1
879.3944	1364.1383	9161.7	8276.8
879.5384	1365.9998	9143.6	8251.4
879.6823	1367.8606	9100.3	8215.35
879.8263	1369.7206	9097.25	8212.4
879.9702	1371.5799	9077.9	8191.05
880.1142	1373.4384	9042.2	8158.7
880.2581	1375.2962	9032.8	8146.1
880.402	1377.1533	8956.6	8072.4
880.5459	1379.0096	8899.35	8012.35
880.6898	1380.8652	8849.95	7967.5
880.8337	1382.7201	8828.1	7941.1
880.9776	1384.5742	8786.05	7901.8
881.1215	1386.4275	8722.3	7839.45
881.2653	1388.2802	8704.7	7822.9
881.4092	1390.132	8677.35	7792.55
881.553	1391.9832	8664.85	7781.25
881.6968	1393.8336	8607.95	7721.35
881.8406	1395.6832	8596.55	7711.55
881.9844	1397.5322	8544.55	7659.9
882.1282	1399.3803	8554.05	7664.65
882.272	1401.2278	8475.05	7589.55
882.4158	1403.0745	8453.05	7569.9
882.5595	1404.9204	8420.6	7535.05
882.7033	1406.7656	8398.05	7513.55
882.847	1408.6101	8371.45	7485.6
882.9908	1410.4538	8357.95	7471.95
883.1345	1412.2968	8305.85	7420.55
883.2782	1414.139	8257.25	7372.3
883.4219	1415.9805	8272.25	7387.25
883.5656	1417.8213	8259.2	7368.8
883.7092	1419.6613	8247.35	7362.45
883.8529	1421.5006	8245.7	7358.5
883.9965	1423.3391	8244.1	7358.65
884.1402	1425.1769	8234.6	7349.85
884.2838	1427.0139	8278.85	7392.3
884.4274	1428.8502	8307.75	7422.1
884.571	1430.6858	8322.2	7435.75
884.7146	1432.5206	8299.5	7414
884.8582	1434.3547	8302.95	7417.45
885.0018	1436.188	8277.15	7392
885.1453	1438.0206	8280.65	7395.35
885.2889	1439.8524	8240.7	7353.3
885.4324	1441.6835	8216.4	7329.8
885.5759	1443.5139	8204.35	7314.6
885.7194	1445.3435	8180.95	7295.65
885.8629	1447.1724	8195.3	7312.2
886.0064	1449.0005	8160.4	7273.95
886.1499	1450.8279	8153.95	7267.8
886.2933	1452.6545	8119.05	7234.65
886.4368	1454.4804	8128.2	7244.45
886.5802	1456.3056	8094.2	7200.75
886.7237	1458.13	8097.8	7211.75
886.8671	1459.9536	8070.95	7183.85
887.0105	1461.7766	8026.15	7139.9
887.1539	1463.5987	7993.95	7106.65
887.2972	1465.4202	7940.8	7054.8
887.4406	1467.2409	7895.75	7010.95
887.584	1469.0608	7897.75	7014.15
887.7273	1470.88	7865.1	6979.5
887.8706	1472.6984	7814.25	6927.2
888.0139	1474.5161	7778.05	6889.8
888.1572	1476.3331	7764.4	6878.55
888.3005	1478.1493	7746.1	6860.45
888.4438	1479.9648	7744.6	6859.5
888.5871	1481.7795	7722.35	6835.7
888.7303	1483.5935	7715.35	6829.75
888.8736	1485.4067	7694.05	6808.65
889.0168	1487.2192	7675.05	6788.9
889.16	1489.031	7678.85	6791.15
889.3032	1490.842	7647.15	6764.45
889.4464	1492.6522	7630.6	6747.25
889.5896	1494.4618	7612.15	6724
889.7327	1496.2705	7589.7	6703.8
889.8759	1498.0785	7568	6682.8
890.019	1499.8858	7544.75	6660.9
890.1622	1501.6924	7528.8	6643.35
890.3053	1503.4981	7518.85	6632.3
890.4484	1505.3032	7489.95	6605.4
890.5914	1507.1075	7482.7	6597.15
890.7345	1508.911	7469	6583.9
890.8776	1510.7138	7447.35	6560.75
891.0206	1512.5159	7422.25	6535.45
891.1637	1514.3172	7398	6512.35
891.3067	1516.1178	7355.3	6472.05
891.4497	1517.9176	7347.1	6458.5
891.5927	1519.7166	7327.75	6442.55
891.7357	1521.515	7294.95	6403.15
891.8786	1523.3126	7284.9	6398
892.0216	1525.1094	7257.45	6369.3
892.1645	1526.9055	7219.35	6335.2
892.3074	1528.7008	7199	6313.4
892.4503	1530.4954	7145.45	6260.05
892.5932	1532.2893	7133.5	6250.15
892.7361	1534.0824	7126.9	6236.9
892.879	1535.8747	7099.1	6215.3
893.0218	1537.6663	7079.8	6193.55
893.1647	1539.4572	7047.7	6160.25
893.3075	1541.2473	7016.3	6130.75
893.4503	1543.0367	7005.35	6122.2
893.5931	1544.8253	6984	6096.1
893.7359	1546.6132	6965.15	6075.9
893.8787	1548.4003	6945.6	6050.4
894.0214	1550.1867	6918.55	6025.7
894.1642	1551.9723	6919.8	6031.25
894.3069	1553.7572	6893.9	6008.65
894.4496	1555.5414	6885.75	6001.65
894.5923	1557.3247	6885.25	5998.8
894.735	1559.1074	6879	5996.45
894.8777	1560.8893	6872.55	5990.05
895.0204	1562.6705	6870.45	5988.15
895.163	1564.4509	6875.2	5991.95
895.3056	1566.2305	6864.3	5980.1
895.4482	1568.0094	6844.6	5960.2
895.5908	1569.7876	6831.1	5948.2
895.7334	1571.565	6811.95	5926.25
895.876	1573.3417	6795.95	5913.65
896.0186	1575.1176	6775.35	5892.05
896.1611	1576.8928	6753.05	5869.95
896.3036	1578.6672	6755.85	5876.05
896.4461	1580.4409	6765.8	5884.85
896.5886	1582.2138	6751.1	5866.35
896.7311	1583.986	6751.6	5868.65
896.8736	1585.7575	6783.45	5899.55
897.0161	1587.5282	6761.15	5879
897.1585	1589.2981	6751.65	5872.4
897.3009	1591.0673	6726.35	5843.5
897.4433	1592.8358	6745.1	5863.8
897.5857	1594.6035	6724.45	5839.5
897.7281	1596.3704	6683.8	5801.35
897.8705	1598.1366	6647.75	5765.75
898.0128	1599.9021	6610.6	5728.4
898.1551	1601.6668	6567.95	5684.25
898.2975	1603.4308	6543.9	5659
898.4398	1605.194	6535.55	5645
898.5821	1606.9564	6514.2	5630
898.7243	1608.7182	6530.5	5645.05
898.8666	1610.4791	6561.3	5680.9
899.0088	1612.2394	6600.65	5718.6
899.1511	1613.9988	6634.05	5754.4
899.2933	1615.7576	6659.25	5779.1
899.4355	1617.5156	6676.85	5788.75
899.5776	1619.2728	6650.7	5766.95
899.7198	1621.0293	6573.6	5690.2
899.862	1622.785	6504.5	5619.35
900.0041	1624.54	6392.85	5506.7
900.1462	1626.2942	6298.8	5414.45
900.2883	1628.0477	6206.35	5322.25
900.4304	1629.8005	6148.3	5262.85
900.5725	1631.5525	6089.65	5208.75
900.7145	1633.3037	6047.95	5164.75
900.8566	1635.0542	6007.95	5126.7
900.9986	1636.804	5959.85	5077.8
901.1406	1638.553	6003.6	5031.15
901.2826	1640.3013	5924.95	5042.6
901.4245	1642.0488	5838.9	4955.5
901.5665	1643.7955	5831.2	4950.15
901.7085	1645.5416	5811.8	4928.15
901.8504	1647.2868	5798.3	4915.25
901.9923	1649.0313	5743.7	4861.9
902.1342	1650.7751	5758.15	4872.95
902.2761	1652.5181	5720.75	4839.2
902.4179	1654.2604	5699.05	4815.95
902.5598	1656.0019	5677.95	4796.65
902.7016	1657.7427	5680.4	4799.1
902.8434	1659.4828	5697.95	4815.4
902.9852	1661.222	5681.15	4797.1
903.127	1662.9606	5668.25	4785.85
903.2687	1664.6984	5672.35	4789.7
903.4105	1666.4354	5677.25	4793.2
903.5522	1668.1717	5656	4773.55
903.6939	1669.9072	5616.8	4733
903.8356	1671.642	5566.3	4681.6
903.9773	1673.3761	5524	4643.7
904.119	1675.1094	5488.15	4605.05
904.2606	1676.8419	5448.1	4566.1
904.4022	1678.5737	5421.5	4539.9
904.5439	1680.3048	5396.25	4514.15
904.6855	1682.0351	5372.1	4490
904.827	1683.7646	5321.05	4434.8
904.9686	1685.4934	5313.7	4429.5
905.1101	1687.2215	5294.55	4412.2
905.2517	1688.9488	5250.85	4368.1
905.3932	1690.6754	5238.2	4355.8
905.5347	1692.4012	5228.5	4346.05
905.6761	1694.1263	5220.8	4339.55
905.8176	1695.8506	5172.55	4288.45
905.9591	1697.5742	5162.9	4280.5
906.1005	1699.297	5154.8	4273.25
906.2419	1701.0191	5119.2	4238.75
906.3833	1702.7404	5105.25	4225.25
906.5246	1704.461	5062.45	4176.85
906.666	1706.1808	5049.75	4168.2
906.8073	1707.8999	5027.35	4144.9
906.9487	1709.6182	5019.65	4136.25
907.09	1711.3358	5022.5	4140.3
907.2313	1713.0527	5018.85	4138.75
907.3725	1714.7688	4986.3	4100.4
907.5138	1716.4841	4974.75	4090.1
907.655	1718.1987	4964.1	4076.6
907.7962	1719.9126	4946.35	4064.7
907.9374	1721.6257	4925.55	4040.45
908.0786	1723.338	4929.1	4045.1
908.2198	1725.0496	4908.2	4027.3
908.3609	1726.7605	4898.1	4014.3
908.502	1728.4706	4892.55	4010.75
908.6431	1730.18	4866.95	3983.35
908.7842	1731.8886	4871.75	3991.15
908.9253	1733.5964	4863.1	3975.85
909.0664	1735.3036	4858.6	3974.1
909.2074	1737.0099	4847	3965.75
909.3484	1738.7156	4845.7	3964.9
909.4894	1740.4204	4832.25	3946.35
909.6304	1742.1246	4824.5	3942.45
909.7714	1743.8279	4803.9	3921.85
909.9123	1745.5306	4798.9	3918.15
910.0532	1747.2325	4798.25	3916.8
910.1941	1748.9336	4798	3915.65
910.335	1750.634	4763.8	3881.4
910.4759	1752.3336	4773.7	3893.3
910.6168	1754.0325	4761.8	3881.15
910.7576	1755.7307	4759.6	3879.5
910.8984	1757.4281	4750.35	3869.9
911.0392	1759.1247	4756.35	3866.7
911.18	1760.8206	4746.8	3858.7
911.3208	1762.5158	4739.85	3853.2
911.4615	1764.2102	4716.85	3835.5
911.6022	1765.9039	4685	3804.15
911.7429	1767.5968	4694	3813.9
911.8836	1769.289	4685.6	3803.2
912.0243	1770.9804	4684.55	3802.15
912.1649	1772.6711	4681.9	3800.8
912.3056	1774.361	4675.25	3792
912.4462	1776.0502	4665.5	3783
912.5868	1777.7386	4638.95	3753.7
912.7274	1779.4263	4627.95	3743.35
912.8679	1781.1132	4627.3	3747.4
913.0084	1782.7994	4620.6	3738.2
913.149	1784.4849	4612.55	3734.75
913.2895	1786.1696	4615.15	3713.45
913.4299	1787.8535	4605.4	3725.05
913.5704	1789.5367	4596.4	3715.9
913.7108	1791.2192	4575	3692.3
913.8513	1792.9009	4566.95	3654.25
913.9917	1794.5818	4568.85	3686.6
914.132	1796.2621	4529.9	3648.8
914.2724	1797.9415	4532.8	3651.15
914.4128	1799.6202	4521.3	3637.4
914.5531	1801.2982	4503.85	3621.5
914.6934	1802.9755	4494.35	3612.1
914.8337	1804.6519	4497.6	3615.85
914.9739	1806.3277	4480.6	3598.95
915.1142	1808.0027	4460.55	3581.55
915.2544	1809.6769	4465.95	3584.1
915.3946	1811.3504	4448.45	3567.15
915.5348	1813.0231	4451.95	3570.35
915.675	1814.6951	4443.95	3562.75
915.8151	1816.3664	4425.3	3542.1
915.9553	1818.0369	4410.95	3529.6
916.0954	1819.7067	4403.2	3523.1
916.2355	1821.3757	4397.85	3514.75
916.3755	1823.044	4392.6	3511.35
916.5156	1824.7115	4386.2	3503.2
916.6556	1826.3783	4371.7	3490.55
916.7956	1828.0443	4363.45	3483.3
916.9356	1829.7096	4363.1	3480.2
917.0756	1831.3741	4367.6	3482.6
917.2155	1833.0379	4355.1	3475.2
917.3555	1834.701	4334	3448.3
917.4954	1836.3633	4317.4	3436.2
917.6353	1838.0248	4328.25	3445.6
917.7751	1839.6856	4303.9	3422.3
917.915	1841.3457	4305.75	3424.65
918.0548	1843.005	4291.2	3409.25
918.1946	1844.6636	4290.85	3409.55
918.3344	1846.3214	4268.35	3386.3
918.4742	1847.9785	4265.35	3385.05
918.6139	1849.6349	4249.05	3365.7
918.7537	1851.2904	4261.5	3370.3
918.8934	1852.9453	4252.2	3368.45
919.0331	1854.5994	4237.05	3352.1
919.1727	1856.2528	4242.8	3356.55
919.3124	1857.9054	4210.9	3329.05
919.452	1859.5572	4210.95	3328.95
919.5916	1861.2083	4203.7	3321.3
919.7312	1862.8587	4210.4	3328.9
919.8708	1864.5084	4195.7	3313.5
920.0103	1866.1572	4188.4	3306
920.1498	1867.8054	4167	3284.7
920.2893	1869.4528	4178.15	3295.4
920.4288	1871.0994	4166.55	3283.8
920.5683	1872.7453	4158.9	3274.7
920.7077	1874.3905	4136.6	3248.85
920.8471	1876.0349	4121	3238.85
920.9865	1877.6786	4130.55	3246.7
921.1259	1879.3215	4130	3249.8
921.2653	1880.9637	4122.9	3237.65
921.4046	1882.6051	4122.55	3241.85
921.5439	1884.2458	4106.85	3223.15
921.6832	1885.8858	4086.15	3204.3
921.8225	1887.525	4097.65	3213.5
921.9617	1889.1634	4073.85	3193.5
922.101	1890.8011	4062.8	3178.55
922.2402	1892.4381	4050.2	3167.1
922.3794	1894.0743	4056.7	3174.65
922.5185	1895.7098	4050.15	3167.55
922.6577	1897.3446	4042.9	3161.3
922.7968	1898.9786	4026.05	3140.25
922.9359	1900.6118	4015.1	3133.05
923.075	1902.2443	4007.45	3123.1
923.214	1903.8761	4010.75	3127.75
923.3531	1905.5071	3979.05	3094.95
923.4921	1907.1374	3974.65	3093.15
923.6311	1908.7669	3970.2	3089.4
923.77	1910.3957	3972.15	3090.3
923.909	1912.0237	3954.15	3072.3
924.0479	1913.651	3957.65	3074.1
924.1868	1915.2776	3950.45	3069.95
924.3257	1916.9034	3915.8	3035.8
924.4646	1918.5285	3910.85	3030.85
924.6034	1920.1528	3886.25	3003.35
924.7422	1921.7764	3900.4	3019.75
924.881	1923.3992	3885.6	3003.75
925.0198	1925.0213	3857.9	2975.6
925.1586	1926.6427	3863.95	2980.7
925.2973	1928.2633	4030.5	2929.6
925.436	1929.8832	3876.25	2992.15
925.5747	1931.5023	3826.8	2946.3
925.7134	1933.1207	3824.95	2944.45
925.852	1934.7383	3824.35	2941.45
925.9906	1936.3552	3815.35	2934.85
926.1292	1937.9714	3812.15	2931.05
926.2678	1939.5868	3785.55	2902.7
926.4064	1941.2015	3790.05	2908.15
926.5449	1942.8154	3766.9	2883.85
926.6834	1944.4286	3761.15	2878.3
926.8219	1946.041	3775.45	2871.3
926.9604	1947.6528	3752.35	2865.5
927.0988	1949.2637	3734.35	2853.75
927.2372	1950.8739	3736.1	2852.85
927.3756	1952.4834	3714.3	2832.05
927.514	1954.0921	3705.2	2822.8
927.6523	1955.7001	3707.8	2819.7
927.7907	1957.3074	3686.05	2805.1
927.929	1958.9139	3689.65	2807.25
928.0673	1960.5197	3685.75	2803.1
928.2055	1962.1247	3660.75	2777.85
928.3438	1963.729	3660.25	2779.55
928.482	1965.3325	3665.6	2762.15
928.6202	1966.9353	3649.85	2770.55
928.7584	1968.5374	3638.25	2755.2
928.8965	1970.1387	3644.7	2763.2
929.0346	1971.7393	3626.2	2745.7
929.1727	1973.3392	3612.35	2731.45
929.3108	1974.9383	3598.3	2717.45
929.4489	1976.5366	3603.2	2723.7
929.5869	1978.1342	3596.95	2716.7
929.7249	1979.7311	3584.9	2703.9
929.8629	1981.3273	3578.1	2696.95
930.0009	1982.9227	3565.9	2683.55
930.1388	1984.5173	3568.25	2690.55
930.2767	1986.1112	3552.8	2670.8
930.4146	1987.7044	3547.7	2670.1
930.5525	1989.2968	3539.4	2655.4
930.6904	1990.8885	3537.5	2653.6
930.8282	1992.4795	3528.05	2646.8
930.966	1994.0697	3521.15	2642.9
931.1038	1995.6592	3505.9	2626.9
931.2415	1997.2479	3507.65	2627.1
931.3793	1998.8359	3517.5	2636.3
931.517	2000.4232	3489.5	2610.25
931.6547	2002.0097	3485.2	2607.1
931.7923	2003.5955	3468.65	2588.45
931.93	2005.1805	3489.2	2607.35
932.0676	2006.7648	3471.35	2591.85
932.2052	2008.3484	3460.45	2581.55
932.3427	2009.9312	3466.35	2583.65
932.4803	2011.5133	3468.3	2591.1
932.6178	2013.0946	3452.5	2572.05
932.7553	2014.6752	3438.3	2559.6
932.8928	2016.2551	3428.95	2548.5
933.0302	2017.8342	3426.2	2547.1
933.1676	2019.4126	3412.9	2533.1
933.305	2020.9902	3403.9	2524.3
933.4424	2022.5672	3415.55	2534.8
933.5798	2024.1433	3423.05	2536.7
933.7171	2025.7188	3408.65	2529.5
933.8544	2027.2935	3407.15	2526.05
933.9917	2028.8674	3385.3	2507
934.129	2030.4406	3374.2	2495.75
934.2662	2032.0131	3365.7	2486.5
934.4034	2033.5849	3366.75	2483.15
934.5406	2035.1559	3358.9	2478.8
934.6778	2036.7261	3348.7	2470.5
934.8149	2038.2957	3349.5	2469.75
934.952	2039.8645	3340.85	2460.9
935.0891	2041.4325	3364.3	2482.6
935.2262	2042.9998	3346	2466.6
935.3632	2044.5664	3345.65	2464
935.5002	2046.1323	3336.35	2458.3
935.6372	2047.6974	3313.15	2434.35
935.7742	2049.2617	3323.45	2443.55
935.9111	2050.8254	3324.9	2441.7
936.048	2052.3883	3322.6	2442.4
936.1849	2053.9504	3325.6	2446.9
936.3218	2055.5118	3305.9	2426.05
936.4586	2057.0725	3308.8	2425.9
936.5955	2058.6325	3304.85	2426.35
936.7323	2060.1917	3305.1	2424.75
936.869	2061.7502	3292.2	2408.55
937.0058	2063.3079	3282.9	2403.7
937.1425	2064.8649	3276.2	2389.9
937.2792	2066.4212	3273.65	2392.75
937.4159	2067.9767	3269.5	2391.65
937.5525	2069.5315	3261.05	2382.2
937.6891	2071.0856	3249.6	2369.35
937.8257	2072.6389	3248	2367.75
937.9623	2074.1915	3240.05	2361.15
938.0989	2075.7433	3230.4	2350
938.2354	2077.2945	3226.05	2348.85
938.3719	2078.8448	3217.65	2336.5
938.5084	2080.3945	3214.25	2335.7
938.6448	2081.9434	3209.3	2330.65
938.7812	2083.4916	3205.15	2324.35
938.9176	2085.039	3202.05	2320.1
939.054	2086.5857	3202.3	2320.7
939.1903	2088.1317	3196.4	2315.5
939.3267	2089.677	3198.7	2318.15
939.463	2091.2215	3197.7	2317.85
939.5992	2092.7652	3197.1	2314.3
939.7355	2094.3083	3182.9	2303.6
939.8717	2095.8506	3193.15	2316.15
940.0079	2097.3921	3178.35	2299.3
940.1441	2098.933	3166.2	2287.55
940.2802	2100.4731	3168.05	2288.7
940.4163	2102.0124	3175.1	2277.85
940.5524	2103.5511	3174.7	2294.85
940.6885	2105.089	3163.45	2283.3
940.8245	2106.6261	3164.45	2283.55
940.9606	2108.1626	3156.2	2271.8
941.0965	2109.6983	3174.4	2265.8
941.2325	2111.2332	3156.65	2277
941.3684	2112.7675	3145.15	2262.3
941.5044	2114.301	3143	2262.3
941.6403	2115.8337	3139.3	2258.9
941.7761	2117.3657	3135.4	2256.9
941.912	2118.897	3124.7	2243.25
942.0478	2120.4276	3134.8	2249
942.1835	2121.9575	3123.45	2242.9
942.3193	2123.4866	3125.4	2242.9
942.455	2125.0149	3110.9	2229.2
942.5907	2126.5426	3100.65	2223.45
942.7264	2128.0695	3114.25	2229.55
942.8621	2129.5956	3094.2	2217.3
942.9977	2131.1211	3106.2	2220.15
943.1333	2132.6458	3100.95	2222.6
943.2689	2134.1698	3086.65	2205.5
943.4044	2135.693	3075.6	2192.15
943.54	2137.2155	3081.05	2199.7
943.6755	2138.7373	3079.3	2198.25
943.8109	2140.2584	3068.95	2188.5
943.9464	2141.7787	3071.95	2188.15
944.0818	2143.2983	3045.45	2166.9
944.2172	2144.8171	3040.15	2163.35
944.3526	2146.3353	3043.15	2159.65
944.4879	2147.8527	3037.45	2160.85
944.6232	2149.3693	3044.35	2162.55
944.7585	2150.8853	3037.7	2157.15
944.8938	2152.4005	3008.9	2129.65
945.029	2153.9149	3018.75	2138.65
945.1642	2155.4287	3015.45	2135.75
945.2994	2156.9417	3011.7	2129.95
945.4346	2158.454	3004.45	2121.6
945.5697	2159.9655	3011.55	2131.6
945.7048	2161.4764	2989.7	2109.5
945.8399	2162.9865	2984.6	2104.1
945.9749	2164.4958	2995.8	2117.35
946.1099	2166.0045	2982.55	2100.1
946.2449	2167.5124	2978.2	2099.8
946.3799	2169.0195	2970.65	2090.8
946.5148	2170.526	2978.75	2099.35
946.6498	2172.0317	2963.7	2084.85
946.7846	2173.5367	2954.05	2073.4
946.9195	2175.0409	2951.2	2072.65
947.0543	2176.5445	2956.05	2075.1
947.1891	2178.0473	2954.4	2072.75
947.3239	2179.5494	2941.25	2058
947.4587	2181.0507	2933.35	2053.45
947.5934	2182.5513	2924.5	2045.6
947.7281	2184.0512	2929.1	2050.45
947.8628	2185.5504	2920.85	2041.05
947.9974	2187.0488	2903.15	2024.35
948.132	2188.5465	2911.45	2030.7
948.2666	2190.0435	2897.9	2018.3
948.4012	2191.5397	2903.6	2023.95
948.5357	2193.0353	2890.5	2010.95
948.6702	2194.5301	2871.35	1992.5
948.8047	2196.0241	2872.3	1991.55
948.9392	2197.5175	2875.2	1993.7
949.0736	2199.0101	2861.3	1977.1
949.208	2200.502	2854.1	1975.75
949.3424	2201.9931	2852	1972.95
949.4767	2203.4835	2831.15	1951.3
949.611	2204.9733	2841.7	1955.15
949.7453	2206.4622	2833.1	1954.6
949.8796	2207.9505	2829.95	1947.7
950.0138	2209.438	2804.75	1926.75
950.148	2210.9248	2804	1924.15
950.2822	2212.4109	2806.6	1925.4
950.4164	2213.8962	2798.7	1915.5
950.5505	2215.3809	2797.15	1916.5
950.6846	2216.8648	2785	1904.9
950.8186	2218.3479	2781.6	1896.55
950.9527	2219.8304	2782.9	1899.75
951.0867	2221.3121	2771.2	1888.05
951.2207	2222.7931	2761.45	1881.8
951.3546	2224.2733	2752.9	1872.25
951.4886	2225.7529	2750.75	1870.95
951.6225	2227.2317	2746.5	1863.15
951.7563	2228.7098	2741.2	1861.6
951.8902	2230.1872	2730.9	1850.7
952.024	2231.6638	2724.25	1844.55
952.1578	2233.1397	2724.3	1837.8
952.2916	2234.6149	2714.3	1835.35
952.4253	2236.0894	2722.7	1842.7
952.559	2237.5632	2719.85	1829.1
952.6927	2239.0362	2693.3	1815.55
952.8263	2240.5085	2686.9	1806.8
952.9599	2241.9801	2675.75	1795.6
953.0935	2243.4509	2678.4	1799.65
953.2271	2244.921	2671.1	1790.65
953.3606	2246.3904	2672.15	1789.1
953.4941	2247.8591	2670.1	1787.8
953.6276	2249.3271	2658.95	1779.4
953.7611	2250.7943	2643.65	1762.45
953.8945	2252.2608	2656.35	1777
954.0279	2253.7266	2660.05	1779.4
954.1612	2255.1917	2642.05	1762.05
954.2946	2256.656	2634.9	1753.65
954.4279	2258.1197	2620.1	1743.1
954.5612	2259.5826	2631.05	1750.6
954.6944	2261.0447	2615.4	1733.2
954.8276	2262.5062	2614.6	1732.75
954.9608	2263.9669	2613.85	1730.1
955.094	2265.4269	2610.5	1731.15
955.2271	2266.8862	2605	1723.8
955.3602	2268.3448	2600.55	1720.45
955.4933	2269.8026	2595.6	1715
955.6264	2271.2598	2584.85	1703.55
955.7594	2272.7162	2589.05	1710.9
955.8924	2274.1719	2570.55	1691.9
956.0253	2275.6268	2576.95	1696.4
956.1583	2277.0811	2582.1	1701.3
956.2912	2278.5346	2558.1	1677.85
956.4241	2279.9874	2555.9	1675.9
956.5569	2281.4395	2550.65	1670.85
956.6897	2282.8908	2554.05	1667.8
956.8225	2284.3414	2550.05	1668.65
956.9553	2285.7914	2535	1657
957.088	2287.2406	2534.05	1650.9
957.2207	2288.689	2538.1	1657.4
957.3534	2290.1368	2523.4	1640.05
957.486	2291.5838	2519.25	1636.15
957.6186	2293.0302	2513.05	1630.05
957.7512	2294.4758	2505.8	1624.3
957.8838	2295.9206	2507.2	1624.8
958.0163	2297.3648	2512.15	1633.2
958.1488	2298.8082	2507.7	1625.05
958.2813	2300.251	2498.8	1620.65
958.4137	2301.693	2495.5	1613.5
958.5461	2303.1343	2494.7	1614.4
958.6785	2304.5748	2482.55	1600.6
958.8108	2306.0147	2478.1	1597.5
958.9432	2307.4538	2474.45	1591.75
959.0754	2308.8922	2462.75	1582.95
959.2077	2310.3299	2458.15	1578
959.3399	2311.7669	2455.65	1573
959.4721	2313.2031	2454.1	1573.95
959.6043	2314.6387	2439	1558.85
959.7365	2316.0735	2439.35	1562.15
959.8686	2317.5076	2439.1	1558.05
960.0006	2318.941	2433.7	1551.5
960.1327	2320.3737	2424.3	1542
960.2647	2321.8056	2429.5	1547.3
960.3967	2323.2369	2421.6	1538.45
960.5287	2324.6674	2415.1	1535.55
960.6606	2326.0972	2415.3	1532.3
960.7925	2327.5263	2406.65	1526.55
960.9244	2328.9547	2405.75	1524.2
961.0562	2330.3823	2403.65	1524.25
961.1881	2331.8092	2386.3	1501.4
961.3198	2333.2355	2384.6	1506.2
961.4516	2334.661	2385.85	1504.4
961.5833	2336.0858	2384.3	1502.15
961.715	2337.5098	2375.65	1493.9
961.8467	2338.9332	2368.35	1486.85
961.9783	2340.3558	2361.65	1478.65
962.1099	2341.7778	2359.95	1480.45
962.2415	2343.199	2361.1	1477.65
962.373	2344.6195	2343.4	1461.6
962.5045	2346.0393	2343.45	1464.55
962.636	2347.4583	2349.8	1466.65
962.7675	2348.8767	2339.05	1457.7
962.8989	2350.2943	2323.5	1440.25
963.0303	2351.7113	2329	1447.1
963.1617	2353.1275	2320.3	1439.2
963.293	2354.543	2323.7	1434.35
963.4243	2355.9578	2306.1	1425.1
963.5556	2357.3718	2290.6	1411.15
963.6868	2358.7852	2288.6	1405.15
963.818	2360.1978	2298.9	1418.25
963.9492	2361.6098	2287.65	1408.15
964.0803	2363.021	2278.55	1395.3
964.2114	2364.4315	2280.8	1401.75
964.3425	2365.8413	2269.95	1387.15
964.4736	2367.2504	2266.4	1385.8
964.6046	2368.6587	2268.35	1387.8
964.7356	2370.0664	2248.4	1367.7
964.8666	2371.4733	2250.45	1369.25
964.9975	2372.8795	2243.9	1361.85
965.1284	2374.285	2240.95	1358.2
965.2593	2375.6899	2232	1351.7
965.3901	2377.0939	2222.55	1342.8
965.5209	2378.4973	2222.1	1341
965.6517	2379.9	2221.45	1340.15
965.7825	2381.3019	2215.7	1336.15
965.9132	2382.7032	2210.7	1329.95
966.0439	2384.1037	2203.05	1324.15
966.1745	2385.5035	2187.4	1305.3
966.3051	2386.9027	2179.6	1299.85
966.4357	2388.3011	2191.55	1307.65
966.5663	2389.6987	2184.75	1302.45
966.6968	2391.0957	2166	1287.9
966.8273	2392.492	2161.6	1282.15
966.9578	2393.8876	2173.25	1290.75
967.0882	2395.2824	2166.6	1285.45
967.2186	2396.6765	2140.9	1260.35
967.349	2398.07	2140.05	1258.55
967.4793	2399.4627	2125.9	1243.7
967.6097	2400.8547	2137.2	1255.95
967.7399	2402.246	2130.4	1242.8
967.8702	2403.6366	2128.8	1247.3
968.0004	2405.0265	2115	1235.05
968.1306	2406.4156	2114.15	1230.05
968.2607	2407.8041	2104.75	1219.6
968.3909	2409.1918	2108.15	1225.1
968.521	2410.5789	2101.6	1219.3
968.651	2411.9652	2094.5	1210.3
968.781	2413.3508	2098.15	1215.9
968.911	2414.7358	2084.8	1201.3
969.041	2416.12	2079.75	1197.65
969.1709	2417.5035	2070.75	1188.85
969.3008	2418.8863	2066.95	1182.7
969.4307	2420.2684	2056.3	1172.95
969.5606	2421.6497	2050.7	1169.1
969.6904	2423.0304	2050	1171.6
969.8201	2424.4104	2044.65	1161.15
969.9499	2425.7896	2047.65	1165.05
970.0796	2427.1682	2043.75	1163.3
970.2093	2428.546	2044.75	1162.15
970.3389	2429.9232	2041.7	1158
970.4685	2431.2996	2035.35	1154.25
970.5981	2432.6753	2031.4	1147.4
970.7277	2434.0503	2026.8	1147.45
970.8572	2435.4246	2013.25	1130.2
970.9867	2436.7982	2021.8	1137.8
971.1161	2438.1711	2014.7	1135.2
971.2456	2439.5433	2017.55	1134.85
971.375	2440.9148	2008.95	1122.05
971.5043	2442.2856	1996.5	1115.6
971.6336	2443.6557	1999.7	1116.65
971.7629	2445.025	1991.3	1111.05
971.8922	2446.3937	1983.3	1100.8
972.0214	2447.7617	1998.05	1117.05
972.1506	2449.1289	1987.7	1106.5
972.2798	2450.4955	1986.5	1101.4
972.4089	2451.8613	1982.45	1101.95
972.538	2453.2265	1980.45	1100
972.6671	2454.5909	1970.05	1088.2
972.7961	2455.9546	1974	1092.2
972.9251	2457.3177	1960.75	1080.5
973.0541	2458.68	1967	1083.85
973.1831	2460.0416	1962.1	1080.2
973.312	2461.4025	1949.55	1066.85
973.4408	2462.7627	1965.6	1073.1
973.5697	2464.1222	1951.55	1071.05
973.6985	2465.4811	1950.85	1068.8
973.8273	2466.8392	1938.05	1057.25
973.956	2468.1966	1935.9	1052.2
974.0847	2469.5533	1942.95	1059.3
974.2134	2470.9093	1935.45	1054.8
974.3421	2472.2645	1936.3	1053.5
974.4707	2473.6191	1923	1042.1
974.5993	2474.973	1921.75	1038.4
974.7278	2476.3262	1918.05	1037.45
974.8563	2477.6787	1903.15	1022.95
974.9848	2479.0305	1901.55	1018.5
975.1132	2480.3816	1897.5	1014.85
975.2417	2481.7319	1905.8	1024.25
975.37	2483.0816	1900.6	1016.6
975.4984	2484.4306	1892.05	1011.3
975.6267	2485.7789	1891.75	1012.3
975.755	2487.1264	1882.8	998.7
975.8833	2488.4733	1882.4	1003.4
976.0115	2489.8195	1897.2	1009.9
976.1397	2491.165	1879.85	995.15
976.2678	2492.5097	1868.9	987.35
976.3959	2493.8538	1861.6	979.95
976.524	2495.1972	1858.9	978.3
976.6521	2496.5398	1863.85	980.75
976.7801	2497.8818	1858.25	976.25
976.9081	2499.2231	1846.65	966.65
977.036	2500.5637	1836.15	950.15
977.164	2501.9035	1845.7	962.7
977.2918	2503.2427	1842.05	955.7
977.4197	2504.5812	1841.65	963.45
977.5475	2505.919	1839.3	956.55
977.6753	2507.256	1833.8	952.1
977.8031	2508.5924	1817.95	935.7
977.9308	2509.9281	1826.4	940.3
978.0585	2511.2631	1825	945.2
978.1861	2512.5974	1819.45	938.65
978.3137	2513.9309	1808.3	926
978.4413	2515.2638	1837.5	923.9
978.5689	2516.596	1815.4	934.55
978.6964	2517.9275	1807.65	925.95
978.8239	2519.2583	1800.55	921.75
978.9513	2520.5884	1800.7	919.65
979.0788	2521.9178	1792.15	911.8
979.2062	2523.2465	1785.1	905.25
979.3335	2524.5745	1782.4	901.5
979.4608	2525.9018	1777.3	896.05
979.5881	2527.2284	1777.1	896.6
979.7154	2528.5543	1772.55	890.85
979.8426	2529.8796	1771.75	892.6
979.9698	2531.2041	1765.3	884.8
980.0969	2532.5279	1758.2	879.1
980.224	2533.851	1759.25	877.05
980.3511	2535.1735	1754.4	873.05
980.4781	2536.4952	1756.05	875.75
980.6052	2537.8163	1754.3	873.3
980.7321	2539.1366	1751.45	869.35
980.8591	2540.4562	1741.55	858.8
980.986	2541.7752	1745.55	864.2
981.1129	2543.0935	1737.3	856.9
981.2397	2544.411	1737.7	855.1
981.3665	2545.7279	1750.65	867.65
981.4933	2547.0441	1743.2	861.95
981.62	2548.3596	1729.95	844.45
981.7467	2549.6744	1725.7	845.05
981.8734	2550.9885	1747.5	857.2
982.0001	2552.3019	1727.75	850.6
982.1267	2553.6146	1726.55	843.35
982.2532	2554.9266	1722.55	842.9
982.3798	2556.2379	1718.75	836.45
982.5063	2557.5485	1714.55	836.1
982.6327	2558.8585	1721.55	832.1
982.7592	2560.1677	1726.65	843.1
982.8856	2561.4762	1713.9	832.6
983.0119	2562.7841	1713.25	829.8
983.1383	2564.0913	1694.45	815.2
983.2646	2565.3977	1711.15	831
983.3908	2566.7035	1696.55	814.3
983.517	2568.0086	1695.4	814.65
983.6432	2569.313	1699.75	818.4
983.7694	2570.6167	1690.3	806.6
983.8955	2571.9197	1690.2	811.05
984.0216	2573.222	1695.45	809.9
984.1476	2574.5236	1687.95	807.35
984.2737	2575.8246	1692.05	807.8
984.3996	2577.1248	1682.4	798.15
984.5256	2578.4244	1684.35	802.1
984.6515	2579.7232	1673.55	793.3
984.7774	2581.0214	1709.55	802.85
984.9032	2582.3189	1674.1	794.3
985.029	2583.6157	1676.5	789.4
985.1548	2584.9118	1663.6	784.3
985.2806	2586.2072	1669.1	789.7
985.4063	2587.5019	1659.25	776.25
985.5319	2588.7959	1668.2	789.35
985.6576	2590.0893	1651.2	768.45
985.7832	2591.3819	1655.5	776.15
985.9087	2592.6739	1648.6	770.4
986.0343	2593.9652	1651.2	767.45
986.1597	2595.2557	1648.1	767.7
986.2852	2596.5456	1646.5	763.6
986.4106	2597.8348	1644.15	763.2
986.536	2599.1234	1636.9	754.9
986.6614	2600.4112	1634.9	751.95
986.7867	2601.6983	1631.25	749.5
986.912	2602.9848	1629.4	746.35
987.0372	2604.2705	1635.1	746.4
987.1624	2605.5556	1622.45	742.4
987.2876	2606.84	1616.8	737.75
987.4128	2608.1237	1622.9	740.55
987.5379	2609.4067	1608.55	728.75
987.6629	2610.689	1618.1	728.4
987.788	2611.9707	1608.85	726.4
987.913	2613.2516	1600.85	716.45
988.0379	2614.5319	1597.85	717.2
988.1629	2615.8115	1589.75	706.2
988.2878	2617.0903	1596.35	713.2
988.4126	2618.3685	1592.05	709.95
988.5375	2619.6461	1587.85	707.2
988.6622	2620.9229	1581.5	700.2
988.787	2622.199	1583.7	702.2
988.9117	2623.4745	1577.25	696
989.0364	2624.7493	1573.05	692.85
989.161	2626.0234	1568.8	689.5
989.2857	2627.2968	1569.5	689.1
989.4102	2628.5695	1565.8	684.25
989.5348	2629.8415	1555.6	675.15
989.6593	2631.1128	1555.05	672.15
989.7837	2632.3835	1552.75	672.15
989.9082	2633.6535	1546.75	666.3
990.0326	2634.9228	1552.05	671.8
990.1569	2636.1914	1545	662.25
990.2812	2637.4593	1553	666.2
990.4055	2638.7265	1542.25	662.35
990.5298	2639.9931	1537.1	658
990.654	2641.259	1534.9	650.9
990.7782	2642.5242	1534.35	652.85
990.9023	2643.7887	1534.5	655
991.0264	2645.0525	1526.25	644.45
991.1505	2646.3156	1524.75	641.3
991.2745	2647.5781	1532.4	651.7
991.3985	2648.8398	1518.15	635.9
991.5225	2650.1009	1522.65	634.05
991.6464	2651.3613	1515.45	634.9
991.7703	2652.6211	1513.95	632.95
991.8942	2653.8801	1510.2	632.1
992.018	2655.1385	1512.45	629.8
992.1418	2656.3961	1509.55	628.7
992.2655	2657.6531	1506.95	627
992.3892	2658.9094	1500.7	617.35
992.5129	2660.1651	1496.15	615.95
992.6366	2661.42	1499.3	619.85
992.7602	2662.6743	1502.25	621
992.8837	2663.9279	1497.2	616.45
993.0073	2665.1808	1493.55	611.65
993.1307	2666.433	1494.1	614
993.2542	2667.6846	1487.45	608.3
993.3776	2668.9354	1494.2	609.4
993.501	2670.1856	1486.65	603
993.6244	2671.4351	1482.5	602.65
993.7477	2672.6839	1482.3	599.6
993.8709	2673.9321	1473.25	593.75
993.9942	2675.1795	1480.6	599.2
994.1174	2676.4263	1472.55	593.35
994.2405	2677.6724	1476.7	595.6
994.3637	2678.9179	1468.05	587
994.4868	2680.1626	1462.7	583.2
994.6098	2681.4067	1468.85	587.4
994.7328	2682.6501	1456.05	575.2
994.8558	2683.8928	1454.65	574.25
994.9788	2685.1348	1456.65	576.45
995.1017	2686.3761	1453.7	573.75
995.2245	2687.6168	1453.8	574.05
995.3474	2688.8568	1453	572.55
995.4702	2690.0961	1444.3	564.25
995.5929	2691.3348	1448.2	567.35
995.7156	2692.5727	1438.45	558.05
995.8383	2693.81	1437.9	557.2
995.961	2695.0466	1439.25	560.8
996.0836	2696.2826	1435.75	553.4
996.2062	2697.5178	1457.95	557.4
996.3287	2698.7524	1430.6	550.85
996.4512	2699.9863	1431.45	549.85
996.5737	2701.2195	1427.8	547.95
996.6961	2702.452	1429.8	548.15
996.8185	2703.6839	1428.6	547.75
996.9408	2704.9151	1425.05	547.25
997.0631	2706.1456	1419.85	538.7
997.1854	2707.3755	1417.85	538.5
997.3077	2708.6046	1414.75	528.65
997.4299	2709.8331	1416.8	537.05
997.552	2711.0609	1409.65	527.55
997.6742	2712.2881	1410.05	530.4
997.7963	2713.5145	1410.65	528.8
997.9183	2714.7403	1405.3	526.45
998.0403	2715.9654	1417.25	536
998.1623	2717.1899	1418.3	523.35
998.2842	2718.4136	1406.1	526.25
998.4062	2719.6367	1400.95	520.6
998.528	2720.8591	1413.4	527.5
998.6498	2722.0809	1391.45	510.95
998.7716	2723.3019	1393.2	511.2
998.8934	2724.5223	1395	514
999.0151	2725.7421	1391.6	509.6
999.1368	2726.9611	1385.4	500.65
999.2584	2728.1795	1388.1	503.5
999.38	2729.3972	1375.5	495.9
999.5016	2730.6142	1391.8	497.35
999.6231	2731.8306	1376.15	492.8
999.7446	2733.0462	1372.05	489.6
999.8661	2734.2612	1370.25	484.1
999.9875	2735.4756	1369.8	486.9
1000.1089	2736.6892	1370.35	489.65
1000.2302	2737.9022	1365.35	486.5
1000.3515	2739.1145	1360.7	480.75
1000.4728	2740.3262	1366.9	477.4
1000.594	2741.5372	1357.65	479.8
1000.7152	2742.7475	1348.05	465.95
1000.8363	2743.9571	1356.9	473.05
1000.9575	2745.1661	1346.4	460.4
1001.0785	2746.3744	1341.9	461.1
1001.1996	2747.582	1343.3	463.25
1001.3206	2748.7889	1347.05	466
1001.4415	2749.9952	1338.25	458.1
1001.5625	2751.2008	1334.55	452.5
1001.6833	2752.4057	1338.95	455.45
1001.8042	2753.61	1334.05	451.35
1001.925	2754.8136	1334.85	453.25
1002.0458	2756.0165	1330.25	451.15
1002.1665	2757.2188	1329.35	451.3
1002.2872	2758.4204	1330.4	452.15
1002.4078	2759.6213	1318.15	435.45
1002.5285	2760.8215	1327.75	443.75
1002.649	2762.0211	1317.95	436.3
1002.7696	2763.22	1320.1	432.7
1002.8901	2764.4182	1324.75	442.8
1003.0106	2765.6158	1312.9	431.95
1003.131	2766.8127	1310.75	428.35
1003.2514	2768.009	1303.4	423.6
1003.3717	2769.2045	1308.4	428.3
1003.492	2770.3994	1315.25	431.7
1003.6123	2771.5936	1310.7	429.15
1003.7325	2772.7872	1303.7	423.1
1003.8527	2773.9801	1304.15	422.2
1003.9729	2775.1723	1313.9	416.15
1004.093	2776.3639	1300.25	420.85
1004.2131	2777.5548	1296.9	415.55
1004.3331	2778.745	1291.75	411.6
1004.4531	2779.9346	1293.7	412.4
1004.5731	2781.1235	1297.95	418.85
1004.693	2782.3117	1294.3	415.85
1004.8129	2783.4992	1293.25	413.15
1004.9328	2784.6861	1287.95	408.85
1005.0526	2785.8723	1289.2	408.4
1005.1723	2787.0579	1282.85	403.45
1005.2921	2788.2428	1282.55	403.25
1005.4118	2789.427	1276.65	396.85
1005.5314	2790.6106	1274.85	394.55
1005.651	2791.7935	1279.2	397.6
1005.7706	2792.9757	1267.95	387.15
1005.8902	2794.1573	1273.8	394
1006.0097	2795.3382	1265.25	384.8
1006.1291	2796.5184	1263.35	383.9
1006.2485	2797.698	1270.3	389.3
1006.3679	2798.8769	1263.4	383.9
1006.4873	2800.0551	1265.15	384.55
1006.6066	2801.2327	1269.65	386.65
1006.7258	2802.4096	1259.55	379.7
1006.8451	2803.5859	1262.8	381.5
1006.9642	2804.7615	1259.15	378.65
1007.0834	2805.9364	1255.45	377.7
1007.2025	2807.1106	1258.3	378.5
1007.3216	2808.2842	1254.15	372.45
1007.4406	2809.4572	1252.75	371.9
1007.5596	2810.6294	1254.5	373.6
1007.6785	2811.801	1248.15	367.05
1007.7975	2812.972	1254.25	375.2
1007.9163	2814.1423	1249.25	368.7
1008.0352	2815.3119	1249.25	369.1
1008.154	2816.4808	1252.2	374.2
1008.2727	2817.6491	1255.05	375.05
1008.3914	2818.8167	1255.4	378.9
1008.5101	2819.9837	1256.15	370.45
1008.6288	2821.15	1256.95	377.15
1008.7474	2822.3157	1260.45	381.5
1008.8659	2823.4807	1261.9	381.45
1008.9844	2824.645	1267.75	385.55
1009.1029	2825.8086	1263.1	383
1009.2214	2826.9716	1279.1	401.1
1009.3398	2828.134	1285.75	407.15
1009.4581	2829.2957	1285.1	404.65
1009.5764	2830.4567	1284.85	407.85
1009.6947	2831.617	1285.6	405
1009.813	2832.7767	1290.3	410.2
1009.9312	2833.9358	1289.85	411.35
1010.0493	2835.0941	1283.65	401.5
1010.1675	2836.2519	1284.35	405.45
1010.2855	2837.4089	1277.6	396.4
1010.4036	2838.5653	1274.4	394.85
1010.5216	2839.7211	1269.2	391.1
1010.6396	2840.8761	1272.4	388.75
1010.7575	2842.0306	1267.4	389.9
1010.8754	2843.1843	1268.55	388.05
1010.9932	2844.3374	1265.25	386.3
1011.111	2845.4899	1263.9	385.1
1011.2288	2846.6417	1266.6	387.5
1011.3465	2847.7928	1267.45	389.55
1011.4642	2848.9433	1270.25	390
1011.5818	2850.0931	1262.45	383.25
1011.6995	2851.2422	1270.85	390.5
1011.817	2852.3907	1270	390.05
1011.9345	2853.5385	1265.95	385.35
1012.052	2854.6857	1273	383.25
1012.1695	2855.8323	1264.7	385.85
1012.2869	2856.9781	1271.55	391.55
1012.4042	2858.1233	1265.15	385.1
1012.5216	2859.2679	1268.35	389.5
1012.6389	2860.4118	1267.3	387.25
1012.7561	2861.555	1276.6	392.15
1012.8733	2862.6976	1279.1	398.1
1012.9905	2863.8395	1267.75	388.55
1013.1076	2864.9808	1272.05	392.55
1013.2247	2866.1214	1269.45	389.45
1013.3417	2867.2614	1271.9	392.15
1013.4587	2868.4007	1272.9	391.55
1013.5757	2869.5393	1276.5	393
1013.6926	2870.6773	1272.15	389.65
1013.8095	2871.8146	1271.75	391.3
1013.9263	2872.9513	1271	390.25
1014.0431	2874.0874	1271.95	390.15
1014.1599	2875.2227	1272.5	391.95
1014.2766	2876.3574	1268.6	389.45
1014.3933	2877.4915	1262.65	383.4
1014.51	2878.6249	1273.6	392.7
1014.6266	2879.7577	1270.55	390.65
1014.7431	2880.8898	1277.1	387.2
1014.8596	2882.0212	1266.85	388.5
1014.9761	2883.152	1270.95	391.05
1015.0925	2884.2821	1269.25	390.1
1015.2089	2885.4116	1270.8	390.1
1015.3253	2886.5405	1264.95	386.75
1015.4416	2887.6686	1269.3	387.1
1015.5579	2888.7962	1265.3	386.8
1015.6741	2889.923	1263.45	384.05
1015.7903	2891.0493	1265.75	386.7
1015.9065	2892.1748	1262.5	381.6
1016.0226	2893.2997	1264.05	384.1
1016.1387	2894.424	1258.3	379.1
1016.2547	2895.5476	1258.25	378.65
1016.3707	2896.6706	1261.1	380.5
1016.4866	2897.7929	1252.7	373.55
1016.6025	2898.9145	1257.4	376.65
1016.7184	2900.0355	1254.5	374
1016.8342	2901.1559	1254.35	372.5
1016.95	2902.2756	1252.45	374.15
1017.0658	2903.3946	1250.5	371.2
1017.1815	2904.513	1248.5	365.95
1017.2971	2905.6308	1251.9	374.1
1017.4127	2906.7479	1242.95	362.65
1017.5283	2907.8643	1247.85	367.7
1017.6439	2908.9801	1245.05	365.4
1017.7594	2910.0953	1243.05	362.25
1017.8748	2911.2098	1248.05	366
1017.9902	2912.3236	1247.3	359
1018.1056	2913.4368	1243.7	361.95
1018.2209	2914.5494	1241.75	363.8
1018.3362	2915.6613	1244.7	358.85
1018.4515	2916.7725	1239.95	357.6
1018.5667	2917.8831	1228.55	349.1
1018.6819	2918.9931	1227.05	345.15
1018.797	2920.1024	1227.05	346.75
1018.9121	2921.211	1219.85	340.5
1019.0271	2922.319	1220.65	341.7
1019.1421	2923.4264	1216.4	338.1
1019.2571	2924.5331	1218.45	339.3
1019.372	2925.6391	1214	335.5
1019.4869	2926.7445	1215.8	337.9
1019.6017	2927.8493	1219.8	339.3
1019.7165	2928.9534	1214.1	333.7
1019.8313	2930.0569	1217	333
1019.946	2931.1597	1212.2	331.85
1020.0606	2932.2619	1216.2	336.1
1020.1753	2933.3634	1215.5	335.6
1020.2899	2934.4643	1221.8	335.4
1020.4044	2935.5645	1223.85	338.55
1020.5189	2936.6641	1218.15	336.2
1020.6334	2937.763	1209.6	331.9
1020.7478	2938.8613	1216.25	334.1
1020.8622	2939.959	1217.05	333.2
1020.9765	2941.056	1208.35	327.9
1021.0908	2942.1523	1201.05	320.65
1021.2051	2943.248	1196.8	318
1021.3193	2944.3431	1192.85	312.95
1021.4334	2945.4375	1182.4	302.6
1021.5476	2946.5313	1169.25	291.75
1021.6617	2947.6244	1168.05	288.3
1021.7757	2948.7169	1165.25	282.55
1021.8897	2949.8087	1159.2	280.6
1022.0037	2950.8999	1156.6	276.35
1022.1176	2951.9904	1145.75	266.35
1022.2315	2953.0803	1145.1	265.05
1022.3453	2954.1696	1137.8	257.95
1022.4591	2955.2582	1138.45	260.05
1022.5728	2956.3462	1137.7	257.6
1022.6865	2957.4335	1136	256.35
1022.8002	2958.5202	1134.15	252.1
1022.9138	2959.6062	1131.95	253.95
1023.0274	2960.6916	1126.45	247.85
1023.141	2961.7764	1127.5	245.85
1023.2545	2962.8605	1127.25	248.25
1023.3679	2963.9439	1126.05	248
1023.4813	2965.0267	1124.2	244.35
1023.5947	2966.1089	1147.65	245.6
1023.708	2967.1905	1124.05	245.1
1023.8213	2968.2714	1124.55	246.2
1023.9346	2969.3516	1116.5	237.95
1024.0478	2970.4312	1124	237.5
1024.1609	2971.5102	1115.1	237.85
1024.274	2972.5885	1119.05	240.15
1024.3871	2973.6662	1115.8	231.8
1024.5002	2974.7432	1117.15	239.45
1024.6132	2975.8196	1113.55	232.5
1024.7261	2976.8954	1118.6	238.6
1024.839	2977.9705	1113.05	234.6
1024.9519	2979.045	1114	235.55
1025.0647	2980.1188	1110.35	233.6
1025.1775	2981.192	1111.15	233.3
1025.2902	2982.2645	1109.05	230.1
1025.4029	2983.3364	1103.2	224.5
1025.5156	2984.4077	1110.4	231.05
1025.6282	2985.4783	1108.4	224.7
1025.7407	2986.5483	1100.35	222.3
1025.8532	2987.6177	1095.65	217.85
1025.9657	2988.6864	1096.9	216.1
1026.0782	2989.7545	1097.3	216.35
1026.1906	2990.8219	1093.95	215.55
1026.3029	2991.8887	1092.4	213.15
1026.4152	2992.9548	1086.2	205.95
1026.5275	2994.0204	1081.55	204.4
1026.6397	2995.0852	1082.1	204.25
1026.7519	2996.1495	1077.3	197.25
1026.864	2997.2131	1072.65	193.8
1026.9761	2998.276	1070.55	192.4
1027.0882	2999.3383	1069.75	189.2
1027.2002	3000.4	1072	190.15
1027.3122	3001.4611	1069.15	190.35
1027.4241	3002.5215	1064.4	186.55
1027.536	3003.5812	1060.9	182.4
1027.6478	3004.6404	1066.45	187.55
1027.7596	3005.6989	1060.25	179.8
1027.8714	3006.7567	1061.3	183.3
1027.9831	3007.8139	1080	179.3
1028.0947	3008.8705	1060.25	180.7
1028.2064	3009.9264	1061	177.95
1028.3179	3010.9818	1057.4	177.6
1028.4295	3012.0364	1056.1	176.8
1028.541	3013.0905	1051.35	170.7
1028.6524	3014.1439	1052.65	175.25
1028.7638	3015.1966	1052.1	174.15
1028.8752	3016.2487	1049.5	170.6
1028.9865	3017.3002	1054.9	168.2
1029.0978	3018.3511	1045.95	170
1029.209	3019.4013	1050.8	171.15
1029.3202	3020.4509	1048.95	169.95
1029.4314	3021.4998	1046.6	166.65
1029.5425	3022.5481	1045.05	165.25
1029.6535	3023.5958	1045.05	166.9
1029.7645	3024.6428	1038.65	157.85
1029.8755	3025.6892	1039.5	160.15
1029.9864	3026.735	1044.15	166.3
1030.0973	3027.7802	1042.5	162.4
1030.2082	3028.8247	1042	163.3
1030.319	3029.8685	1042.9	163.65
1030.4297	3030.9118	1042.55	164.7
1030.5404	3031.9544	1036.2	157.75
1030.6511	3032.9963	1038.05	159.55
1030.7617	3034.0376	1035.3	156.05
1030.8723	3035.0783	1039.85	158.65
1030.9829	3036.1184	1034.95	153.15
1031.0934	3037.1578	1037.25	157.8
1031.2038	3038.1966	1035.1	155
1031.3142	3039.2348	1036.1	156.7
1031.4246	3040.2723	1040.3	152.6
1031.5349	3041.3092	1034.35	155.7
1031.6452	3042.3455	1029.95	152.9
1031.7554	3043.3811	1031.75	153.45
1031.8656	3044.4161	1033.45	154.4
1031.9758	3045.4505	1031.1	153.45
1032.0859	3046.4842	1034.8	155.6
1032.1959	3047.5173	1029.75	152.9
1032.3059	3048.5498	1027.7	149.55
1032.4159	3049.5816	1028.65	149.1
1032.5258	3050.6128	1025.4	144.9
1032.6357	3051.6434	1028.45	147.15
1032.7455	3052.6734	1027.5	147.45
1032.8553	3053.7027	1023.35	144.1
1032.9651	3054.7314	1026.95	147.55
1033.0748	3055.7594	1026.8	148.1
1033.1845	3056.7868	1027.1	147.6
1033.2941	3057.8136	1026.9	148.15
1033.4037	3058.8398	1026.95	147.75
1033.5132	3059.8653	1026.4	146.7
1033.6227	3060.8902	1024.2	147.15
1033.7321	3061.9145	1019.5	140.75
1033.8415	3062.9381	1024.1	146.05
1033.9509	3063.9612	1040	146
1034.0602	3064.9835	1023.9	145.7
1034.1694	3066.0053	1024.3	142.1
1034.2787	3067.0264	1017.7	138.9
1034.3878	3068.0469	1022.65	143
1034.497	3069.0668	1025.95	141.95
1034.6061	3070.086	1020.4	142.1
1034.7151	3071.1046	1020.05	142.05
1034.8241	3072.1226	1019.4	141.4
1034.9331	3073.1399	1014.05	135.3
1035.042	3074.1567	1015.55	136.25
1035.1508	3075.1727	1018.05	138.35
1035.2597	3076.1882	1015.05	136.3
1035.3684	3077.203	1009.95	130.8
1035.4772	3078.2173	1018.85	138.05
1035.5859	3079.2308	1015.75	133.9
1035.6945	3080.2438	1020.75	138.45
1035.8031	3081.2561	1012.8	133.85
1035.9117	3082.2678	1012.9	135.15
1036.0202	3083.2789	1011.2	132.1
1036.1286	3084.2893	1009.2	130.7
1036.2371	3085.2991	1007	126.35
1036.3454	3086.3083	1015.2	133.35
1036.4538	3087.3169	1010.35	131.2
1036.562	3088.3248	1004.65	125.6
1036.6703	3089.3321	1005.45	122.35
1036.7785	3090.3388	1001.55	122.15
1036.8866	3091.3449	1004.95	126.7
1036.9948	3092.3503	1001.45	119.75
1037.1028	3093.3551	997.85	122.1
1037.2108	3094.3593	1000.05	121.4
1037.3188	3095.3629	996.4	118.4
1037.4267	3096.3658	996.9	118.85
1037.5346	3097.3681	1002.5	124.25
1037.6425	3098.3698	997.7	118.65
1037.7503	3099.3708	1008.3	122.3
1037.858	3100.3713	996.1	118.4
1037.9657	3101.3711	997.05	118.1
1038.0734	3102.3702	1129.9	115.5
1038.181	3103.3688	1003.25	121
1038.2886	3104.3667	996.75	119.05
1038.3961	3105.364	994.9	115.9
1038.5036	3106.3607	991.3	110.55
1038.611	3107.3568	991.95	109.7
1038.7184	3108.3522	993.65	115
1038.8257	3109.347	991.85	113.1
1038.933	3110.3412	996.7	112.7
1039.0403	3111.3348	986.65	109.5
1039.1475	3112.3277	989.7	111.6
1039.2547	3113.32	989.35	111
1039.3618	3114.3117	987.6	108.55
1039.4689	3115.3028	985.1	105.75
1039.5759	3116.2932	987.35	105.5
1039.6829	3117.2831	989.7	106.45
1039.7898	3118.2723	983.8	104.15
1039.8967	3119.2608	983.85	106.1
1040.0035	3120.2488	988.8	110.15
1040.1103	3121.2361	984.85	106.95
1040.2171	3122.2229	981.95	102.5
1040.3238	3123.209	981.15	100.2
1040.4305	3124.1944	979.55	102.1
1040.5371	3125.1793	984.25	104.1
1040.6437	3126.1635	978.1	100.3
1040.7502	3127.1471	978.25	100.7
1040.8567	3128.1301	977.65	99.85
1040.9631	3129.1125	974.15	94.45
1041.0695	3130.0942	979.35	100.55
1041.1759	3131.0753	985.55	99.5
1041.2822	3132.0558	984.1	102.7
1041.3884	3133.0357	977.3	97.3
1041.4946	3134.015	976.65	97.05
1041.6008	3134.9936	977.95	98.35
1041.7069	3135.9716	999.55	99
1041.813	3136.949	974	96.25
1041.919	3137.9258	975.7	89.75
1042.025	3138.902	981.9	98.7
1042.1309	3139.8775	975.6	96.65
1042.2368	3140.8524	974.6	96.35
1042.3427	3141.8267	971.65	90.75
1042.4485	3142.8004	972.8	94.45
1042.5542	3143.7735	978.55	93.9
1042.6599	3144.7459	973.15	92.35
1042.7656	3145.7178	974.65	94.3
1042.8712	3146.689	970.45	93.25
1042.9768	3147.6596	971.25	91.6
1043.0823	3148.6295	969.2	91.35
1043.1878	3149.5989	965.45	86.25
1043.2932	3150.5676	964.9	86.25
1043.3986	3151.5357	964.65	87.1
1043.5039	3152.5032	963.4	84.65
1043.6092	3153.4701	969.25	91.35
1043.7145	3154.4364	969.55	88.3
1043.8197	3155.402	965.45	88.05
1043.9248	3156.367	965.55	86.15
1044.03	3157.3315	999.35	83.2
1044.135	3158.2952	965.15	88.9
1044.24	3159.2584	964.7	84.5
1044.345	3160.221	964.5	85
1044.4499	3161.1829	962.9	83.55
1044.5548	3162.1442	959.7	80.3
1044.6596	3163.105	958.75	78.75
1044.7644	3164.065	962.45	84.1
1044.8692	3165.0245	965.05	84.4
1044.9739	3165.9834	958.05	82.5
1045.0785	3166.9416	960.05	82.8
1045.1831	3167.8993	961.4	81.7
1045.2877	3168.8563	961.55	82.65
1045.3922	3169.8127	955.25	77
1045.4966	3170.7684	956.3	77.2
1045.6011	3171.7236	959.7	80.7
1045.7054	3172.6782	956.95	79.25
1045.8098	3173.6321	957.2	77.3
1045.914	3174.5854	960.45	75.2
1046.0183	3175.5381	959.95	83.65
1046.1224	3176.4902	953.4	74.95
1046.2266	3177.4417	956.3	79.6
1046.3307	3178.3926	956.6	77.75
1046.4347	3179.3428	954.35	74
1046.5387	3180.2924	954.7	76.4
1046.6427	3181.2415	952.4	74.5
1046.7466	3182.1899	955.7	75.25
1046.8504	3183.1377	950.7	70.85
1046.9542	3184.0848	955.4	75.8
1047.058	3185.0314	952.7	73.45
1047.1617	3185.9773	951.35	70.75
1047.2654	3186.9227	951.25	70.15
1047.369	3187.8674	952.15	73.65
1047.4726	3188.8115	953.5	69.55
1047.5761	3189.755	948.35	69.6
1047.6796	3190.6979	948.75	71.6
1047.783	3191.6402	951.1	73
1047.8864	3192.5818	949.5	73.05
1047.9898	3193.5229	958.35	72.8
1048.0931	3194.4633	948.6	71.55
1048.1963	3195.4031	947.7	66.2
1048.2995	3196.3423	945.7	68.9
1048.4027	3197.2809	945.3	67.85
1048.5058	3198.2189	948.15	69.65
1048.6089	3199.1563	964.95	67.95
1048.7119	3200.0931	942.75	66.9
1048.8148	3201.0292	943.65	65.9
1048.9178	3201.9648	947	70.2
1049.0206	3202.8997	948.45	66.85
1049.1235	3203.834	946.35	66.55
1049.2262	3204.7677	946.1	69.25
1049.329	3205.7008	947.8	67.65
1049.4317	3206.6333	941.5	65
1049.5343	3207.5652	944.45	62.95
1049.6369	3208.4964	944.6	66.15
1049.7394	3209.4271	941.2	64.35
1049.8419	3210.3571	942	62.4
1049.9444	3211.2865	942.9	64.15
1050.0468	3212.2154	942.55	63.15
1050.1491	3213.1436	945.1	62.5
1050.2514	3214.0712	943.8	60.3
1050.3537	3214.9982	940.4	61.8
1050.4559	3215.9246	938.05	59.1
1050.5581	3216.8503	938.25	60.05
1050.6602	3217.7755	940.6	61
1050.7623	3218.7001	939	61.7
1050.8643	3219.624	939.7	59.65
1050.9663	3220.5473	937.35	59.35
1051.0682	3221.4701	940.9	59.3
1051.1701	3222.3922	942.65	61.2
1051.2719	3223.3137	938.5	59.15
1051.3737	3224.2346	940.6	63.45
1051.4754	3225.1549	936.1	57.9
1051.5771	3226.0746	937.05	58.3
1051.6788	3226.9937	937.55	58.05
1051.7804	3227.9121	935.5	58.4
1051.8819	3228.83	933.85	56.25
1051.9834	3229.7473	935.45	56.9
1052.0849	3230.6639	935.6	56.05
1052.1863	3231.5799	932.35	53.6
1052.2876	3232.4954	938.4	57.9
1052.3889	3233.4102	935.2	55.75
1052.4902	3234.3244	931.6	50.8
1052.5914	3235.238	933.85	56.1
1052.6926	3236.151	962.1	59.4
1052.7937	3237.0634	931.15	54.45
1052.8948	3237.9752	932.05	55.55
1052.9958	3238.8864	931.75	54.15
1053.0968	3239.797	929.85	51.45
1053.1977	3240.7069	933.55	53.7
1053.2986	3241.6163	935.5	55.95
1053.3994	3242.5251	930.2	52
1053.5002	3243.4332	934.1	55.9
1053.6009	3244.3408	929.1	51
1053.7016	3245.2477	929.3	51.5
1053.8022	3246.154	931.85	52.35
1053.9028	3247.0598	931.8	52.85
1054.0034	3247.9649	930	50.6
1054.1039	3248.8694	927.35	48.3
1054.2043	3249.7733	928.95	49.9
1054.3047	3250.6766	929.2	51.3
1054.4051	3251.5793	926.85	46.55
1054.5054	3252.4814	925.05	46.45
1054.6056	3253.3829	926.9	47.3
1054.7058	3254.2838	926.65	48.8
1054.806	3255.1841	926	47.65
1054.9061	3256.0838	927.9	49.25
1055.0061	3256.9829	926	47.1
1055.1062	3257.8814	929.05	46.35
1055.2061	3258.7792	926.3	44.7
1055.306	3259.6765	924.05	44.15
1055.4059	3260.5731	925.6	47.05
1055.5057	3261.4692	926.55	46.1
1055.6055	3262.3647	926.05	48.75
1055.7052	3263.2595	920.5	43.4
1055.8049	3264.1538	922.1	46
1055.9045	3265.0474	920.2	42.2
1056.0041	3265.9404	919.55	40.95
1056.1036	3266.8329	920.5	43.2
1056.2031	3267.7247	929.8	40.2
1056.3025	3268.616	915.95	40.9
1056.4019	3269.5066	918.6	40.45
1056.5013	3270.3966	918.9	38.35
1056.6005	3271.286	912.65	37.05
