Software Version:	3.9.2.0
Unit SN:	10000200
Spectrometer SN:	6960
Date:	3/6/2024 10:39:57 AM
Data Line Index:	25
Spectral Points:	2048
Integration time (ms):	125
Averages:	20
Delay (ms):	30
Sequence Number:	1
Processing:	dark subtract
Laser Power (mW):	305
Laser Current (mA):	823
Laser Diode Temp (C):	25.1
Laser Case Temp (C):	26.9
System Temp (C):	26.7
Spectrometer Temp (C):	24.1
CCD Temp (C):	0.007
Secondary Temp (C):	20.019
Heatsink Temp (C):	22.354
CCDPCB Temp (C):	36.351
SecondaryPCB Temp (C):	31.371

Wavelength	RamanShift	Raw Counts	Dark Subtracted
787.061	30.1047	1119.2	706.75
787.2016	32.3739	1147.15	737.15
787.3422	34.6426	1193.8	782.15
787.4828	36.9109	1245.35	831.7
787.6235	39.1787	1310.45	895.05
787.7642	41.4461	1365.4	943.95
787.9049	43.7131	1418.15	992.6
788.0456	45.9796	1491.75	1061.1
788.1863	48.2456	1552.55	1119.05
788.3271	50.5112	1632.25	1194.25
788.4679	52.7764	1695.6	1254.7
788.6087	55.0411	1763.7	1320.6
788.7496	57.3054	1855.15	1403.65
788.8904	59.5692	1943.15	1491.75
789.0313	61.8326	2041.85	1587.3
789.1722	64.0955	2142.1	1683.65
789.3132	66.3579	2278.5	1813.85
789.4541	68.6199	2426.2	1959.45
789.5951	70.8815	2672.8	2202.75
789.7361	73.1426	3191.35	2717.4
789.8771	75.4032	4506.1	4026.55
790.0181	77.6634	7856.1	7373.65
790.1592	79.9231	16631.95	16143.55
790.3003	82.1824	54240.45	53740.55
790.4414	84.4412	65535	65014.7
790.5825	86.6995	65535	64985.45
790.7237	88.9574	65535	64960.8
790.8648	91.2148	65535	64941.1
791.006	93.4717	65535	64930.6
791.1472	95.7282	65535	64921.4
791.2885	97.9842	65535	64919.2
791.4297	100.2398	65535	64916.1
791.571	102.4949	65535	64910.95
791.7123	104.7495	65535	64907.35
791.8536	107.0036	65535	64906
791.9949	109.2573	65535	64908.2
792.1363	111.5105	65535	64909.85
792.2777	113.7632	65535	64907.3
792.4191	116.0154	65535	64895.4
792.5605	118.2672	65535	64902.2
792.7019	120.5185	65535	64901.15
792.8434	122.7693	65535	64896.05
792.9849	125.0197	65535	64892
793.1264	127.2696	65535	64888.05
793.2679	129.519	65535	64888.3
793.4094	131.7679	65535	64883.9
793.551	134.0163	65535	64878.15
793.6926	136.2642	65535	64878.7
793.8342	138.5117	65535	64866.9
793.9758	140.7587	65535	64873.4
794.1175	143.0052	65535	64871.7
794.2591	145.2512	65535	64870.15
794.4008	147.4967	65535	64871
794.5425	149.7417	65535	64869.65
794.6842	151.9863	65535	64863.75
794.826	154.2304	65535	64859
794.9677	156.4739	65535	64854.6
795.1095	158.717	65535	64849.35
795.2513	160.9596	65535	64846.2
795.3931	163.2017	65535	64853.3
795.535	165.4433	65535	64846.8
795.6768	167.6844	65535	64846.65
795.8187	169.925	65535	64843.3
795.9606	172.1651	65535	64841.1
796.1025	174.4047	65535	64835.5
796.2445	176.6439	65535	64837.5
796.3864	178.8825	65535	64832.65
796.5284	181.1206	65535	64826.45
796.6704	183.3582	65535	64824.7
796.8124	185.5954	65535	64822.75
796.9544	187.832	65535	64819.4
797.0965	190.0681	65535	64816.55
797.2386	192.3037	65535	64810.75
797.3806	194.5388	65535	64809.95
797.5228	196.7734	65535	64803.05
797.6649	199.0075	65535	64804.6
797.807	201.2411	65535	64804.35
797.9492	203.4742	65535	64801.75
798.0914	205.7068	65535	64801
798.2336	207.9389	65535	64798.65
798.3758	210.1704	65535	64791.45
798.518	212.4015	65535	64793.95
798.6603	214.632	65535	64804.9
798.8025	216.862	65535	64815.3
798.9448	219.0915	65535	64818.15
799.0871	221.3205	65535	64810.6
799.2294	223.549	65535	64819
799.3718	225.777	65535	64818.45
799.5141	228.0044	65535	64814.35
799.6565	230.2314	65535	64812.05
799.7989	232.4578	65535	64812.1
799.9413	234.6837	65535	64802.45
800.0837	236.909	65535	64802.7
800.2262	239.1339	65535	64775.95
800.3687	241.3582	65535	64789.35
800.5111	243.582	65535	64758.15
800.6536	245.8053	65535	64773.8
800.7961	248.0281	65535	64781
800.9387	250.2503	65535	64773.85
801.0812	252.472	65535	64768.2
801.2238	254.6932	65535	64763.65
801.3664	256.9139	65535	64767.8
801.509	259.134	65535	64768.65
801.6516	261.3536	65535	64768.15
801.7942	263.5727	65535	64762.7
801.9369	265.7912	65535	64765.85
802.0795	268.0092	65535	64765.9
802.2222	270.2267	65535	64760.8
802.3649	272.4436	65535	64762.6
802.5076	274.6601	65535	64758.55
802.6504	276.8759	65535	64760.3
802.7931	279.0913	65535	64755.65
802.9359	281.3061	65535	64755.8
803.0787	283.5204	65535	64752.9
803.2215	285.7341	65535	64752.2
803.3643	287.9473	65535	64735.85
803.5071	290.16	65535	64745.35
803.6499	292.3721	65535	64750.1
803.7928	294.5837	65535	64750.25
803.9357	296.7947	65535	64749
804.0786	299.0052	65535	64748.6
804.2215	301.2152	65535	64747.3
804.3644	303.4246	65535	64750.05
804.5074	305.6334	65535	64751
804.6503	307.8418	65535	64746.1
804.7933	310.0495	65535	64744.1
804.9363	312.2568	65535	64746
805.0793	314.4635	65535	64742.1
805.2223	316.6696	65535	64739.9
805.3653	318.8752	65535	64732.05
805.5084	321.0802	65535	64741.35
805.6514	323.2847	65535	64734.3
805.7945	325.4887	65535	64738.7
805.9376	327.692	65535	64738.15
806.0807	329.8949	65535	64732.65
806.2238	332.0972	65535	64733.2
806.367	334.2989	65535	64730
806.5101	336.5001	65535	64729.55
806.6533	338.7007	65535	64730
806.7965	340.9008	65535	64730.8
806.9397	343.1003	65535	64726.5
807.0829	345.2992	65535	64724.8
807.2261	347.4976	65535	64725.65
807.3693	349.6955	65535	64720.9
807.5126	351.8927	65535	64719.8
807.6559	354.0895	65535	64707.5
807.7991	356.2856	65535	64718.9
807.9424	358.4812	65535	64719.95
808.0857	360.6763	65535	64713.05
808.2291	362.8707	65535	64713.55
808.3724	365.0646	65535	64712.1
808.5158	367.258	65535	64712.1
808.6591	369.4508	65535	64709.3
808.8025	371.643	65535	64709.15
808.9459	373.8346	65535	64707.2
809.0893	376.0257	65535	64705.6
809.2327	378.2162	65535	64704.95
809.3762	380.4062	65535	64701.8
809.5196	382.5956	65535	64697.6
809.6631	384.7844	65535	64704.95
809.8066	386.9726	65535	64704.6
809.9501	389.1603	65535	64707.95
810.0936	391.3474	65535	64668.85
810.2371	393.5339	65535	64709.35
810.3806	395.7199	65535	64713.4
810.5241	397.9052	65535	64711.05
810.6677	400.09	65535	64709.4
810.8113	402.2743	65535	64711
810.9548	404.4579	65535	64712.05
811.0984	406.641	65535	64707.7
811.2421	408.8235	65535	64710.1
811.3857	411.0054	65535	64705.25
811.5293	413.1868	65535	64705
811.673	415.3675	65535	64699.4
811.8166	417.5477	65535	64698.45
811.9603	419.7273	65535	64695
812.104	421.9064	65535	64688
812.2477	424.0848	65535	64692.8
812.3914	426.2627	65535	64692.35
812.5351	428.4399	65535	64689.5
812.6788	430.6166	65535	64689.4
812.8226	432.7928	65535	64690.8
812.9663	434.9683	65535	64687.2
813.1101	437.1432	65535	64685.1
813.2539	439.3176	65535	64685.8
813.3977	441.4914	65535	64688.95
813.5415	443.6645	65535	64686.25
813.6853	445.8371	65535	64688.05
813.8291	448.0091	65535	64690.15
813.973	450.1806	65535	64686.05
814.1168	452.3514	65535	64684.85
814.2607	454.5216	65535	64676.65
814.4046	456.6913	65535	64684
814.5485	458.8603	65535	64684.55
814.6924	461.0288	65535	64683.4
814.8363	463.1967	65535	64687.05
814.9802	465.3639	65535	64684
815.1241	467.5306	65535	64680.7
815.2681	469.6967	65535	64681.8
815.412	471.8622	65535	64682.35
815.556	474.0271	65535	64682.45
815.7	476.1914	65535	64678.6
815.844	478.3551	65535	64680
815.988	480.5182	65535	64682.5
816.132	482.6807	65535	64680.2
816.276	484.8426	65535	64685.05
816.4201	487.0039	65535	64682.65
816.5641	489.1647	65535	64676.95
816.7082	491.3248	65535	64680
816.8522	493.4843	65535	64679
816.9963	495.6432	65535	64680.05
817.1404	497.8015	65535	64674
817.2845	499.9592	65535	64678
817.4286	502.1163	65535	64674.45
817.5727	504.2728	65535	64672.75
817.7168	506.4287	65535	64676
817.861	508.5839	65535	64674.05
818.0051	510.7386	65535	64674.65
818.1493	512.8927	65535	64673.6
818.2935	515.0461	65535	64675.45
818.4377	517.199	65535	64674.4
818.5818	519.3512	65535	64675.35
818.726	521.5029	65535	64666
818.8703	523.6539	65535	64670.85
819.0145	525.8043	65535	64671.65
819.1587	527.9541	65535	64667.25
819.303	530.1033	65535	64667.1
819.4472	532.2519	65535	64663.95
819.5915	534.3999	65535	64666.65
819.7357	536.5472	65535	64671.25
819.88	538.694	65535	64667.95
820.0243	540.8401	65535	64667
820.1686	542.9856	65535	64665.2
820.3129	545.1305	65535	64663.15
820.4572	547.2748	65535	64661.4
820.6016	549.4185	65535	64663.9
820.7459	551.5615	65535	64661.85
820.8902	553.704	65535	64660.35
821.0346	555.8458	65535	64663.25
821.1789	557.987	65535	64664.6
821.3233	560.1276	65535	64662.55
821.4677	562.2675	65535	64662.3
821.6121	564.4069	65535	64664.7
821.7565	566.5456	65535	64661.9
821.9009	568.6837	65535	64661.8
822.0453	570.8212	65535	64662.65
822.1897	572.958	65535	64661.75
822.3342	575.0942	65535	64662.9
822.4786	577.2299	65535	64662.75
822.6231	579.3648	65535	64664.75
822.7675	581.4992	65535	64660.95
822.912	583.6329	65535	64663.65
823.0565	585.766	65535	64665.85
823.201	587.8985	65535	64663.15
823.3454	590.0304	65535	64634.05
823.4899	592.1616	65535	64656.45
823.6345	594.2922	65535	64657.75
823.779	596.4222	65535	64658.35
823.9235	598.5515	65535	64658
824.068	600.6802	65535	64655.5
824.2126	602.8083	65535	64658.3
824.3571	604.9358	65535	64657.65
824.5017	607.0626	65535	64657.5
824.6462	609.1888	65535	64657.8
824.7908	611.3144	65535	64653.55
824.9354	613.4393	65535	64657.15
825.08	615.5636	65535	64652.05
825.2246	617.6873	65535	64657
825.3692	619.8103	65535	64652.7
825.5138	621.9327	65535	64652.9
825.6584	624.0544	65535	64655.05
825.803	626.1756	65535	64656.25
825.9477	628.2961	65535	64654.75
826.0923	630.4159	65535	64652.55
826.237	632.5351	65535	64652.45
826.3816	634.6537	65535	64653.3
826.5263	636.7716	65535	64650.45
826.6709	638.8889	65535	64648.4
826.8156	641.0056	65535	64649
826.9603	643.1216	65535	64651.5
827.105	645.237	65535	64649.2
827.2497	647.3518	65535	64652.45
827.3944	649.4659	65535	64649.25
827.5391	651.5793	65535	64649.45
827.6838	653.6922	65535	64652.1
827.8285	655.8043	65535	64651.8
827.9733	657.9159	65535	64651.4
828.118	660.0268	65535	64646.2
828.2627	662.137	65535	64646.85
828.4075	664.2466	65535	64644.85
828.5522	666.3556	65535	64644.8
828.697	668.4639	65535	64645.1
828.8418	670.5716	65535	64650.2
828.9865	672.6786	65535	64646.55
829.1313	674.785	65535	64645.75
829.2761	676.8907	65535	64647.65
829.4209	678.9958	65535	64650.25
829.5657	681.1002	65535	64644.7
829.7105	683.204	65535	64644.45
829.8553	685.3072	65535	64641.9
830.0001	687.4097	65535	64644.45
830.1449	689.5115	65535	64643.9
830.2898	691.6127	65535	64644.95
830.4346	693.7132	65535	64647.75
830.5794	695.8131	65535	64634.85
830.7243	697.9123	65535	64644.9
830.8691	700.0109	65535	64642.05
831.014	702.1089	65535	64643.85
831.1588	704.2061	65535	64645.05
831.3037	706.3028	65535	64642.4
831.4486	708.3987	65535	64640.45
831.5935	710.4941	65535	64645.4
831.7383	712.5887	65535	64642.7
831.8832	714.6827	65535	64639.65
832.0281	716.7761	65535	64641.45
832.173	718.8688	65535	64639.4
832.3179	720.9608	65535	64636.25
832.4628	723.0522	65535	64638.3
832.6077	725.1429	65535	64639.5
832.7527	727.233	65535	64641.95
832.8976	729.3224	65535	64640.3
833.0425	731.4112	65535	64639.35
833.1874	733.4993	65535	64639.75
833.3324	735.5867	65535	64641
833.4773	737.6735	65535	64639.8
833.6222	739.7596	65535	64637.15
833.7672	741.845	65535	64639.9
833.9122	743.9298	65535	64640
834.0571	746.014	65535	64641.25
834.2021	748.0974	65535	64636.75
834.347	750.1802	65535	64637.8
834.492	752.2624	65535	64640
834.637	754.3439	65535	64635.8
834.782	756.4247	65535	64630.45
834.9269	758.5048	65535	64636.9
835.0719	760.5843	65535	64638.45
835.2169	762.6631	65535	64636.25
835.3619	764.7413	65535	64638.15
835.5069	766.8188	65535	64641.05
835.6519	768.8956	65535	64635.45
835.7969	770.9718	65535	64638.8
835.9419	773.0473	65535	64639.9
836.0869	775.1221	65535	64636.7
836.232	777.1962	65535	64635.95
836.377	779.2697	65535	64636.7
836.522	781.3426	65535	64618.95
836.667	783.4147	65535	64635
836.8121	785.4862	65535	64637.05
836.9571	787.557	65535	64634.45
837.1021	789.6271	65535	64637.4
837.2472	791.6966	65535	64635.05
837.3922	793.7654	65535	64633.2
837.5373	795.8335	65535	64634.55
837.6823	797.901	65535	64633.6
837.8274	799.9678	65535	64635.05
837.9724	802.0339	65535	64638.1
838.1175	804.0993	65535	64625.6
838.2626	806.1641	65535	64632.75
838.4076	808.2282	65535	64631.55
838.5527	810.2916	65535	64634.6
838.6978	812.3544	65535	64637.5
838.8428	814.4164	65535	64635.6
838.9879	816.4778	65535	64633.4
839.133	818.5385	65535	64635.4
839.2781	820.5986	65535	64634.2
839.4232	822.658	65535	64630.95
839.5682	824.7166	65535	64633.25
839.7133	826.7747	65535	64633.7
839.8584	828.832	65535	64635.4
840.0035	830.8886	65535	64629.95
840.1486	832.9446	65535	64632.75
840.2937	834.9999	65535	64633.6
840.4388	837.0545	65535	64632.65
840.5839	839.1085	65535	64635.3
840.729	841.1618	65535	64628.6
840.8741	843.2143	65535	64633.55
841.0192	845.2662	65535	64633.75
841.1643	847.3175	65535	64633.8
841.3095	849.368	65535	64635
841.4546	851.4179	65535	64632.1
841.5997	853.467	65535	64634.55
841.7448	855.5155	65535	64633.75
841.8899	857.5633	65535	64633
842.0351	859.6105	65535	64633
842.1802	861.6569	65535	64633.25
842.3253	863.7027	65535	64630.8
842.4704	865.7478	65535	64632.65
842.6156	867.7922	65535	64633.1
842.7607	869.8359	65535	64632.45
842.9058	871.8789	65535	64633
843.0509	873.9212	65535	64602.45
843.1961	875.9629	65535	64634.75
843.3412	878.0039	65535	64632.55
843.4863	880.0441	65535	64632.45
843.6315	882.0837	65535	64632.7
843.7766	884.1226	65535	64631.8
843.9218	886.1609	65535	64632.85
844.0669	888.1984	65535	64632.15
844.212	890.2352	65535	64633.6
844.3572	892.2714	65535	64627.45
844.5023	894.3069	65535	64626.55
844.6475	896.3416	65535	64630.3
844.7926	898.3757	65535	64629.45
844.9377	900.4091	65535	64632.6
845.0829	902.4418	65535	64631.15
845.228	904.4739	65535	64628.9
845.3732	906.5052	65535	64630.6
845.5183	908.5358	65535	64630.75
845.6635	910.5658	65535	64630.95
845.8086	912.595	65535	64629.95
845.9538	914.6236	65535	64627.2
846.0989	916.6515	65535	64632.25
846.2441	918.6786	65535	64628.05
846.3892	920.7051	65535	64627.25
846.5344	922.7309	65535	64629.15
846.6795	924.756	65535	64628.85
846.8246	926.7804	65535	64626.2
846.9698	928.8041	65535	64627.05
847.1149	930.8272	65535	64629.6
847.2601	932.8495	65535	64629.9
847.4052	934.8711	65535	64625.4
847.5504	936.892	65535	64631.05
847.6955	938.9123	65535	64629.05
847.8407	940.9318	65535	64629.8
847.9858	942.9506	65535	64628.9
848.131	944.9688	65535	64630.65
848.2761	946.9862	65535	64628.85
848.4213	949.003	65535	64630.15
848.5664	951.019	65535	64628.95
848.7115	953.0344	65535	64631.05
848.8567	955.0491	65535	64628.35
849.0018	957.063	65535	64628.6
849.147	959.0763	65535	64631.55
849.2921	961.0888	65535	64627.65
849.4373	963.1007	65535	64632.8
849.5824	965.1119	65535	64630.4
849.7275	967.1223	65535	64632.65
849.8727	969.1321	65535	64632.9
850.0178	971.1412	65535	64632.4
850.1629	973.1495	65535	64631.75
850.3081	975.1572	65535	64582.6
850.4532	977.1641	65535	64630.4
850.5983	979.1704	65535	64630.4
850.7435	981.1759	65535	64622.45
850.8886	983.1808	65535	64631.65
851.0337	985.1849	65535	64618.2
851.1788	987.1884	65535	64625.5
851.324	989.1911	65535	64626.15
851.4691	991.1932	65535	64627.05
851.6142	993.1945	65535	64629.1
851.7593	995.1951	65535	64628.6
851.9045	997.1951	65535	64622.85
852.0496	999.1943	65535	64629.5
852.1947	1001.1928	65535	64627.85
852.3398	1003.1906	65535	64627.8
852.4849	1005.1877	65535	64629.55
852.63	1007.1841	65535	64632.15
852.7751	1009.1798	65535	64631.9
852.9202	1011.1748	65535	64629.6
853.0653	1013.1691	65535	64632.3
853.2104	1015.1627	65535	64630.4
853.3555	1017.1556	65535	64628.05
853.5006	1019.1477	65535	64627.55
853.6457	1021.1392	65535	64631.3
853.7908	1023.1299	65535	64631.55
853.9359	1025.12	65535	64629.85
854.081	1027.1093	65535	64635
854.2261	1029.0979	65535	64636.4
854.3712	1031.0859	65535	64634.4
854.5163	1033.0731	65535	64630.15
854.6613	1035.0596	65535	64632.55
854.8064	1037.0454	65535	64628
854.9515	1039.0304	65535	64627.8
855.0965	1041.0148	65535	64630.3
855.2416	1042.9985	65535	64628.6
855.3867	1044.9814	65535	64634.15
855.5317	1046.9636	65535	64627.45
855.6768	1048.9452	65535	64631.05
855.8219	1050.926	65535	64632
855.9669	1052.9061	65535	64629.7
856.112	1054.8855	65535	64630.55
856.257	1056.8642	65535	64631.35
856.4021	1058.8421	65535	64625.15
856.5471	1060.8194	65535	64627.85
856.6921	1062.7959	65535	64630.2
856.8372	1064.7717	65535	64628.25
856.9822	1066.7469	65535	64627.45
857.1272	1068.7213	65535	64628.1
857.2723	1070.695	65535	64630.15
857.4173	1072.6679	65535	64630.1
857.5623	1074.6402	65535	64628.05
857.7073	1076.6117	65535	64623.65
857.8523	1078.5826	65535	64631.8
857.9973	1080.5527	65535	64627.65
858.1423	1082.5221	65535	64629.5
858.2873	1084.4908	65535	64628.7
858.4323	1086.4587	65535	64628.55
858.5773	1088.426	65535	64629.8
858.7223	1090.3925	65535	64625.35
858.8673	1092.3584	65535	64628.8
859.0123	1094.3235	65535	64630.25
859.1573	1096.2879	65535	64627.7
859.3022	1098.2515	65535	64629.35
859.4472	1100.2145	65535	64628.95
859.5922	1102.1767	65535	64626.5
859.7371	1104.1382	65535	64631.85
859.8821	1106.099	65535	64628.05
860.027	1108.0591	65535	64629
860.172	1110.0185	65535	64629.3
860.3169	1111.9771	65535	64629.25
860.4619	1113.9351	65535	64629.45
860.6068	1115.8923	65535	64629.1
860.7517	1117.8488	65535	64628.2
860.8967	1119.8045	65535	64630.45
861.0416	1121.7596	65535	64631.05
861.1865	1123.7139	65535	64630.65
861.3314	1125.6675	65535	64629
861.4763	1127.6204	65535	64632.55
861.6212	1129.5726	65535	64626.75
861.7661	1131.524	65535	64630.45
861.911	1133.4748	65535	64628.3
862.0559	1135.4248	65535	64628.75
862.2008	1137.3741	65535	64630.95
862.3457	1139.3226	65535	64628.3
862.4905	1141.2705	65535	64630.6
862.6354	1143.2176	65535	64624.6
862.7803	1145.164	65535	64629.1
862.9251	1147.1097	65535	64629.3
863.07	1149.0546	65535	64629.65
863.2148	1150.9989	65535	64630.9
863.3597	1152.9424	65535	64630.55
863.5045	1154.8852	65535	64629.8
863.6493	1156.8272	65535	64629.35
863.7942	1158.7686	65535	64623.75
863.939	1160.7092	65535	64629.65
864.0838	1162.6491	65535	64629.8
864.2286	1164.5883	65535	64629.45
864.3734	1166.5267	65535	64631.05
864.5182	1168.4644	65535	64629
864.663	1170.4014	65535	64625.55
864.8078	1172.3377	65535	64630.75
864.9526	1174.2732	65535	64632.35
865.0974	1176.2081	65535	64629
865.2421	1178.1421	65535	64625.9
865.3869	1180.0755	65535	64631.05
865.5317	1182.0082	65535	64633.25
865.6764	1183.9401	65535	64630.55
865.8212	1185.8713	65535	64630.9
865.9659	1187.8017	65535	64630.15
866.1106	1189.7315	65535	64635.15
866.2554	1191.6605	65535	64604.4
866.4001	1193.5888	65535	64634.1
866.5448	1195.5163	65535	64629.85
866.6895	1197.4432	65535	64629.1
866.8342	1199.3693	65535	64632.65
866.9789	1201.2947	65535	64628
867.1236	1203.2193	65535	64630.7
867.2683	1205.1432	65535	64631.75
867.413	1207.0664	65535	64630.8
867.5576	1208.9889	65535	64626.75
867.7023	1210.9106	65535	64630.8
867.847	1212.8316	65535	64631.35
867.9916	1214.7519	65535	64621.35
868.1363	1216.6715	65535	64630.55
868.2809	1218.5903	65535	64631.2
868.4255	1220.5084	65535	64632.65
868.5701	1222.4257	65535	64631
868.7148	1224.3424	65535	64632.05
868.8594	1226.2583	65535	64626.9
869.004	1228.1735	65535	64628.45
869.1486	1230.0879	65535	64630.05
869.2932	1232.0016	65535	64634.45
869.4377	1233.9146	65535	64628.85
869.5823	1235.8269	65535	64633.25
869.7269	1237.7384	65535	64632.8
869.8715	1239.6492	65535	64630.4
870.016	1241.5592	65535	64631.1
870.1606	1243.4686	65535	64631.1
870.3051	1245.3772	65535	64632.1
870.4496	1247.285	65535	64631.45
870.5941	1249.1922	65535	64630.4
870.7387	1251.0986	65535	64630.9
870.8832	1253.0042	65535	64631.65
871.0277	1254.9092	65535	64632.5
871.1722	1256.8134	65535	64632.65
871.3167	1258.7169	65535	64630.4
871.4611	1260.6196	65535	64630.6
871.6056	1262.5216	65535	64631.2
871.7501	1264.4229	65535	64633.45
871.8945	1266.3234	65535	64632.4
872.039	1268.2232	65535	64631.9
872.1834	1270.1223	65535	64631.7
872.3278	1272.0207	65535	64631.45
872.4723	1273.9183	65535	64623.95
872.6167	1275.8151	65535	64633.05
872.7611	1277.7113	65535	64629.9
872.9055	1279.6067	65535	64632.7
873.0499	1281.5014	65535	64629.3
873.1943	1283.3953	65535	64628.1
873.3386	1285.2885	65535	64634.8
873.483	1287.181	65535	64629.6
873.6274	1289.0727	65535	64631.8
873.7717	1290.9637	65535	64632.55
873.9161	1292.854	65535	64632.7
874.0604	1294.7435	65535	64631.6
874.2047	1296.6323	65535	64630.35
874.349	1298.5204	65535	64627
874.4933	1300.4077	65535	64630.1
874.6376	1302.2943	65535	64628.45
874.7819	1304.1802	65535	64633.2
874.9262	1306.0653	65535	64630.2
875.0705	1307.9497	65535	64633.85
875.2147	1309.8333	65535	64631.85
875.359	1311.7162	65535	64632.1
875.5032	1313.5984	65535	64629.35
875.6475	1315.4798	65535	64620
875.7917	1317.3605	65535	64615.25
875.9359	1319.2405	65535	64630.9
876.0801	1321.1197	65535	64629
876.2243	1322.9982	65535	64627.45
876.3685	1324.876	65535	64631.1
876.5127	1326.753	65535	64631.35
876.6569	1328.6293	65535	64629.55
876.801	1330.5048	65535	64628.9
876.9452	1332.3796	65535	64632.7
877.0893	1334.2537	65535	64605.95
877.2335	1336.127	65535	64631.05
877.3776	1337.9996	65535	64631.45
877.5217	1339.8714	65535	64632.8
877.6658	1341.7426	65535	64584.4
877.8099	1343.6129	65535	64630.8
877.954	1345.4826	65535	64631.65
878.0981	1347.3515	65535	64628
878.2422	1349.2196	65535	64628.95
878.3862	1351.087	65535	64632.45
878.5303	1352.9537	65535	64630.75
878.6743	1354.8197	65535	64633.3
878.8184	1356.6849	65535	64629.8
878.9624	1358.5493	65535	64630.5
879.1064	1360.4131	65535	64632.9
879.2504	1362.276	65535	64631.75
879.3944	1364.1383	65535	64631.5
879.5384	1365.9998	65535	64625.2
879.6823	1367.8606	65535	64630.75
879.8263	1369.7206	65535	64632.05
879.9702	1371.5799	65535	64630.05
880.1142	1373.4384	65535	64630.5
880.2581	1375.2962	65535	64630.05
880.402	1377.1533	65535	64632.1
880.5459	1379.0096	65535	64633.1
880.6898	1380.8652	65535	64633.1
880.8337	1382.7201	65535	64632.85
880.9776	1384.5742	65535	64632.3
881.1215	1386.4275	65535	64629
881.2653	1388.2802	65535	64630.7
881.4092	1390.132	65535	64630.8
881.553	1391.9832	65535	64628.15
881.6968	1393.8336	65535	64631.15
881.8406	1395.6832	65535	64628.8
881.9844	1397.5322	65535	64629.15
882.1282	1399.3803	65535	64624.4
882.272	1401.2278	65535	64631.05
882.4158	1403.0745	65535	64630.7
882.5595	1404.9204	65535	64633.05
882.7033	1406.7656	65535	64633.4
882.847	1408.6101	65535	64630.55
882.9908	1410.4538	65535	64631.15
883.1345	1412.2968	65535	64632.85
883.2782	1414.139	65535	64633.35
883.4219	1415.9805	65535	64632.2
883.5656	1417.8213	65535	64626.4
883.7092	1419.6613	65535	64633.65
883.8529	1421.5006	65535	64631.3
883.9965	1423.3391	65535	64631.35
884.1402	1425.1769	65535	64630.9
884.2838	1427.0139	65535	64630.85
884.4274	1428.8502	65535	64628.1
884.571	1430.6858	65535	64631.3
884.7146	1432.5206	65535	64630.65
884.8582	1434.3547	65535	64630.45
885.0018	1436.188	65535	64633.4
885.1453	1438.0206	65535	64631.55
885.2889	1439.8524	65535	64632.9
885.4324	1441.6835	65535	64632.45
885.5759	1443.5139	65535	64629.15
885.7194	1445.3435	65535	64632
885.8629	1447.1724	65535	64632.05
886.0064	1449.0005	65535	64633.6
886.1499	1450.8279	65535	64629.45
886.2933	1452.6545	65535	64632.2
886.4368	1454.4804	65535	64633.5
886.5802	1456.3056	65535	64625.35
886.7237	1458.13	65535	64633.6
886.8671	1459.9536	65535	64632.5
887.0105	1461.7766	65535	64633.4
887.1539	1463.5987	65535	64632.2
887.2972	1465.4202	65535	64632
887.4406	1467.2409	65535	64632.7
887.584	1469.0608	65535	64632.8
887.7273	1470.88	65535	64631.05
887.8706	1472.6984	65535	64633.45
888.0139	1474.5161	65535	64629.3
888.1572	1476.3331	65535	64636.2
888.3005	1478.1493	65535	64631.25
888.4438	1479.9648	65535	64631.25
888.5871	1481.7795	65535	64633.55
888.7303	1483.5935	65535	64632.9
888.8736	1485.4067	65535	64633
889.0168	1487.2192	65535	64633.2
889.16	1489.031	65535	64631.45
889.3032	1490.842	65535	64632.95
889.4464	1492.6522	65535	64632.6
889.5896	1494.4618	65535	64631.85
889.7327	1496.2705	65535	64633
889.8759	1498.0785	65535	64632.8
890.019	1499.8858	65535	64631.35
890.1622	1501.6924	65535	64633.6
890.3053	1503.4981	65535	64632.4
890.4484	1505.3032	65535	64633.6
890.5914	1507.1075	65535	64630.5
890.7345	1508.911	65535	64633.7
890.8776	1510.7138	65535	64631.6
891.0206	1512.5159	65535	64631.65
891.1637	1514.3172	65535	64632.45
891.3067	1516.1178	65535	64634.3
891.4497	1517.9176	65535	64630.85
891.5927	1519.7166	65535	64634.45
891.7357	1521.515	65535	64629.4
891.8786	1523.3126	65535	64633.95
892.0216	1525.1094	65535	64629.2
892.1645	1526.9055	65535	64633.3
892.3074	1528.7008	65535	64635.6
892.4503	1530.4954	65535	64627.45
892.5932	1532.2893	65535	64634.6
892.7361	1534.0824	65535	64627.85
892.879	1535.8747	65535	64635.25
893.0218	1537.6663	65535	64634.6
893.1647	1539.4572	65535	64634.15
893.3075	1541.2473	65535	64633.8
893.4503	1543.0367	65535	64634.45
893.5931	1544.8253	65535	64630.9
893.7359	1546.6132	65535	64631.4
893.8787	1548.4003	65535	64625.25
894.0214	1550.1867	65535	64626.35
894.1642	1551.9723	65535	64632.65
894.3069	1553.7572	65535	64632.9
894.4496	1555.5414	65535	64633.75
894.5923	1557.3247	65535	64635.5
894.735	1559.1074	65535	64637.15
894.8777	1560.8893	65535	64636.95
895.0204	1562.6705	65535	64636.6
895.163	1564.4509	65535	64634.2
895.3056	1566.2305	65535	64637.7
895.4482	1568.0094	65535	64637.05
895.5908	1569.7876	65535	64636.7
895.7334	1571.565	65535	64632.7
895.876	1573.3417	65535	64634.75
896.0186	1575.1176	65535	64636.75
896.1611	1576.8928	65535	64635.1
896.3036	1578.6672	65535	64638.7
896.4461	1580.4409	65535	64639.35
896.5886	1582.2138	65535	64636.4
896.7311	1583.986	65535	64636.3
896.8736	1585.7575	65535	64639.3
897.0161	1587.5282	65535	64638.55
897.1585	1589.2981	65535	64639.8
897.3009	1591.0673	65535	64638.2
897.4433	1592.8358	65535	64637.35
897.5857	1594.6035	65535	64633.6
897.7281	1596.3704	65535	64635.9
897.8705	1598.1366	65534.65	64636.05
898.0128	1599.9021	65527.95	64632
898.1551	1601.6668	65535	64634.8
898.2975	1603.4308	65530.7	64632.65
898.4398	1605.194	65528.9	64625.45
898.5821	1606.9564	65515.75	64618.6
898.7243	1608.7182	65526.7	64629.05
898.8666	1610.4791	65520.2	64624.55
899.0088	1612.2394	65529.7	64635.45
899.1511	1613.9988	65502.75	64606.6
899.2933	1615.7576	65529.15	64630.3
899.4355	1617.5156	65529.25	64628.65
899.5776	1619.2728	65535	64636.2
899.7198	1621.0293	65519.7	64622.2
899.862	1622.785	65520.75	64619.9
900.0041	1624.54	65526.6	64626.8
900.1462	1626.2942	65502.85	64606.55
900.2883	1628.0477	65417.8	64518.6
900.4304	1629.8005	65261.5	64360.75
900.5725	1631.5525	65441.45	64543.3
900.7145	1633.3037	65206.7	64309.05
900.8566	1635.0542	65126.3	64231.2
900.9986	1636.804	65322.5	64426
901.1406	1638.553	64943.35	63962.75
901.2826	1640.3013	65072.95	64175.9
901.4245	1642.0488	64820.15	63921.25
901.5665	1643.7955	65030.1	64133.55
901.7085	1645.5416	64856.55	63960.25
901.8504	1647.2868	64616.25	63718.25
901.9923	1649.0313	64979.7	64085
902.1342	1650.7751	64766.25	63867.85
902.2761	1652.5181	64621.1	63726.15
902.4179	1654.2604	64677.45	63779.9
902.5598	1656.0019	64795.8	63899.8
902.7016	1657.7427	64727.9	63831.65
902.8434	1659.4828	64969.75	64072.25
902.9852	1661.222	64671.85	63775
903.127	1662.9606	64998.8	64101.15
903.2687	1664.6984	64593	63694.1
903.4105	1666.4354	64805.4	63908.85
903.5522	1668.1717	64154.6	63256.8
903.6939	1669.9072	63262.5	62365.5
903.8356	1671.642	63248.8	62348.7
903.9773	1673.3761	62984.15	62086.15
904.119	1675.1094	62812.25	61916.95
904.2606	1676.8419	61834.95	60939
904.4022	1678.5737	62140.15	61245.95
904.5439	1680.3048	61693.8	60797.4
904.6855	1682.0351	61364.4	60469.3
904.827	1683.7646	60983.05	60084.9
904.9686	1685.4934	61324.7	60429.3
905.1101	1687.2215	59839.1	58942.45
905.2517	1688.9488	60949.65	60053.5
905.3932	1690.6754	58747.55	57852.35
905.5347	1692.4012	59736.25	58842.25
905.6761	1694.1263	59795.8	58900.4
905.8176	1695.8506	58996.5	58099.7
905.9591	1697.5742	59025	58129.65
906.1005	1699.297	58776.35	57880.1
906.2419	1701.0191	58882.35	57985.2
906.3833	1702.7404	57950.1	57056.25
906.5246	1704.461	57672.95	56775.75
906.666	1706.1808	58023.65	57128.45
906.8073	1707.8999	57800.25	56905.25
906.9487	1709.6182	57398.55	56506
907.09	1711.3358	57297.95	56401.25
907.2313	1713.0527	57122.8	56229.6
907.3725	1714.7688	57146.8	56246.3
907.5138	1716.4841	56127.15	55229.6
907.655	1718.1987	56480.05	55580.15
907.7962	1719.9126	56220.7	55327.2
907.9374	1721.6257	56289.9	55391.85
908.0786	1723.338	56333.8	55438.5
908.2198	1725.0496	55310.2	54415.45
908.3609	1726.7605	55357.15	54461.85
908.502	1728.4706	55019.3	54124.9
908.6431	1730.18	55173.05	54277.3
908.7842	1731.8886	54856.05	53964.1
908.9253	1733.5964	54507.6	53590.3
909.0664	1735.3036	54733.55	53838.3
909.2074	1737.0099	54425.7	53531.2
909.3484	1738.7156	54089.05	53196.5
909.4894	1740.4204	53829.1	52932.65
909.6304	1742.1246	53869.25	52973.85
909.7714	1743.8279	53802.75	52909.3
909.9123	1745.5306	53814.1	52921.35
910.0532	1747.2325	53130.1	52236.2
910.1941	1748.9336	53061.95	52169.95
910.335	1750.634	52927.45	52031.15
910.4759	1752.3336	53092.55	52200
910.6168	1754.0325	52644.85	51751.4
910.7576	1755.7307	52850.05	51956.7
910.8984	1757.4281	52431.3	51535.9
911.0392	1759.1247	52607.4	51705.05
911.18	1760.8206	52118.95	51220.6
911.3208	1762.5158	52101.25	51202.4
911.4615	1764.2102	51997.35	51104.9
911.6022	1765.9039	51739.75	50844.25
911.7429	1767.5968	51635.3	50741.9
911.8836	1769.289	51442.4	50548.15
912.0243	1770.9804	51386.7	50492.55
912.1649	1772.6711	51310.65	50414.2
912.3056	1774.361	51081.05	50184.2
912.4462	1776.0502	51022.75	50127.65
912.5868	1777.7386	50677.05	49779.95
912.7274	1779.4263	50607.05	49714.35
912.8679	1781.1132	50580.8	49687.7
913.0084	1782.7994	50411.45	49515.7
913.149	1784.4849	50400.4	49505.25
913.2895	1786.1696	49986.3	49086.15
913.4299	1787.8535	49972.15	49081.2
913.5704	1789.5367	49899.3	49006.8
913.7108	1791.2192	49769.1	48876.95
913.8513	1792.9009	49481.6	48557.85
913.9917	1794.5818	49455.05	48561.2
914.132	1796.2621	49267.05	48375.25
914.2724	1797.9415	49196.35	48301.45
914.4128	1799.6202	49000.05	48107.5
914.5531	1801.2982	48921.05	48028.85
914.6934	1802.9755	48769.3	47874.4
914.8337	1804.6519	48613.4	47719.5
914.9739	1806.3277	48492.2	47599.05
915.1142	1808.0027	48130.8	47239.4
915.2544	1809.6769	48140.4	47248.2
915.3946	1811.3504	48048.6	47155
915.5348	1813.0231	47810.25	46916.95
915.675	1814.6951	47828.7	46935
915.8151	1816.3664	47763.45	46867.45
915.9553	1818.0369	47582.75	46688.2
916.0954	1819.7067	47410.3	46518.15
916.2355	1821.3757	47417.05	46521.55
916.3755	1823.044	47233.85	46341.35
916.5156	1824.7115	47099.85	46206.6
916.6556	1826.3783	46899.75	46007.8
916.7956	1828.0443	46738.55	45846.95
916.9356	1829.7096	46582.85	45690.35
917.0756	1831.3741	46542	45644.15
917.2155	1833.0379	46362.45	45468.8
917.3555	1834.701	46250.55	45356.1
917.4954	1836.3633	46103.95	45211.5
917.6353	1838.0248	45982.25	45087.4
917.7751	1839.6856	45878.1	44984.3
917.915	1841.3457	45869.3	44976.8
918.0548	1843.005	45753.65	44860.8
918.1946	1844.6636	45623.05	44732
918.3344	1846.3214	45447.55	44552.1
918.4742	1847.9785	45400.45	44507.7
918.6139	1849.6349	45264.55	44370.3
918.7537	1851.2904	45250.1	44347.45
918.8934	1852.9453	45007.55	44111.05
919.0331	1854.5994	44830.5	43935.45
919.1727	1856.2528	44931.6	44032.65
919.3124	1857.9054	44660.25	43765.15
919.452	1859.5572	44658.6	43767.2
919.5916	1861.2083	44528.25	43633.1
919.7312	1862.8587	44533.85	43640.95
919.8708	1864.5084	44328.65	43433.45
920.0103	1866.1572	44179.25	43286.65
920.1498	1867.8054	43917.4	43024.1
920.2893	1869.4528	43923.95	43028.6
920.4288	1871.0994	43710.15	42816.35
920.5683	1872.7453	43682.1	42787.95
920.7077	1874.3905	43547.05	42647.65
920.8471	1876.0349	43405.45	42510.05
920.9865	1877.6786	43376.85	42483.5
921.1259	1879.3215	43345.2	42451.6
921.2653	1880.9637	43141.65	42248.45
921.4046	1882.6051	43106.4	42212.65
921.5439	1884.2458	43000.45	42105.95
921.6832	1885.8858	42810.45	41916.85
921.8225	1887.525	42682	41787.35
921.9617	1889.1634	42486	41592.85
922.101	1890.8011	42347.8	41452.35
922.2402	1892.4381	42204.15	41312.1
922.3794	1894.0743	42178.8	41286.65
922.5185	1895.7098	42019.95	41126.7
922.6577	1897.3446	41868.85	40973.3
922.7968	1898.9786	41736.65	40839.1
922.9359	1900.6118	41693.45	40800.6
923.075	1902.2443	41469.85	40576.75
923.214	1903.8761	41361.5	40469.6
923.3531	1905.5071	41137.45	40243.65
923.4921	1907.1374	40968.05	40074.8
923.6311	1908.7669	40968.65	40076.05
923.77	1910.3957	40901.85	40010.2
923.909	1912.0237	40618.2	39725.25
924.0479	1913.651	40539.4	39644.95
924.1868	1915.2776	40414.05	39520.2
924.3257	1916.9034	40291.25	39399.55
924.4646	1918.5285	40070.4	39178.7
924.6034	1920.1528	39911.05	39018.1
924.7422	1921.7764	39893.3	39000.9
924.881	1923.3992	39665.55	38772.35
925.0198	1925.0213	39394.7	38502.45
925.1586	1926.6427	39228.85	38337.3
925.2973	1928.2633	39270.75	38260.2
925.436	1929.8832	39011.1	38116.2
925.5747	1931.5023	38801.65	37908.9
925.7134	1933.1207	38781.6	37891.55
925.852	1934.7383	38712.4	37819.5
925.9906	1936.3552	38506.05	37613
926.1292	1937.9714	38406.45	37513.35
926.2678	1939.5868	38218.95	37322.6
926.4064	1941.2015	38041.2	37149
926.5449	1942.8154	37861.15	36967.25
926.6834	1944.4286	37685.55	36792.05
926.8219	1946.041	37524.95	36612.9
926.9604	1947.6528	37356.8	36459.45
927.0988	1949.2637	37300.95	36410
927.2372	1950.8739	37134.55	36239.55
927.3756	1952.4834	37093.5	36199.25
927.514	1954.0921	36979.95	36087.6
927.6523	1955.7001	36844.05	35945.85
927.7907	1957.3074	36693.25	35804.3
927.929	1958.9139	36541	35651.2
928.0673	1960.5197	36493.95	35599.5
928.2055	1962.1247	36264.2	35372.35
928.3438	1963.729	36056.3	35164.85
928.482	1965.3325	35984	35069
928.6202	1966.9353	35874.3	34981.35
928.7584	1968.5374	35728.8	34836.35
928.8965	1970.1387	35587.1	34696.15
929.0346	1971.7393	35432.05	34540.1
929.1727	1973.3392	35335.25	34444.25
929.3108	1974.9383	35154.6	34262.15
929.4489	1976.5366	34981.95	34089.05
929.5869	1978.1342	35000.4	34109.7
929.7249	1979.7311	34937.35	34044.55
929.8629	1981.3273	34779.5	33886.95
930.0009	1982.9227	34674.5	33781.55
930.1388	1984.5173	34500.05	33606
930.2767	1986.1112	34302.85	33412
930.4146	1987.7044	34322.25	33432.3
930.5525	1989.2968	34165.7	33272.65
930.6904	1990.8885	34147.8	33253.3
930.8282	1992.4795	34035	33142.55
930.966	1994.0697	33864.45	32971.55
931.1038	1995.6592	33743.8	32852.05
931.2415	1997.2479	33639.25	32748.5
931.3793	1998.8359	33449.7	32557.6
931.517	2000.4232	33320.1	32428.9
931.6547	2002.0097	33203.3	32313.6
931.7923	2003.5955	33042.45	32151.4
931.93	2005.1805	33016.1	32122.5
932.0676	2006.7648	32876.25	31985.15
932.2052	2008.3484	32778.05	31887.2
932.3427	2009.9312	32778.4	31885.15
932.4803	2011.5133	32594.75	31704
932.6178	2013.0946	32529.3	31637.35
932.7553	2014.6752	32423.65	31533
932.8928	2016.2551	32347.4	31456.9
933.0302	2017.8342	32184.1	31293.55
933.1676	2019.4126	32081.6	31193.25
933.305	2020.9902	31909.85	31018.7
933.4424	2022.5672	31886.35	30994.6
933.5798	2024.1433	31786.15	30887.7
933.7171	2025.7188	31625.2	30737.05
933.8544	2027.2935	31536.95	30645.9
933.9917	2028.8674	31423.4	30534.65
934.129	2030.4406	31360.4	30471.75
934.2662	2032.0131	31179.2	30290.7
934.4034	2033.5849	31112.3	30214.65
934.5406	2035.1559	31044.6	30154.2
934.6778	2036.7261	30962.7	30070.9
934.8149	2038.2957	30829.9	29938.9
934.952	2039.8645	30771.75	29881.1
935.0891	2041.4325	30771.9	29878.4
935.2262	2042.9998	30634.85	29745.25
935.3632	2044.5664	30549.8	29656.15
935.5002	2046.1323	30444	29553.35
935.6372	2047.6974	30346.4	29456.35
935.7742	2049.2617	30265.45	29375.45
935.9111	2050.8254	30207.5	29295.85
936.048	2052.3883	30161.3	29267.1
936.1849	2053.9504	30065.55	29174.1
936.3218	2055.5118	29950.45	29058.25
936.4586	2057.0725	29767	28873.8
936.5955	2058.6325	29692.4	28802.25
936.7323	2060.1917	29617.3	28726.65
936.869	2061.7502	29531	28637.55
937.0058	2063.3079	29374.05	28482.7
937.1425	2064.8649	29297.85	28402.8
937.2792	2066.4212	29210.5	28319.25
937.4159	2067.9767	29124.7	28234.4
937.5525	2069.5315	29018.65	28127.45
937.6891	2071.0856	28864.7	27974.2
937.8257	2072.6389	28793.05	27902.2
937.9623	2074.1915	28640.35	27752.8
938.0989	2075.7433	28433.15	27540.4
938.2354	2077.2945	28379	27489.6
938.3719	2078.8448	28320.3	27431.4
938.5084	2080.3945	28208.85	27318.7
938.6448	2081.9434	28205.2	27314.2
938.7812	2083.4916	28094.5	27202.35
938.9176	2085.039	28018.9	27126.55
939.054	2086.5857	27898.85	27006.85
939.1903	2088.1317	27798.45	26905.3
939.3267	2089.677	27772.05	26881.55
939.463	2091.2215	27683.5	26791.55
939.5992	2092.7652	27579.7	26685.05
939.7355	2094.3083	27496.7	26604.2
939.8717	2095.8506	27427	26535.25
940.0079	2097.3921	27404.8	26512.4
940.1441	2098.933	27307.95	26417.5
940.2802	2100.4731	27236.15	26346.2
940.4163	2102.0124	27173	26274.65
940.5524	2103.5511	27114.7	26222.95
940.6885	2105.089	27009.6	26119.9
940.8245	2106.6261	26977.65	26085.55
940.9606	2108.1626	26855.65	25962.15
941.0965	2109.6983	26822.35	25903.05
941.2325	2111.2332	26722.85	25830.95
941.3684	2112.7675	26595.2	25703.2
941.5044	2114.301	26510.75	25616.5
941.6403	2115.8337	26492.8	25601.3
941.7761	2117.3657	26427.95	25536.8
941.912	2118.897	26349.65	25457.1
942.0478	2120.4276	26226.85	25329.65
942.1835	2121.9575	26116.4	25223.25
942.3193	2123.4866	26149.4	25243.2
942.455	2125.0149	26014.15	25118.2
942.5907	2126.5426	25837.6	24945.45
942.7264	2128.0695	25808.75	24913.25
942.8621	2129.5956	25764.75	24876.7
942.9977	2131.1211	25681.25	24785.9
943.1333	2132.6458	25578.8	24689
943.2689	2134.1698	25566.05	24674.05
943.4044	2135.693	25492.75	24597.55
943.54	2137.2155	25402.4	24506.25
943.6755	2138.7373	25333.35	24440.2
943.8109	2140.2584	25214.3	24323.35
943.9464	2141.7787	25160.25	24263
944.0818	2143.2983	24999	24109.45
944.2172	2144.8171	24904.2	24015.75
944.3526	2146.3353	24819	23927.3
944.4879	2147.8527	24715	23824.85
944.6232	2149.3693	24701	23809.65
944.7585	2150.8853	24600.6	23706.75
944.8938	2152.4005	24472.25	23580.65
945.029	2153.9149	24449.05	23556.6
945.1642	2155.4287	24357.5	23467.4
945.2994	2156.9417	24301.1	23407.75
945.4346	2158.454	24227.5	23331.15
945.5697	2159.9655	24159.3	23268.35
945.7048	2161.4764	24128.2	23235.4
945.8399	2162.9865	24041.25	23151.85
945.9749	2164.4958	23960.15	23066.95
946.1099	2166.0045	23828	22933.65
946.2449	2167.5124	23871	22981.5
946.3799	2169.0195	23774.7	22883.85
946.5148	2170.526	23730.2	22838.2
946.6498	2172.0317	23628.3	22737.3
946.7846	2173.5367	23560.15	22667
946.9195	2175.0409	23535.1	22645.5
947.0543	2176.5445	23496.2	22605.7
947.1891	2178.0473	23381.45	22490.65
947.3239	2179.5494	23252.55	22357
947.4587	2181.0507	23134.25	22242.2
947.5934	2182.5513	23097.85	22208
947.7281	2184.0512	23055.65	22164.1
947.8628	2185.5504	22978.4	22088.4
947.9974	2187.0488	22811.95	21920.45
948.132	2188.5465	22761.9	21871.15
948.2666	2190.0435	22650.2	21758.4
948.4012	2191.5397	22631.35	21738.35
948.5357	2193.0353	22512.6	21620.95
948.6702	2194.5301	22379.1	21486.75
948.8047	2196.0241	22323.8	21432.55
948.9392	2197.5175	22248.6	21356.35
949.0736	2199.0101	22205.75	21310.6
949.208	2200.502	22049.65	21159.5
949.3424	2201.9931	21992.55	21101.1
949.4767	2203.4835	21930.3	21036.95
949.611	2204.9733	21867.55	20970.25
949.7453	2206.4622	21822.9	20933
949.8796	2207.9505	21694	20799.35
950.0138	2209.438	21571.7	20682.5
950.148	2210.9248	21536.95	20644.1
950.2822	2212.4109	21426.8	20536.4
950.4164	2213.8962	21371.5	20477.5
950.5505	2215.3809	21353.5	20459
950.6846	2216.8648	21269.35	20377.5
950.8186	2218.3479	21165.25	20269.25
950.9527	2219.8304	21086.8	20193.25
951.0867	2221.3121	21016.8	20123.3
951.2207	2222.7931	20930.2	20038.8
951.3546	2224.2733	20870.85	19978.95
951.4886	2225.7529	20791.25	19899.4
951.6225	2227.2317	20712.5	19818.2
951.7563	2228.7098	20676.25	19785
951.8902	2230.1872	20605.65	19714.95
952.024	2231.6638	20547.65	19658.45
952.1578	2233.1397	20450.6	19553.6
952.2916	2234.6149	20379.9	19488.85
952.4253	2236.0894	20296.45	19403.95
952.559	2237.5632	20264.6	19364.3
952.6927	2239.0362	20167	19277.95
952.8263	2240.5085	20111	19219.5
952.9599	2241.9801	20066.95	19174.8
953.0935	2243.4509	19984.3	19093.65
953.2271	2244.921	19920.65	19027.95
953.3606	2246.3904	19823.05	18928.9
953.4941	2247.8591	19778.4	18886.6
953.6276	2249.3271	19727.85	18835.3
953.7611	2250.7943	19618.7	18728.15
953.8945	2252.2608	19532.15	18639.75
954.0279	2253.7266	19479.9	18590
954.1612	2255.1917	19421.4	18531.05
954.2946	2256.656	19375.6	18484.45
954.4279	2258.1197	19337.3	18444.35
954.5612	2259.5826	19241.9	18348.25
954.6944	2261.0447	19225.6	18331.25
954.8276	2262.5062	19075.05	18180.65
954.9608	2263.9669	19039.3	18144.4
955.094	2265.4269	19010.05	18118.3
955.2271	2266.8862	18939.25	18046.25
955.3602	2268.3448	18901.3	18010.8
955.4933	2269.8026	18857.15	17963.85
955.6264	2271.2598	18804.65	17912.1
955.7594	2272.7162	18721.25	17828.05
955.8924	2274.1719	18681.25	17789.25
956.0253	2275.6268	18613.55	17720.5
956.1583	2277.0811	18560.85	17669.45
956.2912	2278.5346	18507	17614
956.4241	2279.9874	18435	17543.65
956.5569	2281.4395	18405.55	17515.15
956.6897	2282.8908	18343.65	17448.1
956.8225	2284.3414	18308.7	17416
956.9553	2285.7914	18206.8	17315.25
957.088	2287.2406	18139.5	17245.6
957.2207	2288.689	18099.05	17205.6
957.3534	2290.1368	18053.35	17161.05
957.486	2291.5838	17972.5	17079.2
957.6186	2293.0302	17916.2	17022.75
957.7512	2294.4758	17817.65	16926.9
957.8838	2295.9206	17777.15	16882.75
958.0163	2297.3648	17711.85	16821.2
958.1488	2298.8082	17690.75	16797.8
958.2813	2300.251	17661.5	16770
958.4137	2301.693	17575.15	16679.3
958.5461	2303.1343	17571.2	16676.7
958.6785	2304.5748	17486.1	16594.7
958.8108	2306.0147	17377.95	16486.3
958.9432	2307.4538	17323.2	16428.5
959.0754	2308.8922	17279.4	16390.25
959.2077	2310.3299	17262.4	16370.75
959.3399	2311.7669	17199.05	16307.4
959.4721	2313.2031	17125.7	16234.45
959.6043	2314.6387	17046.45	16156.1
959.7365	2316.0735	17011.8	16122.15
959.8686	2317.5076	16972.05	16078.9
960.0006	2318.941	16928.9	16036.15
960.1327	2320.3737	16861.6	15970.25
960.2647	2321.8056	16828.6	15935.15
960.3967	2323.2369	16745.05	15852.55
960.5287	2324.6674	16675.55	15780.65
960.6606	2326.0972	16618.3	15723.6
960.7925	2327.5263	16547.8	15657.3
960.9244	2328.9547	16512	15618.45
961.0562	2330.3823	16427.2	15534.75
961.1881	2331.8092	16449.15	15555.6
961.3198	2333.2355	16325.1	15432.95
961.4516	2334.661	16325	15432.1
961.5833	2336.0858	16308.8	15412.1
961.715	2337.5098	16264.35	15372.8
961.8467	2338.9332	16211.25	15319.9
961.9783	2340.3558	16122.25	15228.75
962.1099	2341.7778	16095.65	15204.45
962.2415	2343.199	15995.85	15103.15
962.373	2344.6195	15966.8	15074.8
962.5045	2346.0393	15929.5	15037.7
962.636	2347.4583	15884.05	14991.6
962.7675	2348.8767	15814.25	14923.05
962.8989	2350.2943	15776.65	14884.1
963.0303	2351.7113	15718.75	14825.85
963.1617	2353.1275	15671.55	14778.6
963.293	2354.543	15637.8	14735.5
963.4243	2355.9578	15586.95	14696.65
963.5556	2357.3718	15516.95	14625.9
963.6868	2358.7852	15422.3	14529.55
963.818	2360.1978	15352.4	14460.25
963.9492	2361.6098	15330	14438.3
964.0803	2363.021	15286.9	14392.6
964.2114	2364.4315	15239	14348
964.3425	2365.8413	15199.25	14305.65
964.4736	2367.2504	15119	14228.2
964.6046	2368.6587	15032.6	14141.55
964.7356	2370.0664	14942.8	14052.55
964.8666	2371.4733	14948.35	14058.1
964.9975	2372.8795	14912.8	14022.95
965.1284	2374.285	14827.95	13936.65
965.2593	2375.6899	14755.2	13864.9
965.3901	2377.0939	14653.4	13762.85
965.5209	2378.4973	14624.2	13733.4
965.6517	2379.9	14622.7	13730.35
965.7825	2381.3019	14519.15	13629.8
965.9132	2382.7032	14448.4	13556.8
966.0439	2384.1037	14442.3	13551.25
966.1745	2385.5035	14375.15	13484.65
966.3051	2386.9027	14338.2	13447.8
966.4357	2388.3011	14287.1	13394.2
966.5663	2389.6987	14248.8	13357.75
966.6968	2391.0957	14201.8	13310
966.8273	2392.492	14100.9	13211.8
966.9578	2393.8876	14027	13136.45
967.0882	2395.2824	13979.7	13089.65
967.2186	2396.6765	13886.15	12994.3
967.349	2398.07	13830.8	12941.2
967.4793	2399.4627	13835.15	12942.15
967.6097	2400.8547	13757.15	12866.2
967.7399	2402.246	13696.7	12801.1
967.8702	2403.6366	13682.65	12790.7
968.0004	2405.0265	13598	12708.9
968.1306	2406.4156	13549.4	12656.05
968.2607	2407.8041	13474.5	12581.05
968.3909	2409.1918	13430.35	12538.15
968.521	2410.5789	13376.45	12485.6
968.651	2411.9652	13347.05	12454.1
968.781	2413.3508	13309.6	12417.9
968.911	2414.7358	13251.4	12362.3
969.041	2416.12	13187.55	12298.85
969.1709	2417.5035	13156.35	12264.85
969.3008	2418.8863	13104.8	12212.95
969.4307	2420.2684	13058.7	12168.65
969.5606	2421.6497	13001.15	12111.3
969.6904	2423.0304	12909	12018.7
969.8201	2424.4104	12890.25	11999.2
969.9499	2425.7896	12842.1	11949.2
970.0796	2427.1682	12831.25	11939.6
970.2093	2428.546	12779.3	11886.95
970.3389	2429.9232	12746.85	11856
970.4685	2431.2996	12726.9	11836.6
970.5981	2432.6753	12679.9	11789.75
970.7277	2434.0503	12632.15	11740.1
970.8572	2435.4246	12590.8	11700.6
970.9867	2436.7982	12544.4	11649.9
971.1161	2438.1711	12509.6	11617.95
971.2456	2439.5433	12465.05	11572.95
971.375	2440.9148	12394.45	11502
971.5043	2442.2856	12325.25	11432.25
971.6336	2443.6557	12311.65	11419.3
971.7629	2445.025	12268.2	11376.9
971.8922	2446.3937	12225.6	11334.4
972.0214	2447.7617	12185.85	11294.15
972.1506	2449.1289	12188.55	11298.4
972.2798	2450.4955	12121.5	11225.45
972.4089	2451.8613	12061.85	11171.85
972.538	2453.2265	12025.55	11134.2
972.6671	2454.5909	12015.7	11123.35
972.7961	2455.9546	11980.1	11089.45
972.9251	2457.3177	11962.4	11073.25
973.0541	2458.68	11900.05	11007.8
973.1831	2460.0416	11893.65	11003.95
973.312	2461.4025	11869.3	10976.8
973.4408	2462.7627	11824.1	10920.3
973.5697	2464.1222	11752.95	10861.75
973.6985	2465.4811	11731.7	10840.2
973.8273	2466.8392	11684.6	10795.05
973.956	2468.1966	11656.7	10764.05
974.0847	2469.5533	11655.35	10762.3
974.2134	2470.9093	11622.5	10732.1
974.3421	2472.2645	11557.55	10663.95
974.4707	2473.6191	11544.95	10656.7
974.5993	2474.973	11462.05	10571.45
974.7278	2476.3262	11431.3	10537.6
974.8563	2477.6787	11383.6	10493.75
974.9848	2479.0305	11354.9	10463.95
975.1132	2480.3816	11293.95	10402.35
975.2417	2481.7319	11238.95	10349.75
975.37	2483.0816	11228.95	10338.1
975.4984	2484.4306	11196.6	10305.7
975.6267	2485.7789	11149.25	10258.05
975.755	2487.1264	11080.9	10188.3
975.8833	2488.4733	11047.05	10156.8
976.0115	2489.8195	11014.3	10104.6
976.1397	2491.165	10962.2	10068.05
976.2678	2492.5097	10919.95	10026.95
976.3959	2493.8538	10834.1	9943.8
976.524	2495.1972	10807.55	9916.35
976.6521	2496.5398	10752.15	9859.25
976.7801	2497.8818	10755.2	9862.5
976.9081	2499.2231	10712	9820.2
977.036	2500.5637	10673.35	9779.75
977.164	2501.9035	10613.25	9720.4
977.2918	2503.2427	10579.05	9685.75
977.4197	2504.5812	10546.55	9655.1
977.5475	2505.919	10546.4	9655.3
977.6753	2507.256	10508.6	9618.5
977.8031	2508.5924	10458.75	9568.5
977.9308	2509.9281	10420.45	9522.45
978.0585	2511.2631	10398.25	9507.7
978.1861	2512.5974	10369.6	9479.3
978.3137	2513.9309	10319.3	9428.35
978.4413	2515.2638	10289.5	9372.4
978.5689	2516.596	10257.5	9367.55
978.6964	2517.9275	10203.6	9311.05
978.8239	2519.2583	10178.9	9288.75
978.9513	2520.5884	10121.45	9228.4
979.0788	2521.9178	10085.8	9194.1
979.2062	2523.2465	10050.75	9161.6
979.3335	2524.5745	10002.4	9112.1
979.4608	2525.9018	9965.2	9074.3
979.5881	2527.2284	9957.45	9067.35
979.7154	2528.5543	9930.7	9041.6
979.8426	2529.8796	9906.95	9014.8
979.9698	2531.2041	9885.15	8994.6
980.0969	2532.5279	9838.65	8948.85
980.224	2533.851	9833.85	8940.75
980.3511	2535.1735	9807.5	8916.5
980.4781	2536.4952	9753.35	8862.15
980.6052	2537.8163	9748.15	8857
980.7321	2539.1366	9698.8	8809.85
980.8591	2540.4562	9673.35	8778.75
980.986	2541.7752	9671.05	8779.85
981.1129	2543.0935	9642.8	8753.55
981.2397	2544.411	9621.35	8727.9
981.3665	2545.7279	9593.7	8702.95
981.4933	2547.0441	9575.3	8683.3
981.62	2548.3596	9562.5	8669.3
981.7467	2549.6744	9537.55	8646.4
981.8734	2550.9885	9506.85	8613.25
982.0001	2552.3019	9454.6	8564.45
982.1267	2553.6146	9457.85	8566.5
982.2532	2554.9266	9392.7	8500.8
982.3798	2556.2379	9379.2	8485.85
982.5063	2557.5485	9374.5	8483.8
982.6327	2558.8585	9320.2	8421.35
982.7592	2560.1677	9302.65	8408.5
982.8856	2561.4762	9280.5	8389.4
983.0119	2562.7841	9261.6	8369.85
983.1383	2564.0913	9249.9	8360.6
983.2646	2565.3977	9234.1	8342.75
983.3908	2566.7035	9194.45	8302.45
983.517	2568.0086	9182.35	8289.75
983.6432	2569.313	9172	8278.75
983.7694	2570.6167	9149.4	8254.8
983.8955	2571.9197	9109.55	8218.9
984.0216	2573.222	9094.35	8200.05
984.1476	2574.5236	9036.85	8145.75
984.2737	2575.8246	9056.8	8162.05
984.3996	2577.1248	9034.5	8140.5
984.5256	2578.4244	9014.85	8123.95
984.6515	2579.7232	8995.3	8105.25
984.7774	2581.0214	8998.35	8079.8
984.9032	2582.3189	8944	8052.75
985.029	2583.6157	8921.1	8024.95
985.1548	2584.9118	8902.5	8011.4
985.2806	2586.2072	8864.65	7973.55
985.4063	2587.5019	8848.4	7957.5
985.5319	2588.7959	8818.75	7927.75
985.6576	2590.0893	8817.15	7923.2
985.7832	2591.3819	8781.6	7890.9
985.9087	2592.6739	8762.9	7870.7
986.0343	2593.9652	8766.35	7874.9
986.1597	2595.2557	8699.7	7809.05
986.2852	2596.5456	8671.15	7777.15
986.4106	2597.8348	8640.3	7748.7
986.536	2599.1234	8581.9	7692.1
986.6614	2600.4112	8589.35	7697.5
986.7867	2601.6983	8535.1	7641.6
986.912	2602.9848	8502.8	7609.8
987.0372	2604.2705	8493.4	7596.85
987.1624	2605.5556	8466.5	7574
987.2876	2606.84	8429.95	7538.05
987.4128	2608.1237	8398.9	7506.45
987.5379	2609.4067	8345.55	7455
987.6629	2610.689	8329.65	7430.35
987.788	2611.9707	8299.75	7404.7
987.913	2613.2516	8280.5	7382.95
988.0379	2614.5319	8223.35	7332.55
988.1629	2615.8115	8211.2	7319.2
988.2878	2617.0903	8180.45	7288.95
988.4126	2618.3685	8134.25	7244.7
988.5375	2619.6461	8099.65	7208.7
988.6622	2620.9229	8054.75	7164.75
988.787	2622.199	8063.8	7171.05
988.9117	2623.4745	8056.85	7163.55
989.0364	2624.7493	7975.8	7083.8
989.161	2626.0234	7970.7	7080.55
989.2857	2627.2968	7939.45	7047.65
989.4102	2628.5695	7912.5	7019.65
989.5348	2629.8415	7892.75	7000.6
989.6593	2631.1128	7864.75	6972.15
989.7837	2632.3835	7816.35	6925.6
989.9082	2633.6535	7785	6895.2
990.0326	2634.9228	7751.8	6861.25
990.1569	2636.1914	7744.2	6852.25
990.2812	2637.4593	7725.1	6832.15
990.4055	2638.7265	7692.1	6798.5
990.5298	2639.9931	7676.7	6785.1
990.654	2641.259	7654.55	6762.8
990.7782	2642.5242	7630.15	6739.1
990.9023	2643.7887	7588.55	6697.1
991.0264	2645.0525	7575.6	6682.1
991.1505	2646.3156	7561.2	6667.75
991.2745	2647.5781	7537.1	6646.55
991.3985	2648.8398	7503.95	6614.3
991.5225	2650.1009	7491.8	6590.4
991.6464	2651.3613	7475.9	6583.6
991.7703	2652.6211	7443.3	6551.2
991.8942	2653.8801	7411.3	6520.2
992.018	2655.1385	7385.45	6490.75
992.1418	2656.3961	7356.4	6465.2
992.2655	2657.6531	7333.3	6443.9
992.3892	2658.9094	7328.25	6436.7
992.5129	2660.1651	7307.95	6417.4
992.6366	2661.42	7300.65	6407.95
992.7602	2662.6743	7288.65	6396.6
992.8837	2663.9279	7255.3	6363.9
993.0073	2665.1808	7250.05	6359.85
993.1307	2666.433	7209.45	6317.3
993.2542	2667.6846	7186.9	6295
993.3776	2668.9354	7177.1	6281.8
993.501	2670.1856	7135.8	6243.4
993.6244	2671.4351	7136.5	6246.15
993.7477	2672.6839	7113	6221
993.8709	2673.9321	7090.35	6198.1
993.9942	2675.1795	7076.1	6186.8
994.1174	2676.4263	7048.75	6158.5
994.2405	2677.6724	7033.95	6143.25
994.3637	2678.9179	7003.6	6113.4
994.4868	2680.1626	6988.15	6097.55
994.6098	2681.4067	6984.45	6093.15
994.7328	2682.6501	6970.6	6080.4
994.8558	2683.8928	6917.4	6026
994.9788	2685.1348	6906.35	6014.85
995.1017	2686.3761	6876.85	5986.8
995.2245	2687.6168	6872.85	5981.65
995.3474	2688.8568	6826.95	5935.2
995.4702	2690.0961	6800.75	5910.25
995.5929	2691.3348	6788.85	5897.95
995.7156	2692.5727	6750.9	5858.75
995.8383	2693.81	6751.25	5858.85
995.961	2695.0466	6744.3	5855.15
996.0836	2696.2826	6719.6	5825.55
996.2062	2697.5178	6692.75	5799.35
996.3287	2698.7524	6659.2	5767.6
996.4512	2699.9863	6655.6	5761.6
996.5737	2701.2195	6613.1	5722.55
996.6961	2702.452	6620.9	5730.5
996.8185	2703.6839	6592.6	5700.45
996.9408	2704.9151	6566.15	5675.75
997.0631	2706.1456	6529.55	5637.65
997.1854	2707.3755	6537.4	5645.6
997.3077	2708.6046	6525.9	5630.4
997.4299	2709.8331	6519.5	5627
997.552	2711.0609	6500.45	5609.55
997.6742	2712.2881	6475.45	5584.95
997.7963	2713.5145	6475.35	5582.55
997.9183	2714.7403	6427.5	5535.95
998.0403	2715.9654	6415.5	5524.5
998.1623	2717.1899	6431.65	5526.65
998.2842	2718.4136	6408.85	5515.55
998.4062	2719.6367	6387.5	5496.85
998.528	2720.8591	6396.8	5496.85
998.6498	2722.0809	6364.35	5474.75
998.7716	2723.3019	6341.8	5449.3
998.8934	2724.5223	6360.3	5465.85
999.0151	2725.7421	6307.3	5413.65
999.1368	2726.9611	6308.05	5413.65
999.2584	2728.1795	6264.4	5369
999.38	2729.3972	6258.8	5368.4
999.5016	2730.6142	6220.35	5315.95
999.6231	2731.8306	6200.45	5307.25
999.7446	2733.0462	6155.05	5261.25
999.8661	2734.2612	6120.55	5222.8
999.9875	2735.4756	6085.35	5191.15
1000.1089	2736.6892	6048.5	5157.4
1000.2302	2737.9022	6007.5	5116.05
1000.3515	2739.1145	5986.2	5097.4
1000.4728	2740.3262	5950.65	5051.15
1000.594	2741.5372	5908.3	5017.4
1000.7152	2742.7475	5890.45	4998.1
1000.8363	2743.9571	5853.75	4960.4
1000.9575	2745.1661	5846.8	4950.3
1001.0785	2746.3744	5831.45	4940.1
1001.1996	2747.582	5789.9	4898.45
1001.3206	2748.7889	5764.3	4870.35
1001.4415	2749.9952	5752.1	4861.25
1001.5625	2751.2008	5719.1	4827.85
1001.6833	2752.4057	5702.65	4809.25
1001.8042	2753.61	5681.35	4789
1001.925	2754.8136	5675.4	4783.2
1002.0458	2756.0165	5647.15	4756.95
1002.1665	2757.2188	5626.4	4736.1
1002.2872	2758.4204	5591.35	4701.7
1002.4078	2759.6213	5596.4	4703.8
1002.5285	2760.8215	5595.65	4699.7
1002.649	2762.0211	5562.8	4669.6
1002.7696	2763.22	5538.8	4643.45
1002.8901	2764.4182	5541.2	4646.7
1003.0106	2765.6158	5503.1	4611.4
1003.131	2766.8127	5480.55	4588.85
1003.2514	2768.009	5459.85	4569.6
1003.3717	2769.2045	5454.2	4561.95
1003.492	2770.3994	5441.5	4548.75
1003.6123	2771.5936	5407.2	4516.35
1003.7325	2772.7872	5375.1	4483.6
1003.8527	2773.9801	5352.3	4458.6
1003.9729	2775.1723	5358.45	4451.1
1004.093	2776.3639	5307.7	4417.45
1004.2131	2777.5548	5308.75	4415.8
1004.3331	2778.745	5292.75	4401.15
1004.4531	2779.9346	5301.05	4410.7
1004.5731	2781.1235	5263.5	4373.7
1004.693	2782.3117	5257.55	4365.8
1004.8129	2783.4992	5232.85	4340.7
1004.9328	2784.6861	5211.6	4321.95
1005.0526	2785.8723	5201.25	4307.05
1005.1723	2787.0579	5210.25	4317.15
1005.2921	2788.2428	5196.7	4306.6
1005.4118	2789.427	5201.1	4312
1005.5314	2790.6106	5185.45	4296.05
1005.651	2791.7935	5162.7	4271.85
1005.7706	2792.9757	5159.2	4269.25
1005.8902	2794.1573	5160.5	4268.8
1006.0097	2795.3382	5163.55	4272.55
1006.1291	2796.5184	5139.5	4250.9
1006.2485	2797.698	5138.95	4246.95
1006.3679	2798.8769	5138.1	4247.35
1006.4873	2800.0551	5144.45	4253.25
1006.6066	2801.2327	5152.9	4258.5
1006.7258	2802.4096	5141.85	4250.9
1006.8451	2803.5859	5145.25	4254.85
1006.9642	2804.7615	5157.7	4267.35
1007.0834	2805.9364	5150.55	4259.95
1007.2025	2807.1106	5148.9	4258.05
1007.3216	2808.2842	5191.2	4297.9
1007.4406	2809.4572	5199.6	4309.1
1007.5596	2810.6294	5229.9	4339.15
1007.6785	2811.801	5265.35	4376.85
1007.7975	2812.972	5276.15	4385.25
1007.9163	2814.1423	5314.25	4423.95
1008.0352	2815.3119	5350.3	4460.9
1008.154	2816.4808	5391.4	4500.85
1008.2727	2817.6491	5401.95	4510.45
1008.3914	2818.8167	5436.45	4546
1008.5101	2819.9837	5485.95	4591.2
1008.6288	2821.15	5501.15	4609.75
1008.7474	2822.3157	5532.1	4642.15
1008.8659	2823.4807	5564.65	4672.35
1008.9844	2824.645	5595.9	4703.3
1009.1029	2825.8086	5642.1	4752.45
1009.2214	2826.9716	5666.65	4776.15
1009.3398	2828.134	5689.4	4799.6
1009.4581	2829.2957	5718.6	4828.2
1009.5764	2830.4567	5728.05	4839
1009.6947	2831.617	5738.15	4847.15
1009.813	2832.7767	5749.25	4859.25
1009.9312	2833.9358	5745.55	4857.85
1010.0493	2835.0941	5743.05	4851
1010.1675	2836.2519	5700.8	4811.85
1010.2855	2837.4089	5702.5	4811.95
1010.4036	2838.5653	5653.9	4762.5
1010.5216	2839.7211	5641.9	4752.7
1010.6396	2840.8761	5650.95	4759.35
1010.7575	2842.0306	5664.55	4773.55
1010.8754	2843.1843	5698.3	4806.15
1010.9932	2844.3374	5736.2	4845.05
1011.111	2845.4899	5763.95	4871.6
1011.2288	2846.6417	5820.35	4930
1011.3465	2847.7928	5904.75	5014.95
1011.4642	2848.9433	5959.15	5069.35
1011.5818	2850.0931	6038	5147.4
1011.6995	2851.2422	6099.35	5206.85
1011.817	2852.3907	6155.8	5265.2
1011.9345	2853.5385	6219.35	5326.7
1012.052	2854.6857	6264.75	5348.2
1012.1695	2855.8323	6286	5394.9
1012.2869	2856.9781	6317.85	5428.3
1012.4042	2858.1233	6361.3	5471.55
1012.5216	2859.2679	6389.2	5501.3
1012.6389	2860.4118	6433.35	5542.35
1012.7561	2861.555	6469.25	5575
1012.8733	2862.6976	6474.6	5582.5
1012.9905	2863.8395	6477.75	5588.15
1013.1076	2864.9808	6496.7	5607.25
1013.2247	2866.1214	6490.35	5600.25
1013.3417	2867.2614	6498.95	5608.7
1013.4587	2868.4007	6486.8	5595
1013.5757	2869.5393	6502.6	5610.45
1013.6926	2870.6773	6510.1	5616.15
1013.8095	2871.8146	6508.6	5617.3
1013.9263	2872.9513	6507.15	5614.35
1014.0431	2874.0874	6463.35	5573.85
1014.1599	2875.2227	6440.4	5549.2
1014.2766	2876.3574	6404.5	5515.05
1014.3933	2877.4915	6371.35	5480.9
1014.51	2878.6249	6337.25	5448
1014.6266	2879.7577	6288.7	5396.8
1014.7431	2880.8898	6280.25	5379.75
1014.8596	2882.0212	6235.45	5345.45
1014.9761	2883.152	6212.8	5321.45
1015.0925	2884.2821	6192.65	5303.05
1015.2089	2885.4116	6172.1	5281.6
1015.3253	2886.5405	6147.35	5257.3
1015.4416	2887.6686	6156.25	5264.15
1015.5579	2888.7962	6147.4	5258
1015.6741	2889.923	6132.8	5245.45
1015.7903	2891.0493	6139	5249.7
1015.9065	2892.1748	6143.85	5251.6
1016.0226	2893.2997	6141.55	5249.45
1016.1387	2894.424	6139.2	5250.55
1016.2547	2895.5476	6140.45	5249.75
1016.3707	2896.6706	6149	5259.4
1016.4866	2897.7929	6165.35	5273.7
1016.6025	2898.9145	6190.45	5300.35
1016.7184	2900.0355	6206.4	5315.75
1016.8342	2901.1559	6213.95	5323.55
1016.95	2902.2756	6239.3	5349.85
1017.0658	2903.3946	6264	5374.1
1017.1815	2904.513	6288.65	5395.75
1017.2971	2905.6308	6296.5	5406.95
1017.4127	2906.7479	6300.25	5409.1
1017.5283	2907.8643	6310.85	5418.1
1017.6439	2908.9801	6304.4	5415.05
1017.7594	2910.0953	6309.8	5419.75
1017.8748	2911.2098	6313.85	5419.95
1017.9902	2912.3236	6279.3	5379.8
1018.1056	2913.4368	6252.5	5359.85
1018.2209	2914.5494	6230.45	5340.45
1018.3362	2915.6613	6180.6	5286.7
1018.4515	2916.7725	6154.4	5262.55
1018.5667	2917.8831	6119.55	5230.4
1018.6819	2918.9931	6085	5192.65
1018.797	2920.1024	6028.5	5137.35
1018.9121	2921.211	6019.4	5128.95
1019.0271	2922.319	5991.1	5099.9
1019.1421	2923.4264	5956.85	5066.6
1019.2571	2924.5331	5932.6	5043.5
1019.372	2925.6391	5929.7	5038.7
1019.4869	2926.7445	5890.3	5001.6
1019.6017	2927.8493	5882.55	4992
1019.7165	2928.9534	5868.15	4975.8
1019.8313	2930.0569	5837	4943
1019.946	2931.1597	5844.1	4952.5
1020.0606	2932.2619	5815.5	4924.7
1020.1753	2933.3634	5802.5	4914.1
1020.2899	2934.4643	5781	4883.35
1020.4044	2935.5645	5735.35	4837.95
1020.5189	2936.6641	5710	4814.75
1020.6334	2937.763	5647.35	4758.45
1020.7478	2938.8613	5602.05	4711.7
1020.8622	2939.959	5541.25	4646.05
1020.9765	2941.056	5436.2	4547.3
1021.0908	2942.1523	5347.95	4459.05
1021.2051	2943.248	5275.45	4384.25
1021.3193	2944.3431	5156	4267.3
1021.4334	2945.4375	5044.05	4153.85
1021.5476	2946.5313	4942.1	4052.2
1021.6617	2947.6244	4814.8	3924.45
1021.7757	2948.7169	4720.45	3830.45
1021.8897	2949.8087	4620.45	3731.45
1022.0037	2950.8999	4506.4	3616.55
1022.1176	2951.9904	4421.95	3532.4
1022.2315	2953.0803	4343.4	3452.6
1022.3453	2954.1696	4268.3	3376.15
1022.4591	2955.2582	4214.5	3326.4
1022.5728	2956.3462	4162.15	3273.1
1022.6865	2957.4335	4116.4	3226.1
1022.8002	2958.5202	4056.35	3163.8
1022.9138	2959.6062	4034.75	3142.65
1023.0274	2960.6916	3993.5	3104.8
1023.141	2961.7764	3969.1	3079.45
1023.2545	2962.8605	3940.95	3049.65
1023.3679	2963.9439	3930.95	3041.95
1023.4813	2965.0267	3901.85	3009.95
1023.5947	2966.1089	3917.45	3005.75
1023.708	2967.1905	3868.5	2977.8
1023.8213	2968.2714	3863.85	2974.35
1023.9346	2969.3516	3848.6	2958.95
1024.0478	2970.4312	3848.25	2950.85
1024.1609	2971.5102	3830	2939.35
1024.274	2972.5885	3832.7	2944.05
1024.3871	2973.6662	3810.2	2914.8
1024.5002	2974.7432	3788.6	2900.4
1024.6132	2975.8196	3784.3	2893.95
1024.7261	2976.8954	3774.55	2884.65
1024.839	2977.9705	3742.25	2852.6
1024.9519	2979.045	3723.65	2832.95
1025.0647	2980.1188	3693.6	2803.55
1025.1775	2981.192	3663.8	2774.9
1025.2902	2982.2645	3653.75	2764.45
1025.4029	2983.3364	3606.2	2715.85
1025.5156	2984.4077	3564.55	2676.1
1025.6282	2985.4783	3546.1	2652.25
1025.7407	2986.5483	3502.3	2612.85
1025.8532	2987.6177	3476.25	2586.95
1025.9657	2988.6864	3432.25	2543.7
1026.0782	2989.7545	3381.35	2490.2
1026.1906	2990.8219	3359.1	2470.05
1026.3029	2991.8887	3307.2	2416.2
1026.4152	2992.9548	3268.35	2377.2
1026.5275	2994.0204	3237.8	2349
1026.6397	2995.0852	3201.3	2311.5
1026.7519	2996.1495	3171.05	2280.6
1026.864	2997.2131	3151.2	2261.45
1026.9761	2998.276	3124.85	2235.4
1027.0882	2999.3383	3084.9	2195.75
1027.2002	3000.4	3068.5	2177.5
1027.3122	3001.4611	3041.5	2151.75
1027.4241	3002.5215	3012.45	2124.15
1027.536	3003.5812	3006.85	2116.9
1027.6478	3004.6404	2979	2089.2
1027.7596	3005.6989	2968.6	2076.3
1027.8714	3006.7567	2960.25	2071.3
1027.9831	3007.8139	2959.5	2048.4
1028.0947	3008.8705	2925.5	2033.4
1028.2064	3009.9264	2920.5	2027.65
1028.3179	3010.9818	2905.5	2016.2
1028.4295	3012.0364	2894.4	2005.95
1028.541	3013.0905	2880.65	1990.8
1028.6524	3014.1439	2876.05	1985.75
1028.7638	3015.1966	2872	1983.8
1028.8752	3016.2487	2855.35	1966.8
1028.9865	3017.3002	2852.25	1959.65
1029.0978	3018.3511	2859.05	1969.25
1029.209	3019.4013	2848.4	1958.9
1029.3202	3020.4509	2848.1	1960.2
1029.4314	3021.4998	2838.6	1949.7
1029.5425	3022.5481	2826.65	1936.3
1029.6535	3023.5958	2814.55	1925.25
1029.7645	3024.6428	2811.15	1920.1
1029.8755	3025.6892	2801.7	1911.55
1029.9864	3026.735	2796	1906.75
1030.0973	3027.7802	2798.35	1907.55
1030.2082	3028.8247	2781.5	1891.3
1030.319	3029.8685	2776.35	1884.7
1030.4297	3030.9118	2778.25	1890.4
1030.5404	3031.9544	2772.8	1886.25
1030.6511	3032.9963	2777.75	1887.95
1030.7617	3034.0376	2785.65	1897.5
1030.8723	3035.0783	2774.95	1881.3
1030.9829	3036.1184	2777.65	1885.95
1031.0934	3037.1578	2757.75	1869.05
1031.2038	3038.1966	2768.25	1877.35
1031.3142	3039.2348	2760.85	1873.65
1031.4246	3040.2723	2760.85	1861.65
1031.5349	3041.3092	2744.75	1855.45
1031.6452	3042.3455	2728.15	1839.75
1031.7554	3043.3811	2721.8	1832.55
1031.8656	3044.4161	2717.1	1827.95
1031.9758	3045.4505	2701.15	1811.2
1032.0859	3046.4842	2696.25	1805.3
1032.1959	3047.5173	2683.9	1796.45
1032.3059	3048.5498	2665.8	1775.3
1032.4159	3049.5816	2663.15	1773.05
1032.5258	3050.6128	2645.55	1754.75
1032.6357	3051.6434	2647.15	1755.15
1032.7455	3052.6734	2628.1	1737.7
1032.8553	3053.7027	2611.5	1721.15
1032.9651	3054.7314	2594.7	1706.15
1033.0748	3055.7594	2595.35	1707.25
1033.1845	3056.7868	2583.35	1692.1
1033.2941	3057.8136	2563.55	1674.55
1033.4037	3058.8398	2550.2	1660.8
1033.5132	3059.8653	2546.65	1657.5
1033.6227	3060.8902	2534.05	1644.3
1033.7321	3061.9145	2511.7	1621.85
1033.8415	3062.9381	2515.9	1625.3
1033.9509	3063.9612	2505.7	1601.6
1034.0602	3064.9835	2492.7	1601.35
1034.1694	3066.0053	2486.9	1595.4
1034.2787	3067.0264	2468.1	1579.3
1034.3878	3068.0469	2458.7	1568.75
1034.497	3069.0668	2446.15	1555.1
1034.6061	3070.086	2442.6	1554.3
1034.7151	3071.1046	2417.55	1527.05
1034.8241	3072.1226	2416.15	1525
1034.9331	3073.1399	2400.9	1512.85
1035.042	3074.1567	2382.15	1493.05
1035.1508	3075.1727	2364.75	1473.5
1035.2597	3076.1882	2345.8	1458.4
1035.3684	3077.203	2343.2	1453.5
1035.4772	3078.2173	2323.35	1431.8
1035.5859	3079.2308	2311.9	1420.5
1035.6945	3080.2438	2302.5	1410.5
1035.8031	3081.2561	2290.45	1400.25
1035.9117	3082.2678	2276.25	1387.15
1036.0202	3083.2789	2261.6	1370.9
1036.1286	3084.2893	2263.6	1374.75
1036.2371	3085.2991	2245	1355.3
1036.3454	3086.3083	2245.8	1352.3
1036.4538	3087.3169	2230.55	1339.25
1036.562	3088.3248	2225.4	1334.45
1036.6703	3089.3321	2210.6	1319.2
1036.7785	3090.3388	2193	1305.15
1036.8866	3091.3449	2187.6	1296.65
1036.9948	3092.3503	2187.35	1295.05
1037.1028	3093.3551	2170.65	1281.6
1037.2108	3094.3593	2160.6	1272.45
1037.3188	3095.3629	2156.35	1265.95
1037.4267	3096.3658	2146.7	1256.3
1037.5346	3097.3681	2141.3	1252.1
1037.6425	3098.3698	2137.1	1246.2
1037.7503	3099.3708	2123.85	1231.4
1037.858	3100.3713	2125.05	1235.7
1037.9657	3101.3711	2109.3	1218.85
1038.0734	3102.3702	2224.15	1194.2
1038.181	3103.3688	2104.35	1214.15
1038.2886	3104.3667	2085.85	1196.65
1038.3961	3105.364	2076.5	1186.05
1038.5036	3106.3607	2069.8	1179.45
1038.611	3107.3568	2070.6	1181.05
1038.7184	3108.3522	2057.5	1169.1
1038.8257	3109.347	2051.6	1160.25
1038.933	3110.3412	2050.6	1157.7
1039.0403	3111.3348	2038.9	1149.15
1039.1475	3112.3277	2033.7	1143.65
1039.2547	3113.32	2021.05	1133.1
1039.3618	3114.3117	2022.95	1133.15
1039.4689	3115.3028	2011.85	1125.4
1039.5759	3116.2932	1995.2	1103.85
1039.6829	3117.2831	2006	1112.7
1039.7898	3118.2723	1995.7	1106.95
1039.8967	3119.2608	1981.6	1093.05
1040.0035	3120.2488	1979.05	1090.15
1040.1103	3121.2361	1971.85	1083.8
1040.2171	3122.2229	1971.6	1081.35
1040.3238	3123.209	1962.6	1072.15
1040.4305	3124.1944	1957.25	1067.8
1040.5371	3125.1793	1948.05	1057.85
1040.6437	3126.1635	1948.8	1059.1
1040.7502	3127.1471	1936.5	1048.4
1040.8567	3128.1301	1925.8	1036.85
1040.9631	3129.1125	1924.15	1035.75
1041.0695	3130.0942	1931.05	1041.7
1041.1759	3131.0753	1920.55	1024.2
1041.2822	3132.0558	1905.65	1014.4
1041.3884	3133.0357	1908.25	1016.85
1041.4946	3134.015	1898.65	1009.85
1041.6008	3134.9936	1902.45	1010.1
1041.7069	3135.9716	1911.05	1002.25
1041.813	3136.949	1888.9	1000.4
1041.919	3137.9258	1890.45	995.9
1042.025	3138.902	1868.65	972.15
1042.1309	3139.8775	1865.85	976.25
1042.2368	3140.8524	1874.6	985.5
1042.3427	3141.8267	1866.2	975.8
1042.4485	3142.8004	1859.05	969.9
1042.5542	3143.7735	1857	960.95
1042.6599	3144.7459	1855.25	962.4
1042.7656	3145.7178	1846.75	956
1042.8712	3146.689	1844.15	957.3
1042.9768	3147.6596	1828.85	937.25
1043.0823	3148.6295	1830.55	940
1043.1878	3149.5989	1820.8	933.15
1043.2932	3150.5676	1817.35	927.35
1043.3986	3151.5357	1816.9	928.2
1043.5039	3152.5032	1802.85	914.45
1043.6092	3153.4701	1800.45	911.15
1043.7145	3154.4364	1806.55	914.15
1043.8197	3155.402	1786.85	896.7
1043.9248	3156.367	1785.75	893.3
1044.03	3157.3315	1819.9	887.95
1044.135	3158.2952	1776.1	885.8
1044.24	3159.2584	1773.35	884.85
1044.345	3160.221	1763.4	873.95
1044.4499	3161.1829	1762.5	872.9
1044.5548	3162.1442	1754	864.45
1044.6596	3163.105	1756.9	867.05
1044.7644	3164.065	1749.85	860.1
1044.8692	3165.0245	1733.8	844.3
1044.9739	3165.9834	1733.95	845.1
1045.0785	3166.9416	1734	843.5
1045.1831	3167.8993	1724.2	833.2
1045.2877	3168.8563	1713.2	822.35
1045.3922	3169.8127	1720.55	830.85
1045.4966	3170.7684	1716.45	827.05
1045.6011	3171.7236	1706.7	816.1
1045.7054	3172.6782	1707.55	818.4
1045.8098	3173.6321	1696.85	807.25
1045.914	3174.5854	1697.15	801.4
1046.0183	3175.5381	1700.35	811.45
1046.1224	3176.4902	1685.85	796.75
1046.2266	3177.4417	1681.95	794.25
1046.3307	3178.3926	1676.05	787.5
1046.4347	3179.3428	1668.55	779.6
1046.5387	3180.2924	1667.85	779.2
1046.6427	3181.2415	1657.35	767.1
1046.7466	3182.1899	1657.95	767.65
1046.8504	3183.1377	1658.55	768.35
1046.9542	3184.0848	1654.9	761.55
1047.058	3185.0314	1644.1	753.7
1047.1617	3185.9773	1645.8	754.6
1047.2654	3186.9227	1640.15	752
1047.369	3187.8674	1621.3	732.05
1047.4726	3188.8115	1627.55	734.05
1047.5761	3189.755	1629.25	739.9
1047.6796	3190.6979	1624.55	735.25
1047.783	3191.6402	1618.6	728.1
1047.8864	3192.5818	1616	726.05
1047.9898	3193.5229	1624.2	721.85
1048.0931	3194.4633	1613.4	724.15
1048.1963	3195.4031	1609.4	720.4
1048.2995	3196.3423	1600.2	711.6
1048.4027	3197.2809	1599.4	711.75
1048.5058	3198.2189	1600.8	713.8
1048.6089	3199.1563	1603.95	708.25
1048.7119	3200.0931	1584.2	694.25
1048.8148	3201.0292	1580.1	691.45
1048.9178	3201.9648	1576.85	688
1049.0206	3202.8997	1577.65	687.65
1049.1235	3203.834	1582.5	693.7
1049.2262	3204.7677	1564.65	676.1
1049.329	3205.7008	1558.85	667.15
1049.4317	3206.6333	1560.2	672.9
1049.5343	3207.5652	1561.05	668.8
1049.6369	3208.4964	1553.9	666
1049.7394	3209.4271	1550.55	660.8
1049.8419	3210.3571	1548.6	661.25
1049.9444	3211.2865	1547.55	657.25
1050.0468	3212.2154	1543.85	654.3
1050.1491	3213.1436	1549.6	658.8
1050.2514	3214.0712	1539.9	645.2
1050.3537	3214.9982	1537.5	648.05
1050.4559	3215.9246	1524.95	634.85
1050.5581	3216.8503	1526.05	638.95
1050.6602	3217.7755	1526.4	637.65
1050.7623	3218.7001	1521.8	632.15
1050.8643	3219.624	1509.65	619.25
1050.9663	3220.5473	1509.5	620.8
1051.0682	3221.4701	1506.85	618.75
1051.1701	3222.3922	1514.2	624.3
1051.2719	3223.3137	1501.75	611.75
1051.3737	3224.2346	1504.5	615.65
1051.4754	3225.1549	1495.4	605.05
1051.5771	3226.0746	1495.8	607.6
1051.6788	3226.9937	1496.6	608.55
1051.7804	3227.9121	1482	593.3
1051.8819	3228.83	1485.45	595.25
1051.9834	3229.7473	1480.25	591.8
1052.0849	3230.6639	1480.45	591.2
1052.1863	3231.5799	1477.4	588.1
1052.2876	3232.4954	1476.3	586.8
1052.3889	3233.4102	1470.7	580.9
1052.4902	3234.3244	1475.6	586.1
1052.5914	3235.238	1462.25	573.35
1052.6926	3236.151	1479.35	566.75
1052.7937	3237.0634	1456	565.05
1052.8948	3237.9752	1446.25	557.7
1052.9958	3238.8864	1446.35	558.25
1053.0968	3239.797	1442.95	554.25
1053.1977	3240.7069	1444.35	555.5
1053.2986	3241.6163	1436	547.3
1053.3994	3242.5251	1430.1	541.35
1053.5002	3243.4332	1430.6	542.35
1053.6009	3244.3408	1428	538.35
1053.7016	3245.2477	1421.45	532.4
1053.8022	3246.154	1424.7	533.3
1053.9028	3247.0598	1412.6	521.8
1054.0034	3247.9649	1407.4	520.45
1054.1039	3248.8694	1417.75	528.55
1054.2043	3249.7733	1410.6	522.15
1054.3047	3250.6766	1398.3	508.75
1054.4051	3251.5793	1405.9	515.75
1054.5054	3252.4814	1395.55	508.5
1054.6056	3253.3829	1387.55	498.2
1054.7058	3254.2838	1393.3	504.65
1054.806	3255.1841	1395.65	506.45
1054.9061	3256.0838	1386.1	496.65
1055.0061	3256.9829	1380.15	492.7
1055.1062	3257.8814	1380.6	489.3
1055.2061	3258.7792	1371.1	479.35
1055.306	3259.6765	1365	476.1
1055.4059	3260.5731	1363.25	476.45
1055.5057	3261.4692	1361.15	472.85
1055.6055	3262.3647	1354.5	464.7
1055.7052	3263.2595	1340.95	450.7
1055.8049	3264.1538	1338.2	447.3
1055.9045	3265.0474	1328.2	438.4
1056.0041	3265.9404	1326.75	438.4
1056.1036	3266.8329	1321.4	433.2
1056.2031	3267.7247	1322.75	425.25
1056.3025	3268.616	1299	410.05
1056.4019	3269.5066	1292.5	404.2
1056.5013	3270.3966	1278.7	387.55
1056.6005	3271.286	1268.6	380.85
