Software Version:	3.9.2.0
Unit SN:	10000200
Spectrometer SN:	6960
Date:	3/6/2024 9:35:09 AM
Data Line Index:	25
Spectral Points:	2048
Integration time (ms):	125
Averages:	20
Delay (ms):	30
Sequence Number:	1
Processing:	dark subtract
Laser Power (mW):	300
Laser Current (mA):	825
Laser Diode Temp (C):	25.1
Laser Case Temp (C):	23.8
System Temp (C):	23.6
Spectrometer Temp (C):	21.2
CCD Temp (C):	-0.039
Secondary Temp (C):	20.006
Heatsink Temp (C):	17.636
CCDPCB Temp (C):	30.249
SecondaryPCB Temp (C):	25.502

Wavelength	RamanShift	Raw Counts	Dark Subtracted
787.061	30.1047	525.8	116.55
787.2016	32.3739	528.3	121.05
787.3422	34.6426	536.45	128.9
787.4828	36.9109	550.35	141.6
787.6235	39.1787	558.6	144.1
787.7642	41.4461	569.5	152.6
787.9049	43.7131	584.1	164.1
788.0456	45.9796	599.85	176.65
788.1863	48.2456	609.9	183.6
788.3271	50.5112	622.2	189.85
788.4679	52.7764	636.4	202.75
788.6087	55.0411	652.3	212.8
788.7496	57.3054	668.95	227
788.8904	59.5692	686.15	243.15
789.0313	61.8326	703.35	256.85
789.1722	64.0955	725.3	277.4
789.3132	66.3579	749.6	297.05
789.4541	68.6199	783.9	326.7
789.5951	70.8815	838.95	377.55
789.7361	73.1426	959.65	492.05
789.8771	75.4032	1261.15	791.8
790.0181	77.6634	2010.55	1540.15
790.1592	79.9231	3792.55	3319.65
790.3003	82.1824	7687.55	7210
790.4414	84.4412	14626	14140.6
790.5825	86.6995	23865.05	23373.85
790.7237	88.9574	32707.45	32212.6
790.8648	91.2148	39106.05	38603.35
791.006	93.4717	42157.6	41650.85
791.1472	95.7282	43536.8	43027.65
791.2885	97.9842	44142.1	43635.1
791.4297	100.2398	44480.55	43969.25
791.571	102.4949	44285.3	43771.55
791.7123	104.7495	44661.2	44142.8
791.8536	107.0036	44423.4	43904.4
791.9949	109.2573	44947.8	44429.95
792.1363	111.5105	44486.2	43963.95
792.2777	113.7632	44923.85	44401.3
792.4191	116.0154	44993.15	44458.4
792.5605	118.2672	45329.05	44798.9
792.7019	120.5185	45218.45	44691.65
792.8434	122.7693	45253.75	44721.75
792.9849	125.0197	45130.5	44591.65
793.1264	127.2696	45671.05	45128.4
793.2679	129.519	45822.8	45279.55
793.4094	131.7679	46199.15	45653.4
793.551	134.0163	45336.55	44788.15
793.6926	136.2642	45758.3	45203.7
793.8342	138.5117	46333.65	45777.7
793.9758	140.7587	46198.35	45643.45
794.1175	143.0052	46342.65	45783.6
794.2591	145.2512	45914.3	45354.6
794.4008	147.4967	46510.35	45950.1
794.5425	149.7417	46297.6	45734.45
794.6842	151.9863	46406.6	45836.65
794.826	154.2304	45929.55	45357.7
794.9677	156.4739	46392.15	45814.45
795.1095	158.717	46624.05	46045.4
795.2513	160.9596	46530.75	45948.5
795.3931	163.2017	46188.25	45603.75
795.535	165.4433	46758.85	46170.8
795.6768	167.6844	46561.55	45971.15
795.8187	169.925	46860.1	46270.7
795.9606	172.1651	46683.65	46087.85
796.1025	174.4047	46556.4	45956.3
796.2445	176.6439	46720.15	46118.45
796.3864	178.8825	46779.8	46175.85
796.5284	181.1206	47024.4	46417.6
796.6704	183.3582	47128.85	46515.45
796.8124	185.5954	46802	46188.9
796.9544	187.832	47076.55	46458.8
797.0965	190.0681	46967.55	46348.35
797.2386	192.3037	47468.35	46843.15
797.3806	194.5388	48006.3	47380.45
797.5228	196.7734	46926.25	46299.25
797.6649	199.0075	47919.8	47290.5
797.807	201.2411	47812.9	47185.25
797.9492	203.4742	48352.55	47719.8
798.0914	205.7068	48357.25	47721.3
798.2336	207.9389	48368.65	47730.15
798.3758	210.1704	48384.9	47753.85
798.518	212.4015	48880.35	48260.05
798.6603	214.632	48227.6	47612
798.8025	216.862	48832.35	48218.55
798.9448	219.0915	48884.95	48266.8
799.0871	221.3205	48596.05	47976.75
799.2294	223.549	49167.95	48555.75
799.3718	225.777	49189.4	48573
799.5141	228.0044	49338.4	48713.95
799.6565	230.2314	49337.15	48711.7
799.7989	232.4578	49279.95	48649.2
799.9413	234.6837	49329.7	48692
800.0837	236.909	50332.7	49693.4
800.2262	239.1339	49109.75	48444.05
800.3687	241.3582	49655.1	49004.65
800.5111	243.582	49695.6	49014.3
800.6536	245.8053	49855	49189.7
800.7961	248.0281	49832.15	49170.45
800.9387	250.2503	50082.95	49415.95
801.0812	252.472	49838.2	49169.9
801.2238	254.6932	50014.05	49346.4
801.3664	256.9139	49926.45	49256.6
801.509	259.134	50813.1	50138.05
801.6516	261.3536	49703.2	49033.45
801.7942	263.5727	50585.25	49913.25
801.9369	265.7912	50216.35	49543
802.0795	268.0092	50400.9	49728.5
802.2222	270.2267	50498.5	49823.95
802.3649	272.4436	50251.2	49573.05
802.5076	274.6601	50615.4	49928.55
802.6504	276.8759	50875.7	50192.45
802.7931	279.0913	50851.65	50167.85
802.9359	281.3061	50750	50067.85
803.0787	283.5204	50996.65	50308.7
803.2215	285.7341	50930.25	50239.5
803.3643	287.9473	51477.35	50777.8
803.5071	290.16	51001.25	50307.1
803.6499	292.3721	51493.1	50806.25
803.7928	294.5837	50727	50038.3
803.9357	296.7947	50596.45	49907.25
804.0786	299.0052	51123.15	50432.3
804.2215	301.2152	50807.35	50114.4
804.3644	303.4246	51367.15	50675.95
804.5074	305.6334	51259.1	50566.7
804.6503	307.8418	50678.15	49982.95
804.7933	310.0495	50984.35	50287.1
804.9363	312.2568	50850.1	50154.2
805.0793	314.4635	50767	50068.45
805.2223	316.6696	50916.4	50214.8
805.3653	318.8752	51211.65	50500.2
805.5084	321.0802	50193	49487.45
805.6514	323.2847	50561.55	49854.65
805.7945	325.4887	50603.15	49898.3
805.9376	327.692	50332.85	49624
806.0807	329.8949	50758.1	50049.1
806.2238	332.0972	50564.95	49853.05
806.367	334.2989	50799.15	50084.85
806.5101	336.5001	51166.65	50451.8
806.6533	338.7007	50468.75	49754.55
806.7965	340.9008	50800.15	50080.8
806.9397	343.1003	50754.35	50034.6
807.0829	345.2992	51036	50317.15
807.2261	347.4976	50643.25	49924.8
807.3693	349.6955	50733.25	50009.3
807.5126	351.8927	50561.25	49833.45
807.6559	354.0895	50786.15	50050.5
807.7991	356.2856	50717	49988.95
807.9424	358.4812	51010.95	50281.15
808.0857	360.6763	50590.85	49859.6
808.2291	362.8707	50755.65	50021.1
808.3724	365.0646	50628.4	49891.9
808.5158	367.258	50623.3	49885.4
808.6591	369.4508	50377.05	49635.9
808.8025	371.643	50758.6	50018.5
808.9459	373.8346	50583.55	49843.1
809.0893	376.0257	50532.05	49788.7
809.2327	378.2162	50483.3	49738.4
809.3762	380.4062	50277.15	49534.25
809.5196	382.5956	50382.7	49640
809.6631	384.7844	50443.5	49703.5
809.8066	386.9726	50412	49673
809.9501	389.1603	50509.45	49771.3
810.0936	391.3474	50025.7	49242.2
810.2371	393.5339	50424.8	49685.6
810.3806	395.7199	49856.2	49118.4
810.5241	397.9052	49954.75	49215.9
810.6677	400.09	50103.25	49363.6
810.8113	402.2743	50253.95	49509.8
810.9548	404.4579	50147.45	49403.45
811.0984	406.641	50080.75	49333.55
811.2421	408.8235	50292.5	49546.65
811.3857	411.0054	50219.3	49470.3
811.5293	413.1868	50321.1	49569.5
811.673	415.3675	50302.05	49547.95
811.8166	417.5477	50348.15	49591.95
811.9603	419.7273	50228.8	49469.2
812.104	421.9064	50089.8	49322.6
812.2477	424.0848	50038.7	49278.5
812.3914	426.2627	50074.05	49312.75
812.5351	428.4399	49584.25	48822.6
812.6788	430.6166	49363.95	48596.6
812.8226	432.7928	49599.15	48833.1
812.9663	434.9683	49218.8	48453.3
813.1101	437.1432	49227.3	48456.45
813.2539	439.3176	49310.6	48542
813.3977	441.4914	48872.45	48105.4
813.5415	443.6645	48903.2	48130.65
813.6853	445.8371	48798.55	48028.5
813.8291	448.0091	48477.65	47708.55
813.973	450.1806	48348.35	47577.75
814.1168	452.3514	48297.65	47525.2
814.2607	454.5216	48222.2	47440.85
814.4046	456.6913	48209.55	47433.95
814.5485	458.8603	48213.65	47441.75
814.6924	461.0288	48135.4	47360.15
814.8363	463.1967	48226.8	47452.45
814.9802	465.3639	48201.7	47425.85
815.1241	467.5306	47865.3	47088.85
815.2681	469.6967	47834.35	47056.75
815.412	471.8622	47794.3	47017.5
815.556	474.0271	47774.9	46998.85
815.7	476.1914	47801.25	47022
815.844	478.3551	47762.6	46985.95
815.988	480.5182	47908.6	47128.1
816.132	482.6807	47708.95	46927.15
816.276	484.8426	47799.5	47018.1
816.4201	487.0039	48042.15	47260.15
816.5641	489.1647	48055.05	47273.4
816.7082	491.3248	47829.5	47048.45
816.8522	493.4843	48049.65	47266.55
816.9963	495.6432	48023.25	47239.05
817.1404	497.8015	47608.5	46820.35
817.2845	499.9592	47810.55	47024.4
817.4286	502.1163	47698.05	46912.1
817.5727	504.2728	47579.05	46789.5
817.7168	506.4287	47643.1	46854.45
817.861	508.5839	47378.2	46590.45
818.0051	510.7386	47410.15	46620.6
818.1493	512.8927	47519.15	46719.95
818.2935	515.0461	47475	46684.05
818.4377	517.199	47559.2	46766.1
818.5818	519.3512	47534.65	46742.9
818.726	521.5029	47414.85	46616.6
818.8703	523.6539	47526.95	46733.95
819.0145	525.8043	47265.2	46471.8
819.1587	527.9541	47379.65	46582.55
819.303	530.1033	47204.4	46407.2
819.4472	532.2519	47023.75	46226.2
819.5915	534.3999	47037.9	46238.45
819.7357	536.5472	47125.25	46326.4
819.88	538.694	46892.8	46095.55
820.0243	540.8401	47004	46207.5
820.1686	542.9856	46953.4	46154.05
820.3129	545.1305	46969.55	46169.6
820.4572	547.2748	47001.65	46201.9
820.6016	549.4185	46935	46134.55
820.7459	551.5615	46905.1	46104.65
820.8902	553.704	46919.55	46116.3
821.0346	555.8458	46778	45978.9
821.1789	557.987	46792.2	45991.95
821.3233	560.1276	46830.8	46029.3
821.4677	562.2675	46872.7	46071.5
821.6121	564.4069	46827.8	46026.45
821.7565	566.5456	46818.7	46017
821.9009	568.6837	46722.3	45918.95
822.0453	570.8212	46564.9	45763.5
822.1897	572.958	46310.1	45504.75
822.3342	575.0942	46238.25	45436.05
822.4786	577.2299	46125.8	45317.8
822.6231	579.3648	45949.35	45142.8
822.7675	581.4992	45726.05	44919.1
822.912	583.6329	45629.25	44824.9
823.0565	585.766	45571.45	44763.3
823.201	587.8985	45574.7	44769.1
823.3454	590.0304	45383.15	44562.6
823.4899	592.1616	45440	44628.7
823.6345	594.2922	45270.75	44461.3
823.779	596.4222	45160.2	44346.1
823.9235	598.5515	45028.45	44215.75
824.068	600.6802	44923.7	44110.3
824.2126	602.8083	44675.4	43861.9
824.3571	604.9358	44650.9	43836.9
824.5017	607.0626	44501.85	43689.2
824.6462	609.1888	44420.55	43607.75
824.7908	611.3144	44467.1	43652.3
824.9354	613.4393	44384.4	43570.7
825.08	615.5636	44368.15	43553.25
825.2246	617.6873	44399.05	43583.55
825.3692	619.8103	44444.85	43627.05
825.5138	621.9327	44319.4	43498.75
825.6584	624.0544	44330.35	43514.5
825.803	626.1756	44205.45	43389.65
825.9477	628.2961	44113.8	43296.35
826.0923	630.4159	43972.65	43155.1
826.237	632.5351	43935.45	43118.3
826.3816	634.6537	43918.4	43099.3
826.5263	636.7716	43825.45	43006
826.6709	638.8889	43808.9	42988.25
826.8156	641.0056	43869.75	43047.75
826.9603	643.1216	43785.25	42963.05
827.105	645.237	43821.6	42997.35
827.2497	647.3518	43643.95	42820.75
827.3944	649.4659	43632.55	42810.55
827.5391	651.5793	43538.25	42714.3
827.6838	653.6922	43462.45	42640.7
827.8285	655.8043	43352.5	42529.6
827.9733	657.9159	43381.7	42556.45
828.118	660.0268	43147.65	42321.3
828.2627	662.137	43079.85	42255.35
828.4075	664.2466	43119.85	42292.85
828.5522	666.3556	43065.25	42239.05
828.697	668.4639	42971.15	42139.75
828.8418	670.5716	42993.35	42169.15
828.9865	672.6786	42967.4	42139.3
829.1313	674.785	42766.05	41935.25
829.2761	676.8907	42628	41799.3
829.4209	678.9958	42638.65	41810.5
829.5657	681.1002	42532.65	41701.45
829.7105	683.204	42454.1	41620.2
829.8553	685.3072	42423.65	41593.8
830.0001	687.4097	42243.45	41415.35
830.1449	689.5115	42289.1	41460.25
830.2898	691.6127	42335.3	41502.95
830.4346	693.7132	42172.8	41343.45
830.5794	695.8131	42188.85	41334.7
830.7243	697.9123	42213.65	41380.8
830.8691	700.0109	42089.85	41259
831.014	702.1089	42047.6	41216.2
831.1588	704.2061	41976.8	41145.1
831.3037	706.3028	42002.45	41168.15
831.4486	708.3987	41967.9	41133.45
831.5935	710.4941	41880.5	41046.65
831.7383	712.5887	41892.45	41057.6
831.8832	714.6827	41865.55	41025.4
832.0281	716.7761	41793.1	40960.15
832.173	718.8688	41795.5	40958.55
832.3179	720.9608	41656	40816.4
832.4628	723.0522	41699.2	40858.7
832.6077	725.1429	41568.2	40730.1
832.7527	727.233	41601.25	40765.05
832.8976	729.3224	41699.75	40863.05
833.0425	731.4112	41532.65	40694.35
833.1874	733.4993	41478.3	40638.6
833.3324	735.5867	41322.95	40484.9
833.4773	737.6735	41240.2	40398.95
833.6222	739.7596	41093.25	40252.9
833.7672	741.845	40935	40095.45
833.9122	743.9298	40856.35	40014.6
834.0571	746.014	40772.55	39932.95
834.2021	748.0974	40739.2	39896.65
834.347	750.1802	40653.4	39812.65
834.492	752.2624	40505.05	39664.4
834.637	754.3439	40378.2	39535.2
834.782	756.4247	40265.55	39413.55
834.9269	758.5048	40127.15	39286.7
835.0719	760.5843	40068.65	39227.15
835.2169	762.6631	40000.1	39158.7
835.3619	764.7413	39972.35	39130
835.5069	766.8188	40019.95	39177.95
835.6519	768.8956	39914.5	39071.2
835.7969	770.9718	40010.65	39167.05
835.9419	773.0473	39862.3	39021.9
836.0869	775.1221	39797.5	38953.7
836.232	777.1962	39591	38746.5
836.377	779.2697	39575.65	38728.75
836.522	781.3426	39619.3	38755.8
836.667	783.4147	39605.25	38760.1
836.8121	785.4862	39558.55	38714.2
836.9571	787.557	39423.85	38579
837.1021	789.6271	39230.4	38385.2
837.2472	791.6966	39021.1	38176.2
837.3922	793.7654	38792.15	37946.1
837.5373	795.8335	38732.45	37886.4
837.6823	797.901	38589.95	37745.15
837.8274	799.9678	38550.85	37703.6
837.9724	802.0339	38459.5	37613.45
838.1175	804.0993	38444.25	37587.05
838.2626	806.1641	38276	37429
838.4076	808.2282	38163.8	37315.5
838.5527	810.2916	38193.9	37345
838.6978	812.3544	38095.25	37248.2
838.8428	814.4164	38007.9	37161.1
838.9879	816.4778	38062.3	37215.65
839.133	818.5385	37893.1	37045.6
839.2781	820.5986	37914.45	37065.5
839.4232	822.658	37961.05	37110.25
839.5682	824.7166	37891.7	37042.5
839.7133	826.7747	38010.95	37162.05
839.8584	828.832	38002.45	37155.1
840.0035	830.8886	37912.4	37062.6
840.1486	832.9446	37911.8	37061.35
840.2937	834.9999	37808.4	36959.6
840.4388	837.0545	37723.75	36869.95
840.5839	839.1085	37583.95	36731.55
840.729	841.1618	37488.95	36634.75
840.8741	843.2143	37295.95	36444.3
841.0192	845.2662	37120.15	36266.6
841.1643	847.3175	37099.45	36249.5
841.3095	849.368	36972.85	36122
841.4546	851.4179	36963	36110.25
841.5997	853.467	36772.25	35920.6
841.7448	855.5155	36760.05	35905.3
841.8899	857.5633	36685.65	35831.8
842.0351	859.6105	36608.4	35757.55
842.1802	861.6569	36522.4	35670.7
842.3253	863.7027	36468.45	35615.55
842.4704	865.7478	36494.4	35641.55
842.6156	867.7922	36445.1	35591.25
842.7607	869.8359	36334.2	35480.55
842.9058	871.8789	36302.75	35448.05
843.0509	873.9212	36324.55	35440.6
843.1961	875.9629	36108.15	35253.8
843.3412	878.0039	36172.75	35315.7
843.4863	880.0441	36054.05	35200.25
843.6315	882.0837	36124.4	35270.05
843.7766	884.1226	36081	35227.6
843.9218	886.1609	36067.35	35212.3
844.0669	888.1984	36089.8	35236.15
844.212	890.2352	36210.8	35356.55
844.3572	892.2714	36095.8	35233.95
844.5023	894.3069	36113.15	35257.4
844.6475	896.3416	35895.1	35036.3
844.7926	898.3757	35832.05	34973.35
844.9377	900.4091	35792.4	34934.8
845.0829	902.4418	35745.5	34885.3
845.228	904.4739	35555.15	34695.35
845.3732	906.5052	35540.4	34682.5
845.5183	908.5358	35493.5	34637.15
845.6635	910.5658	35408.2	34550.45
845.8086	912.595	35360.1	34502.6
845.9538	914.6236	35202.55	34346.05
846.0989	916.6515	35174.75	34316.65
846.2441	918.6786	35082.25	34222.45
846.3892	920.7051	35055.45	34194.85
846.5344	922.7309	35071.45	34212.9
846.6795	924.756	34881.5	34023.8
846.8246	926.7804	34857.4	33996.35
846.9698	928.8041	34643.2	33783.05
847.1149	930.8272	34668.55	33809.75
847.2601	932.8495	34509.95	33649.45
847.4052	934.8711	34545.45	33684.85
847.5504	936.892	34374.55	33513.9
847.6955	938.9123	34321.7	33460.75
847.8407	940.9318	34235.9	33377.25
847.9858	942.9506	34140.15	33279.65
848.131	944.9688	34047	33187.15
848.2761	946.9862	33967.35	33106.2
848.4213	949.003	33782.1	32920.8
848.5664	951.019	33680.3	32821.05
848.7115	953.0344	33577.65	32716.5
848.8567	955.0491	33514.75	32653.2
849.0018	957.063	33521.7	32661.8
849.147	959.0763	33556.8	32698.65
849.2921	961.0888	33412.6	32550.55
849.4373	963.1007	33389.05	32528.15
849.5824	965.1119	33328.25	32467.65
849.7275	967.1223	33256.65	32397.1
849.8727	969.1321	33239.6	32378.7
850.0178	971.1412	33154.9	32292.8
850.1629	973.1495	33069.5	32205.9
850.3081	975.1572	33042.65	32135.05
850.4532	977.1641	33031.75	32169.4
850.5983	979.1704	32866	32002.8
850.7435	981.1759	32756	31891.9
850.8886	983.1808	32757.95	31894.55
851.0337	985.1849	32647.45	31777.95
851.1788	987.1884	32651.9	31788.5
851.324	989.1911	32571.7	31703.5
851.4691	991.1932	32524.9	31659.7
851.6142	993.1945	32362.15	31499.25
851.7593	995.1951	32212.05	31345.7
851.9045	997.1951	32203.55	31335.1
852.0496	999.1943	32033.75	31168.2
852.1947	1001.1928	31919.75	31054.05
852.3398	1003.1906	31825.1	30960.95
852.4849	1005.1877	31838.6	30971.85
852.63	1007.1841	31743.4	30880.3
852.7751	1009.1798	31616.15	30752.8
852.9202	1011.1748	31526.3	30659.85
853.0653	1013.1691	31451.85	30586.15
853.2104	1015.1627	31306.7	30439.65
853.3555	1017.1556	31064.05	30200.55
853.5006	1019.1477	30994.7	30130.7
853.6457	1021.1392	30793.1	29929.3
853.7908	1023.1299	30705.45	29841.4
853.9359	1025.12	30592.6	29724.3
854.081	1027.1093	30518.65	29654.45
854.2261	1029.0979	30430.9	29569.3
854.3712	1031.0859	30312.3	29448.45
854.5163	1033.0731	30279.85	29415.6
854.6613	1035.0596	30201.95	29335.85
854.8064	1037.0454	30071.65	29206.25
854.9515	1039.0304	30025.25	29160.2
855.0965	1041.0148	29840.2	28973.05
855.2416	1042.9985	29766.15	28897.45
855.3867	1044.9814	29715.6	28849.45
855.5317	1046.9636	29620.6	28750.25
855.6768	1048.9452	29488.5	28622.55
855.8219	1050.926	29449.45	28582.9
855.9669	1052.9061	29388.5	28522.25
856.112	1054.8855	29335.85	28467.8
856.257	1056.8642	29297	28430.05
856.4021	1058.8421	29266.65	28396.4
856.5471	1060.8194	29184.7	28315.55
856.6921	1062.7959	29131.95	28265.35
856.8372	1064.7717	29039.25	28170.35
856.9822	1066.7469	28988.9	28118.95
857.1272	1068.7213	28963.75	28094.2
857.2723	1070.695	28920	28051.85
857.4173	1072.6679	28787.65	27919.4
857.5623	1074.6402	28766	27895.75
857.7073	1076.6117	28840.35	27966.55
857.8523	1078.5826	28796.25	27927.45
857.9973	1080.5527	28635.8	27765.9
858.1423	1082.5221	28526.1	27656.1
858.2873	1084.4908	28474.7	27605.15
858.4323	1086.4587	28370.4	27502.5
858.5773	1088.426	28295.35	27425.7
858.7223	1090.3925	28184.6	27312.2
858.8673	1092.3584	28181.5	27313.05
859.0123	1094.3235	28024.75	27156.7
859.1573	1096.2879	27986.05	27116.05
859.3022	1098.2515	27989.45	27121.4
859.4472	1100.2145	28059.2	27190.75
859.5922	1102.1767	27974.1	27102.35
859.7371	1104.1382	27967.95	27098.75
859.8821	1106.099	27953.35	27082.05
860.027	1108.0591	27948.7	27077.85
860.172	1110.0185	27930.2	27058.3
860.3169	1111.9771	27944.15	27074
860.4619	1113.9351	27862.05	26992.8
860.6068	1115.8923	27865.1	26995.5
860.7517	1117.8488	27850.4	26980.05
860.8967	1119.8045	27690.9	26819.6
861.0416	1121.7596	27615.45	26743.85
861.1865	1123.7139	27345.35	26476.6
861.3314	1125.6675	27264.85	26394.95
861.4763	1127.6204	27297.9	26426.9
861.6212	1129.5726	27204.15	26330.65
861.7661	1131.524	27177.6	26307.05
861.911	1133.4748	27093.1	26220.3
862.0559	1135.4248	26936.8	26064.6
862.2008	1137.3741	26852.4	25980.95
862.3457	1139.3226	26759.45	25887.55
862.4905	1141.2705	26772.9	25903.15
862.6354	1143.2176	26598.1	25722.9
862.7803	1145.164	26599.75	25728.3
862.9251	1147.1097	26570.45	25697.1
863.07	1149.0546	26509.5	25636.05
863.2148	1150.9989	26464	25592.25
863.3597	1152.9424	26427.8	25553.4
863.5045	1154.8852	26371.95	25500
863.6493	1156.8272	26322.5	25452.55
863.7942	1158.7686	26366.9	25487.4
863.939	1160.7092	26276.35	25404.6
864.0838	1162.6491	26178.35	25304.75
864.2286	1164.5883	26159.15	25286.2
864.3734	1166.5267	26132.8	25260.95
864.5182	1168.4644	26137.2	25265.35
864.663	1170.4014	26145.25	25268.1
864.8078	1172.3377	26158.5	25287.3
864.9526	1174.2732	26141.15	25269.5
865.0974	1176.2081	26277.9	25408.6
865.2421	1178.1421	26371.85	25496.85
865.3869	1180.0755	26486.5	25615.5
865.5317	1182.0082	26464.65	25593.7
865.6764	1183.9401	26383.15	25509.45
865.8212	1185.8713	26243.75	25372.25
865.9659	1187.8017	26093.05	25220.3
866.1106	1189.7315	25931.95	25061.45
866.2554	1191.6605	25678.15	24807.55
866.4001	1193.5888	25521.6	24649.95
866.5448	1195.5163	25421.9	24548.85
866.6895	1197.4432	25350.55	24476.9
866.8342	1199.3693	25231.65	24359.55
866.9789	1201.2947	25140.05	24262.75
867.1236	1203.2193	25015.35	24143.1
867.2683	1205.1432	25022.55	24148.8
867.413	1207.0664	24947.5	24073.1
867.5576	1208.9889	24922.1	24046.9
867.7023	1210.9106	24766.05	23891.55
867.847	1212.8316	24680.55	23810.25
867.9916	1214.7519	24668.7	23787.4
868.1363	1216.6715	24597.75	23724.35
868.2809	1218.5903	24577.15	23703.85
868.4255	1220.5084	24576.05	23702.45
868.5701	1222.4257	24556.3	23683.3
868.7148	1224.3424	24439.3	23566.75
868.8594	1226.2583	24451.95	23575.25
869.004	1228.1735	24397.4	23523.35
869.1486	1230.0879	24330.55	23453.85
869.2932	1232.0016	24325.05	23451.25
869.4377	1233.9146	24324	23448.75
869.5823	1235.8269	24267.45	23392.55
869.7269	1237.7384	24283.25	23407.65
869.8715	1239.6492	24203.05	23330.45
870.016	1241.5592	24170.7	23293.25
870.1606	1243.4686	24128.3	23254.15
870.3051	1245.3772	24176.7	23303.65
870.4496	1247.285	24233.4	23358.15
870.5941	1249.1922	24235.65	23359.25
870.7387	1251.0986	24345	23470.85
870.8832	1253.0042	24353.75	23480.15
871.0277	1254.9092	24388.65	23512.45
871.1722	1256.8134	24447.45	23574.35
871.3167	1258.7169	24525.4	23650.95
871.4611	1260.6196	24538.2	23664.2
871.6056	1262.5216	24579.4	23703.6
871.7501	1264.4229	24488.25	23613.15
871.8945	1266.3234	24506.55	23631
872.039	1268.2232	24393.55	23515.3
872.1834	1270.1223	24277.55	23401.25
872.3278	1272.0207	24157.3	23281.1
872.4723	1273.9183	24123.1	23239.9
872.6167	1275.8151	24064	23189.55
872.7611	1277.7113	24098.6	23223.8
872.9055	1279.6067	24110.7	23235.6
873.0499	1281.5014	24214.45	23336.55
873.1943	1283.3953	24395.45	23518.25
873.3386	1285.2885	24603	23727.9
873.483	1287.181	24802.1	23924.7
873.6274	1289.0727	24914.95	24042.55
873.7717	1290.9637	24775.6	23900.25
873.9161	1292.854	24692.05	23817.9
874.0604	1294.7435	24445.15	23568.25
874.2047	1296.6323	24293.6	23416.85
874.349	1298.5204	24166.95	23286.45
874.4933	1300.4077	24050.45	23172.3
874.6376	1302.2943	23957.5	23081.05
874.7819	1304.1802	23925.7	23049.6
874.9262	1306.0653	23798.9	22919.8
875.0705	1307.9497	23731.2	22854.65
875.2147	1309.8333	23683	22805.3
875.359	1311.7162	23636.2	22759.7
875.5032	1313.5984	23614.65	22733.35
875.6475	1315.4798	23497.8	22622.8
875.7917	1317.3605	23430.75	22550.9
875.9359	1319.2405	23410.6	22534.1
876.0801	1321.1197	23388.65	22510.4
876.2243	1322.9982	23272.5	22391.45
876.3685	1324.876	23260.45	22384.35
876.5127	1326.753	23035.75	22158.5
876.6569	1328.6293	22946.65	22069.45
876.801	1330.5048	22857.15	21977.45
876.9452	1332.3796	22685.55	21809.15
877.0893	1334.2537	22593	21691.05
877.2335	1336.127	22502.1	21626.65
877.3776	1337.9996	22414.05	21536.55
877.5217	1339.8714	22365.55	21488.55
877.6658	1341.7426	22303.3	21381.8
877.8099	1343.6129	22228.15	21351.2
877.954	1345.4826	22166.75	21289.15
878.0981	1347.3515	22161.6	21280.35
878.2422	1349.2196	22107.25	21231.1
878.3862	1351.087	22141.9	21263.6
878.5303	1352.9537	22074.65	21198.35
878.6743	1354.8197	22068.25	21190.95
878.8184	1356.6849	22073.65	21195.85
878.9624	1358.5493	22030.15	21153.05
879.1064	1360.4131	21998.85	21123.3
879.2504	1362.276	22007.5	21129.55
879.3944	1364.1383	21994.75	21117.8
879.5384	1365.9998	21965.4	21082.3
879.6823	1367.8606	21891.45	21014.85
879.8263	1369.7206	21895.9	21018.4
879.9702	1371.5799	21804.2	20923.95
880.1142	1373.4384	21757.9	20881.6
880.2581	1375.2962	21737.45	20857.1
880.402	1377.1533	21524.85	20649.1
880.5459	1379.0096	21385	20507
880.6898	1380.8652	21313.8	20439.05
880.8337	1382.7201	21231.3	20353.4
880.9776	1384.5742	21076.15	20199.4
881.1215	1386.4275	20976.35	20098.4
881.2653	1388.2802	20911.1	20033.65
881.4092	1390.132	20853.4	19975.9
881.553	1391.9832	20786.6	19906.1
881.6968	1393.8336	20707	19829.05
881.8406	1395.6832	20659.85	19781.8
881.9844	1397.5322	20561.45	19682.8
882.1282	1399.3803	20506.75	19623.65
882.272	1401.2278	20423.8	19545
882.4158	1403.0745	20365.65	19488
882.5595	1404.9204	20266.05	19387.7
882.7033	1406.7656	20224.4	19345.65
882.847	1408.6101	20145.6	19267.2
882.9908	1410.4538	20083.75	19206.35
883.1345	1412.2968	20057.95	19178.3
883.2782	1414.139	19971.6	19094.95
883.4219	1415.9805	19977.4	19100
883.5656	1417.8213	19857.5	18959.55
883.7092	1419.6613	19817.95	18940.5
883.8529	1421.5006	19843.3	18962.8
883.9965	1423.3391	19796.05	18916.45
884.1402	1425.1769	19817.85	18938.15
884.2838	1427.0139	19857.9	18979.4
884.4274	1428.8502	19949.75	19070.55
884.571	1430.6858	19991.45	19113.7
884.7146	1432.5206	19956.95	19078.65
884.8582	1434.3547	19942.65	19062.3
885.0018	1436.188	19908.05	19030.55
885.1453	1438.0206	19907.4	19029.15
885.2889	1439.8524	19774.05	18894.55
885.4324	1441.6835	19773	18893.55
885.5759	1443.5139	19739.5	18858.8
885.7194	1445.3435	19672.8	18794.25
885.8629	1447.1724	19664.75	18788.3
886.0064	1449.0005	19612.75	18735.65
886.1499	1450.8279	19563.8	18682.3
886.2933	1452.6545	19558.1	18680.5
886.4368	1454.4804	19556.4	18678.3
886.5802	1456.3056	19500.7	18616.65
886.7237	1458.13	19445.45	18568.95
886.8671	1459.9536	19421.45	18543.2
887.0105	1461.7766	19353	18475.45
887.1539	1463.5987	19264.25	18384.55
887.2972	1465.4202	19188.9	18309.85
887.4406	1467.2409	19035.75	18155.7
887.584	1469.0608	19020.95	18143.05
887.7273	1470.88	18970.95	18091.75
887.8706	1472.6984	18911.4	18032.9
888.0139	1474.5161	18781.6	17900.5
888.1572	1476.3331	18726.8	17850.2
888.3005	1478.1493	18722.4	17843.3
888.4438	1479.9648	18703.35	17825.3
888.5871	1481.7795	18639	17760.8
888.7303	1483.5935	18590.55	17712.95
888.8736	1485.4067	18583.75	17704.7
889.0168	1487.2192	18564.15	17685.55
889.16	1489.031	18518.3	17636.85
889.3032	1490.842	18511.95	17632.85
889.4464	1492.6522	18457.85	17577.45
889.5896	1494.4618	18409.45	17529.6
889.7327	1496.2705	18397.1	17518.95
889.8759	1498.0785	18357.55	17478.3
890.019	1499.8858	18309	17430.4
890.1622	1501.6924	18224.6	17346.75
890.3053	1503.4981	18215.15	17336.9
890.4484	1505.3032	18202.4	17322.15
890.5914	1507.1075	18143.1	17262.8
890.7345	1508.911	18110.4	17231.85
890.8776	1510.7138	18068.85	17189.15
891.0206	1512.5159	17977.5	17099.5
891.1637	1514.3172	17929.95	17052.65
891.3067	1516.1178	17870.9	16994
891.4497	1517.9176	17827.8	16946.05
891.5927	1519.7166	17777.5	16899.15
891.7357	1521.515	17727.85	16841.8
891.8786	1523.3126	17700.15	16821.95
892.0216	1525.1094	17629.8	16749.5
892.1645	1526.9055	17589.7	16711.9
892.3074	1528.7008	17512.4	16632.6
892.4503	1530.4954	17396.75	16516
892.5932	1532.2893	17394.3	16516.45
892.7361	1534.0824	17300.4	16416
892.879	1535.8747	17290.7	16412.6
893.0218	1537.6663	17207.85	16327.05
893.1647	1539.4572	17150.3	16270.25
893.3075	1541.2473	17134.9	16255.3
893.4503	1543.0367	17088.15	16210.1
893.5931	1544.8253	17035.15	16151.35
893.7359	1546.6132	17016.85	16137.25
893.8787	1548.4003	16884.65	15995.45
894.0214	1550.1867	16886.3	15999.15
894.1642	1551.9723	16847.1	15964.75
894.3069	1553.7572	16821.75	15942
894.4496	1555.5414	16803.5	15922.6
894.5923	1557.3247	16798.75	15920.1
894.735	1559.1074	16778.4	15901.4
894.8777	1560.8893	16770.1	15890.15
895.0204	1562.6705	16758.15	15881.7
895.163	1564.4509	16771.6	15892.1
895.3056	1566.2305	16722.9	15844.85
895.4482	1568.0094	16740.9	15862.6
895.5908	1569.7876	16713.55	15834.85
895.7334	1571.565	16661.2	15781.1
895.876	1573.3417	16641.3	15761.55
896.0186	1575.1176	16610.7	15731.8
896.1611	1576.8928	16575.45	15697.65
896.3036	1578.6672	16507.8	15630.75
896.4461	1580.4409	16477.3	15600.55
896.5886	1582.2138	16495.2	15614
896.7311	1583.986	16505.2	15625.45
896.8736	1585.7575	16544.5	15666.6
897.0161	1587.5282	16550.6	15673.25
897.1585	1589.2981	16555.1	15674.85
897.3009	1591.0673	16482.4	15604.4
897.4433	1592.8358	16498.25	15621.5
897.5857	1594.6035	16434.8	15554.5
897.7281	1596.3704	16363.6	15485.7
897.8705	1598.1366	16275.5	15396.95
898.0128	1599.9021	16186.9	15309
898.1551	1601.6668	16130.1	15248.3
898.2975	1603.4308	16023.05	15143.2
898.4398	1605.194	15996.9	15110.8
898.5821	1606.9564	15950.6	15071.9
898.7243	1608.7182	15970.95	15088.75
898.8666	1610.4791	16066.25	15189.75
899.0088	1612.2394	16131.75	15252.95
899.1511	1613.9988	16188.05	15308.15
899.2933	1615.7576	16324.3	15446.2
899.4355	1617.5156	16341.85	15457.7
899.5776	1619.2728	16311.55	15431.9
899.7198	1621.0293	16130.45	15253.4
899.862	1622.785	15987.3	15104.05
900.0041	1624.54	15768.85	14885.5
900.1462	1626.2942	15600.2	14720.85
900.2883	1628.0477	15335.25	14455.25
900.4304	1629.8005	15221.3	14340.35
900.5725	1631.5525	15057.85	14178.5
900.7145	1633.3037	14935.95	14056.6
900.8566	1635.0542	14873.9	13995.5
900.9986	1636.804	14782.2	13901.9
901.1406	1638.553	14771.5	13801.9
901.2826	1640.3013	14635.7	13756.6
901.4245	1642.0488	14539.5	13660.3
901.5665	1643.7955	14515.5	13639.15
901.7085	1645.5416	14448.95	13570.15
901.8504	1647.2868	14394.5	13514.7
901.9923	1649.0313	14316.9	13435.7
902.1342	1650.7751	14274.6	13392
902.2761	1652.5181	14248.65	13371.85
902.4179	1654.2604	14175.9	13295
902.5598	1656.0019	14148.1	13269.05
902.7016	1657.7427	14150.3	13272.05
902.8434	1659.4828	14142.5	13264.85
902.9852	1661.222	14138.4	13258.15
903.127	1662.9606	14120.4	13239.9
903.2687	1664.6984	14119.05	13236.1
903.4105	1666.4354	14155.05	13275.8
903.5522	1668.1717	14079.25	13200.45
903.6939	1669.9072	13958.8	13080.8
903.8356	1671.642	13876.15	12991.75
903.9773	1673.3761	13811	12932.15
904.119	1675.1094	13698.15	12818.3
904.2606	1676.8419	13604.95	12726.6
904.4022	1678.5737	13561.05	12681.25
904.5439	1680.3048	13491.3	12612.95
904.6855	1682.0351	13406.95	12527.15
904.827	1683.7646	13363.05	12484.05
904.9686	1685.4934	13306.7	12428.6
905.1101	1687.2215	13236.1	12356.1
905.2517	1688.9488	13160.7	12282.8
905.3932	1690.6754	13113.65	12234.05
905.5347	1692.4012	13066.95	12188.6
905.6761	1694.1263	13032.2	12150.55
905.8176	1695.8506	13008.7	12129.6
905.9591	1697.5742	12974.1	12093.5
906.1005	1699.297	12873.9	11992.9
906.2419	1701.0191	12815.3	11936.4
906.3833	1702.7404	12807.5	11928.3
906.5246	1704.461	12739.05	11859.25
906.666	1706.1808	12671.2	11789.55
906.8073	1707.8999	12640.1	11759.05
906.9487	1709.6182	12614.7	11737.65
907.09	1711.3358	12560.85	11681.4
907.2313	1713.0527	12542.2	11663.3
907.3725	1714.7688	12477.3	11592.15
907.5138	1716.4841	12417.6	11536.9
907.655	1718.1987	12428.5	11545.65
907.7962	1719.9126	12373.15	11493.95
907.9374	1721.6257	12340.25	11457.15
908.0786	1723.338	12325.45	11445.5
908.2198	1725.0496	12255.65	11377.45
908.3609	1726.7605	12253.4	11373
908.502	1728.4706	12195.85	11317.45
908.6431	1730.18	12141.1	11258.2
908.7842	1731.8886	12163.15	11284.15
908.9253	1733.5964	12129.3	11228.25
909.0664	1735.3036	12111.6	11229.35
909.2074	1737.0099	12069.55	11190.8
909.3484	1738.7156	12062.2	11183.9
909.4894	1740.4204	12013.7	11131.95
909.6304	1742.1246	12011.7	11128.3
909.7714	1743.8279	11975.4	11095.15
909.9123	1745.5306	11968.25	11088.85
910.0532	1747.2325	11967.6	11086.75
910.1941	1748.9336	11900.35	11020.5
910.335	1750.634	11852.2	10972.55
910.4759	1752.3336	11844.55	10964.65
910.6168	1754.0325	11840	10961.1
910.7576	1755.7307	11802.35	10923.65
910.8984	1757.4281	11793.45	10912.55
911.0392	1759.1247	11773.8	10885.95
911.18	1760.8206	11745.1	10860.8
911.3208	1762.5158	11728.25	10843.55
911.4615	1764.2102	11735.85	10856.35
911.6022	1765.9039	11667.15	10788.5
911.7429	1767.5968	11672.7	10792.3
911.8836	1769.289	11614.55	10735.05
912.0243	1770.9804	11605.1	10726.3
912.1649	1772.6711	11563.35	10686.25
912.3056	1774.361	11538.9	10658.55
912.4462	1776.0502	11514.45	10635.4
912.5868	1777.7386	11502.3	10620
912.7274	1779.4263	11470.75	10591.1
912.8679	1781.1132	11459.8	10580.15
913.0084	1782.7994	11430.75	10549.1
913.149	1784.4849	11399.6	10520.5
913.2895	1786.1696	11368.45	10469.45
913.4299	1787.8535	11361.1	10484.6
913.5704	1789.5367	11312	10432
913.7108	1791.2192	11287.65	10409.3
913.8513	1792.9009	11247.6	10348.5
913.9917	1794.5818	11211.6	10330.7
914.132	1796.2621	11189.3	10309.5
914.2724	1797.9415	11171.2	10292.35
914.4128	1799.6202	11157.3	10278.85
914.5531	1801.2982	11123.65	10243.05
914.6934	1802.9755	11075.1	10193.25
914.8337	1804.6519	11079.8	10199.9
914.9739	1806.3277	11014.55	10135.85
915.1142	1808.0027	10992.75	10114.35
915.2544	1809.6769	10956.3	10076.9
915.3946	1811.3504	10942.75	10062.5
915.5348	1813.0231	10905.45	10025.95
915.675	1814.6951	10928.6	10049.6
915.8151	1816.3664	10921.1	10038
915.9553	1818.0369	10865.25	9985.7
916.0954	1819.7067	10826	9945.6
916.2355	1821.3757	10830.5	9948.15
916.3755	1823.044	10811.95	9932.65
916.5156	1824.7115	10763.2	9883.75
916.6556	1826.3783	10746.35	9866.35
916.7956	1828.0443	10727.15	9849.6
916.9356	1829.7096	10685.95	9804.55
917.0756	1831.3741	10694.3	9811.45
917.2155	1833.0379	10678.1	9799.1
917.3555	1834.701	10641.15	9760.55
917.4954	1836.3633	10623.1	9742.9
917.6353	1838.0248	10573.65	9692.95
917.7751	1839.6856	10563.1	9684.45
917.915	1841.3457	10557.35	9675.9
918.0548	1843.005	10522.1	9644.95
918.1946	1844.6636	10504.15	9625.4
918.3344	1846.3214	10469.8	9589.1
918.4742	1847.9785	10472.5	9592.95
918.6139	1849.6349	10431.1	9549.35
918.7537	1851.2904	10414.85	9526.55
918.8934	1852.9453	10409.6	9529.65
919.0331	1854.5994	10353.6	9471.3
919.1727	1856.2528	10363.3	9477.6
919.3124	1857.9054	10333.7	9452.5
919.452	1859.5572	10312.05	9430.05
919.5916	1861.2083	10297.05	9417.5
919.7312	1862.8587	10294.7	9414
919.8708	1864.5084	10283.6	9403
920.0103	1866.1572	10229.05	9348.7
920.1498	1867.8054	10212.2	9333.05
920.2893	1869.4528	10173.8	9291.35
920.4288	1871.0994	10175.35	9294.45
920.5683	1872.7453	10146.15	9265.55
920.7077	1874.3905	10123.35	9236.15
920.8471	1876.0349	10085.85	9205.6
920.9865	1877.6786	10098.4	9216.7
921.1259	1879.3215	10064.45	9185.1
921.2653	1880.9637	10045	9164.3
921.4046	1882.6051	10043.75	9165.1
921.5439	1884.2458	9997.5	9114.35
921.6832	1885.8858	9981	9099.65
921.8225	1887.525	9945	9063.25
921.9617	1889.1634	9895.6	9017.75
922.101	1890.8011	9874.5	8995.7
922.2402	1892.4381	9876.65	8996.65
922.3794	1894.0743	9869.65	8990.5
922.5185	1895.7098	9844.7	8967.55
922.6577	1897.3446	9823.95	8945.1
922.7968	1898.9786	9787.55	8904.7
922.9359	1900.6118	9789.4	8909.1
923.075	1902.2443	9735.55	8855
923.214	1903.8761	9696.65	8816.7
923.3531	1905.5071	9680.7	8800.5
923.4921	1907.1374	9644.95	8764.4
923.6311	1908.7669	9632.3	8751
923.77	1910.3957	9627.25	8748.15
923.909	1912.0237	9574.1	8694.65
924.0479	1913.651	9555.65	8675.45
924.1868	1915.2776	9519.25	8641.55
924.3257	1916.9034	9484.1	8604.8
924.4646	1918.5285	9449.45	8570.55
924.6034	1920.1528	9408.45	8527.6
924.7422	1921.7764	9397.95	8519.6
924.881	1923.3992	9352.35	8473.1
925.0198	1925.0213	9308.6	8429.35
925.1586	1926.6427	9287.45	8409.55
925.2973	1928.2633	9451	8359.7
925.436	1929.8832	9244.95	8362.25
925.5747	1931.5023	9195.2	8314.8
925.7134	1933.1207	9176	8296.7
925.852	1934.7383	9193.3	8313.75
925.9906	1936.3552	9146.35	8266.8
926.1292	1937.9714	9133.35	8251.55
926.2678	1939.5868	9122.05	8242.9
926.4064	1941.2015	9048.75	8168.55
926.5449	1942.8154	9027.95	8148.65
926.6834	1944.4286	8994.85	8113.6
926.8219	1946.041	9003.05	8100.85
926.9604	1947.6528	8922.5	8036.7
927.0988	1949.2637	8898.3	8019.3
927.2372	1950.8739	8895.35	8014.8
927.3756	1952.4834	8863.25	7983.2
927.514	1954.0921	8867.25	7987.05
927.6523	1955.7001	8835.35	7951.55
927.7907	1957.3074	8805.35	7926.65
927.929	1958.9139	8778.75	7900.95
928.0673	1960.5197	8770.8	7889.2
928.2055	1962.1247	8708.95	7831.75
928.3438	1963.729	8680.75	7800.85
928.482	1965.3325	8655.75	7754.1
928.6202	1966.9353	8656.05	7779.05
928.7584	1968.5374	8626.3	7745.35
928.8965	1970.1387	8588.65	7708.3
929.0346	1971.7393	8555.1	7675.35
929.1727	1973.3392	8549.9	7668.6
929.3108	1974.9383	8490.45	7612.85
929.4489	1976.5366	8477.55	7597.9
929.5869	1978.1342	8461.45	7582.05
929.7249	1979.7311	8469.6	7591.85
929.8629	1981.3273	8400.85	7518.75
930.0009	1982.9227	8403.7	7523.55
930.1388	1984.5173	8402.85	7524.05
930.2767	1986.1112	8348.95	7469.85
930.4146	1987.7044	8334.6	7457.15
930.5525	1989.2968	8329.95	7448.65
930.6904	1990.8885	8312.25	7428.6
930.8282	1992.4795	8281.15	7400.15
930.966	1994.0697	8272.8	7391.7
931.1038	1995.6592	8256.2	7377.1
931.2415	1997.2479	8225.8	7345.6
931.3793	1998.8359	8210	7330.6
931.517	2000.4232	8178.5	7301.05
931.6547	2002.0097	8159.1	7279
931.7923	2003.5955	8094.15	7214.65
931.93	2005.1805	8108.3	7226.75
932.0676	2006.7648	8093.4	7213.95
932.2052	2008.3484	8080.1	7199.3
932.3427	2009.9312	8074.15	7193.2
932.4803	2011.5133	8045.35	7166.75
932.6178	2013.0946	8026.6	7148.25
932.7553	2014.6752	7988.45	7110.55
932.8928	2016.2551	7993.6	7112.05
933.0302	2017.8342	7945.1	7065.85
933.1676	2019.4126	7959.45	7079.3
933.305	2020.9902	7909.3	7030.95
933.4424	2022.5672	7902.85	7020.55
933.5798	2024.1433	7904.6	7022.65
933.7171	2025.7188	7867.2	6991.85
933.8544	2027.2935	7862	6980.5
933.9917	2028.8674	7836.6	6958.05
934.129	2030.4406	7795.65	6918.35
934.2662	2032.0131	7760.45	6880.9
934.4034	2033.5849	7761.8	6878.1
934.5406	2035.1559	7727.4	6848.95
934.6778	2036.7261	7723.05	6842.95
934.8149	2038.2957	7698	6819.4
934.952	2039.8645	7726.5	6847.15
935.0891	2041.4325	7691.5	6809.95
935.2262	2042.9998	7659.6	6781.85
935.3632	2044.5664	7657.25	6774.4
935.5002	2046.1323	7628.05	6750.75
935.6372	2047.6974	7602.65	6724.25
935.7742	2049.2617	7592.7	6712.7
935.9111	2050.8254	7635.9	6734.1
936.048	2052.3883	7593.55	6715.6
936.1849	2053.9504	7579.6	6699.55
936.3218	2055.5118	7554.8	6673.5
936.4586	2057.0725	7557.3	6674.25
936.5955	2058.6325	7515.3	6635.9
936.7323	2060.1917	7514.25	6634.8
936.869	2061.7502	7490.55	6607.75
937.0058	2063.3079	7454.05	6575.15
937.1425	2064.8649	7448.05	6565.65
937.2792	2066.4212	7432	6552.95
937.4159	2067.9767	7408.1	6531.25
937.5525	2069.5315	7403	6523.45
937.6891	2071.0856	7387	6509.2
937.8257	2072.6389	7360.6	6479.1
937.9623	2074.1915	7299.85	6420.6
938.0989	2075.7433	7294.65	6413.6
938.2354	2077.2945	7279.3	6400.7
938.3719	2078.8448	7262.9	6384.85
938.5084	2080.3945	7245.85	6367.2
938.6448	2081.9434	7245.35	6366.5
938.7812	2083.4916	7208.55	6328.4
938.9176	2085.039	7189.2	6311.05
939.054	2086.5857	7183.65	6302.85
939.1903	2088.1317	7176.65	6297.7
939.3267	2089.677	7165.45	6286.6
939.463	2091.2215	7138.7	6260.65
939.5992	2092.7652	7114.4	6233.8
939.7355	2094.3083	7092.6	6212.5
939.8717	2095.8506	7088.65	6213.2
940.0079	2097.3921	7100.55	6221.45
940.1441	2098.933	7057.35	6177.8
940.2802	2100.4731	7052.8	6173.5
940.4163	2102.0124	7078	6181.75
940.5524	2103.5511	7065.3	6187.1
940.6885	2105.089	7045.1	6162.6
940.8245	2106.6261	7047	6167.6
940.9606	2108.1626	7030.1	6150.45
941.0965	2109.6983	7023.25	6115.5
941.2325	2111.2332	7001.6	6123.45
941.3684	2112.7675	6975.5	6096
941.5044	2114.301	6957	6077.4
941.6403	2115.8337	6963.5	6084
941.7761	2117.3657	6933.2	6056
941.912	2118.897	6926	6048.55
942.0478	2120.4276	6915.1	6029.7
942.1835	2121.9575	6886.8	6007.05
942.3193	2123.4866	6882.7	6000.6
942.455	2125.0149	6861.6	5978
942.5907	2126.5426	6822.35	5941.6
942.7264	2128.0695	6827.4	5943.35
942.8621	2129.5956	6817.6	5939.75
942.9977	2131.1211	6817.6	5934.2
943.1333	2132.6458	6784.5	5905.15
943.2689	2134.1698	6775.4	5897.4
943.4044	2135.693	6764.95	5883.3
943.54	2137.2155	6744.95	5861.3
943.6755	2138.7373	6744.55	5864.15
943.8109	2140.2584	6728.65	5850.9
943.9464	2141.7787	6704.55	5820.95
944.0818	2143.2983	6684.95	5806.95
944.2172	2144.8171	6649.15	5771.35
944.3526	2146.3353	6649.3	5766.7
944.4879	2147.8527	6594.7	5716.9
944.6232	2149.3693	6613.35	5735.8
944.7585	2150.8853	6586.35	5706.35
944.8938	2152.4005	6547.1	5667.2
945.029	2153.9149	6560.7	5683.15
945.1642	2155.4287	6538.75	5661.1
945.2994	2156.9417	6536.9	5656.7
945.4346	2158.454	6521.7	5638.15
945.5697	2159.9655	6499.5	5619.95
945.7048	2161.4764	6477.35	5599.15
945.8399	2162.9865	6444.1	5563.9
945.9749	2164.4958	6435.45	5554.95
946.1099	2166.0045	6439.35	5558.1
946.2449	2167.5124	6405.4	5526
946.3799	2169.0195	6393.35	5516.4
946.5148	2170.526	6405.2	5524.7
946.6498	2172.0317	6396.35	5517.2
946.7846	2173.5367	6381.95	5501.85
946.9195	2175.0409	6353.15	5476
947.0543	2176.5445	6358.45	5479.65
947.1891	2178.0473	6332.4	5452.55
947.3239	2179.5494	6294.2	5412.15
947.4587	2181.0507	6294.55	5415.3
947.5934	2182.5513	6282.5	5404
947.7281	2184.0512	6256	5377.5
947.8628	2185.5504	6217.95	5339.75
947.9974	2187.0488	6213.95	5334.05
948.132	2188.5465	6189.05	5311.55
948.2666	2190.0435	6164.15	5285.35
948.4012	2191.5397	6158.25	5275.75
948.5357	2193.0353	6169.45	5291.7
948.6702	2194.5301	6111.85	5230.25
948.8047	2196.0241	6113.35	5234.25
948.9392	2197.5175	6091.4	5212.75
949.0736	2199.0101	6066.7	5183.35
949.208	2200.502	6032.95	5153.9
949.3424	2201.9931	6036.35	5157.45
949.4767	2203.4835	6034.35	5153.15
949.611	2204.9733	6019.4	5133.85
949.7453	2206.4622	5992.8	5112.85
949.8796	2207.9505	5990.2	5109.55
950.0138	2209.438	5934.7	5057.6
950.148	2210.9248	5932.1	5050
950.2822	2212.4109	5914.75	5035.95
950.4164	2213.8962	5904.75	5021.8
950.5505	2215.3809	5899.35	5020.85
950.6846	2216.8648	5892	5012.15
950.8186	2218.3479	5864.6	4979.65
950.9527	2219.8304	5844.2	4962.5
951.0867	2221.3121	5829.4	4946.65
951.2207	2222.7931	5809.2	4930.1
951.3546	2224.2733	5788.35	4907.45
951.4886	2225.7529	5765.9	4886.5
951.6225	2227.2317	5769.95	4888.3
951.7563	2228.7098	5735.6	4856.4
951.8902	2230.1872	5728.2	4846.9
952.024	2231.6638	5737.95	4859.05
952.1578	2233.1397	5702.35	4815.85
952.2916	2234.6149	5685.2	4807.3
952.4253	2236.0894	5688.3	4807.75
952.559	2237.5632	5673.25	4792.8
952.6927	2239.0362	5641.8	4761.55
952.8263	2240.5085	5613.2	4734.1
952.9599	2241.9801	5614.4	4734.6
953.0935	2243.4509	5581.55	4703.9
953.2271	2244.921	5583.95	4706.55
953.3606	2246.3904	5549	4666.55
953.4941	2247.8591	5552	4673.75
953.6276	2249.3271	5512.45	4634.2
953.7611	2250.7943	5509.15	4630.9
953.8945	2252.2608	5493.85	4614.05
954.0279	2253.7266	5462.95	4583.1
954.1612	2255.1917	5465.1	4585.2
954.2946	2256.656	5435.65	4556.3
954.4279	2258.1197	5419.75	4540.3
954.5612	2259.5826	5412.9	4532.7
954.6944	2261.0447	5426.4	4547.55
954.8276	2262.5062	5411.95	4532.4
954.9608	2263.9669	5378.55	4497.1
955.094	2265.4269	5384.1	4506.9
955.2271	2266.8862	5353.45	4472.55
955.3602	2268.3448	5338.45	4458.45
955.4933	2269.8026	5344.9	4464.15
955.6264	2271.2598	5317.1	4436.95
955.7594	2272.7162	5325.6	4446.75
955.8924	2274.1719	5302.1	4421.5
956.0253	2275.6268	5295.45	4416.75
956.1583	2277.0811	5280.25	4399.05
956.2912	2278.5346	5276.35	4397.55
956.4241	2279.9874	5271.9	4392.2
956.5569	2281.4395	5248.35	4367.5
956.6897	2282.8908	5227.85	4345.35
956.8225	2284.3414	5236.9	4357.85
956.9553	2285.7914	5211.85	4331.8
957.088	2287.2406	5187.45	4305.95
957.2207	2288.689	5167.1	4287.05
957.3534	2290.1368	5158.75	4277.45
957.486	2291.5838	5145.35	4265.45
957.6186	2293.0302	5137.2	4258.35
957.7512	2294.4758	5112	4233.25
957.8838	2295.9206	5099.3	4218.8
958.0163	2297.3648	5093.8	4215
958.1488	2298.8082	5089.95	4210.7
958.2813	2300.251	5054.6	4175.4
958.4137	2301.693	5047.5	4166.05
958.5461	2303.1343	5051.5	4171.7
958.6785	2304.5748	5025.45	4146.75
958.8108	2306.0147	5009.35	4131.4
958.9432	2307.4538	5014.85	4132.25
959.0754	2308.8922	4985.8	4107.3
959.2077	2310.3299	4971.25	4091.9
959.3399	2311.7669	4964.6	4085.85
959.4721	2313.2031	4945.4	4064.1
959.6043	2314.6387	4931.25	4049
959.7365	2316.0735	4932.25	4052.95
959.8686	2317.5076	4921.95	4043.45
960.0006	2318.941	4899.85	4021.05
960.1327	2320.3737	4887.15	4008.85
960.2647	2321.8056	4866.5	3984.2
960.3967	2323.2369	4858.1	3978.95
960.5287	2324.6674	4858.9	3978.65
960.6606	2326.0972	4838.75	3955.7
960.7925	2327.5263	4839.25	3959.75
960.9244	2328.9547	4821.85	3940.6
961.0562	2330.3823	4801.85	3919.65
961.1881	2331.8092	4790.8	3909.25
961.3198	2333.2355	4766.35	3886.95
961.4516	2334.661	4779.7	3898.2
961.5833	2336.0858	4773.15	3890.9
961.715	2337.5098	4740.05	3861.25
961.8467	2338.9332	4735.4	3854.9
961.9783	2340.3558	4730.3	3845.7
962.1099	2341.7778	4710.1	3831.35
962.2415	2343.199	4702.15	3819.15
962.373	2344.6195	4679.8	3802.75
962.5045	2346.0393	4658	3780.1
962.636	2347.4583	4669.75	3789.35
962.7675	2348.8767	4636	3756.4
962.8989	2350.2943	4627.95	3748.15
963.0303	2351.7113	4626.65	3745.25
963.1617	2353.1275	4619.85	3738.1
963.293	2354.543	4590.75	3704.25
963.4243	2355.9578	4594.2	3716.6
963.5556	2357.3718	4557.75	3679.55
963.6868	2358.7852	4551.75	3669.55
963.818	2360.1978	4542.85	3661.25
963.9492	2361.6098	4532.85	3651.3
964.0803	2363.021	4520.8	3636.85
964.2114	2364.4315	4512.55	3634
964.3425	2365.8413	4503.15	3617.4
964.4736	2367.2504	4470.65	3593.8
964.6046	2368.6587	4461.65	3581.15
964.7356	2370.0664	4439.05	3559.4
964.8666	2371.4733	4429.25	3549.4
964.9975	2372.8795	4419.55	3539.4
965.1284	2374.285	4402.8	3521.7
965.2593	2375.6899	4397.65	3517.9
965.3901	2377.0939	4384.8	3505.1
965.5209	2378.4973	4351.9	3474.7
965.6517	2379.9	4347.8	3468.2
965.7825	2381.3019	4346.85	3469.35
965.9132	2382.7032	4326.6	3446.25
966.0439	2384.1037	4327.4	3448.7
966.1745	2385.5035	4321.85	3442.7
966.3051	2386.9027	4299.9	3421.3
966.4357	2388.3011	4288.2	3405.5
966.5663	2389.6987	4282.15	3403.2
966.6968	2391.0957	4260	3381.7
966.8273	2392.492	4248.25	3371.05
966.9578	2393.8876	4222.7	3340.4
967.0882	2395.2824	4210.9	3331.65
967.2186	2396.6765	4207.65	3330.5
967.349	2398.07	4178.05	3300.4
967.4793	2399.4627	4178.15	3297.6
967.6097	2400.8547	4170.55	3291.65
967.7399	2402.246	4164.25	3279.4
967.8702	2403.6366	4133	3253
968.0004	2405.0265	4125.85	3246.85
968.1306	2406.4156	4104.85	3220.35
968.2607	2407.8041	4100.45	3216.75
968.3909	2409.1918	4081.75	3198.9
968.521	2410.5789	4066.95	3187.3
968.651	2411.9652	4061.45	3178
968.781	2413.3508	4040.45	3163.3
968.911	2414.7358	4015.55	3133.4
969.041	2416.12	4009.9	3130.65
969.1709	2417.5035	3993.6	3114.5
969.3008	2418.8863	3987.95	3107.7
969.4307	2420.2684	3988.35	3108.6
969.5606	2421.6497	3979.25	3096.5
969.6904	2423.0304	3947.65	3068
969.8201	2424.4104	3942.75	3064.25
969.9499	2425.7896	3923.6	3041.05
970.0796	2427.1682	3924.05	3044.2
970.2093	2428.546	3924.05	3041.25
970.3389	2429.9232	3914.95	3033.15
970.4685	2431.2996	3899.45	3020
970.5981	2432.6753	3881.05	3000.35
970.7277	2434.0503	3878.3	2997.65
970.8572	2435.4246	3864.7	2986.3
970.9867	2436.7982	3848.6	2964.9
971.1161	2438.1711	3828.1	2951.45
971.2456	2439.5433	3829.95	2949.35
971.375	2440.9148	3824.3	2939.15
971.5043	2442.2856	3820.3	2941.1
971.6336	2443.6557	3796.4	2913
971.7629	2445.025	3788.75	2910
971.8922	2446.3937	3777.55	2897.95
972.0214	2447.7617	3773.05	2891.1
972.1506	2449.1289	3776.45	2895.8
972.2798	2450.4955	3757.9	2873.45
972.4089	2451.8613	3744.95	2866.9
972.538	2453.2265	3733.6	2853.7
972.6671	2454.5909	3730.05	2849.05
972.7961	2455.9546	3716.8	2839.4
972.9251	2457.3177	3700.4	2820.15
973.0541	2458.68	3672.45	2791
973.1831	2460.0416	3684.05	2803.45
973.312	2461.4025	3697.45	2815.65
973.4408	2462.7627	3673.55	2784.1
973.5697	2464.1222	3660.6	2782.55
973.6985	2465.4811	3659.65	2778.65
973.8273	2466.8392	3634.45	2752.55
973.956	2468.1966	3641.65	2759.65
974.0847	2469.5533	3640.5	2758.6
974.2134	2470.9093	3631.95	2753
974.3421	2472.2645	3629.6	2746.7
974.4707	2473.6191	3598.6	2719.1
974.5993	2474.973	3585.6	2704.6
974.7278	2476.3262	3583.1	2703
974.8563	2477.6787	3564.4	2682.85
974.9848	2479.0305	3562.3	2683.2
975.1132	2480.3816	3562.95	2681
975.2417	2481.7319	3538.65	2659.55
975.37	2483.0816	3512.8	2630.75
975.4984	2484.4306	3519.35	2639
975.6267	2485.7789	3510.15	2633.15
975.755	2487.1264	3495.75	2612.65
975.8833	2488.4733	3484.55	2606.15
976.0115	2489.8195	3472.75	2587.95
976.1397	2491.165	3458.4	2575.25
976.2678	2492.5097	3459.35	2577.8
976.3959	2493.8538	3439.2	2560.25
976.524	2495.1972	3430.6	2549.45
976.6521	2496.5398	3428.5	2546.55
976.7801	2497.8818	3415.9	2533.9
976.9081	2499.2231	3413.95	2535.85
977.036	2500.5637	3392.95	2513
977.164	2501.9035	3390.25	2511.3
977.2918	2503.2427	3376.1	2491.85
977.4197	2504.5812	3354.85	2475.55
977.5475	2505.919	3353.7	2470.5
977.6753	2507.256	3340.3	2460.55
977.8031	2508.5924	3343.85	2465.1
977.9308	2509.9281	3335.9	2449.35
978.0585	2511.2631	3327.45	2448.45
978.1861	2512.5974	3313.9	2434.3
978.3137	2513.9309	3306.45	2425.55
978.4413	2515.2638	3322.7	2414.6
978.5689	2516.596	3298.7	2419.95
978.6964	2517.9275	3262.2	2381.4
978.8239	2519.2583	3265.95	2384.1
978.9513	2520.5884	3254.15	2373.65
979.0788	2521.9178	3267	2385.15
979.2062	2523.2465	3247.55	2368.5
979.3335	2524.5745	3221.3	2341.7
979.4608	2525.9018	3226.15	2346.8
979.5881	2527.2284	3211.05	2332.4
979.7154	2528.5543	3212.85	2334.45
979.8426	2529.8796	3195.8	2317.75
979.9698	2531.2041	3192.2	2313.65
980.0969	2532.5279	3180.75	2303.2
980.224	2533.851	3182.2	2301
980.3511	2535.1735	3175.2	2295.9
980.4781	2536.4952	3164.4	2283.5
980.6052	2537.8163	3162.45	2280.35
980.7321	2539.1366	3159.2	2279.25
980.8591	2540.4562	3148.05	2268.35
980.986	2541.7752	3135.4	2256.15
981.1129	2543.0935	3145.3	2265.65
981.2397	2544.411	3129.65	2250.25
981.3665	2545.7279	3123.65	2243.45
981.4933	2547.0441	3107.95	2227.2
981.62	2548.3596	3118.4	2236.85
981.7467	2549.6744	3097.3	2218.45
981.8734	2550.9885	3109.45	2221.9
982.0001	2552.3019	3092.9	2214.6
982.1267	2553.6146	3083.35	2202.05
982.2532	2554.9266	3071.6	2192.55
982.3798	2556.2379	3070.6	2190.7
982.5063	2557.5485	3067.5	2188.9
982.6327	2558.8585	3057.75	2170.7
982.7592	2560.1677	3050	2165.7
982.8856	2561.4762	3048.1	2168.35
983.0119	2562.7841	3040.7	2157.7
983.1383	2564.0913	3033.5	2155.45
983.2646	2565.3977	3034.65	2153.3
983.3908	2566.7035	3018.95	2138.75
983.517	2568.0086	3024.65	2144.75
983.6432	2569.313	3005.05	2125.25
983.7694	2570.6167	3012.7	2130.5
983.8955	2571.9197	3007	2129.05
984.0216	2573.222	3000.95	2115.65
984.1476	2574.5236	2996.5	2116.6
984.2737	2575.8246	2989.05	2104.55
984.3996	2577.1248	2964.75	2081.8
984.5256	2578.4244	2976.75	2095.3
984.6515	2579.7232	2967.85	2088.5
984.7774	2581.0214	2991.35	2087.75
984.9032	2582.3189	2955.3	2075.4
985.029	2583.6157	2969.5	2085.7
985.1548	2584.9118	2942.05	2063.2
985.2806	2586.2072	2943	2063
985.4063	2587.5019	2930.15	2052.5
985.5319	2588.7959	2919.3	2038.8
985.6576	2590.0893	2926.4	2044.1
985.7832	2591.3819	2916.55	2039.65
985.9087	2592.6739	2899.15	2021.1
986.0343	2593.9652	2907.7	2025.3
986.1597	2595.2557	2884.25	2003.35
986.2852	2596.5456	2887.3	2004.6
986.4106	2597.8348	2865.9	1987.8
986.536	2599.1234	2861.8	1982.35
986.6614	2600.4112	2856.9	1977.1
986.7867	2601.6983	2856.95	1975.05
986.912	2602.9848	2842.85	1963.15
987.0372	2604.2705	2834.05	1946
987.1624	2605.5556	2824	1944.6
987.2876	2606.84	2820.45	1939.55
987.4128	2608.1237	2801.85	1921.25
987.5379	2609.4067	2804.95	1923.35
987.6629	2610.689	2799.3	1910.6
987.788	2611.9707	2782.35	1900.3
987.913	2613.2516	2786.95	1903.2
988.0379	2614.5319	2774.9	1896.3
988.1629	2615.8115	2754.85	1875.25
988.2878	2617.0903	2746.05	1862.5
988.4126	2618.3685	2749.3	1869.4
988.5375	2619.6461	2735.05	1855.75
988.6622	2620.9229	2713.45	1835.2
988.787	2622.199	2722.3	1842.25
988.9117	2623.4745	2719.65	1837.9
989.0364	2624.7493	2699.45	1821.95
989.161	2626.0234	2694.15	1815.75
989.2857	2627.2968	2686.6	1806.85
989.4102	2628.5695	2672.9	1791.3
989.5348	2629.8415	2665.9	1786.35
989.6593	2631.1128	2651.3	1768.5
989.7837	2632.3835	2653.9	1773.25
989.9082	2633.6535	2643.2	1764.4
990.0326	2634.9228	2633.4	1754
990.1569	2636.1914	2635.55	1757.35
990.2812	2637.4593	2628.15	1742.75
990.4055	2638.7265	2616.15	1736.1
990.5298	2639.9931	2604.05	1724.85
990.654	2641.259	2609.3	1728.25
990.7782	2642.5242	2609.15	1727.85
990.9023	2643.7887	2587.05	1707.55
991.0264	2645.0525	2588.75	1707.55
991.1505	2646.3156	2582.4	1702.65
991.2745	2647.5781	2573.2	1694.25
991.3985	2648.8398	2581.4	1702.9
991.5225	2650.1009	2577.75	1688.4
991.6464	2651.3613	2548.95	1671.05
991.7703	2652.6211	2543.4	1663.7
991.8942	2653.8801	2533.5	1656.1
992.018	2655.1385	2530.15	1646.45
992.1418	2656.3961	2532.6	1652.4
992.2655	2657.6531	2537.15	1657.4
992.3892	2658.9094	2529.45	1648.1
992.5129	2660.1651	2518.8	1640.4
992.6366	2661.42	2512.05	1630.8
992.7602	2662.6743	2507.55	1626.5
992.8837	2663.9279	2505.7	1625.85
993.0073	2665.1808	2500.35	1621.05
993.1307	2666.433	2492.35	1610.85
993.2542	2667.6846	2478.05	1598.65
993.3776	2668.9354	2484.85	1600.75
993.501	2670.1856	2488.8	1608.95
993.6244	2671.4351	2473.95	1593.95
993.7477	2672.6839	2466.6	1586.55
993.8709	2673.9321	2456.15	1577.4
993.9942	2675.1795	2460.05	1580.25
994.1174	2676.4263	2454.8	1577.6
994.2405	2677.6724	2454.05	1572.7
994.3637	2678.9179	2446.2	1564.35
994.4868	2680.1626	2431.85	1553.65
994.6098	2681.4067	2429.95	1548.9
994.7328	2682.6501	2425.8	1546.9
994.8558	2683.8928	2417.95	1536.8
994.9788	2685.1348	2401.6	1523.4
995.1017	2686.3761	2395.3	1514.9
995.2245	2687.6168	2390.35	1511.6
995.3474	2688.8568	2378.2	1499.35
995.4702	2690.0961	2370.65	1491.75
995.5929	2691.3348	2367.8	1490.35
995.7156	2692.5727	2374.3	1493.8
995.8383	2693.81	2378.75	1498.15
995.961	2695.0466	2367.85	1491.25
996.0836	2696.2826	2365	1483.2
996.2062	2697.5178	2356.55	1474.2
996.3287	2698.7524	2350.5	1468.95
996.4512	2699.9863	2348.6	1464.95
996.5737	2701.2195	2347.95	1469.6
996.6961	2702.452	2332.1	1448.2
996.8185	2703.6839	2334	1454
996.9408	2704.9151	2325.95	1446.45
997.0631	2706.1456	2316.3	1436.05
997.1854	2707.3755	2305.45	1425.1
997.3077	2708.6046	2313.7	1433.1
997.4299	2709.8331	2302.2	1423.35
997.552	2711.0609	2298.75	1422.65
997.6742	2712.2881	2289.15	1409.65
997.7963	2713.5145	2276.05	1394.65
997.9183	2714.7403	2270	1391.65
998.0403	2715.9654	2264.4	1384
998.1623	2717.1899	2275.9	1379.95
998.2842	2718.4136	2263.15	1383.6
998.4062	2719.6367	2252.05	1372.85
998.528	2720.8591	2250.85	1365.05
998.6498	2722.0809	2240.85	1363.35
998.7716	2723.3019	2240.85	1358.5
998.8934	2724.5223	2241.45	1361.3
999.0151	2725.7421	2228.55	1348.45
999.1368	2726.9611	2226.55	1344.65
999.2584	2728.1795	2214.1	1328.7
999.38	2729.3972	2207.75	1330.8
999.5016	2730.6142	2208	1313.65
999.6231	2731.8306	2196.95	1317.2
999.7446	2733.0462	2196.75	1314.3
999.8661	2734.2612	2195.3	1309.1
999.9875	2735.4756	2180.5	1299.4
1000.1089	2736.6892	2167.15	1286.55
1000.2302	2737.9022	2157.85	1281.4
1000.3515	2739.1145	2154.85	1274.65
1000.4728	2740.3262	2157.45	1271.1
1000.594	2741.5372	2141.7	1262.1
1000.7152	2742.7475	2139	1258.8
1000.8363	2743.9571	2138	1258.15
1000.9575	2745.1661	2124.9	1240.15
1001.0785	2746.3744	2112.1	1231.8
1001.1996	2747.582	2113.5	1234.7
1001.3206	2748.7889	2112.05	1231.9
1001.4415	2749.9952	2100.15	1221
1001.5625	2751.2008	2112.7	1231.85
1001.6833	2752.4057	2099.4	1218.35
1001.8042	2753.61	2099.75	1219
1001.925	2754.8136	2093.2	1210.5
1002.0458	2756.0165	2076.75	1195.4
1002.1665	2757.2188	2082.4	1204.4
1002.2872	2758.4204	2082.6	1202.3
1002.4078	2759.6213	2059.2	1176.8
1002.5285	2760.8215	2076.8	1192.5
1002.649	2762.0211	2059.5	1178.6
1002.7696	2763.22	2061.15	1177.8
1002.8901	2764.4182	2038.35	1156.5
1003.0106	2765.6158	2045.15	1167.8
1003.131	2766.8127	2040	1160.7
1003.2514	2768.009	2033.65	1153.25
1003.3717	2769.2045	2036.75	1156.1
1003.492	2770.3994	2027.3	1145.1
1003.6123	2771.5936	2024.3	1143.15
1003.7325	2772.7872	2018.35	1138.7
1003.8527	2773.9801	1999.15	1117.35
1003.9729	2775.1723	2017.05	1122.1
1004.093	2776.3639	2002.3	1122.7
1004.2131	2777.5548	1993	1110.85
1004.3331	2778.745	2003.05	1123.3
1004.4531	2779.9346	1991.45	1110.3
1004.5731	2781.1235	1981.45	1100.25
1004.693	2782.3117	1968.75	1089.35
1004.8129	2783.4992	1961.7	1081.8
1004.9328	2784.6861	1978.35	1098.85
1005.0526	2785.8723	1975.1	1092.7
1005.1723	2787.0579	1974.5	1093.95
1005.2921	2788.2428	1955.4	1073.15
1005.4118	2789.427	1949.8	1071.2
1005.5314	2790.6106	1946.8	1068.9
1005.651	2791.7935	1947.25	1065.2
1005.7706	2792.9757	1935.45	1057.1
1005.8902	2794.1573	1930.45	1049.15
1006.0097	2795.3382	1919.95	1039.8
1006.1291	2796.5184	1920.15	1042.1
1006.2485	2797.698	1921.4	1040.3
1006.3679	2798.8769	1919	1037.95
1006.4873	2800.0551	1910.1	1030.55
1006.6066	2801.2327	1916.5	1035.15
1006.7258	2802.4096	1896.7	1018.7
1006.8451	2803.5859	1895.25	1015
1006.9642	2804.7615	1893.7	1012.8
1007.0834	2805.9364	1884.85	1005.85
1007.2025	2807.1106	1887.25	1008.75
1007.3216	2808.2842	1885.95	1006.1
1007.4406	2809.4572	1885.25	1003.3
1007.5596	2810.6294	1881.4	999.95
1007.6785	2811.801	1874.95	996.5
1007.7975	2812.972	1878.9	1000.4
1007.9163	2814.1423	1873.85	994.75
1008.0352	2815.3119	1882.3	1001.55
1008.154	2816.4808	1877.45	998.95
1008.2727	2817.6491	1870.55	990.75
1008.3914	2818.8167	1879	1000.95
1008.5101	2819.9837	1885	999.7
1008.6288	2821.15	1878.55	997.6
1008.7474	2822.3157	1881.5	1003.55
1008.8659	2823.4807	1897.95	1016.75
1008.9844	2824.645	1914.65	1033.95
1009.1029	2825.8086	1917.75	1039.7
1009.2214	2826.9716	1924.4	1046.3
1009.3398	2828.134	1935.15	1056.35
1009.4581	2829.2957	1933.8	1054.45
1009.5764	2830.4567	1941.65	1061
1009.6947	2831.617	1951.7	1071.55
1009.813	2832.7767	1943.05	1062.9
1009.9312	2833.9358	1943.6	1065.7
1010.0493	2835.0941	1932.8	1052.9
1010.1675	2836.2519	1938.6	1059.15
1010.2855	2837.4089	1923.1	1041.8
1010.4036	2838.5653	1910.25	1032.55
1010.5216	2839.7211	1913.1	1035
1010.6396	2840.8761	1908.7	1028.05
1010.7575	2842.0306	1900.25	1021.85
1010.8754	2843.1843	1899.15	1020.25
1010.9932	2844.3374	1893.65	1014.25
1011.111	2845.4899	1886.25	1003.2
1011.2288	2846.6417	1900	1020.45
1011.3465	2847.7928	1899.1	1019.6
1011.4642	2848.9433	1894.5	1017.05
1011.5818	2850.0931	1887.45	1009.25
1011.6995	2851.2422	1891.8	1013
1011.817	2852.3907	1899.75	1019.65
1011.9345	2853.5385	1890.55	1010.05
1012.052	2854.6857	1902.25	1012.8
1012.1695	2855.8323	1892.75	1014.05
1012.2869	2856.9781	1888	1007.5
1012.4042	2858.1233	1897.45	1017.1
1012.5216	2859.2679	1888.3	1007.85
1012.6389	2860.4118	1892.7	1014.2
1012.7561	2861.555	1908	1026.3
1012.8733	2862.6976	1895.5	1015.25
1012.9905	2863.8395	1894.9	1015.6
1013.1076	2864.9808	1899.6	1020.75
1013.2247	2866.1214	1893.8	1015.15
1013.3417	2867.2614	1887.95	1009.25
1013.4587	2868.4007	1889.4	1009.9
1013.5757	2869.5393	1892.05	1010.25
1013.6926	2870.6773	1895.35	1012.35
1013.8095	2871.8146	1884.65	1000.1
1013.9263	2872.9513	1892.35	1010
1014.0431	2874.0874	1889.35	1009.85
1014.1599	2875.2227	1892.5	1013.45
1014.2766	2876.3574	1887.7	1007.4
1014.3933	2877.4915	1883.9	1005.15
1014.51	2878.6249	1874.3	995.85
1014.6266	2879.7577	1879.15	1000.8
1014.7431	2880.8898	1895.55	1005.05
1014.8596	2882.0212	1884.05	1006.2
1014.9761	2883.152	1884.2	1005.1
1015.0925	2884.2821	1877.4	999.8
1015.2089	2885.4116	1884.1	1005.6
1015.3253	2886.5405	1881.15	1005
1015.4416	2887.6686	1880.3	997.45
1015.5579	2888.7962	1875.65	998.55
1015.6741	2889.923	1865.95	987
1015.7903	2891.0493	1862.65	984.6
1015.9065	2892.1748	1865.05	985.15
1016.0226	2893.2997	1858.8	977.25
1016.1387	2894.424	1850.25	971.35
1016.2547	2895.5476	1857.25	978.85
1016.3707	2896.6706	1848.3	971
1016.4866	2897.7929	1853	973.35
1016.6025	2898.9145	1854.75	976.3
1016.7184	2900.0355	1841.65	961.75
1016.8342	2901.1559	1842.05	962
1016.95	2902.2756	1829.4	948.9
1017.0658	2903.3946	1835.65	957.45
1017.1815	2904.513	1828.7	947.6
1017.2971	2905.6308	1821.3	942.05
1017.4127	2906.7479	1819.8	941.25
1017.5283	2907.8643	1820.9	940.8
1017.6439	2908.9801	1814.8	934.3
1017.7594	2910.0953	1812.55	930.85
1017.8748	2911.2098	1799.15	915
1017.9902	2912.3236	1805.6	918
1018.1056	2913.4368	1799.85	919
1018.2209	2914.5494	1791.15	913.9
1018.3362	2915.6613	1786.95	904.45
1018.4515	2916.7725	1782.85	899.4
1018.5667	2917.8831	1774.25	896.9
1018.6819	2918.9931	1766.35	883.5
1018.797	2920.1024	1768.95	890.25
1018.9121	2921.211	1755.65	874.75
1019.0271	2922.319	1758.4	878.7
1019.1421	2923.4264	1751.15	871.65
1019.2571	2924.5331	1748.5	869.4
1019.372	2925.6391	1740.65	859.35
1019.4869	2926.7445	1734.75	856.05
1019.6017	2927.8493	1736.3	856.85
1019.7165	2928.9534	1734.45	855.3
1019.8313	2930.0569	1735.9	854
1019.946	2931.1597	1736.85	855.5
1020.0606	2932.2619	1739.85	862.55
1020.1753	2933.3634	1732.2	853.3
1020.2899	2934.4643	1742.25	855
1020.4044	2935.5645	1743.55	857.8
1020.5189	2936.6641	1735.15	848.95
1020.6334	2937.763	1734.35	856.05
1020.7478	2938.8613	1722.15	842.7
1020.8622	2939.959	1728.4	843.05
1020.9765	2941.056	1712.4	835.65
1021.0908	2942.1523	1699.15	818.7
1021.2051	2943.248	1688.6	808.7
1021.3193	2944.3431	1671.3	792
1021.4334	2945.4375	1655.1	775.55
1021.5476	2946.5313	1646.65	767.25
1021.6617	2947.6244	1629.65	749.55
1021.7757	2948.7169	1622.7	743.1
1021.8897	2949.8087	1612.5	733.15
1022.0037	2950.8999	1596.3	717.4
1022.1176	2951.9904	1581.95	701.95
1022.2315	2953.0803	1572.4	689.55
1022.3453	2954.1696	1560.6	682.8
1022.4591	2955.2582	1552.3	673.2
1022.5728	2956.3462	1547.8	669.35
1022.6865	2957.4335	1546.8	666.9
1022.8002	2958.5202	1539.8	657.2
1022.9138	2959.6062	1535.4	657.75
1023.0274	2960.6916	1531.65	652.35
1023.141	2961.7764	1531.55	652.55
1023.2545	2962.8605	1525.85	643.4
1023.3679	2963.9439	1525.45	646.7
1023.4813	2965.0267	1523.6	643
1023.5947	2966.1089	1545.65	642.05
1023.708	2967.1905	1524.45	644.75
1023.8213	2968.2714	1505.55	627
1023.9346	2969.3516	1508.6	630.45
1024.0478	2970.4312	1510.35	624.5
1024.1609	2971.5102	1506.2	625.35
1024.274	2972.5885	1509.45	631.85
1024.3871	2973.6662	1506.6	622.7
1024.5002	2974.7432	1506.5	627
1024.6132	2975.8196	1495.4	616.45
1024.7261	2976.8954	1501.6	624.6
1024.839	2977.9705	1488.9	608.9
1024.9519	2979.045	1488.2	610.35
1025.0647	2980.1188	1483.65	604.55
1025.1775	2981.192	1474.15	594.55
1025.2902	2982.2645	1470.1	589.45
1025.4029	2983.3364	1476.35	595.5
1025.5156	2984.4077	1462.3	583.2
1025.6282	2985.4783	1465.5	580.75
1025.7407	2986.5483	1458.5	580.5
1025.8532	2987.6177	1451.65	573.45
1025.9657	2988.6864	1445.95	566.1
1026.0782	2989.7545	1450.55	570.45
1026.1906	2990.8219	1445.2	566.15
1026.3029	2991.8887	1430.2	548.55
1026.4152	2992.9548	1430.7	552.65
1026.5275	2994.0204	1414.6	535.1
1026.6397	2995.0852	1411.05	533.45
1026.7519	2996.1495	1414.65	533.9
1026.864	2997.2131	1402.65	523
1026.9761	2998.276	1394.15	517
1027.0882	2999.3383	1390.9	511.7
1027.2002	3000.4	1383.1	504.25
1027.3122	3001.4611	1382.55	502.95
1027.4241	3002.5215	1378.15	498.35
1027.536	3003.5812	1376.1	498.1
1027.6478	3004.6404	1372.8	494
1027.7596	3005.6989	1370.55	488.05
1027.8714	3006.7567	1365.7	485.75
1027.9831	3007.8139	1393.85	492.55
1028.0947	3008.8705	1360.75	481.15
1028.2064	3009.9264	1354.55	470.25
1028.3179	3010.9818	1352.55	473.85
1028.4295	3012.0364	1356.1	474.7
1028.541	3013.0905	1348.05	468.45
1028.6524	3014.1439	1352.35	472.9
1028.7638	3015.1966	1339.95	461.5
1028.8752	3016.2487	1341.7	462.25
1028.9865	3017.3002	1344.8	458.55
1029.0978	3018.3511	1335.2	457.7
1029.209	3019.4013	1334.55	455.3
1029.3202	3020.4509	1330.1	452.55
1029.4314	3021.4998	1333.65	454
1029.5425	3022.5481	1324.65	442.45
1029.6535	3023.5958	1327.85	447.9
1029.7645	3024.6428	1330.55	449.4
1029.8755	3025.6892	1323.9	445.4
1029.9864	3026.735	1317.9	436.95
1030.0973	3027.7802	1316.3	436.5
1030.2082	3028.8247	1316.25	437.7
1030.319	3029.8685	1307.35	429.1
1030.4297	3030.9118	1312.95	434
1030.5404	3031.9544	1318	439.25
1030.6511	3032.9963	1307.9	426.95
1030.7617	3034.0376	1303.8	422.25
1030.8723	3035.0783	1306.75	426.8
1030.9829	3036.1184	1301.8	421.2
1031.0934	3037.1578	1297.1	418.7
1031.2038	3038.1966	1302.8	421.95
1031.3142	3039.2348	1294.2	415.2
1031.4246	3040.2723	1305.35	417.15
1031.5349	3041.3092	1299.85	422.8
1031.6452	3042.3455	1297	419.9
1031.7554	3043.3811	1291.35	411.25
1031.8656	3044.4161	1288.55	408
1031.9758	3045.4505	1284.85	406.35
1032.0859	3046.4842	1284.05	402.1
1032.1959	3047.5173	1285.7	406.5
1032.3059	3048.5498	1285.35	405.7
1032.4159	3049.5816	1281.95	402.95
1032.5258	3050.6128	1281.75	401.2
1032.6357	3051.6434	1280.15	401.15
1032.7455	3052.6734	1274.05	394.25
1032.8553	3053.7027	1275.15	395.95
1032.9651	3054.7314	1275.75	398.5
1033.0748	3055.7594	1270.6	393.4
1033.1845	3056.7868	1267.65	387.3
1033.2941	3057.8136	1273	396.1
1033.4037	3058.8398	1261.85	382.7
1033.5132	3059.8653	1268.35	387.75
1033.6227	3060.8902	1269.25	391.85
1033.7321	3061.9145	1263	384.25
1033.8415	3062.9381	1268.75	389.65
1033.9509	3063.9612	1281.05	386.6
1034.0602	3064.9835	1262.75	383.2
1034.1694	3066.0053	1263.2	380.85
1034.2787	3067.0264	1258.65	381.3
1034.3878	3068.0469	1264.05	383.9
1034.497	3069.0668	1257.2	374.6
1034.6061	3070.086	1258.1	379.25
1034.7151	3071.1046	1257.95	379.75
1034.8241	3072.1226	1257.15	377.4
1034.9331	3073.1399	1246.05	366.9
1035.042	3074.1567	1243.65	366.1
1035.1508	3075.1727	1246.35	364.9
1035.2597	3076.1882	1243.1	366.1
1035.3684	3077.203	1245.45	366.2
1035.4772	3078.2173	1236.95	356.4
1035.5859	3079.2308	1242.15	359.95
1035.6945	3080.2438	1239.3	358.3
1035.8031	3081.2561	1228.3	350.15
1035.9117	3082.2678	1229.55	349.1
1036.0202	3083.2789	1221.45	342.35
1036.1286	3084.2893	1222.9	345.7
1036.2371	3085.2991	1224.15	345.4
1036.3454	3086.3083	1223.75	340.55
1036.4538	3087.3169	1218.7	338.7
1036.562	3088.3248	1214.95	333.9
1036.6703	3089.3321	1214.4	333.35
1036.7785	3090.3388	1207.4	329.65
1036.8866	3091.3449	1211.6	334.1
1036.9948	3092.3503	1213.6	331.95
1037.1028	3093.3551	1204.35	324.7
1037.2108	3094.3593	1210.4	333.8
1037.3188	3095.3629	1206.45	328.95
1037.4267	3096.3658	1204.95	325
1037.5346	3097.3681	1209.85	332.85
1037.6425	3098.3698	1199.5	315.9
1037.7503	3099.3708	1208.85	325.25
1037.858	3100.3713	1196.3	317.5
1037.9657	3101.3711	1195.95	314.5
1038.0734	3102.3702	1322.75	304.5
1038.181	3103.3688	1189	308.2
1038.2886	3104.3667	1188.3	311.2
1038.3961	3105.364	1190.45	311.65
1038.5036	3106.3607	1188.85	307.3
1038.611	3107.3568	1183.4	303.4
1038.7184	3108.3522	1181.2	304.95
1038.8257	3109.347	1182.35	303.75
1038.933	3110.3412	1180.5	296.45
1039.0403	3111.3348	1173.55	294.05
1039.1475	3112.3277	1175	297.3
1039.2547	3113.32	1172.45	293.7
1039.3618	3114.3117	1175.1	295.45
1039.4689	3115.3028	1169.7	292.05
1039.5759	3116.2932	1168.8	288.8
1039.6829	3117.2831	1169.5	285.6
1039.7898	3118.2723	1166.85	288.55
1039.8967	3119.2608	1159	278.65
1040.0035	3120.2488	1160.15	280.85
1040.1103	3121.2361	1161.3	280.8
1040.2171	3122.2229	1155.8	276.55
1040.3238	3123.209	1154.1	275.9
1040.4305	3124.1944	1153.85	274.55
1040.5371	3125.1793	1154.05	273.45
1040.6437	3126.1635	1154.25	273.75
1040.7502	3127.1471	1154	277.45
1040.8567	3128.1301	1147.1	266.8
1040.9631	3129.1125	1151.8	273.9
1041.0695	3130.0942	1144	265.9
1041.1759	3131.0753	1151.35	261.4
1041.2822	3132.0558	1146.95	265.4
1041.3884	3133.0357	1142.1	261.5
1041.4946	3134.015	1144.85	262.6
1041.6008	3134.9936	1142.15	260.9
1041.7069	3135.9716	1163.5	262.85
1041.813	3136.949	1136.2	258.35
1041.919	3137.9258	1138.8	253.6
1042.025	3138.902	1137.75	253.6
1042.1309	3139.8775	1135.45	257.4
1042.2368	3140.8524	1133.15	253.05
1042.3427	3141.8267	1135.4	256
1042.4485	3142.8004	1132.65	253.25
1042.5542	3143.7735	1135.95	251.25
1042.6599	3144.7459	1130.25	250.05
1042.7656	3145.7178	1126.7	246.05
1042.8712	3146.689	1127	250.05
1042.9768	3147.6596	1124.9	242.7
1043.0823	3148.6295	1122.3	243.2
1043.1878	3149.5989	1123.55	244.2
1043.2932	3150.5676	1114.9	234.95
1043.3986	3151.5357	1118.75	242.2
1043.5039	3152.5032	1116.95	238.85
1043.6092	3153.4701	1115.25	238.1
1043.7145	3154.4364	1118.1	236.65
1043.8197	3155.402	1115.1	238.3
1043.9248	3156.367	1117.65	237.25
1044.03	3157.3315	1153.2	236.85
1044.135	3158.2952	1106.6	227.5
1044.24	3159.2584	1107.05	228.4
1044.345	3160.221	1107.65	228.95
1044.4499	3161.1829	1103.85	225.05
1044.5548	3162.1442	1106.95	227.5
1044.6596	3163.105	1101.9	223.05
1044.7644	3164.065	1102.4	224.55
1044.8692	3165.0245	1101	219.6
1044.9739	3165.9834	1096.65	218.85
1045.0785	3166.9416	1099.8	220.7
1045.1831	3167.8993	1099.25	217.8
1045.2877	3168.8563	1096.2	217.15
1045.3922	3169.8127	1096.55	217.15
1045.4966	3170.7684	1097.6	217.95
1045.6011	3171.7236	1094.45	212.6
1045.7054	3172.6782	1086.7	209.35
1045.8098	3173.6321	1089.1	208.95
1045.914	3174.5854	1095.75	212.8
1046.0183	3175.5381	1090.65	211.35
1046.1224	3176.4902	1084.7	204.6
1046.2266	3177.4417	1085.05	207.05
1046.3307	3178.3926	1086.05	208.35
1046.4347	3179.3428	1078	199.25
1046.5387	3180.2924	1084	207.25
1046.6427	3181.2415	1083.65	204.8
1046.7466	3182.1899	1086.4	205.6
1046.8504	3183.1377	1080.25	199.85
1046.9542	3184.0848	1080.05	198.1
1047.058	3185.0314	1076.3	196.3
1047.1617	3185.9773	1076.3	196.55
1047.2654	3186.9227	1076.05	195.15
1047.369	3187.8674	1072.05	193.5
1047.4726	3188.8115	1079	195.8
1047.5761	3189.755	1074.4	197.8
1047.6796	3190.6979	1071.2	192.75
1047.783	3191.6402	1065.65	187.35
1047.8864	3192.5818	1070	192.2
1047.9898	3193.5229	1074.7	187.4
1048.0931	3194.4633	1069.7	190.2
1048.1963	3195.4031	1068.55	188.55
1048.2995	3196.3423	1064.95	185.7
1048.4027	3197.2809	1063.9	183.15
1048.5058	3198.2189	1062.8	185.25
1048.6089	3199.1563	1069.95	184.6
1048.7119	3200.0931	1061.55	184.55
1048.8148	3201.0292	1058.2	178.65
1048.9178	3201.9648	1057.85	179.2
1049.0206	3202.8997	1061.95	179.4
1049.1235	3203.834	1061.3	181
1049.2262	3204.7677	1054.25	176.25
1049.329	3205.7008	1056.8	175.1
1049.4317	3206.6333	1055.5	176.25
1049.5343	3207.5652	1052	173.3
1049.6369	3208.4964	1052.95	172.65
1049.7394	3209.4271	1051.3	173.9
1049.8419	3210.3571	1051.7	174.7
1049.9444	3211.2865	1051.95	172.35
1050.0468	3212.2154	1050.55	170.95
1050.1491	3213.1436	1055.45	173
1050.2514	3214.0712	1052.3	168
1050.3537	3214.9982	1051.55	172.15
1050.4559	3215.9246	1048.55	166.7
1050.5581	3216.8503	1044.3	166.55
1050.6602	3217.7755	1045	166
1050.7623	3218.7001	1043.95	165.55
1050.8643	3219.624	1046.85	169.2
1050.9663	3220.5473	1043.75	163.95
1051.0682	3221.4701	1043.55	164.3
1051.1701	3222.3922	1041.95	159.4
1051.2719	3223.3137	1039.55	160.9
1051.3737	3224.2346	1040.45	161.45
1051.4754	3225.1549	1036.3	155.8
1051.5771	3226.0746	1037.15	157.85
1051.6788	3226.9937	1034.55	155.7
1051.7804	3227.9121	1040.65	161.2
1051.8819	3228.83	1032.35	154.45
1051.9834	3229.7473	1033.85	154.2
1052.0849	3230.6639	1031.8	151.7
1052.1863	3231.5799	1032.25	153.95
1052.2876	3232.4954	1029.25	151.45
1052.3889	3233.4102	1031	153.1
1052.4902	3234.3244	1032.65	153.7
1052.5914	3235.238	1025.2	145.5
1052.6926	3236.151	1051.2	148.75
1052.7937	3237.0634	1026.3	147.5
1052.8948	3237.9752	1021.35	141.4
1052.9958	3238.8864	1027.25	148.35
1053.0968	3239.797	1023.5	144.4
1053.1977	3240.7069	1024.55	143.5
1053.2986	3241.6163	1023.85	142.55
1053.3994	3242.5251	1017.3	139.75
1053.5002	3243.4332	1021.55	141.6
1053.6009	3244.3408	1022.1	142.85
1053.7016	3245.2477	1017.95	139
1053.8022	3246.154	1019.1	137
1053.9028	3247.0598	1018.05	139.2
1054.0034	3247.9649	1018.4	138.4
1054.1039	3248.8694	1013.6	134.35
1054.2043	3249.7733	1013.45	132.7
1054.3047	3250.6766	1014	136.9
1054.4051	3251.5793	1013.1	131.8
1054.5054	3252.4814	1011.15	133.5
1054.6056	3253.3829	1011.9	134.3
1054.7058	3254.2838	1010.4	131.4
1054.806	3255.1841	1009.4	130.35
1054.9061	3256.0838	1009.05	130.1
1055.0061	3256.9829	1003.4	122.95
1055.1062	3257.8814	1009.4	128.45
1055.2061	3258.7792	1002.95	120.9
1055.306	3259.6765	1005.55	125.85
1055.4059	3260.5731	1000.8	124.8
1055.5057	3261.4692	1001.2	122.55
1055.6055	3262.3647	1001.15	121.85
1055.7052	3263.2595	996.9	118.25
1055.8049	3264.1538	997.15	118.95
1055.9045	3265.0474	996.4	117.25
1056.0041	3265.9404	992.15	114.05
1056.1036	3266.8329	989.6	112.45
1056.2031	3267.7247	999.65	111.05
1056.3025	3268.616	986.45	109.2
1056.4019	3269.5066	983.95	103.85
1056.5013	3270.3966	980.15	97.05
1056.6005	3271.286	975.55	97.25
