Software Version:	3.9.2.0
Unit SN:	10000200
Spectrometer SN:	6960
Date:	3/6/2024 9:40:43 AM
Data Line Index:	25
Spectral Points:	2048
Integration time (ms):	125
Averages:	20
Delay (ms):	30
Sequence Number:	1
Processing:	dark subtract
Laser Power (mW):	300
Laser Current (mA):	825
Laser Diode Temp (C):	25
Laser Case Temp (C):	24
System Temp (C):	23.8
Spectrometer Temp (C):	21.4
CCD Temp (C):	-0.024
Secondary Temp (C):	20.008
Heatsink Temp (C):	17.209
CCDPCB Temp (C):	30.327
SecondaryPCB Temp (C):	25.324

Wavelength	RamanShift	Raw Counts	Dark Subtracted
787.061	30.1047	471.75	64.05
787.2016	32.3739	473.6	66.65
787.3422	34.6426	480	73.75
787.4828	36.9109	485.2	76.4
787.6235	39.1787	495.95	84.6
787.7642	41.4461	500.35	85.25
787.9049	43.7131	513.85	94.2
788.0456	45.9796	518.25	95.35
788.1863	48.2456	531.9	106.05
788.3271	50.5112	539.65	108.4
788.4679	52.7764	548.55	115.05
788.6087	55.0411	560.35	122.65
788.7496	57.3054	574.85	132.2
788.8904	59.5692	579.2	135.05
789.0313	61.8326	592.45	147.75
789.1722	64.0955	602.85	155.2
789.3132	66.3579	621.9	168.95
789.4541	68.6199	646.2	189.45
789.5951	70.8815	679	217.25
789.7361	73.1426	752.95	287.15
789.8771	75.4032	927.8	457.55
790.0181	77.6634	1370.45	898.15
790.1592	79.9231	2411.5	1937.5
790.3003	82.1824	4675.75	4196.15
790.4414	84.4412	8644	8153.85
790.5825	86.6995	13972	13474.55
790.7237	88.9574	19240.4	18735.95
790.8648	91.2148	23035.25	22524.35
791.006	93.4717	25118.2	24604.65
791.1472	95.7282	26023.15	25504.45
791.2885	97.9842	26468.05	25949.95
791.4297	100.2398	26646.9	26127.45
791.571	102.4949	26724.2	26199.5
791.7123	104.7495	26751.6	26223.65
791.8536	107.0036	26774.25	26245.75
791.9949	109.2573	26755.45	26228.05
792.1363	111.5105	26792.25	26263.2
792.2777	113.7632	26806.05	26272.9
792.4191	116.0154	26802.1	26258.1
792.5605	118.2672	26912.95	26375.4
792.7019	120.5185	26913.65	26375.75
792.8434	122.7693	26971.3	26429.65
792.9849	125.0197	27048.6	26498.35
793.1264	127.2696	27060.55	26511.5
793.2679	129.519	27172.8	26618.3
793.4094	131.7679	27208.35	26650.75
793.551	134.0163	27306.45	26748.55
793.6926	136.2642	27332.75	26769.95
793.8342	138.5117	27372.9	26810.2
793.9758	140.7587	27407.15	26843.15
794.1175	143.0052	27447.8	26878.6
794.2591	145.2512	27461.9	26893.05
794.4008	147.4967	27412.6	26842
794.5425	149.7417	27401.7	26827.5
794.6842	151.9863	27383.05	26807.05
794.826	154.2304	27476	26897
794.9677	156.4739	27380.55	26790.9
795.1095	158.717	27461.1	26875.7
795.2513	160.9596	27524	26930.1
795.3931	163.2017	27517.15	26921.65
795.535	165.4433	27539.5	26941
795.6768	167.6844	27600.55	27001.8
795.8187	169.925	27598.25	26996.45
795.9606	172.1651	27525.75	26919.25
796.1025	174.4047	27548.3	26936.4
796.2445	176.6439	27533.5	26923.15
796.3864	178.8825	27582.35	26970.45
796.5284	181.1206	27654	27036.1
796.6704	183.3582	27680.75	27060.7
796.8124	185.5954	27725	27101.6
796.9544	187.832	27706.65	27078.95
797.0965	190.0681	27822.85	27191.75
797.2386	192.3037	27882.7	27251
797.3806	194.5388	27898.95	27261.55
797.5228	196.7734	27964.25	27326.35
797.6649	199.0075	28078.1	27440.8
797.807	201.2411	28267.4	27628.15
797.9492	203.4742	28274	27631.4
798.0914	205.7068	28407.15	27757.95
798.2336	207.9389	28432	27785.95
798.3758	210.1704	28521.75	27884.75
798.518	212.4015	28490.45	27863.25
798.6603	214.632	28537.85	27913.9
798.8025	216.862	28576.7	27952.75
798.9448	219.0915	28565.65	27941.65
799.0871	221.3205	28675.45	28049.35
799.2294	223.549	28791.45	28167.85
799.3718	225.777	28836.3	28210.25
799.5141	228.0044	28907.35	28271.45
799.6565	230.2314	28933.2	28299.2
799.7989	232.4578	28951.85	28313.3
799.9413	234.6837	28978.6	28329.3
800.0837	236.909	29042.2	28392.5
800.2262	239.1339	29026.55	28353.95
800.3687	241.3582	29115.6	28459.15
800.5111	243.582	29121.3	28432.05
800.6536	245.8053	29172.05	28494.4
800.7961	248.0281	29160.95	28488.6
800.9387	250.2503	29192.4	28512.75
801.0812	252.472	29202.2	28523.85
801.2238	254.6932	29313.2	28635.15
801.3664	256.9139	29278.45	28600.5
801.509	259.134	29280.15	28598.2
801.6516	261.3536	29358.45	28679.7
801.7942	263.5727	29428.4	28747.35
801.9369	265.7912	29424.85	28743.05
802.0795	268.0092	29529.3	28848.95
802.2222	270.2267	29515.75	28832.2
802.3649	272.4436	29600.3	28914.55
802.5076	274.6601	29654.5	28959.4
802.6504	276.8759	29628.2	28937.2
802.7931	279.0913	29646.95	28954.9
802.9359	281.3061	29687.95	28995.6
803.0787	283.5204	29758.35	29063.55
803.2215	285.7341	29815.6	29119.55
803.3643	287.9473	29846.45	29135.65
803.5071	290.16	29899.2	29194.85
803.6499	292.3721	29864.2	29167.55
803.7928	294.5837	29860.1	29161.15
803.9357	296.7947	29785.75	29087.95
804.0786	299.0052	29802.4	29104.45
804.2215	301.2152	29714.5	29011.55
804.3644	303.4246	29808.8	29108.65
804.5074	305.6334	29756.25	29055.35
804.6503	307.8418	29776.2	29069.8
804.7933	310.0495	29760.95	29053.65
804.9363	312.2568	29676.5	28972.3
805.0793	314.4635	29611.3	28905.85
805.2223	316.6696	29551.15	28838.9
805.3653	318.8752	29440.05	28720.85
805.5084	321.0802	29436	28724.15
805.6514	323.2847	29448.8	28733
805.7945	325.4887	29410.75	28696.4
805.9376	327.692	29403.35	28685.65
806.0807	329.8949	29521.7	28803.6
806.2238	332.0972	29507.2	28788.8
806.367	334.2989	29575.25	28851.8
806.5101	336.5001	29511.75	28787.25
806.6533	338.7007	29524.7	28802.05
806.7965	340.9008	29593.8	28869.1
806.9397	343.1003	29514.8	28788.35
807.0829	345.2992	29509.15	28780.85
807.2261	347.4976	29470	28741.15
807.3693	349.6955	29409.9	28674.4
807.5126	351.8927	29468.55	28736.35
807.6559	354.0895	29395.3	28650.7
807.7991	356.2856	29487.4	28750.35
807.9424	358.4812	29393.55	28655.35
808.0857	360.6763	29454.25	28715.35
808.2291	362.8707	29351.05	28607.85
808.3724	365.0646	29425.7	28681.1
808.5158	367.258	29374.55	28625.35
808.6591	369.4508	29335.95	28588.25
808.8025	371.643	29400.7	28652.4
808.9459	373.8346	29286.45	28535.75
809.0893	376.0257	29301.85	28548.25
809.2327	378.2162	29262.45	28508.8
809.3762	380.4062	29312.4	28561.2
809.5196	382.5956	29263.65	28513.3
809.6631	384.7844	29248.25	28504.7
809.8066	386.9726	29108.75	28365.8
809.9501	389.1603	29069.4	28327
810.0936	391.3474	29103.45	28310.55
810.2371	393.5339	29059.75	28310.75
810.3806	395.7199	28965.8	28222.05
810.5241	397.9052	28991.4	28246.15
810.6677	400.09	28931.7	28182.9
810.8113	402.2743	29002.75	28253.05
810.9548	404.4579	28986.8	28237.95
811.0984	406.641	29075.85	28320.75
811.2421	408.8235	29116.65	28362.05
811.3857	411.0054	29125.8	28368.15
811.5293	413.1868	29285.75	28526.55
811.673	415.3675	29234.8	28470.95
811.8166	417.5477	29248.4	28485.35
811.9603	419.7273	29154.45	28385.85
812.104	421.9064	29040.05	28266.7
812.2477	424.0848	28967.95	28201.15
812.3914	426.2627	28868.05	28099.15
812.5351	428.4399	28809.1	28040.1
812.6788	430.6166	28713.5	27937.85
812.8226	432.7928	28576.75	27802.05
812.9663	434.9683	28464.55	27691.25
813.1101	437.1432	28461	27687.2
813.2539	439.3176	28340.95	27566.4
813.3977	441.4914	28262.8	27489.45
813.5415	443.6645	28258.95	27482.2
813.6853	445.8371	28131.5	27353
813.8291	448.0091	28011.75	27234.2
813.973	450.1806	27987.65	27209.2
814.1168	452.3514	27869.7	27091.95
814.2607	454.5216	27894.5	27105.8
814.4046	456.6913	27760.85	26980.25
814.5485	458.8603	27781.2	27000.65
814.6924	461.0288	27804.55	27023.45
814.8363	463.1967	27752.8	26975.3
814.9802	465.3639	27760.15	26979
815.1241	467.5306	27687	26904.65
815.2681	469.6967	27693.95	26911.85
815.412	471.8622	27576.2	26792.85
815.556	474.0271	27570.45	26787.1
815.7	476.1914	27567.4	26779.65
815.844	478.3551	27526.85	26742.1
815.988	480.5182	27579.8	26794.7
816.132	482.6807	27585.9	26801.55
816.276	484.8426	27611.65	26825.2
816.4201	487.0039	27625.75	26840.7
816.5641	489.1647	27688.15	26900.75
816.7082	491.3248	27702.9	26916.4
816.8522	493.4843	27696.9	26909.95
816.9963	495.6432	27670.25	26880.65
817.1404	497.8015	27598.2	26805.1
817.2845	499.9592	27618.95	26826.55
817.4286	502.1163	27522.75	26730.55
817.5727	504.2728	27412.5	26619.05
817.7168	506.4287	27449.25	26657.3
817.861	508.5839	27369.7	26576.15
818.0051	510.7386	27341.95	26549.6
818.1493	512.8927	27366.6	26568.1
818.2935	515.0461	27404.15	26609.85
818.4377	517.199	27358.35	26562.85
818.5818	519.3512	27322.9	26526.45
818.726	521.5029	27385	26581.05
818.8703	523.6539	27367.95	26566.2
819.0145	525.8043	27406	26604.7
819.1587	527.9541	27335.8	26533.5
819.303	530.1033	27259.3	26457.6
819.4472	532.2519	27171.25	26370.4
819.5915	534.3999	27119.65	26316.9
819.7357	536.5472	27137.4	26333.1
819.88	538.694	27102.7	26297.3
820.0243	540.8401	27151.7	26348.4
820.1686	542.9856	27124	26319.9
820.3129	545.1305	27069.95	26259.8
820.4572	547.2748	27146.05	26339.85
820.6016	549.4185	27118.7	26308.85
820.7459	551.5615	26999	26191.8
820.8902	553.704	27037.85	26228.65
821.0346	555.8458	26987.1	26180.95
821.1789	557.987	27004.85	26200.25
821.3233	560.1276	27021.2	26212.45
821.4677	562.2675	27085.75	26280.95
821.6121	564.4069	27043.95	26237.05
821.7565	566.5456	27015.7	26208.85
821.9009	568.6837	27008.5	26202.15
822.0453	570.8212	26889.9	26081.85
822.1897	572.958	26763.9	25955.45
822.3342	575.0942	26660.3	25852.7
822.4786	577.2299	26623.85	25813.45
822.6231	579.3648	26514.05	25704.6
822.7675	581.4992	26403	25594.1
822.912	583.6329	26303.95	25494.85
823.0565	585.766	26298.4	25488.35
823.201	587.8985	26272.55	25461.7
823.3454	590.0304	26223.25	25399.25
823.4899	592.1616	26186.65	25370.05
823.6345	594.2922	26164.55	25349.45
823.779	596.4222	26058.45	25242.25
823.9235	598.5515	25969.75	25152.5
824.068	600.6802	25881	25066.55
824.2126	602.8083	25718.35	24901.65
824.3571	604.9358	25755.35	24936.85
824.5017	607.0626	25695.6	24878.7
824.6462	609.1888	25651.2	24831.4
824.7908	611.3144	25618.55	24798.75
824.9354	613.4393	25573.1	24753.95
825.08	615.5636	25608.3	24789.85
825.2246	617.6873	25595.55	24776.75
825.3692	619.8103	25676.9	24854.15
825.5138	621.9327	25574.6	24750.85
825.6584	624.0544	25511.6	24691.9
825.803	626.1756	25488.55	24666.8
825.9477	628.2961	25426.9	24604.15
826.0923	630.4159	25399.35	24577.55
826.237	632.5351	25378.2	24552.4
826.3816	634.6537	25299.2	24471.95
826.5263	636.7716	25303.6	24475.35
826.6709	638.8889	25260.9	24435.5
826.8156	641.0056	25284.5	24458.5
826.9603	643.1216	25213.4	24385.1
827.105	645.237	25278.85	24451.55
827.2497	647.3518	25192.15	24366.25
827.3944	649.4659	25222.2	24398.7
827.5391	651.5793	25133.15	24308.35
827.6838	653.6922	25020.35	24195.85
827.8285	655.8043	25013.8	24185.6
827.9733	657.9159	25008.05	24179.5
828.118	660.0268	24943.4	24113.35
828.2627	662.137	24940.3	24110.8
828.4075	664.2466	24865.15	24032.2
828.5522	666.3556	24884.95	24054.75
828.697	668.4639	24803.75	23971.55
828.8418	670.5716	24819	23990.45
828.9865	672.6786	24754.6	23923.2
829.1313	674.785	24703.1	23869.5
829.2761	676.8907	24584.2	23753.4
829.4209	678.9958	24624.15	23793.25
829.5657	681.1002	24514.55	23681.65
829.7105	683.204	24514.1	23678.45
829.8553	685.3072	24510.6	23676.75
830.0001	687.4097	24435	23603.05
830.1449	689.5115	24456.95	23619.9
830.2898	691.6127	24375.65	23543.05
830.4346	693.7132	24365.95	23532.35
830.5794	695.8131	24383.15	23541.95
830.7243	697.9123	24352.1	23515.7
830.8691	700.0109	24273.1	23436.8
831.014	702.1089	24299.65	23465.05
831.1588	704.2061	24277.6	23440.75
831.3037	706.3028	24263.2	23424.2
831.4486	708.3987	24253.65	23415.3
831.5935	710.4941	24206.95	23368.35
831.7383	712.5887	24232.85	23395.55
831.8832	714.6827	24181.7	23339.65
832.0281	716.7761	24157.8	23320.55
832.173	718.8688	24165.3	23326.2
832.3179	720.9608	24068.65	23223.75
832.4628	723.0522	24158.65	23315.05
832.6077	725.1429	24044.05	23203.25
832.7527	727.233	24065.3	23225.65
832.8976	729.3224	24136.7	23294.2
833.0425	731.4112	24074.75	23232.6
833.1874	733.4993	24029.9	23185.5
833.3324	735.5867	23923.45	23080.65
833.4773	737.6735	23885.25	23039.95
833.6222	739.7596	23800.4	22955.45
833.7672	741.845	23733.1	22891.5
833.9122	743.9298	23653.65	22809.1
834.0571	746.014	23611.95	22771.25
834.2021	748.0974	23618.9	22775.3
834.347	750.1802	23562.95	22719.15
834.492	752.2624	23445.3	22601
834.637	754.3439	23415.65	22570.2
834.782	756.4247	23354.2	22501.85
834.9269	758.5048	23243.55	22398.9
835.0719	760.5843	23196.5	22349.55
835.2169	762.6631	23183.85	22337.35
835.3619	764.7413	23175.9	22330.35
835.5069	766.8188	23188.75	22342
835.6519	768.8956	23171.6	22321.45
835.7969	770.9718	23242.2	22395.1
835.9419	773.0473	23102.15	22256.05
836.0869	775.1221	23075.2	22229.5
836.232	777.1962	22972.05	22128.3
836.377	779.2697	22988.3	22139.9
836.522	781.3426	23063.4	22197.65
836.667	783.4147	22995.25	22146.2
836.8121	785.4862	22971.15	22124.55
836.9571	787.557	22877.95	22028.55
837.1021	789.6271	22771.2	21923
837.2472	791.6966	22645.4	21796.45
837.3922	793.7654	22510.95	21659.35
837.5373	795.8335	22470.15	21620.55
837.6823	797.901	22410.95	21563.5
837.8274	799.9678	22356.4	21505.9
837.9724	802.0339	22324.95	21478.05
838.1175	804.0993	22318.05	21457.75
838.2626	806.1641	22248.25	21398.4
838.4076	808.2282	22182.65	21332.25
838.5527	810.2916	22166.25	21314.7
838.6978	812.3544	22119.25	21269.7
838.8428	814.4164	22077.35	21228.3
838.9879	816.4778	22094.4	21243.55
839.133	818.5385	22030.4	21180.9
839.2781	820.5986	21999.65	21149.45
839.4232	822.658	22040.05	21188.15
839.5682	824.7166	22005.6	21154.5
839.7133	826.7747	22133.55	21283
839.8584	828.832	22140.25	21289.25
840.0035	830.8886	22045.55	21193.2
840.1486	832.9446	22068.5	21216.85
840.2937	834.9999	22031.25	21181.25
840.4388	837.0545	21978.3	21122.7
840.5839	839.1085	21873.25	21019.85
840.729	841.1618	21811.9	20955.15
840.8741	843.2143	21694.1	20840
841.0192	845.2662	21588.95	20736.2
841.1643	847.3175	21557.35	20705.2
841.3095	849.368	21522	20668.25
841.4546	851.4179	21501.05	20647.05
841.5997	853.467	21401.3	20545.8
841.7448	855.5155	21365.25	20508.75
841.8899	857.5633	21337.5	20484.4
842.0351	859.6105	21298.3	20442.9
842.1802	861.6569	21273.2	20417.6
842.3253	863.7027	21265.65	20411.25
842.4704	865.7478	21231.1	20374.95
842.6156	867.7922	21174.5	20317.2
842.7607	869.8359	21119.35	20262.75
842.9058	871.8789	21111.1	20254.2
843.0509	873.9212	21102.45	20216.5
843.1961	875.9629	21039.2	20182.45
843.3412	878.0039	21039.7	20183.1
843.4863	880.0441	21035.45	20179.6
843.6315	882.0837	21057.45	20198.85
843.7766	884.1226	21022.8	20161
843.9218	886.1609	21035.95	20180.1
844.0669	888.1984	21045.1	20187.7
844.212	890.2352	21103.3	20248
844.3572	892.2714	21063.95	20202.55
844.5023	894.3069	21058.3	20204.05
844.6475	896.3416	20936.4	20076.65
844.7926	898.3757	20909.15	20050.9
844.9377	900.4091	20834.15	19974
845.0829	902.4418	20813.55	19948.75
845.228	904.4739	20752.55	19890
845.3732	906.5052	20761.6	19901.55
845.5183	908.5358	20725.65	19864.35
845.6635	910.5658	20685.3	19826.45
845.8086	912.595	20609.8	19747.95
845.9538	914.6236	20532.6	19675.2
846.0989	916.6515	20503.85	19646.3
846.2441	918.6786	20432.05	19571.9
846.3892	920.7051	20425.45	19563.3
846.5344	922.7309	20427.1	19568.15
846.6795	924.756	20360.4	19499.85
846.8246	926.7804	20355.75	19492.55
846.9698	928.8041	20239.25	19374
847.1149	930.8272	20268.65	19407.4
847.2601	932.8495	20166.55	19303.45
847.4052	934.8711	20175.05	19313.95
847.5504	936.892	20078.6	19217.05
847.6955	938.9123	20020.8	19159.3
847.8407	940.9318	20028.6	19168.45
847.9858	942.9506	19954.3	19093.05
848.131	944.9688	19886.3	19023.75
848.2761	946.9862	19850.6	18987.1
848.4213	949.003	19712.55	18847.25
848.5664	951.019	19669.65	18807.65
848.7115	953.0344	19608.25	18743.95
848.8567	955.0491	19575.05	18709.65
849.0018	957.063	19551.15	18687.7
849.147	959.0763	19597.8	18734.7
849.2921	961.0888	19505.8	18642.25
849.4373	963.1007	19526.8	18664.9
849.5824	965.1119	19528.8	18667.7
849.7275	967.1223	19449.65	18588.25
849.8727	969.1321	19446.55	18585.75
850.0178	971.1412	19429.75	18566.5
850.1629	973.1495	19346.95	18483.8
850.3081	975.1572	19375.85	18464.7
850.4532	977.1641	19333.85	18470.55
850.5983	979.1704	19260.5	18394.05
850.7435	981.1759	19180.45	18313.15
850.8886	983.1808	19193.25	18327.35
851.0337	985.1849	19138.7	18263.75
851.1788	987.1884	19075.45	18208.1
851.324	989.1911	19047.3	18177.65
851.4691	991.1932	19033.2	18165.15
851.6142	993.1945	18974.55	18109.7
851.7593	995.1951	18873.45	18006.8
851.9045	997.1951	18850.7	17979.95
852.0496	999.1943	18755.6	17890.75
852.1947	1001.1928	18735.9	17868.3
852.3398	1003.1906	18645.8	17782.65
852.4849	1005.1877	18660.7	17794.2
852.63	1007.1841	18600.95	17734.2
852.7751	1009.1798	18575.85	17708.55
852.9202	1011.1748	18489.05	17623.85
853.0653	1013.1691	18434.15	17567.4
853.2104	1015.1627	18386.65	17519.95
853.3555	1017.1556	18213.95	17348.25
853.5006	1019.1477	18195.95	17327.85
853.6457	1021.1392	18076.5	17210
853.7908	1023.1299	18034.75	17169.65
853.9359	1025.12	17949.1	17081.1
854.081	1027.1093	17877.7	17014.9
854.2261	1029.0979	17808.85	16946.7
854.3712	1031.0859	17753	16888.7
854.5163	1033.0731	17766.65	16900.65
854.6613	1035.0596	17720	16854.3
854.8064	1037.0454	17627.65	16760.1
854.9515	1039.0304	17585.65	16716.4
855.0965	1041.0148	17508	16638.5
855.2416	1042.9985	17412	16543.95
855.3867	1044.9814	17424.6	16557.45
855.5317	1046.9636	17357.1	16488.8
855.6768	1048.9452	17318.1	16451.95
855.8219	1050.926	17284.2	16417.25
855.9669	1052.9061	17269.15	16403.6
856.112	1054.8855	17241.75	16373.9
856.257	1056.8642	17182.15	16314.55
856.4021	1058.8421	17193.1	16319.7
856.5471	1060.8194	17114	16246.25
856.6921	1062.7959	17104.95	16236.75
856.8372	1064.7717	17066.25	16197.35
856.9822	1066.7469	17073.1	16203.75
857.1272	1068.7213	17009.4	16138.45
857.2723	1070.695	17002	16132.75
857.4173	1072.6679	16944.7	16076.15
857.5623	1074.6402	16901	16033.7
857.7073	1076.6117	16910.75	16036.05
857.8523	1078.5826	16919.4	16049.4
857.9973	1080.5527	16824.95	15952.9
858.1423	1082.5221	16753.75	15883.4
858.2873	1084.4908	16714.4	15844.9
858.4323	1086.4587	16674.6	15804.4
858.5773	1088.426	16637.05	15767.35
858.7223	1090.3925	16565.85	15689.3
858.8673	1092.3584	16561.3	15690
859.0123	1094.3235	16471.65	15604.65
859.1573	1096.2879	16458.9	15589.45
859.3022	1098.2515	16458.4	15588.7
859.4472	1100.2145	16486.35	15614.6
859.5922	1102.1767	16453.1	15581.25
859.7371	1104.1382	16456.8	15585.7
859.8821	1106.099	16474.3	15601.3
860.027	1108.0591	16438.7	15569.15
860.172	1110.0185	16416.8	15545.2
860.3169	1111.9771	16437.35	15566.75
860.4619	1113.9351	16420.25	15550.55
860.6068	1115.8923	16404.8	15531
860.7517	1117.8488	16413.2	15541.85
860.8967	1119.8045	16348.4	15476
861.0416	1121.7596	16247.25	15374.55
861.1865	1123.7139	16129.05	15260.25
861.3314	1125.6675	16049.2	15180.45
861.4763	1127.6204	16078.6	15208.4
861.6212	1129.5726	16005	15131.65
861.7661	1131.524	16004.55	15134.1
861.911	1133.4748	15945.1	15074.95
862.0559	1135.4248	15861.3	14987.1
862.2008	1137.3741	15786.7	14918.35
862.3457	1139.3226	15748.9	14876.05
862.4905	1141.2705	15751.5	14878.7
862.6354	1143.2176	15667.65	14790
862.7803	1145.164	15666.6	14794.5
862.9251	1147.1097	15654.7	14782.7
863.07	1149.0546	15583.1	14709.8
863.2148	1150.9989	15577.05	14703.9
863.3597	1152.9424	15555.45	14681.25
863.5045	1154.8852	15532.15	14658.95
863.6493	1156.8272	15498.7	14627.85
863.7942	1158.7686	15485.85	14606.8
863.939	1160.7092	15440.6	14567.15
864.0838	1162.6491	15382.5	14510.05
864.2286	1164.5883	15407.5	14536.15
864.3734	1166.5267	15372.65	14499.25
864.5182	1168.4644	15388	14515.65
864.663	1170.4014	15397.4	14520.45
864.8078	1172.3377	15419.15	14548.55
864.9526	1174.2732	15401.55	14529.45
865.0974	1176.2081	15453.85	14583.6
865.2421	1178.1421	15523.45	14645
865.3869	1180.0755	15617.85	14745.9
865.5317	1182.0082	15625.55	14751.8
865.6764	1183.9401	15570.75	14697.1
865.8212	1185.8713	15497.85	14625.55
865.9659	1187.8017	15341.05	14470.05
866.1106	1189.7315	15282.7	14412.25
866.2554	1191.6605	15134.1	14263.6
866.4001	1193.5888	15019.15	14144.95
866.5448	1195.5163	14977.3	14106.4
866.6895	1197.4432	14932.35	14058.55
866.8342	1199.3693	14882.4	14010.15
866.9789	1201.2947	14815.35	13938.5
867.1236	1203.2193	14740.05	13866.8
867.2683	1205.1432	14749	13875.55
867.413	1207.0664	14702.5	13830.75
867.5576	1208.9889	14653.7	13777.1
867.7023	1210.9106	14598.95	13725.4
867.847	1212.8316	14566.4	13694.6
867.9916	1214.7519	14552.4	13670.2
868.1363	1216.6715	14536.35	13664.45
868.2809	1218.5903	14501.35	13628.05
868.4255	1220.5084	14482	13607.8
868.5701	1222.4257	14487.95	13615.8
868.7148	1224.3424	14414.2	13541.4
868.8594	1226.2583	14403.1	13524.2
869.004	1228.1735	14416.7	13540.6
869.1486	1230.0879	14369	13494.8
869.2932	1232.0016	14361.5	13488.15
869.4377	1233.9146	14339.4	13463.8
869.5823	1235.8269	14342.45	13469.75
869.7269	1237.7384	14346.05	13473.9
869.8715	1239.6492	14287.5	13413.85
870.016	1241.5592	14285	13409.7
870.1606	1243.4686	14292.4	13419.4
870.3051	1245.3772	14329.35	13454.05
870.4496	1247.285	14369.8	13495.75
870.5941	1249.1922	14365.1	13489.35
870.7387	1251.0986	14411.7	13535.4
870.8832	1253.0042	14432.8	13557.95
871.0277	1254.9092	14512.75	13638.15
871.1722	1256.8134	14529	13656.55
871.3167	1258.7169	14603.5	13727.75
871.4611	1260.6196	14601.65	13727.3
871.6056	1262.5216	14591	13713.35
871.7501	1264.4229	14545.05	13669.65
871.8945	1266.3234	14518.25	13642.55
872.039	1268.2232	14476.1	13600.1
872.1834	1270.1223	14375.95	13499.9
872.3278	1272.0207	14343.15	13468.45
872.4723	1273.9183	14308.9	13426.1
872.6167	1275.8151	14250.85	13376.65
872.7611	1277.7113	14299.25	13423.95
872.9055	1279.6067	14328.5	13455.1
873.0499	1281.5014	14429.8	13553.9
873.1943	1283.3953	14530.55	13653
873.3386	1285.2885	14676.05	13801.1
873.483	1287.181	14773.7	13896.65
873.6274	1289.0727	14818.55	13944.45
873.7717	1290.9637	14767.15	13889.5
873.9161	1292.854	14720.7	13847.9
874.0604	1294.7435	14579.2	13702.5
874.2047	1296.6323	14446.85	13570.9
874.349	1298.5204	14380.1	13501.4
874.4933	1300.4077	14310.65	13433.7
874.6376	1302.2943	14298.45	13424.2
874.7819	1304.1802	14241.15	13365.75
874.9262	1306.0653	14179.2	13300.25
875.0705	1307.9497	14130.45	13255.4
875.2147	1309.8333	14107	13232.85
875.359	1311.7162	14060.7	13183.15
875.5032	1313.5984	14001.4	13121.7
875.6475	1315.4798	13950.15	13063.55
875.7917	1317.3605	13930.6	13037.8
875.9359	1319.2405	13951.1	13071.75
876.0801	1321.1197	13904.05	13026.05
876.2243	1322.9982	13800.5	12918.5
876.3685	1324.876	13767.3	12891
876.5127	1326.753	13658.7	12783.15
876.6569	1328.6293	13614.75	12736.5
876.801	1330.5048	13540	12662.5
876.9452	1332.3796	13422.85	12546.85
877.0893	1334.2537	13406.1	12504.15
877.2335	1336.127	13329.15	12454.25
877.3776	1337.9996	13279.2	12402.15
877.5217	1339.8714	13236.7	12359.8
877.6658	1341.7426	13229.4	12309.25
877.8099	1343.6129	13184.5	12309
877.954	1345.4826	13121.1	12243.85
878.0981	1347.3515	13129.45	12250.95
878.2422	1349.2196	13062.85	12184.3
878.3862	1351.087	13060.45	12184.15
878.5303	1352.9537	13042.15	12164.9
878.6743	1354.8197	13051.45	12174.15
878.8184	1356.6849	13093.15	12217.75
878.9624	1358.5493	13046.15	12168.35
879.1064	1360.4131	13033.35	12156.3
879.2504	1362.276	13056.3	12179.6
879.3944	1364.1383	13001.9	12126.45
879.5384	1365.9998	13011.7	12130.2
879.6823	1367.8606	12984.15	12107.6
879.8263	1369.7206	12969.7	12094.55
879.9702	1371.5799	12917.95	12038.25
880.1142	1373.4384	12888.4	12009.15
880.2581	1375.2962	12875.35	11997.65
880.402	1377.1533	12760.7	11883.75
880.5459	1379.0096	12662.65	11786.15
880.6898	1380.8652	12598.7	11720.5
880.8337	1382.7201	12583.95	11708.35
880.9776	1384.5742	12488.4	11611.35
881.1215	1386.4275	12431.95	11555.5
881.2653	1388.2802	12395.55	11518.15
881.4092	1390.132	12340.85	11464.7
881.553	1391.9832	12334.15	11457.25
881.6968	1393.8336	12220.15	11343
881.8406	1395.6832	12231	11352.3
881.9844	1397.5322	12188.4	11309.6
882.1282	1399.3803	12152.9	11270.9
882.272	1401.2278	12094.85	11219.1
882.4158	1403.0745	12049.15	11173.9
882.5595	1404.9204	11967.1	11091.25
882.7033	1406.7656	12006.05	11125.3
882.847	1408.6101	11931.45	11052.25
882.9908	1410.4538	11864.5	10987.3
883.1345	1412.2968	11849.75	10972.05
883.2782	1414.139	11803.05	10925.25
883.4219	1415.9805	11821.75	10944
883.5656	1417.8213	11792	10894.2
883.7092	1419.6613	11756.95	10881
883.8529	1421.5006	11791.4	10913.55
883.9965	1423.3391	11761.9	10884.35
884.1402	1425.1769	11757.75	10878.25
884.2838	1427.0139	11788	10909.25
884.4274	1428.8502	11831.55	10954.2
884.571	1430.6858	11877.5	11000.95
884.7146	1432.5206	11828.45	10950.6
884.8582	1434.3547	11825.85	10948.9
885.0018	1436.188	11853.9	10976.85
885.1453	1438.0206	11800.75	10922.9
885.2889	1439.8524	11761.9	10884.85
885.4324	1441.6835	11738.9	10862.9
885.5759	1443.5139	11705.6	10823.65
885.7194	1445.3435	11684.4	10805.35
885.8629	1447.1724	11692.5	10814.35
886.0064	1449.0005	11703.1	10826.25
886.1499	1450.8279	11646.15	10768.05
886.2933	1452.6545	11640.3	10763.75
886.4368	1454.4804	11632.5	10755
886.5802	1456.3056	11582.05	10697.95
886.7237	1458.13	11548.4	10671.85
886.8671	1459.9536	11542.8	10664.95
887.0105	1461.7766	11476.85	10600.35
887.1539	1463.5987	11413.75	10534.65
887.2972	1465.4202	11378.7	10500.7
887.4406	1467.2409	11289.1	10409.2
887.584	1469.0608	11293.7	10416.4
887.7273	1470.88	11237.7	10358.05
887.8706	1472.6984	11173.9	10296.3
888.0139	1474.5161	11086.4	10205.15
888.1572	1476.3331	11101	10224.5
888.3005	1478.1493	11091.8	10211.15
888.4438	1479.9648	11072	10194.6
888.5871	1481.7795	11027	10148.7
888.7303	1483.5935	11024.75	10148.05
888.8736	1485.4067	11011.45	10132.1
889.0168	1487.2192	10987.85	10112.15
889.16	1489.031	10993.2	10111.8
889.3032	1490.842	10975.7	10097.05
889.4464	1492.6522	10973.3	10094.7
889.5896	1494.4618	10923.1	10045.45
889.7327	1496.2705	10896.65	10018.65
889.8759	1498.0785	10895.15	10016.65
890.019	1499.8858	10873.75	9997.2
890.1622	1501.6924	10829.15	9953.2
890.3053	1503.4981	10783.85	9903.75
890.4484	1505.3032	10762.35	9884.65
890.5914	1507.1075	10727.1	9850.4
890.7345	1508.911	10723.65	9846.25
890.8776	1510.7138	10692.35	9813.15
891.0206	1512.5159	10647.55	9768
891.1637	1514.3172	10625.25	9746.45
891.3067	1516.1178	10545.15	9668.75
891.4497	1517.9176	10580.1	9698.4
891.5927	1519.7166	10542.5	9666
891.7357	1521.515	10508.75	9622.8
891.8786	1523.3126	10487.6	9607
892.0216	1525.1094	10421.05	9539.4
892.1645	1526.9055	10395.5	9519.3
892.3074	1528.7008	10356.2	9479.6
892.4503	1530.4954	10292.15	9412.4
892.5932	1532.2893	10272	9395.9
892.7361	1534.0824	10247.9	9365.2
892.879	1535.8747	10214.2	9337.15
893.0218	1537.6663	10199.25	9321.1
893.1647	1539.4572	10153.25	9272.95
893.3075	1541.2473	10124.85	9245.8
893.4503	1543.0367	10079.2	9200.8
893.5931	1544.8253	10068.65	9185.9
893.7359	1546.6132	10052.2	9170.35
893.8787	1548.4003	9996.45	9109.5
894.0214	1550.1867	9987.2	9099.4
894.1642	1551.9723	9985.2	9102.55
894.3069	1553.7572	9961.5	9082.05
894.4496	1555.5414	9983.5	9105.5
894.5923	1557.3247	9965.55	9087.3
894.735	1559.1074	9967.65	9090.95
894.8777	1560.8893	9951.5	9073.8
895.0204	1562.6705	9915.05	9038.4
895.163	1564.4509	9931.25	9054.8
895.3056	1566.2305	9926	9049.3
895.4482	1568.0094	9936.4	9060.3
895.5908	1569.7876	9902.35	9025
895.7334	1571.565	9888.25	9009.1
895.876	1573.3417	9841.2	8964.95
896.0186	1575.1176	9827.2	8946.7
896.1611	1576.8928	9818.65	8940.6
896.3036	1578.6672	9793.35	8917.9
896.4461	1580.4409	9780.8	8904.5
896.5886	1582.2138	9773.35	8894.2
896.7311	1583.986	9774.75	8895.9
896.8736	1585.7575	9788.6	8913.1
897.0161	1587.5282	9800.6	8925.65
897.1585	1589.2981	9829.55	8953.4
897.3009	1591.0673	9808.1	8931.35
897.4433	1592.8358	9798.95	8922.9
897.5857	1594.6035	9775.05	8896.15
897.7281	1596.3704	9706.3	8829.45
897.8705	1598.1366	9652.85	8777.05
898.0128	1599.9021	9628.5	8751.05
898.1551	1601.6668	9564.4	8686.2
898.2975	1603.4308	9533.05	8655.1
898.4398	1605.194	9504.4	8624
898.5821	1606.9564	9515.8	8640.8
898.7243	1608.7182	9537.15	8658.95
898.8666	1610.4791	9580.7	8705.8
899.0088	1612.2394	9632.1	8757.35
899.1511	1613.9988	9682.1	8805.2
899.2933	1615.7576	9722.35	8847.25
899.4355	1617.5156	9760	8876.45
899.5776	1619.2728	9729.55	8852.8
899.7198	1621.0293	9635.75	8758.4
899.862	1622.785	9517.6	8638.6
900.0041	1624.54	9359.95	8479.1
900.1462	1626.2942	9214.45	8335.75
900.2883	1628.0477	9100.35	8220.75
900.4304	1629.8005	9027.65	8149.5
900.5725	1631.5525	8894.5	8019.95
900.7145	1633.3037	8849.8	7973.05
900.8566	1635.0542	8807.3	7931.25
900.9986	1636.804	8742.15	7866.3
901.1406	1638.553	8760.2	7800
901.2826	1640.3013	8639.4	7765.05
901.4245	1642.0488	8600	7724.1
901.5665	1643.7955	8581.85	7707.95
901.7085	1645.5416	8522.45	7644.9
901.8504	1647.2868	8497.85	7620.8
901.9923	1649.0313	8450.25	7574.4
902.1342	1650.7751	8451.2	7570.3
902.2761	1652.5181	8437.85	7561.6
902.4179	1654.2604	8377.4	7502.2
902.5598	1656.0019	8391.7	7514.25
902.7016	1657.7427	8344.9	7467.8
902.8434	1659.4828	8369.35	7492.35
902.9852	1661.222	8343.1	7465.55
903.127	1662.9606	8348.05	7471.05
903.2687	1664.6984	8390.75	7512.6
903.4105	1666.4354	8359.6	7481.55
903.5522	1668.1717	8334.05	7455.3
903.6939	1669.9072	8240.05	7361.3
903.8356	1671.642	8192.5	7314.5
903.9773	1673.3761	8143.75	7266.45
904.119	1675.1094	8104.85	7228.85
904.2606	1676.8419	8056.5	7179
904.4022	1678.5737	7987.05	7110.2
904.5439	1680.3048	7965.85	7088.9
904.6855	1682.0351	7904.35	7028.8
904.827	1683.7646	7860.6	6979.6
904.9686	1685.4934	7848.35	6971.9
905.1101	1687.2215	7811.8	6933.6
905.2517	1688.9488	7774.7	6896.8
905.3932	1690.6754	7730.75	6851.7
905.5347	1692.4012	7715.85	6838.85
905.6761	1694.1263	7705.5	6827.55
905.8176	1695.8506	7692.55	6814
905.9591	1697.5742	7665.55	6789.35
906.1005	1699.297	7609.6	6732
906.2419	1701.0191	7580.1	6704.4
906.3833	1702.7404	7562.95	6687.85
906.5246	1704.461	7506.6	6627.1
906.666	1706.1808	7490.1	6612.9
906.8073	1707.8999	7465.3	6586.6
906.9487	1709.6182	7456.75	6580.15
907.09	1711.3358	7436.5	6560.2
907.2313	1713.0527	7407.15	6531.95
907.3725	1714.7688	7380.85	6498
907.5138	1716.4841	7335.2	6457.15
907.655	1718.1987	7338	6456.65
907.7962	1719.9126	7331.1	6454.15
907.9374	1721.6257	7306.1	6427.2
908.0786	1723.338	7289.25	6412.15
908.2198	1725.0496	7260.9	6383.3
908.3609	1726.7605	7261.65	6383.45
908.502	1728.4706	7248.85	6370.45
908.6431	1730.18	7201.45	6321.35
908.7842	1731.8886	7185.7	6309.1
908.9253	1733.5964	7182.7	6301.7
909.0664	1735.3036	7182.05	6302.85
909.2074	1737.0099	7161	6283.05
909.3484	1738.7156	7138.1	6263.7
909.4894	1740.4204	7112.1	6232.45
909.6304	1742.1246	7113.55	6234.4
909.7714	1743.8279	7111.6	6233.95
909.9123	1745.5306	7087.7	6209.7
910.0532	1747.2325	7067.95	6191.35
910.1941	1748.9336	7062.15	6185.2
910.335	1750.634	7049	6170.05
910.4759	1752.3336	7032.7	6158.55
910.6168	1754.0325	7008	6132.95
910.7576	1755.7307	7010.85	6133.1
910.8984	1757.4281	7020.8	6145.2
911.0392	1759.1247	7015.8	6130.65
911.18	1760.8206	6998.65	6118.7
911.3208	1762.5158	6980.8	6099.7
911.4615	1764.2102	6960.7	6083.05
911.6022	1765.9039	6945.3	6067.45
911.7429	1767.5968	6920.95	6044.3
911.8836	1769.289	6913.1	6036.9
912.0243	1770.9804	6891.4	6012.4
912.1649	1772.6711	6885.05	6007.85
912.3056	1774.361	6884.05	6005.5
912.4462	1776.0502	6842.3	5965.1
912.5868	1777.7386	6866.7	5988
912.7274	1779.4263	6842.3	5965.65
912.8679	1781.1132	6822.3	5944.85
913.0084	1782.7994	6809.3	5931.2
913.149	1784.4849	6807.55	5930.05
913.2895	1786.1696	6779.9	5882.85
913.4299	1787.8535	6752.05	5875.6
913.5704	1789.5367	6731.8	5855.95
913.7108	1791.2192	6741.65	5864.15
913.8513	1792.9009	6720.35	5826.3
913.9917	1794.5818	6689.65	5811.4
914.132	1796.2621	6662.35	5784.8
914.2724	1797.9415	6682.7	5802.8
914.4128	1799.6202	6662.45	5783.05
914.5531	1801.2982	6634.45	5758.6
914.6934	1802.9755	6638.75	5761.85
914.8337	1804.6519	6622.25	5744.15
914.9739	1806.3277	6597.9	5721.9
915.1142	1808.0027	6539.05	5663.15
915.2544	1809.6769	6570.25	5693.1
915.3946	1811.3504	6559.7	5681.75
915.5348	1813.0231	6551.9	5673.95
915.675	1814.6951	6519.45	5643.35
915.8151	1816.3664	6514.9	5636.25
915.9553	1818.0369	6510.85	5634.75
916.0954	1819.7067	6500.8	5623.45
916.2355	1821.3757	6467.65	5588.05
916.3755	1823.044	6460.65	5584.5
916.5156	1824.7115	6447.85	5570.8
916.6556	1826.3783	6413.25	5537
916.7956	1828.0443	6405.5	5529.45
916.9356	1829.7096	6382.55	5505.15
917.0756	1831.3741	6384.1	5502.95
917.2155	1833.0379	6371.95	5494.95
917.3555	1834.701	6357.85	5480.95
917.4954	1836.3633	6354.05	5477.35
917.6353	1838.0248	6345.9	5468.7
917.7751	1839.6856	6330.6	5453.6
917.915	1841.3457	6334.2	5457.25
918.0548	1843.005	6315.45	5437.15
918.1946	1844.6636	6306.7	5429.95
918.3344	1846.3214	6276.55	5401.85
918.4742	1847.9785	6279.05	5402.3
918.6139	1849.6349	6274.3	5395.2
918.7537	1851.2904	6255.75	5368.85
918.8934	1852.9453	6234.85	5355.9
919.0331	1854.5994	6234.85	5354.8
919.1727	1856.2528	6230.9	5350.1
919.3124	1857.9054	6190.85	5314.1
919.452	1859.5572	6194.2	5317.95
919.5916	1861.2083	6179.35	5300.1
919.7312	1862.8587	6180.95	5302.55
919.8708	1864.5084	6169.05	5292.6
920.0103	1866.1572	6152.75	5275.85
920.1498	1867.8054	6123.55	5246.8
920.2893	1869.4528	6117.55	5238.85
920.4288	1871.0994	6088.1	5208.9
920.5683	1872.7453	6095.7	5220.45
920.7077	1874.3905	6088.65	5206
920.8471	1876.0349	6069.45	5191.8
920.9865	1877.6786	6066.85	5188.45
921.1259	1879.3215	6046.8	5169.05
921.2653	1880.9637	6036.7	5158.1
921.4046	1882.6051	6054.75	5177
921.5439	1884.2458	6019.9	5141.9
921.6832	1885.8858	5990.8	5111.1
921.8225	1887.525	5989.7	5112.35
921.9617	1889.1634	5971.25	5093.85
922.101	1890.8011	5965.85	5089.35
922.2402	1892.4381	5942.4	5065.25
922.3794	1894.0743	5950.9	5074.55
922.5185	1895.7098	5931.4	5053.05
922.6577	1897.3446	5932.1	5053.4
922.7968	1898.9786	5912.75	5030.95
922.9359	1900.6118	5888.45	5012.45
923.075	1902.2443	5866.95	4990.3
923.214	1903.8761	5860.8	4982.9
923.3531	1905.5071	5826.15	4947.55
923.4921	1907.1374	5813.7	4933.95
923.6311	1908.7669	5811.2	4932.25
923.77	1910.3957	5803.55	4928.45
923.909	1912.0237	5766.35	4889.75
924.0479	1913.651	5768.9	4892.3
924.1868	1915.2776	5754.15	4880.3
924.3257	1916.9034	5735.1	4858.2
924.4646	1918.5285	5713.05	4836.6
924.6034	1920.1528	5697.1	4818.65
924.7422	1921.7764	5714	4838.05
924.881	1923.3992	5669.25	4793.25
925.0198	1925.0213	5647.35	4769.35
925.1586	1926.6427	5624.35	4746.55
925.2973	1928.2633	5793.2	4702.3
925.436	1929.8832	5646.2	4765
925.5747	1931.5023	5602.8	4724.5
925.7134	1933.1207	5579.55	4704.7
925.852	1934.7383	5560.4	4682.65
925.9906	1936.3552	5551.1	4674.15
926.1292	1937.9714	5533.1	4656.25
926.2678	1939.5868	5537.65	4659.65
926.4064	1941.2015	5496.75	4619.9
926.5449	1942.8154	5484.4	4606.85
926.6834	1944.4286	5463.7	4586.2
926.8219	1946.041	5475.4	4576.8
926.9604	1947.6528	5429.55	4549.85
927.0988	1949.2637	5416.5	4541.85
927.2372	1950.8739	5380.95	4503.75
927.3756	1952.4834	5383.9	4504.9
927.514	1954.0921	5394.9	4518
927.6523	1955.7001	5383.3	4503.85
927.7907	1957.3074	5355.3	4479.5
927.929	1958.9139	5358.4	4482.75
928.0673	1960.5197	5329.25	4452.05
928.2055	1962.1247	5307	4430.65
928.3438	1963.729	5302.3	4427.2
928.482	1965.3325	5302.4	4403.1
928.6202	1966.9353	5266.55	4393.15
928.7584	1968.5374	5260.45	4383.05
928.8965	1970.1387	5259.15	4381.9
929.0346	1971.7393	5215.55	4337.35
929.1727	1973.3392	5209.2	4333.35
929.3108	1974.9383	5222.4	4345.5
929.4489	1976.5366	5183.2	4308.2
929.5869	1978.1342	5180.85	4303.55
929.7249	1979.7311	5189.75	4311.65
929.8629	1981.3273	5165.65	4288.4
930.0009	1982.9227	5159.9	4282.45
930.1388	1984.5173	5149.6	4273.6
930.2767	1986.1112	5116.4	4239.55
930.4146	1987.7044	5114.55	4240.15
930.5525	1989.2968	5120.65	4244.85
930.6904	1990.8885	5097.2	4215.85
930.8282	1992.4795	5084.75	4206
930.966	1994.0697	5068.7	4190.7
931.1038	1995.6592	5052.9	4177.2
931.2415	1997.2479	5050.05	4172.25
931.3793	1998.8359	5031.35	4155.3
931.517	2000.4232	5029.35	4154.45
931.6547	2002.0097	5014.1	4141.5
931.7923	2003.5955	5000.25	4123.2
931.93	2005.1805	5012.25	4134.3
932.0676	2006.7648	4989.05	4112.65
932.2052	2008.3484	4969.65	4092.8
932.3427	2009.9312	4974.6	4097.1
932.4803	2011.5133	4957.65	4083
932.6178	2013.0946	4928.1	4051.35
932.7553	2014.6752	4950.6	4074.9
932.8928	2016.2551	4929.1	4053.4
933.0302	2017.8342	4902.4	4026.5
933.1676	2019.4126	4891.85	4017.3
933.305	2020.9902	4887.9	4013.6
933.4424	2022.5672	4879.05	4000.55
933.5798	2024.1433	4870.5	3990.3
933.7171	2025.7188	4857.5	3983.8
933.8544	2027.2935	4840.9	3965.4
933.9917	2028.8674	4839.1	3963.8
934.129	2030.4406	4827.8	3952.95
934.2662	2032.0131	4813.65	3939.8
934.4034	2033.5849	4796.1	3915.2
934.5406	2035.1559	4791.1	3914.75
934.6778	2036.7261	4796.5	3922.05
934.8149	2038.2957	4781.7	3906.65
934.952	2039.8645	4768.45	3893.7
935.0891	2041.4325	4772.65	3891.95
935.2262	2042.9998	4760.45	3884.45
935.3632	2044.5664	4754.5	3877.1
935.5002	2046.1323	4749.05	3873.85
935.6372	2047.6974	4738	3861.4
935.7742	2049.2617	4737.85	3863.35
935.9111	2050.8254	4736.85	3857.8
936.048	2052.3883	4725.35	3850.25
936.1849	2053.9504	4692.65	3816
936.3218	2055.5118	4695.2	3820.55
936.4586	2057.0725	4689.65	3808.3
936.5955	2058.6325	4674.65	3798.4
936.7323	2060.1917	4679.6	3803.25
936.869	2061.7502	4661.95	3785.5
937.0058	2063.3079	4657.75	3781.9
937.1425	2064.8649	4632.4	3754.7
937.2792	2066.4212	4617.65	3741.3
937.4159	2067.9767	4613.1	3736.3
937.5525	2069.5315	4601.15	3725.1
937.6891	2071.0856	4578.65	3702.6
937.8257	2072.6389	4588.9	3711.9
937.9623	2074.1915	4576.3	3703.4
938.0989	2075.7433	4549.25	3672.7
938.2354	2077.2945	4543.4	3669.4
938.3719	2078.8448	4543.2	3666.3
938.5084	2080.3945	4528.2	3652.5
938.6448	2081.9434	4543.45	3667.5
938.7812	2083.4916	4524.25	3645.7
938.9176	2085.039	4498.35	3620.7
939.054	2086.5857	4491.1	3614.65
939.1903	2088.1317	4504.75	3630
939.3267	2089.677	4488.15	3612.7
939.463	2091.2215	4487	3611.15
939.5992	2092.7652	4478.55	3601.65
939.7355	2094.3083	4465.3	3589.2
939.8717	2095.8506	4460.45	3584.65
940.0079	2097.3921	4459.7	3585.85
940.1441	2098.933	4434.25	3559.65
940.2802	2100.4731	4445.7	3571.55
940.4163	2102.0124	4456.1	3562.85
940.5524	2103.5511	4430.5	3554
940.6885	2105.089	4422.3	3545.9
940.8245	2106.6261	4417.75	3542.45
940.9606	2108.1626	4410.15	3532.4
941.0965	2109.6983	4432.7	3528.4
941.2325	2111.2332	4401.4	3525.9
941.3684	2112.7675	4388.2	3510.6
941.5044	2114.301	4384.8	3507.45
941.6403	2115.8337	4382.5	3505.9
941.7761	2117.3657	4378.3	3502.95
941.912	2118.897	4372.4	3494.65
942.0478	2120.4276	4365.6	3483.15
942.1835	2121.9575	4355.95	3478.85
942.3193	2123.4866	4344.8	3466.5
942.455	2125.0149	4332.5	3454.3
942.5907	2126.5426	4323.9	3448
942.7264	2128.0695	4322.65	3441.9
942.8621	2129.5956	4309.2	3434.75
942.9977	2131.1211	4291	3410
943.1333	2132.6458	4294.25	3420.3
943.2689	2134.1698	4281.15	3403.75
943.4044	2135.693	4285.55	3406.45
943.54	2137.2155	4280.55	3405.05
943.6755	2138.7373	4256.55	3380.05
943.8109	2140.2584	4240.85	3364.85
943.9464	2141.7787	4253.6	3372.55
944.0818	2143.2983	4238.45	3365.2
944.2172	2144.8171	4210.8	3336.05
944.3526	2146.3353	4221.05	3340.05
944.4879	2147.8527	4198.85	3323.05
944.6232	2149.3693	4203.85	3327.7
944.7585	2150.8853	4165.6	3287.9
944.8938	2152.4005	4159.9	3282.75
945.029	2153.9149	4170.8	3295.9
945.1642	2155.4287	4150	3276.9
945.2994	2156.9417	4159.5	3284.05
945.4346	2158.454	4137.85	3260
945.5697	2159.9655	4139.15	3264.1
945.7048	2161.4764	4133.6	3256.75
945.8399	2162.9865	4109.35	3233.85
945.9749	2164.4958	4113.25	3236.95
946.1099	2166.0045	4095.4	3217.35
946.2449	2167.5124	4099.6	3224.25
946.3799	2169.0195	4091.1	3215.7
946.5148	2170.526	4101.75	3224.75
946.6498	2172.0317	4077.9	3202.75
946.7846	2173.5367	4075.1	3198.35
946.9195	2175.0409	4059.3	3184.05
947.0543	2176.5445	4059.5	3184.35
947.1891	2178.0473	4041.45	3164.4
947.3239	2179.5494	4055.05	3174.9
947.4587	2181.0507	4015.4	3138.85
947.5934	2182.5513	4015.1	3138.75
947.7281	2184.0512	4017.9	3142.1
947.8628	2185.5504	4001.95	3126.1
947.9974	2187.0488	3980.3	3104.15
948.132	2188.5465	3975.75	3101.6
948.2666	2190.0435	3962.3	3085.25
948.4012	2191.5397	3963.45	3087.7
948.5357	2193.0353	3946.7	3070.75
948.6702	2194.5301	3944.7	3067.85
948.8047	2196.0241	3926.25	3048.45
948.9392	2197.5175	3921.5	3043.8
949.0736	2199.0101	3903.5	3026.4
949.208	2200.502	3894.6	3022.6
949.3424	2201.9931	3881.2	3006.5
949.4767	2203.4835	3865.85	2989.65
949.611	2204.9733	3877.25	2996.85
949.7453	2206.4622	3864.7	2989.55
949.8796	2207.9505	3852.75	2974.15
950.0138	2209.438	3817.45	2943.25
950.148	2210.9248	3824.65	2947
950.2822	2212.4109	3812.7	2936.2
950.4164	2213.8962	3808.1	2930.1
950.5505	2215.3809	3811.15	2933.7
950.6846	2216.8648	3796.45	2919.9
950.8186	2218.3479	3794	2913.3
950.9527	2219.8304	3781.85	2902.8
951.0867	2221.3121	3755.25	2875.95
951.2207	2222.7931	3747.6	2873.7
951.3546	2224.2733	3730.2	2855.25
951.4886	2225.7529	3737.75	2861.85
951.6225	2227.2317	3730.6	2852.55
951.7563	2228.7098	3741.8	2865.7
951.8902	2230.1872	3711.25	2834.1
952.024	2231.6638	3710	2833.45
952.1578	2233.1397	3703.1	2819.3
952.2916	2234.6149	3684.4	2809.85
952.4253	2236.0894	3679.05	2802.35
952.559	2237.5632	3679.05	2793.85
952.6927	2239.0362	3654.95	2779.9
952.8263	2240.5085	3653.8	2776.2
952.9599	2241.9801	3622.4	2745.6
953.0935	2243.4509	3623.3	2746.95
953.2271	2244.921	3612.75	2737.25
953.3606	2246.3904	3612.45	2733.7
953.4941	2247.8591	3603.45	2729
953.6276	2249.3271	3596.05	2719.05
953.7611	2250.7943	3593.35	2717.4
953.8945	2252.2608	3570.8	2695.2
954.0279	2253.7266	3559.3	2682.55
954.1612	2255.1917	3566.45	2690.65
954.2946	2256.656	3559.15	2682.8
954.4279	2258.1197	3536.1	2660.55
954.5612	2259.5826	3542.15	2665.55
954.6944	2261.0447	3535.3	2657.45
954.8276	2262.5062	3522.15	2643.95
954.9608	2263.9669	3517.2	2639.65
955.094	2265.4269	3506.25	2632.4
955.2271	2266.8862	3500.9	2627.1
955.3602	2268.3448	3494.75	2618.85
955.4933	2269.8026	3510.55	2635.85
955.6264	2271.2598	3498.4	2623.75
955.7594	2272.7162	3469	2593.55
955.8924	2274.1719	3454.55	2578.15
956.0253	2275.6268	3448.7	2572.2
956.1583	2277.0811	3461.05	2585.3
956.2912	2278.5346	3449.05	2573.9
956.4241	2279.9874	3447.1	2570.3
956.5569	2281.4395	3433.85	2559.65
956.6897	2282.8908	3436.75	2554.5
956.8225	2284.3414	3420.5	2543.85
956.9553	2285.7914	3410.65	2536.45
957.088	2287.2406	3402.55	2526.4
957.2207	2288.689	3388.35	2511.85
957.3534	2290.1368	3369.65	2491.75
957.486	2291.5838	3377.4	2499.95
957.6186	2293.0302	3375.3	2498.15
957.7512	2294.4758	3367.35	2491.15
957.8838	2295.9206	3348.45	2468.65
958.0163	2297.3648	3358.55	2482.3
958.1488	2298.8082	3351.95	2474.95
958.2813	2300.251	3333.55	2458.75
958.4137	2301.693	3320.9	2442.35
958.5461	2303.1343	3323.9	2447.35
958.6785	2304.5748	3307.6	2429
958.8108	2306.0147	3305.9	2429.95
958.9432	2307.4538	3292.85	2415.85
959.0754	2308.8922	3293.1	2418.2
959.2077	2310.3299	3288.55	2413.45
959.3399	2311.7669	3280	2405
959.4721	2313.2031	3286.7	2412.35
959.6043	2314.6387	3251.8	2376
959.7365	2316.0735	3247.25	2370.65
959.8686	2317.5076	3245.15	2367.5
960.0006	2318.941	3232.55	2356.85
960.1327	2320.3737	3233.55	2357.4
960.2647	2321.8056	3235.95	2358.95
960.3967	2323.2369	3224.55	2347.65
960.5287	2324.6674	3215.85	2338.85
960.6606	2326.0972	3208.95	2333.95
960.7925	2327.5263	3194.3	2318.4
960.9244	2328.9547	3192.35	2314.95
961.0562	2330.3823	3182.2	2304.4
961.1881	2331.8092	3195.15	2315.1
961.3198	2333.2355	3157.05	2280.15
961.4516	2334.661	3145.15	2269.15
961.5833	2336.0858	3140.5	2262.05
961.715	2337.5098	3135.15	2259.5
961.8467	2338.9332	3147.6	2271.2
961.9783	2340.3558	3144.6	2265.4
962.1099	2341.7778	3132.05	2255.55
962.2415	2343.199	3113.95	2235
962.373	2344.6195	3103.75	2227.5
962.5045	2346.0393	3101.15	2225.35
962.636	2347.4583	3103.85	2225.4
962.7675	2348.8767	3088	2211.3
962.8989	2350.2943	3093.1	2216.4
963.0303	2351.7113	3083.05	2204.95
963.1617	2353.1275	3080.5	2203.35
963.293	2354.543	3065.6	2180.1
963.4243	2355.9578	3065.55	2189.55
963.5556	2357.3718	3033.8	2157.35
963.6868	2358.7852	3042.9	2164.25
963.818	2360.1978	3018.75	2141.55
963.9492	2361.6098	3015.2	2139.95
964.0803	2363.021	3010.15	2128.75
964.2114	2364.4315	3008.5	2134.55
964.3425	2365.8413	3016.2	2133.5
964.4736	2367.2504	2993.35	2118.35
964.6046	2368.6587	2981.75	2107.25
964.7356	2370.0664	2975.25	2100
964.8666	2371.4733	2967.65	2089.85
964.9975	2372.8795	2966	2088.6
965.1284	2374.285	2939.85	2062.5
965.2593	2375.6899	2928.3	2051.9
965.3901	2377.0939	2921.15	2044.55
965.5209	2378.4973	2913.3	2038.35
965.6517	2379.9	2915.95	2040.1
965.7825	2381.3019	2906.4	2029.35
965.9132	2382.7032	2902.3	2027.95
966.0439	2384.1037	2891.9	2018.1
966.1745	2385.5035	2884.75	2008.25
966.3051	2386.9027	2880.75	2006
966.4357	2388.3011	2878.3	1998.8
966.5663	2389.6987	2865.35	1987.25
966.6968	2391.0957	2860.2	1984.7
966.8273	2392.492	2848	1973.75
966.9578	2393.8876	2847.1	1970.9
967.0882	2395.2824	2834.05	1957.45
967.2186	2396.6765	2824.4	1948.2
967.349	2398.07	2808.45	1931.7
967.4793	2399.4627	2811.8	1932.15
967.6097	2400.8547	2804.8	1928.15
967.7399	2402.246	2812.4	1930.95
967.8702	2403.6366	2788.05	1911.2
968.0004	2405.0265	2772.9	1898.95
968.1306	2406.4156	2770.1	1889.2
968.2607	2407.8041	2764.75	1884.75
968.3909	2409.1918	2758.1	1878.25
968.521	2410.5789	2746.2	1868.1
968.651	2411.9652	2732.35	1852.2
968.781	2413.3508	2727.75	1848.7
968.911	2414.7358	2719.65	1842.65
969.041	2416.12	2718.8	1842.2
969.1709	2417.5035	2715.7	1838.7
969.3008	2418.8863	2708.9	1831.75
969.4307	2420.2684	2693.4	1816.55
969.5606	2421.6497	2680.7	1804.1
969.6904	2423.0304	2681.75	1807.95
969.8201	2424.4104	2669.65	1792.75
969.9499	2425.7896	2677.75	1800.1
970.0796	2427.1682	2664.85	1788.05
970.2093	2428.546	2662.85	1784.2
970.3389	2429.9232	2657.85	1780.45
970.4685	2431.2996	2647.8	1770.35
970.5981	2432.6753	2636	1760.55
970.7277	2434.0503	2641.75	1767.45
970.8572	2435.4246	2636.15	1760.7
970.9867	2436.7982	2620.8	1742
971.1161	2438.1711	2612.75	1737
971.2456	2439.5433	2609.85	1731.35
971.375	2440.9148	2599.55	1716.95
971.5043	2442.2856	2595.55	1719.1
971.6336	2443.6557	2603.3	1724.3
971.7629	2445.025	2585.9	1709.3
971.8922	2446.3937	2589.45	1710.75
972.0214	2447.7617	2583.85	1706.35
972.1506	2449.1289	2570.7	1695.8
972.2798	2450.4955	2572.3	1692.8
972.4089	2451.8613	2563.75	1688.55
972.538	2453.2265	2548.8	1672.5
972.6671	2454.5909	2551.5	1673.95
972.7961	2455.9546	2545.1	1667.4
972.9251	2457.3177	2535.2	1658.5
973.0541	2458.68	2535.85	1656.5
973.1831	2460.0416	2532.75	1658.15
973.312	2461.4025	2539.5	1661.8
973.4408	2462.7627	2531.55	1641.05
973.5697	2464.1222	2512.4	1637.7
973.6985	2465.4811	2510.4	1632.25
973.8273	2466.8392	2506.65	1630.85
973.956	2468.1966	2508	1628.6
974.0847	2469.5533	2510.1	1631.15
974.2134	2470.9093	2493.3	1616.3
974.3421	2472.2645	2485.55	1606.95
974.4707	2473.6191	2475.25	1599.65
974.5993	2474.973	2473.4	1596.9
974.7278	2476.3262	2461.9	1583.65
974.8563	2477.6787	2454.3	1578.7
974.9848	2479.0305	2444.85	1569
975.1132	2480.3816	2451.55	1570.45
975.2417	2481.7319	2451.85	1577.1
975.37	2483.0816	2444.35	1565.25
975.4984	2484.4306	2427.3	1550.05
975.6267	2485.7789	2428.95	1555.65
975.755	2487.1264	2413.3	1534.7
975.8833	2488.4733	2410.85	1536.2
976.0115	2489.8195	2417.8	1532.35
976.1397	2491.165	2402.5	1522.85
976.2678	2492.5097	2398.2	1518.05
976.3959	2493.8538	2388.85	1511.05
976.524	2495.1972	2381.1	1504.25
976.6521	2496.5398	2369.35	1491.15
976.7801	2497.8818	2375.85	1495.95
976.9081	2499.2231	2364.05	1488.25
977.036	2500.5637	2359.8	1480.9
977.164	2501.9035	2352.3	1477.35
977.2918	2503.2427	2359.05	1477.4
977.4197	2504.5812	2344	1466.6
977.5475	2505.919	2338.7	1458.8
977.6753	2507.256	2344.75	1467.7
977.8031	2508.5924	2334.5	1458.55
977.9308	2509.9281	2327.15	1444.8
978.0585	2511.2631	2321.25	1444.15
978.1861	2512.5974	2321.15	1445
978.3137	2513.9309	2318.3	1440.25
978.4413	2515.2638	2323.85	1418.5
978.5689	2516.596	2298.15	1422.15
978.6964	2517.9275	2289.2	1410.85
978.8239	2519.2583	2298	1419.55
978.9513	2520.5884	2279.3	1400.6
979.0788	2521.9178	2273.15	1395.9
979.2062	2523.2465	2270.45	1394.35
979.3335	2524.5745	2254.3	1376.55
979.4608	2525.9018	2252.05	1374
979.5881	2527.2284	2251.1	1376.6
979.7154	2528.5543	2250.7	1375.5
979.8426	2529.8796	2243.1	1365.85
979.9698	2531.2041	2244.5	1365.25
980.0969	2532.5279	2237.6	1362.65
980.224	2533.851	2232.1	1353.3
980.3511	2535.1735	2217.55	1341.2
980.4781	2536.4952	2228.6	1352.3
980.6052	2537.8163	2224.8	1346.5
980.7321	2539.1366	2215.45	1339
980.8591	2540.4562	2216.2	1340.5
980.986	2541.7752	2209.55	1332.15
981.1129	2543.0935	2211.2	1333
981.2397	2544.411	2211.1	1333.3
981.3665	2545.7279	2198.9	1324.05
981.4933	2547.0441	2204.3	1329.35
981.62	2548.3596	2200.15	1321.7
981.7467	2549.6744	2181.85	1306.2
981.8734	2550.9885	2201.85	1318.6
982.0001	2552.3019	2176.25	1301.35
982.1267	2553.6146	2177.7	1300.8
982.2532	2554.9266	2167.55	1290.25
982.3798	2556.2379	2169.3	1288.95
982.5063	2557.5485	2168.7	1293.5
982.6327	2558.8585	2162.4	1278.6
982.7592	2560.1677	2168.4	1288.7
982.8856	2561.4762	2159.45	1280.7
983.0119	2562.7841	2155.05	1276.2
983.1383	2564.0913	2151.05	1276.6
983.2646	2565.3977	2144.85	1270.2
983.3908	2566.7035	2142.4	1266.3
983.517	2568.0086	2141.8	1262.6
983.6432	2569.313	2151.15	1273.55
983.7694	2570.6167	2134.45	1252.85
983.8955	2571.9197	2116.85	1241
984.0216	2573.222	2130.9	1250.05
984.1476	2574.5236	2118.9	1241.8
984.2737	2575.8246	2123.7	1243.2
984.3996	2577.1248	2118.7	1241.25
984.5256	2578.4244	2114.95	1238.65
984.6515	2579.7232	2115.9	1239.4
984.7774	2581.0214	2123	1222.1
984.9032	2582.3189	2097.1	1220.1
985.029	2583.6157	2107.6	1227.2
985.1548	2584.9118	2095.2	1217.25
985.2806	2586.2072	2086.9	1208.65
985.4063	2587.5019	2086.8	1210.85
985.5319	2588.7959	2084.25	1208.85
985.6576	2590.0893	2076.55	1198.25
985.7832	2591.3819	2074.7	1198.55
985.9087	2592.6739	2069.6	1193.65
986.0343	2593.9652	2065.5	1188.9
986.1597	2595.2557	2059.9	1182.75
986.2852	2596.5456	2058.25	1180.3
986.4106	2597.8348	2050.65	1174.25
986.536	2599.1234	2038.85	1162.45
986.6614	2600.4112	2041.75	1165.25
986.7867	2601.6983	2038.3	1158.5
986.912	2602.9848	2030.4	1153.6
987.0372	2604.2705	2038.15	1154.75
987.1624	2605.5556	2026.05	1148.9
987.2876	2606.84	2015.9	1141.15
987.4128	2608.1237	2009.15	1130.05
987.5379	2609.4067	2009.75	1132.2
987.6629	2610.689	2016.8	1132
987.788	2611.9707	2001.3	1121.35
987.913	2613.2516	2002.6	1122.65
988.0379	2614.5319	1986.9	1110.95
988.1629	2615.8115	1984.85	1108.35
988.2878	2617.0903	1970.75	1093.25
988.4126	2618.3685	1969.6	1091.65
988.5375	2619.6461	1969.75	1092.75
988.6622	2620.9229	1962.9	1084.55
988.787	2622.199	1960.6	1083.65
988.9117	2623.4745	1954.7	1076.55
989.0364	2624.7493	1956.8	1080.5
989.161	2626.0234	1943.3	1068.3
989.2857	2627.2968	1949.85	1074.15
989.4102	2628.5695	1944.6	1068.05
989.5348	2629.8415	1930.25	1054.85
989.6593	2631.1128	1930.75	1052.3
989.7837	2632.3835	1920.35	1043.5
989.9082	2633.6535	1924.2	1047.45
990.0326	2634.9228	1910.5	1035.15
990.1569	2636.1914	1909.05	1032.5
990.2812	2637.4593	1911.45	1030.45
990.4055	2638.7265	1902.3	1024.6
990.5298	2639.9931	1905.9	1026.9
990.654	2641.259	1892.75	1016.35
990.7782	2642.5242	1894.35	1016.65
990.9023	2643.7887	1888.4	1009.2
991.0264	2645.0525	1884.2	1007.9
991.1505	2646.3156	1880.35	1002.8
991.2745	2647.5781	1870.95	994
991.3985	2648.8398	1862.25	986.4
991.5225	2650.1009	1879.45	992.85
991.6464	2651.3613	1861.65	986
991.7703	2652.6211	1866.6	989.3
991.8942	2653.8801	1858.9	983.3
992.018	2655.1385	1855.25	974.9
992.1418	2656.3961	1851.95	976.8
992.2655	2657.6531	1849.9	975.05
992.3892	2658.9094	1856.9	981.3
992.5129	2660.1651	1840.4	963.05
992.6366	2661.42	1848.15	971.4
992.7602	2662.6743	1844.85	967.3
992.8837	2663.9279	1837	958.8
993.0073	2665.1808	1829.9	953.2
993.1307	2666.433	1831.5	954.5
993.2542	2667.6846	1824.05	948.55
993.3776	2668.9354	1831.05	949.8
993.501	2670.1856	1822.95	943.55
993.6244	2671.4351	1811.8	935.6
993.7477	2672.6839	1807.7	929
993.8709	2673.9321	1807.9	932.4
993.9942	2675.1795	1807.6	931.4
994.1174	2676.4263	1794.1	918
994.2405	2677.6724	1799.7	925.75
994.3637	2678.9179	1793.5	916.3
994.4868	2680.1626	1780.75	905.65
994.6098	2681.4067	1791.9	916.25
994.7328	2682.6501	1785.7	907.5
994.8558	2683.8928	1778.45	905.1
994.9788	2685.1348	1777.2	901.4
995.1017	2686.3761	1775.95	899.2
995.2245	2687.6168	1770.55	893.1
995.3474	2688.8568	1771.7	894.45
995.4702	2690.0961	1765.1	890
995.5929	2691.3348	1765.3	888.4
995.7156	2692.5727	1756.85	880.1
995.8383	2693.81	1757.4	881.45
995.961	2695.0466	1750.25	874.1
996.0836	2696.2826	1746.95	869.2
996.2062	2697.5178	1761.8	866.15
996.3287	2698.7524	1745.75	870.25
996.4512	2699.9863	1737.15	858.15
996.5737	2701.2195	1726.3	849.9
996.6961	2702.452	1731.25	853.85
996.8185	2703.6839	1725.2	848.4
996.9408	2704.9151	1726.8	851.25
997.0631	2706.1456	1720.3	843.55
997.1854	2707.3755	1714	836.5
997.3077	2708.6046	1719.95	842.5
997.4299	2709.8331	1719.1	841.15
997.552	2711.0609	1709.55	832
997.6742	2712.2881	1705.65	829.55
997.7963	2713.5145	1711	830.85
997.9183	2714.7403	1697.55	821.3
998.0403	2715.9654	1692.95	817.75
998.1623	2717.1899	1711.25	819.25
998.2842	2718.4136	1686.15	810.15
998.4062	2719.6367	1690.05	813.05
998.528	2720.8591	1693.95	811.25
998.6498	2722.0809	1685.2	810.1
998.7716	2723.3019	1687.3	808.3
998.8934	2724.5223	1687.6	810
999.0151	2725.7421	1678.85	800.45
999.1368	2726.9611	1671.05	793.3
999.2584	2728.1795	1673.95	792.9
999.38	2729.3972	1659.3	782.45
999.5016	2730.6142	1683.1	794
999.6231	2731.8306	1656.4	778.65
999.7446	2733.0462	1648.6	771.4
999.8661	2734.2612	1644.15	763.55
999.9875	2735.4756	1645.75	767.1
1000.1089	2736.6892	1636.3	758.7
1000.2302	2737.9022	1621.8	745.2
1000.3515	2739.1145	1623.85	747.45
1000.4728	2740.3262	1634.8	752.8
1000.594	2741.5372	1614.9	738.5
1000.7152	2742.7475	1617.2	742.15
1000.8363	2743.9571	1618.45	739.65
1000.9575	2745.1661	1616.05	735.95
1001.0785	2746.3744	1605.75	729.35
1001.1996	2747.582	1604.1	727.45
1001.3206	2748.7889	1599	721.7
1001.4415	2749.9952	1598.5	722.35
1001.5625	2751.2008	1594.7	717.55
1001.6833	2752.4057	1600.7	723.85
1001.8042	2753.61	1590	715.65
1001.925	2754.8136	1592.85	714.3
1002.0458	2756.0165	1582.05	704.6
1002.1665	2757.2188	1579.85	705
1002.2872	2758.4204	1580.05	705.05
1002.4078	2759.6213	1574.9	696.05
1002.5285	2760.8215	1574.7	693.55
1002.649	2762.0211	1575.4	696.45
1002.7696	2763.22	1567.05	687.95
1002.8901	2764.4182	1566.7	689.65
1003.0106	2765.6158	1564.65	689
1003.131	2766.8127	1557.95	681.75
1003.2514	2768.009	1548.3	671.8
1003.3717	2769.2045	1552.6	674.9
1003.492	2770.3994	1550.9	672.75
1003.6123	2771.5936	1548.1	670.7
1003.7325	2772.7872	1540.1	663.65
1003.8527	2773.9801	1545.7	668.3
1003.9729	2775.1723	1551.85	659.15
1004.093	2776.3639	1536.2	661.75
1004.2131	2777.5548	1528.4	650.25
1004.3331	2778.745	1534.4	656.35
1004.4531	2779.9346	1532.6	656.55
1004.5731	2781.1235	1527.45	650.85
1004.693	2782.3117	1513.6	638.05
1004.8129	2783.4992	1519.2	644.05
1004.9328	2784.6861	1521.6	646.05
1005.0526	2785.8723	1511.9	636.3
1005.1723	2787.0579	1517.9	640.9
1005.2921	2788.2428	1511.25	633.6
1005.4118	2789.427	1513.75	638.45
1005.5314	2790.6106	1510.55	633.75
1005.651	2791.7935	1500.15	622.3
1005.7706	2792.9757	1499.6	624.6
1005.8902	2794.1573	1497.4	619.25
1006.0097	2795.3382	1485.6	610.1
1006.1291	2796.5184	1487.45	611.65
1006.2485	2797.698	1494.35	617.05
1006.3679	2798.8769	1492.95	616.3
1006.4873	2800.0551	1483.45	606.5
1006.6066	2801.2327	1476.25	598.35
1006.7258	2802.4096	1479.25	604.85
1006.8451	2803.5859	1470.9	594
1006.9642	2804.7615	1470.95	594.9
1007.0834	2805.9364	1467.5	591.15
1007.2025	2807.1106	1471.3	596.35
1007.3216	2808.2842	1473.35	596.1
1007.4406	2809.4572	1469.1	592.75
1007.5596	2810.6294	1461.5	585.5
1007.6785	2811.801	1455.45	579.85
1007.7975	2812.972	1469	594
1007.9163	2814.1423	1462	585.1
1008.0352	2815.3119	1458.2	581.15
1008.154	2816.4808	1466.25	589.45
1008.2727	2817.6491	1475.9	597.85
1008.3914	2818.8167	1463.65	586.75
1008.5101	2819.9837	1475.4	594.2
1008.6288	2821.15	1467.9	590.45
1008.7474	2822.3157	1476.15	603.55
1008.8659	2823.4807	1481.25	605
1008.9844	2824.645	1485.05	607.7
1009.1029	2825.8086	1490	615.3
1009.2214	2826.9716	1497.15	622.15
1009.3398	2828.134	1504.15	628.1
1009.4581	2829.2957	1506.8	630.05
1009.5764	2830.4567	1517.4	643.55
1009.6947	2831.617	1513.15	636.8
1009.813	2832.7767	1518.35	643.35
1009.9312	2833.9358	1508.75	633.9
1010.0493	2835.0941	1516.25	637.9
1010.1675	2836.2519	1511.2	634.7
1010.2855	2837.4089	1501.5	624.3
1010.4036	2838.5653	1497.05	622.35
1010.5216	2839.7211	1488.95	613.25
1010.6396	2840.8761	1488.15	609.75
1010.7575	2842.0306	1486.7	612.8
1010.8754	2843.1843	1485.6	608.45
1010.9932	2844.3374	1482.15	606.45
1011.111	2845.4899	1480.65	604.2
1011.2288	2846.6417	1487.35	610.3
1011.3465	2847.7928	1476.35	599.65
1011.4642	2848.9433	1484.9	611.15
1011.5818	2850.0931	1484.85	608.45
1011.6995	2851.2422	1486.3	609.5
1011.817	2852.3907	1489.85	612.85
1011.9345	2853.5385	1480.4	602.55
1012.052	2854.6857	1492.45	606.35
1012.1695	2855.8323	1474.6	598.4
1012.2869	2856.9781	1484	605.45
1012.4042	2858.1233	1474.1	597.75
1012.5216	2859.2679	1481.2	603.7
1012.6389	2860.4118	1486.7	610.25
1012.7561	2861.555	1492.3	611.9
1012.8733	2862.6976	1487.75	610.4
1012.9905	2863.8395	1484.4	609.9
1013.1076	2864.9808	1486.45	611.5
1013.2247	2866.1214	1492.55	618.15
1013.3417	2867.2614	1489.85	614.35
1013.4587	2868.4007	1485.45	607.55
1013.5757	2869.5393	1487.25	608
1013.6926	2870.6773	1486.5	608.2
1013.8095	2871.8146	1483.65	604.5
1013.9263	2872.9513	1482.15	604.35
1014.0431	2874.0874	1475.05	600.85
1014.1599	2875.2227	1476.25	598.9
1014.2766	2876.3574	1488.35	613.15
1014.3933	2877.4915	1478.8	602.95
1014.51	2878.6249	1483.05	607.6
1014.6266	2879.7577	1483.4	606.05
1014.7431	2880.8898	1487.45	601.75
1014.8596	2882.0212	1480.6	609.05
1014.9761	2883.152	1476.2	599.9
1015.0925	2884.2821	1479.2	603.85
1015.2089	2885.4116	1474.7	599.2
1015.3253	2886.5405	1485.25	609.2
1015.4416	2887.6686	1482.65	604.55
1015.5579	2888.7962	1470.6	595.95
1015.6741	2889.923	1480.3	606.3
1015.7903	2891.0493	1476.9	602.4
1015.9065	2892.1748	1473.7	597.55
1016.0226	2893.2997	1470.95	594.45
1016.1387	2894.424	1463.8	589.6
1016.2547	2895.5476	1467.1	591.4
1016.3707	2896.6706	1471.05	595.85
1016.4866	2897.7929	1465.9	589.9
1016.6025	2898.9145	1463.65	587.95
1016.7184	2900.0355	1457.5	581.05
1016.8342	2901.1559	1458.1	583.15
1016.95	2902.2756	1447.7	571.3
1017.0658	2903.3946	1452.6	576.4
1017.1815	2904.513	1453.7	574.6
1017.2971	2905.6308	1454.75	579.6
1017.4127	2906.7479	1460.35	583.5
1017.5283	2907.8643	1448.3	571.4
1017.6439	2908.9801	1444.75	568.2
1017.7594	2910.0953	1440.65	566.6
1017.8748	2911.2098	1437.45	557.65
1017.9902	2912.3236	1448.8	564.45
1018.1056	2913.4368	1440.5	564.05
1018.2209	2914.5494	1438.2	563
1018.3362	2915.6613	1427.85	549
1018.4515	2916.7725	1427.05	548.65
1018.5667	2917.8831	1431.1	552.5
1018.6819	2918.9931	1422.45	546.1
1018.797	2920.1024	1413.85	536.1
1018.9121	2921.211	1411.65	538.35
1019.0271	2922.319	1403.35	528.95
1019.1421	2923.4264	1398.5	523.9
1019.2571	2924.5331	1401.1	527.8
1019.372	2925.6391	1396.3	521.3
1019.4869	2926.7445	1394.15	519.9
1019.6017	2927.8493	1392.45	516.8
1019.7165	2928.9534	1394.55	516.25
1019.8313	2930.0569	1397	518.85
1019.946	2931.1597	1395.75	518.15
1020.0606	2932.2619	1396.4	520.75
1020.1753	2933.3634	1394.35	518.9
1020.2899	2934.4643	1403.6	523.7
1020.4044	2935.5645	1392.6	510.85
1020.5189	2936.6641	1393.05	513.1
1020.6334	2937.763	1384.35	508.5
1020.7478	2938.8613	1395.05	519.55
1020.8622	2939.959	1387.05	504.85
1020.9765	2941.056	1375.65	500.4
1021.0908	2942.1523	1370.3	494.4
1021.2051	2943.248	1364.5	487.7
1021.3193	2944.3431	1355.3	480.4
1021.4334	2945.4375	1342.7	466.4
1021.5476	2946.5313	1337.2	462.95
1021.6617	2947.6244	1329.1	453.2
1021.7757	2948.7169	1322.2	444.65
1021.8897	2949.8087	1310.7	436.05
1022.0037	2950.8999	1305.95	429.6
1022.1176	2951.9904	1301.75	426.8
1022.2315	2953.0803	1293.25	416.5
1022.3453	2954.1696	1285.5	410.8
1022.4591	2955.2582	1279.65	403.65
1022.5728	2956.3462	1276.75	402.25
1022.6865	2957.4335	1278.5	402.75
1022.8002	2958.5202	1277.05	399.2
1022.9138	2959.6062	1270.3	393.65
1023.0274	2960.6916	1269.5	395
1023.141	2961.7764	1266.1	389.2
1023.2545	2962.8605	1266.25	389.75
1023.3679	2963.9439	1260.55	385.4
1023.4813	2965.0267	1258.35	381.35
1023.5947	2966.1089	1277.75	379.2
1023.708	2967.1905	1255.85	382.6
1023.8213	2968.2714	1255.25	382.2
1023.9346	2969.3516	1253	376.9
1024.0478	2970.4312	1261.05	377.35
1024.1609	2971.5102	1245	368.7
1024.274	2972.5885	1249.8	375.65
1024.3871	2973.6662	1252.05	371.15
1024.5002	2974.7432	1244.85	369.75
1024.6132	2975.8196	1240.85	365.6
1024.7261	2976.8954	1242.05	367.2
1024.839	2977.9705	1243.3	366.5
1024.9519	2979.045	1240.75	364.9
1025.0647	2980.1188	1239.85	365.35
1025.1775	2981.192	1233.1	358.45
1025.2902	2982.2645	1232.45	357.5
1025.4029	2983.3364	1228.3	353.15
1025.5156	2984.4077	1230.1	354.3
1025.6282	2985.4783	1227.8	346.85
1025.7407	2986.5483	1224.4	348.9
1025.8532	2987.6177	1219.5	344.5
1025.9657	2988.6864	1215.4	341.05
1026.0782	2989.7545	1210.25	332.5
1026.1906	2990.8219	1205.6	331.4
1026.3029	2991.8887	1204.9	326.9
1026.4152	2992.9548	1197.15	320.25
1026.5275	2994.0204	1200.05	326.15
1026.6397	2995.0852	1193.8	320
1026.7519	2996.1495	1192.2	315.75
1026.864	2997.2131	1187.15	311.5
1026.9761	2998.276	1180.05	304.45
1027.0882	2999.3383	1176.7	301.55
1027.2002	3000.4	1176.85	299.6
1027.3122	3001.4611	1170.85	294.6
1027.4241	3002.5215	1173	297.05
1027.536	3003.5812	1164.6	288.8
1027.6478	3004.6404	1162.5	285.8
1027.7596	3005.6989	1169.65	291.4
1027.8714	3006.7567	1158.6	284.25
1027.9831	3007.8139	1182.5	282.9
1028.0947	3008.8705	1157.8	285.1
1028.2064	3009.9264	1161.7	281.1
1028.3179	3010.9818	1153.25	280.2
1028.4295	3012.0364	1154.6	278.45
1028.541	3013.0905	1160.45	284.45
1028.6524	3014.1439	1148.85	274.6
1028.7638	3015.1966	1150.95	276.45
1028.8752	3016.2487	1146.8	271.35
1028.9865	3017.3002	1154.2	271.5
1029.0978	3018.3511	1142.75	269.35
1029.209	3019.4013	1141.45	265.6
1029.3202	3020.4509	1142.75	269.4
1029.4314	3021.4998	1142.5	266.15
1029.5425	3022.5481	1141.15	266.4
1029.6535	3023.5958	1144	267.9
1029.7645	3024.6428	1140.3	263.55
1029.8755	3025.6892	1136.75	259.85
1029.9864	3026.735	1131.9	256.8
1030.0973	3027.7802	1135.85	260.8
1030.2082	3028.8247	1128.7	253.85
1030.319	3029.8685	1133.35	257.05
1030.4297	3030.9118	1133.4	256.35
1030.5404	3031.9544	1128.65	251.15
1030.6511	3032.9963	1122.9	248.6
1030.7617	3034.0376	1129.15	253.25
1030.8723	3035.0783	1127.55	250
1030.9829	3036.1184	1126.1	249.5
1031.0934	3037.1578	1122.75	247.85
1031.2038	3038.1966	1128.05	251.75
1031.3142	3039.2348	1120	245.8
1031.4246	3040.2723	1123.85	239.9
1031.5349	3041.3092	1115.95	240
1031.6452	3042.3455	1120.1	245.6
1031.7554	3043.3811	1119.85	243.4
1031.8656	3044.4161	1119.4	244.4
1031.9758	3045.4505	1118	243.5
1032.0859	3046.4842	1116.15	240.5
1032.1959	3047.5173	1112.75	238.35
1032.3059	3048.5498	1112.95	235
1032.4159	3049.5816	1117.65	242.5
1032.5258	3050.6128	1114.95	237.8
1032.6357	3051.6434	1116	238.8
1032.7455	3052.6734	1111.4	234.7
1032.8553	3053.7027	1113.7	238.15
1032.9651	3054.7314	1110.15	235.05
1033.0748	3055.7594	1108.1	232.25
1033.1845	3056.7868	1111.8	235.7
1033.2941	3057.8136	1106.25	231.35
1033.4037	3058.8398	1096.6	221.3
1033.5132	3059.8653	1102.45	227.8
1033.6227	3060.8902	1106.3	231.85
1033.7321	3061.9145	1100.9	228.5
1033.8415	3062.9381	1104.85	229.65
1033.9509	3063.9612	1116.65	225.6
1034.0602	3064.9835	1104.15	229.05
1034.1694	3066.0053	1102.7	223.7
1034.2787	3067.0264	1099.45	223.6
1034.3878	3068.0469	1102.15	226.4
1034.497	3069.0668	1098.65	221.15
1034.6061	3070.086	1099.95	226.6
1034.7151	3071.1046	1096.9	221.05
1034.8241	3072.1226	1094.2	217.5
1034.9331	3073.1399	1095.5	221.3
1035.042	3074.1567	1096.2	220.05
1035.1508	3075.1727	1094.85	219.5
1035.2597	3076.1882	1087.3	212.65
1035.3684	3077.203	1082.75	207.3
1035.4772	3078.2173	1086.45	210.75
1035.5859	3079.2308	1087.6	208.1
1035.6945	3080.2438	1085.95	208.5
1035.8031	3081.2561	1084.3	210.2
1035.9117	3082.2678	1080.75	206.7
1036.0202	3083.2789	1077.95	204.25
1036.1286	3084.2893	1077.4	201.55
1036.2371	3085.2991	1079.2	203.3
1036.3454	3086.3083	1082.2	204.2
1036.4538	3087.3169	1078.6	201.75
1036.562	3088.3248	1080.05	201.65
1036.6703	3089.3321	1078.65	202.25
1036.7785	3090.3388	1077.25	203.85
1036.8866	3091.3449	1074.05	201.15
1036.9948	3092.3503	1075.5	196.65
1037.1028	3093.3551	1067.15	193.25
1037.2108	3094.3593	1072.05	197.3
1037.3188	3095.3629	1071.1	197.85
1037.4267	3096.3658	1066.35	190.25
1037.5346	3097.3681	1068.4	193.1
1037.6425	3098.3698	1063.65	187.1
1037.7503	3099.3708	1070	184.95
1037.858	3100.3713	1063.8	188.55
1037.9657	3101.3711	1065.1	192.1
1038.0734	3102.3702	1186.6	175.3
1038.181	3103.3688	1061.9	184.55
1038.2886	3104.3667	1060.55	185.7
1038.3961	3105.364	1059.55	181.55
1038.5036	3106.3607	1053.6	176.8
1038.611	3107.3568	1056.9	179.8
1038.7184	3108.3522	1052.35	178.65
1038.8257	3109.347	1056.05	183
1038.933	3110.3412	1054	176
1039.0403	3111.3348	1049.15	172.3
1039.1475	3112.3277	1048.6	172.75
1039.2547	3113.32	1049.05	175.55
1039.3618	3114.3117	1046.15	171.4
1039.4689	3115.3028	1049.4	174.85
1039.5759	3116.2932	1051.7	173.85
1039.6829	3117.2831	1051.9	172.2
1039.7898	3118.2723	1046.95	172.05
1039.8967	3119.2608	1044.5	170.1
1040.0035	3120.2488	1043.55	169.55
1040.1103	3121.2361	1044.3	170.9
1040.2171	3122.2229	1036.85	163.05
1040.3238	3123.209	1040.45	164.4
1040.4305	3124.1944	1042	168.1
1040.5371	3125.1793	1040.8	163.7
1040.6437	3126.1635	1034.9	160.95
1040.7502	3127.1471	1035.7	160.7
1040.8567	3128.1301	1035.65	161.1
1040.9631	3129.1125	1034.25	160
1041.0695	3130.0942	1032.4	156.05
1041.1759	3131.0753	1039.9	156.3
1041.2822	3132.0558	1031.95	153.55
1041.3884	3133.0357	1032.5	156.15
1041.4946	3134.015	1026.25	149.25
1041.6008	3134.9936	1028.5	151.55
1041.7069	3135.9716	1054.05	158.5
1041.813	3136.949	1028.15	153.2
1041.919	3137.9258	1033.85	152.55
1042.025	3138.902	1029.6	148.2
1042.1309	3139.8775	1028.9	152.35
1042.2368	3140.8524	1026.05	151.4
1042.3427	3141.8267	1026.15	148.35
1042.4485	3142.8004	1023.4	147
1042.5542	3143.7735	1030.2	148.45
1042.6599	3144.7459	1023.65	147.4
1042.7656	3145.7178	1023.8	147.4
1042.8712	3146.689	1021	145.5
1042.9768	3147.6596	1023.5	146.5
1043.0823	3148.6295	1018.65	143.95
1043.1878	3149.5989	1022.55	147.45
1043.2932	3150.5676	1018.3	146.25
1043.3986	3151.5357	1013.6	139.25
1043.5039	3152.5032	1017.95	143.25
1043.6092	3153.4701	1015.45	141.6
1043.7145	3154.4364	1020	142.1
1043.8197	3155.402	1011.65	136.4
1043.9248	3156.367	1011.95	134.15
1044.03	3157.3315	1048.3	135.6
1044.135	3158.2952	1011.55	136.7
1044.24	3159.2584	1008.7	134.5
1044.345	3160.221	1005.45	129.65
1044.4499	3161.1829	1007.2	131.35
1044.5548	3162.1442	1008.4	132.85
1044.6596	3163.105	1007.55	133.05
1044.7644	3164.065	1006.3	132.5
1044.8692	3165.0245	1008.1	129.1
1044.9739	3165.9834	1004.15	129.4
1045.0785	3166.9416	1009.2	134.25
1045.1831	3167.8993	1005.45	128.45
1045.2877	3168.8563	1004.2	128.8
1045.3922	3169.8127	1003.9	129.5
1045.4966	3170.7684	1000.15	125.6
1045.6011	3171.7236	1003.1	125.9
1045.7054	3172.6782	1003.9	128.35
1045.8098	3173.6321	1002.75	127.3
1045.914	3174.5854	1005	126.95
1046.0183	3175.5381	999.25	123.55
1046.1224	3176.4902	997.4	122.3
1046.2266	3177.4417	994	118.65
1046.3307	3178.3926	997.9	123.85
1046.4347	3179.3428	996.4	121.6
1046.5387	3180.2924	987.85	113.1
1046.6427	3181.2415	991.75	116.25
1046.7466	3182.1899	993.15	115.3
1046.8504	3183.1377	995.7	122.25
1046.9542	3184.0848	994.85	116.35
1047.058	3185.0314	994.15	119.2
1047.1617	3185.9773	991.35	115.65
1047.2654	3186.9227	989.35	113
1047.369	3187.8674	986.9	111.45
1047.4726	3188.8115	997.95	119
1047.5761	3189.755	989.7	115.8
1047.6796	3190.6979	987.85	113.45
1047.783	3191.6402	988.15	114.75
1047.8864	3192.5818	987.2	111.5
1047.9898	3193.5229	993	112.7
1048.0931	3194.4633	986.75	111.35
1048.1963	3195.4031	982.8	106.9
1048.2995	3196.3423	985.55	110.4
1048.4027	3197.2809	985.55	110.9
1048.5058	3198.2189	985.45	108
1048.6089	3199.1563	989.5	109
1048.7119	3200.0931	982.7	109.2
1048.8148	3201.0292	983.8	110.7
1048.9178	3201.9648	982.85	106.95
1049.0206	3202.8997	987.6	108.35
1049.1235	3203.834	981.35	107.95
1049.2262	3204.7677	977.95	103.8
1049.329	3205.7008	982.6	104.95
1049.4317	3206.6333	980.4	107.1
1049.5343	3207.5652	982.95	105.05
1049.6369	3208.4964	977.05	101.35
1049.7394	3209.4271	976.65	103
1049.8419	3210.3571	978.6	104.15
1049.9444	3211.2865	976.95	101.95
1050.0468	3212.2154	979.65	102.8
1050.1491	3213.1436	975.8	97.1
1050.2514	3214.0712	984.05	101.65
1050.3537	3214.9982	971.55	96.05
1050.4559	3215.9246	978.4	102.75
1050.5581	3216.8503	971.6	97.55
1050.6602	3217.7755	974.45	98.25
1050.7623	3218.7001	974.95	100.65
1050.8643	3219.624	972.1	97.55
1050.9663	3220.5473	974.65	98.35
1051.0682	3221.4701	971.5	95.35
1051.1701	3222.3922	972.45	94.35
1051.2719	3223.3137	970.3	95
1051.3737	3224.2346	967.2	90.8
1051.4754	3225.1549	966.55	93.7
1051.5771	3226.0746	970.15	95.55
1051.6788	3226.9937	970.2	95.85
1051.7804	3227.9121	966.7	93.95
1051.8819	3228.83	964.2	89.8
1051.9834	3229.7473	966.25	91.4
1052.0849	3230.6639	965.9	89.1
1052.1863	3231.5799	966.85	90.85
1052.2876	3232.4954	964.2	88.6
1052.3889	3233.4102	967.2	91.5
1052.4902	3234.3244	964.2	89.05
1052.5914	3235.238	958.95	84.25
1052.6926	3236.151	986.5	89.65
1052.7937	3237.0634	961.95	89.05
1052.8948	3237.9752	961.85	86.2
1052.9958	3238.8864	963.6	89.8
1053.0968	3239.797	963.2	88.9
1053.1977	3240.7069	961.05	87
1053.2986	3241.6163	961.55	83.9
1053.3994	3242.5251	958.35	83.6
1053.5002	3243.4332	956.9	85.55
1053.6009	3244.3408	959.65	85.4
1053.7016	3245.2477	957	82.35
1053.8022	3246.154	957.6	83
1053.9028	3247.0598	956.85	81.6
1054.0034	3247.9649	957.45	82.6
1054.1039	3248.8694	949.35	74
1054.2043	3249.7733	953.45	79.95
1054.3047	3250.6766	949.7	72.95
1054.4051	3251.5793	953.6	77.8
1054.5054	3252.4814	954.3	81.05
1054.6056	3253.3829	951.5	75.95
1054.7058	3254.2838	950.85	74.55
1054.806	3255.1841	955.05	82.4
1054.9061	3256.0838	951.25	73.2
1055.0061	3256.9829	951.75	76.7
1055.1062	3257.8814	949.8	71.45
1055.2061	3258.7792	954.45	76.2
1055.306	3259.6765	946.6	70.35
1055.4059	3260.5731	945.55	71.8
1055.5057	3261.4692	946.9	73.55
1055.6055	3262.3647	946.25	70.9
1055.7052	3263.2595	946.55	72.05
1055.8049	3264.1538	940.85	68
1055.9045	3265.0474	943.85	68.4
1056.0041	3265.9404	941.4	66.65
1056.1036	3266.8329	939.65	64.95
1056.2031	3267.7247	949	62.2
1056.3025	3268.616	936.45	60.95
1056.4019	3269.5066	935.2	58.3
1056.5013	3270.3966	934.9	59.8
1056.6005	3271.286	934.35	60.1
