Software Version:	3.9.2.0
Unit SN:	10000200
Spectrometer SN:	6960
Date:	3/6/2024 9:43:20 AM
Data Line Index:	25
Spectral Points:	2048
Integration time (ms):	125
Averages:	20
Delay (ms):	30
Sequence Number:	1
Processing:	dark subtract
Laser Power (mW):	305
Laser Current (mA):	825
Laser Diode Temp (C):	25
Laser Case Temp (C):	24
System Temp (C):	23.8
Spectrometer Temp (C):	21.5
CCD Temp (C):	-0.03
Secondary Temp (C):	20.008
Heatsink Temp (C):	17.788
CCDPCB Temp (C):	30.66
SecondaryPCB Temp (C):	25.547

Wavelength	RamanShift	Raw Counts	Dark Subtracted
787.061	30.1047	455.9	47.5
787.2016	32.3739	456.3	52.4
787.3422	34.6426	460.5	54.95
787.4828	36.9109	468.3	61.15
787.6235	39.1787	472.65	60.6
787.7642	41.4461	481.3	66.35
787.9049	43.7131	490.3	70.4
788.0456	45.9796	496.9	74.2
788.1863	48.2456	504.55	78.3
788.3271	50.5112	514.55	85.45
788.4679	52.7764	519.15	86
788.6087	55.0411	529.3	90.5
788.7496	57.3054	537.15	93.75
788.8904	59.5692	544.75	101.15
789.0313	61.8326	554.2	109.95
789.1722	64.0955	561.6	114.2
789.3132	66.3579	578.55	123.85
789.4541	68.6199	597.75	140.95
789.5951	70.8815	625	161.1
789.7361	73.1426	681.1	215.45
789.8771	75.4032	819.55	350
790.0181	77.6634	1159.05	687.4
790.1592	79.9231	1958.35	1483.55
790.3003	82.1824	3681.65	3199.8
790.4414	84.4412	6692.8	6202.65
790.5825	86.6995	10741.05	10238.95
790.7237	88.9574	14723.05	14212.15
790.8648	91.2148	17640.55	17124.6
791.006	93.4717	19272.9	18750.65
791.1472	95.7282	19951.6	19427.95
791.2885	97.9842	20340.35	19816.6
791.4297	100.2398	20477.1	19948.55
791.571	102.4949	20529.95	19998.65
791.7123	104.7495	20546.1	20009.65
791.8536	107.0036	20518.9	19982.85
791.9949	109.2573	20542.6	20006.75
792.1363	111.5105	20575.25	20036.6
792.2777	113.7632	20523.35	19985
792.4191	116.0154	20552.75	20001
792.5605	118.2672	20619.3	20076.55
792.7019	120.5185	20615.85	20070.65
792.8434	122.7693	20650	20100.55
792.9849	125.0197	20704.8	20150.55
793.1264	127.2696	20707.8	20149.55
793.2679	129.519	20820.05	20260.25
793.4094	131.7679	20838.85	20275.5
793.551	134.0163	20865.3	20299.25
793.6926	136.2642	20908.85	20341.25
793.8342	138.5117	20929.05	20354.9
793.9758	140.7587	20938.75	20365.65
794.1175	143.0052	20967.75	20391.95
794.2591	145.2512	20967.9	20389.95
794.4008	147.4967	20893.1	20315.45
794.5425	149.7417	20934.25	20352.95
794.6842	151.9863	20908.8	20325.35
794.826	154.2304	20932.65	20344.45
794.9677	156.4739	20906.6	20311.8
795.1095	158.717	20960.5	20364.45
795.2513	160.9596	20953.8	20355.6
795.3931	163.2017	20944.75	20344.25
795.535	165.4433	20993.7	20388.25
795.6768	167.6844	20990.85	20384.25
795.8187	169.925	21041.55	20433.65
795.9606	172.1651	20989.15	20377.5
796.1025	174.4047	21002.3	20387.55
796.2445	176.6439	20973.35	20354.55
796.3864	178.8825	20981.4	20361.45
796.5284	181.1206	20995.85	20370.65
796.6704	183.3582	21034.35	20406.2
796.8124	185.5954	21061.65	20432.85
796.9544	187.832	21043.3	20409.85
797.0965	190.0681	21129.6	20492.1
797.2386	192.3037	21185.35	20546
797.3806	194.5388	21166.05	20521.8
797.5228	196.7734	21231.25	20588.45
797.6649	199.0075	21304.7	20658.9
797.807	201.2411	21418.4	20770.25
797.9492	203.4742	21476.35	20826.9
798.0914	205.7068	21527.8	20874.2
798.2336	207.9389	21541.8	20885.85
798.3758	210.1704	21605.35	20960.7
798.518	212.4015	21568	20930.75
798.6603	214.632	21633.9	21001.7
798.8025	216.862	21698.95	21070.5
798.9448	219.0915	21688.55	21057.55
799.0871	221.3205	21708.75	21072.45
799.2294	223.549	21798.15	21167.8
799.3718	225.777	21819.1	21185.3
799.5141	228.0044	21846.9	21203.8
799.6565	230.2314	21905.45	21264.75
799.7989	232.4578	21890.65	21246.05
799.9413	234.6837	21926.75	21274
800.0837	236.909	21940.3	21283
800.2262	239.1339	21966.1	21285.2
800.3687	241.3582	22018.9	21355.6
800.5111	243.582	22016.2	21320.2
800.6536	245.8053	22050.05	21364.55
800.7961	248.0281	22086	21406.4
800.9387	250.2503	22052	21366.55
801.0812	252.472	22076.8	21394.35
801.2238	254.6932	22126.15	21443.25
801.3664	256.9139	22087.95	21403.75
801.509	259.134	22107.35	21417.65
801.6516	261.3536	22114.8	21430.6
801.7942	263.5727	22202.3	21512.65
801.9369	265.7912	22177.45	21490.6
802.0795	268.0092	22260.45	21571.15
802.2222	270.2267	22268.4	21581.15
802.3649	272.4436	22321.25	21628.15
802.5076	274.6601	22343.65	21641.1
802.6504	276.8759	22309.5	21611.75
802.7931	279.0913	22362.4	21663.7
802.9359	281.3061	22345.45	21645.1
803.0787	283.5204	22400.7	21697.85
803.2215	285.7341	22437	21731.2
803.3643	287.9473	22509.2	21789.95
803.5071	290.16	22449.25	21742.25
803.6499	292.3721	22456.95	21753.25
803.7928	294.5837	22449.75	21745.15
803.9357	296.7947	22434.1	21732.7
804.0786	299.0052	22424.15	21720.25
804.2215	301.2152	22354.8	21645.8
804.3644	303.4246	22409.05	21701.3
804.5074	305.6334	22360.8	21655.85
804.6503	307.8418	22382.6	21669.45
804.7933	310.0495	22338.75	21628.5
804.9363	312.2568	22333.8	21621.7
805.0793	314.4635	22253	21539.9
805.2223	316.6696	22213.85	21496.9
805.3653	318.8752	22141.1	21412.75
805.5084	321.0802	22106.4	21387.05
805.6514	323.2847	22125.65	21403.7
805.7945	325.4887	22063.95	21343.9
805.9376	327.692	22077.2	21355.15
806.0807	329.8949	22148.5	21425.65
806.2238	332.0972	22192.95	21468.4
806.367	334.2989	22206.65	21476.3
806.5101	336.5001	22177.95	21448.6
806.6533	338.7007	22173.8	21446
806.7965	340.9008	22177.5	21447.05
806.9397	343.1003	22123.95	21390.15
807.0829	345.2992	22112.55	21377.15
807.2261	347.4976	22097.2	21362.15
807.3693	349.6955	22037.45	21297.8
807.5126	351.8927	22116.5	21376.2
807.6559	354.0895	22063.15	21310.65
807.7991	356.2856	22110.2	21367.25
807.9424	358.4812	22029	21287.05
808.0857	360.6763	22094.5	21347.65
808.2291	362.8707	22039.75	21291.55
808.3724	365.0646	22057.25	21307.75
808.5158	367.258	22029	21277.45
808.6591	369.4508	21976.7	21223.75
808.8025	371.643	22021	21267.85
808.9459	373.8346	21943.6	21186.15
809.0893	376.0257	21956.6	21195.05
809.2327	378.2162	21951.85	21193.4
809.3762	380.4062	21991.35	21230
809.5196	382.5956	21887.6	21127.45
809.6631	384.7844	21895.5	21142.65
809.8066	386.9726	21804.3	21052.85
809.9501	389.1603	21763.4	21013.15
810.0936	391.3474	21757.4	20964.4
810.2371	393.5339	21734.85	20979.85
810.3806	395.7199	21654.8	20902.2
810.5241	397.9052	21658.05	20908.4
810.6677	400.09	21640	20885.45
810.8113	402.2743	21683.2	20928.2
810.9548	404.4579	21674.15	20917.95
811.0984	406.641	21746.3	20988.45
811.2421	408.8235	21746	20985.5
811.3857	411.0054	21786.15	21025.15
811.5293	413.1868	21893.8	21127.65
811.673	415.3675	21926.15	21158.1
811.8166	417.5477	21972.85	21203.8
811.9603	419.7273	21854.7	21083.55
812.104	421.9064	21691	20915.2
812.2477	424.0848	21641.55	20865.5
812.3914	426.2627	21507.9	20733.65
812.5351	428.4399	21499.45	20722.45
812.6788	430.6166	21441.6	20663.05
812.8226	432.7928	21377	20598.6
812.9663	434.9683	21291.05	20511.65
813.1101	437.1432	21252.55	20472.3
813.2539	439.3176	21175.6	20396.95
813.3977	441.4914	21091.4	20314.2
813.5415	443.6645	21119.35	20337.05
813.6853	445.8371	21024.85	20242
813.8291	448.0091	20941.15	20159.45
813.973	450.1806	20894.85	20113.15
814.1168	452.3514	20873.65	20088.55
814.2607	454.5216	20839.2	20047.4
814.4046	456.6913	20735.35	19945.6
814.5485	458.8603	20758.4	19972.45
814.6924	461.0288	20766.15	19979.4
814.8363	463.1967	20706.05	19921.2
814.9802	465.3639	20719.2	19932.35
815.1241	467.5306	20677.9	19887.95
815.2681	469.6967	20652	19865.55
815.412	471.8622	20556.9	19769.9
815.556	474.0271	20578.35	19790.9
815.7	476.1914	20528.7	19738.55
815.844	478.3551	20522.65	19733.05
815.988	480.5182	20511.65	19721.2
816.132	482.6807	20565.25	19775.75
816.276	484.8426	20585.65	19796.9
816.4201	487.0039	20622.7	19831.05
816.5641	489.1647	20619.15	19824.95
816.7082	491.3248	20653.1	19860.3
816.8522	493.4843	20683.3	19890
816.9963	495.6432	20655.25	19860.75
817.1404	497.8015	20568.95	19772.15
817.2845	499.9592	20578.15	19778.05
817.4286	502.1163	20546.95	19750.1
817.5727	504.2728	20450.45	19652.8
817.7168	506.4287	20524.7	19728.3
817.861	508.5839	20419.65	19622.15
818.0051	510.7386	20374.95	19576.05
818.1493	512.8927	20404.25	19600
818.2935	515.0461	20396.65	19594.7
818.4377	517.199	20386.05	19583.85
818.5818	519.3512	20403.15	19601.9
818.726	521.5029	20423.55	19615.4
818.8703	523.6539	20417.9	19614.7
819.0145	525.8043	20413.6	19608
819.1587	527.9541	20355.6	19547.45
819.303	530.1033	20283.4	19476
819.4472	532.2519	20249.95	19443.25
819.5915	534.3999	20203.75	19393.65
819.7357	536.5472	20189.25	19378.7
819.88	538.694	20174	19365.3
820.0243	540.8401	20227.65	19418.7
820.1686	542.9856	20221.25	19410
820.3129	545.1305	20172.9	19361.05
820.4572	547.2748	20234.25	19420.5
820.6016	549.4185	20195.35	19382.7
820.7459	551.5615	20137.5	19325.25
820.8902	553.704	20186.4	19376.6
821.0346	555.8458	20131.25	19317.8
821.1789	557.987	20092.55	19281.05
821.3233	560.1276	20120.8	19307.6
821.4677	562.2675	20163.35	19352.05
821.6121	564.4069	20144.1	19332.6
821.7565	566.5456	20139.55	19327.7
821.9009	568.6837	20102.9	19289.1
822.0453	570.8212	20018.4	19204
822.1897	572.958	19979.85	19162.25
822.3342	575.0942	19905.15	19091.3
822.4786	577.2299	19835.8	19020
822.6231	579.3648	19773.05	18960.05
822.7675	581.4992	19710.35	18897.5
822.912	583.6329	19614.4	18799.35
823.0565	585.766	19598.3	18784.75
823.201	587.8985	19590.95	18775.65
823.3454	590.0304	19544.25	18712.5
823.4899	592.1616	19545.3	18721.95
823.6345	594.2922	19497.5	18678.5
823.779	596.4222	19451.3	18630
823.9235	598.5515	19374.5	18552.15
824.068	600.6802	19283.55	18462.3
824.2126	602.8083	19188.4	18364.4
824.3571	604.9358	19203.65	18379.8
824.5017	607.0626	19129.25	18305.8
824.6462	609.1888	19110.9	18286.25
824.7908	611.3144	19125.05	18298.65
824.9354	613.4393	19092.9	18269.7
825.08	615.5636	19095.1	18270
825.2246	617.6873	19127.7	18301.6
825.3692	619.8103	19139.05	18311.15
825.5138	621.9327	19103.15	18273
825.6584	624.0544	19088.4	18264.85
825.803	626.1756	19019.8	18193.1
825.9477	628.2961	18967.65	18138.9
826.0923	630.4159	18932.5	18104.25
826.237	632.5351	18928.25	18099.85
826.3816	634.6537	18889.35	18063.05
826.5263	636.7716	18883	18049.6
826.6709	638.8889	18863.75	18034
826.8156	641.0056	18898.9	18069.25
826.9603	643.1216	18835.65	18004.2
827.105	645.237	18887.5	18053.9
827.2497	647.3518	18797.8	17966
827.3944	649.4659	18804.8	17975.45
827.5391	651.5793	18732.2	17901.05
827.6838	653.6922	18715.8	17883.95
827.8285	655.8043	18684.1	17854.05
827.9733	657.9159	18675.2	17840.5
828.118	660.0268	18622.25	17786.85
828.2627	662.137	18576.4	17742.6
828.4075	664.2466	18574.3	17738.25
828.5522	666.3556	18569.6	17734.55
828.697	668.4639	18505.8	17666
828.8418	670.5716	18525.25	17692.6
828.9865	672.6786	18492.7	17656.25
829.1313	674.785	18399.25	17563.25
829.2761	676.8907	18368.55	17530.7
829.4209	678.9958	18376.85	17541.5
829.5657	681.1002	18318.2	17478.35
829.7105	683.204	18296.3	17454
829.8553	685.3072	18305.3	17464
830.0001	687.4097	18250.95	17413
830.1449	689.5115	18212.65	17372.3
830.2898	691.6127	18208.6	17372.9
830.4346	693.7132	18163.35	17325.4
830.5794	695.8131	18219.7	17356.5
830.7243	697.9123	18212.35	17370.75
830.8691	700.0109	18169.55	17327.2
831.014	702.1089	18146.9	17304.5
831.1588	704.2061	18131.85	17292.25
831.3037	706.3028	18161.9	17318.7
831.4486	708.3987	18124.5	17283.45
831.5935	710.4941	18108.8	17266.3
831.7383	712.5887	18072.5	17229.7
831.8832	714.6827	18096.7	17251.25
832.0281	716.7761	18020.05	17176.95
832.173	718.8688	18031.65	17187.55
832.3179	720.9608	17998.15	17151.7
832.4628	723.0522	18007.95	17156.9
832.6077	725.1429	17994.4	17147.25
832.7527	727.233	18003.8	17159.85
832.8976	729.3224	18027.75	17181.95
833.0425	731.4112	17966.75	17120.55
833.1874	733.4993	17989.75	17140.2
833.3324	735.5867	17924.85	17075.95
833.4773	737.6735	17887.95	17038.65
833.6222	739.7596	17800.65	16951.65
833.7672	741.845	17776.2	16929.35
833.9122	743.9298	17716.9	16867.25
834.0571	746.014	17703.85	16855.45
834.2021	748.0974	17686.2	16838.25
834.347	750.1802	17614.5	16766.2
834.492	752.2624	17571.4	16723.2
834.637	754.3439	17500	16646.85
834.782	756.4247	17474.05	16613.65
834.9269	758.5048	17385.4	16536.05
835.0719	760.5843	17344.05	16493.75
835.2169	762.6631	17328.2	16478.05
835.3619	764.7413	17332.7	16482.4
835.5069	766.8188	17354.9	16499.55
835.6519	768.8956	17354.9	16501.1
835.7969	770.9718	17366.9	16513.6
835.9419	773.0473	17313.4	16461.65
836.0869	775.1221	17301.55	16448.25
836.232	777.1962	17218.3	16364.5
836.377	779.2697	17211.25	16358.25
836.522	781.3426	17237.65	16364.35
836.667	783.4147	17229.75	16375.3
836.8121	785.4862	17213.1	16359.65
836.9571	787.557	17133.25	16278.95
837.1021	789.6271	17042.1	16186.55
837.2472	791.6966	16953.9	16099.85
837.3922	793.7654	16830.4	15974.35
837.5373	795.8335	16855.9	16001
837.6823	797.901	16771.35	15917.15
837.8274	799.9678	16748.7	15890.65
837.9724	802.0339	16728.3	15875.1
838.1175	804.0993	16723.75	15856.9
838.2626	806.1641	16627.25	15770.3
838.4076	808.2282	16572.85	15719.8
838.5527	810.2916	16605.15	15748.2
838.6978	812.3544	16573.25	15717.45
838.8428	814.4164	16527.15	15672.55
838.9879	816.4778	16533.9	15678.5
839.133	818.5385	16507.4	15650.2
839.2781	820.5986	16482.75	15623.8
839.4232	822.658	16518.2	15659.75
839.5682	824.7166	16489.75	15632.15
839.7133	826.7747	16530.15	15673.45
839.8584	828.832	16550.45	15691.6
840.0035	830.8886	16523.7	15663.7
840.1486	832.9446	16556.85	15697.7
840.2937	834.9999	16484.95	15625.1
840.4388	837.0545	16446.15	15582.95
840.5839	839.1085	16375.55	15515.5
840.729	841.1618	16323.15	15460.55
840.8741	843.2143	16253.1	15394.55
841.0192	845.2662	16197.3	15339.05
841.1643	847.3175	16162.9	15305.95
841.3095	849.368	16142.3	15280.85
841.4546	851.4179	16127.65	15268.15
841.5997	853.467	16017.35	15156.95
841.7448	855.5155	16003.45	15143.65
841.8899	857.5633	16021.7	15159.45
842.0351	859.6105	15967.7	15107.3
842.1802	861.6569	15927.85	15067.9
842.3253	863.7027	15897.2	15034.95
842.4704	865.7478	15898.05	15035.55
842.6156	867.7922	15858.85	14996.05
842.7607	869.8359	15839.65	14978.25
842.9058	871.8789	15820.7	14961.25
843.0509	873.9212	15834.25	14941.85
843.1961	875.9629	15745.85	14885.55
843.3412	878.0039	15746.85	14881.2
843.4863	880.0441	15756.8	14893.65
843.6315	882.0837	15771.95	14909.25
843.7766	884.1226	15731.3	14866.6
843.9218	886.1609	15752.95	14890.85
844.0669	888.1984	15775.1	14911.6
844.212	890.2352	15824.95	14962.2
844.3572	892.2714	15777.6	14911.25
844.5023	894.3069	15782	14918.8
844.6475	896.3416	15678.85	14815.7
844.7926	898.3757	15637.95	14773.35
844.9377	900.4091	15628.65	14763.85
845.0829	902.4418	15605.65	14736.7
845.228	904.4739	15551.75	14685.05
845.3732	906.5052	15557.65	14693.6
845.5183	908.5358	15523.1	14658
845.6635	910.5658	15475.3	14606.2
845.8086	912.595	15412.7	14546.55
845.9538	914.6236	15370.85	14507
846.0989	916.6515	15348.9	14482.6
846.2441	918.6786	15342.35	14474.4
846.3892	920.7051	15299.2	14429.4
846.5344	922.7309	15313.2	14447.95
846.6795	924.756	15233.9	14365.75
846.8246	926.7804	15262.5	14396.2
846.9698	928.8041	15124.3	14256
847.1149	930.8272	15170.6	14301.65
847.2601	932.8495	15075.75	14206
847.4052	934.8711	15070.45	14203.35
847.5504	936.892	14975.65	14110.15
847.6955	938.9123	14985.1	14117.05
847.8407	940.9318	14983.85	14116.6
847.9858	942.9506	14938.85	14069.4
848.131	944.9688	14897.9	14029.4
848.2761	946.9862	14870.65	14003.35
848.4213	949.003	14769.9	13902.1
848.5664	951.019	14732.3	13863.05
848.7115	953.0344	14673.45	13806.3
848.8567	955.0491	14616.8	13747
849.0018	957.063	14638.9	13770.5
849.147	959.0763	14664.7	13796.8
849.2921	961.0888	14628.9	13757.2
849.4373	963.1007	14631.6	13762.5
849.5824	965.1119	14586.35	13717.05
849.7275	967.1223	14558.25	13691.3
849.8727	969.1321	14519.4	13653.05
850.0178	971.1412	14503.45	13634.3
850.1629	973.1495	14479.8	13612.4
850.3081	975.1572	14477.6	13560.05
850.4532	977.1641	14458.85	13590.05
850.5983	979.1704	14387	13515.55
850.7435	981.1759	14354.1	13478.1
850.8886	983.1808	14369.6	13497.5
851.0337	985.1849	14332.65	13452.25
851.1788	987.1884	14290.2	13417.45
851.324	989.1911	14244.25	13371.3
851.4691	991.1932	14237.35	13366.9
851.6142	993.1945	14191.45	13321.1
851.7593	995.1951	14091.15	13220.05
851.9045	997.1951	14094.35	13216.45
852.0496	999.1943	14029.6	13156.9
852.1947	1001.1928	13977.45	13105.65
852.3398	1003.1906	13938.7	13068.4
852.4849	1005.1877	13965.85	13093.8
852.63	1007.1841	13891.75	13021.95
852.7751	1009.1798	13849.45	12978.85
852.9202	1011.1748	13799.35	12928.8
853.0653	1013.1691	13771.7	12898.75
853.2104	1015.1627	13729.6	12858.35
853.3555	1017.1556	13597.8	12725
853.5006	1019.1477	13564.45	12692.75
853.6457	1021.1392	13510.85	12641.65
853.7908	1023.1299	13451.55	12580.15
853.9359	1025.12	13400.1	12526.6
854.081	1027.1093	13327.55	12461.85
854.2261	1029.0979	13329.3	12463.35
854.3712	1031.0859	13292.05	12423.8
854.5163	1033.0731	13271	12399.25
854.6613	1035.0596	13223.5	12354.95
854.8064	1037.0454	13170.25	12298.3
854.9515	1039.0304	13130.3	12257.85
855.0965	1041.0148	13107.85	12235.75
855.2416	1042.9985	13009.05	12134.55
855.3867	1044.9814	13034.8	12162.5
855.5317	1046.9636	12960	12084.65
855.6768	1048.9452	12903.75	12030.75
855.8219	1050.926	12931.45	12060.2
855.9669	1052.9061	12897.05	12025.05
856.112	1054.8855	12870.9	11997.2
856.257	1056.8642	12850.6	11975.75
856.4021	1058.8421	12821.8	11942.1
856.5471	1060.8194	12775.2	11901
856.6921	1062.7959	12749.75	11875.1
856.8372	1064.7717	12739.1	11866.25
856.9822	1066.7469	12707.75	11832.85
857.1272	1068.7213	12676.45	11800.25
857.2723	1070.695	12670.65	11798.45
857.4173	1072.6679	12637.65	11763.8
857.5623	1074.6402	12638.65	11766.25
857.7073	1076.6117	12602.7	11721.45
857.8523	1078.5826	12615.25	11743.3
857.9973	1080.5527	12550.05	11672.9
858.1423	1082.5221	12497.65	11622.15
858.2873	1084.4908	12484	11610.75
858.4323	1086.4587	12415.15	11536.85
858.5773	1088.426	12412.5	11536.35
858.7223	1090.3925	12364.4	11483.6
858.8673	1092.3584	12364.8	11489.25
859.0123	1094.3235	12313.4	11438.1
859.1573	1096.2879	12277.8	11403.8
859.3022	1098.2515	12276.25	11401.45
859.4472	1100.2145	12273.8	11399.85
859.5922	1102.1767	12266.8	11388.75
859.7371	1104.1382	12266.15	11390.1
859.8821	1106.099	12268.65	11390.6
860.027	1108.0591	12276.55	11399.95
860.172	1110.0185	12243.45	11366.8
860.3169	1111.9771	12260.4	11385.2
860.4619	1113.9351	12247.1	11373.15
860.6068	1115.8923	12249.4	11372.75
860.7517	1117.8488	12256.75	11378.75
860.8967	1119.8045	12175.4	11299.75
861.0416	1121.7596	12077.15	11200.1
861.1865	1123.7139	12021.45	11146.5
861.3314	1125.6675	11969.55	11094.25
861.4763	1127.6204	11939.55	11064.45
861.6212	1129.5726	11902.3	11024.5
861.7661	1131.524	11916.2	11041.2
861.911	1133.4748	11867.65	10990.65
862.0559	1135.4248	11811.75	10933.15
862.2008	1137.3741	11744.1	10867.35
862.3457	1139.3226	11702.15	10823.55
862.4905	1141.2705	11707.05	10828.15
862.6354	1143.2176	11653.35	10770.8
862.7803	1145.164	11661	10782.35
862.9251	1147.1097	11648.5	10771.4
863.07	1149.0546	11633.2	10756.8
863.2148	1150.9989	11601.75	10722.55
863.3597	1152.9424	11561.15	10683.25
863.5045	1154.8852	11515.1	10637.9
863.6493	1156.8272	11468.1	10590.7
863.7942	1158.7686	11491.25	10606.3
863.939	1160.7092	11452.5	10576
864.0838	1162.6491	11417.4	10538.3
864.2286	1164.5883	11433.3	10556.85
864.3734	1166.5267	11391.85	10512.6
864.5182	1168.4644	11394.15	10515.3
864.663	1170.4014	11423.75	10541.5
864.8078	1172.3377	11444.1	10566.75
864.9526	1174.2732	11442.4	10566.15
865.0974	1176.2081	11492.25	10615.15
865.2421	1178.1421	11556.15	10674.75
865.3869	1180.0755	11604.15	10726.75
865.5317	1182.0082	11578.2	10699.55
865.6764	1183.9401	11561.6	10683.35
865.8212	1185.8713	11494.1	10617
865.9659	1187.8017	11404.45	10527.85
866.1106	1189.7315	11329.75	10455.1
866.2554	1191.6605	11204.45	10326.85
866.4001	1193.5888	11146.45	10271.55
866.5448	1195.5163	11099.4	10223.3
866.6895	1197.4432	11076	10197.45
866.8342	1199.3693	11025.9	10144.45
866.9789	1201.2947	10979.5	10094.05
867.1236	1203.2193	10923.55	10048.7
867.2683	1205.1432	10906.8	10028.15
867.413	1207.0664	10889.2	10008.05
867.5576	1208.9889	10850.25	9968.95
867.7023	1210.9106	10816.75	9940.2
867.847	1212.8316	10786.55	9908.2
867.9916	1214.7519	10774.8	9886.6
868.1363	1216.6715	10733.45	9856.2
868.2809	1218.5903	10702	9821.75
868.4255	1220.5084	10700.65	9821.55
868.5701	1222.4257	10708.95	9828.75
868.7148	1224.3424	10652.65	9775
868.8594	1226.2583	10653.75	9772.2
869.004	1228.1735	10663.75	9784.6
869.1486	1230.0879	10627.45	9747.9
869.2932	1232.0016	10618.35	9740.25
869.4377	1233.9146	10622.25	9741.05
869.5823	1235.8269	10615.55	9737.9
869.7269	1237.7384	10616.6	9739.7
869.8715	1239.6492	10572	9692.9
870.016	1241.5592	10578.7	9699.3
870.1606	1243.4686	10576.9	9700.25
870.3051	1245.3772	10580.9	9701.25
870.4496	1247.285	10620.35	9741.35
870.5941	1249.1922	10663.8	9782.9
870.7387	1251.0986	10672.5	9797.2
870.8832	1253.0042	10668.05	9786.8
871.0277	1254.9092	10727.35	9848.1
871.1722	1256.8134	10735.65	9856.35
871.3167	1258.7169	10780.9	9899.8
871.4611	1260.6196	10784.2	9906.4
871.6056	1262.5216	10810.55	9929.05
871.7501	1264.4229	10760.95	9883.45
871.8945	1266.3234	10754.9	9876.3
872.039	1268.2232	10695.55	9814.9
872.1834	1270.1223	10639	9758.65
872.3278	1272.0207	10626.8	9745.7
872.4723	1273.9183	10598.65	9713.9
872.6167	1275.8151	10551.95	9673.5
872.7611	1277.7113	10579.8	9698.15
872.9055	1279.6067	10592.4	9712.5
873.0499	1281.5014	10666	9786
873.1943	1283.3953	10774.9	9895.1
873.3386	1285.2885	10869.45	9989.65
873.483	1287.181	10964.5	10082.9
873.6274	1289.0727	11001.35	10122.5
873.7717	1290.9637	10947.9	10066.2
873.9161	1292.854	10884.25	10003.45
874.0604	1294.7435	10815.3	9933.6
874.2047	1296.6323	10719.85	9839.45
874.349	1298.5204	10662.45	9778.9
874.4933	1300.4077	10616.55	9736.5
874.6376	1302.2943	10551.1	9672.3
874.7819	1304.1802	10534	9654.4
874.9262	1306.0653	10479.05	9595.8
875.0705	1307.9497	10464.45	9584.2
875.2147	1309.8333	10445.6	9567.1
875.359	1311.7162	10394.75	9514.05
875.5032	1313.5984	10372.25	9490.55
875.6475	1315.4798	10321	9430.15
875.7917	1317.3605	10329.65	9435.4
875.9359	1319.2405	10299.3	9416.3
876.0801	1321.1197	10261.9	9376.85
876.2243	1322.9982	10212.85	9326.75
876.3685	1324.876	10196.9	9317.55
876.5127	1326.753	10107.65	9225.1
876.6569	1328.6293	10064.65	9181.8
876.801	1330.5048	10005.5	9121.05
876.9452	1332.3796	9931.3	9051.1
877.0893	1334.2537	9911.5	9007.15
877.2335	1336.127	9817.65	8939.1
877.3776	1337.9996	9796.4	8914.15
877.5217	1339.8714	9789.5	8909.7
877.6658	1341.7426	9766.6	8842.8
877.8099	1343.6129	9740.1	8857.25
877.954	1345.4826	9719.7	8837.35
878.0981	1347.3515	9686.45	8803.25
878.2422	1349.2196	9642.9	8761.1
878.3862	1351.087	9637.2	8754.6
878.5303	1352.9537	9642.25	8762.55
878.6743	1354.8197	9648.75	8767.6
878.8184	1356.6849	9649.25	8768.05
878.9624	1358.5493	9630.45	8747.85
879.1064	1360.4131	9621.35	8740.75
879.2504	1362.276	9594.9	8713.8
879.3944	1364.1383	9613.55	8731.7
879.5384	1365.9998	9599	8711.95
879.6823	1367.8606	9553.5	8671.7
879.8263	1369.7206	9552.45	8670.45
879.9702	1371.5799	9532.55	8647.9
880.1142	1373.4384	9489.7	8608.05
880.2581	1375.2962	9509.4	8626.85
880.402	1377.1533	9415.75	8534.6
880.5459	1379.0096	9358.85	8472.65
880.6898	1380.8652	9312.6	8431.65
880.8337	1382.7201	9283.25	8400.95
880.9776	1384.5742	9193.2	8315
881.1215	1386.4275	9164.15	8281.9
881.2653	1388.2802	9137.75	8258.9
881.4092	1390.132	9091.05	8208.95
881.553	1391.9832	9090.9	8208.85
881.6968	1393.8336	9037.6	8155.55
881.8406	1395.6832	9013.55	8128.3
881.9844	1397.5322	8959.9	8078
882.1282	1399.3803	8919.5	8031.5
882.272	1401.2278	8894.15	8012.3
882.4158	1403.0745	8881.55	8000.95
882.5595	1404.9204	8814.4	7931.95
882.7033	1406.7656	8811.7	7929.6
882.847	1408.6101	8769.3	7885.4
882.9908	1410.4538	8761.35	7881.45
883.1345	1412.2968	8744.6	7861.75
883.2782	1414.139	8726.9	7845.05
883.4219	1415.9805	8711.1	7828.3
883.5656	1417.8213	8684.6	7780.1
883.7092	1419.6613	8661.9	7781.1
883.8529	1421.5006	8648.2	7764.95
883.9965	1423.3391	8651.5	7770
884.1402	1425.1769	8656.55	7772.85
884.2838	1427.0139	8665.15	7780.65
884.4274	1428.8502	8729.2	7845
884.571	1430.6858	8783.85	7900.65
884.7146	1432.5206	8736.65	7854.95
884.8582	1434.3547	8739.55	7856.2
885.0018	1436.188	8708.55	7824.35
885.1453	1438.0206	8705.75	7821.15
885.2889	1439.8524	8670.65	7787.35
885.4324	1441.6835	8643.35	7762
885.5759	1443.5139	8637.1	7749.75
885.7194	1445.3435	8592.65	7711.6
885.8629	1447.1724	8616.35	7734.3
886.0064	1449.0005	8591.55	7711.5
886.1499	1450.8279	8572.05	7690.3
886.2933	1452.6545	8556.25	7674.65
886.4368	1454.4804	8552.95	7670.4
886.5802	1456.3056	8537.3	7646.2
886.7237	1458.13	8509.6	7628.65
886.8671	1459.9536	8485.5	7601.25
887.0105	1461.7766	8443.85	7561.1
887.1539	1463.5987	8405.95	7522.9
887.2972	1465.4202	8355.45	7474.15
887.4406	1467.2409	8326.2	7444.05
887.584	1469.0608	8290.8	7407.8
887.7273	1470.88	8241.1	7357.8
887.8706	1472.6984	8241.35	7361.35
888.0139	1474.5161	8169.15	7282.2
888.1572	1476.3331	8145.55	7265.55
888.3005	1478.1493	8127.2	7244
888.4438	1479.9648	8132.65	7253.05
888.5871	1481.7795	8120.25	7238.35
888.7303	1483.5935	8106	7224.8
888.8736	1485.4067	8079.3	7196.4
889.0168	1487.2192	8075.75	7193.95
889.16	1489.031	8083.35	7200.15
889.3032	1490.842	8044.45	7163.25
889.4464	1492.6522	8029.1	7146.9
889.5896	1494.4618	8001.45	7117.3
889.7327	1496.2705	7998	7114.75
889.8759	1498.0785	8001.15	7119.5
890.019	1499.8858	7950.2	7067.6
890.1622	1501.6924	7925.05	7043.7
890.3053	1503.4981	7911.75	7028.85
890.4484	1505.3032	7888.2	7008.3
890.5914	1507.1075	7869.6	6986.2
890.7345	1508.911	7847.05	6963.9
890.8776	1510.7138	7833.45	6949.95
891.0206	1512.5159	7793.05	6910.35
891.1637	1514.3172	7784.7	6901.1
891.3067	1516.1178	7741.6	6859.3
891.4497	1517.9176	7756.65	6870.9
891.5927	1519.7166	7704.4	6821.3
891.7357	1521.515	7695.25	6805.2
891.8786	1523.3126	7660.75	6779.4
892.0216	1525.1094	7645.05	6761.05
892.1645	1526.9055	7618.9	6736.6
892.3074	1528.7008	7595.35	6712.55
892.4503	1530.4954	7535.1	6651.65
892.5932	1532.2893	7512.55	6630.85
892.7361	1534.0824	7471.45	6581.8
892.879	1535.8747	7474.2	6595.35
893.0218	1537.6663	7461.85	6580.55
893.1647	1539.4572	7438.65	6554.6
893.3075	1541.2473	7433.5	6550.8
893.4503	1543.0367	7378.9	6498.3
893.5931	1544.8253	7361.05	6473.65
893.7359	1546.6132	7356.05	6472.8
893.8787	1548.4003	7314.8	6422.1
894.0214	1550.1867	7309.75	6419.85
894.1642	1551.9723	7274.45	6387.95
894.3069	1553.7572	7276.05	6392.55
894.4496	1555.5414	7275.8	6391.65
894.5923	1557.3247	7274.15	6391.7
894.735	1559.1074	7260.55	6380.95
894.8777	1560.8893	7247.25	6368.4
895.0204	1562.6705	7234.55	6354.55
895.163	1564.4509	7239.3	6358.25
895.3056	1566.2305	7234.45	6355.55
895.4482	1568.0094	7241.65	6361.7
895.5908	1569.7876	7224.6	6345.65
895.7334	1571.565	7215.85	6335.8
895.876	1573.3417	7193.8	6312.9
896.0186	1575.1176	7187.5	6307.25
896.1611	1576.8928	7167.3	6285.95
896.3036	1578.6672	7146.5	6268.8
896.4461	1580.4409	7142.65	6264.5
896.5886	1582.2138	7128.5	6247.7
896.7311	1583.986	7128.6	6247.7
896.8736	1585.7575	7154.15	6274.2
897.0161	1587.5282	7139.5	6261.85
897.1585	1589.2981	7162.75	6283.4
897.3009	1591.0673	7132.75	6253.75
897.4433	1592.8358	7140.25	6262.05
897.5857	1594.6035	7122.2	6240.4
897.7281	1596.3704	7098.9	6219.1
897.8705	1598.1366	7067.65	6187.6
898.0128	1599.9021	7027.25	6148.35
898.1551	1601.6668	6979.45	6096.5
898.2975	1603.4308	6944.1	6062.7
898.4398	1605.194	6916.8	6033
898.5821	1606.9564	6921.75	6041.35
898.7243	1608.7182	6942.55	6062.2
898.8666	1610.4791	6961.2	6083.6
899.0088	1612.2394	6993.05	6116.95
899.1511	1613.9988	7033.2	6154.05
899.2933	1615.7576	7097.9	6219.95
899.4355	1617.5156	7105.5	6220.35
899.5776	1619.2728	7075.05	6195.5
899.7198	1621.0293	7002.35	6122.3
899.862	1622.785	6899.55	6014.85
900.0041	1624.54	6797.8	5915.25
900.1462	1626.2942	6705.2	5825.6
900.2883	1628.0477	6600.6	5719.45
900.4304	1629.8005	6547.3	5664.7
900.5725	1631.5525	6478.15	5598.65
900.7145	1633.3037	6414.05	5535.4
900.8566	1635.0542	6378.65	5502.45
900.9986	1636.804	6326.45	5445.75
901.1406	1638.553	6359.45	5390.6
901.2826	1640.3013	6266.6	5388.05
901.4245	1642.0488	6215.5	5334.2
901.5665	1643.7955	6207.65	5329.05
901.7085	1645.5416	6169.55	5289.1
901.8504	1647.2868	6135.1	5256
901.9923	1649.0313	6120.95	5241.9
902.1342	1650.7751	6100.8	5218.6
902.2761	1652.5181	6098.65	5220.25
902.4179	1654.2604	6055.15	5175.1
902.5598	1656.0019	6037.4	5159.85
902.7016	1657.7427	6035.7	5155.3
902.8434	1659.4828	6051.45	5172.4
902.9852	1661.222	6041.9	5161.15
903.127	1662.9606	6042.35	5162.7
903.2687	1664.6984	6052.45	5171.95
903.4105	1666.4354	6068.7	5187.45
903.5522	1668.1717	6014.5	5133.5
903.6939	1669.9072	5953.45	5072.6
903.8356	1671.642	5906	5023.05
903.9773	1673.3761	5872.15	4991.35
904.119	1675.1094	5828.9	4950.25
904.2606	1676.8419	5790.85	4912.75
904.4022	1678.5737	5751.45	4871.3
904.5439	1680.3048	5753.15	4872.55
904.6855	1682.0351	5716.4	4836.15
904.827	1683.7646	5665.7	4784.1
904.9686	1685.4934	5641	4762.4
905.1101	1687.2215	5639.9	4761.5
905.2517	1688.9488	5608.5	4730.1
905.3932	1690.6754	5587.7	4707.55
905.5347	1692.4012	5566.9	4686.75
905.6761	1694.1263	5553	4674.75
905.8176	1695.8506	5536.55	4654.8
905.9591	1697.5742	5514.95	4634.95
906.1005	1699.297	5493.4	4612.6
906.2419	1701.0191	5456.95	4576.7
906.3833	1702.7404	5437.75	4559.45
906.5246	1704.461	5411.75	4530.65
906.666	1706.1808	5409.35	4529
906.8073	1707.8999	5383.05	4503.05
906.9487	1709.6182	5369.2	4489.9
907.09	1711.3358	5345.7	4466.7
907.2313	1713.0527	5337.25	4459.15
907.3725	1714.7688	5326.8	4441.05
907.5138	1716.4841	5299.1	4418.8
907.655	1718.1987	5285.05	4397.9
907.7962	1719.9126	5267.75	4391.55
907.9374	1721.6257	5259.95	4380.15
908.0786	1723.338	5269.1	4387.7
908.2198	1725.0496	5232.3	4351.1
908.3609	1726.7605	5224.4	4344.25
908.502	1728.4706	5218.25	4338.4
908.6431	1730.18	5203.55	4322.35
908.7842	1731.8886	5192.8	4313.35
908.9253	1733.5964	5180.6	4295.5
909.0664	1735.3036	5172	4289.85
909.2074	1737.0099	5163.6	4287.55
909.3484	1738.7156	5152.2	4274.6
909.4894	1740.4204	5137.5	4254.85
909.6304	1742.1246	5146.35	4267.95
909.7714	1743.8279	5131.5	4253
909.9123	1745.5306	5119.85	4239.2
910.0532	1747.2325	5110.4	4232.75
910.1941	1748.9336	5099.55	4221.85
910.335	1750.634	5091.8	4211.1
910.4759	1752.3336	5082.1	4201.7
910.6168	1754.0325	5077.05	4200.2
910.7576	1755.7307	5061.9	4183.8
910.8984	1757.4281	5073.4	4195.55
911.0392	1759.1247	5062	4174.5
911.18	1760.8206	5067.75	4184.5
911.3208	1762.5158	5058.1	4175.45
911.4615	1764.2102	5037.8	4158.75
911.6022	1765.9039	5037.5	4158.6
911.7429	1767.5968	5016.2	4137.1
911.8836	1769.289	4995.85	4115.5
912.0243	1770.9804	4992.2	4112.15
912.1649	1772.6711	4990.05	4110.4
912.3056	1774.361	4963.55	4082.1
912.4462	1776.0502	4950.3	4071.05
912.5868	1777.7386	4944.8	4063.1
912.7274	1779.4263	4945	4064.65
912.8679	1781.1132	4932.4	4054
913.0084	1782.7994	4905	4026.45
913.149	1784.4849	4902.05	4023.8
913.2895	1786.1696	4918.3	4018.45
913.4299	1787.8535	4897.55	4020.55
913.5704	1789.5367	4881.15	4003.4
913.7108	1791.2192	4883.55	4004.6
913.8513	1792.9009	4878.75	3971.15
913.9917	1794.5818	4855.25	3977.65
914.132	1796.2621	4837.45	3959.45
914.2724	1797.9415	4830.25	3950.6
914.4128	1799.6202	4827.15	3946.15
914.5531	1801.2982	4821.35	3939.8
914.6934	1802.9755	4794.5	3914.05
914.8337	1804.6519	4784.7	3906.55
914.9739	1806.3277	4773.2	3895.35
915.1142	1808.0027	4748.5	3872.35
915.2544	1809.6769	4746.4	3867.15
915.3946	1811.3504	4738.65	3859.15
915.5348	1813.0231	4743	3861.85
915.675	1814.6951	4731.8	3852.95
915.8151	1816.3664	4733	3851.5
915.9553	1818.0369	4724.9	3845.05
916.0954	1819.7067	4702.9	3823.6
916.2355	1821.3757	4699.9	3819.35
916.3755	1823.044	4685.3	3804.55
916.5156	1824.7115	4681.25	3800.2
916.6556	1826.3783	4645.8	3766.5
916.7956	1828.0443	4645	3766.75
916.9356	1829.7096	4641.9	3761.25
917.0756	1831.3741	4629.9	3747.6
917.2155	1833.0379	4625.8	3748.05
917.3555	1834.701	4618.8	3739.5
917.4954	1836.3633	4619.65	3740.25
917.6353	1838.0248	4581.3	3698.65
917.7751	1839.6856	4587.9	3707.75
917.915	1841.3457	4587.8	3710.75
918.0548	1843.005	4584.7	3704.55
918.1946	1844.6636	4565.3	3685
918.3344	1846.3214	4544.65	3667.2
918.4742	1847.9785	4539.75	3660.4
918.6139	1849.6349	4538.9	3658.6
918.7537	1851.2904	4536.7	3647.9
918.8934	1852.9453	4519.15	3639.55
919.0331	1854.5994	4500.4	3618.85
919.1727	1856.2528	4520.7	3635.15
919.3124	1857.9054	4486.15	3607.85
919.452	1859.5572	4486.2	3607.55
919.5916	1861.2083	4489.05	3608.2
919.7312	1862.8587	4490.45	3610.7
919.8708	1864.5084	4475.85	3596.9
920.0103	1866.1572	4453.2	3573.6
920.1498	1867.8054	4449.25	3569.8
920.2893	1869.4528	4435.2	3554.4
920.4288	1871.0994	4419.35	3539.9
920.5683	1872.7453	4415.55	3536.7
920.7077	1874.3905	4421.3	3535.6
920.8471	1876.0349	4387.25	3508.55
920.9865	1877.6786	4397.35	3515.5
921.1259	1879.3215	4394	3514.35
921.2653	1880.9637	4373.25	3494.3
921.4046	1882.6051	4384.55	3505.7
921.5439	1884.2458	4363.55	3482.85
921.6832	1885.8858	4364.6	3487
921.8225	1887.525	4366.75	3488.6
921.9617	1889.1634	4343.55	3463.3
922.101	1890.8011	4325.5	3444.5
922.2402	1892.4381	4327.2	3447.85
922.3794	1894.0743	4317.6	3437.45
922.5185	1895.7098	4301.8	3423.85
922.6577	1897.3446	4303.35	3424.35
922.7968	1898.9786	4292.4	3408.05
922.9359	1900.6118	4282.4	3403.9
923.075	1902.2443	4257.9	3374.6
923.214	1903.8761	4262.35	3385.5
923.3531	1905.5071	4234.6	3354.95
923.4921	1907.1374	4239.8	3359.65
923.6311	1908.7669	4227.8	3348.35
923.77	1910.3957	4223.4	3342.25
923.909	1912.0237	4211.65	3333.4
924.0479	1913.651	4201.3	3322.95
924.1868	1915.2776	4197.95	3321.05
924.3257	1916.9034	4172.95	3292.4
924.4646	1918.5285	4167.95	3290.1
924.6034	1920.1528	4147.9	3266.3
924.7422	1921.7764	4139.5	3261.25
924.881	1923.3992	4137.55	3260.15
925.0198	1925.0213	4116.65	3235.35
925.1586	1926.6427	4113.8	3234.7
925.2973	1928.2633	4271.35	3173.45
925.436	1929.8832	4125.95	3244.8
925.5747	1931.5023	4074.65	3194.75
925.7134	1933.1207	4076.4	3195.1
925.852	1934.7383	4061.85	3182.85
925.9906	1936.3552	4047.05	3167.7
926.1292	1937.9714	4042.15	3164.6
926.2678	1939.5868	4031.9	3150.85
926.4064	1941.2015	4014.9	3134.85
926.5449	1942.8154	4008.45	3129.75
926.6834	1944.4286	3986.45	3107.65
926.8219	1946.041	4017.3	3116.65
926.9604	1947.6528	3977.7	3095.2
927.0988	1949.2637	3967.3	3087.3
927.2372	1950.8739	3956.55	3076.75
927.3756	1952.4834	3949.5	3069.75
927.514	1954.0921	3951.95	3071.3
927.6523	1955.7001	3942.25	3057.4
927.7907	1957.3074	3923.85	3044.8
927.929	1958.9139	3918.3	3041.9
928.0673	1960.5197	3912.8	3032
928.2055	1962.1247	3887.05	3011.95
928.3438	1963.729	3893.9	3017.5
928.482	1965.3325	3916.8	3017.25
928.6202	1966.9353	3878.45	3001.2
928.7584	1968.5374	3869.7	2988.75
928.8965	1970.1387	3848.1	2968.6
929.0346	1971.7393	3840.35	2959.7
929.1727	1973.3392	3837.5	2958.8
929.3108	1974.9383	3828.25	2951.6
929.4489	1976.5366	3810.9	2932.45
929.5869	1978.1342	3810.15	2927.45
929.7249	1979.7311	3796.65	2917.65
929.8629	1981.3273	3788.75	2910.05
930.0009	1982.9227	3781.05	2903.8
930.1388	1984.5173	3771.8	2892.25
930.2767	1986.1112	3766.05	2887.7
930.4146	1987.7044	3774.85	2899.5
930.5525	1989.2968	3749.45	2869.1
930.6904	1990.8885	3749.45	2870.65
930.8282	1992.4795	3749.8	2870.4
930.966	1994.0697	3743.8	2865.65
931.1038	1995.6592	3728.85	2850.35
931.2415	1997.2479	3731.55	2853.05
931.3793	1998.8359	3736.4	2857.8
931.517	2000.4232	3703.65	2826.05
931.6547	2002.0097	3695.75	2819.35
931.7923	2003.5955	3695.4	2819.05
931.93	2005.1805	3705.8	2827.3
932.0676	2006.7648	3686.65	2809.75
932.2052	2008.3484	3671.7	2792.5
932.3427	2009.9312	3675.2	2795.6
932.4803	2011.5133	3671.8	2796.35
932.6178	2013.0946	3640.75	2763.1
932.7553	2014.6752	3654.6	2778.35
932.8928	2016.2551	3647.4	2771.5
933.0302	2017.8342	3622.6	2746.65
933.1676	2019.4126	3611.8	2733.55
933.305	2020.9902	3614.15	2738.75
933.4424	2022.5672	3604.25	2726.7
933.5798	2024.1433	3613.9	2732.2
933.7171	2025.7188	3608.55	2733
933.8544	2027.2935	3587.95	2711.1
933.9917	2028.8674	3583.25	2708
934.129	2030.4406	3567.2	2690.55
934.2662	2032.0131	3559.9	2684.8
934.4034	2033.5849	3556.15	2674.85
934.5406	2035.1559	3562.7	2686.85
934.6778	2036.7261	3542.55	2665.65
934.8149	2038.2957	3548.2	2671.5
934.952	2039.8645	3551.25	2674.65
935.0891	2041.4325	3555.1	2676.5
935.2262	2042.9998	3542.3	2667.45
935.3632	2044.5664	3537.7	2658.45
935.5002	2046.1323	3545.45	2667.55
935.6372	2047.6974	3528.75	2651.15
935.7742	2049.2617	3521.15	2643.35
935.9111	2050.8254	3520.55	2639.3
936.048	2052.3883	3508.1	2629.75
936.1849	2053.9504	3495.25	2616
936.3218	2055.5118	3498.95	2619.8
936.4586	2057.0725	3492.45	2609.7
936.5955	2058.6325	3503	2626.35
936.7323	2060.1917	3494.65	2618.8
936.869	2061.7502	3493.25	2614.4
937.0058	2063.3079	3463.2	2586.2
937.1425	2064.8649	3451.9	2572.25
937.2792	2066.4212	3459.35	2584.35
937.4159	2067.9767	3460.8	2584.05
937.5525	2069.5315	3437.25	2561.5
937.6891	2071.0856	3438.8	2561.2
937.8257	2072.6389	3434	2556
937.9623	2074.1915	3415.2	2538.65
938.0989	2075.7433	3407.95	2529.55
938.2354	2077.2945	3409.7	2533.6
938.3719	2078.8448	3408.35	2535
938.5084	2080.3945	3401	2525.15
938.6448	2081.9434	3410.2	2533.65
938.7812	2083.4916	3374.65	2497.6
938.9176	2085.039	3384	2504.75
939.054	2086.5857	3380.9	2502.15
939.1903	2088.1317	3376.3	2496.75
939.3267	2089.677	3381.9	2502.3
939.463	2091.2215	3371.95	2493.65
939.5992	2092.7652	3368.85	2488.9
939.7355	2094.3083	3339.95	2462.7
939.8717	2095.8506	3344.2	2466.75
940.0079	2097.3921	3363.65	2486.5
940.1441	2098.933	3354.9	2478.4
940.2802	2100.4731	3351.15	2472.75
940.4163	2102.0124	3351.65	2455.95
940.5524	2103.5511	3338.25	2462.2
940.6885	2105.089	3339.7	2462.35
940.8245	2106.6261	3340.8	2463.2
940.9606	2108.1626	3332.1	2454.15
941.0965	2109.6983	3339.7	2434.25
941.2325	2111.2332	3323.25	2446.05
941.3684	2112.7675	3305.3	2427.45
941.5044	2114.301	3300.4	2420.9
941.6403	2115.8337	3302.8	2425
941.7761	2117.3657	3299.25	2421.95
941.912	2118.897	3298.35	2420.35
942.0478	2120.4276	3289.65	2403.85
942.1835	2121.9575	3291.1	2412.4
942.3193	2123.4866	3270.75	2391.35
942.455	2125.0149	3278.1	2396.5
942.5907	2126.5426	3261.55	2384.05
942.7264	2128.0695	3258.75	2377.9
942.8621	2129.5956	3253.95	2379.65
942.9977	2131.1211	3263.8	2382.9
943.1333	2132.6458	3252.9	2377.8
943.2689	2134.1698	3260.35	2383.8
943.4044	2135.693	3238.85	2356.6
943.54	2137.2155	3227.4	2347.75
943.6755	2138.7373	3223.05	2343.6
943.8109	2140.2584	3223.35	2347.95
943.9464	2141.7787	3220.5	2337.25
944.0818	2143.2983	3202.2	2326.8
944.2172	2144.8171	3183.05	2309.05
944.3526	2146.3353	3187.55	2308.7
944.4879	2147.8527	3190.6	2314.35
944.6232	2149.3693	3181.9	2303.3
944.7585	2150.8853	3181.75	2303.3
944.8938	2152.4005	3169.7	2292.05
945.029	2153.9149	3167.35	2289.4
945.1642	2155.4287	3161.65	2284.85
945.2994	2156.9417	3153.75	2273.95
945.4346	2158.454	3163.95	2282.25
945.5697	2159.9655	3155.45	2279.9
945.7048	2161.4764	3145.95	2269.85
945.8399	2162.9865	3136.35	2258.85
945.9749	2164.4958	3123.95	2244.5
946.1099	2166.0045	3112.3	2232.05
946.2449	2167.5124	3127.1	2248.2
946.3799	2169.0195	3114.5	2236.8
946.5148	2170.526	3120.4	2241.05
946.6498	2172.0317	3114.5	2237.15
946.7846	2173.5367	3104.7	2226.3
946.9195	2175.0409	3089.25	2212.9
947.0543	2176.5445	3092.9	2216.8
947.1891	2178.0473	3086.45	2207.3
947.3239	2179.5494	3092.3	2211.9
947.4587	2181.0507	3075.45	2198.05
947.5934	2182.5513	3056.1	2179.15
947.7281	2184.0512	3045.95	2168.75
947.8628	2185.5504	3052.5	2176.15
947.9974	2187.0488	3050.05	2172.35
948.132	2188.5465	3045.2	2168.5
948.2666	2190.0435	3026.95	2148.15
948.4012	2191.5397	3023.25	2147.55
948.5357	2193.0353	3024.7	2149.75
948.6702	2194.5301	3021.1	2141.9
948.8047	2196.0241	2999.55	2121.3
948.9392	2197.5175	3001.6	2125.2
949.0736	2199.0101	2992.45	2109.9
949.208	2200.502	2986.55	2110.1
949.3424	2201.9931	2980.2	2102.85
949.4767	2203.4835	2975.7	2096.1
949.611	2204.9733	2962.1	2077.6
949.7453	2206.4622	2972.85	2097.45
949.8796	2207.9505	2966	2086.4
950.0138	2209.438	2942.6	2067.35
950.148	2210.9248	2934	2056
950.2822	2212.4109	2931.8	2057.25
950.4164	2213.8962	2930.15	2049.3
950.5505	2215.3809	2919.7	2039.95
950.6846	2216.8648	2918.6	2041.4
950.8186	2218.3479	2927.75	2043.8
950.9527	2219.8304	2906.9	2030.25
951.0867	2221.3121	2904	2024.75
951.2207	2222.7931	2886.15	2007.4
951.3546	2224.2733	2882.85	2004.15
951.4886	2225.7529	2886.75	2008.45
951.6225	2227.2317	2876.1	1997.9
951.7563	2228.7098	2870.95	1992.9
951.8902	2230.1872	2859.75	1981.35
952.024	2231.6638	2852.8	1977.15
952.1578	2233.1397	2856.85	1973.3
952.2916	2234.6149	2849.8	1974.2
952.4253	2236.0894	2833.4	1954.8
952.559	2237.5632	2841.5	1954.3
952.6927	2239.0362	2822.9	1946.55
952.8263	2240.5085	2824.05	1946.7
952.9599	2241.9801	2802.5	1924.7
953.0935	2243.4509	2797.05	1919.7
953.2271	2244.921	2798.05	1917.4
953.3606	2246.3904	2791.85	1912.7
953.4941	2247.8591	2786.55	1909.1
953.6276	2249.3271	2782.2	1903.35
953.7611	2250.7943	2771.5	1894.15
953.8945	2252.2608	2771.7	1895.7
954.0279	2253.7266	2763.05	1885.25
954.1612	2255.1917	2764.3	1888.7
954.2946	2256.656	2756.85	1880.1
954.4279	2258.1197	2741.2	1865.65
954.5612	2259.5826	2739.9	1861.25
954.6944	2261.0447	2749.3	1871.25
954.8276	2262.5062	2718.15	1835.5
954.9608	2263.9669	2727.35	1844.4
955.094	2265.4269	2720.4	1843.95
955.2271	2266.8862	2718.5	1842.25
955.3602	2268.3448	2715.25	1837.3
955.4933	2269.8026	2707.75	1829.45
955.6264	2271.2598	2690.75	1813.35
955.7594	2272.7162	2682.2	1807.05
955.8924	2274.1719	2698.8	1820.85
956.0253	2275.6268	2687.2	1810.25
956.1583	2277.0811	2678.95	1800.55
956.2912	2278.5346	2692.8	1814.45
956.4241	2279.9874	2680.4	1802.35
956.5569	2281.4395	2671.75	1796.1
956.6897	2282.8908	2658.95	1776.3
956.8225	2284.3414	2658.3	1779.05
956.9553	2285.7914	2651.3	1772.15
957.088	2287.2406	2640.65	1762.1
957.2207	2288.689	2657.8	1778.95
957.3534	2290.1368	2637.85	1758.8
957.486	2291.5838	2633.7	1753.95
957.6186	2293.0302	2651.7	1772.8
957.7512	2294.4758	2622.4	1745.85
957.8838	2295.9206	2613.5	1733.85
958.0163	2297.3648	2618.15	1740.35
958.1488	2298.8082	2606.05	1727.05
958.2813	2300.251	2596.5	1717.4
958.4137	2301.693	2594.8	1714.1
958.5461	2303.1343	2589.6	1710.35
958.6785	2304.5748	2574.7	1697.6
958.8108	2306.0147	2580.25	1702.9
958.9432	2307.4538	2578.6	1699.65
959.0754	2308.8922	2570.7	1694.15
959.2077	2310.3299	2564.45	1685.85
959.3399	2311.7669	2559.6	1684.1
959.4721	2313.2031	2550.85	1671.9
959.6043	2314.6387	2550.5	1671.45
959.7365	2316.0735	2541.3	1663.75
959.8686	2317.5076	2540.45	1662.3
960.0006	2318.941	2539.85	1663.05
960.1327	2320.3737	2537.45	1660.15
960.2647	2321.8056	2525.2	1644.95
960.3967	2323.2369	2530.85	1652.15
960.5287	2324.6674	2523.25	1640.95
960.6606	2326.0972	2524.1	1644.65
960.7925	2327.5263	2517.85	1640.85
960.9244	2328.9547	2503.1	1626.05
961.0562	2330.3823	2497.35	1620.5
961.1881	2331.8092	2499.3	1619.25
961.3198	2333.2355	2485.1	1607
961.4516	2334.661	2487.05	1609.15
961.5833	2336.0858	2476.7	1597.6
961.715	2337.5098	2477.5	1597.9
961.8467	2338.9332	2465.35	1587.55
961.9783	2340.3558	2456.65	1574.55
962.1099	2341.7778	2455.1	1578.65
962.2415	2343.199	2443.2	1564.2
962.373	2344.6195	2440.25	1562.4
962.5045	2346.0393	2439.45	1563.2
962.636	2347.4583	2430.75	1551.4
962.7675	2348.8767	2433.9	1554.1
962.8989	2350.2943	2432.3	1553.95
963.0303	2351.7113	2416.7	1534
963.1617	2353.1275	2414.3	1535.95
963.293	2354.543	2416.6	1528.35
963.4243	2355.9578	2412.35	1532.7
963.5556	2357.3718	2393.75	1516.15
963.6868	2358.7852	2396.7	1516.5
963.818	2360.1978	2384.35	1504.05
963.9492	2361.6098	2385	1509
964.0803	2363.021	2384.85	1504
964.2114	2364.4315	2377.7	1500.95
964.3425	2365.8413	2370.2	1490.6
964.4736	2367.2504	2355.05	1478.6
964.6046	2368.6587	2352.8	1473.1
964.7356	2370.0664	2344.6	1465.7
964.8666	2371.4733	2346.85	1467.95
964.9975	2372.8795	2321.1	1441.95
965.1284	2374.285	2337.6	1459.5
965.2593	2375.6899	2322.4	1443.15
965.3901	2377.0939	2315.75	1438
965.5209	2378.4973	2314.7	1437.6
965.6517	2379.9	2316.15	1436.4
965.7825	2381.3019	2309.2	1430.5
965.9132	2382.7032	2295.4	1416.65
966.0439	2384.1037	2291.05	1413.75
966.1745	2385.5035	2285.95	1408.95
966.3051	2386.9027	2283.8	1406.65
966.4357	2388.3011	2274.15	1391.7
966.5663	2389.6987	2276.95	1399.6
966.6968	2391.0957	2263.05	1384.5
966.8273	2392.492	2259.5	1380.8
966.9578	2393.8876	2242.6	1362.2
967.0882	2395.2824	2240.4	1362.6
967.2186	2396.6765	2241.85	1364.75
967.349	2398.07	2233	1354.95
967.4793	2399.4627	2229.2	1349.6
967.6097	2400.8547	2228.65	1348
967.7399	2402.246	2232.7	1347.8
967.8702	2403.6366	2209.8	1330.4
968.0004	2405.0265	2197.2	1318.9
968.1306	2406.4156	2204.65	1322.65
968.2607	2407.8041	2192.5	1309.4
968.3909	2409.1918	2179	1296.7
968.521	2410.5789	2177.7	1298.5
968.651	2411.9652	2180.3	1299.5
968.781	2413.3508	2174.85	1294.5
968.911	2414.7358	2163.7	1284.85
969.041	2416.12	2168.3	1288.2
969.1709	2417.5035	2163.65	1287.4
969.3008	2418.8863	2148.45	1270.1
969.4307	2420.2684	2154	1275.5
969.5606	2421.6497	2141.3	1260
969.6904	2423.0304	2136.9	1258.8
969.8201	2424.4104	2144	1265.7
969.9499	2425.7896	2129.3	1247.55
970.0796	2427.1682	2124.15	1245.8
970.2093	2428.546	2124.15	1243.5
970.3389	2429.9232	2122.05	1241.85
970.4685	2431.2996	2112.15	1234.45
970.5981	2432.6753	2113.3	1235.65
970.7277	2434.0503	2103.5	1224.3
970.8572	2435.4246	2101	1224.25
970.9867	2436.7982	2101.95	1219.3
971.1161	2438.1711	2092.45	1214
971.2456	2439.5433	2092.75	1211.8
971.375	2440.9148	2085.95	1200
971.5043	2442.2856	2069.6	1191.05
971.6336	2443.6557	2080.65	1200.4
971.7629	2445.025	2074	1197.8
971.8922	2446.3937	2067.2	1187.3
972.0214	2447.7617	2072.45	1192.45
972.1506	2449.1289	2057	1180.7
972.2798	2450.4955	2063.5	1179.75
972.4089	2451.8613	2049.1	1172.9
972.538	2453.2265	2038.15	1158.35
972.6671	2454.5909	2058.95	1179.8
972.7961	2455.9546	2047.25	1169.5
972.9251	2457.3177	2031.9	1155.4
973.0541	2458.68	2039.5	1157.8
973.1831	2460.0416	2030.6	1152.85
973.312	2461.4025	2037.15	1155.25
973.4408	2462.7627	2039	1147.1
973.5697	2464.1222	2016.1	1140.4
973.6985	2465.4811	2007.85	1127.85
973.8273	2466.8392	2013.8	1134.7
973.956	2468.1966	2018.6	1139.2
974.0847	2469.5533	2011.9	1130.15
974.2134	2470.9093	2006.8	1128.6
974.3421	2472.2645	2007.4	1126.45
974.4707	2473.6191	1993.3	1113.85
974.5993	2474.973	1991.25	1112.7
974.7278	2476.3262	1985.25	1105.95
974.8563	2477.6787	1983.15	1106.15
974.9848	2479.0305	1979.55	1101.4
975.1132	2480.3816	1981.1	1101.85
975.2417	2481.7319	1976.45	1097.15
975.37	2483.0816	1970.35	1090.65
975.4984	2484.4306	1962.05	1082.2
975.6267	2485.7789	1955	1076.2
975.755	2487.1264	1957.4	1077.25
975.8833	2488.4733	1948.65	1070.45
976.0115	2489.8195	1954.1	1068.65
976.1397	2491.165	1945.3	1063.9
976.2678	2492.5097	1941.85	1060.65
976.3959	2493.8538	1936.35	1056.4
976.524	2495.1972	1919.6	1038.65
976.6521	2496.5398	1930.75	1050.45
976.7801	2497.8818	1918.9	1038.7
976.9081	2499.2231	1917.3	1040.45
977.036	2500.5637	1906.35	1025.05
977.164	2501.9035	1907.05	1025.85
977.2918	2503.2427	1911.2	1028.3
977.4197	2504.5812	1909.1	1031.95
977.5475	2505.919	1898.05	1018.3
977.6753	2507.256	1904.25	1025.4
977.8031	2508.5924	1892.3	1014.2
977.9308	2509.9281	1893.65	1008.9
978.0585	2511.2631	1883.5	1005.4
978.1861	2512.5974	1881.6	1004.2
978.3137	2513.9309	1872.05	992.4
978.4413	2515.2638	1902.55	990.85
978.5689	2516.596	1860.25	982.75
978.6964	2517.9275	1867.55	989.1
978.8239	2519.2583	1858.7	980.8
978.9513	2520.5884	1855.65	975.6
979.0788	2521.9178	1849.05	972.05
979.2062	2523.2465	1854.1	975.35
979.3335	2524.5745	1841.55	963.25
979.4608	2525.9018	1833.85	955.75
979.5881	2527.2284	1838.85	960.9
979.7154	2528.5543	1831.4	955.45
979.8426	2529.8796	1839.1	961.6
979.9698	2531.2041	1835.85	958.45
980.0969	2532.5279	1825.75	947.3
980.224	2533.851	1824.55	945.05
980.3511	2535.1735	1821.75	944.45
980.4781	2536.4952	1816.9	938.8
980.6052	2537.8163	1809.7	931.3
980.7321	2539.1366	1806.1	928.9
980.8591	2540.4562	1806.5	926.25
980.986	2541.7752	1809.6	933.2
981.1129	2543.0935	1811.05	930.55
981.2397	2544.411	1810.2	929.4
981.3665	2545.7279	1798.4	920.1
981.4933	2547.0441	1795.25	916.75
981.62	2548.3596	1803.1	919.4
981.7467	2549.6744	1794.4	915.7
981.8734	2550.9885	1794.55	906.65
982.0001	2552.3019	1786.4	909.75
982.1267	2553.6146	1780.2	901.6
982.2532	2554.9266	1785	905.5
982.3798	2556.2379	1772.8	891.25
982.5063	2557.5485	1769.75	891.5
982.6327	2558.8585	1777.95	891.2
982.7592	2560.1677	1783.55	899.95
982.8856	2561.4762	1770.3	890.7
983.0119	2562.7841	1768.7	888.7
983.1383	2564.0913	1761.2	882.8
983.2646	2565.3977	1758.4	880.85
983.3908	2566.7035	1766.35	887.7
983.517	2568.0086	1761.25	881.65
983.6432	2569.313	1757.75	879.65
983.7694	2570.6167	1755.75	872.75
983.8955	2571.9197	1745.4	868.85
984.0216	2573.222	1748.5	865.4
984.1476	2574.5236	1742.75	863.45
984.2737	2575.8246	1747.05	865.45
984.3996	2577.1248	1742.65	862.45
984.5256	2578.4244	1737.25	859.65
984.6515	2579.7232	1737.25	859.2
984.7774	2581.0214	1761.15	858.95
984.9032	2582.3189	1727.15	850.55
985.029	2583.6157	1730.7	846.6
985.1548	2584.9118	1725.4	846.2
985.2806	2586.2072	1720.85	841.4
985.4063	2587.5019	1713.55	835.2
985.5319	2588.7959	1716.65	836.15
985.6576	2590.0893	1710.8	831.25
985.7832	2591.3819	1713	837.15
985.9087	2592.6739	1709.3	832.55
986.0343	2593.9652	1702.1	821.05
986.1597	2595.2557	1705.85	829.2
986.2852	2596.5456	1695	813.95
986.4106	2597.8348	1691.95	814.25
986.536	2599.1234	1689.85	814.15
986.6614	2600.4112	1691.6	812.25
986.7867	2601.6983	1691.55	810.75
986.912	2602.9848	1677.2	799.65
987.0372	2604.2705	1683.2	796.75
987.1624	2605.5556	1671.2	792.1
987.2876	2606.84	1665.35	787
987.4128	2608.1237	1670	791.05
987.5379	2609.4067	1667.2	787.5
987.6629	2610.689	1678.35	790.85
987.788	2611.9707	1658.4	777.65
987.913	2613.2516	1654.65	770.1
988.0379	2614.5319	1654.75	777.65
988.1629	2615.8115	1646.55	767.05
988.2878	2617.0903	1645.85	765.5
988.4126	2618.3685	1632.9	754.15
988.5375	2619.6461	1638.55	762.2
988.6622	2620.9229	1628.45	750.35
988.787	2622.199	1629.35	749.65
988.9117	2623.4745	1626.75	746.45
989.0364	2624.7493	1624.1	743.9
989.161	2626.0234	1632.35	756.2
989.2857	2627.2968	1619.3	741.65
989.4102	2628.5695	1620.35	739.95
989.5348	2629.8415	1615.6	736.8
989.6593	2631.1128	1609.6	729.6
989.7837	2632.3835	1601.1	723.8
989.9082	2633.6535	1599.9	721.65
990.0326	2634.9228	1599.1	722.05
990.1569	2636.1914	1592.75	714.35
990.2812	2637.4593	1602.65	718.45
990.4055	2638.7265	1588.8	709.55
990.5298	2639.9931	1581.7	703.9
990.654	2641.259	1583.7	704.6
990.7782	2642.5242	1578.5	699.65
990.9023	2643.7887	1582.1	704.55
991.0264	2645.0525	1576.65	699
991.1505	2646.3156	1572.15	693.4
991.2745	2647.5781	1573.15	695.5
991.3985	2648.8398	1565.7	689.5
991.5225	2650.1009	1571.45	683.2
991.6464	2651.3613	1566	686.75
991.7703	2652.6211	1559.85	682
991.8942	2653.8801	1568.4	690.05
992.018	2655.1385	1559.3	676.75
992.1418	2656.3961	1554.75	676.3
992.2655	2657.6531	1548.1	671.4
992.3892	2658.9094	1550	671.3
992.5129	2660.1651	1546.85	668.1
992.6366	2661.42	1545.8	668.8
992.7602	2662.6743	1538.05	660.85
992.8837	2663.9279	1547.05	668.15
993.0073	2665.1808	1539.7	660.3
993.1307	2666.433	1541.2	661.15
993.2542	2667.6846	1535.35	658.4
993.3776	2668.9354	1533.45	652.85
993.501	2670.1856	1526.8	648.25
993.6244	2671.4351	1524.55	647.35
993.7477	2672.6839	1529.15	649.4
993.8709	2673.9321	1522.25	645.15
993.9942	2675.1795	1520.85	642.55
994.1174	2676.4263	1513.35	635.5
994.2405	2677.6724	1514.1	635.2
994.3637	2678.9179	1519.75	641.4
994.4868	2680.1626	1508.45	630.85
994.6098	2681.4067	1506.2	628.85
994.7328	2682.6501	1501.6	623.6
994.8558	2683.8928	1502.9	625.2
994.9788	2685.1348	1496.75	619.85
995.1017	2686.3761	1491.35	614.55
995.2245	2687.6168	1495.35	617.45
995.3474	2688.8568	1490.05	611.8
995.4702	2690.0961	1492.8	615.4
995.5929	2691.3348	1487.25	611.25
995.7156	2692.5727	1488.6	610.25
995.8383	2693.81	1486.6	609.6
995.961	2695.0466	1486.55	609.8
996.0836	2696.2826	1474.6	596.05
996.2062	2697.5178	1495.9	597.9
996.3287	2698.7524	1473.2	597.65
996.4512	2699.9863	1479.9	596.7
996.5737	2701.2195	1468.1	592.55
996.6961	2702.452	1470.45	591.4
996.8185	2703.6839	1460.7	582.8
996.9408	2704.9151	1455.5	577.65
997.0631	2706.1456	1463.25	584.7
997.1854	2707.3755	1457.45	580.8
997.3077	2708.6046	1460.55	578.7
997.4299	2709.8331	1452.05	573.35
997.552	2711.0609	1449.95	570.55
997.6742	2712.2881	1452.1	574.05
997.7963	2713.5145	1451.4	570.65
997.9183	2714.7403	1441.3	564.2
998.0403	2715.9654	1444.9	567.75
998.1623	2717.1899	1455.55	562.9
998.2842	2718.4136	1438.35	559.55
998.4062	2719.6367	1443.75	565.3
998.528	2720.8591	1443.95	557.55
998.6498	2722.0809	1436.65	558
998.7716	2723.3019	1443.3	562.3
998.8934	2724.5223	1430	550.1
999.0151	2725.7421	1426.6	546.55
999.1368	2726.9611	1428.6	547.55
999.2584	2728.1795	1424.15	542.7
999.38	2729.3972	1423.65	546.1
999.5016	2730.6142	1429.75	538.4
999.6231	2731.8306	1410.45	532.45
999.7446	2733.0462	1413.4	532.75
999.8661	2734.2612	1413.4	530.6
999.9875	2735.4756	1407.75	528.7
1000.1089	2736.6892	1401.15	523
1000.2302	2737.9022	1393.4	516.95
1000.3515	2739.1145	1390.75	514.75
1000.4728	2740.3262	1399.65	512.8
1000.594	2741.5372	1385.95	510
1000.7152	2742.7475	1384.8	505.6
1000.8363	2743.9571	1386.95	507.6
1000.9575	2745.1661	1382.6	497.8
1001.0785	2746.3744	1385.75	506.95
1001.1996	2747.582	1377.45	498.1
1001.3206	2748.7889	1379.05	497.2
1001.4415	2749.9952	1375.4	497.75
1001.5625	2751.2008	1371.2	492.55
1001.6833	2752.4057	1373.55	494.7
1001.8042	2753.61	1368.3	490.4
1001.925	2754.8136	1373	495.1
1002.0458	2756.0165	1363	484.2
1002.1665	2757.2188	1368.4	490.65
1002.2872	2758.4204	1362.2	483.9
1002.4078	2759.6213	1361.65	482.25
1002.5285	2760.8215	1365.8	482.55
1002.649	2762.0211	1357.8	480.3
1002.7696	2763.22	1358.8	479.15
1002.8901	2764.4182	1356.2	477.8
1003.0106	2765.6158	1350.25	472.4
1003.131	2766.8127	1350.55	472.9
1003.2514	2768.009	1339.95	460.75
1003.3717	2769.2045	1343.8	463.25
1003.492	2770.3994	1338.45	458.6
1003.6123	2771.5936	1343.95	465.5
1003.7325	2772.7872	1336.7	459.75
1003.8527	2773.9801	1333.45	453.55
1003.9729	2775.1723	1347.35	452.15
1004.093	2776.3639	1326.1	450.8
1004.2131	2777.5548	1328.05	447.95
1004.3331	2778.745	1327.25	448.05
1004.4531	2779.9346	1326.7	449
1004.5731	2781.1235	1320.25	442.65
1004.693	2782.3117	1319.5	441.8
1004.8129	2783.4992	1318.35	441.35
1004.9328	2784.6861	1317.8	441.6
1005.0526	2785.8723	1322.9	443.65
1005.1723	2787.0579	1311.7	434.35
1005.2921	2788.2428	1319.85	441.9
1005.4118	2789.427	1310.1	433.3
1005.5314	2790.6106	1313.6	434.6
1005.651	2791.7935	1306.9	428.55
1005.7706	2792.9757	1304.85	429.25
1005.8902	2794.1573	1306.75	426.45
1006.0097	2795.3382	1304.75	427.3
1006.1291	2796.5184	1304.45	429.05
1006.2485	2797.698	1297.75	419.4
1006.3679	2798.8769	1295.6	418.2
1006.4873	2800.0551	1294.6	416.45
1006.6066	2801.2327	1290.85	410.1
1006.7258	2802.4096	1289.7	412.6
1006.8451	2803.5859	1291.05	413.25
1006.9642	2804.7615	1296.3	418.35
1007.0834	2805.9364	1285.4	408.75
1007.2025	2807.1106	1283.65	407.85
1007.3216	2808.2842	1286.4	408.3
1007.4406	2809.4572	1282.3	402.45
1007.5596	2810.6294	1290.2	411.1
1007.6785	2811.801	1281.8	404.25
1007.7975	2812.972	1277.75	400.2
1007.9163	2814.1423	1275.6	398.6
1008.0352	2815.3119	1281.45	404.8
1008.154	2816.4808	1281.2	404.8
1008.2727	2817.6491	1288.85	411.2
1008.3914	2818.8167	1283.25	406.65
1008.5101	2819.9837	1290.5	407.7
1008.6288	2821.15	1292.05	413.5
1008.7474	2822.3157	1284.7	407.4
1008.8659	2823.4807	1290.55	412.4
1008.9844	2824.645	1301.75	423.15
1009.1029	2825.8086	1297.05	420.65
1009.2214	2826.9716	1304.25	424.9
1009.3398	2828.134	1310.75	434.15
1009.4581	2829.2957	1317.45	438.85
1009.5764	2830.4567	1317	441.5
1009.6947	2831.617	1324.6	447.05
1009.813	2832.7767	1321.7	446.65
1009.9312	2833.9358	1317.85	441.65
1010.0493	2835.0941	1315.45	437.35
1010.1675	2836.2519	1315.15	435.9
1010.2855	2837.4089	1314.9	436.65
1010.4036	2838.5653	1305.3	428.35
1010.5216	2839.7211	1308.7	433.25
1010.6396	2840.8761	1296.25	418.7
1010.7575	2842.0306	1300.25	425
1010.8754	2843.1843	1295.05	416.2
1010.9932	2844.3374	1293.55	416.6
1011.111	2845.4899	1296.1	420.25
1011.2288	2846.6417	1297.4	421.6
1011.3465	2847.7928	1298.8	423.5
1011.4642	2848.9433	1300.65	423.8
1011.5818	2850.0931	1299.95	423.55
1011.6995	2851.2422	1295.6	415.35
1011.817	2852.3907	1296.5	419.45
1011.9345	2853.5385	1305	424.45
1012.052	2854.6857	1311.65	424.85
1012.1695	2855.8323	1297	420.35
1012.2869	2856.9781	1294.65	416.05
1012.4042	2858.1233	1295.85	417.4
1012.5216	2859.2679	1290.7	414.35
1012.6389	2860.4118	1305.05	427.8
1012.7561	2861.555	1302.7	421.2
1012.8733	2862.6976	1308.15	429
1012.9905	2863.8395	1305.45	429.3
1013.1076	2864.9808	1301.15	423.65
1013.2247	2866.1214	1303.15	426.4
1013.3417	2867.2614	1306.85	428.1
1013.4587	2868.4007	1311.75	432.25
1013.5757	2869.5393	1305.2	425.65
1013.6926	2870.6773	1308.05	427.05
1013.8095	2871.8146	1304.1	423.15
1013.9263	2872.9513	1304	424.75
1014.0431	2874.0874	1295.65	420.1
1014.1599	2875.2227	1298.9	420.05
1014.2766	2876.3574	1301.35	424.75
1014.3933	2877.4915	1299.95	421.9
1014.51	2878.6249	1306.6	430.45
1014.6266	2879.7577	1304.65	427.95
1014.7431	2880.8898	1309.45	421.8
1014.8596	2882.0212	1300.15	423
1014.9761	2883.152	1300.9	424.35
1015.0925	2884.2821	1303.65	425.95
1015.2089	2885.4116	1300.8	423.9
1015.3253	2886.5405	1295.7	420.4
1015.4416	2887.6686	1302.35	420.9
1015.5579	2888.7962	1294.65	418.7
1015.6741	2889.923	1293.7	417.35
1015.7903	2891.0493	1296.5	420.3
1015.9065	2892.1748	1296.85	419
1016.0226	2893.2997	1296.85	419.5
1016.1387	2894.424	1289.65	415.2
1016.2547	2895.5476	1287.8	410.15
1016.3707	2896.6706	1294	417.05
1016.4866	2897.7929	1291.35	414.1
1016.6025	2898.9145	1291.95	414.3
1016.7184	2900.0355	1284.35	405.6
1016.8342	2901.1559	1284.6	407.25
1016.95	2902.2756	1285.35	409.15
1017.0658	2903.3946	1279.05	403.5
1017.1815	2904.513	1288.25	407.3
1017.2971	2905.6308	1276.5	400.75
1017.4127	2906.7479	1276.2	398.3
1017.5283	2907.8643	1278.25	401.15
1017.6439	2908.9801	1272.05	395.6
1017.7594	2910.0953	1271.9	395.05
1017.8748	2911.2098	1271.85	391.55
1017.9902	2912.3236	1281.35	397.2
1018.1056	2913.4368	1274.15	394.85
1018.2209	2914.5494	1267.1	387.4
1018.3362	2915.6613	1271.5	388.75
1018.4515	2916.7725	1266.65	385.65
1018.5667	2917.8831	1262.35	385.2
1018.6819	2918.9931	1254.45	375.95
1018.797	2920.1024	1255.5	377.15
1018.9121	2921.211	1247.65	372.05
1019.0271	2922.319	1245.35	367.2
1019.1421	2923.4264	1248.25	370.75
1019.2571	2924.5331	1245.6	370.5
1019.372	2925.6391	1248.25	371.55
1019.4869	2926.7445	1241.15	365.25
1019.6017	2927.8493	1240.55	362.9
1019.7165	2928.9534	1238.45	360.85
1019.8313	2930.0569	1243.45	365.2
1019.946	2931.1597	1242.1	362.65
1020.0606	2932.2619	1240.4	362.4
1020.1753	2933.3634	1234.8	358.15
1020.2899	2934.4643	1249.95	366.15
1020.4044	2935.5645	1244.35	361.2
1020.5189	2936.6641	1248.1	367.95
1020.6334	2937.763	1237.35	359.7
1020.7478	2938.8613	1240.55	363.5
1020.8622	2939.959	1243.9	360.85
1020.9765	2941.056	1236.55	358.75
1021.0908	2942.1523	1230.6	353.95
1021.2051	2943.248	1224.75	348.65
1021.3193	2944.3431	1210.8	335.7
1021.4334	2945.4375	1208.6	331.65
1021.5476	2946.5313	1201.85	325.6
1021.6617	2947.6244	1191.7	314.6
1021.7757	2948.7169	1190.25	312.9
1021.8897	2949.8087	1183.15	305.9
1022.0037	2950.8999	1174	295.5
1022.1176	2951.9904	1166.25	287.8
1022.2315	2953.0803	1162.15	284.9
1022.3453	2954.1696	1161.2	284.05
1022.4591	2955.2582	1160.55	285.85
1022.5728	2956.3462	1155.8	278.15
1022.6865	2957.4335	1155.25	276.05
1022.8002	2958.5202	1156.5	279.45
1022.9138	2959.6062	1152.65	275.2
1023.0274	2960.6916	1143.5	267.25
1023.141	2961.7764	1144.8	266.6
1023.2545	2962.8605	1148.55	271.4
1023.3679	2963.9439	1141.2	264.7
1023.4813	2965.0267	1141.75	263.35
1023.5947	2966.1089	1167.9	270.4
1023.708	2967.1905	1143.45	268
1023.8213	2968.2714	1141.05	264.05
1023.9346	2969.3516	1135.5	257.6
1024.0478	2970.4312	1147.45	263.3
1024.1609	2971.5102	1136.6	259.9
1024.274	2972.5885	1135	257.45
1024.3871	2973.6662	1140.05	258.45
1024.5002	2974.7432	1136.65	259.8
1024.6132	2975.8196	1127.75	250.15
1024.7261	2976.8954	1131.65	255.55
1024.839	2977.9705	1127.05	248.65
1024.9519	2979.045	1129.35	253.45
1025.0647	2980.1188	1131.9	254.85
1025.1775	2981.192	1124	248.25
1025.2902	2982.2645	1128.4	252.15
1025.4029	2983.3364	1125	248.25
1025.5156	2984.4077	1123.55	245.7
1025.6282	2985.4783	1127.8	244.5
1025.7407	2986.5483	1114.3	238.75
1025.8532	2987.6177	1114.6	239.85
1025.9657	2988.6864	1113.75	237.65
1026.0782	2989.7545	1109.9	232.1
1026.1906	2990.8219	1102.95	226.7
1026.3029	2991.8887	1101.7	224.45
1026.4152	2992.9548	1105.1	225.5
1026.5275	2994.0204	1101.35	224.1
1026.6397	2995.0852	1095.55	217.95
1026.7519	2996.1495	1098	221.45
1026.864	2997.2131	1090.2	214.55
1026.9761	2998.276	1090.15	211.6
1027.0882	2999.3383	1084.4	207.7
1027.2002	3000.4	1083.65	205.95
1027.3122	3001.4611	1082.1	204.5
1027.4241	3002.5215	1084.9	208.05
1027.536	3003.5812	1075.25	197.95
1027.6478	3004.6404	1076.05	199.75
1027.7596	3005.6989	1076.3	197.9
1027.8714	3006.7567	1072.75	195.3
1027.9831	3007.8139	1095.05	198.3
1028.0947	3008.8705	1073.75	196.6
1028.2064	3009.9264	1072.3	192.5
1028.3179	3010.9818	1070.85	192.5
1028.4295	3012.0364	1071.8	194.65
1028.541	3013.0905	1068.65	188.65
1028.6524	3014.1439	1066.75	190.55
1028.7638	3015.1966	1064.15	187.95
1028.8752	3016.2487	1059.6	183.4
1028.9865	3017.3002	1068.55	186.15
1029.0978	3018.3511	1059.7	184.55
1029.209	3019.4013	1065.9	189.05
1029.3202	3020.4509	1061.8	184.65
1029.4314	3021.4998	1055.2	179.45
1029.5425	3022.5481	1056.25	179.65
1029.6535	3023.5958	1056.2	179.8
1029.7645	3024.6428	1059.3	179.95
1029.8755	3025.6892	1052.85	176.1
1029.9864	3026.735	1055.15	178.65
1030.0973	3027.7802	1053.15	173.55
1030.2082	3028.8247	1048.35	173.45
1030.319	3029.8685	1051.45	174.6
1030.4297	3030.9118	1053.45	178
1030.5404	3031.9544	1048.8	173.35
1030.6511	3032.9963	1049.6	172
1030.7617	3034.0376	1048.2	171.75
1030.8723	3035.0783	1048.4	168
1030.9829	3036.1184	1051.05	172.3
1031.0934	3037.1578	1044.4	169.65
1031.2038	3038.1966	1044.1	166.45
1031.3142	3039.2348	1043.9	169.7
1031.4246	3040.2723	1055.2	169.7
1031.5349	3041.3092	1043.6	167.25
1031.6452	3042.3455	1045.25	169.4
1031.7554	3043.3811	1043	165.95
1031.8656	3044.4161	1043.9	166.65
1031.9758	3045.4505	1040.75	163.75
1032.0859	3046.4842	1043.5	165.5
1032.1959	3047.5173	1046.35	170.4
1032.3059	3048.5498	1042.9	167.4
1032.4159	3049.5816	1038.85	164
1032.5258	3050.6128	1045.4	167.8
1032.6357	3051.6434	1037.4	159.5
1032.7455	3052.6734	1040.45	162.8
1032.8553	3053.7027	1034.95	160
1032.9651	3054.7314	1038.5	162.3
1033.0748	3055.7594	1039.9	162
1033.1845	3056.7868	1038.1	162.7
1033.2941	3057.8136	1033.9	156.8
1033.4037	3058.8398	1033.65	157.6
1033.5132	3059.8653	1039.4	164.15
1033.6227	3060.8902	1032.1	156.45
1033.7321	3061.9145	1032.7	153.7
1033.8415	3062.9381	1035.35	161.1
1033.9509	3063.9612	1049.4	156.65
1034.0602	3064.9835	1034.1	158.45
1034.1694	3066.0053	1035.2	156.3
1034.2787	3067.0264	1031.8	155.15
1034.3878	3068.0469	1029.9	151.25
1034.497	3069.0668	1034.05	154.05
1034.6061	3070.086	1029.35	153.4
1034.7151	3071.1046	1030.8	153.05
1034.8241	3072.1226	1030.7	153.6
1034.9331	3073.1399	1023.85	148.15
1035.042	3074.1567	1029.15	152
1035.1508	3075.1727	1024.15	147.05
1035.2597	3076.1882	1027.9	151.7
1035.3684	3077.203	1022.05	146.35
1035.4772	3078.2173	1023	145.85
1035.5859	3079.2308	1024.9	144.9
1035.6945	3080.2438	1021.25	142.75
1035.8031	3081.2561	1023.75	147.45
1035.9117	3082.2678	1017	141.95
1036.0202	3083.2789	1019.45	143.1
1036.1286	3084.2893	1015.9	140.25
1036.2371	3085.2991	1015.8	138.55
1036.3454	3086.3083	1025.45	144.25
1036.4538	3087.3169	1020.7	143.6
1036.562	3088.3248	1016.5	139.25
1036.6703	3089.3321	1019.1	140.7
1036.7785	3090.3388	1013	136.7
1036.8866	3091.3449	1012.65	135.6
1036.9948	3092.3503	1012.25	132.65
1037.1028	3093.3551	1007.55	132.25
1037.2108	3094.3593	1007.65	133.35
1037.3188	3095.3629	1006.7	131.95
1037.4267	3096.3658	1010	133.5
1037.5346	3097.3681	1007.1	130.45
1037.6425	3098.3698	1006.15	128.55
1037.7503	3099.3708	1010.6	131.5
1037.858	3100.3713	1004.55	128.35
1037.9657	3101.3711	1003.75	125.8
1038.0734	3102.3702	1133.3	121.3
1038.181	3103.3688	1002.8	125.6
1038.2886	3104.3667	1002.15	127.25
1038.3961	3105.364	999.25	122.7
1038.5036	3106.3607	1005.1	127.05
1038.611	3107.3568	1003.15	124.6
1038.7184	3108.3522	997.8	123.15
1038.8257	3109.347	996.15	118.5
1038.933	3110.3412	1002.45	122.25
1039.0403	3111.3348	994.6	119.35
1039.1475	3112.3277	994.45	116.75
1039.2547	3113.32	989.45	114.3
1039.3618	3114.3117	991.6	116.1
1039.4689	3115.3028	995.7	120.9
1039.5759	3116.2932	994.75	116.1
1039.6829	3117.2831	995.35	111.75
1039.7898	3118.2723	995.3	119.55
1039.8967	3119.2608	992	113.85
1040.0035	3120.2488	989.6	111.35
1040.1103	3121.2361	990.3	113.45
1040.2171	3122.2229	988.75	111.5
1040.3238	3123.209	990.75	113.8
1040.4305	3124.1944	989.55	113.1
1040.5371	3125.1793	986.65	108.55
1040.6437	3126.1635	986.4	109.55
1040.7502	3127.1471	990.4	115.2
1040.8567	3128.1301	984.95	108.1
1040.9631	3129.1125	986.05	111.1
1041.0695	3130.0942	984.7	109.05
1041.1759	3131.0753	990.6	105.95
1041.2822	3132.0558	984.6	103.55
1041.3884	3133.0357	981.85	103.3
1041.4946	3134.015	984	107.4
1041.6008	3134.9936	984.05	104.7
1041.7069	3135.9716	1000.85	103.05
1041.813	3136.949	981.75	106.85
1041.919	3137.9258	983.45	101.35
1042.025	3138.902	986.65	104.4
1042.1309	3139.8775	978	100.35
1042.2368	3140.8524	975.2	99.2
1042.3427	3141.8267	983.75	105.6
1042.4485	3142.8004	980.35	103.45
1042.5542	3143.7735	983.6	100.7
1042.6599	3144.7459	977.75	97.3
1042.7656	3145.7178	978.4	102.55
1042.8712	3146.689	974.6	98.5
1042.9768	3147.6596	981.8	104.25
1043.0823	3148.6295	975.55	98.9
1043.1878	3149.5989	976.9	98.35
1043.2932	3150.5676	973.85	98.65
1043.3986	3151.5357	973.45	98.7
1043.5039	3152.5032	972.35	96.05
1043.6092	3153.4701	976.1	98.4
1043.7145	3154.4364	975.3	97.75
1043.8197	3155.402	972.75	97.95
1043.9248	3156.367	974	96.45
1044.03	3157.3315	1007.6	92
1044.135	3158.2952	969.35	92.5
1044.24	3159.2584	969.55	94.15
1044.345	3160.221	970.4	92.1
1044.4499	3161.1829	967	90.35
1044.5548	3162.1442	962.55	85.65
1044.6596	3163.105	965.35	88.05
1044.7644	3164.065	969.2	93.8
1044.8692	3165.0245	969.15	89.5
1044.9739	3165.9834	968.05	94.25
1045.0785	3166.9416	966	89.9
1045.1831	3167.8993	963.75	86.6
1045.2877	3168.8563	963.65	87.6
1045.3922	3169.8127	960.1	83.6
1045.4966	3170.7684	962.95	87.4
1045.6011	3171.7236	965.6	86.75
1045.7054	3172.6782	964.7	87.75
1045.8098	3173.6321	964.5	87.35
1045.914	3174.5854	964.6	82
1046.0183	3175.5381	966	89.7
1046.1224	3176.4902	961.3	84.95
1046.2266	3177.4417	961.5	86.5
1046.3307	3178.3926	960.15	83.85
1046.4347	3179.3428	956.3	79.8
1046.5387	3180.2924	959.75	86.2
1046.6427	3181.2415	956.95	80.3
1046.7466	3182.1899	957.6	80.55
1046.8504	3183.1377	959.65	81.8
1046.9542	3184.0848	958.1	79
1047.058	3185.0314	959.8	84.4
1047.1617	3185.9773	958	81.75
1047.2654	3186.9227	955.2	78.3
1047.369	3187.8674	955.65	79
1047.4726	3188.8115	959.6	78.5
1047.5761	3189.755	952.4	76.5
1047.6796	3190.6979	952.65	77.1
1047.783	3191.6402	951.1	74.6
1047.8864	3192.5818	952	75.95
1047.9898	3193.5229	960.15	76
1048.0931	3194.4633	954.7	79.05
1048.1963	3195.4031	953.95	77.1
1048.2995	3196.3423	953.8	77.85
1048.4027	3197.2809	951.35	74.4
1048.5058	3198.2189	951	72.75
1048.6089	3199.1563	956	72.85
1048.7119	3200.0931	950.35	76.1
1048.8148	3201.0292	949.55	74.4
1048.9178	3201.9648	948.25	71.7
1049.0206	3202.8997	949.05	70
1049.1235	3203.834	948.45	73.5
1049.2262	3204.7677	949.25	73.55
1049.329	3205.7008	946.8	68.75
1049.4317	3206.6333	948.6	73.7
1049.5343	3207.5652	948.35	69.35
1049.6369	3208.4964	946.75	70.45
1049.7394	3209.4271	944.9	67.5
1049.8419	3210.3571	945	69.1
1049.9444	3211.2865	945.35	68.1
1050.0468	3212.2154	946.25	69.05
1050.1491	3213.1436	949.7	71.3
1050.2514	3214.0712	953	71.4
1050.3537	3214.9982	943.65	67.45
1050.4559	3215.9246	941.8	65.6
1050.5581	3216.8503	944.3	67.25
1050.6602	3217.7755	940.4	64.5
1050.7623	3218.7001	941.7	66.25
1050.8643	3219.624	941.8	64.25
1050.9663	3220.5473	943.1	66.7
1051.0682	3221.4701	942.4	65.45
1051.1701	3222.3922	943.5	65.5
1051.2719	3223.3137	941.55	64.75
1051.3737	3224.2346	938.4	61.2
1051.4754	3225.1549	938.7	62.2
1051.5771	3226.0746	938.55	62.4
1051.6788	3226.9937	939.75	64.95
1051.7804	3227.9121	939.3	64.5
1051.8819	3228.83	937.95	60.1
1051.9834	3229.7473	942.65	66.1
1052.0849	3230.6639	938.8	62.2
1052.1863	3231.5799	938.85	64.8
1052.2876	3232.4954	939.6	63.2
1052.3889	3233.4102	936.35	59.75
1052.4902	3234.3244	937.9	60.85
1052.5914	3235.238	933.55	57.15
1052.6926	3236.151	959.3	59.25
1052.7937	3237.0634	935.4	61.85
1052.8948	3237.9752	933.4	57.35
1052.9958	3238.8864	935.85	59.8
1053.0968	3239.797	933.35	55.25
1053.1977	3240.7069	933.5	56.5
1053.2986	3241.6163	934.25	58.6
1053.3994	3242.5251	932.9	57
1053.5002	3243.4332	933.75	58.85
1053.6009	3244.3408	934.7	57.55
1053.7016	3245.2477	929.25	54.1
1053.8022	3246.154	929.5	51.1
1053.9028	3247.0598	933.45	56.25
1054.0034	3247.9649	933.55	56.55
1054.1039	3248.8694	926.9	50.95
1054.2043	3249.7733	931.25	54.55
1054.3047	3250.6766	932.4	55.85
1054.4051	3251.5793	931.3	54.25
1054.5054	3252.4814	929.05	52.75
1054.6056	3253.3829	929.15	53.95
1054.7058	3254.2838	927.4	49.65
1054.806	3255.1841	927.05	54.45
1054.9061	3256.0838	928.1	52.7
1055.0061	3256.9829	928.65	55.1
1055.1062	3257.8814	928.8	52.55
1055.2061	3258.7792	929.75	50.95
1055.306	3259.6765	929.95	52.5
1055.4059	3260.5731	927.5	49.5
1055.5057	3261.4692	927.5	51.5
1055.6055	3262.3647	927.25	51.45
1055.7052	3263.2595	922.5	46.5
1055.8049	3264.1538	925.45	49.8
1055.9045	3265.0474	923.05	47.6
1056.0041	3265.9404	922.7	50
1056.1036	3266.8329	921.25	46.35
1056.2031	3267.7247	934.05	48.8
1056.3025	3268.616	918.3	44.05
1056.4019	3269.5066	917.4	42.05
1056.5013	3270.3966	917.35	38.8
1056.6005	3271.286	918.9	44
