Software Version:	3.9.2.0
Unit SN:	10000200
Spectrometer SN:	6960
Date:	3/6/2024 9:37:12 AM
Data Line Index:	25
Spectral Points:	2048
Integration time (ms):	125
Averages:	20
Delay (ms):	30
Sequence Number:	1
Processing:	dark subtract
Laser Power (mW):	305
Laser Current (mA):	823
Laser Diode Temp (C):	25.1
Laser Case Temp (C):	23.9
System Temp (C):	23.7
Spectrometer Temp (C):	21.2
CCD Temp (C):	-0.035
Secondary Temp (C):	19.997
Heatsink Temp (C):	17.215
CCDPCB Temp (C):	30.293
SecondaryPCB Temp (C):	25.814

Wavelength	RamanShift	Raw Counts	Dark Subtracted
787.061	30.1047	509.1	100.75
787.2016	32.3739	508.6	103.2
787.3422	34.6426	518.2	110.7
787.4828	36.9109	525.1	116.5
787.6235	39.1787	534.05	122.35
787.7642	41.4461	550.05	132.95
787.9049	43.7131	561.1	142.05
788.0456	45.9796	565.15	143.8
788.1863	48.2456	576.9	149.8
788.3271	50.5112	593.6	162.4
788.4679	52.7764	600.45	165.9
788.6087	55.0411	616.9	178.6
788.7496	57.3054	631.5	190.3
788.8904	59.5692	648.45	206.35
789.0313	61.8326	666.05	219.75
789.1722	64.0955	682.9	234.05
789.3132	66.3579	700.3	245.35
789.4541	68.6199	732.25	273.95
789.5951	70.8815	780.8	318.3
789.7361	73.1426	880.15	413.9
789.8771	75.4032	1147.9	679.1
790.0181	77.6634	1772.65	1300.05
790.1592	79.9231	3298.9	2824.05
790.3003	82.1824	6591.35	6115.05
790.4414	84.4412	12410.85	11926.25
790.5825	86.6995	20193.7	19702
790.7237	88.9574	27699.55	27203.55
790.8648	91.2148	33023.5	32525.55
791.006	93.4717	35825.8	35321.4
791.1472	95.7282	37025.9	36517.9
791.2885	97.9842	37654.55	37144.9
791.4297	100.2398	37855.45	37345.75
791.571	102.4949	37960.55	37448.3
791.7123	104.7495	38075.2	37557.4
791.8536	107.0036	38039.8	37520.15
791.9949	109.2573	38190.75	37673.45
792.1363	111.5105	38126.65	37606.9
792.2777	113.7632	38176.9	37654.15
792.4191	116.0154	38225.75	37691.2
792.5605	118.2672	38386.35	37858.2
792.7019	120.5185	38454.05	37924.85
792.8434	122.7693	38503.25	37971.6
792.9849	125.0197	38559.5	38023.05
793.1264	127.2696	38648.6	38109.15
793.2679	129.519	38826.45	38285.1
793.4094	131.7679	38984.75	38440.8
793.551	134.0163	38882.75	38335.35
793.6926	136.2642	39018	38467.2
793.8342	138.5117	39153.1	38597.65
793.9758	140.7587	39193.45	38639.4
794.1175	143.0052	39319.6	38761.85
794.2591	145.2512	39200	38641.7
794.4008	147.4967	39276.9	38717.3
794.5425	149.7417	39262.9	38698.3
794.6842	151.9863	39290.7	38721.3
794.826	154.2304	39266.2	38695.6
794.9677	156.4739	39254.45	38676.6
795.1095	158.717	39396.1	38819.2
795.2513	160.9596	39427.8	38846.65
795.3931	163.2017	39385.95	38799.75
795.535	165.4433	39490.95	38905.5
795.6768	167.6844	39511.35	38923.55
795.8187	169.925	39659.55	39068.1
795.9606	172.1651	39535.2	38941.35
796.1025	174.4047	39528.45	38929.2
796.2445	176.6439	39573.35	38970.95
796.3864	178.8825	39592.35	38988.9
796.5284	181.1206	39735	39126.5
796.6704	183.3582	39717.7	39106.85
796.8124	185.5954	39736.25	39122.2
796.9544	187.832	39879.6	39261.25
797.0965	190.0681	39972.75	39351.8
797.2386	192.3037	40078.85	39454.55
797.3806	194.5388	40247.9	39622.1
797.5228	196.7734	40139.3	39514.95
797.6649	199.0075	40382.8	39757.2
797.807	201.2411	40611.45	39983.9
797.9492	203.4742	40744.45	40112.6
798.0914	205.7068	40862.95	40225.7
798.2336	207.9389	40894.65	40258.35
798.3758	210.1704	41044.8	40419.9
798.518	212.4015	41054.2	40434.7
798.6603	214.632	41084.55	40471.85
798.8025	216.862	41242.9	40630.35
798.9448	219.0915	41294.1	40678.3
799.0871	221.3205	41321.7	40702.4
799.2294	223.549	41508.6	40894.15
799.3718	225.777	41607.25	40990.85
799.5141	228.0044	41646.9	41022.55
799.6565	230.2314	41798.25	41170.7
799.7989	232.4578	41707.35	41078.5
799.9413	234.6837	41769.5	41128.75
800.0837	236.909	42017.5	41374.35
800.2262	239.1339	41864.75	41198.3
800.3687	241.3582	42020.35	41370.15
800.5111	243.582	42036.9	41359.4
800.6536	245.8053	42129.15	41461.1
800.7961	248.0281	42116.25	41454.05
800.9387	250.2503	42158.15	41495.05
801.0812	252.472	42211.75	41545.75
801.2238	254.6932	42349.25	41683.2
801.3664	256.9139	42278.85	41611.1
801.509	259.134	42480.25	41808.8
801.6516	261.3536	42318.6	41646.9
801.7942	263.5727	42632.1	41958.95
801.9369	265.7912	42563.65	41891.85
802.0795	268.0092	42657.65	41986
802.2222	270.2267	42749	42076.95
802.3649	272.4436	42784.8	42110.85
802.5076	274.6601	42888.15	42202.9
802.6504	276.8759	42875.65	42193.75
802.7931	279.0913	42976.05	42291.9
802.9359	281.3061	42962.4	42279.45
803.0787	283.5204	43118	42431.25
803.2215	285.7341	43149.15	42460.65
803.3643	287.9473	43305.3	42607.9
803.5071	290.16	43225.95	42534.05
803.6499	292.3721	43344	42656.95
803.7928	294.5837	43107.2	42418.35
803.9357	296.7947	43057.65	42370.15
804.0786	299.0052	43199.65	42511.4
804.2215	301.2152	43051.05	42358.5
804.3644	303.4246	43188.35	42499.1
804.5074	305.6334	43164.65	42474.2
804.6503	307.8418	43109.45	42412.35
804.7933	310.0495	43127.35	42432.25
804.9363	312.2568	43078.2	42383.05
805.0793	314.4635	42941.25	42242.15
805.2223	316.6696	42906.7	42204.65
805.3653	318.8752	42825.3	42115.9
805.5084	321.0802	42632.2	41931.95
805.6514	323.2847	42736.55	42034.8
805.7945	325.4887	42710.9	42005.65
805.9376	327.692	42619.8	41914.1
806.0807	329.8949	42804.85	42097.2
806.2238	332.0972	42836.7	42124.95
806.367	334.2989	42960.6	42246.2
806.5101	336.5001	42958.3	42244.6
806.6533	338.7007	42903.8	42191.3
806.7965	340.9008	42936.6	42221.7
806.9397	343.1003	42889.75	42170
807.0829	345.2992	42892	42173.85
807.2261	347.4976	42845.3	42125.25
807.3693	349.6955	42788.55	42064.1
807.5126	351.8927	42830.6	42105.35
807.6559	354.0895	42763	42026.9
807.7991	356.2856	42844.95	42118.05
807.9424	358.4812	42786.5	42058.25
808.0857	360.6763	42833.2	42102.4
808.2291	362.8707	42711.05	41978.55
808.3724	365.0646	42839.6	42103.35
808.5158	367.258	42792.45	42057.05
808.6591	369.4508	42665	41925.85
808.8025	371.643	42759.5	42021.65
808.9459	373.8346	42655.3	41913.05
809.0893	376.0257	42664.5	41919.7
809.2327	378.2162	42618.45	41878.1
809.3762	380.4062	42691.55	41949.95
809.5196	382.5956	42594	41853
809.6631	384.7844	42591	41852.65
809.8066	386.9726	42471.55	41734
809.9501	389.1603	42450.1	41713.4
810.0936	391.3474	42353.35	41569.55
810.2371	393.5339	42390.95	41653.65
810.3806	395.7199	42185.2	41446.75
810.5241	397.9052	42212.8	41477.2
810.6677	400.09	42226.75	41488.45
810.8113	402.2743	42245.4	41506.65
810.9548	404.4579	42253.6	41510.2
811.0984	406.641	42364.45	41619.2
811.2421	408.8235	42387.85	41642.15
811.3857	411.0054	42448.5	41700.7
811.5293	413.1868	42546.8	41795.3
811.673	415.3675	42490	41735.2
811.8166	417.5477	42534.35	41779.7
811.9603	419.7273	42484.65	41725.35
812.104	421.9064	42276.5	41512.4
812.2477	424.0848	42134.35	41375.9
812.3914	426.2627	42056.6	41298.15
812.5351	428.4399	41946.05	41183.2
812.6788	430.6166	41842.95	41075.5
812.8226	432.7928	41679.15	40914.95
812.9663	434.9683	41574.65	40806.55
813.1101	437.1432	41520.7	40752.25
813.2539	439.3176	41395.6	40630.55
813.3977	441.4914	41230.95	40464.45
813.5415	443.6645	41190.15	40422.95
813.6853	445.8371	41065.45	40296.85
813.8291	448.0091	40942.7	40175.9
813.973	450.1806	40855.5	40085.6
814.1168	452.3514	40701.7	39928.95
814.2607	454.5216	40743.2	39963.05
814.4046	456.6913	40545	39771
814.5485	458.8603	40566.15	39792.95
814.6924	461.0288	40620.7	39849.35
814.8363	463.1967	40494.6	39721.05
814.9802	465.3639	40591.75	39816.5
815.1241	467.5306	40509.55	39732.85
815.2681	469.6967	40399.8	39625
815.412	471.8622	40272.75	39496.7
815.556	474.0271	40274.65	39498.75
815.7	476.1914	40244.3	39464.65
815.844	478.3551	40190.85	39413.5
815.988	480.5182	40250.1	39472.75
816.132	482.6807	40240.85	39461.75
816.276	484.8426	40305.5	39528.05
816.4201	487.0039	40334.8	39554.05
816.5641	489.1647	40361.1	39580.7
816.7082	491.3248	40506.1	39726.35
816.8522	493.4843	40457.4	39676.85
816.9963	495.6432	40418.95	39637.75
817.1404	497.8015	40265.65	39481.4
817.2845	499.9592	40325.05	39541
817.4286	502.1163	40203.5	39417.9
817.5727	504.2728	40075.3	39287.15
817.7168	506.4287	40165.3	39379.85
817.861	508.5839	40034.05	39246.95
818.0051	510.7386	39955.55	39169.1
818.1493	512.8927	40011	39216.3
818.2935	515.0461	39976.8	39184.9
818.4377	517.199	39953.45	39164.8
818.5818	519.3512	40011.65	39221.5
818.726	521.5029	39996.65	39200.2
818.8703	523.6539	39978.8	39186.4
819.0145	525.8043	39985.3	39189.85
819.1587	527.9541	39880.05	39083.2
819.303	530.1033	39760.85	38965.75
819.4472	532.2519	39662.8	38869.1
819.5915	534.3999	39646.35	38849.35
819.7357	536.5472	39611.2	38814.8
819.88	538.694	39570.1	38775.5
820.0243	540.8401	39622.35	38824.45
820.1686	542.9856	39658.6	38860.35
820.3129	545.1305	39556.25	38754.9
820.4572	547.2748	39648.6	38846.95
820.6016	549.4185	39598.95	38797.65
820.7459	551.5615	39475.6	38673.45
820.8902	553.704	39523.95	38723.7
821.0346	555.8458	39426.6	38625.75
821.1789	557.987	39489.15	38692.45
821.3233	560.1276	39407.8	38606.75
821.4677	562.2675	39490.75	38691.35
821.6121	564.4069	39525.2	38723.5
821.7565	566.5456	39458.5	38659.25
821.9009	568.6837	39447.75	38643.75
822.0453	570.8212	39202.25	38399.55
822.1897	572.958	39049.7	38245.55
822.3342	575.0942	38991.65	38188.6
822.4786	577.2299	38834.45	38030.25
822.6231	579.3648	38710.25	37905.15
822.7675	581.4992	38544.85	37741.75
822.912	583.6329	38471.9	37667.7
823.0565	585.766	38439.6	37635.25
823.201	587.8985	38371.7	37567.1
823.3454	590.0304	38296.8	37479.7
823.4899	592.1616	38245.75	37434.4
823.6345	594.2922	38171.25	37362.75
823.779	596.4222	38138.8	37330.35
823.9235	598.5515	38000.1	37188.85
824.068	600.6802	37823.15	37012.95
824.2126	602.8083	37572.8	36761.8
824.3571	604.9358	37591.2	36778.3
824.5017	607.0626	37513.5	36702.1
824.6462	609.1888	37460.55	36648.7
824.7908	611.3144	37453.05	36639.15
824.9354	613.4393	37397.25	36584.5
825.08	615.5636	37388.05	36574.7
825.2246	617.6873	37423.35	36607.25
825.3692	619.8103	37486.35	36671.9
825.5138	621.9327	37432.7	36612.05
825.6584	624.0544	37360.95	36547.5
825.803	626.1756	37255.45	36441
825.9477	628.2961	37142.35	36326.55
826.0923	630.4159	37057.15	36240.95
826.237	632.5351	37063	36245.75
826.3816	634.6537	37015.9	36198.95
826.5263	636.7716	36911.6	36091.35
826.6709	638.8889	36911.6	36095.55
826.8156	641.0056	36974.95	36157.25
826.9603	643.1216	36864.1	36042.05
827.105	645.237	36936.1	36113.65
827.2497	647.3518	36802.4	35981.85
827.3944	649.4659	36768.3	35947.4
827.5391	651.5793	36695.2	35874.2
827.6838	653.6922	36617.95	35795.6
827.8285	655.8043	36515.05	35694
827.9733	657.9159	36508.75	35684.3
828.118	660.0268	36441.2	35616.3
828.2627	662.137	36372.8	35550.45
828.4075	664.2466	36328.15	35501.9
828.5522	666.3556	36319.5	35496.1
828.697	668.4639	36210.3	35383.85
828.8418	670.5716	36250.5	35426.8
828.9865	672.6786	36238.2	35411.55
829.1313	674.785	36037.95	35209.9
829.2761	676.8907	35894.15	35067.7
829.4209	678.9958	35930.8	35108.8
829.5657	681.1002	35815.6	34986.65
829.7105	683.204	35727.15	34895.9
829.8553	685.3072	35710.55	34881.5
830.0001	687.4097	35589.15	34760.65
830.1449	689.5115	35626.05	34796.8
830.2898	691.6127	35655.05	34827.7
830.4346	693.7132	35527	34698
830.5794	695.8131	35549.1	34709.6
830.7243	697.9123	35562.95	34730.9
830.8691	700.0109	35451.95	34622
831.014	702.1089	35394.45	34567
831.1588	704.2061	35400	34568.95
831.3037	706.3028	35395.85	34564.2
831.4486	708.3987	35352.5	34520.1
831.5935	710.4941	35350	34518.9
831.7383	712.5887	35303	34467.95
831.8832	714.6827	35295.05	34457.65
832.0281	716.7761	35279.5	34447.2
832.173	718.8688	35238.35	34404.5
832.3179	720.9608	35120	34282
832.4628	723.0522	35158.8	34322.2
832.6077	725.1429	35035.65	34200
832.7527	727.233	35050.7	34215.65
832.8976	729.3224	35141	34306.3
833.0425	731.4112	35059.95	34223.6
833.1874	733.4993	34988.85	34151.05
833.3324	735.5867	34864.6	34026.75
833.4773	737.6735	34808.8	33970
833.6222	739.7596	34695.25	33856.8
833.7672	741.845	34550.55	33712.9
833.9122	743.9298	34467.2	33627.9
834.0571	746.014	34391.2	33555.4
834.2021	748.0974	34403.8	33566.25
834.347	750.1802	34276.9	33437.1
834.492	752.2624	34154.6	33314.7
834.637	754.3439	34060	33219.95
834.782	756.4247	33941.95	33091.7
834.9269	758.5048	33829.3	32991.3
835.0719	760.5843	33762.65	32921.5
835.2169	762.6631	33717	32876.7
835.3619	764.7413	33715.55	32876.9
835.5069	766.8188	33814.95	32972.7
835.6519	768.8956	33703.5	32858.65
835.7969	770.9718	33780.9	32939.75
835.9419	773.0473	33700.85	32861.25
836.0869	775.1221	33605.5	32764.7
836.232	777.1962	33497.6	32656.2
836.377	779.2697	33466.85	32622.25
836.522	781.3426	33474.2	32612.9
836.667	783.4147	33484.15	32639.4
836.8121	785.4862	33473.8	32632.4
836.9571	787.557	33325.2	32483.25
837.1021	789.6271	33192.15	32348.65
837.2472	791.6966	32985.05	32139.2
837.3922	793.7654	32741.4	31895.15
837.5373	795.8335	32719.3	31875.95
837.6823	797.901	32559.25	31715.75
837.8274	799.9678	32546.85	31701.7
837.9724	802.0339	32432.9	31589.8
838.1175	804.0993	32426.55	31571.8
838.2626	806.1641	32328.35	31484.35
838.4076	808.2282	32209.6	31364.95
838.5527	810.2916	32209.5	31362.3
838.6978	812.3544	32185.6	31341.35
838.8428	814.4164	32128.85	31285.2
838.9879	816.4778	32129.55	31282.85
839.133	818.5385	32091.1	31246.05
839.2781	820.5986	32119.9	31273.7
839.4232	822.658	32129.6	31282.1
839.5682	824.7166	32044.4	31197.75
839.7133	826.7747	32138.95	31292.1
839.8584	828.832	32116.5	31268
840.0035	830.8886	32051.9	31203.5
840.1486	832.9446	32085.95	31235.95
840.2937	834.9999	31966.85	31120.95
840.4388	837.0545	31920.7	31069.65
840.5839	839.1085	31782.45	30931.65
840.729	841.1618	31648.4	30795.55
840.8741	843.2143	31543.55	30695.8
841.0192	845.2662	31375.5	30526.35
841.1643	847.3175	31411.8	30564.15
841.3095	849.368	31284.5	30436.2
841.4546	851.4179	31233	30381.25
841.5997	853.467	31052.85	30203.75
841.7448	855.5155	31091	30239.35
841.8899	857.5633	30994.1	30144.05
842.0351	859.6105	30934.45	30083.95
842.1802	861.6569	30937.95	30087.6
842.3253	863.7027	30887.9	30036.7
842.4704	865.7478	30837.8	29986.55
842.6156	867.7922	30764.7	29914.1
842.7607	869.8359	30697.1	29845.65
842.9058	871.8789	30723.3	29871.65
843.0509	873.9212	30669.45	29788.85
843.1961	875.9629	30560.1	29707.95
843.3412	878.0039	30602	29748.3
843.4863	880.0441	30516.9	29665.6
843.6315	882.0837	30584.55	29730.75
843.7766	884.1226	30522.45	29667.75
843.9218	886.1609	30544.6	29693.55
844.0669	888.1984	30593.25	29741.95
844.212	890.2352	30692.35	29838.15
844.3572	892.2714	30576.4	29717.85
844.5023	894.3069	30578.25	29724.6
844.6475	896.3416	30380.55	29525.25
844.7926	898.3757	30313.4	29458.3
844.9377	900.4091	30237.4	29381.75
845.0829	902.4418	30232.7	29372.5
845.228	904.4739	30116.25	29257.7
845.3732	906.5052	30097.3	29242.95
845.5183	908.5358	30138.3	29284.55
845.6635	910.5658	30027	29171.8
845.8086	912.595	29937.9	29082.95
845.9538	914.6236	29836.65	28982.95
846.0989	916.6515	29787.3	28931.85
846.2441	918.6786	29650.15	28793
846.3892	920.7051	29681.55	28822.9
846.5344	922.7309	29682.9	28827.75
846.6795	924.756	29535.25	28678.7
846.8246	926.7804	29557.75	28698.55
846.9698	928.8041	29328.9	28470
847.1149	930.8272	29344.05	28487.15
847.2601	932.8495	29259.95	28399.85
847.4052	934.8711	29281.85	28421.9
847.5504	936.892	29124.75	28266.7
847.6955	938.9123	29065	28206.75
847.8407	940.9318	29073	28215.5
847.9858	942.9506	28968.95	28109.7
848.131	944.9688	28909.1	28051.2
848.2761	946.9862	28781.1	27923.3
848.4213	949.003	28604.3	27746.25
848.5664	951.019	28553.65	27697.15
848.7115	953.0344	28435.9	27574.15
848.8567	955.0491	28405.65	27546
849.0018	957.063	28406.1	27548.15
849.147	959.0763	28430.25	27572.45
849.2921	961.0888	28321.45	27461.45
849.4373	963.1007	28308	27447.25
849.5824	965.1119	28252.85	27393.7
849.7275	967.1223	28250.2	27389.95
849.8727	969.1321	28185	27327.1
850.0178	971.1412	28166.1	27307.3
850.1629	973.1495	28013.55	27154.05
850.3081	975.1572	28046	27138.85
850.4532	977.1641	27994.5	27134.5
850.5983	979.1704	27879.5	27018.1
850.7435	981.1759	27851.6	26989.5
850.8886	983.1808	27831.35	26969.45
851.0337	985.1849	27749.6	26881.8
851.1788	987.1884	27679.85	26814.55
851.324	989.1911	27664.65	26802.55
851.4691	991.1932	27584.9	26721.5
851.6142	993.1945	27494.2	26635.6
851.7593	995.1951	27390.25	26529.1
851.9045	997.1951	27343.7	26477.15
852.0496	999.1943	27216.2	26355.1
852.1947	1001.1928	27177.6	26315.75
852.3398	1003.1906	27050.8	26187.75
852.4849	1005.1877	27037.05	26174.2
852.63	1007.1841	26940.35	26076.85
852.7751	1009.1798	26898.6	26035.5
852.9202	1011.1748	26763.35	25901.9
853.0653	1013.1691	26732.95	25867.35
853.2104	1015.1627	26642.3	25779.4
853.3555	1017.1556	26426.55	25563.75
853.5006	1019.1477	26359.1	25495.15
853.6457	1021.1392	26217.1	25356.95
853.7908	1023.1299	26123.3	25259.75
853.9359	1025.12	26011.65	25148.45
854.081	1027.1093	25936.05	25074.6
854.2261	1029.0979	25895.95	25035.4
854.3712	1031.0859	25828.2	24965.85
854.5163	1033.0731	25770.8	24906.7
854.6613	1035.0596	25663.55	24800.55
854.8064	1037.0454	25574.9	24710.35
854.9515	1039.0304	25528.35	24664.55
855.0965	1041.0148	25387.15	24523.9
855.2416	1042.9985	25323.85	24458.95
855.3867	1044.9814	25284.45	24420.55
855.5317	1046.9636	25188.9	24321.35
855.6768	1048.9452	25084.95	24219.9
855.8219	1050.926	25076.3	24213.5
855.9669	1052.9061	25043.1	24181.25
856.112	1054.8855	24966.6	24103.35
856.257	1056.8642	24963.45	24099.4
856.4021	1058.8421	24931.35	24062.15
856.5471	1060.8194	24846.75	23982.25
856.6921	1062.7959	24780.9	23915.3
856.8372	1064.7717	24756.4	23888.9
856.9822	1066.7469	24725.5	23860.95
857.1272	1068.7213	24659.35	23789.25
857.2723	1070.695	24662.85	23798.9
857.4173	1072.6679	24583.35	23717.15
857.5623	1074.6402	24617.75	23750.4
857.7073	1076.6117	24593.25	23722.9
857.8523	1078.5826	24532.05	23664.9
857.9973	1080.5527	24444.65	23574.85
858.1423	1082.5221	24317.55	23450.65
858.2873	1084.4908	24243.85	23376.15
858.4323	1086.4587	24194.45	23327.9
858.5773	1088.426	24140.5	23273.55
858.7223	1090.3925	24056.8	23185.5
858.8673	1092.3584	24052.05	23185.45
859.0123	1094.3235	23926.45	23059.35
859.1573	1096.2879	23932.05	23063.95
859.3022	1098.2515	23922.1	23055
859.4472	1100.2145	23956.3	23090.25
859.5922	1102.1767	23885.9	23015.9
859.7371	1104.1382	23884.45	23016.15
859.8821	1106.099	23909.7	23041.9
860.027	1108.0591	23881.4	23016.95
860.172	1110.0185	23862.95	22993.2
860.3169	1111.9771	23900.5	23033.85
860.4619	1113.9351	23858.95	22989.1
860.6068	1115.8923	23869.5	23000.85
860.7517	1117.8488	23843.95	22975.65
860.8967	1119.8045	23706.35	22838.5
861.0416	1121.7596	23610.75	22743.2
861.1865	1123.7139	23405.05	22537.8
861.3314	1125.6675	23296.6	22428.25
861.4763	1127.6204	23307	22439.95
861.6212	1129.5726	23248.1	22376.65
861.7661	1131.524	23253.5	22386.5
861.911	1133.4748	23195.35	22326.05
862.0559	1135.4248	23056.75	22186.7
862.2008	1137.3741	22993.15	22124
862.3457	1139.3226	22887.9	22017.35
862.4905	1141.2705	22892.8	22026.45
862.6354	1143.2176	22766.3	21893.2
862.7803	1145.164	22768.75	21898.3
862.9251	1147.1097	22745.55	21877.15
863.07	1149.0546	22717.8	21847.8
863.2148	1150.9989	22717.5	21847.3
863.3597	1152.9424	22652.35	21781.85
863.5045	1154.8852	22549.25	21677.05
863.6493	1156.8272	22525.5	21657.3
863.7942	1158.7686	22531.65	21654.5
863.939	1160.7092	22463.6	21594.25
864.0838	1162.6491	22387.8	21516.35
864.2286	1164.5883	22392.75	21521
864.3734	1166.5267	22368.05	21499.55
864.5182	1168.4644	22371.9	21504.45
864.663	1170.4014	22371.3	21495.2
864.8078	1172.3377	22455.75	21588.05
864.9526	1174.2732	22427.8	21559.35
865.0974	1176.2081	22548	21677.85
865.2421	1178.1421	22629.2	21753
865.3869	1180.0755	22755.1	21887.25
865.5317	1182.0082	22741.1	21871.15
865.6764	1183.9401	22695.05	21823.2
865.8212	1185.8713	22555.85	21685.65
865.9659	1187.8017	22372.65	21501.1
866.1106	1189.7315	22220.9	21351.25
866.2554	1191.6605	21997.7	21127.1
866.4001	1193.5888	21906.35	21035
866.5448	1195.5163	21842.95	20972.55
866.6895	1197.4432	21743.85	20870.95
866.8342	1199.3693	21686.7	20817.2
866.9789	1201.2947	21572.85	20700.8
867.1236	1203.2193	21467.85	20596.85
867.2683	1205.1432	21482.6	20610.85
867.413	1207.0664	21397.75	20522.55
867.5576	1208.9889	21312.9	20438.65
867.7023	1210.9106	21244.05	20372.55
867.847	1212.8316	21188.5	20317.15
867.9916	1214.7519	21202.4	20321.45
868.1363	1216.6715	21137.15	20266.65
868.2809	1218.5903	21116.3	20244.4
868.4255	1220.5084	21102.35	20232.15
868.5701	1222.4257	21107.25	20235.7
868.7148	1224.3424	21008.55	20137.55
868.8594	1226.2583	21033.4	20157.2
869.004	1228.1735	21002.4	20128.05
869.1486	1230.0879	20934	20061.05
869.2932	1232.0016	20927.2	20055.75
869.4377	1233.9146	20946.2	20072.4
869.5823	1235.8269	20890	20019.25
869.7269	1237.7384	20914.25	20040.55
869.8715	1239.6492	20794.6	19923.2
870.016	1241.5592	20846.5	19973.65
870.1606	1243.4686	20805.5	19932.5
870.3051	1245.3772	20885.85	20013.75
870.4496	1247.285	20853.9	19983.3
870.5941	1249.1922	20933.65	20061.6
870.7387	1251.0986	21009.9	20136.75
870.8832	1253.0042	21018.65	20144.05
871.0277	1254.9092	21088.85	20215.95
871.1722	1256.8134	21175.6	20303.45
871.3167	1258.7169	21278.95	20404.7
871.4611	1260.6196	21255.6	20382
871.6056	1262.5216	21261.4	20388.65
871.7501	1264.4229	21248.1	20376.15
871.8945	1266.3234	21196.6	20323.3
872.039	1268.2232	21108.3	20235.05
872.1834	1270.1223	21006.55	20133.65
872.3278	1272.0207	20908.55	20033.35
872.4723	1273.9183	20874.3	19993.95
872.6167	1275.8151	20835	19960.9
872.7611	1277.7113	20868.9	19993.8
872.9055	1279.6067	20882.7	20009.6
873.0499	1281.5014	21010.5	20134.2
873.1943	1283.3953	21182.75	20307.7
873.3386	1285.2885	21362.2	20488.15
873.483	1287.181	21537.1	20664.65
873.6274	1289.0727	21630.8	20757.5
873.7717	1290.9637	21554.55	20681.65
873.9161	1292.854	21441.2	20567.85
874.0604	1294.7435	21240.95	20367.35
874.2047	1296.6323	21094.55	20221
874.349	1298.5204	20977.9	20100.7
874.4933	1300.4077	20871.55	19998.7
874.6376	1302.2943	20775.95	19902
874.7819	1304.1802	20720.7	19846.5
874.9262	1306.0653	20667.3	19793.8
875.0705	1307.9497	20568.35	19691.25
875.2147	1309.8333	20539.95	19666.75
875.359	1311.7162	20469.4	19595.9
875.5032	1313.5984	20435.1	19557.35
875.6475	1315.4798	20356.5	19482.5
875.7917	1317.3605	20299.25	19422.85
875.9359	1319.2405	20322.9	19445.75
876.0801	1321.1197	20263	19388.35
876.2243	1322.9982	20167.4	19290.3
876.3685	1324.876	20107.4	19234.95
876.5127	1326.753	19937.6	19062.25
876.6569	1328.6293	19854.5	18977.65
876.801	1330.5048	19767.95	18891.3
876.9452	1332.3796	19609.2	18733.3
877.0893	1334.2537	19575.35	18675.45
877.2335	1336.127	19431.85	18559.25
877.3776	1337.9996	19379.4	18504.1
877.5217	1339.8714	19366.75	18492.15
877.6658	1341.7426	19278.4	18357.95
877.8099	1343.6129	19226	18352.2
877.954	1345.4826	19165	18289
878.0981	1347.3515	19163.95	18286.65
878.2422	1349.2196	19102.75	18225.75
878.3862	1351.087	19119.95	18244.9
878.5303	1352.9537	19055.4	18179.5
878.6743	1354.8197	19093.55	18218.95
878.8184	1356.6849	19075.1	18199.45
878.9624	1358.5493	19017.45	18143.45
879.1064	1360.4131	19000.05	18124.35
879.2504	1362.276	18992.05	18117.95
879.3944	1364.1383	19043.15	18169.1
879.5384	1365.9998	18996.1	18114.55
879.6823	1367.8606	18962.75	18087.75
879.8263	1369.7206	18905.4	18028.6
879.9702	1371.5799	18844.8	17967.65
880.1142	1373.4384	18789.7	17914.25
880.2581	1375.2962	18811.35	17933.5
880.402	1377.1533	18640.05	17766.5
880.5459	1379.0096	18516.8	17640.95
880.6898	1380.8652	18421.1	17545.1
880.8337	1382.7201	18349.1	17475
880.9776	1384.5742	18216.45	17340.7
881.1215	1386.4275	18149.8	17273.1
881.2653	1388.2802	18065.65	17192.85
881.4092	1390.132	18001.8	17127.35
881.553	1391.9832	18028.4	17148.85
881.6968	1393.8336	17915.75	17039.45
881.8406	1395.6832	17834.95	16957.4
881.9844	1397.5322	17778.1	16901.9
882.1282	1399.3803	17755.9	16875.15
882.272	1401.2278	17619.65	16745
882.4158	1403.0745	17593.95	16716.05
882.5595	1404.9204	17532.75	16658.55
882.7033	1406.7656	17519.3	16643.15
882.847	1408.6101	17455.25	16580.75
882.9908	1410.4538	17380.75	16505.4
883.1345	1412.2968	17327.5	16450
883.2782	1414.139	17294.05	16421.3
883.4219	1415.9805	17265.5	16389.5
883.5656	1417.8213	17214.65	16318.2
883.7092	1419.6613	17187.05	16313.25
883.8529	1421.5006	17165.85	16289.1
883.9965	1423.3391	17197.15	16321
884.1402	1425.1769	17170.3	16292.9
884.2838	1427.0139	17227.3	16351.25
884.4274	1428.8502	17283.2	16407.95
884.571	1430.6858	17362.95	16485.45
884.7146	1432.5206	17339.95	16465.25
884.8582	1434.3547	17304.2	16427.25
885.0018	1436.188	17306.55	16432
885.1453	1438.0206	17240.2	16364.3
885.2889	1439.8524	17163.35	16285.4
885.4324	1441.6835	17142.5	16264
885.5759	1443.5139	17117.85	16238.2
885.7194	1445.3435	17073.1	16195.4
885.8629	1447.1724	17066.65	16192
886.0064	1449.0005	17059	16183.85
886.1499	1450.8279	17033.65	16156.5
886.2933	1452.6545	17007.15	16131.2
886.4368	1454.4804	16984.1	16109.05
886.5802	1456.3056	16993.35	16109.75
886.7237	1458.13	16885.65	16008.9
886.8671	1459.9536	16874.95	15997.8
887.0105	1461.7766	16820.15	15945.05
887.1539	1463.5987	16735.85	15857.95
887.2972	1465.4202	16635.15	15757.1
887.4406	1467.2409	16553	15676.3
887.584	1469.0608	16519.4	15643.35
887.7273	1470.88	16446.7	15570.95
887.8706	1472.6984	16387.2	15513
888.0139	1474.5161	16294.55	15415.75
888.1572	1476.3331	16263.55	15387
888.3005	1478.1493	16232.3	15354.7
888.4438	1479.9648	16218	15340.95
888.5871	1481.7795	16175.95	15300.25
888.7303	1483.5935	16170.6	15293.6
888.8736	1485.4067	16112.3	15235.75
889.0168	1487.2192	16103.1	15224.45
889.16	1489.031	16125.7	15247
889.3032	1490.842	16077.6	15201.65
889.4464	1492.6522	16080.6	15202.45
889.5896	1494.4618	16026.25	15149.25
889.7327	1496.2705	16014.55	15140.1
889.8759	1498.0785	15949.4	15073.8
890.019	1499.8858	15930.7	15051.55
890.1622	1501.6924	15881.65	15005.5
890.3053	1503.4981	15853.45	14976.45
890.4484	1505.3032	15803.1	14927.55
890.5914	1507.1075	15760	14884.2
890.7345	1508.911	15760.45	14881.2
890.8776	1510.7138	15717.15	14840.55
891.0206	1512.5159	15636.3	14760.85
891.1637	1514.3172	15630.05	14753.05
891.3067	1516.1178	15565.1	14689.5
891.4497	1517.9176	15515.4	14634.75
891.5927	1519.7166	15446.45	14571
891.7357	1521.515	15445.65	14563.65
891.8786	1523.3126	15397.55	14519.45
892.0216	1525.1094	15348.25	14469.25
892.1645	1526.9055	15275.25	14397.55
892.3074	1528.7008	15203.5	14325
892.4503	1530.4954	15137.9	14258.05
892.5932	1532.2893	15145.95	14271
892.7361	1534.0824	15071.35	14190.9
892.879	1535.8747	15029.65	14153.3
893.0218	1537.6663	14980.4	14103.95
893.1647	1539.4572	14916.65	14037.95
893.3075	1541.2473	14928.9	14050.45
893.4503	1543.0367	14895.3	14019.2
893.5931	1544.8253	14819.45	13936.05
893.7359	1546.6132	14811.4	13930.85
893.8787	1548.4003	14752.35	13865.95
894.0214	1550.1867	14749.65	13862.5
894.1642	1551.9723	14690.85	13809.25
894.3069	1553.7572	14709.25	13831.55
894.4496	1555.5414	14650.75	13772.15
894.5923	1557.3247	14663	13785.25
894.735	1559.1074	14602.6	13726.4
894.8777	1560.8893	14661.15	13785.1
895.0204	1562.6705	14641.2	13763.55
895.163	1564.4509	14644.55	13768.15
895.3056	1566.2305	14646	13770.75
895.4482	1568.0094	14647.65	13771.95
895.5908	1569.7876	14627.45	13749.35
895.7334	1571.565	14582.2	13705.4
895.876	1573.3417	14531.45	13653.95
896.0186	1575.1176	14523.2	13645.8
896.1611	1576.8928	14499.3	13623.05
896.3036	1578.6672	14448.75	13571.75
896.4461	1580.4409	14487.35	13612.8
896.5886	1582.2138	14473.45	13592
896.7311	1583.986	14460	13584.05
896.8736	1585.7575	14524.1	13647.7
897.0161	1587.5282	14513.5	13636.15
897.1585	1589.2981	14528.55	13652.9
897.3009	1591.0673	14496.4	13619.2
897.4433	1592.8358	14488.45	13612.2
897.5857	1594.6035	14477.1	13596.25
897.7281	1596.3704	14405.55	13528.05
897.8705	1598.1366	14312.7	13435.05
898.0128	1599.9021	14271.7	13394.15
898.1551	1601.6668	14191.8	13313.4
898.2975	1603.4308	14082.6	13204.45
898.4398	1605.194	14063.75	13182.55
898.5821	1606.9564	14040.1	13164.25
898.7243	1608.7182	14105.1	13223.85
898.8666	1610.4791	14161	13285.25
899.0088	1612.2394	14230.95	13353.7
899.1511	1613.9988	14340.5	13462.55
899.2933	1615.7576	14415.5	13539
899.4355	1617.5156	14463.55	13579.85
899.5776	1619.2728	14388.25	13512
899.7198	1621.0293	14270.75	13394.4
899.862	1622.785	14085.4	13204.5
900.0041	1624.54	13879.15	13000.05
900.1462	1626.2942	13702.55	12825.35
900.2883	1628.0477	13530.8	12650.8
900.4304	1629.8005	13379.15	12498.3
900.5725	1631.5525	13276.15	12397.1
900.7145	1633.3037	13146.15	12270.35
900.8566	1635.0542	13065.05	12187.9
900.9986	1636.804	12990.4	12113.65
901.1406	1638.553	13007.4	12043.05
901.2826	1640.3013	12857.15	11979.9
901.4245	1642.0488	12794.1	11915.5
901.5665	1643.7955	12749	11872.45
901.7085	1645.5416	12701.1	11823.65
901.8504	1647.2868	12636.95	11758
901.9923	1649.0313	12585.4	11706.45
902.1342	1650.7751	12585.65	11708.85
902.2761	1652.5181	12551.05	11674.55
902.4179	1654.2604	12476.85	11600.85
902.5598	1656.0019	12460.95	11584.15
902.7016	1657.7427	12450.1	11571.05
902.8434	1659.4828	12452.5	11576.5
902.9852	1661.222	12447.65	11569.7
903.127	1662.9606	12455.8	11578.7
903.2687	1664.6984	12491.9	11614.5
903.4105	1666.4354	12485.7	11606.15
903.5522	1668.1717	12429.15	11553.7
903.6939	1669.9072	12324.15	11445.3
903.8356	1671.642	12210.25	11330.25
903.9773	1673.3761	12181.1	11304.55
904.119	1675.1094	12079.25	11203.05
904.2606	1676.8419	12004.4	11127.15
904.4022	1678.5737	11912.1	11034.45
904.5439	1680.3048	11868.95	10991.1
904.6855	1682.0351	11819.1	10943.45
904.827	1683.7646	11757.4	10877.8
904.9686	1685.4934	11732.65	10857.3
905.1101	1687.2215	11675.25	10796.35
905.2517	1688.9488	11594.55	10716.5
905.3932	1690.6754	11572.5	10696.3
905.5347	1692.4012	11578	10700.5
905.6761	1694.1263	11506.4	10630.8
905.8176	1695.8506	11475.8	10597.1
905.9591	1697.5742	11442.25	10564.55
906.1005	1699.297	11377.8	10499.85
906.2419	1701.0191	11319.65	10444.25
906.3833	1702.7404	11270.75	10393.2
906.5246	1704.461	11241.95	10363.6
906.666	1706.1808	11175.25	10296.15
906.8073	1707.8999	11162.6	10284.3
906.9487	1709.6182	11129.8	10252.45
907.09	1711.3358	11109.55	10232.75
907.2313	1713.0527	11077.6	10202.3
907.3725	1714.7688	11005.9	10122.8
907.5138	1716.4841	11002.6	10124.5
907.655	1718.1987	10984.85	10103.05
907.7962	1719.9126	10938.55	10061.6
907.9374	1721.6257	10889.95	10008.85
908.0786	1723.338	10916.45	10038.25
908.2198	1725.0496	10864.15	9985.4
908.3609	1726.7605	10844.8	9965.85
908.502	1728.4706	10829.95	9951.6
908.6431	1730.18	10746.1	9864.95
908.7842	1731.8886	10726.65	9848.75
908.9253	1733.5964	10750.95	9850.95
909.0664	1735.3036	10707.7	9829.35
909.2074	1737.0099	10689.75	9811.55
909.3484	1738.7156	10670.85	9794.9
909.4894	1740.4204	10625.8	9743.3
909.6304	1742.1246	10632.6	9752.3
909.7714	1743.8279	10616.5	9738.4
909.9123	1745.5306	10576.7	9699.35
910.0532	1747.2325	10553.35	9678.4
910.1941	1748.9336	10518.6	9639.65
910.335	1750.634	10463.65	9583
910.4759	1752.3336	10494.45	9617.25
910.6168	1754.0325	10467.25	9591.05
910.7576	1755.7307	10424.15	9547.25
910.8984	1757.4281	10415.05	9535.65
911.0392	1759.1247	10428.2	9542.85
911.18	1760.8206	10390.1	9508.7
911.3208	1762.5158	10399.6	9517.25
911.4615	1764.2102	10350.35	9476.5
911.6022	1765.9039	10313.95	9437.55
911.7429	1767.5968	10291.85	9415.75
911.8836	1769.289	10270.95	9394.15
912.0243	1770.9804	10277	9398.7
912.1649	1772.6711	10243.15	9366.6
912.3056	1774.361	10202.5	9322.25
912.4462	1776.0502	10204.35	9325
912.5868	1777.7386	10158	9277.45
912.7274	1779.4263	10168.15	9289.05
912.8679	1781.1132	10164.65	9288.1
913.0084	1782.7994	10117.1	9238.35
913.149	1784.4849	10066.85	9190.05
913.2895	1786.1696	10080.5	9184.95
913.4299	1787.8535	10055.6	9177.5
913.5704	1789.5367	10024.75	9145.6
913.7108	1791.2192	9987.6	9110.45
913.8513	1792.9009	9991.15	9092.85
913.9917	1794.5818	9938.95	9061.2
914.132	1796.2621	9940.05	9061.9
914.2724	1797.9415	9907.55	9033.15
914.4128	1799.6202	9868.95	8989.5
914.5531	1801.2982	9844.05	8966.75
914.6934	1802.9755	9835.75	8955.95
914.8337	1804.6519	9827.8	8947.7
914.9739	1806.3277	9768.15	8890.6
915.1142	1808.0027	9720.15	8843.05
915.2544	1809.6769	9728.15	8850.25
915.3946	1811.3504	9691.15	8813.25
915.5348	1813.0231	9678.6	8800.55
915.675	1814.6951	9670.25	8791.6
915.8151	1816.3664	9676.9	8797.3
915.9553	1818.0369	9670.5	8791.05
916.0954	1819.7067	9630.15	8752.45
916.2355	1821.3757	9609	8729.5
916.3755	1823.044	9595.8	8717.35
916.5156	1824.7115	9586.2	8708
916.6556	1826.3783	9542.3	8665.05
916.7956	1828.0443	9505.45	8629.95
916.9356	1829.7096	9486	8607.25
917.0756	1831.3741	9486.15	8607.85
917.2155	1833.0379	9457.05	8578.5
917.3555	1834.701	9440.55	8560.5
917.4954	1836.3633	9420.15	8541.85
917.6353	1838.0248	9380.55	8502.05
917.7751	1839.6856	9374.3	8495.6
917.915	1841.3457	9343.4	8468.55
918.0548	1843.005	9329.3	8453.6
918.1946	1844.6636	9333.7	8456.75
918.3344	1846.3214	9311.75	8433.7
918.4742	1847.9785	9297.65	8419.3
918.6139	1849.6349	9263.05	8384.85
918.7537	1851.2904	9248.4	8362.1
918.8934	1852.9453	9226.9	8350.4
919.0331	1854.5994	9224.4	8344.25
919.1727	1856.2528	9215.4	8331.7
919.3124	1857.9054	9196.45	8318.85
919.452	1859.5572	9155.2	8277.65
919.5916	1861.2083	9163.3	8284.05
919.7312	1862.8587	9161.8	8283.4
919.8708	1864.5084	9159.8	8282.4
920.0103	1866.1572	9108.8	8232.45
920.1498	1867.8054	9085.45	8206.8
920.2893	1869.4528	9065.15	8187.7
920.4288	1871.0994	9016.6	8139.3
920.5683	1872.7453	9006.7	8126.7
920.7077	1874.3905	8977.25	8094.75
920.8471	1876.0349	8943.8	8066.65
920.9865	1877.6786	8958.6	8079.8
921.1259	1879.3215	8953.1	8076.3
921.2653	1880.9637	8927.5	8047.95
921.4046	1882.6051	8926.45	8049.8
921.5439	1884.2458	8902.35	8023.15
921.6832	1885.8858	8859.75	7981.75
921.8225	1887.525	8839.8	7961.85
921.9617	1889.1634	8810.6	7931.35
922.101	1890.8011	8817.15	7940.7
922.2402	1892.4381	8757.35	7879.1
922.3794	1894.0743	8781.35	7904.4
922.5185	1895.7098	8747.3	7870.2
922.6577	1897.3446	8733.9	7856.35
922.7968	1898.9786	8709.9	7829.65
922.9359	1900.6118	8738.85	7861.25
923.075	1902.2443	8647.15	7767.7
923.214	1903.8761	8663.05	7786.6
923.3531	1905.5071	8603	7723.55
923.4921	1907.1374	8591.15	7713.5
923.6311	1908.7669	8572.7	7693.65
923.77	1910.3957	8572	7695.1
923.909	1912.0237	8507.75	7631.65
924.0479	1913.651	8504.65	7625.4
924.1868	1915.2776	8512.25	7637.2
924.3257	1916.9034	8463.85	7587.3
924.4646	1918.5285	8423.35	7547
924.6034	1920.1528	8372.2	7495.05
924.7422	1921.7764	8367.55	7490.1
924.881	1923.3992	8366.45	7487.55
925.0198	1925.0213	8323.35	7443.55
925.1586	1926.6427	8274.3	7397.45
925.2973	1928.2633	8422.7	7336.1
925.436	1929.8832	8274.55	7393.4
925.5747	1931.5023	8202.9	7326
925.7134	1933.1207	8191.85	7315.5
925.852	1934.7383	8177.4	7298.4
925.9906	1936.3552	8153.95	7276.2
926.1292	1937.9714	8143.2	7264.5
926.2678	1939.5868	8145.35	7265.25
926.4064	1941.2015	8085.5	7207.7
926.5449	1942.8154	8041.9	7165
926.6834	1944.4286	7998.55	7122.35
926.8219	1946.041	8002.25	7102.15
926.9604	1947.6528	7967.35	7086.25
927.0988	1949.2637	7941.35	7064.25
927.2372	1950.8739	7928.9	7050.85
927.3756	1952.4834	7944.35	7066.2
927.514	1954.0921	7914.5	7037.95
927.6523	1955.7001	7899.9	7016.7
927.7907	1957.3074	7855.1	6980.35
927.929	1958.9139	7841.1	6965.05
928.0673	1960.5197	7831.1	6951
928.2055	1962.1247	7787.9	6909
928.3438	1963.729	7745.15	6868.35
928.482	1965.3325	7750.3	6850.2
928.6202	1966.9353	7718.95	6841
928.7584	1968.5374	7717.75	6839.5
928.8965	1970.1387	7666.6	6788.6
929.0346	1971.7393	7634.05	6755.15
929.1727	1973.3392	7622.55	6746.85
929.3108	1974.9383	7608.1	6731.45
929.4489	1976.5366	7583.6	6705.6
929.5869	1978.1342	7568.8	6689.65
929.7249	1979.7311	7553.7	6673.65
929.8629	1981.3273	7535.4	6658.9
930.0009	1982.9227	7514.9	6634.45
930.1388	1984.5173	7486.2	6609.5
930.2767	1986.1112	7461.9	6583.55
930.4146	1987.7044	7450.3	6573.05
930.5525	1989.2968	7423.85	6544.55
930.6904	1990.8885	7430.8	6550.7
930.8282	1992.4795	7417.85	6539.6
930.966	1994.0697	7388	6511.45
931.1038	1995.6592	7378.4	6500.55
931.2415	1997.2479	7379	6502.7
931.3793	1998.8359	7327.6	6450.05
931.517	2000.4232	7305.8	6431.05
931.6547	2002.0097	7282.45	6405.35
931.7923	2003.5955	7246.35	6365.95
931.93	2005.1805	7262.9	6383.8
932.0676	2006.7648	7239.3	6362.15
932.2052	2008.3484	7204.65	6325.05
932.3427	2009.9312	7231.25	6351.5
932.4803	2011.5133	7193.75	6317.7
932.6178	2013.0946	7181.4	6302.1
932.7553	2014.6752	7174.5	6297
932.8928	2016.2551	7123.95	6246.95
933.0302	2017.8342	7112.8	6236.25
933.1676	2019.4126	7081	6203.9
933.305	2020.9902	7053	6177.75
933.4424	2022.5672	7063.2	6182.6
933.5798	2024.1433	7057.8	6174.95
933.7171	2025.7188	7034.55	6159.3
933.8544	2027.2935	6993.2	6114.2
933.9917	2028.8674	7001.65	6124.9
934.129	2030.4406	6971.3	6096.2
934.2662	2032.0131	6955.1	6078.3
934.4034	2033.5849	6941.1	6058.55
934.5406	2035.1559	6927.9	6050.65
934.6778	2036.7261	6900.25	6023.4
934.8149	2038.2957	6899.55	6022.2
934.952	2039.8645	6883.55	6005.65
935.0891	2041.4325	6890.4	6011.85
935.2262	2042.9998	6857.55	5978.45
935.3632	2044.5664	6869.95	5989.85
935.5002	2046.1323	6810.45	5932.55
935.6372	2047.6974	6805.45	5929.35
935.7742	2049.2617	6797.15	5920.35
935.9111	2050.8254	6832.25	5932.3
936.048	2052.3883	6804.45	5926.75
936.1849	2053.9504	6774.1	5895.55
936.3218	2055.5118	6751.35	5872.65
936.4586	2057.0725	6751.45	5873.8
936.5955	2058.6325	6704.75	5826.65
936.7323	2060.1917	6700.8	5824.7
936.869	2061.7502	6696.8	5818.45
937.0058	2063.3079	6669.45	5791
937.1425	2064.8649	6659.45	5779.45
937.2792	2066.4212	6654.5	5774.45
937.4159	2067.9767	6622.1	5744.75
937.5525	2069.5315	6612.05	5734.55
937.6891	2071.0856	6594.55	5716.5
937.8257	2072.6389	6581.95	5705.55
937.9623	2074.1915	6549.8	5672.8
938.0989	2075.7433	6541.65	5662.9
938.2354	2077.2945	6506.4	5630
938.3719	2078.8448	6488.35	5611.35
938.5084	2080.3945	6473.3	5597
938.6448	2081.9434	6454.6	5577.55
938.7812	2083.4916	6459.8	5581.7
938.9176	2085.039	6435.3	5556.45
939.054	2086.5857	6448.6	5569.35
939.1903	2088.1317	6422.8	5545.35
939.3267	2089.677	6417.4	5541.25
939.463	2091.2215	6391.75	5514.15
939.5992	2092.7652	6366.35	5487.05
939.7355	2094.3083	6375.1	5496.2
939.8717	2095.8506	6370.25	5495.1
940.0079	2097.3921	6357.25	5481.25
940.1441	2098.933	6330.5	5454.75
940.2802	2100.4731	6331	5453.7
940.4163	2102.0124	6339.95	5444.05
940.5524	2103.5511	6321.65	5445.35
940.6885	2105.089	6312.75	5435.1
940.8245	2106.6261	6291.1	5413.2
940.9606	2108.1626	6292	5413.4
941.0965	2109.6983	6298.95	5395.3
941.2325	2111.2332	6259.2	5382
941.3684	2112.7675	6251.6	5374.8
941.5044	2114.301	6222.25	5342.15
941.6403	2115.8337	6222.6	5346.75
941.7761	2117.3657	6204.85	5326.35
941.912	2118.897	6214.1	5337
942.0478	2120.4276	6191.45	5310.05
942.1835	2121.9575	6156.9	5277.35
942.3193	2123.4866	6175.6	5298.9
942.455	2125.0149	6146.4	5266.15
942.5907	2126.5426	6122.25	5244.6
942.7264	2128.0695	6119.6	5239.05
942.8621	2129.5956	6111.9	5236
942.9977	2131.1211	6078.35	5196.15
943.1333	2132.6458	6072.5	5193.8
943.2689	2134.1698	6070.65	5191.45
943.4044	2135.693	6049.4	5169.1
943.54	2137.2155	6040.4	5157.5
943.6755	2138.7373	6031.95	5154.75
943.8109	2140.2584	6016	5140.2
943.9464	2141.7787	6006.05	5122.7
944.0818	2143.2983	5985.95	5110.35
944.2172	2144.8171	5943.35	5066.9
944.3526	2146.3353	5939.65	5061.4
944.4879	2147.8527	5933.65	5056.85
944.6232	2149.3693	5901.4	5022.65
944.7585	2150.8853	5902.45	5023.6
944.8938	2152.4005	5873.55	4995.3
945.029	2153.9149	5882.4	5006.05
945.1642	2155.4287	5842.55	4965.8
945.2994	2156.9417	5856.4	4977.55
945.4346	2158.454	5837.7	4959.95
945.5697	2159.9655	5816.8	4939.25
945.7048	2161.4764	5812.1	4934.4
945.8399	2162.9865	5787.05	4908.65
945.9749	2164.4958	5786.05	4906.8
946.1099	2166.0045	5758.65	4877.35
946.2449	2167.5124	5761	4882.8
946.3799	2169.0195	5731.8	4855.1
946.5148	2170.526	5746.5	4868.7
946.6498	2172.0317	5725.05	4847.25
946.7846	2173.5367	5712.2	4834.55
946.9195	2175.0409	5676.4	4800.7
947.0543	2176.5445	5685	4807.85
947.1891	2178.0473	5669.3	4793.1
947.3239	2179.5494	5646.6	4764.05
947.4587	2181.0507	5630.7	4753.85
947.5934	2182.5513	5626.95	4749.4
947.7281	2184.0512	5601.45	4724
947.8628	2185.5504	5597.45	4721.3
947.9974	2187.0488	5571.4	4694
948.132	2188.5465	5546.25	4667.1
948.2666	2190.0435	5551.4	4672.1
948.4012	2191.5397	5538.2	4660.25
948.5357	2193.0353	5521.5	4644.4
948.6702	2194.5301	5500.55	4622.55
948.8047	2196.0241	5470.1	4591.55
948.9392	2197.5175	5446.8	4570.85
949.0736	2199.0101	5453.45	4571.3
949.208	2200.502	5429.3	4554.95
949.3424	2201.9931	5409.35	4532.15
949.4767	2203.4835	5390.85	4512.65
949.611	2204.9733	5406.05	4522.8
949.7453	2206.4622	5375.6	4499.45
949.8796	2207.9505	5363.45	4484.7
950.0138	2209.438	5344.25	4467.75
950.148	2210.9248	5318.75	4439.95
950.2822	2212.4109	5319.65	4443.3
950.4164	2213.8962	5300.8	4420.65
950.5505	2215.3809	5299.25	4422.4
950.6846	2216.8648	5286.25	4410.15
950.8186	2218.3479	5259.85	4378.3
950.9527	2219.8304	5245.7	4366.85
951.0867	2221.3121	5243.4	4362.9
951.2207	2222.7931	5217.1	4340.45
951.3546	2224.2733	5205.55	4326.25
951.4886	2225.7529	5188.6	4308.2
951.6225	2227.2317	5170.3	4290.15
951.7563	2228.7098	5161.95	4284.65
951.8902	2230.1872	5144.05	4268.1
952.024	2231.6638	5144.75	4268.4
952.1578	2233.1397	5121.75	4238.35
952.2916	2234.6149	5101.55	4225.05
952.4253	2236.0894	5095.3	4216.65
952.559	2237.5632	5083.6	4204
952.6927	2239.0362	5051.25	4174.2
952.8263	2240.5085	5051.5	4175.1
952.9599	2241.9801	5042	4163.95
953.0935	2243.4509	5024.55	4148.95
953.2271	2244.921	5008.6	4131.8
953.3606	2246.3904	4998.95	4118.2
953.4941	2247.8591	4985.95	4109.55
953.6276	2249.3271	4969.1	4090.95
953.7611	2250.7943	4952.15	4073.15
953.8945	2252.2608	4930.8	4054.7
954.0279	2253.7266	4916.65	4037.85
954.1612	2255.1917	4917.4	4039.55
954.2946	2256.656	4904.8	4027.15
954.4279	2258.1197	4902.55	4025.35
954.5612	2259.5826	4892.2	4011.2
954.6944	2261.0447	4873.5	3997.05
954.8276	2262.5062	4847.25	3965.3
954.9608	2263.9669	4845.25	3965.95
955.094	2265.4269	4849.75	3972.55
955.2271	2266.8862	4816.65	3938
955.3602	2268.3448	4818.6	3941.1
955.4933	2269.8026	4824.2	3945.4
955.6264	2271.2598	4784.35	3907
955.7594	2272.7162	4762.45	3885.95
955.8924	2274.1719	4772.15	3896.4
956.0253	2275.6268	4759.3	3883.05
956.1583	2277.0811	4763.1	3887.85
956.2912	2278.5346	4739.35	3861.85
956.4241	2279.9874	4737.35	3859.45
956.5569	2281.4395	4712.7	3836.7
956.6897	2282.8908	4714.65	3829.75
956.8225	2284.3414	4706.65	3827.95
956.9553	2285.7914	4675.15	3797.65
957.088	2287.2406	4670.95	3790.8
957.2207	2288.689	4651.65	3773.9
957.3534	2290.1368	4643.35	3765.1
957.486	2291.5838	4644.95	3766.45
957.6186	2293.0302	4627.3	3750.1
957.7512	2294.4758	4615.4	3737.25
957.8838	2295.9206	4592.15	3713.6
958.0163	2297.3648	4583.95	3707.35
958.1488	2298.8082	4588.5	3710.35
958.2813	2300.251	4568.85	3691.15
958.4137	2301.693	4568.7	3687.1
958.5461	2303.1343	4549.25	3672.15
958.6785	2304.5748	4553.4	3674.15
958.8108	2306.0147	4526.9	3647.85
958.9432	2307.4538	4514.55	3634.85
959.0754	2308.8922	4503.95	3627.05
959.2077	2310.3299	4510.2	3633.4
959.3399	2311.7669	4479.15	3603.05
959.4721	2313.2031	4451.4	3572.55
959.6043	2314.6387	4460.55	3582.3
959.7365	2316.0735	4436.8	3559.6
959.8686	2317.5076	4425.6	3549.5
960.0006	2318.941	4414.1	3536.45
960.1327	2320.3737	4405.85	3528.55
960.2647	2321.8056	4408.75	3530.55
960.3967	2323.2369	4393.8	3517.45
960.5287	2324.6674	4377.35	3496.85
960.6606	2326.0972	4371.2	3492.1
960.7925	2327.5263	4351.6	3473
960.9244	2328.9547	4343.9	3466.25
961.0562	2330.3823	4344.65	3466.45
961.1881	2331.8092	4336.25	3454.35
961.3198	2333.2355	4305.8	3429.6
961.4516	2334.661	4300.35	3422.55
961.5833	2336.0858	4299.2	3419.85
961.715	2337.5098	4281.85	3402.4
961.8467	2338.9332	4275.1	3397.6
961.9783	2340.3558	4270.15	3388.9
962.1099	2341.7778	4255.7	3378.5
962.2415	2343.199	4239.35	3358.6
962.373	2344.6195	4228.85	3351.1
962.5045	2346.0393	4221.55	3345.65
962.636	2347.4583	4221.85	3344.3
962.7675	2348.8767	4213.85	3334.75
962.8989	2350.2943	4192	3316.6
963.0303	2351.7113	4183.2	3304.45
963.1617	2353.1275	4169.85	3292.9
963.293	2354.543	4167.15	3281.8
963.4243	2355.9578	4153.05	3274.8
963.5556	2357.3718	4124.75	3246.05
963.6868	2358.7852	4133.8	3251.6
963.818	2360.1978	4104.2	3225.5
963.9492	2361.6098	4111.2	3234.55
964.0803	2363.021	4094.55	3214.2
964.2114	2364.4315	4083.75	3207.05
964.3425	2365.8413	4074.55	3190.35
964.4736	2367.2504	4050.4	3172.85
964.6046	2368.6587	4035.45	3159.15
964.7356	2370.0664	4024.1	3145.8
964.8666	2371.4733	4016.05	3138.6
964.9975	2372.8795	4002.25	3124.45
965.1284	2374.285	3994.1	3115.5
965.2593	2375.6899	3976.95	3100.2
965.3901	2377.0939	3957.3	3080.55
965.5209	2378.4973	3935.45	3058.35
965.6517	2379.9	3944.3	3067.5
965.7825	2381.3019	3948.5	3072.55
965.9132	2382.7032	3923.6	3048.1
966.0439	2384.1037	3913.05	3037.1
966.1745	2385.5035	3914.4	3035.95
966.3051	2386.9027	3890.75	3012.4
966.4357	2388.3011	3889.95	3008.4
966.5663	2389.6987	3878.9	3000.7
966.6968	2391.0957	3875.25	2998.35
966.8273	2392.492	3841.1	2960.95
966.9578	2393.8876	3828.65	2951.75
967.0882	2395.2824	3807.75	2930.8
967.2186	2396.6765	3805	2927.15
967.349	2398.07	3786.95	2911.15
967.4793	2399.4627	3790.8	2911.9
967.6097	2400.8547	3785.05	2908.55
967.7399	2402.246	3769.8	2886
967.8702	2403.6366	3755.05	2877.8
968.0004	2405.0265	3737.45	2858.35
968.1306	2406.4156	3725.45	2841.7
968.2607	2407.8041	3726.5	2846.6
968.3909	2409.1918	3714.65	2833.15
968.521	2410.5789	3696.7	2819.75
968.651	2411.9652	3677.5	2796.5
968.781	2413.3508	3669.3	2790.85
968.911	2414.7358	3653.1	2773.9
969.041	2416.12	3643.15	2766.1
969.1709	2417.5035	3654.65	2777.1
969.3008	2418.8863	3631.25	2751.8
969.4307	2420.2684	3630.2	2750.15
969.5606	2421.6497	3613.35	2735.55
969.6904	2423.0304	3581.85	2704.5
969.8201	2424.4104	3578.8	2701.05
969.9499	2425.7896	3574.8	2696.5
970.0796	2427.1682	3571.95	2694.35
970.2093	2428.546	3558.25	2677.9
970.3389	2429.9232	3541.45	2661.9
970.4685	2431.2996	3538.35	2659.85
970.5981	2432.6753	3546.95	2668.9
970.7277	2434.0503	3524.8	2646.75
970.8572	2435.4246	3507.9	2629.2
970.9867	2436.7982	3510.1	2629.9
971.1161	2438.1711	3500.2	2619.75
971.2456	2439.5433	3492.75	2615
971.375	2440.9148	3476.3	2592.9
971.5043	2442.2856	3450.25	2572.8
971.6336	2443.6557	3464.1	2585.55
971.7629	2445.025	3465.55	2585.95
971.8922	2446.3937	3436.5	2559.75
972.0214	2447.7617	3437.7	2559.25
972.1506	2449.1289	3433.3	2556.4
972.2798	2450.4955	3408.85	2526.65
972.4089	2451.8613	3410.65	2532.45
972.538	2453.2265	3409.6	2531.05
972.6671	2454.5909	3398.45	2518.3
972.7961	2455.9546	3398.25	2520.35
972.9251	2457.3177	3381.15	2502.5
973.0541	2458.68	3354.15	2475.25
973.1831	2460.0416	3372.65	2495.35
973.312	2461.4025	3368.15	2489.55
973.4408	2462.7627	3371.85	2481.05
973.5697	2464.1222	3347.2	2470.05
973.6985	2465.4811	3346.85	2466.2
973.8273	2466.8392	3316.65	2437.65
973.956	2468.1966	3323.2	2442.65
974.0847	2469.5533	3318.65	2437.35
974.2134	2470.9093	3319.65	2441.2
974.3421	2472.2645	3306.95	2425.95
974.4707	2473.6191	3293.65	2417.1
974.5993	2474.973	3284.8	2407.1
974.7278	2476.3262	3272.35	2393.3
974.8563	2477.6787	3269.7	2392.2
974.9848	2479.0305	3267.8	2388.8
975.1132	2480.3816	3238	2357.9
975.2417	2481.7319	3215.05	2336.65
975.37	2483.0816	3216.25	2334.6
975.4984	2484.4306	3218	2337.2
975.6267	2485.7789	3196.6	2317.9
975.755	2487.1264	3197.3	2317.55
975.8833	2488.4733	3187.15	2310.95
976.0115	2489.8195	3176.75	2290.4
976.1397	2491.165	3164.4	2285.45
976.2678	2492.5097	3165.2	2284.65
976.3959	2493.8538	3150.45	2272.5
976.524	2495.1972	3136.45	2258.35
976.6521	2496.5398	3127.3	2247.6
976.7801	2497.8818	3121.25	2240.15
976.9081	2499.2231	3118.35	2240.1
977.036	2500.5637	3109.5	2228.4
977.164	2501.9035	3092.05	2212.95
977.2918	2503.2427	3095.25	2210.95
977.4197	2504.5812	3089	2211.65
977.5475	2505.919	3076.65	2197.15
977.6753	2507.256	3071	2192.6
977.8031	2508.5924	3051.1	2173.05
977.9308	2509.9281	3068.1	2183.1
978.0585	2511.2631	3037.4	2160.3
978.1861	2512.5974	3039.3	2162.65
978.3137	2513.9309	3029.35	2151.5
978.4413	2515.2638	3043.45	2135.15
978.5689	2516.596	3027.7	2149.15
978.6964	2517.9275	3005.8	2127.8
978.8239	2519.2583	2997.1	2117.9
978.9513	2520.5884	2996.05	2116.4
979.0788	2521.9178	2982	2104.2
979.2062	2523.2465	2971.3	2094.05
979.3335	2524.5745	2963.5	2087.4
979.4608	2525.9018	2949.4	2069.7
979.5881	2527.2284	2940.9	2063.9
979.7154	2528.5543	2954.25	2077.4
979.8426	2529.8796	2939.5	2062.25
979.9698	2531.2041	2924.1	2045.65
980.0969	2532.5279	2918.4	2040.45
980.224	2533.851	2921.35	2042.55
980.3511	2535.1735	2901.05	2023.6
980.4781	2536.4952	2905.05	2026.95
980.6052	2537.8163	2911.35	2032.55
980.7321	2539.1366	2895.25	2017.15
980.8591	2540.4562	2882.15	2003.25
980.986	2541.7752	2880.4	2003.45
981.1129	2543.0935	2879.8	2002.25
981.2397	2544.411	2874.45	1996.45
981.3665	2545.7279	2861.7	1985.05
981.4933	2547.0441	2862.15	1982.85
981.62	2548.3596	2863.85	1981.25
981.7467	2549.6744	2846.65	1967.35
981.8734	2550.9885	2859.75	1973.85
982.0001	2552.3019	2832.3	1955.45
982.1267	2553.6146	2825	1945.65
982.2532	2554.9266	2826.95	1949.85
982.3798	2556.2379	2811.75	1931.3
982.5063	2557.5485	2822.85	1945.95
982.6327	2558.8585	2827	1942.3
982.7592	2560.1677	2802.05	1920.3
982.8856	2561.4762	2805.2	1925.45
983.0119	2562.7841	2800.4	1919.2
983.1383	2564.0913	2790.9	1912.1
983.2646	2565.3977	2785.2	1908.9
983.3908	2566.7035	2785.25	1907.05
983.517	2568.0086	2774.25	1895.8
983.6432	2569.313	2786.4	1907.5
983.7694	2570.6167	2778	1897.55
983.8955	2571.9197	2763.65	1887.8
984.0216	2573.222	2767.75	1884.7
984.1476	2574.5236	2740.1	1860.6
984.2737	2575.8246	2750.95	1867.45
984.3996	2577.1248	2736.75	1855.45
984.5256	2578.4244	2731.65	1856.4
984.6515	2579.7232	2729.9	1854
984.7774	2581.0214	2757.85	1856.1
984.9032	2582.3189	2734.2	1858
985.029	2583.6157	2735.2	1853.75
985.1548	2584.9118	2717.65	1840.65
985.2806	2586.2072	2710.75	1833.2
985.4063	2587.5019	2699.5	1822.05
985.5319	2588.7959	2708.15	1830.65
985.6576	2590.0893	2702	1824.85
985.7832	2591.3819	2687.15	1809.55
985.9087	2592.6739	2684.65	1808.6
986.0343	2593.9652	2676	1797.6
986.1597	2595.2557	2664.05	1786.5
986.2852	2596.5456	2665.55	1785
986.4106	2597.8348	2665.7	1789.65
986.536	2599.1234	2642.95	1766.4
986.6614	2600.4112	2634.25	1756.7
986.7867	2601.6983	2642.2	1761.15
986.912	2602.9848	2627.8	1750.25
987.0372	2604.2705	2633.85	1747.9
987.1624	2605.5556	2608.15	1731.25
987.2876	2606.84	2604.5	1724.25
987.4128	2608.1237	2594.9	1716.25
987.5379	2609.4067	2575.55	1698.7
987.6629	2610.689	2594.95	1707.25
987.788	2611.9707	2569.85	1690.9
987.913	2613.2516	2573.6	1691.75
988.0379	2614.5319	2549.7	1671.3
988.1629	2615.8115	2551.45	1674.3
988.2878	2617.0903	2527.2	1646.9
988.4126	2618.3685	2533.7	1656.1
988.5375	2619.6461	2533.65	1656.25
988.6622	2620.9229	2518.4	1639.75
988.787	2622.199	2527.6	1649.25
988.9117	2623.4745	2518.6	1640.45
989.0364	2624.7493	2502.7	1624.45
989.161	2626.0234	2501.5	1624.55
989.2857	2627.2968	2503.95	1624.6
989.4102	2628.5695	2484.3	1606.9
989.5348	2629.8415	2468.85	1592.25
989.6593	2631.1128	2470.6	1591.2
989.7837	2632.3835	2450.5	1573.25
989.9082	2633.6535	2447.4	1570.4
990.0326	2634.9228	2441.4	1564.45
990.1569	2636.1914	2445.45	1567.4
990.2812	2637.4593	2445.3	1561
990.4055	2638.7265	2427	1548.4
990.5298	2639.9931	2418.55	1541
990.654	2641.259	2414.75	1537.6
990.7782	2642.5242	2413.1	1535.45
990.9023	2643.7887	2429.15	1549.75
991.0264	2645.0525	2406.15	1527.25
991.1505	2646.3156	2411.15	1531.85
991.2745	2647.5781	2393.8	1517.3
991.3985	2648.8398	2384.3	1507.5
991.5225	2650.1009	2384.95	1497.65
991.6464	2651.3613	2377.85	1500.35
991.7703	2652.6211	2359.75	1482.1
991.8942	2653.8801	2366.7	1490.9
992.018	2655.1385	2359.2	1476.85
992.1418	2656.3961	2350.4	1474.7
992.2655	2657.6531	2349.85	1471.4
992.3892	2658.9094	2330.2	1453.25
992.5129	2660.1651	2332.4	1456.4
992.6366	2661.42	2341.1	1461.45
992.7602	2662.6743	2339.6	1458.6
992.8837	2663.9279	2328.1	1453.25
993.0073	2665.1808	2318.1	1438.9
993.1307	2666.433	2322.2	1442.3
993.2542	2667.6846	2310	1430.7
993.3776	2668.9354	2311	1429.95
993.501	2670.1856	2307.6	1427.85
993.6244	2671.4351	2306.95	1431.8
993.7477	2672.6839	2304.5	1425.9
993.8709	2673.9321	2291.9	1414.6
993.9942	2675.1795	2292	1412.25
994.1174	2676.4263	2273.45	1394.6
994.2405	2677.6724	2281.2	1403.9
994.3637	2678.9179	2281.8	1402.5
994.4868	2680.1626	2260.25	1384.75
994.6098	2681.4067	2268.65	1389.6
994.7328	2682.6501	2255.2	1379.35
994.8558	2683.8928	2251.25	1374.3
994.9788	2685.1348	2239.7	1363.65
995.1017	2686.3761	2227.65	1349.3
995.2245	2687.6168	2232.7	1353.6
995.3474	2688.8568	2228.3	1350.45
995.4702	2690.0961	2216.1	1338.9
995.5929	2691.3348	2214.7	1337.75
995.7156	2692.5727	2213.25	1334.7
995.8383	2693.81	2207.05	1329.65
995.961	2695.0466	2205.8	1329.15
996.0836	2696.2826	2198.5	1318.3
996.2062	2697.5178	2196.85	1315.85
996.3287	2698.7524	2186.75	1310.15
996.4512	2699.9863	2180.3	1300.35
996.5737	2701.2195	2180.6	1302.25
996.6961	2702.452	2174.75	1295.8
996.8185	2703.6839	2167.8	1289.1
996.9408	2704.9151	2165.85	1290.55
997.0631	2706.1456	2161.05	1283.35
997.1854	2707.3755	2158.5	1281.9
997.3077	2708.6046	2156.95	1276.6
997.4299	2709.8331	2147.25	1269.65
997.552	2711.0609	2138.75	1260
997.6742	2712.2881	2137.65	1258.4
997.7963	2713.5145	2136.5	1258.75
997.9183	2714.7403	2132.25	1254.85
998.0403	2715.9654	2122.6	1243.3
998.1623	2717.1899	2130.65	1239.45
998.2842	2718.4136	2118.8	1243.2
998.4062	2719.6367	2111.3	1233.85
998.528	2720.8591	2105.65	1220
998.6498	2722.0809	2103.5	1225.55
998.7716	2723.3019	2106.2	1226.9
998.8934	2724.5223	2098.35	1220.85
999.0151	2725.7421	2079.25	1200.7
999.1368	2726.9611	2083.75	1204.75
999.2584	2728.1795	2087.5	1203.95
999.38	2729.3972	2078.95	1201
999.5016	2730.6142	2074.05	1185.4
999.6231	2731.8306	2052.1	1173.5
999.7446	2733.0462	2053	1173.55
999.8661	2734.2612	2051.95	1170.1
999.9875	2735.4756	2034.45	1156.4
1000.1089	2736.6892	2031.15	1154.75
1000.2302	2737.9022	2027.85	1150.4
1000.3515	2739.1145	2021.6	1144.1
1000.4728	2740.3262	2024.45	1138.85
1000.594	2741.5372	2011.25	1134.95
1000.7152	2742.7475	2011.05	1133.85
1000.8363	2743.9571	2008.9	1129.2
1000.9575	2745.1661	2001.95	1118.4
1001.0785	2746.3744	1998.05	1120.6
1001.1996	2747.582	1978.25	1101.15
1001.3206	2748.7889	1979.6	1099.5
1001.4415	2749.9952	1980.9	1104.25
1001.5625	2751.2008	1964.5	1083.8
1001.6833	2752.4057	1976.2	1095.85
1001.8042	2753.61	1962.1	1084.4
1001.925	2754.8136	1953.1	1070.6
1002.0458	2756.0165	1948.5	1071
1002.1665	2757.2188	1943.45	1066.95
1002.2872	2758.4204	1942.6	1065.5
1002.4078	2759.6213	1935.3	1056.25
1002.5285	2760.8215	1941.6	1059.25
1002.649	2762.0211	1948.15	1070.8
1002.7696	2763.22	1938.6	1059.65
1002.8901	2764.4182	1928.85	1050.05
1003.0106	2765.6158	1919.6	1043.6
1003.131	2766.8127	1908.8	1027.4
1003.2514	2768.009	1906.4	1028.55
1003.3717	2769.2045	1920.5	1040.25
1003.492	2770.3994	1910.75	1031.4
1003.6123	2771.5936	1902.7	1024.7
1003.7325	2772.7872	1895.2	1020.45
1003.8527	2773.9801	1881.6	1001.95
1003.9729	2775.1723	1893.85	998.65
1004.093	2776.3639	1881.55	1004.75
1004.2131	2777.5548	1890.35	1010.85
1004.3331	2778.745	1876.3	997.25
1004.4531	2779.9346	1867.85	991.35
1004.5731	2781.1235	1874.45	997.2
1004.693	2782.3117	1864.3	986.4
1004.8129	2783.4992	1868.7	992.35
1004.9328	2784.6861	1856.1	978
1005.0526	2785.8723	1854.4	975.25
1005.1723	2787.0579	1854.3	975.25
1005.2921	2788.2428	1840.7	961.35
1005.4118	2789.427	1840.75	963.35
1005.5314	2790.6106	1838.05	958.95
1005.651	2791.7935	1830	951.7
1005.7706	2792.9757	1828.65	949.95
1005.8902	2794.1573	1831.85	952.45
1006.0097	2795.3382	1826.9	949.85
1006.1291	2796.5184	1813.8	937.15
1006.2485	2797.698	1814.6	934.35
1006.3679	2798.8769	1806.2	930.1
1006.4873	2800.0551	1798.8	920
1006.6066	2801.2327	1791.35	912.75
1006.7258	2802.4096	1796.7	919.3
1006.8451	2803.5859	1796.5	918.95
1006.9642	2804.7615	1789.05	912.25
1007.0834	2805.9364	1794.85	918.7
1007.2025	2807.1106	1788.85	910.5
1007.3216	2808.2842	1782.4	903
1007.4406	2809.4572	1780.25	902.85
1007.5596	2810.6294	1780.9	902.6
1007.6785	2811.801	1771.95	895.95
1007.7975	2812.972	1776.3	898.85
1007.9163	2814.1423	1777.1	899.15
1008.0352	2815.3119	1772.25	893.6
1008.154	2816.4808	1780.65	904.1
1008.2727	2817.6491	1779.55	901.25
1008.3914	2818.8167	1777.5	901
1008.5101	2819.9837	1779.4	897.9
1008.6288	2821.15	1785.6	909.25
1008.7474	2822.3157	1787.5	911.4
1008.8659	2823.4807	1789.4	910.5
1008.9844	2824.645	1808.15	928.35
1009.1029	2825.8086	1810.9	934.8
1009.2214	2826.9716	1819.45	941.35
1009.3398	2828.134	1823.95	949.05
1009.4581	2829.2957	1833.85	957.85
1009.5764	2830.4567	1840.8	964.45
1009.6947	2831.617	1840.3	962.75
1009.813	2832.7767	1844.5	967.05
1009.9312	2833.9358	1836.7	959.7
1010.0493	2835.0941	1839.15	960.4
1010.1675	2836.2519	1841.35	964.5
1010.2855	2837.4089	1828.2	950.1
1010.4036	2838.5653	1819.9	942.5
1010.5216	2839.7211	1806.6	930.15
1010.6396	2840.8761	1807.35	928.65
1010.7575	2842.0306	1798	921.7
1010.8754	2843.1843	1794.25	917.65
1010.9932	2844.3374	1806.15	927.2
1011.111	2845.4899	1797.7	920.25
1011.2288	2846.6417	1794.75	918.6
1011.3465	2847.7928	1804.85	929.2
1011.4642	2848.9433	1799.05	922.85
1011.5818	2850.0931	1804.75	926.65
1011.6995	2851.2422	1803.75	923.9
1011.817	2852.3907	1798.9	921.8
1011.9345	2853.5385	1790.6	911.9
1012.052	2854.6857	1808.1	920
1012.1695	2855.8323	1794.15	918.55
1012.2869	2856.9781	1798.15	921.05
1012.4042	2858.1233	1798.7	921.6
1012.5216	2859.2679	1801.4	921.4
1012.6389	2860.4118	1807.3	930.6
1012.7561	2861.555	1815.1	932.95
1012.8733	2862.6976	1809.8	928.65
1012.9905	2863.8395	1810.5	933.85
1013.1076	2864.9808	1807.95	929.8
1013.2247	2866.1214	1801.3	924.75
1013.3417	2867.2614	1798.2	918.25
1013.4587	2868.4007	1801.95	923.5
1013.5757	2869.5393	1805.45	927.9
1013.6926	2870.6773	1815.2	934.45
1013.8095	2871.8146	1811.55	931.75
1013.9263	2872.9513	1803.35	923.6
1014.0431	2874.0874	1802.45	925.65
1014.1599	2875.2227	1794.9	916.85
1014.2766	2876.3574	1793.05	916.7
1014.3933	2877.4915	1799.5	920.9
1014.51	2878.6249	1795.4	917.45
1014.6266	2879.7577	1794.6	915.4
1014.7431	2880.8898	1799.5	912.1
1014.8596	2882.0212	1796.5	919.4
1014.9761	2883.152	1799.6	921.6
1015.0925	2884.2821	1796.9	920.2
1015.2089	2885.4116	1797.35	920.15
1015.3253	2886.5405	1792.95	916.45
1015.4416	2887.6686	1797.65	917.3
1015.5579	2888.7962	1786.05	909.9
1015.6741	2889.923	1790.6	913.25
1015.7903	2891.0493	1783.95	907.45
1015.9065	2892.1748	1783.55	906.5
1016.0226	2893.2997	1775.15	898
1016.1387	2894.424	1768.8	890.1
1016.2547	2895.5476	1764.15	886.9
1016.3707	2896.6706	1779.1	901.55
1016.4866	2897.7929	1764.1	884.65
1016.6025	2898.9145	1768.05	889.6
1016.7184	2900.0355	1759.55	881.05
1016.8342	2901.1559	1757.6	880.85
1016.95	2902.2756	1754.1	875.35
1017.0658	2903.3946	1742.2	863.2
1017.1815	2904.513	1751.5	870.75
1017.2971	2905.6308	1743.9	866.15
1017.4127	2906.7479	1736	857.15
1017.5283	2907.8643	1734.65	855.5
1017.6439	2908.9801	1729.9	852.25
1017.7594	2910.0953	1729	848.95
1017.8748	2911.2098	1724.4	845.4
1017.9902	2912.3236	1735.2	851.35
1018.1056	2913.4368	1722.35	840.05
1018.2209	2914.5494	1715.85	837.65
1018.3362	2915.6613	1718.35	835.65
1018.4515	2916.7725	1705	823
1018.5667	2917.8831	1703.8	825.7
1018.6819	2918.9931	1691.9	809.2
1018.797	2920.1024	1687.65	807.95
1018.9121	2921.211	1674.7	797.3
1019.0271	2922.319	1681.9	803.2
1019.1421	2923.4264	1666.05	790.05
1019.2571	2924.5331	1668.5	790.2
1019.372	2925.6391	1667	789.8
1019.4869	2926.7445	1669.25	793
1019.6017	2927.8493	1664.75	786.8
1019.7165	2928.9534	1665.75	789.5
1019.8313	2930.0569	1660.35	780.2
1019.946	2931.1597	1676.65	799.9
1020.0606	2932.2619	1662.1	784.9
1020.1753	2933.3634	1662	783.75
1020.2899	2934.4643	1666.3	782.25
1020.4044	2935.5645	1666.9	785.35
1020.5189	2936.6641	1660.6	777.35
1020.6334	2937.763	1649.4	771.6
1020.7478	2938.8613	1657.75	778.05
1020.8622	2939.959	1654.2	770.35
1020.9765	2941.056	1643.7	765.85
1021.0908	2942.1523	1624.4	744.45
1021.2051	2943.248	1621.45	743.55
1021.3193	2944.3431	1610.15	731.1
1021.4334	2945.4375	1591.2	713.6
1021.5476	2946.5313	1578.7	702.75
1021.6617	2947.6244	1561.55	684.3
1021.7757	2948.7169	1556.45	679.1
1021.8897	2949.8087	1538	661
1022.0037	2950.8999	1525.95	645.7
1022.1176	2951.9904	1515	637.6
1022.2315	2953.0803	1511.8	632.4
1022.3453	2954.1696	1499.95	622.9
1022.4591	2955.2582	1490.55	613.3
1022.5728	2956.3462	1493.85	617.8
1022.6865	2957.4335	1487.7	610.9
1022.8002	2958.5202	1480.65	600.85
1022.9138	2959.6062	1477.45	601.05
1023.0274	2960.6916	1476.1	597.3
1023.141	2961.7764	1471.3	592.3
1023.2545	2962.8605	1475.7	597.2
1023.3679	2963.9439	1467.3	589.85
1023.4813	2965.0267	1461.8	583.3
1023.5947	2966.1089	1489.8	588.7
1023.708	2967.1905	1460.5	583.1
1023.8213	2968.2714	1457.5	581.25
1023.9346	2969.3516	1452.1	574.8
1024.0478	2970.4312	1450.8	564.8
1024.1609	2971.5102	1452.6	576
1024.274	2972.5885	1446.4	568.7
1024.3871	2973.6662	1442.45	560.15
1024.5002	2974.7432	1438.35	561
1024.6132	2975.8196	1435.05	558.6
1024.7261	2976.8954	1432.5	554.65
1024.839	2977.9705	1431.55	553
1024.9519	2979.045	1429.15	552.95
1025.0647	2980.1188	1426.45	547.85
1025.1775	2981.192	1429.05	553.4
1025.2902	2982.2645	1422	543.8
1025.4029	2983.3364	1409.75	531.9
1025.5156	2984.4077	1411.8	535.25
1025.6282	2985.4783	1409.75	526.9
1025.7407	2986.5483	1403.1	527.7
1025.8532	2987.6177	1399.15	523.05
1025.9657	2988.6864	1393.55	517.4
1026.0782	2989.7545	1392.4	514.8
1026.1906	2990.8219	1385.4	509.55
1026.3029	2991.8887	1387.05	508.5
1026.4152	2992.9548	1376.75	499.65
1026.5275	2994.0204	1367.2	490.4
1026.6397	2995.0852	1358.9	483.9
1026.7519	2996.1495	1355.4	477
1026.864	2997.2131	1351.5	474.25
1026.9761	2998.276	1341.95	463.85
1027.0882	2999.3383	1338.1	460.5
1027.2002	3000.4	1333.25	454.9
1027.3122	3001.4611	1336.9	458.5
1027.4241	3002.5215	1323.7	447.2
1027.536	3003.5812	1323.3	445.8
1027.6478	3004.6404	1318.6	441
1027.7596	3005.6989	1326.1	446.55
1027.8714	3006.7567	1315	439.3
1027.9831	3007.8139	1336.5	436.4
1028.0947	3008.8705	1311.75	433.95
1028.2064	3009.9264	1307.3	426.65
1028.3179	3010.9818	1300.55	423.8
1028.4295	3012.0364	1307.3	429.75
1028.541	3013.0905	1298.3	421.3
1028.6524	3014.1439	1285.4	410.5
1028.7638	3015.1966	1298.15	421
1028.8752	3016.2487	1291	415.4
1028.9865	3017.3002	1295.95	415.15
1029.0978	3018.3511	1290.05	414.45
1029.209	3019.4013	1286.95	410.3
1029.3202	3020.4509	1283.3	406.8
1029.4314	3021.4998	1287.2	410.6
1029.5425	3022.5481	1280.1	402.1
1029.6535	3023.5958	1282.1	405.5
1029.7645	3024.6428	1277.05	397.65
1029.8755	3025.6892	1275.45	397.45
1029.9864	3026.735	1276.05	398.65
1030.0973	3027.7802	1269.25	392.95
1030.2082	3028.8247	1268.75	390.75
1030.319	3029.8685	1267.8	390.75
1030.4297	3030.9118	1272.4	393.15
1030.5404	3031.9544	1258.9	382.55
1030.6511	3032.9963	1263.35	385.95
1030.7617	3034.0376	1265	389.4
1030.8723	3035.0783	1260.9	381.8
1030.9829	3036.1184	1264.55	387.85
1031.0934	3037.1578	1261.1	383.6
1031.2038	3038.1966	1255.65	376.8
1031.3142	3039.2348	1254.1	377.85
1031.4246	3040.2723	1264.65	378.7
1031.5349	3041.3092	1255.7	379.25
1031.6452	3042.3455	1249.7	372.3
1031.7554	3043.3811	1246.2	368.95
1031.8656	3044.4161	1250.3	373.8
1031.9758	3045.4505	1245	369.3
1032.0859	3046.4842	1248.7	369.3
1032.1959	3047.5173	1241.95	367.15
1032.3059	3048.5498	1242.4	364.6
1032.4159	3049.5816	1241.7	363.15
1032.5258	3050.6128	1242	362.9
1032.6357	3051.6434	1237.95	357.9
1032.7455	3052.6734	1231.85	353.6
1032.8553	3053.7027	1238.2	362.9
1032.9651	3054.7314	1236.45	358.45
1033.0748	3055.7594	1234.85	360.45
1033.1845	3056.7868	1233.8	353.35
1033.2941	3057.8136	1230.85	355.4
1033.4037	3058.8398	1231.95	355.3
1033.5132	3059.8653	1230.8	353.55
1033.6227	3060.8902	1225.05	348.1
1033.7321	3061.9145	1223.55	346.95
1033.8415	3062.9381	1218.85	340.75
1033.9509	3063.9612	1238.35	343.5
1034.0602	3064.9835	1228.6	351.35
1034.1694	3066.0053	1220.1	340.05
1034.2787	3067.0264	1222.6	345.55
1034.3878	3068.0469	1222.05	343.75
1034.497	3069.0668	1225.05	345.15
1034.6061	3070.086	1214.25	338.2
1034.7151	3071.1046	1214	337.8
1034.8241	3072.1226	1212.15	333.65
1034.9331	3073.1399	1215.95	337.95
1035.042	3074.1567	1210.6	333.2
1035.1508	3075.1727	1206.4	326.45
1035.2597	3076.1882	1208.95	334.95
1035.3684	3077.203	1205	327.9
1035.4772	3078.2173	1205.35	325.4
1035.5859	3079.2308	1204.35	323.75
1035.6945	3080.2438	1207.85	327.55
1035.8031	3081.2561	1197.2	321.7
1035.9117	3082.2678	1195.1	317.7
1036.0202	3083.2789	1195.4	319.6
1036.1286	3084.2893	1191.2	316.25
1036.2371	3085.2991	1185.75	309.9
1036.3454	3086.3083	1194.35	314.1
1036.4538	3087.3169	1186.65	307.6
1036.562	3088.3248	1180.5	300.05
1036.6703	3089.3321	1183	303.4
1036.7785	3090.3388	1180.1	302.95
1036.8866	3091.3449	1175.7	297.9
1036.9948	3092.3503	1179.3	297.1
1037.1028	3093.3551	1178.1	302.95
1037.2108	3094.3593	1174.3	298.35
1037.3188	3095.3629	1175.5	299.05
1037.4267	3096.3658	1168.55	290.55
1037.5346	3097.3681	1170.8	291.8
1037.6425	3098.3698	1169.15	290.65
1037.7503	3099.3708	1174.5	289.35
1037.858	3100.3713	1163.15	288.6
1037.9657	3101.3711	1163.9	285.8
1038.0734	3102.3702	1299	287.35
1038.181	3103.3688	1163.4	285.55
1038.2886	3104.3667	1154.3	279.3
1038.3961	3105.364	1155.8	279.15
1038.5036	3106.3607	1152.65	273.45
1038.611	3107.3568	1150.3	270.75
1038.7184	3108.3522	1147.65	269.6
1038.8257	3109.347	1147.05	269.95
1038.933	3110.3412	1153.8	273.5
1039.0403	3111.3348	1147.1	271.7
1039.1475	3112.3277	1147.05	270.5
1039.2547	3113.32	1140.4	264.55
1039.3618	3114.3117	1139.4	261
1039.4689	3115.3028	1140.1	262.05
1039.5759	3116.2932	1142.6	263.2
1039.6829	3117.2831	1144.15	260.45
1039.7898	3118.2723	1135.6	258.25
1039.8967	3119.2608	1136.75	260.4
1040.0035	3120.2488	1135.65	258.1
1040.1103	3121.2361	1130.5	251.85
1040.2171	3122.2229	1128.95	254.1
1040.3238	3123.209	1127.9	249.4
1040.4305	3124.1944	1124.2	248.6
1040.5371	3125.1793	1123.05	243.85
1040.6437	3126.1635	1128.2	251
1040.7502	3127.1471	1121.4	244.6
1040.8567	3128.1301	1116.35	237.7
1040.9631	3129.1125	1118.3	242.2
1041.0695	3130.0942	1118.8	239.9
1041.1759	3131.0753	1123.15	237.35
1041.2822	3132.0558	1123.45	243.45
1041.3884	3133.0357	1117.15	238.85
1041.4946	3134.015	1112	234.75
1041.6008	3134.9936	1113.85	235.55
1041.7069	3135.9716	1134.4	236.8
1041.813	3136.949	1106.2	228.7
1041.919	3137.9258	1115.7	230.9
1042.025	3138.902	1111.7	228.85
1042.1309	3139.8775	1104.65	228.85
1042.2368	3140.8524	1112	233.95
1042.3427	3141.8267	1115.7	236.9
1042.4485	3142.8004	1105.95	229.35
1042.5542	3143.7735	1109.1	226.3
1042.6599	3144.7459	1102.65	223.95
1042.7656	3145.7178	1103.5	226.4
1042.8712	3146.689	1096.2	220.5
1042.9768	3147.6596	1102.05	221.1
1043.0823	3148.6295	1097.65	218.6
1043.1878	3149.5989	1096.5	218.65
1043.2932	3150.5676	1095.1	219.45
1043.3986	3151.5357	1089.95	214.1
1043.5039	3152.5032	1091.9	215.65
1043.6092	3153.4701	1094.15	215.15
1043.7145	3154.4364	1094.5	214.5
1043.8197	3155.402	1091.8	215.7
1043.9248	3156.367	1089.6	210.7
1044.03	3157.3315	1122.7	207.5
1044.135	3158.2952	1089.45	214.85
1044.24	3159.2584	1081.95	206.05
1044.345	3160.221	1082.35	203.4
1044.4499	3161.1829	1081.7	205.75
1044.5548	3162.1442	1076.25	198.75
1044.6596	3163.105	1080.7	201.15
1044.7644	3164.065	1080.05	202.05
1044.8692	3165.0245	1080.2	199
1044.9739	3165.9834	1079.6	204.15
1045.0785	3166.9416	1071.05	193.7
1045.1831	3167.8993	1076.15	198.05
1045.2877	3168.8563	1075.1	197.4
1045.3922	3169.8127	1076.45	200.05
1045.4966	3170.7684	1069.05	192.35
1045.6011	3171.7236	1070.5	192.8
1045.7054	3172.6782	1069.85	192.6
1045.8098	3173.6321	1065.3	188.8
1045.914	3174.5854	1076.05	192.9
1046.0183	3175.5381	1069.1	191.7
1046.1224	3176.4902	1065.7	190.3
1046.2266	3177.4417	1064.4	188.2
1046.3307	3178.3926	1060.25	184.9
1046.4347	3179.3428	1057.25	180.7
1046.5387	3180.2924	1063.35	187.15
1046.6427	3181.2415	1066	188.5
1046.7466	3182.1899	1064.1	184.4
1046.8504	3183.1377	1057.65	183.25
1046.9542	3184.0848	1059.05	178
1047.058	3185.0314	1054.9	176.5
1047.1617	3185.9773	1057.7	179.75
1047.2654	3186.9227	1056.1	178.85
1047.369	3187.8674	1052.65	177.2
1047.4726	3188.8115	1054.4	172.45
1047.5761	3189.755	1052.2	177
1047.6796	3190.6979	1053.65	178.35
1047.783	3191.6402	1051	174.1
1047.8864	3192.5818	1053.65	176.45
1047.9898	3193.5229	1055.05	170.45
1048.0931	3194.4633	1047.75	169.3
1048.1963	3195.4031	1046.25	168.1
1048.2995	3196.3423	1046.65	168.95
1048.4027	3197.2809	1042.6	164.25
1048.5058	3198.2189	1039.85	160.8
1048.6089	3199.1563	1050.65	166.3
1048.7119	3200.0931	1037.95	160.9
1048.8148	3201.0292	1042.9	166.7
1048.9178	3201.9648	1037.15	160.85
1049.0206	3202.8997	1041.4	160.45
1049.1235	3203.834	1040.6	164.4
1049.2262	3204.7677	1034.35	158.65
1049.329	3205.7008	1041.45	164.85
1049.4317	3206.6333	1033.35	158.05
1049.5343	3207.5652	1039.8	160.35
1049.6369	3208.4964	1036.65	159.25
1049.7394	3209.4271	1030.85	154.85
1049.8419	3210.3571	1029.1	152.9
1049.9444	3211.2865	1029.55	152.75
1050.0468	3212.2154	1035.75	158.55
1050.1491	3213.1436	1035.1	157
1050.2514	3214.0712	1037.65	153.9
1050.3537	3214.9982	1029.1	152.95
1050.4559	3215.9246	1030.1	152.05
1050.5581	3216.8503	1022.15	145.55
1050.6602	3217.7755	1029.2	151.3
1050.7623	3218.7001	1026.75	148.25
1050.8643	3219.624	1023.75	145.45
1050.9663	3220.5473	1023.35	145.65
1051.0682	3221.4701	1026.15	149.25
1051.1701	3222.3922	1024.2	146.4
1051.2719	3223.3137	1019.8	143
1051.3737	3224.2346	1026.15	149
1051.4754	3225.1549	1020.15	142.65
1051.5771	3226.0746	1018.5	141.25
1051.6788	3226.9937	1015.65	138.6
1051.7804	3227.9121	1017.4	140.1
1051.8819	3228.83	1013.35	135.95
1051.9834	3229.7473	1012.8	136.3
1052.0849	3230.6639	1020.1	144.75
1052.1863	3231.5799	1016.5	140.35
1052.2876	3232.4954	1014.4	137.15
1052.3889	3233.4102	1011.2	135.45
1052.4902	3234.3244	1008.95	131.8
1052.5914	3235.238	1011.8	136
1052.6926	3236.151	1033.5	130.5
1052.7937	3237.0634	1010.05	133.55
1052.8948	3237.9752	1007.05	127.6
1052.9958	3238.8864	1006.75	129.75
1053.0968	3239.797	1001.85	125.15
1053.1977	3240.7069	1009.6	132.85
1053.2986	3241.6163	1006.9	127.1
1053.3994	3242.5251	1005.15	129.7
1053.5002	3243.4332	1005.65	128.85
1053.6009	3244.3408	1007.1	129
1053.7016	3245.2477	1001.75	126.6
1053.8022	3246.154	1002.1	124.25
1053.9028	3247.0598	1003.25	126.15
1054.0034	3247.9649	998.65	121.45
1054.1039	3248.8694	997.1	118.95
1054.2043	3249.7733	997.15	120.8
1054.3047	3250.6766	996.45	118
1054.4051	3251.5793	1000.05	120.35
1054.5054	3252.4814	996.1	120.05
1054.6056	3253.3829	997.85	121.45
1054.7058	3254.2838	997.45	120.7
1054.806	3255.1841	992.65	116.95
1054.9061	3256.0838	993.1	115.15
1055.0061	3256.9829	990.8	114
1055.1062	3257.8814	993.45	114.7
1055.2061	3258.7792	997.2	118.15
1055.306	3259.6765	989.6	111.6
1055.4059	3260.5731	986.6	110.6
1055.5057	3261.4692	988.55	109.25
1055.6055	3262.3647	985.65	108.15
1055.7052	3263.2595	985.75	108.4
1055.8049	3264.1538	983.5	109.1
1055.9045	3265.0474	979.55	103.4
1056.0041	3265.9404	978.05	101.25
1056.1036	3266.8329	977.1	102.15
1056.2031	3267.7247	984.05	95.75
1056.3025	3268.616	970.5	96.35
1056.4019	3269.5066	966.9	88.8
1056.5013	3270.3966	968.35	88
1056.6005	3271.286	963.75	86.85
