Software Version:	3.9.2.0
Unit SN:	10000200
Spectrometer SN:	6960
Date:	3/6/2024 9:55:07 AM
Data Line Index:	25
Spectral Points:	2048
Integration time (ms):	125
Averages:	20
Delay (ms):	30
Sequence Number:	1
Processing:	dark subtract
Laser Power (mW):	305
Laser Current (mA):	826
Laser Diode Temp (C):	25.1
Laser Case Temp (C):	24.5
System Temp (C):	24.3
Spectrometer Temp (C):	21.9
CCD Temp (C):	0
Secondary Temp (C):	20.008
Heatsink Temp (C):	18.221
CCDPCB Temp (C):	30.871
SecondaryPCB Temp (C):	26.103

Wavelength	RamanShift	Raw Counts	Dark Subtracted
787.061	30.1047	598.4	190.35
787.2016	32.3739	608.3	201.95
787.3422	34.6426	619.6	212.8
787.4828	36.9109	636.15	227.85
787.6235	39.1787	655.85	243.95
787.7642	41.4461	675.6	258.1
787.9049	43.7131	690.1	269.2
788.0456	45.9796	711.6	290.15
788.1863	48.2456	732.65	307.25
788.3271	50.5112	754.25	323.3
788.4679	52.7764	766.6	334.2
788.6087	55.0411	794.45	355.95
788.7496	57.3054	824.9	381.55
788.8904	59.5692	857.5	412
789.0313	61.8326	871.85	424.85
789.1722	64.0955	904.15	454.6
789.3132	66.3579	947.15	489.9
789.4541	68.6199	992.65	535.35
789.5951	70.8815	1081.9	618.25
789.7361	73.1426	1266.85	799.75
789.8771	75.4032	1717.3	1245.7
790.0181	77.6634	2874.3	2398.4
790.1592	79.9231	5742.15	5262.85
790.3003	82.1824	12025.3	11538.3
790.4414	84.4412	25126.2	24624.1
790.5825	86.6995	42951.4	42436.05
790.7237	88.9574	51559.1	51030.1
790.8648	91.2148	55310.3	54772.55
791.006	93.4717	56533.25	55989.05
791.1472	95.7282	57086.05	56539.25
791.2885	97.9842	57302.05	56752.85
791.4297	100.2398	57365.35	56813.2
791.571	102.4949	57317	56759.55
791.7123	104.7495	57426.65	56868
791.8536	107.0036	57315.6	56754.05
791.9949	109.2573	57509.95	56949.95
792.1363	111.5105	57351.3	56790.05
792.2777	113.7632	57436.95	56874.45
792.4191	116.0154	57487.4	56911.9
792.5605	118.2672	57627.1	57054.8
792.7019	120.5185	57643.2	57071.55
792.8434	122.7693	57668.95	57093.85
792.9849	125.0197	57543.55	56965.05
793.1264	127.2696	57856.05	57273.9
793.2679	129.519	57873.25	57289
793.4094	131.7679	58024.15	57434.8
793.551	134.0163	57681.95	57091.2
793.6926	136.2642	57856.6	57264.55
793.8342	138.5117	58068.65	57467.6
793.9758	140.7587	57994.1	57395.2
794.1175	143.0052	58035.85	57434.4
794.2591	145.2512	57865.15	57261.95
794.4008	147.4967	58085.65	57480.45
794.5425	149.7417	58021.3	57413.7
794.6842	151.9863	58029.7	57416.1
794.826	154.2304	57898.3	57284.65
794.9677	156.4739	58033.95	57413.15
795.1095	158.717	58130.65	57510.7
795.2513	160.9596	58043.85	57423.4
795.3931	163.2017	57880.6	57254.4
795.535	165.4433	58108.25	57481.6
795.6768	167.6844	57986.7	57352.95
795.8187	169.925	58099.05	57466.95
795.9606	172.1651	58008.7	57371.35
796.1025	174.4047	58059.85	57416.9
796.2445	176.6439	58055.15	57412.6
796.3864	178.8825	58037.55	57394.15
796.5284	181.1206	58190.85	57542.65
796.6704	183.3582	58199.8	57547
796.8124	185.5954	58095.2	57439.7
796.9544	187.832	58168.8	57510.9
797.0965	190.0681	58090.85	57427.75
797.2386	192.3037	58296.15	57630.25
797.3806	194.5388	58495.7	57826.9
797.5228	196.7734	58007.85	57339.45
797.6649	199.0075	58461.4	57788
797.807	201.2411	58377.4	57705.85
797.9492	203.4742	58576.4	57902.45
798.0914	205.7068	58564	57883.95
798.2336	207.9389	58558.2	57876.2
798.3758	210.1704	58560.55	57885.2
798.518	212.4015	58727.1	58060.65
798.6603	214.632	58519.15	57860
798.8025	216.862	58760.4	58103.65
798.9448	219.0915	58735.1	58075.45
799.0871	221.3205	58668	58007.75
799.2294	223.549	58814	58156.7
799.3718	225.777	58806.25	58148.55
799.5141	228.0044	58869.7	58203.3
799.6565	230.2314	58851.75	58185.4
799.7989	232.4578	58867.55	58195.65
799.9413	234.6837	58897.6	58220.05
800.0837	236.909	59174.05	58491.85
800.2262	239.1339	58797.25	58091
800.3687	241.3582	58975.9	58287.55
800.5111	243.582	59002.8	58277.8
800.6536	245.8053	59014.65	58308.95
800.7961	248.0281	59020.5	58315.95
800.9387	250.2503	59070.45	58361.65
801.0812	252.472	58971.45	58261.55
801.2238	254.6932	59043.65	58335.7
801.3664	256.9139	58995.9	58284.4
801.509	259.134	59267.1	58551.95
801.6516	261.3536	58963.8	58249.7
801.7942	263.5727	59204.8	58491.55
801.9369	265.7912	59077.45	58365.15
802.0795	268.0092	59120.75	58406.05
802.2222	270.2267	59142.4	58423.8
802.3649	272.4436	59029.3	58310.75
802.5076	274.6601	59152.35	58425.6
802.6504	276.8759	59203.45	58478.55
802.7931	279.0913	59167.05	58443.2
802.9359	281.3061	59163.3	58434.3
803.0787	283.5204	59211.1	58481.8
803.2215	285.7341	59191	58461.8
803.3643	287.9473	59341.15	58599.9
803.5071	290.16	59216.35	58481.75
803.6499	292.3721	59317.8	58588.4
803.7928	294.5837	59164.5	58433.4
803.9357	296.7947	59116.15	58387.35
804.0786	299.0052	59296.65	58564.45
804.2215	301.2152	59220.55	58484.6
804.3644	303.4246	59365.95	58632.05
804.5074	305.6334	59322.4	58587.95
804.6503	307.8418	59173.05	58435
804.7933	310.0495	59214.65	58474.2
804.9363	312.2568	59161.95	58421.85
805.0793	314.4635	59133.8	58391.3
805.2223	316.6696	59189.65	58445.95
805.3653	318.8752	59287.15	58533.5
805.5084	321.0802	58994.05	58248.35
805.6514	323.2847	59085.9	58337.35
805.7945	325.4887	59101.85	58352.9
805.9376	327.692	59037.35	58287.8
806.0807	329.8949	59154.6	58403.9
806.2238	332.0972	59071.85	58316.25
806.367	334.2989	59124.7	58368.4
806.5101	336.5001	59203.55	58446.2
806.6533	338.7007	58991.5	58236.55
806.7965	340.9008	59108.55	58351.2
806.9397	343.1003	59114.25	58353.4
807.0829	345.2992	59201.1	58440.2
807.2261	347.4976	59086.05	58323.9
807.3693	349.6955	59150.55	58379.2
807.5126	351.8927	59091.1	58323.25
807.6559	354.0895	59163.15	58383.85
807.7991	356.2856	59148.3	58378.85
807.9424	358.4812	59228.4	58457.1
808.0857	360.6763	59108.55	58337
808.2291	362.8707	59189.1	58414.05
808.3724	365.0646	59121.5	58340.55
808.5158	367.258	59114.3	58337.55
808.6591	369.4508	59035.45	58256.2
808.8025	371.643	59139.9	58359.2
808.9459	373.8346	59073.55	58286.8
809.0893	376.0257	59077.75	58291.05
809.2327	378.2162	59022.25	58237.6
809.3762	380.4062	58969	58183.1
809.5196	382.5956	59019.2	58236.25
809.6631	384.7844	59040.05	58264.1
809.8066	386.9726	59030.6	58250.05
809.9501	389.1603	59042.7	58265.95
810.0936	391.3474	58905.45	58094.8
810.2371	393.5339	59044.55	58261.85
810.3806	395.7199	58852.35	58074.3
810.5241	397.9052	58876.65	58097.25
810.6677	400.09	58920.5	58141.15
810.8113	402.2743	58968.1	58188.7
810.9548	404.4579	58890.8	58110.15
811.0984	406.641	58878.05	58094.25
811.2421	408.8235	58943.75	58159.75
811.3857	411.0054	58925	58134.65
811.5293	413.1868	58973.75	58182.2
811.673	415.3675	58966.8	58170.7
811.8166	417.5477	58959.5	58162.35
811.9603	419.7273	58944.55	58147.95
812.104	421.9064	58878.45	58073.1
812.2477	424.0848	58889.7	58092.3
812.3914	426.2627	58952.7	58151.85
812.5351	428.4399	58818.55	58017.55
812.6788	430.6166	58720.05	57913.75
812.8226	432.7928	58789.2	57980.9
812.9663	434.9683	58641.85	57837.05
813.1101	437.1432	58682.8	57875.6
813.2539	439.3176	58731.35	57928.6
813.3977	441.4914	58550.25	57749.8
813.5415	443.6645	58563.6	57758.35
813.6853	445.8371	58578.2	57771.4
813.8291	448.0091	58452.25	57645.45
813.973	450.1806	58418.5	57613.55
814.1168	452.3514	58386.15	57578.05
814.2607	454.5216	58353.65	57538.8
814.4046	456.6913	58383.25	57572
814.5485	458.8603	58395.75	57584.45
814.6924	461.0288	58299.2	57492.7
814.8363	463.1967	58357.85	57550.1
814.9802	465.3639	58373.1	57563.15
815.1241	467.5306	58215.75	57403.95
815.2681	469.6967	58270.05	57458.55
815.412	471.8622	58255.4	57447.95
815.556	474.0271	58215.15	57405.7
815.7	476.1914	58240.8	57426.3
815.844	478.3551	58227.65	57414.65
815.988	480.5182	58287.1	57471.3
816.132	482.6807	58206.65	57394.5
816.276	484.8426	58272.05	57464.75
816.4201	487.0039	58351.05	57538.75
816.5641	489.1647	58337.3	57523.2
816.7082	491.3248	58269.95	57452.15
816.8522	493.4843	58366.25	57549.85
816.9963	495.6432	58321.8	57506.15
817.1404	497.8015	58186.5	57364.95
817.2845	499.9592	58318.5	57497.45
817.4286	502.1163	58279.85	57459.6
817.5727	504.2728	58234.75	57413.5
817.7168	506.4287	58268.95	57452.75
817.861	508.5839	58140.65	57323.1
818.0051	510.7386	58199.6	57378.85
818.1493	512.8927	58198.5	57372.45
818.2935	515.0461	58175.75	57350.6
818.4377	517.199	58236.4	57410.4
818.5818	519.3512	58198	57371.5
818.726	521.5029	58173.85	57340.3
818.8703	523.6539	58194.7	57367.1
819.0145	525.8043	58086.45	57261.4
819.1587	527.9541	58135.95	57308.05
819.303	530.1033	58120.7	57293.55
819.4472	532.2519	58088.25	57257.85
819.5915	534.3999	58128.8	57297.2
819.7357	536.5472	58158.15	57326.5
819.88	538.694	58047.3	57218.1
820.0243	540.8401	58139.8	57310.8
820.1686	542.9856	58119.5	57284.7
820.3129	545.1305	58099.55	57261.95
820.4572	547.2748	58114.35	57276.1
820.6016	549.4185	58096.05	57255.5
820.7459	551.5615	58123.1	57282.55
820.8902	553.704	58055.25	57218.7
821.0346	555.8458	57994.3	57155.5
821.1789	557.987	58023.8	57187.8
821.3233	560.1276	58034.35	57195.55
821.4677	562.2675	58013.45	57176.85
821.6121	564.4069	58000.75	57163.95
821.7565	566.5456	58051.8	57215
821.9009	568.6837	57986.1	57148.25
822.0453	570.8212	57976.8	57140.9
822.1897	572.958	57841.95	57002.9
822.3342	575.0942	57897.3	57061.95
822.4786	577.2299	57792.1	56956.25
822.6231	579.3648	57774.5	56942.05
822.7675	581.4992	57680.6	56849.6
822.912	583.6329	57677.25	56845.75
823.0565	585.766	57638.65	56808.5
823.201	587.8985	57614.2	56779.75
823.3454	590.0304	57492.35	56641.1
823.4899	592.1616	57559.5	56715.1
823.6345	594.2922	57472.35	56626.3
823.779	596.4222	57390.05	56544.6
823.9235	598.5515	57401.05	56554.7
824.068	600.6802	57421.4	56577.1
824.2126	602.8083	57280.6	56436.55
824.3571	604.9358	57287.4	56440.2
824.5017	607.0626	57315.15	56465.9
824.6462	609.1888	57175.85	56323.85
824.7908	611.3144	57252.3	56403.4
824.9354	613.4393	57194.55	56341.7
825.08	615.5636	57131.4	56278.9
825.2246	617.6873	57210.3	56362.85
825.3692	619.8103	57145.2	56295.25
825.5138	621.9327	57157.05	56304.25
825.6584	624.0544	57181.5	56333
825.803	626.1756	57122.3	56272.65
825.9477	628.2961	57131.9	56279.85
826.0923	630.4159	57010.5	56158.7
826.237	632.5351	56991.15	56140.75
826.3816	634.6537	57114.5	56258.8
826.5263	636.7716	56942.75	56086
826.6709	638.8889	57006.8	56149.25
826.8156	641.0056	57015.5	56156.25
826.9603	643.1216	57004.75	56147.7
827.105	645.237	57023.65	56165.2
827.2497	647.3518	56941.15	56089.3
827.3944	649.4659	56973.05	56120.1
827.5391	651.5793	56949.25	56097.8
827.6838	653.6922	56952.25	56096.55
827.8285	655.8043	56837.45	55984.3
827.9733	657.9159	56973.7	56117.9
828.118	660.0268	56728.4	55872.8
828.2627	662.137	56798.5	55939.6
828.4075	664.2466	56824.3	55961.25
828.5522	666.3556	56778.4	55919.9
828.697	668.4639	56780.05	55918.9
828.8418	670.5716	56746.95	55894.05
828.9865	672.6786	56749.55	55889.6
829.1313	674.785	56668.9	55805.05
829.2761	676.8907	56623.65	55763
829.4209	678.9958	56659.9	55802.95
829.5657	681.1002	56632.45	55773.3
829.7105	683.204	56516.8	55650.15
829.8553	685.3072	56505.75	55641.45
830.0001	687.4097	56500.95	55638.2
830.1449	689.5115	56487.5	55619.9
830.2898	691.6127	56490.25	55628.1
830.4346	693.7132	56461.7	55601.35
830.5794	695.8131	56490.8	55608.4
830.7243	697.9123	56498	55632.55
830.8691	700.0109	56470.35	55602.3
831.014	702.1089	56388.6	55523.7
831.1588	704.2061	56375.45	55507.3
831.3037	706.3028	56354.55	55486.4
831.4486	708.3987	56354.15	55488.15
831.5935	710.4941	56322.25	55457.25
831.7383	712.5887	56352.4	55487.15
831.8832	714.6827	56318.1	55448.25
832.0281	716.7761	56346.25	55481.45
832.173	718.8688	56334.95	55466.1
832.3179	720.9608	56267.3	55395.55
832.4628	723.0522	56281.9	55408.8
832.6077	725.1429	56211.35	55339.9
832.7527	727.233	56330.45	55460.5
832.8976	729.3224	56177.4	55308.8
833.0425	731.4112	56213.5	55344.2
833.1874	733.4993	56154.1	55282.7
833.3324	735.5867	56114.25	55244.7
833.4773	737.6735	56076.15	55204.8
833.6222	739.7596	56015.55	55143.1
833.7672	741.845	55997.5	55124.5
833.9122	743.9298	55997.4	55123.25
834.0571	746.014	55915.9	55046.85
834.2021	748.0974	55873.25	54997.55
834.347	750.1802	55911.75	55035.7
834.492	752.2624	55750.45	54877.05
834.637	754.3439	55736.4	54860.2
834.782	756.4247	55747.4	54863
834.9269	758.5048	55655.1	54781.7
835.0719	760.5843	55666.6	54791.1
835.2169	762.6631	55623.65	54747.55
835.3619	764.7413	55623.25	54747.6
835.5069	766.8188	55630.45	54754.4
835.6519	768.8956	55602.55	54728.2
835.7969	770.9718	55616	54740.85
835.9419	773.0473	55498.25	54620.85
836.0869	775.1221	55491.65	54617.2
836.232	777.1962	55431.45	54552.6
836.377	779.2697	55339.15	54463
836.522	781.3426	55353.95	54454.9
836.667	783.4147	55358.55	54479.7
836.8121	785.4862	55327.75	54448.9
836.9571	787.557	55261.7	54383.9
837.1021	789.6271	55279.1	54401.1
837.2472	791.6966	55204.35	54328.2
837.3922	793.7654	55072.85	54192.35
837.5373	795.8335	55102.5	54223.4
837.6823	797.901	55068.5	54190.9
837.8274	799.9678	55015.45	54133.45
837.9724	802.0339	54995.6	54115
838.1175	804.0993	54965.35	54075.75
838.2626	806.1641	54925.9	54044.1
838.4076	808.2282	54845.7	53967.2
838.5527	810.2916	54805.3	53921.2
838.6978	812.3544	54860.7	53980.7
838.8428	814.4164	54748.1	53866.4
838.9879	816.4778	54776.95	53895.4
839.133	818.5385	54736.55	53855.05
839.2781	820.5986	54706.05	53824.45
839.4232	822.658	54725.7	53842.4
839.5682	824.7166	54667.45	53783.6
839.7133	826.7747	54628.05	53746.05
839.8584	828.832	54667.25	53782.55
840.0035	830.8886	54672.05	53784.95
840.1486	832.9446	54659.65	53773.9
840.2937	834.9999	54450.7	53567.05
840.4388	837.0545	54521.9	53633.7
840.5839	839.1085	54528.6	53642.95
840.729	841.1618	54493.25	53604.5
840.8741	843.2143	54311.4	53428.25
841.0192	845.2662	54263.85	53379.2
841.1643	847.3175	54350.75	53467.65
841.3095	849.368	54077.75	53192.8
841.4546	851.4179	54229.05	53345.9
841.5997	853.467	54085.4	53201.9
841.7448	855.5155	54153.15	53268.3
841.8899	857.5633	54016.1	53130.3
842.0351	859.6105	53944.25	53057.8
842.1802	861.6569	53979.05	53095.1
842.3253	863.7027	53827.6	52945.05
842.4704	865.7478	53888.05	53001
842.6156	867.7922	53833.2	52946.35
842.7607	869.8359	53879.3	52991.2
842.9058	871.8789	53676.4	52787.6
843.0509	873.9212	53754	52833.65
843.1961	875.9629	53715.5	52830
843.3412	878.0039	53688.95	52801
843.4863	880.0441	53611.35	52724.55
843.6315	882.0837	53636.7	52750.9
843.7766	884.1226	53643.5	52757.7
843.9218	886.1609	53646.35	52760.9
844.0669	888.1984	53608.25	52722.65
844.212	890.2352	53714.75	52829.1
844.3572	892.2714	53556.45	52666.05
844.5023	894.3069	53596.3	52707.7
844.6475	896.3416	53475.95	52587.65
844.7926	898.3757	53420.8	52532.25
844.9377	900.4091	53228.1	52339.5
845.0829	902.4418	53443.55	52551.55
845.228	904.4739	53266.2	52375.75
845.3732	906.5052	53270.7	52382
845.5183	908.5358	53194.1	52303.35
845.6635	910.5658	53120.15	52228.2
845.8086	912.595	53134.2	52240.25
845.9538	914.6236	52910.35	52023.85
846.0989	916.6515	53152.05	52259.95
846.2441	918.6786	52812.2	51919.75
846.3892	920.7051	52879.55	51986.25
846.5344	922.7309	52838.95	51947.65
846.6795	924.756	52865.95	51977.2
846.8246	926.7804	52753.4	51861.2
846.9698	928.8041	52514	51620.7
847.1149	930.8272	52643.5	51753.6
847.2601	932.8495	52590	51697.2
847.4052	934.8711	52461.25	51566.55
847.5504	936.892	52312.3	51419.4
847.6955	938.9123	52385	51489.4
847.8407	940.9318	52296.75	51405.45
847.9858	942.9506	52246.75	51353.8
848.131	944.9688	52229.75	51337.3
848.2761	946.9862	52005.4	51113.75
848.4213	949.003	52020.9	51131.2
848.5664	951.019	51853.5	50962.8
848.7115	953.0344	51837.9	50944.8
848.8567	955.0491	51785.6	50893.4
849.0018	957.063	51785.8	50892.35
849.147	959.0763	51861.05	50970.85
849.2921	961.0888	51682.25	50788.55
849.4373	963.1007	51784.55	50890.05
849.5824	965.1119	51727.4	50837.6
849.7275	967.1223	51634.1	50745
849.8727	969.1321	51714.6	50828.05
850.0178	971.1412	51562.25	50671.85
850.1629	973.1495	51442.15	50552.15
850.3081	975.1572	51498.1	50574.55
850.4532	977.1641	51458.9	50563.4
850.5983	979.1704	51381.1	50485.4
850.7435	981.1759	51330.7	50433.7
850.8886	983.1808	51237.65	50341.75
851.0337	985.1849	51193.3	50290.85
851.1788	987.1884	51189.95	50294.45
851.324	989.1911	51242.4	50347.7
851.4691	991.1932	50913.25	50019
851.6142	993.1945	50926.65	50036.9
851.7593	995.1951	50944.6	50050.8
851.9045	997.1951	50754	49853.2
852.0496	999.1943	50654.45	49759.65
852.1947	1001.1928	50562	49669.95
852.3398	1003.1906	50555.05	49661
852.4849	1005.1877	50288.35	49389.85
852.63	1007.1841	50200.3	49304.85
852.7751	1009.1798	50202.2	49305.15
852.9202	1011.1748	50154.5	49262.85
853.0653	1013.1691	50118.55	49223.95
853.2104	1015.1627	49489.55	48594.6
853.3555	1017.1556	49659.8	48767.85
853.5006	1019.1477	49769.7	48877.9
853.6457	1021.1392	49451.15	48560.55
853.7908	1023.1299	49001.15	48109.8
853.9359	1025.12	49249.6	48361
854.081	1027.1093	49003.55	48120.65
854.2261	1029.0979	48942.6	48060.3
854.3712	1031.0859	48840.3	47955.1
854.5163	1033.0731	48531.45	47643.75
854.6613	1035.0596	48680.05	47788.8
854.8064	1037.0454	48519.75	47627.05
854.9515	1039.0304	48388.85	47493.9
855.0965	1041.0148	47889.95	46995.65
855.2416	1042.9985	47973.05	47076
855.3867	1044.9814	48237.15	47344.2
855.5317	1046.9636	47703.05	46806.15
855.6768	1048.9452	47829.35	46935.7
855.8219	1050.926	47639.35	46746.45
855.9669	1052.9061	47673.65	46778.8
856.112	1054.8855	47637.1	46741.95
856.257	1056.8642	47437.4	46541.85
856.4021	1058.8421	47264.15	46364.55
856.5471	1060.8194	47232.35	46335.3
856.6921	1062.7959	47007.75	46111.2
856.8372	1064.7717	47237.45	46340.9
856.9822	1066.7469	47097.4	46201.25
857.1272	1068.7213	47074.3	46176.35
857.2723	1070.695	46898.6	46003.85
857.4173	1072.6679	46636	45739.75
857.5623	1074.6402	46819.1	45921.2
857.7073	1076.6117	46571	45670.95
857.8523	1078.5826	46556.5	45659.4
857.9973	1080.5527	46577.65	45676.85
858.1423	1082.5221	46271.65	45377
858.2873	1084.4908	46320	45424.95
858.4323	1086.4587	46123.05	45226.25
858.5773	1088.426	46117.75	45222.65
858.7223	1090.3925	46032.7	45131.35
858.8673	1092.3584	45907.1	45011.1
859.0123	1094.3235	45644.1	44748.7
859.1573	1096.2879	45622.35	44726.35
859.3022	1098.2515	45726	44831.4
859.4472	1100.2145	45579.45	44684.25
859.5922	1102.1767	45497.7	44596.95
859.7371	1104.1382	45588.45	44692.95
859.8821	1106.099	45350.65	44451.65
860.027	1108.0591	45276.45	44377.9
860.172	1110.0185	44883.8	43984.65
860.3169	1111.9771	45247.85	44353
860.4619	1113.9351	45019.35	44121.75
860.6068	1115.8923	44858.85	43962.75
860.7517	1117.8488	44633.05	43736.5
860.8967	1119.8045	44399.75	43501.65
861.0416	1121.7596	44517.8	43621.4
861.1865	1123.7139	44250.85	43355.4
861.3314	1125.6675	44205.8	43308.65
861.4763	1127.6204	44142.75	43247.75
861.6212	1129.5726	43852.3	42954.75
861.7661	1131.524	44064.1	43166.55
861.911	1133.4748	44009	43112.6
862.0559	1135.4248	43695.6	42799.35
862.2008	1137.3741	43619.25	42723.45
862.3457	1139.3226	43558.15	42658.7
862.4905	1141.2705	43537.55	42641.6
862.6354	1143.2176	43379.45	42476.1
862.7803	1145.164	43070.45	42173.65
862.9251	1147.1097	43206.7	42307.6
863.07	1149.0546	43114.45	42213.2
863.2148	1150.9989	43134.4	42239.8
863.3597	1152.9424	42866.85	41968.2
863.5045	1154.8852	42927.3	42027.6
863.6493	1156.8272	42736.4	41839.55
863.7942	1158.7686	43009.7	42104.45
863.939	1160.7092	42546	41647.6
864.0838	1162.6491	42514.6	41613.5
864.2286	1164.5883	42568.2	41671.05
864.3734	1166.5267	42372.2	41474.3
864.5182	1168.4644	42528.8	41630.85
864.663	1170.4014	42390.75	41489.2
864.8078	1172.3377	42466.2	41570.25
864.9526	1174.2732	42569.7	41673.55
865.0974	1176.2081	42440.45	41543.75
865.2421	1178.1421	42339.7	41439.95
865.3869	1180.0755	42549.95	41654.15
865.5317	1182.0082	42378.55	41482.3
865.6764	1183.9401	42364.25	41467.6
865.8212	1185.8713	42073.8	41179.3
865.9659	1187.8017	42014.65	41120.55
866.1106	1189.7315	42000.5	41110.15
866.2554	1191.6605	41719.75	40829.2
866.4001	1193.5888	41490.15	40599.55
866.5448	1195.5163	41255.55	40362.4
866.6895	1197.4432	41198.6	40299.5
866.8342	1199.3693	41148.95	40255.6
866.9789	1201.2947	40951.1	40048.95
867.1236	1203.2193	40899.1	40005.25
867.2683	1205.1432	40704.95	39808.5
867.413	1207.0664	40638.8	39740.75
867.5576	1208.9889	40582.6	39683.75
867.7023	1210.9106	40428.2	39531.3
867.847	1212.8316	40239.4	39344
867.9916	1214.7519	40204.15	39298.8
868.1363	1216.6715	40060.4	39162.8
868.2809	1218.5903	40053.5	39157.75
868.4255	1220.5084	39971.75	39075.3
868.5701	1222.4257	39969.15	39072.45
868.7148	1224.3424	39725.75	38830.1
868.8594	1226.2583	39624.75	38726.4
869.004	1228.1735	39674.6	38776.55
869.1486	1230.0879	39428.7	38528.9
869.2932	1232.0016	39491	38593.5
869.4377	1233.9146	39316.8	38416.3
869.5823	1235.8269	39254.45	38357.3
869.7269	1237.7384	39186.5	38290.5
869.8715	1239.6492	39007.25	38111.7
870.016	1241.5592	38912.05	38014.1
870.1606	1243.4686	38864.25	37967.4
870.3051	1245.3772	38793.05	37895.4
870.4496	1247.285	38827.35	37927.05
870.5941	1249.1922	38649.25	37750.65
870.7387	1251.0986	38754.35	37859.45
870.8832	1253.0042	38510	37612.35
871.0277	1254.9092	38642.4	37746.65
871.1722	1256.8134	38355.5	37458.15
871.3167	1258.7169	38494.1	37596.8
871.4611	1260.6196	38319.75	37424.7
871.6056	1262.5216	38374.85	37474.7
871.7501	1264.4229	38311.6	37418.15
871.8945	1266.3234	38394.95	37497.8
872.039	1268.2232	38340.55	37443.1
872.1834	1270.1223	38098.4	37199.9
872.3278	1272.0207	38089	37192
872.4723	1273.9183	38059.7	37156.2
872.6167	1275.8151	37918.3	37020.3
872.7611	1277.7113	37874.3	36976
872.9055	1279.6067	37768.15	36870.5
873.0499	1281.5014	37715.75	36818.05
873.1943	1283.3953	37845.5	36945.25
873.3386	1285.2885	37896.35	36998.85
873.483	1287.181	37916.7	37019.25
873.6274	1289.0727	38041.75	37144.95
873.7717	1290.9637	37941.45	37044.7
873.9161	1292.854	38082.7	37186.85
874.0604	1294.7435	37927.75	37029.5
874.2047	1296.6323	37848.4	36951.3
874.349	1298.5204	37723.65	36823.85
874.4933	1300.4077	37710.15	36812.15
874.6376	1302.2943	37529.7	36632.25
874.7819	1304.1802	37426.6	36530.65
874.9262	1306.0653	37220.35	36321.8
875.0705	1307.9497	37060.55	36163.25
875.2147	1309.8333	37020.15	36121.5
875.359	1311.7162	36867.5	35973.5
875.5032	1313.5984	36818.15	35916.75
875.6475	1315.4798	36653.2	35754.25
875.7917	1317.3605	36574.65	35660.25
875.9359	1319.2405	36555.05	35656.15
876.0801	1321.1197	36353.5	35456.85
876.2243	1322.9982	36276.35	35374.75
876.3685	1324.876	36243.9	35349.15
876.5127	1326.753	36062.45	35167.5
876.6569	1328.6293	36034.5	35135
876.801	1330.5048	35954.35	35055.7
876.9452	1332.3796	35793.4	34894.9
877.0893	1334.2537	35707.9	34786.7
877.2335	1336.127	35664.55	34767.5
877.3776	1337.9996	35562.35	34664.7
877.5217	1339.8714	35531.9	34634.65
877.6658	1341.7426	35425.2	34484.8
877.8099	1343.6129	35334.2	34434.95
877.954	1345.4826	35248.15	34352.15
878.0981	1347.3515	35241.2	34342.7
878.2422	1349.2196	35167.7	34271.9
878.3862	1351.087	35160.1	34261.65
878.5303	1352.9537	35092.8	34195
878.6743	1354.8197	35080.2	34182.65
878.8184	1356.6849	35144.05	34242.45
878.9624	1358.5493	35035.65	34137.85
879.1064	1360.4131	34977.55	34080.55
879.2504	1362.276	34947.25	34050.05
879.3944	1364.1383	34898.2	34001.55
879.5384	1365.9998	34754.7	33851.7
879.6823	1367.8606	34634.4	33737.3
879.8263	1369.7206	34492.55	33593.75
879.9702	1371.5799	34392.15	33492.25
880.1142	1373.4384	34217.95	33318.35
880.2581	1375.2962	34185	33285.05
880.402	1377.1533	33896.45	33002
880.5459	1379.0096	33717.65	32819.2
880.6898	1380.8652	33579.9	32683.7
880.8337	1382.7201	33479.45	32583.25
880.9776	1384.5742	33201.3	32303.65
881.1215	1386.4275	33050.95	32149.4
881.2653	1388.2802	32900.1	32003.55
881.4092	1390.132	32827.1	31933.8
881.553	1391.9832	32757.9	31860.15
881.6968	1393.8336	32531.35	31633.45
881.8406	1395.6832	32494.85	31594.15
881.9844	1397.5322	32350.7	31455.5
882.1282	1399.3803	32256.55	31354.1
882.272	1401.2278	32113.1	31213.9
882.4158	1403.0745	32036.85	31138.6
882.5595	1404.9204	31878.55	30983.6
882.7033	1406.7656	31833.7	30935.75
882.847	1408.6101	31653.55	30756.45
882.9908	1410.4538	31627.75	30730.35
883.1345	1412.2968	31553.4	30655.2
883.2782	1414.139	31395.05	30497.55
883.4219	1415.9805	31417.9	30521.55
883.5656	1417.8213	31262.75	30356.15
883.7092	1419.6613	31196.65	30302.7
883.8529	1421.5006	31152.2	30254.75
883.9965	1423.3391	31139.25	30240.8
884.1402	1425.1769	31064.15	30168.9
884.2838	1427.0139	31114.85	30217.75
884.4274	1428.8502	31171.85	30271
884.571	1430.6858	31144.4	30245.35
884.7146	1432.5206	31093.35	30195.5
884.8582	1434.3547	31094.45	30197.45
885.0018	1436.188	31058.35	30162.5
885.1453	1438.0206	31074.7	30177.05
885.2889	1439.8524	30873	29975.65
885.4324	1441.6835	30858.4	29963.4
885.5759	1443.5139	30736.05	29834.85
885.7194	1445.3435	30670.55	29775.35
885.8629	1447.1724	30659.45	29764.05
886.0064	1449.0005	30596.2	29699.15
886.1499	1450.8279	30486.35	29589.65
886.2933	1452.6545	30515.15	29618.55
886.4368	1454.4804	30469.95	29575.1
886.5802	1456.3056	30398.75	29495.55
886.7237	1458.13	30333.95	29439.6
886.8671	1459.9536	30312.65	29414.2
887.0105	1461.7766	30192.5	29296.7
887.1539	1463.5987	30039.95	29143.05
887.2972	1465.4202	29854.8	28956.85
887.4406	1467.2409	29728.8	28832.05
887.584	1469.0608	29698.15	28802.9
887.7273	1470.88	29602.3	28706.35
887.8706	1472.6984	29475.25	28579.35
888.0139	1474.5161	29315.7	28417.25
888.1572	1476.3331	29236.45	28341.75
888.3005	1478.1493	29221.45	28325.55
888.4438	1479.9648	29159.9	28265.25
888.5871	1481.7795	29032	28134.75
888.7303	1483.5935	29038.95	28142.35
888.8736	1485.4067	28951.65	28053.85
889.0168	1487.2192	28948.65	28051.05
889.16	1489.031	28921.4	28022.95
889.3032	1490.842	28774.05	27876.9
889.4464	1492.6522	28794.7	27899
889.5896	1494.4618	28680.3	27782.75
889.7327	1496.2705	28644.35	27748.95
889.8759	1498.0785	28565	27668.15
890.019	1499.8858	28517.1	27621.95
890.1622	1501.6924	28430.15	27533.85
890.3053	1503.4981	28371.45	27478.5
890.4484	1505.3032	28313.35	27416.95
890.5914	1507.1075	28257.2	27361.35
890.7345	1508.911	28175.1	27280.15
890.8776	1510.7138	28126.7	27229.35
891.0206	1512.5159	28018.4	27121.7
891.1637	1514.3172	27971.35	27076.85
891.3067	1516.1178	27856.9	26961.85
891.4497	1517.9176	27827.4	26929.95
891.5927	1519.7166	27712.2	26817.1
891.7357	1521.515	27617.65	26716.45
891.8786	1523.3126	27548.35	26654.25
892.0216	1525.1094	27478.35	26582.7
892.1645	1526.9055	27397.15	26501.55
892.3074	1528.7008	27321.75	26426.2
892.4503	1530.4954	27147.25	26250.7
892.5932	1532.2893	27085.95	26192.25
892.7361	1534.0824	27012.1	26115.7
892.879	1535.8747	26961.85	26068.8
893.0218	1537.6663	26826.2	25932.7
893.1647	1539.4572	26775.15	25879.7
893.3075	1541.2473	26729.9	25835.5
893.4503	1543.0367	26612.65	25719.55
893.5931	1544.8253	26545.1	25648.55
893.7359	1546.6132	26504.8	25607.3
893.8787	1548.4003	26365	25462.1
894.0214	1550.1867	26328.4	25426.25
894.1642	1551.9723	26284.9	25385.7
894.3069	1553.7572	26263.65	25368.6
894.4496	1555.5414	26201.35	25308.7
894.5923	1557.3247	26153.2	25261.1
894.735	1559.1074	26132.15	25239.55
894.8777	1560.8893	26110.15	25218.85
895.0204	1562.6705	26020.2	25128.3
895.163	1564.4509	25995.4	25105.2
895.3056	1566.2305	25904.15	25014.1
895.4482	1568.0094	25974.25	25085.4
895.5908	1569.7876	25894.3	25005.1
895.7334	1571.565	25827.2	24934.55
895.876	1573.3417	25807.85	24918.35
896.0186	1575.1176	25717.45	24825.8
896.1611	1576.8928	25677.2	24786.15
896.3036	1578.6672	25549.15	24664.9
896.4461	1580.4409	25474.85	24589.25
896.5886	1582.2138	25426.8	24536.95
896.7311	1583.986	25322.55	24433.85
896.8736	1585.7575	25322.35	24434.5
897.0161	1587.5282	25247.05	24359.9
897.1585	1589.2981	25285.8	24401.15
897.3009	1591.0673	25194.75	24307.5
897.4433	1592.8358	25172.95	24287.15
897.5857	1594.6035	25129.4	24235.95
897.7281	1596.3704	25021.85	24131.55
897.8705	1598.1366	24951.4	24063.3
898.0128	1599.9021	24890.2	24003.5
898.1551	1601.6668	24799.7	23910.95
898.2975	1603.4308	24768.7	23878.35
898.4398	1605.194	24738.75	23845.7
898.5821	1606.9564	24657.75	23769.55
898.7243	1608.7182	24694.35	23805.9
898.8666	1610.4791	24728.3	23846.7
899.0088	1612.2394	24684.5	23802.55
899.1511	1613.9988	24676.05	23790.7
899.2933	1615.7576	24699	23814.5
899.4355	1617.5156	24748.05	23856.65
899.5776	1619.2728	24720.6	23831.6
899.7198	1621.0293	24606.6	23718.75
899.862	1622.785	24529.1	23640.75
900.0041	1624.54	24325.3	23436.7
900.1462	1626.2942	24217.1	23329.5
900.2883	1628.0477	23974.75	23085.85
900.4304	1629.8005	23855.35	22966.45
900.5725	1631.5525	23726	22838.8
900.7145	1633.3037	23597.75	22713.15
900.8566	1635.0542	23537.2	22652.15
900.9986	1636.804	23389.55	22504.75
901.1406	1638.553	23364	22431.2
901.2826	1640.3013	23200.9	22315.65
901.4245	1642.0488	23145.2	22259.55
901.5665	1643.7955	23092.8	22209.45
901.7085	1645.5416	23046.75	22159.5
901.8504	1647.2868	23020.8	22135.2
901.9923	1649.0313	22959.75	22075.4
902.1342	1650.7751	22917.75	22029.65
902.2761	1652.5181	22876.95	21993.4
902.4179	1654.2604	22815.35	21930.75
902.5598	1656.0019	22753.75	21869.1
902.7016	1657.7427	22766.65	21881.4
902.8434	1659.4828	22830.55	21944.55
902.9852	1661.222	22768	21881.3
903.127	1662.9606	22694.9	21809
903.2687	1664.6984	22671.45	21782.2
903.4105	1666.4354	22579.25	21691.55
903.5522	1668.1717	22380.65	21492.85
903.6939	1669.9072	22210.85	21322.8
903.8356	1671.642	22069.8	21180.15
903.9773	1673.3761	21956.1	21073.4
904.119	1675.1094	21832.95	20942.25
904.2606	1676.8419	21672.05	20785.25
904.4022	1678.5737	21571.2	20684.6
904.5439	1680.3048	21493.8	20606.25
904.6855	1682.0351	21322.7	20439.1
904.827	1683.7646	21232.9	20344.15
904.9686	1685.4934	21171.25	20286.55
905.1101	1687.2215	21114.15	20227.5
905.2517	1688.9488	21005.2	20118.55
905.3932	1690.6754	20899.05	20012.8
905.5347	1692.4012	20867.2	19981
905.6761	1694.1263	20777.7	19890.65
905.8176	1695.8506	20737.3	19851
905.9591	1697.5742	20659.2	19773.65
906.1005	1699.297	20556.65	19672.1
906.2419	1701.0191	20475.25	19589.6
906.3833	1702.7404	20430.15	19545.85
906.5246	1704.461	20297.7	19411.85
906.666	1706.1808	20238.05	19353.05
906.8073	1707.8999	20183.75	19298.65
906.9487	1709.6182	20120.55	19236.55
907.09	1711.3358	20049.95	19165.95
907.2313	1713.0527	20013.6	19130.9
907.3725	1714.7688	19973.5	19083.75
907.5138	1716.4841	19854.4	18967.95
907.655	1718.1987	19817.2	18928
907.7962	1719.9126	19755.5	18872.4
907.9374	1721.6257	19664.85	18778.15
908.0786	1723.338	19647.3	18763.05
908.2198	1725.0496	19577.15	18689.6
908.3609	1726.7605	19512.7	18628.9
908.502	1728.4706	19477.9	18592.8
908.6431	1730.18	19368.85	18483
908.7842	1731.8886	19346.3	18461.8
908.9253	1733.5964	19272.85	18383.2
909.0664	1735.3036	19221.35	18334.35
909.2074	1737.0099	19211.1	18327.65
909.3484	1738.7156	19174.9	18292.3
909.4894	1740.4204	19093.75	18207.4
909.6304	1742.1246	19060.9	18174.85
909.7714	1743.8279	18987.5	18103.5
909.9123	1745.5306	18994.9	18112.35
910.0532	1747.2325	18905.75	18023.5
910.1941	1748.9336	18865.05	17980.1
910.335	1750.634	18767.8	17882.3
910.4759	1752.3336	18740.3	17858.25
910.6168	1754.0325	18740.7	17857.75
910.7576	1755.7307	18689.95	17807.35
910.8984	1757.4281	18688.3	17803.85
911.0392	1759.1247	18616.2	17721
911.18	1760.8206	18607.9	17716.8
911.3208	1762.5158	18562.6	17675.55
911.4615	1764.2102	18507.1	17622.2
911.6022	1765.9039	18439.1	17555.05
911.7429	1767.5968	18405.45	17524.1
911.8836	1769.289	18375.6	17490.4
912.0243	1770.9804	18283.8	17397.55
912.1649	1772.6711	18294.1	17408.65
912.3056	1774.361	18264.2	17380.55
912.4462	1776.0502	18200.25	17316.55
912.5868	1777.7386	18182.6	17294.35
912.7274	1779.4263	18110.55	17226.8
912.8679	1781.1132	18089.1	17204.95
913.0084	1782.7994	18010.9	17125.9
913.149	1784.4849	18014.7	17130.8
913.2895	1786.1696	17955	17051.45
913.4299	1787.8535	17891.15	17008.45
913.5704	1789.5367	17829.5	16946.25
913.7108	1791.2192	17827	16944.2
913.8513	1792.9009	17782.85	16872.45
913.9917	1794.5818	17731.75	16847.35
914.132	1796.2621	17711.6	16829.1
914.2724	1797.9415	17604.75	16720.25
914.4128	1799.6202	17598.85	16713.3
914.5531	1801.2982	17581.45	16696.8
914.6934	1802.9755	17500.65	16614.25
914.8337	1804.6519	17500.5	16616.4
914.9739	1806.3277	17390.9	16509.6
915.1142	1808.0027	17358.05	16476.4
915.2544	1809.6769	17358.8	16477.4
915.3946	1811.3504	17262.7	16380.9
915.5348	1813.0231	17251.45	16367.4
915.675	1814.6951	17246.95	16365.15
915.8151	1816.3664	17235.5	16351.5
915.9553	1818.0369	17170.95	16286
916.0954	1819.7067	17088.8	16207.25
916.2355	1821.3757	17053.05	16168.55
916.3755	1823.044	17030.25	16148
916.5156	1824.7115	16982.95	16097.2
916.6556	1826.3783	16933.3	16050.85
916.7956	1828.0443	16882.25	15999.3
916.9356	1829.7096	16808.85	15921.8
917.0756	1831.3741	16845.7	15961.2
917.2155	1833.0379	16834.05	15952.8
917.3555	1834.701	16734.7	15849.8
917.4954	1836.3633	16727.75	15845.1
917.6353	1838.0248	16667.15	15781.9
917.7751	1839.6856	16658.4	15775.65
917.915	1841.3457	16624.1	15743.35
918.0548	1843.005	16552.85	15668.65
918.1946	1844.6636	16561.65	15679.05
918.3344	1846.3214	16508.05	15624.6
918.4742	1847.9785	16511.85	15630.7
918.6139	1849.6349	16486.8	15600.6
918.7537	1851.2904	16448	15556.45
918.8934	1852.9453	16367.75	15483.65
919.0331	1854.5994	16325.15	15438
919.1727	1856.2528	16331.4	15441.75
919.3124	1857.9054	16268.5	15382.4
919.452	1859.5572	16232	15349.15
919.5916	1861.2083	16227.05	15343.2
919.7312	1862.8587	16220.75	15335.75
919.8708	1864.5084	16175.45	15289.9
920.0103	1866.1572	16153.5	15268.5
920.1498	1867.8054	16057.55	15175.25
920.2893	1869.4528	16025.7	15139.95
920.4288	1871.0994	15995.05	15110.85
920.5683	1872.7453	15981.55	15096.15
920.7077	1874.3905	15915.35	15025.05
920.8471	1876.0349	15881.65	14998.2
920.9865	1877.6786	15870.6	14986.1
921.1259	1879.3215	15837.95	14952.6
921.2653	1880.9637	15814.2	14928.75
921.4046	1882.6051	15793.9	14908
921.5439	1884.2458	15737.5	14852.65
921.6832	1885.8858	15680.95	14797.4
921.8225	1887.525	15658.8	14774.8
921.9617	1889.1634	15582.55	14697.6
922.101	1890.8011	15530.85	14645.5
922.2402	1892.4381	15524.25	14641.35
922.3794	1894.0743	15520.8	14637.35
922.5185	1895.7098	15450.15	14567.9
922.6577	1897.3446	15398.6	14514.8
922.7968	1898.9786	15354.75	14466.95
922.9359	1900.6118	15347.5	14465.15
923.075	1902.2443	15268.5	14382.25
923.214	1903.8761	15247.9	14366.95
923.3531	1905.5071	15149.55	14263.95
923.4921	1907.1374	15096.75	14213.9
923.6311	1908.7669	15093.75	14210.9
923.77	1910.3957	15063.2	14181.75
923.909	1912.0237	14978.6	14094.8
924.0479	1913.651	14966.05	14081.2
924.1868	1915.2776	14959.55	14078.3
924.3257	1916.9034	14863.3	13982
924.4646	1918.5285	14835.05	13955.45
924.6034	1920.1528	14747.4	13863.6
924.7422	1921.7764	14732.45	13849.55
924.881	1923.3992	14672.35	13790.1
925.0198	1925.0213	14583.5	13699.8
925.1586	1926.6427	14525.35	13643.6
925.2973	1928.2633	14723	13594
925.436	1929.8832	14510.8	13621.75
925.5747	1931.5023	14402.55	13520.05
925.7134	1933.1207	14376	13492.7
925.852	1934.7383	14331.85	13447.7
925.9906	1936.3552	14303.35	13420.15
926.1292	1937.9714	14273.3	13390.6
926.2678	1939.5868	14209.5	13325.85
926.4064	1941.2015	14137.1	13252.7
926.5449	1942.8154	14104.4	13221.05
926.6834	1944.4286	14054.85	13169.85
926.8219	1946.041	14013	13105.05
926.9604	1947.6528	13933.5	13045.9
927.0988	1949.2637	13895.6	13012
927.2372	1950.8739	13878.4	12994.1
927.3756	1952.4834	13851.45	12969.6
927.514	1954.0921	13807.7	12923.15
927.6523	1955.7001	13780.15	12894.55
927.7907	1957.3074	13704.15	12820.95
927.929	1958.9139	13686	12805.25
928.0673	1960.5197	13646.65	12763.95
928.2055	1962.1247	13577.05	12695.55
928.3438	1963.729	13491.85	12611.4
928.482	1965.3325	13504.55	12596
928.6202	1966.9353	13424.4	12543.85
928.7584	1968.5374	13381.5	12497.4
928.8965	1970.1387	13367.25	12486.4
929.0346	1971.7393	13289.85	12406.25
929.1727	1973.3392	13286.05	12406.35
929.3108	1974.9383	13237.2	12355.45
929.4489	1976.5366	13157.5	12276.2
929.5869	1978.1342	13154.25	12272.25
929.7249	1979.7311	13130.55	12248.55
929.8629	1981.3273	13067.95	12185.8
930.0009	1982.9227	13035.55	12152.6
930.1388	1984.5173	12999.45	12118.4
930.2767	1986.1112	12916.4	12036.25
930.4146	1987.7044	12912.75	12034.05
930.5525	1989.2968	12900.85	12018.35
930.6904	1990.8885	12883.35	11998.1
930.8282	1992.4795	12852.05	11968.25
930.966	1994.0697	12817.15	11938
931.1038	1995.6592	12737.75	11856.25
931.2415	1997.2479	12712.1	11830.6
931.3793	1998.8359	12677.85	11797.3
931.517	2000.4232	12615.4	11737.25
931.6547	2002.0097	12599.75	11722.45
931.7923	2003.5955	12556.95	11676.6
931.93	2005.1805	12522.65	11641.45
932.0676	2006.7648	12489.3	11611.05
932.2052	2008.3484	12466	11585.2
932.3427	2009.9312	12487.65	11606.25
932.4803	2011.5133	12406.85	11527
932.6178	2013.0946	12389.9	11509.5
932.7553	2014.6752	12349.8	11471.75
932.8928	2016.2551	12330.65	11449.35
933.0302	2017.8342	12260.75	11380.9
933.1676	2019.4126	12221.15	11343.5
933.305	2020.9902	12170.65	11293.35
933.4424	2022.5672	12158.25	11277.2
933.5798	2024.1433	12112.75	11226.5
933.7171	2025.7188	12063.15	11185.05
933.8544	2027.2935	12059.4	11180
933.9917	2028.8674	12044.75	11164.7
934.129	2030.4406	11971.05	11092.1
934.2662	2032.0131	11922.25	11043.25
934.4034	2033.5849	11871.25	10989.2
934.5406	2035.1559	11881.6	11003.4
934.6778	2036.7261	11844.45	10966.2
934.8149	2038.2957	11825.85	10944.75
934.952	2039.8645	11814.95	10933.5
935.0891	2041.4325	11791.85	10908.1
935.2262	2042.9998	11745.65	10866.5
935.3632	2044.5664	11738.4	10855.7
935.5002	2046.1323	11699.3	10821.3
935.6372	2047.6974	11647.9	10767.8
935.7742	2049.2617	11627	10748.35
935.9111	2050.8254	11608.15	10724.2
936.048	2052.3883	11589.8	10708.2
936.1849	2053.9504	11544.65	10667.15
936.3218	2055.5118	11518.25	10637.15
936.4586	2057.0725	11462.25	10577.8
936.5955	2058.6325	11440.9	10560.4
936.7323	2060.1917	11410.15	10532.3
936.869	2061.7502	11390.85	10508.55
937.0058	2063.3079	11344.3	10464.1
937.1425	2064.8649	11331.9	10449.25
937.2792	2066.4212	11281.55	10398.55
937.4159	2067.9767	11266.55	10387.05
937.5525	2069.5315	11221.35	10341.85
937.6891	2071.0856	11190.8	10309.8
937.8257	2072.6389	11119.1	10236.85
937.9623	2074.1915	11064.05	10186.15
938.0989	2075.7433	11042.05	10159.95
938.2354	2077.2945	11044.75	10167.45
938.3719	2078.8448	11011.65	10130.35
938.5084	2080.3945	10975.85	10095.95
938.6448	2081.9434	10946.75	10065.75
938.7812	2083.4916	10918.65	10036.75
938.9176	2085.039	10870.65	9987
939.054	2086.5857	10871.45	9985.4
939.1903	2088.1317	10836.05	9954
939.3267	2089.677	10787.5	9907
939.463	2091.2215	10780.05	9897.45
939.5992	2092.7652	10750.75	9867.65
939.7355	2094.3083	10734.75	9853.3
939.8717	2095.8506	10701.55	9821.7
940.0079	2097.3921	10709.15	9830.35
940.1441	2098.933	10666.25	9786.35
940.2802	2100.4731	10653.65	9773.8
940.4163	2102.0124	10642.85	9740.85
940.5524	2103.5511	10605.7	9723.65
940.6885	2105.089	10571.3	9689.95
940.8245	2106.6261	10554.05	9672.4
940.9606	2108.1626	10545.05	9662.85
941.0965	2109.6983	10547.35	9637.05
941.2325	2111.2332	10503.95	9622.35
941.3684	2112.7675	10467	9585.9
941.5044	2114.301	10409.7	9528.2
941.6403	2115.8337	10410.55	9527.5
941.7761	2117.3657	10386.05	9506.3
941.912	2118.897	10352.05	9468.75
942.0478	2120.4276	10318.65	9432.3
942.1835	2121.9575	10276.75	9393.6
942.3193	2123.4866	10288.65	9392.5
942.455	2125.0149	10250.55	9365.5
942.5907	2126.5426	10232.05	9351.85
942.7264	2128.0695	10205.75	9321.6
942.8621	2129.5956	10192.65	9311.8
942.9977	2131.1211	10157.65	9271.95
943.1333	2132.6458	10147.55	9269.65
943.2689	2134.1698	10130.3	9247.3
943.4044	2135.693	10080.8	9197.9
943.54	2137.2155	10060.3	9175.85
943.6755	2138.7373	10010.65	9127.85
943.8109	2140.2584	9968.55	9086.85
943.9464	2141.7787	9967.5	9084.05
944.0818	2143.2983	9917.7	9038.45
944.2172	2144.8171	9885.6	9006.4
944.3526	2146.3353	9870.95	8989.15
944.4879	2147.8527	9840.5	8960.3
944.6232	2149.3693	9811.25	8930.2
944.7585	2150.8853	9771.8	8890
944.8938	2152.4005	9735	8854.35
945.029	2153.9149	9740.35	8859
945.1642	2155.4287	9675.5	8794.15
945.2994	2156.9417	9678.95	8796
945.4346	2158.454	9650.95	8768.65
945.5697	2159.9655	9610.3	8730.1
945.7048	2161.4764	9615.25	8733.9
945.8399	2162.9865	9581.4	8702.95
945.9749	2164.4958	9546.1	8664.7
946.1099	2166.0045	9508.9	8625.75
946.2449	2167.5124	9504.8	8624.6
946.3799	2169.0195	9486.7	8604.9
946.5148	2170.526	9478.6	8597.4
946.6498	2172.0317	9430.2	8546.5
946.7846	2173.5367	9412.9	8531.95
946.9195	2175.0409	9382.1	8500.75
947.0543	2176.5445	9374.05	8495.4
947.1891	2178.0473	9339.15	8457.85
947.3239	2179.5494	9268.55	8385.25
947.4587	2181.0507	9255.9	8372.95
947.5934	2182.5513	9261.4	8377.35
947.7281	2184.0512	9227.35	8346.45
947.8628	2185.5504	9211.7	8329.9
947.9974	2187.0488	9119.5	8237.4
948.132	2188.5465	9152.2	8268.75
948.2666	2190.0435	9105.65	8224.55
948.4012	2191.5397	9095.75	8215.9
948.5357	2193.0353	9065.75	8185.5
948.6702	2194.5301	9014.4	8131.25
948.8047	2196.0241	8980.65	8096.65
948.9392	2197.5175	8970.15	8087.5
949.0736	2199.0101	8926.25	8039.8
949.208	2200.502	8883.6	8004.65
949.3424	2201.9931	8857.25	7974.7
949.4767	2203.4835	8832.6	7951.65
949.611	2204.9733	8800.9	7913.35
949.7453	2206.4622	8781.45	7902.45
949.8796	2207.9505	8746.85	7863.15
950.0138	2209.438	8725.8	7846.1
950.148	2210.9248	8706.25	7822.45
950.2822	2212.4109	8695.05	7814.85
950.4164	2213.8962	8657.1	7773.4
950.5505	2215.3809	8648.05	7764.05
950.6846	2216.8648	8628.2	7745.85
950.8186	2218.3479	8596.55	7707.65
950.9527	2219.8304	8560.85	7672.95
951.0867	2221.3121	8512.35	7624.45
951.2207	2222.7931	8508.5	7625.65
951.3546	2224.2733	8483.25	7600.65
951.4886	2225.7529	8452.15	7569.4
951.6225	2227.2317	8417.1	7532.75
951.7563	2228.7098	8408.95	7529.25
951.8902	2230.1872	8389.2	7507.55
952.024	2231.6638	8376.6	7498.45
952.1578	2233.1397	8317.25	7430.65
952.2916	2234.6149	8300	7421.3
952.4253	2236.0894	8276.85	7395.65
952.559	2237.5632	8257	7365.7
952.6927	2239.0362	8222.1	7341.2
952.8263	2240.5085	8177.9	7297.25
952.9599	2241.9801	8186.65	7304.15
953.0935	2243.4509	8182.9	7302.15
953.2271	2244.921	8148.25	7264.6
953.3606	2246.3904	8085	7200.25
953.4941	2247.8591	8071.25	7191.4
953.6276	2249.3271	8038.5	7155.45
953.7611	2250.7943	8027.95	7143.1
953.8945	2252.2608	7976.5	7094.35
954.0279	2253.7266	7988.15	7103.9
954.1612	2255.1917	7979.65	7097.8
954.2946	2256.656	7943.65	7061.95
954.4279	2258.1197	7909.1	7028.9
954.5612	2259.5826	7891.85	7010.35
954.6944	2261.0447	7894.1	7011.6
954.8276	2262.5062	7852.9	6971.4
954.9608	2263.9669	7856.8	6972.5
955.094	2265.4269	7847.65	6964.95
955.2271	2266.8862	7802.95	6921.55
955.3602	2268.3448	7784.35	6903.55
955.4933	2269.8026	7765	6882.3
955.6264	2271.2598	7738.95	6857.3
955.7594	2272.7162	7723	6841
955.8924	2274.1719	7706.75	6825.4
956.0253	2275.6268	7660.05	6777.55
956.1583	2277.0811	7658.7	6776.5
956.2912	2278.5346	7629.4	6747.5
956.4241	2279.9874	7623.95	6743.25
956.5569	2281.4395	7614.55	6733.7
956.6897	2282.8908	7589	6704.05
956.8225	2284.3414	7544.35	6660.65
956.9553	2285.7914	7535	6655.4
957.088	2287.2406	7511.35	6629.2
957.2207	2288.689	7499.75	6617.7
957.3534	2290.1368	7474.7	6590.3
957.486	2291.5838	7465.65	6577.9
957.6186	2293.0302	7444.65	6560.2
957.7512	2294.4758	7398.3	6513.5
957.8838	2295.9206	7387.75	6502.55
958.0163	2297.3648	7357.65	6476.25
958.1488	2298.8082	7330.35	6447.1
958.2813	2300.251	7329.35	6444.5
958.4137	2301.693	7322.75	6436.2
958.5461	2303.1343	7298.8	6417.4
958.6785	2304.5748	7249.25	6367.5
958.8108	2306.0147	7241	6361.25
958.9432	2307.4538	7210.5	6326.75
959.0754	2308.8922	7211.3	6332.65
959.2077	2310.3299	7182.25	6299.1
959.3399	2311.7669	7153.7	6272.7
959.4721	2313.2031	7135.9	6253.5
959.6043	2314.6387	7117.8	6236.5
959.7365	2316.0735	7093.45	6211.85
959.8686	2317.5076	7067.1	6186.4
960.0006	2318.941	7058.45	6175.35
960.1327	2320.3737	7042.15	6158.65
960.2647	2321.8056	7013.05	6128.45
960.3967	2323.2369	6993.85	6110.55
960.5287	2324.6674	6998.75	6114.1
960.6606	2326.0972	6953.75	6067.8
960.7925	2327.5263	6937.35	6056.5
960.9244	2328.9547	6916.3	6032.35
961.0562	2330.3823	6902.25	6022.05
961.1881	2331.8092	6878.1	5992.85
961.3198	2333.2355	6853.85	5970.9
961.4516	2334.661	6840.35	5955.95
961.5833	2336.0858	6825.05	5940.65
961.715	2337.5098	6804.4	5922.2
961.8467	2338.9332	6819.6	5935.6
961.9783	2340.3558	6778.5	5892.75
962.1099	2341.7778	6740.95	5859.1
962.2415	2343.199	6721.9	5838.55
962.373	2344.6195	6703.2	5820.65
962.5045	2346.0393	6679.7	5798.05
962.636	2347.4583	6669.4	5785.9
962.7675	2348.8767	6648.9	5764.95
962.8989	2350.2943	6632.5	5748.65
963.0303	2351.7113	6630.6	5744.65
963.1617	2353.1275	6606.3	5723
963.293	2354.543	6596.2	5704
963.4243	2355.9578	6552.8	5667.85
963.5556	2357.3718	6536.1	5655.2
963.6868	2358.7852	6508.55	5622.35
963.818	2360.1978	6464.75	5582.8
963.9492	2361.6098	6479.1	5597.15
964.0803	2363.021	6442.15	5557.1
964.2114	2364.4315	6425.45	5544.65
964.3425	2365.8413	6397.8	5514.9
964.4736	2367.2504	6387.8	5506.2
964.6046	2368.6587	6340.7	5460.6
964.7356	2370.0664	6340.5	5457.15
964.8666	2371.4733	6314.95	5431.45
964.9975	2372.8795	6289.4	5406.3
965.1284	2374.285	6259.85	5375.1
965.2593	2375.6899	6239.45	5356.95
965.3901	2377.0939	6191.05	5309.5
965.5209	2378.4973	6178.35	5296.1
965.6517	2379.9	6165.95	5282.75
965.7825	2381.3019	6138.15	5254.8
965.9132	2382.7032	6133.9	5256.15
966.0439	2384.1037	6117.2	5237.45
966.1745	2385.5035	6081.5	5200.75
966.3051	2386.9027	6052.7	5172.05
966.4357	2388.3011	6058.3	5173.6
966.5663	2389.6987	6038.8	5158.05
966.6968	2391.0957	6011.35	5130.8
966.8273	2392.492	5985.2	5104.25
966.9578	2393.8876	5949.7	5069.25
967.0882	2395.2824	5920.35	5038.1
967.2186	2396.6765	5919.25	5037.1
967.349	2398.07	5886.35	5002.95
967.4793	2399.4627	5876.1	4992.35
967.6097	2400.8547	5863.95	4982.65
967.7399	2402.246	5829.55	4939.8
967.8702	2403.6366	5804.5	4921.8
968.0004	2405.0265	5800.6	4919.1
968.1306	2406.4156	5781.15	4895.05
968.2607	2407.8041	5753.05	4869.4
968.3909	2409.1918	5719.75	4834.75
968.521	2410.5789	5708.4	4827.1
968.651	2411.9652	5703.5	4817.85
968.781	2413.3508	5668.45	4785.05
968.911	2414.7358	5653.5	4767.65
969.041	2416.12	5641.2	4759.55
969.1709	2417.5035	5611.15	4730.5
969.3008	2418.8863	5589.55	4705.75
969.4307	2420.2684	5590.2	4705.35
969.5606	2421.6497	5562.35	4678
969.6904	2423.0304	5543.4	4662.15
969.8201	2424.4104	5518.45	4636.7
969.9499	2425.7896	5507.6	4623.7
970.0796	2427.1682	5504.5	4622.05
970.2093	2428.546	5483.25	4598.85
970.3389	2429.9232	5448.75	4565.05
970.4685	2431.2996	5451.15	4568.3
970.5981	2432.6753	5440.9	4559.05
970.7277	2434.0503	5434.2	4550.35
970.8572	2435.4246	5406.65	4523.7
970.9867	2436.7982	5399.95	4513.5
971.1161	2438.1711	5387.05	4505.4
971.2456	2439.5433	5354.65	4471.35
971.375	2440.9148	5344.65	4456.85
971.5043	2442.2856	5320.4	4438.7
971.6336	2443.6557	5319.9	4436
971.7629	2445.025	5291.15	4408.35
971.8922	2446.3937	5291.85	4406.5
972.0214	2447.7617	5248.75	4365.65
972.1506	2449.1289	5261.15	4378.1
972.2798	2450.4955	5241.45	4354.9
972.4089	2451.8613	5220.2	4339.7
972.538	2453.2265	5221.95	4338.35
972.6671	2454.5909	5205.75	4323.7
972.7961	2455.9546	5206.75	4325.55
972.9251	2457.3177	5176.15	4295.4
973.0541	2458.68	5159.75	4276
973.1831	2460.0416	5153.55	4269
973.312	2461.4025	5144.35	4259.95
973.4408	2462.7627	5150.35	4256.25
973.5697	2464.1222	5123.6	4242.6
973.6985	2465.4811	5099.2	4215.55
973.8273	2466.8392	5087.3	4204.5
973.956	2468.1966	5087.85	4202.85
974.0847	2469.5533	5062.8	4177.75
974.2134	2470.9093	5060.05	4177.35
974.3421	2472.2645	5035	4149.7
974.4707	2473.6191	5014.3	4132.2
974.5993	2474.973	4993.8	4111.8
974.7278	2476.3262	4990.35	4106.65
974.8563	2477.6787	4958.5	4078.65
974.9848	2479.0305	4950.2	4066.8
975.1132	2480.3816	4942.2	4057.3
975.2417	2481.7319	4912.45	4030.95
975.37	2483.0816	4895.3	4012.25
975.4984	2484.4306	4897.1	4013.1
975.6267	2485.7789	4857.1	3974.45
975.755	2487.1264	4862.7	3979.9
975.8833	2488.4733	4837.5	3954.65
976.0115	2489.8195	4838.25	3946.6
976.1397	2491.165	4818.15	3932.95
976.2678	2492.5097	4791.55	3906.65
976.3959	2493.8538	4758.2	3876.5
976.524	2495.1972	4750.95	3866.4
976.6521	2496.5398	4728.65	3846.1
976.7801	2497.8818	4730.2	3845.8
976.9081	2499.2231	4718.25	3837.15
977.036	2500.5637	4691.3	3806.15
977.164	2501.9035	4699.2	3815.9
977.2918	2503.2427	4693.25	3804.7
977.4197	2504.5812	4647.65	3765.4
977.5475	2505.919	4654.1	3769.95
977.6753	2507.256	4650.75	3768.5
977.8031	2508.5924	4626.6	3743.65
977.9308	2509.9281	4616.4	3728.85
978.0585	2511.2631	4607.3	3724.2
978.1861	2512.5974	4597.2	3716.4
978.3137	2513.9309	4583.05	3700.1
978.4413	2515.2638	4593.25	3673.1
978.5689	2516.596	4564.2	3683.2
978.6964	2517.9275	4540.45	3657.2
978.8239	2519.2583	4517	3632.9
978.9513	2520.5884	4506.85	3623.6
979.0788	2521.9178	4489.7	3607.9
979.2062	2523.2465	4484.15	3600.7
979.3335	2524.5745	4458.85	3577.45
979.4608	2525.9018	4462.55	3580.5
979.5881	2527.2284	4446.4	3565.25
979.7154	2528.5543	4446.15	3565.3
979.8426	2529.8796	4422.3	3540.2
979.9698	2531.2041	4410.1	3529.1
980.0969	2532.5279	4416.7	3537.25
980.224	2533.851	4401.65	3520.55
980.3511	2535.1735	4376.9	3496.95
980.4781	2536.4952	4367.1	3484.4
980.6052	2537.8163	4357.55	3475.2
980.7321	2539.1366	4350.8	3467.45
980.8591	2540.4562	4344.1	3459
980.986	2541.7752	4344.4	3461.75
981.1129	2543.0935	4335.45	3452.15
981.2397	2544.411	4328.65	3444.5
981.3665	2545.7279	4292.25	3408.3
981.4933	2547.0441	4308.6	3426.8
981.62	2548.3596	4308.7	3424.2
981.7467	2549.6744	4290.2	3408.75
981.8734	2550.9885	4281.15	3390.75
982.0001	2552.3019	4250.4	3365.45
982.1267	2553.6146	4255.35	3373.15
982.2532	2554.9266	4237.55	3355.35
982.3798	2556.2379	4221.15	3337.65
982.5063	2557.5485	4217.7	3338.95
982.6327	2558.8585	4205.1	3316.15
982.7592	2560.1677	4218.8	3334.7
982.8856	2561.4762	4195.55	3312.05
983.0119	2562.7841	4185.4	3299.85
983.1383	2564.0913	4182.4	3302.55
983.2646	2565.3977	4158.5	3274.95
983.3908	2566.7035	4160.65	3276.95
983.517	2568.0086	4152.95	3265.65
983.6432	2569.313	4130.05	3246.95
983.7694	2570.6167	4132.45	3247.35
983.8955	2571.9197	4105.75	3221.85
984.0216	2573.222	4113.7	3227.7
984.1476	2574.5236	4106.15	3222
984.2737	2575.8246	4092.3	3207.5
984.3996	2577.1248	4089	3204.5
984.5256	2578.4244	4080.5	3197.35
984.6515	2579.7232	4079.8	3198.45
984.7774	2581.0214	4074.4	3164.85
984.9032	2582.3189	4036.65	3153.7
985.029	2583.6157	4053.4	3164
985.1548	2584.9118	4049.85	3166.9
985.2806	2586.2072	4009.7	3128.25
985.4063	2587.5019	4019.65	3137.3
985.5319	2588.7959	4007.65	3122.95
985.6576	2590.0893	4005.1	3122.05
985.7832	2591.3819	4000.35	3118
985.9087	2592.6739	3968.3	3086.35
986.0343	2593.9652	3961.1	3075.85
986.1597	2595.2557	3968.8	3085.25
986.2852	2596.5456	3954	3069.5
986.4106	2597.8348	3927.35	3044.85
986.536	2599.1234	3917.6	3037.8
986.6614	2600.4112	3907.4	3024.2
986.7867	2601.6983	3896.45	3011.75
986.912	2602.9848	3886.4	3004.65
987.0372	2604.2705	3881.2	2990.35
987.1624	2605.5556	3862.15	2977.9
987.2876	2606.84	3842.3	2959.9
987.4128	2608.1237	3833.35	2948.6
987.5379	2609.4067	3810.4	2927.4
987.6629	2610.689	3835.2	2943.55
987.788	2611.9707	3793.4	2907.05
987.913	2613.2516	3784.6	2900
988.0379	2614.5319	3757.3	2875.5
988.1629	2615.8115	3757.85	2874.9
988.2878	2617.0903	3745.35	2862.45
988.4126	2618.3685	3734.25	2850.15
988.5375	2619.6461	3721.05	2838.8
988.6622	2620.9229	3701.05	2819
988.787	2622.199	3715	2834.2
988.9117	2623.4745	3697.5	2814.1
989.0364	2624.7493	3679.45	2797.6
989.161	2626.0234	3664.05	2783.95
989.2857	2627.2968	3651.6	2771.45
989.4102	2628.5695	3648.2	2763.15
989.5348	2629.8415	3634.85	2753.1
989.6593	2631.1128	3612.7	2728.2
989.7837	2632.3835	3622.2	2741.2
989.9082	2633.6535	3592.05	2709.65
990.0326	2634.9228	3595.65	2714.75
990.1569	2636.1914	3583.45	2700.65
990.2812	2637.4593	3565.7	2677.6
990.4055	2638.7265	3547.4	2665.25
990.5298	2639.9931	3543.35	2659.75
990.654	2641.259	3533.4	2649.75
990.7782	2642.5242	3535.45	2653.9
990.9023	2643.7887	3511.95	2628.5
991.0264	2645.0525	3515.65	2636.3
991.1505	2646.3156	3509.15	2626.45
991.2745	2647.5781	3489.35	2608.95
991.3985	2648.8398	3486.4	2605.4
991.5225	2650.1009	3476.25	2584
991.6464	2651.3613	3464.3	2582.65
991.7703	2652.6211	3457	2572.8
991.8942	2653.8801	3462.8	2580.6
992.018	2655.1385	3435.9	2549.2
992.1418	2656.3961	3439.45	2556.95
992.2655	2657.6531	3429.25	2546.4
992.3892	2658.9094	3407.5	2526.25
992.5129	2660.1651	3411.05	2529.4
992.6366	2661.42	3406.25	2525.25
992.7602	2662.6743	3391.1	2506.7
992.8837	2663.9279	3402.75	2522.1
993.0073	2665.1808	3381.8	2499.05
993.1307	2666.433	3366.65	2484.15
993.2542	2667.6846	3355.1	2475.1
993.3776	2668.9354	3357.7	2472.2
993.501	2670.1856	3350.95	2468.35
993.6244	2671.4351	3331.35	2449.45
993.7477	2672.6839	3333.65	2450.9
993.8709	2673.9321	3324.5	2444.5
993.9942	2675.1795	3316.95	2433.8
994.1174	2676.4263	3288.75	2408.6
994.2405	2677.6724	3286.85	2405.05
994.3637	2678.9179	3277.55	2394.55
994.4868	2680.1626	3282	2401
994.6098	2681.4067	3270.15	2387.6
994.7328	2682.6501	3272.1	2390.05
994.8558	2683.8928	3248.2	2367.55
994.9788	2685.1348	3247.1	2365.7
995.1017	2686.3761	3229.5	2346.3
995.2245	2687.6168	3213.25	2331.45
995.3474	2688.8568	3223.8	2342.7
995.4702	2690.0961	3209.35	2328.65
995.5929	2691.3348	3205.5	2322.55
995.7156	2692.5727	3190.85	2309.6
995.8383	2693.81	3178.45	2296.05
995.961	2695.0466	3168.35	2287.9
996.0836	2696.2826	3169.7	2286.4
996.2062	2697.5178	3177.45	2273.9
996.3287	2698.7524	3153.45	2271.45
996.4512	2699.9863	3156.25	2272.65
996.5737	2701.2195	3138.95	2256.15
996.6961	2702.452	3137.05	2254.5
996.8185	2703.6839	3134.85	2253.6
996.9408	2704.9151	3116.55	2235.95
997.0631	2706.1456	3105.45	2223.3
997.1854	2707.3755	3091.25	2206.55
997.3077	2708.6046	3079.55	2196.8
997.4299	2709.8331	3073.15	2188.85
997.552	2711.0609	3073	2190
997.6742	2712.2881	3071.25	2189.1
997.7963	2713.5145	3048.6	2162.85
997.9183	2714.7403	3052.8	2172.35
998.0403	2715.9654	3047.6	2166.15
998.1623	2717.1899	3047.15	2150.95
998.2842	2718.4136	3031.45	2151.6
998.4062	2719.6367	3027.2	2146.85
998.528	2720.8591	3020.75	2133.35
998.6498	2722.0809	3006.95	2125.75
998.7716	2723.3019	3003.5	2118.95
998.8934	2724.5223	2990	2104.35
999.0151	2725.7421	2986.9	2103.7
999.1368	2726.9611	2980.2	2095.95
999.2584	2728.1795	2962.65	2077.45
999.38	2729.3972	2960.15	2079.75
999.5016	2730.6142	2957.8	2061.95
999.6231	2731.8306	2934.3	2050.3
999.7446	2733.0462	2929.85	2046.45
999.8661	2734.2612	2906.4	2017.95
999.9875	2735.4756	2903.2	2019.4
1000.1089	2736.6892	2881.6	1999.85
1000.2302	2737.9022	2882.65	2001.35
1000.3515	2739.1145	2871.9	1989.8
1000.4728	2740.3262	2850.6	1961
1000.594	2741.5372	2845.5	1962.95
1000.7152	2742.7475	2830.3	1949.75
1000.8363	2743.9571	2832.35	1948.05
1000.9575	2745.1661	2820.9	1935.05
1001.0785	2746.3744	2820.5	1937.55
1001.1996	2747.582	2820.5	1939.95
1001.3206	2748.7889	2798.6	1915.55
1001.4415	2749.9952	2788.75	1905.2
1001.5625	2751.2008	2794.45	1912.15
1001.6833	2752.4057	2792.3	1908.75
1001.8042	2753.61	2765	1883.55
1001.925	2754.8136	2770.95	1889.9
1002.0458	2756.0165	2763.05	1879.85
1002.1665	2757.2188	2741.3	1859.45
1002.2872	2758.4204	2736.15	1854.25
1002.4078	2759.6213	2730.75	1848.3
1002.5285	2760.8215	2739.35	1854.7
1002.649	2762.0211	2707.6	1825.2
1002.7696	2763.22	2710.35	1825.45
1002.8901	2764.4182	2710.2	1828.05
1003.0106	2765.6158	2701.2	1819.55
1003.131	2766.8127	2687.6	1806.8
1003.2514	2768.009	2679.15	1795.85
1003.3717	2769.2045	2679.85	1797.4
1003.492	2770.3994	2667.5	1784.55
1003.6123	2771.5936	2663.05	1780.25
1003.7325	2772.7872	2647.85	1767.2
1003.8527	2773.9801	2643.05	1758.15
1003.9729	2775.1723	2660.15	1762.05
1004.093	2776.3639	2627.3	1748.55
1004.2131	2777.5548	2633	1748.75
1004.3331	2778.745	2617.9	1738
1004.4531	2779.9346	2611.5	1728.8
1004.5731	2781.1235	2607.45	1724.85
1004.693	2782.3117	2604.35	1723.55
1004.8129	2783.4992	2599.3	1719.9
1004.9328	2784.6861	2597.75	1717.3
1005.0526	2785.8723	2583.4	1700.15
1005.1723	2787.0579	2574.1	1693.6
1005.2921	2788.2428	2575.8	1696.55
1005.4118	2789.427	2567.05	1688.05
1005.5314	2790.6106	2553.2	1671.05
1005.651	2791.7935	2556.55	1674.7
1005.7706	2792.9757	2544.8	1663.7
1005.8902	2794.1573	2532.85	1651.7
1006.0097	2795.3382	2530.15	1648.05
1006.1291	2796.5184	2520.6	1640.25
1006.2485	2797.698	2525.9	1642.9
1006.3679	2798.8769	2526.75	1646.15
1006.4873	2800.0551	2509.65	1629.75
1006.6066	2801.2327	2512.9	1628.25
1006.7258	2802.4096	2503.55	1623.85
1006.8451	2803.5859	2493.5	1610.4
1006.9642	2804.7615	2496.95	1614.45
1007.0834	2805.9364	2492.5	1612.6
1007.2025	2807.1106	2473.05	1590.35
1007.3216	2808.2842	2482.85	1600.75
1007.4406	2809.4572	2485.5	1606.85
1007.5596	2810.6294	2477.3	1595.25
1007.6785	2811.801	2481.5	1604.2
1007.7975	2812.972	2486.95	1605.85
1007.9163	2814.1423	2479.2	1599
1008.0352	2815.3119	2487.65	1606.9
1008.154	2816.4808	2502.7	1621.9
1008.2727	2817.6491	2503.4	1622.4
1008.3914	2818.8167	2501.4	1621.1
1008.5101	2819.9837	2504.35	1618.95
1008.6288	2821.15	2513.85	1632.85
1008.7474	2822.3157	2525.05	1644.65
1008.8659	2823.4807	2524	1642.45
1008.9844	2824.645	2523.8	1643.05
1009.1029	2825.8086	2530.5	1648.45
1009.2214	2826.9716	2541	1660.35
1009.3398	2828.134	2558.85	1677.3
1009.4581	2829.2957	2566.4	1687.55
1009.5764	2830.4567	2563.35	1682.2
1009.6947	2831.617	2571.25	1689.7
1009.813	2832.7767	2552.85	1674.65
1009.9312	2833.9358	2553.15	1674.7
1010.0493	2835.0941	2550.9	1671.05
1010.1675	2836.2519	2544.6	1663.35
1010.2855	2837.4089	2539.15	1658.15
1010.4036	2838.5653	2533.8	1653.4
1010.5216	2839.7211	2520.2	1639.75
1010.6396	2840.8761	2517.1	1636.1
1010.7575	2842.0306	2506.05	1625.55
1010.8754	2843.1843	2517.85	1637.7
1010.9932	2844.3374	2509.8	1629.7
1011.111	2845.4899	2531.9	1651.75
1011.2288	2846.6417	2518.65	1638.2
1011.3465	2847.7928	2526.9	1645.05
1011.4642	2848.9433	2528.35	1647.95
1011.5818	2850.0931	2545.15	1664.05
1011.6995	2851.2422	2550	1668.35
1011.817	2852.3907	2550.55	1669.25
1011.9345	2853.5385	2570.05	1687.95
1012.052	2854.6857	2586.85	1697.35
1012.1695	2855.8323	2575.7	1696.5
1012.2869	2856.9781	2573.85	1693.5
1012.4042	2858.1233	2575.05	1696.75
1012.5216	2859.2679	2570.65	1690.65
1012.6389	2860.4118	2584.6	1703.95
1012.7561	2861.555	2592.5	1708.2
1012.8733	2862.6976	2596.85	1714.95
1012.9905	2863.8395	2602.7	1724.1
1013.1076	2864.9808	2600.05	1720.45
1013.2247	2866.1214	2589.85	1707.4
1013.3417	2867.2614	2592.3	1710.4
1013.4587	2868.4007	2603	1720.8
1013.5757	2869.5393	2585.15	1703.65
1013.6926	2870.6773	2583.55	1701.25
1013.8095	2871.8146	2590.6	1707.35
1013.9263	2872.9513	2578.55	1693.4
1014.0431	2874.0874	2559.8	1679.35
1014.1599	2875.2227	2560	1678.45
1014.2766	2876.3574	2555.3	1676.05
1014.3933	2877.4915	2546.8	1667.2
1014.51	2878.6249	2528.25	1648.75
1014.6266	2879.7577	2535.7	1652.85
1014.7431	2880.8898	2529.9	1640.55
1014.8596	2882.0212	2509.95	1631.15
1014.9761	2883.152	2504.85	1625.45
1015.0925	2884.2821	2494.85	1616.9
1015.2089	2885.4116	2474.45	1595.95
1015.3253	2886.5405	2487.05	1608.4
1015.4416	2887.6686	2489.5	1607.65
1015.5579	2888.7962	2474.5	1595.8
1015.6741	2889.923	2464.55	1586.9
1015.7903	2891.0493	2478.4	1599.75
1015.9065	2892.1748	2455.3	1575.75
1016.0226	2893.2997	2465.45	1583.2
1016.1387	2894.424	2456.45	1575.65
1016.2547	2895.5476	2449.95	1570.2
1016.3707	2896.6706	2461.2	1581.2
1016.4866	2897.7929	2461.4	1581.85
1016.6025	2898.9145	2449.4	1570
1016.7184	2900.0355	2443.15	1562.85
1016.8342	2901.1559	2446.4	1567.1
1016.95	2902.2756	2453.6	1573.5
1017.0658	2903.3946	2448.25	1567.65
1017.1815	2904.513	2455.55	1573.75
1017.2971	2905.6308	2450.85	1569.8
1017.4127	2906.7479	2440.95	1561.45
1017.5283	2907.8643	2446.5	1564.5
1017.6439	2908.9801	2447.55	1565.55
1017.7594	2910.0953	2441.5	1560.2
1017.8748	2911.2098	2434.45	1550.6
1017.9902	2912.3236	2428.2	1541.25
1018.1056	2913.4368	2426.15	1543.95
1018.2209	2914.5494	2415.9	1535.85
1018.3362	2915.6613	2407.7	1520.25
1018.4515	2916.7725	2390.4	1507.45
1018.5667	2917.8831	2392.1	1510.3
1018.6819	2918.9931	2377.8	1494.5
1018.797	2920.1024	2364.35	1481.35
1018.9121	2921.211	2362.05	1483.45
1019.0271	2922.319	2343.45	1462.85
1019.1421	2923.4264	2338.6	1459.8
1019.2571	2924.5331	2343.05	1466.35
1019.372	2925.6391	2323.95	1447.45
1019.4869	2926.7445	2320.55	1443.45
1019.6017	2927.8493	2326.3	1443.9
1019.7165	2928.9534	2324.45	1445.5
1019.8313	2930.0569	2325.1	1442.75
1019.946	2931.1597	2321.5	1439.35
1020.0606	2932.2619	2312.4	1431.3
1020.1753	2933.3634	2307.95	1428.55
1020.2899	2934.4643	2318	1430.2
1020.4044	2935.5645	2311.6	1427.05
1020.5189	2936.6641	2286.9	1403.05
1020.6334	2937.763	2295.1	1416.5
1020.7478	2938.8613	2273.95	1392.7
1020.8622	2939.959	2267.1	1381.25
1020.9765	2941.056	2257.95	1380.4
1021.0908	2942.1523	2218.7	1335.8
1021.2051	2943.248	2210.65	1332.5
1021.3193	2944.3431	2181.3	1302.6
1021.4334	2945.4375	2160.25	1281.3
1021.5476	2946.5313	2136.1	1257.6
1021.6617	2947.6244	2107.35	1227.7
1021.7757	2948.7169	2095.45	1214.75
1021.8897	2949.8087	2078.65	1198.3
1022.0037	2950.8999	2055.4	1173.9
1022.1176	2951.9904	2035.1	1158.35
1022.2315	2953.0803	2014	1131.7
1022.3453	2954.1696	2008.3	1128.1
1022.4591	2955.2582	1983.5	1104.85
1022.5728	2956.3462	1969.85	1089.05
1022.6865	2957.4335	1958.15	1077.85
1022.8002	2958.5202	1961	1080
1022.9138	2959.6062	1940.45	1060.35
1023.0274	2960.6916	1934.75	1056
1023.141	2961.7764	1930.8	1049.35
1023.2545	2962.8605	1922.5	1043.9
1023.3679	2963.9439	1916.3	1037.05
1023.4813	2965.0267	1910.8	1030.9
1023.5947	2966.1089	1927.15	1023.9
1023.708	2967.1905	1895.05	1014.8
1023.8213	2968.2714	1899.8	1021.35
1023.9346	2969.3516	1886.85	1007.45
1024.0478	2970.4312	1898.45	1012.15
1024.1609	2971.5102	1879	1001.9
1024.274	2972.5885	1876.45	997.9
1024.3871	2973.6662	1880.75	996.25
1024.5002	2974.7432	1876.9	997.75
1024.6132	2975.8196	1875.8	996.15
1024.7261	2976.8954	1865.9	987.75
1024.839	2977.9705	1856.7	976.05
1024.9519	2979.045	1858	980.9
1025.0647	2980.1188	1840.35	960.2
1025.1775	2981.192	1843.1	962.95
1025.2902	2982.2645	1834.4	955.8
1025.4029	2983.3364	1821.05	938.9
1025.5156	2984.4077	1823.55	944.3
1025.6282	2985.4783	1822.75	938.85
1025.7407	2986.5483	1802.95	925.1
1025.8532	2987.6177	1788.9	909.2
1025.9657	2988.6864	1781.45	899.5
1026.0782	2989.7545	1777.1	896.55
1026.1906	2990.8219	1767.55	888.6
1026.3029	2991.8887	1763.5	881
1026.4152	2992.9548	1752.85	875.2
1026.5275	2994.0204	1737.8	857.6
1026.6397	2995.0852	1730.5	852.75
1026.7519	2996.1495	1709.55	829.15
1026.864	2997.2131	1715.65	836.5
1026.9761	2998.276	1698.7	818
1027.0882	2999.3383	1694.95	814.8
1027.2002	3000.4	1682.7	802.4
1027.3122	3001.4611	1675.4	795.45
1027.4241	3002.5215	1674.35	794.25
1027.536	3003.5812	1672	793.15
1027.6478	3004.6404	1660.85	779.1
1027.7596	3005.6989	1665.9	784.85
1027.8714	3006.7567	1665.25	784.9
1027.9831	3007.8139	1673.1	772.95
1028.0947	3008.8705	1641.45	764.75
1028.2064	3009.9264	1644.05	759.75
1028.3179	3010.9818	1643.5	763.5
1028.4295	3012.0364	1640.6	761.15
1028.541	3013.0905	1637.1	754.9
1028.6524	3014.1439	1621.25	742.1
1028.7638	3015.1966	1617.4	736.2
1028.8752	3016.2487	1617.1	737.6
1028.9865	3017.3002	1617.05	732.2
1029.0978	3018.3511	1610.55	733.3
1029.209	3019.4013	1608.35	729.1
1029.3202	3020.4509	1602.5	722.45
1029.4314	3021.4998	1605.05	725.95
1029.5425	3022.5481	1611.45	732
1029.6535	3023.5958	1594.6	714.35
1029.7645	3024.6428	1594.4	715.8
1029.8755	3025.6892	1591.55	713.45
1029.9864	3026.735	1582.5	702.6
1030.0973	3027.7802	1581.45	700.55
1030.2082	3028.8247	1580.1	699.75
1030.319	3029.8685	1576.3	698.6
1030.4297	3030.9118	1572.75	692.9
1030.5404	3031.9544	1567.6	688.45
1030.6511	3032.9963	1567.05	691
1030.7617	3034.0376	1566.85	689.3
1030.8723	3035.0783	1564.65	684.2
1030.9829	3036.1184	1562.95	679.9
1031.0934	3037.1578	1560.7	682.95
1031.2038	3038.1966	1562.9	682.55
1031.3142	3039.2348	1547.4	669.15
1031.4246	3040.2723	1560.6	672.55
1031.5349	3041.3092	1547.9	671.2
1031.6452	3042.3455	1541.9	661.1
1031.7554	3043.3811	1540.55	661
1031.8656	3044.4161	1535.5	655.35
1031.9758	3045.4505	1534.15	657.7
1032.0859	3046.4842	1532.05	653.05
1032.1959	3047.5173	1529.15	650.65
1032.3059	3048.5498	1535.05	653.35
1032.4159	3049.5816	1530.7	652.25
1032.5258	3050.6128	1524.1	642.4
1032.6357	3051.6434	1524.85	644.45
1032.7455	3052.6734	1515.6	634.65
1032.8553	3053.7027	1516.55	637.4
1032.9651	3054.7314	1508.65	630.45
1033.0748	3055.7594	1509.4	630.05
1033.1845	3056.7868	1516.1	636.6
1033.2941	3057.8136	1502.35	622
1033.4037	3058.8398	1503.35	624.25
1033.5132	3059.8653	1491.45	612.25
1033.6227	3060.8902	1491.8	611.8
1033.7321	3061.9145	1497.25	617.85
1033.8415	3062.9381	1484.4	606.2
1033.9509	3063.9612	1500.75	607.45
1034.0602	3064.9835	1484.55	606.5
1034.1694	3066.0053	1479.65	597.4
1034.2787	3067.0264	1477.55	599
1034.3878	3068.0469	1475.3	594.95
1034.497	3069.0668	1483.8	602.75
1034.6061	3070.086	1469.3	590.2
1034.7151	3071.1046	1468.65	591.25
1034.8241	3072.1226	1461.05	580
1034.9331	3073.1399	1456.85	578
1035.042	3074.1567	1449.65	570.2
1035.1508	3075.1727	1452.8	572.6
1035.2597	3076.1882	1444.85	565.3
1035.3684	3077.203	1445.6	567.1
1035.4772	3078.2173	1440.9	560.7
1035.5859	3079.2308	1447.75	566.75
1035.6945	3080.2438	1436.85	553.95
1035.8031	3081.2561	1426.7	547.15
1035.9117	3082.2678	1432.35	552.75
1036.0202	3083.2789	1427.9	547.9
1036.1286	3084.2893	1422.05	542.95
1036.2371	3085.2991	1428.8	547.85
1036.3454	3086.3083	1425.2	541.85
1036.4538	3087.3169	1415.65	535.7
1036.562	3088.3248	1419.5	539.65
1036.6703	3089.3321	1406.25	525.75
1036.7785	3090.3388	1407.05	530.05
1036.8866	3091.3449	1400.45	520.05
1036.9948	3092.3503	1403.7	523.25
1037.1028	3093.3551	1397.5	520.25
1037.2108	3094.3593	1400.85	522.75
1037.3188	3095.3629	1387.8	509.05
1037.4267	3096.3658	1384.15	503
1037.5346	3097.3681	1380.25	501.75
1037.6425	3098.3698	1381.8	499.8
1037.7503	3099.3708	1386.15	500.65
1037.858	3100.3713	1381.8	504.15
1037.9657	3101.3711	1369.2	489.4
1038.0734	3102.3702	1500.45	483.95
1038.181	3103.3688	1375.35	495.7
1038.2886	3104.3667	1368.95	490.25
1038.3961	3105.364	1362.6	483.9
1038.5036	3106.3607	1363	480.45
1038.611	3107.3568	1361.55	484.1
1038.7184	3108.3522	1352.9	471.8
1038.8257	3109.347	1356.3	476.7
1038.933	3110.3412	1353.2	470.2
1039.0403	3111.3348	1342.3	462.25
1039.1475	3112.3277	1341.55	461.6
1039.2547	3113.32	1337.55	459.85
1039.3618	3114.3117	1336.05	456.4
1039.4689	3115.3028	1333.05	455.4
1039.5759	3116.2932	1329.5	449.75
1039.6829	3117.2831	1336.25	451.05
1039.7898	3118.2723	1323.85	445.85
1039.8967	3119.2608	1322.7	443.15
1040.0035	3120.2488	1320.2	442.4
1040.1103	3121.2361	1318.25	439.45
1040.2171	3122.2229	1308.65	427.15
1040.3238	3123.209	1315.65	436.3
1040.4305	3124.1944	1308.45	429.45
1040.5371	3125.1793	1314.75	434.55
1040.6437	3126.1635	1315.05	436.95
1040.7502	3127.1471	1305.3	426.85
1040.8567	3128.1301	1303.25	425.45
1040.9631	3129.1125	1297.5	419.15
1041.0695	3130.0942	1301.35	420.5
1041.1759	3131.0753	1307.05	419.4
1041.2822	3132.0558	1298.95	418.25
1041.3884	3133.0357	1286.2	406.6
1041.4946	3134.015	1291	410.6
1041.6008	3134.9936	1284.85	403.35
1041.7069	3135.9716	1307.55	406.85
1041.813	3136.949	1287.45	408.7
1041.919	3137.9258	1293.4	409.3
1042.025	3138.902	1288.05	405.35
1042.1309	3139.8775	1277.35	400.05
1042.2368	3140.8524	1280.7	402.5
1042.3427	3141.8267	1275.25	394.2
1042.4485	3142.8004	1269.7	388.8
1042.5542	3143.7735	1275.6	390.15
1042.6599	3144.7459	1278.8	396.35
1042.7656	3145.7178	1267.25	386.75
1042.8712	3146.689	1267	391.35
1042.9768	3147.6596	1270.2	389.6
1043.0823	3148.6295	1266.05	387.15
1043.1878	3149.5989	1259.55	381.15
1043.2932	3150.5676	1262.05	383.95
1043.3986	3151.5357	1255.3	378.35
1043.5039	3152.5032	1251.3	372.35
1043.6092	3153.4701	1259.35	378.95
1043.7145	3154.4364	1251.95	369.45
1043.8197	3155.402	1254	375.8
1043.9248	3156.367	1249.05	369.9
1044.03	3157.3315	1285.65	368
1044.135	3158.2952	1243.95	366.85
1044.24	3159.2584	1242.2	364.6
1044.345	3160.221	1234.4	355.9
1044.4499	3161.1829	1230.95	353.75
1044.5548	3162.1442	1235.65	357.45
1044.6596	3163.105	1229.55	349.7
1044.7644	3164.065	1230.85	351.4
1044.8692	3165.0245	1237.8	354.65
1044.9739	3165.9834	1225	345.65
1045.0785	3166.9416	1221.3	342.75
1045.1831	3167.8993	1225.3	345.55
1045.2877	3168.8563	1215.6	337.6
1045.3922	3169.8127	1222.65	344.5
1045.4966	3170.7684	1216	337.25
1045.6011	3171.7236	1214.9	334.2
1045.7054	3172.6782	1212.3	332.65
1045.8098	3173.6321	1213.95	334.6
1045.914	3174.5854	1213.35	329.65
1046.0183	3175.5381	1207.4	328.1
1046.1224	3176.4902	1203.15	324.4
1046.2266	3177.4417	1206.1	327.5
1046.3307	3178.3926	1202.45	323
1046.4347	3179.3428	1197.9	319.85
1046.5387	3180.2924	1195.8	318.15
1046.6427	3181.2415	1201.45	322.15
1046.7466	3182.1899	1197.05	315.65
1046.8504	3183.1377	1192.6	314.15
1046.9542	3184.0848	1196.35	314.15
1047.058	3185.0314	1191.2	310.9
1047.1617	3185.9773	1191.55	311.8
1047.2654	3186.9227	1184.5	305.25
1047.369	3187.8674	1183.4	304.2
1047.4726	3188.8115	1192.15	309
1047.5761	3189.755	1186.9	307.4
1047.6796	3190.6979	1176.75	299.05
1047.783	3191.6402	1176.35	300.5
1047.8864	3192.5818	1176.15	298.1
1047.9898	3193.5229	1187.85	290.9
1048.0931	3194.4633	1176.95	297.9
1048.1963	3195.4031	1171.95	294.55
1048.2995	3196.3423	1172.1	294.05
1048.4027	3197.2809	1170.15	291.6
1048.5058	3198.2189	1165.4	286.3
1048.6089	3199.1563	1187.15	291
1048.7119	3200.0931	1162.7	286.25
1048.8148	3201.0292	1166.05	287.75
1048.9178	3201.9648	1158.35	279.7
1049.0206	3202.8997	1160.2	279.35
1049.1235	3203.834	1161.7	282.55
1049.2262	3204.7677	1156.1	276.65
1049.329	3205.7008	1158.55	278.2
1049.4317	3206.6333	1148.95	271
1049.5343	3207.5652	1152.8	272.85
1049.6369	3208.4964	1153.6	274.4
1049.7394	3209.4271	1154.75	275.9
1049.8419	3210.3571	1144.25	264.75
1049.9444	3211.2865	1151.5	273.25
1050.0468	3212.2154	1149.7	270.5
1050.1491	3213.1436	1144.9	264
1050.2514	3214.0712	1148.7	263.15
1050.3537	3214.9982	1138.75	259.3
1050.4559	3215.9246	1141.55	261.5
1050.5581	3216.8503	1138.7	261.25
1050.6602	3217.7755	1142.05	262.7
1050.7623	3218.7001	1139	262.3
1050.8643	3219.624	1138.65	261.5
1050.9663	3220.5473	1132.25	254.2
1051.0682	3221.4701	1134.35	255.65
1051.1701	3222.3922	1132.55	252.4
1051.2719	3223.3137	1130.25	250.4
1051.3737	3224.2346	1129.7	250.6
1051.4754	3225.1549	1128.35	250.05
1051.5771	3226.0746	1122.75	242.9
1051.6788	3226.9937	1126.95	247
1051.7804	3227.9121	1119.75	240.1
1051.8819	3228.83	1125.15	247.65
1051.9834	3229.7473	1124.4	245.15
1052.0849	3230.6639	1123.6	247.25
1052.1863	3231.5799	1114.95	234.25
1052.2876	3232.4954	1119.5	240.35
1052.3889	3233.4102	1118.25	241.85
1052.4902	3234.3244	1115.45	236.15
1052.5914	3235.238	1113.55	235.75
1052.6926	3236.151	1128	226.05
1052.7937	3237.0634	1109.35	231.6
1052.8948	3237.9752	1111.3	233.3
1052.9958	3238.8864	1101.75	221.85
1053.0968	3239.797	1105.4	226.65
1053.1977	3240.7069	1105.7	225.75
1053.2986	3241.6163	1106.4	223.2
1053.3994	3242.5251	1102.65	224.95
1053.5002	3243.4332	1100.8	221.65
1053.6009	3244.3408	1099.1	221
1053.7016	3245.2477	1100.8	222.3
1053.8022	3246.154	1099.75	218.8
1053.9028	3247.0598	1093.05	213.8
1054.0034	3247.9649	1093.15	214.6
1054.1039	3248.8694	1089.25	210.95
1054.2043	3249.7733	1089.8	211.6
1054.3047	3250.6766	1089.05	209.8
1054.4051	3251.5793	1088	208.55
1054.5054	3252.4814	1087.75	208.35
1054.6056	3253.3829	1090.55	212.05
1054.7058	3254.2838	1083.95	203.95
1054.806	3255.1841	1082.6	204.35
1054.9061	3256.0838	1080.2	204
1055.0061	3256.9829	1079.8	201.8
1055.1062	3257.8814	1078.05	197.05
1055.2061	3258.7792	1078.45	199.05
1055.306	3259.6765	1077.7	197.3
1055.4059	3260.5731	1070.9	192.1
1055.5057	3261.4692	1072.2	191.05
1055.6055	3262.3647	1067.1	189.55
1055.7052	3263.2595	1065.7	187.15
1055.8049	3264.1538	1062.55	182.8
1055.9045	3265.0474	1060.2	181.55
1056.0041	3265.9404	1054.35	176.9
1056.1036	3266.8329	1053.75	175.4
1056.2031	3267.7247	1058.95	171.2
1056.3025	3268.616	1045.15	167.6
1056.4019	3269.5066	1044.2	163.7
1056.5013	3270.3966	1043.3	163.95
1056.6005	3271.286	1035	159.4
