Software Version:	3.9.2.0
Unit SN:	10000200
Spectrometer SN:	6960
Date:	3/6/2024 10:04:28 AM
Data Line Index:	25
Spectral Points:	2048
Integration time (ms):	125
Averages:	20
Delay (ms):	30
Sequence Number:	1
Processing:	dark subtract
Laser Power (mW):	300
Laser Current (mA):	826
Laser Diode Temp (C):	25.1
Laser Case Temp (C):	24.8
System Temp (C):	24.6
Spectrometer Temp (C):	22.2
CCD Temp (C):	-0.008
Secondary Temp (C):	20.011
Heatsink Temp (C):	18.57
CCDPCB Temp (C):	32.172
SecondaryPCB Temp (C):	26.214

Wavelength	RamanShift	Raw Counts	Dark Subtracted
787.061	30.1047	559.6	152.65
787.2016	32.3739	565.6	157.9
787.3422	34.6426	571.05	163.3
787.4828	36.9109	583.7	175.05
787.6235	39.1787	598.5	185.95
787.7642	41.4461	614.8	196.7
787.9049	43.7131	630.95	210.65
788.0456	45.9796	647.35	223.2
788.1863	48.2456	660.15	235
788.3271	50.5112	676.35	245.2
788.4679	52.7764	698.45	263.95
788.6087	55.0411	720	282.65
788.7496	57.3054	736.55	293.4
788.8904	59.5692	758.3	313.75
789.0313	61.8326	783.3	335.25
789.1722	64.0955	806.05	353.75
789.3132	66.3579	834.15	377.85
789.4541	68.6199	876.05	417.25
789.5951	70.8815	948.45	484.75
789.7361	73.1426	1089.25	621.45
789.8771	75.4032	1440.65	969.55
790.0181	77.6634	2337.45	1860.7
790.1592	79.9231	4527.3	4047.85
790.3003	82.1824	9462.5	8972
790.4414	84.4412	19975.55	19471.6
790.5825	86.6995	32025.35	31501.55
790.7237	88.9574	38626.65	38085.7
790.8648	91.2148	42648.35	42090.7
791.006	93.4717	44103.25	43540.9
791.1472	95.7282	44760.2	44193.1
791.2885	97.9842	45068.9	44501.15
791.4297	100.2398	45142.6	44573.75
791.571	102.4949	45130.65	44553.2
791.7123	104.7495	45174	44596.4
791.8536	107.0036	45077.1	44498.3
791.9949	109.2573	45203.25	44626
792.1363	111.5105	45071.55	44492.3
792.2777	113.7632	45170.3	44590.5
792.4191	116.0154	45260.15	44666.35
792.5605	118.2672	45399.7	44811.75
792.7019	120.5185	45410.1	44824.6
792.8434	122.7693	45435.9	44844.05
792.9849	125.0197	45333.6	44738.9
793.1264	127.2696	45598.55	44998.75
793.2679	129.519	45594.6	44991.7
793.4094	131.7679	45744.7	45138.2
793.551	134.0163	45457.05	44847.35
793.6926	136.2642	45583.8	44970.2
793.8342	138.5117	45792.95	45177.2
793.9758	140.7587	45702.75	45087.85
794.1175	143.0052	45731.15	45114.3
794.2591	145.2512	45575.95	44956.4
794.4008	147.4967	45788.6	45169.3
794.5425	149.7417	45733.9	45110.45
794.6842	151.9863	45723.55	45096.3
794.826	154.2304	45600.7	44968.85
794.9677	156.4739	45648.95	45011.65
795.1095	158.717	45788.65	45152.7
795.2513	160.9596	45708.65	45066.15
795.3931	163.2017	45513.55	44872.3
795.535	165.4433	45721.55	45074.85
795.6768	167.6844	45624	44977.1
795.8187	169.925	45709.45	45057.9
795.9606	172.1651	45616.7	44964.4
796.1025	174.4047	45633.65	44975.35
796.2445	176.6439	45613.95	44954.65
796.3864	178.8825	45593.3	44930.95
796.5284	181.1206	45739.05	45069.4
796.6704	183.3582	45711.45	45042.9
796.8124	185.5954	45645.75	44974.4
796.9544	187.832	45679.15	45005.8
797.0965	190.0681	45593.5	44915.05
797.2386	192.3037	45811.75	45132.1
797.3806	194.5388	46001.55	45314.5
797.5228	196.7734	45565.5	44878.65
797.6649	199.0075	46022.3	45332.65
797.807	201.2411	45909.45	45218
797.9492	203.4742	46180.05	45484.5
798.0914	205.7068	46161.25	45465.05
798.2336	207.9389	46116.25	45415.45
798.3758	210.1704	46132.05	45438.75
798.518	212.4015	46252.45	45570.5
798.6603	214.632	46085.3	45408.65
798.8025	216.862	46339.8	45668.45
798.9448	219.0915	46207.65	45527.65
799.0871	221.3205	46197.55	45515.5
799.2294	223.549	46382.85	45709.3
799.3718	225.777	46386	45710.25
799.5141	228.0044	46507.75	45827.3
799.6565	230.2314	46463.4	45781.35
799.7989	232.4578	46445.1	45756.6
799.9413	234.6837	46464.4	45767.2
800.0837	236.909	46854.45	46160.2
800.2262	239.1339	46409.05	45689.35
800.3687	241.3582	46615.75	45907.05
800.5111	243.582	46615.35	45875.15
800.6536	245.8053	46593.9	45866.5
800.7961	248.0281	46645.3	45926.3
800.9387	250.2503	46732.45	46009.75
801.0812	252.472	46582.9	45854.95
801.2238	254.6932	46712.5	45985.1
801.3664	256.9139	46625.65	45898.35
801.509	259.134	46919.1	46187.85
801.6516	261.3536	46583.95	45851.75
801.7942	263.5727	46812.25	46083.15
801.9369	265.7912	46722.4	45991.1
802.0795	268.0092	46762.4	46032.55
802.2222	270.2267	46810.95	46078.35
802.3649	272.4436	46642.8	45912.5
802.5076	274.6601	46760.6	46014.7
802.6504	276.8759	46843.3	46104.15
802.7931	279.0913	46780.8	46035.15
802.9359	281.3061	46794.35	46052.2
803.0787	283.5204	46846.05	46098.95
803.2215	285.7341	46836.9	46090
803.3643	287.9473	47002.1	46242.05
803.5071	290.16	46872.85	46122.15
803.6499	292.3721	46919.95	46174.05
803.7928	294.5837	46815.6	46069.15
803.9357	296.7947	46713.25	45964.45
804.0786	299.0052	46958.8	46209.4
804.2215	301.2152	46815.25	46063.35
804.3644	303.4246	46920.15	46171.6
804.5074	305.6334	46956.1	46208.05
804.6503	307.8418	46781.4	46027.2
804.7933	310.0495	46777.6	46024.05
804.9363	312.2568	46741.8	45988.25
805.0793	314.4635	46688.35	45932.95
805.2223	316.6696	46770.65	46012.5
805.3653	318.8752	46853.95	46088.85
805.5084	321.0802	46511.7	45749.9
805.6514	323.2847	46665.8	45901.25
805.7945	325.4887	46644.85	45880
805.9376	327.692	46592.7	45826.2
806.0807	329.8949	46679.85	45912.35
806.2238	332.0972	46593.6	45828.95
806.367	334.2989	46664.35	45894.5
806.5101	336.5001	46707.2	45934.8
806.6533	338.7007	46488.3	45717.3
806.7965	340.9008	46657.55	45883
806.9397	343.1003	46636.25	45862.2
807.0829	345.2992	46727.3	45951.05
807.2261	347.4976	46629	45851.4
807.3693	349.6955	46679.45	45895.05
807.5126	351.8927	46598.4	45815.65
807.6559	354.0895	46652.45	45861.05
807.7991	356.2856	46647.85	45861.25
807.9424	358.4812	46737.85	45953.45
808.0857	360.6763	46596.1	45807.1
808.2291	362.8707	46753.25	45963.4
808.3724	365.0646	46658.5	45866.35
808.5158	367.258	46615.2	45821.8
808.6591	369.4508	46433.35	45633.2
808.8025	371.643	46675.8	45880.9
808.9459	373.8346	46552.15	45752.35
809.0893	376.0257	46571.65	45769
809.2327	378.2162	46519.55	45720.25
809.3762	380.4062	46389.5	45592.05
809.5196	382.5956	46505.75	45707.05
809.6631	384.7844	46466.25	45670.9
809.8066	386.9726	46488.55	45694.75
809.9501	389.1603	46473.95	45682.95
810.0936	391.3474	46338.6	45503.85
810.2371	393.5339	46489.3	45696.95
810.3806	395.7199	46231.7	45438.3
810.5241	397.9052	46271.65	45479.6
810.6677	400.09	46305.8	45513.8
810.8113	402.2743	46407.7	45613.85
810.9548	404.4579	46260.75	45464.25
811.0984	406.641	46294.45	45495.9
811.2421	408.8235	46346	45549.5
811.3857	411.0054	46375.45	45575.65
811.5293	413.1868	46456.4	45650.85
811.673	415.3675	46363.9	45552.5
811.8166	417.5477	46386.9	45574.85
811.9603	419.7273	46365.35	45554.35
812.104	421.9064	46284.15	45466
812.2477	424.0848	46280.6	45469.4
812.3914	426.2627	46353.85	45541.9
812.5351	428.4399	46196.75	45381.2
812.6788	430.6166	46035.2	45218.1
812.8226	432.7928	46212.7	45393.85
812.9663	434.9683	45984.95	45166.45
813.1101	437.1432	45966.15	45146.65
813.2539	439.3176	46053.85	45235.1
813.3977	441.4914	45806.1	44989
813.5415	443.6645	45837.45	45021.25
813.6853	445.8371	45831.8	45016.5
813.8291	448.0091	45699.35	44878.7
813.973	450.1806	45618.15	44799.95
814.1168	452.3514	45617.95	44794.5
814.2607	454.5216	45534.75	44708.25
814.4046	456.6913	45559.1	44735.4
814.5485	458.8603	45588.05	44767.3
814.6924	461.0288	45475	44653.75
814.8363	463.1967	45549.9	44731.1
814.9802	465.3639	45570.5	44747.7
815.1241	467.5306	45321.85	44498.2
815.2681	469.6967	45379.15	44557.05
815.412	471.8622	45447.3	44624.9
815.556	474.0271	45357.4	44533.85
815.7	476.1914	45344.75	44518.75
815.844	478.3551	45375.55	44549.2
815.988	480.5182	45540.05	44715.95
816.132	482.6807	45310.6	44487
816.276	484.8426	45363.65	44543.65
816.4201	487.0039	45540.3	44718.65
816.5641	489.1647	45567.8	44741.45
816.7082	491.3248	45375.7	44549.35
816.8522	493.4843	45587	44760.55
816.9963	495.6432	45577.15	44747.65
817.1404	497.8015	45305.25	44470.9
817.2845	499.9592	45473.8	44639.2
817.4286	502.1163	45437.75	44603.05
817.5727	504.2728	45382.45	44550.6
817.7168	506.4287	45400.95	44573.25
817.861	508.5839	45255.2	44424.3
818.0051	510.7386	45343.45	44511.05
818.1493	512.8927	45388.4	44547.8
818.2935	515.0461	45343.9	44508.05
818.4377	517.199	45445.6	44608.55
818.5818	519.3512	45310.6	44471.1
818.726	521.5029	45264.55	44418.5
818.8703	523.6539	45291.25	44451.2
819.0145	525.8043	45177.95	44342.4
819.1587	527.9541	45289.25	44447.35
819.303	530.1033	45247.5	44405.75
819.4472	532.2519	45189.35	44347.25
819.5915	534.3999	45279.35	44438.65
819.7357	536.5472	45296.6	44455.5
819.88	538.694	45115.85	44275.85
820.0243	540.8401	45228.75	44386.55
820.1686	542.9856	45224.45	44380.35
820.3129	545.1305	45284.55	44435.2
820.4572	547.2748	45170.95	44324.1
820.6016	549.4185	45140.5	44289.05
820.7459	551.5615	45199.4	44346.8
820.8902	553.704	45189	44338.7
821.0346	555.8458	45045.1	44198.5
821.1789	557.987	45091.7	44244.05
821.3233	560.1276	45129.7	44280.85
821.4677	562.2675	45072.45	44220.3
821.6121	564.4069	45100.95	44251
821.7565	566.5456	45167.45	44318.15
821.9009	568.6837	45036.8	44186.5
822.0453	570.8212	45070.75	44221.15
822.1897	572.958	44846.4	43995.3
822.3342	575.0942	44943.25	44097.2
822.4786	577.2299	44781.85	43932.2
822.6231	579.3648	44737.2	43892.05
822.7675	581.4992	44632.65	43789.25
822.912	583.6329	44605.55	43764.9
823.0565	585.766	44596.4	43753.05
823.201	587.8985	44613.4	43767.8
823.3454	590.0304	44411.45	43536.5
823.4899	592.1616	44489.45	43636.1
823.6345	594.2922	44435.4	43579.6
823.779	596.4222	44335.15	43477.2
823.9235	598.5515	44338.7	43480.2
824.068	600.6802	44382.45	43526.4
824.2126	602.8083	44206.1	43349.65
824.3571	604.9358	44184.9	43328.15
824.5017	607.0626	44257.6	43398.1
824.6462	609.1888	44084.55	43223.45
824.7908	611.3144	44185.2	43322.95
824.9354	613.4393	44061.2	43202.85
825.08	615.5636	44033.25	43172.8
825.2246	617.6873	44081.9	43222.35
825.3692	619.8103	44023.75	43160.2
825.5138	621.9327	43998.75	43136.25
825.6584	624.0544	44006.95	43149.75
825.803	626.1756	43995.75	43136.55
825.9477	628.2961	43973.4	43112.15
826.0923	630.4159	43865.45	43004.65
826.237	632.5351	43877.95	43016.9
826.3816	634.6537	43995.95	43132.35
826.5263	636.7716	43839	42972.05
826.6709	638.8889	43849.2	42982.7
826.8156	641.0056	43852.2	42984.85
826.9603	643.1216	43861.6	42993.65
827.105	645.237	43897.65	43030.7
827.2497	647.3518	43785.75	42923.1
827.3944	649.4659	43792.2	42927.25
827.5391	651.5793	43764.6	42901.8
827.6838	653.6922	43745.4	42881.85
827.8285	655.8043	43662.5	42796.85
827.9733	657.9159	43795.35	42929.4
828.118	660.0268	43536.55	42670.25
828.2627	662.137	43603.25	42737.3
828.4075	664.2466	43629.2	42756.15
828.5522	666.3556	43584.95	42715.85
828.697	668.4639	43556.15	42687.85
828.8418	670.5716	43525.85	42660.6
828.9865	672.6786	43568.8	42701.6
829.1313	674.785	43441.4	42573.9
829.2761	676.8907	43435.6	42564.1
829.4209	678.9958	43394.9	42524.9
829.5657	681.1002	43382.65	42512.95
829.7105	683.204	43328.25	42454.65
829.8553	685.3072	43280.95	42406.25
830.0001	687.4097	43257.6	42385.8
830.1449	689.5115	43243.75	42369.4
830.2898	691.6127	43284.15	42413
830.4346	693.7132	43188.7	42319.7
830.5794	695.8131	43224.1	42333.1
830.7243	697.9123	43205	42331.35
830.8691	700.0109	43187.95	42311.6
831.014	702.1089	43080.5	42203.85
831.1588	704.2061	43098.6	42224.85
831.3037	706.3028	43114.65	42237.75
831.4486	708.3987	43081.4	42202.05
831.5935	710.4941	43015.65	42138.1
831.7383	712.5887	43085.9	42209.95
831.8832	714.6827	43025.35	42146.9
832.0281	716.7761	43066	42193.55
832.173	718.8688	43017.5	42141.65
832.3179	720.9608	42971.75	42089.85
832.4628	723.0522	42988.5	42107.2
832.6077	725.1429	42903.4	42021.1
832.7527	727.233	43027.05	42147.5
832.8976	729.3224	42888.2	42010.25
833.0425	731.4112	42882.85	42003.7
833.1874	733.4993	42814.35	41932.95
833.3324	735.5867	42750.7	41870
833.4773	737.6735	42737.7	41858.6
833.6222	739.7596	42666.15	41781.25
833.7672	741.845	42632.1	41753.3
833.9122	743.9298	42619.5	41736.6
834.0571	746.014	42583.2	41703.15
834.2021	748.0974	42549.45	41668.35
834.347	750.1802	42515.85	41635.8
834.492	752.2624	42385.15	41502.15
834.637	754.3439	42348.95	41462.9
834.782	756.4247	42325.45	41432.5
834.9269	758.5048	42207.9	41324.5
835.0719	760.5843	42197.65	41313.4
835.2169	762.6631	42199.35	41316.65
835.3619	764.7413	42160.25	41279.55
835.5069	766.8188	42175.8	41291.3
835.6519	768.8956	42126.5	41240.2
835.7969	770.9718	42139.8	41256.35
835.9419	773.0473	42057.5	41172.7
836.0869	775.1221	42028.55	41144.2
836.232	777.1962	41932.05	41048.25
836.377	779.2697	41891.7	41004.85
836.522	781.3426	41874.9	40967.8
836.667	783.4147	41801.7	40917.6
836.8121	785.4862	41805.3	40925.8
836.9571	787.557	41727.4	40840.3
837.1021	789.6271	41727.95	40841.5
837.2472	791.6966	41679.45	40792.75
837.3922	793.7654	41551.65	40663.3
837.5373	795.8335	41564.95	40679.7
837.6823	797.901	41527.65	40643
837.8274	799.9678	41509.85	40619.8
837.9724	802.0339	41442.15	40555.05
838.1175	804.0993	41460.15	40561.7
838.2626	806.1641	41343.45	40455.45
838.4076	808.2282	41287.05	40400.65
838.5527	810.2916	41268.3	40379.25
838.6978	812.3544	41280.55	40393.55
838.8428	814.4164	41174.7	40286.3
838.9879	816.4778	41234.05	40342.4
839.133	818.5385	41163.9	40273.35
839.2781	820.5986	41156.2	40268.65
839.4232	822.658	41134.55	40242.9
839.5682	824.7166	41107.9	40219.1
839.7133	826.7747	41109.5	40219.4
839.8584	828.832	41099.6	40208.85
840.0035	830.8886	41042.6	40151.35
840.1486	832.9446	41051.75	40160.7
840.2937	834.9999	40921.75	40032.75
840.4388	837.0545	40945	40050.45
840.5839	839.1085	40911.55	40019.2
840.729	841.1618	40866.45	39972.75
840.8741	843.2143	40746.1	39853.6
841.0192	845.2662	40704.5	39812.1
841.1643	847.3175	40711.4	39820.85
841.3095	849.368	40583.55	39690.95
841.4546	851.4179	40628.5	39732.85
841.5997	853.467	40498.3	39607.8
841.7448	855.5155	40481.75	39591.7
841.8899	857.5633	40388.45	39497.9
842.0351	859.6105	40322.8	39431.9
842.1802	861.6569	40319.15	39425.55
842.3253	863.7027	40261.95	39367.55
842.4704	865.7478	40265.85	39372.9
842.6156	867.7922	40232.4	39337.75
842.7607	869.8359	40196.8	39303.8
842.9058	871.8789	40128.35	39234.95
843.0509	873.9212	40169.2	39242.9
843.1961	875.9629	40135.65	39241.55
843.3412	878.0039	40104.35	39209.15
843.4863	880.0441	40065.6	39172.3
843.6315	882.0837	40051.45	39157.25
843.7766	884.1226	40002.05	39105.2
843.9218	886.1609	40010	39119.15
844.0669	888.1984	39982.15	39088.7
844.212	890.2352	40049.55	39156.85
844.3572	892.2714	39922.55	39022.8
844.5023	894.3069	39937.55	39041.85
844.6475	896.3416	39824.95	38929.3
844.7926	898.3757	39807.3	38912.45
844.9377	900.4091	39704.95	38809.4
845.0829	902.4418	39755.45	38855.45
845.228	904.4739	39692	38791.95
845.3732	906.5052	39668.35	38769.65
845.5183	908.5358	39632.8	38736.4
845.6635	910.5658	39577.25	38679.15
845.8086	912.595	39532.2	38636.3
845.9538	914.6236	39406.55	38510.45
846.0989	916.6515	39500.4	38603.2
846.2441	918.6786	39342.65	38444
846.3892	920.7051	39353.7	38453.45
846.5344	922.7309	39361.4	38465.8
846.6795	924.756	39253.55	38354
846.8246	926.7804	39207.85	38309.55
846.9698	928.8041	38977.7	38078.85
847.1149	930.8272	39093.95	38193.3
847.2601	932.8495	39022.8	38123.8
847.4052	934.8711	38968.15	38067.9
847.5504	936.892	38863.85	37965.5
847.6955	938.9123	38806.25	37907.4
847.8407	940.9318	38740.2	37841.15
847.9858	942.9506	38679.7	37782.3
848.131	944.9688	38646.75	37748.75
848.2761	946.9862	38438.75	37540.55
848.4213	949.003	38466.55	37567.7
848.5664	951.019	38239.45	37341.55
848.7115	953.0344	38217.5	37321.15
848.8567	955.0491	38145.5	37244.2
849.0018	957.063	38216.35	37319.75
849.147	959.0763	38245.15	37346.85
849.2921	961.0888	38058.95	37159.15
849.4373	963.1007	38165.7	37268.05
849.5824	965.1119	38144.75	37249.85
849.7275	967.1223	38007.3	37114.15
849.8727	969.1321	38103.6	37211.35
850.0178	971.1412	37918.9	37025.85
850.1629	973.1495	37828.75	36930.7
850.3081	975.1572	37889.95	36952.05
850.4532	977.1641	37820.2	36919.7
850.5983	979.1704	37730.15	36828.4
850.7435	981.1759	37683.2	36781.35
850.8886	983.1808	37549.15	36645.9
851.0337	985.1849	37541	36630.2
851.1788	987.1884	37539.85	36635.85
851.324	989.1911	37564.3	36665.5
851.4691	991.1932	37327.4	36428.05
851.6142	993.1945	37290.8	36389.65
851.7593	995.1951	37284.1	36383.25
851.9045	997.1951	37175	36267.85
852.0496	999.1943	37099.2	36197.4
852.1947	1001.1928	36977.05	36078.5
852.3398	1003.1906	36965.7	36067.95
852.4849	1005.1877	36801.75	35901.45
852.63	1007.1841	36697.9	35799.95
852.7751	1009.1798	36659.7	35756.95
852.9202	1011.1748	36633.15	35736.45
853.0653	1013.1691	36581.95	35682.1
853.2104	1015.1627	36307.15	35406.85
853.3555	1017.1556	36274.6	35373.5
853.5006	1019.1477	36257.65	35359.35
853.6457	1021.1392	36044.65	35149.2
853.7908	1023.1299	35914.6	35018
853.9359	1025.12	35919.15	35020.6
854.081	1027.1093	35806.7	34919.5
854.2261	1029.0979	35767.9	34878.65
854.3712	1031.0859	35663.7	34773.6
854.5163	1033.0731	35544.75	34648.7
854.6613	1035.0596	35512.4	34617
854.8064	1037.0454	35404.75	34505.75
854.9515	1039.0304	35332.7	34431
855.0965	1041.0148	35171.9	34273.05
855.2416	1042.9985	35211.95	34309.4
855.3867	1044.9814	35207.4	34308.65
855.5317	1046.9636	35059.8	34161.55
855.6768	1048.9452	35009.6	34110.15
855.8219	1050.926	34928.65	34029.7
855.9669	1052.9061	34897.35	33996.7
856.112	1054.8855	34834.75	33933.65
856.257	1056.8642	34776.7	33876.9
856.4021	1058.8421	34777.1	33874.95
856.5471	1060.8194	34689.15	33788.1
856.6921	1062.7959	34654.3	33753.35
856.8372	1064.7717	34655.35	33752.55
856.9822	1066.7469	34574.95	33674.2
857.1272	1068.7213	34585.55	33681
857.2723	1070.695	34476.35	33575.05
857.4173	1072.6679	34370.6	33469.85
857.5623	1074.6402	34422.4	33520.45
857.7073	1076.6117	34382.45	33475.55
857.8523	1078.5826	34310.9	33407.9
857.9973	1080.5527	34260.65	33356.25
858.1423	1082.5221	34148.8	33248.35
858.2873	1084.4908	34121.8	33221.25
858.4323	1086.4587	34055.25	33154.15
858.5773	1088.426	34009.05	33107.65
858.7223	1090.3925	33969.8	33063
858.8673	1092.3584	33914.3	33012.2
859.0123	1094.3235	33779.6	32879.55
859.1573	1096.2879	33767.6	32866.8
859.3022	1098.2515	33768.7	32867.75
859.4472	1100.2145	33755.2	32854.6
859.5922	1102.1767	33702.95	32801.85
859.7371	1104.1382	33727.05	32823.65
859.8821	1106.099	33626.4	32723.6
860.027	1108.0591	33556.8	32654.7
860.172	1110.0185	33417.85	32516.7
860.3169	1111.9771	33534.95	32632.55
860.4619	1113.9351	33433.6	32532.05
860.6068	1115.8923	33340.45	32439.55
860.7517	1117.8488	33229.25	32326.1
860.8967	1119.8045	33043.8	32143.7
861.0416	1121.7596	33098.25	32196.35
861.1865	1123.7139	32951.8	32051.15
861.3314	1125.6675	32969.25	32067.55
861.4763	1127.6204	32895.35	31994.3
861.6212	1129.5726	32735.2	31831.75
861.7661	1131.524	32802.15	31902.8
861.911	1133.4748	32785	31884.15
862.0559	1135.4248	32573.95	31674.35
862.2008	1137.3741	32542.6	31642.2
862.3457	1139.3226	32482.15	31581.2
862.4905	1141.2705	32471.55	31570
862.6354	1143.2176	32376.65	31471.3
862.7803	1145.164	32205.75	31300.65
862.9251	1147.1097	32251.05	31349.8
863.07	1149.0546	32197.4	31293.85
863.2148	1150.9989	32209.9	31310
863.3597	1152.9424	32021.2	31121.2
863.5045	1154.8852	32146.8	31246.2
863.6493	1156.8272	31965.6	31067.9
863.7942	1158.7686	32114.8	31203.95
863.939	1160.7092	31842.75	30937.2
864.0838	1162.6491	31827.4	30923.6
864.2286	1164.5883	31881.65	30980.95
864.3734	1166.5267	31733.3	30831.65
864.5182	1168.4644	31816.3	30913.35
864.663	1170.4014	31690.15	30784.35
864.8078	1172.3377	31795.95	30897.4
864.9526	1174.2732	31816.45	30914.65
865.0974	1176.2081	31818.6	30918.7
865.2421	1178.1421	31751.2	30846.1
865.3869	1180.0755	31853	30952.3
865.5317	1182.0082	31773.75	30871.75
865.6764	1183.9401	31738.75	30835.3
865.8212	1185.8713	31543.95	30643.65
865.9659	1187.8017	31500.45	30604.95
866.1106	1189.7315	31483.7	30590.7
866.2554	1191.6605	31355.9	30434.35
866.4001	1193.5888	31215.6	30320.45
866.5448	1195.5163	31071.5	30174.05
866.6895	1197.4432	30985.25	30082.5
866.8342	1199.3693	30937.05	30035.75
866.9789	1201.2947	30842.95	29934.35
867.1236	1203.2193	30835.8	29933.95
867.2683	1205.1432	30664.35	29762.85
867.413	1207.0664	30619.9	29721.35
867.5576	1208.9889	30562.4	29660.8
867.7023	1210.9106	30540.5	29636.7
867.847	1212.8316	30380.75	29480.55
867.9916	1214.7519	30380.75	29471.4
868.1363	1216.6715	30291.95	29391
868.2809	1218.5903	30231.6	29330.9
868.4255	1220.5084	30191.6	29290.55
868.5701	1222.4257	30199.6	29297.5
868.7148	1224.3424	30073.8	29174.7
868.8594	1226.2583	30022.3	29116.9
869.004	1228.1735	30026.85	29125.15
869.1486	1230.0879	29896.35	28995.45
869.2932	1232.0016	29925.6	29027.35
869.4377	1233.9146	29826.45	28925.6
869.5823	1235.8269	29793.6	28893.95
869.7269	1237.7384	29737.75	28837.3
869.8715	1239.6492	29614.2	28714.45
870.016	1241.5592	29587.1	28686.55
870.1606	1243.4686	29545.55	28645.7
870.3051	1245.3772	29484.2	28583.9
870.4496	1247.285	29504.5	28604.1
870.5941	1249.1922	29383.7	28482
870.7387	1251.0986	29434.15	28533.3
870.8832	1253.0042	29304.65	28402.25
871.0277	1254.9092	29380.9	28480.2
871.1722	1256.8134	29190.8	28290
871.3167	1258.7169	29319.5	28419.85
871.4611	1260.6196	29180	28280.95
871.6056	1262.5216	29197.15	28292.35
871.7501	1264.4229	29191.05	28291.3
871.8945	1266.3234	29217.3	28316.35
872.039	1268.2232	29182	28279.45
872.1834	1270.1223	29101.05	28197.15
872.3278	1272.0207	29061.6	28160.55
872.4723	1273.9183	29018.55	28113.75
872.6167	1275.8151	28920.7	28020.25
872.7611	1277.7113	28915.9	28015.2
872.9055	1279.6067	28847.4	27945.95
873.0499	1281.5014	28806.85	27906.8
873.1943	1283.3953	28881.5	27980.4
873.3386	1285.2885	28898.5	27999.45
873.483	1287.181	28938.25	28039.35
873.6274	1289.0727	28977.5	28079.7
873.7717	1290.9637	28847.1	27945.9
873.9161	1292.854	29017.9	28117.5
874.0604	1294.7435	28897.6	27996.4
874.2047	1296.6323	28873.9	27974.1
874.349	1298.5204	28804.1	27901.05
874.4933	1300.4077	28792.1	27891.5
874.6376	1302.2943	28644.25	27745.5
874.7819	1304.1802	28584.7	27683.8
874.9262	1306.0653	28424.8	27522.1
875.0705	1307.9497	28358.1	27458.15
875.2147	1309.8333	28307.7	27408.75
875.359	1311.7162	28203.25	27301.45
875.5032	1313.5984	28191.75	27286.5
875.6475	1315.4798	28055.3	27151.45
875.7917	1317.3605	27984.25	27065.95
875.9359	1319.2405	27955.3	27053.55
876.0801	1321.1197	27839.35	26934.75
876.2243	1322.9982	27767.4	26861.1
876.3685	1324.876	27736.55	26834.45
876.5127	1326.753	27617.4	26716.45
876.6569	1328.6293	27645.15	26743.8
876.801	1330.5048	27596.65	26693.05
876.9452	1332.3796	27446.8	26546.5
877.0893	1334.2537	27418.45	26491.45
877.2335	1336.127	27374.4	26471.55
877.3776	1337.9996	27297.5	26396.35
877.5217	1339.8714	27298.25	26397.55
877.6658	1341.7426	27118.95	26177.1
877.8099	1343.6129	27210.6	26308.25
877.954	1345.4826	27127.6	26226.2
878.0981	1347.3515	27038.3	26133.85
878.2422	1349.2196	27061.9	26160.5
878.3862	1351.087	27034	26132.6
878.5303	1352.9537	27031.9	26130.7
878.6743	1354.8197	27006.35	26106.5
878.8184	1356.6849	27015.85	26114.65
878.9624	1358.5493	26996.85	26096.95
879.1064	1360.4131	26914.65	26015.85
879.2504	1362.276	26922	26023.9
879.3944	1364.1383	26820.3	25919.5
879.5384	1365.9998	26741.05	25834.8
879.6823	1367.8606	26669.35	25766.8
879.8263	1369.7206	26575.4	25675.35
879.9702	1371.5799	26449.35	25544.6
880.1142	1373.4384	26337.9	25435.6
880.2581	1375.2962	26335.5	25434.25
880.402	1377.1533	26097.65	25197.1
880.5459	1379.0096	25986.1	25085.4
880.6898	1380.8652	25865.35	24965.5
880.8337	1382.7201	25770.3	24870.55
880.9776	1384.5742	25656.55	24755.05
881.1215	1386.4275	25518.3	24615.15
881.2653	1388.2802	25458.05	24559.1
881.4092	1390.132	25411.7	24511.65
881.553	1391.9832	25339.7	24436.9
881.6968	1393.8336	25171.9	24269
881.8406	1395.6832	25136.25	24233.85
881.9844	1397.5322	25109.4	24209.9
882.1282	1399.3803	24969.4	24065.75
882.272	1401.2278	24873.9	23973.45
882.4158	1403.0745	24856.8	23955.9
882.5595	1404.9204	24707.95	23808.4
882.7033	1406.7656	24718.95	23817.05
882.847	1408.6101	24581.45	23678.05
882.9908	1410.4538	24526.1	23625.25
883.1345	1412.2968	24528.25	23627
883.2782	1414.139	24381.8	23482.35
883.4219	1415.9805	24403.85	23503.7
883.5656	1417.8213	24277.95	23370.2
883.7092	1419.6613	24273.4	23376.35
883.8529	1421.5006	24279.25	23376.85
883.9965	1423.3391	24242.95	23342.5
884.1402	1425.1769	24211.9	23311.9
884.2838	1427.0139	24265.15	23364.75
884.4274	1428.8502	24272.2	23370.5
884.571	1430.6858	24290.35	23389.9
884.7146	1432.5206	24317.15	23416.25
884.8582	1434.3547	24264.3	23363.65
885.0018	1436.188	24267.4	23367.2
885.1453	1438.0206	24292.2	23388.8
885.2889	1439.8524	24145.25	23243.3
885.4324	1441.6835	24099.75	23199.3
885.5759	1443.5139	24059.1	23156.5
885.7194	1445.3435	23956.4	23059.2
885.8629	1447.1724	23965.55	23066.7
886.0064	1449.0005	23883.75	22985.3
886.1499	1450.8279	23862.3	22962
886.2933	1452.6545	23839.55	22940.15
886.4368	1454.4804	23793.3	22894.4
886.5802	1456.3056	23733.6	22827.45
886.7237	1458.13	23690.6	22792.8
886.8671	1459.9536	23720.6	22819.8
887.0105	1461.7766	23568.45	22670
887.1539	1463.5987	23428.75	22529.05
887.2972	1465.4202	23416.25	22516.4
887.4406	1467.2409	23263.05	22362.8
887.584	1469.0608	23156	22256
887.7273	1470.88	23140.85	22239.75
887.8706	1472.6984	23065.35	22166.2
888.0139	1474.5161	22923.15	22020.9
888.1572	1476.3331	22875.15	21978.1
888.3005	1478.1493	22763.2	21865
888.4438	1479.9648	22753.25	21854.65
888.5871	1481.7795	22717.95	21818.1
888.7303	1483.5935	22724.75	21824.15
888.8736	1485.4067	22582.1	21682.85
889.0168	1487.2192	22573.95	21674
889.16	1489.031	22540.75	21637.45
889.3032	1490.842	22470.1	21569.1
889.4464	1492.6522	22467.9	21568
889.5896	1494.4618	22402.65	21502.7
889.7327	1496.2705	22384.15	21487.7
889.8759	1498.0785	22279.5	21380.05
890.019	1499.8858	22204.65	21305.35
890.1622	1501.6924	22229.05	21332.25
890.3053	1503.4981	22140.8	21243
890.4484	1505.3032	22141.9	21244.65
890.5914	1507.1075	22008.5	21107.75
890.7345	1508.911	22000.95	21102.15
890.8776	1510.7138	21978.4	21080.45
891.0206	1512.5159	21894.85	20995.1
891.1637	1514.3172	21770.9	20873.7
891.3067	1516.1178	21700.85	20804.1
891.4497	1517.9176	21760.35	20861.7
891.5927	1519.7166	21618.05	20719.8
891.7357	1521.515	21582.6	20677.4
891.8786	1523.3126	21524.95	20625.65
892.0216	1525.1094	21496.15	20595.8
892.1645	1526.9055	21420.2	20523.15
892.3074	1528.7008	21345.95	20450.2
892.4503	1530.4954	21212.45	20315.7
892.5932	1532.2893	21221.1	20325.45
892.7361	1534.0824	21093.45	20192.1
892.879	1535.8747	21034.45	20137.8
893.0218	1537.6663	21048.8	20151.1
893.1647	1539.4572	20879.4	19981.75
893.3075	1541.2473	20899.25	20002.65
893.4503	1543.0367	20800.2	19905.65
893.5931	1544.8253	20739	19838
893.7359	1546.6132	20764.3	19867.05
893.8787	1548.4003	20653.85	19747.25
894.0214	1550.1867	20608	19702.85
894.1642	1551.9723	20561.9	19661.4
894.3069	1553.7572	20567.7	19670.25
894.4496	1555.5414	20550.9	19655.15
894.5923	1557.3247	20449.05	19552.8
894.735	1559.1074	20453.8	19561.45
894.8777	1560.8893	20419	19526.25
895.0204	1562.6705	20403.45	19509.5
895.163	1564.4509	20344.8	19450.85
895.3056	1566.2305	20323.2	19432.6
895.4482	1568.0094	20393.5	19502.1
895.5908	1569.7876	20318.8	19425.8
895.7334	1571.565	20247.2	19353.75
895.876	1573.3417	20250.8	19353.85
896.0186	1575.1176	20178.8	19285.7
896.1611	1576.8928	20129.5	19237.7
896.3036	1578.6672	20020.8	19131.7
896.4461	1580.4409	19963.1	19075.5
896.5886	1582.2138	19928.15	19035.4
896.7311	1583.986	19901.3	19007.15
896.8736	1585.7575	19865.5	18974.5
897.0161	1587.5282	19834.9	18945.6
897.1585	1589.2981	19818.95	18930.65
897.3009	1591.0673	19777.05	18885.65
897.4433	1592.8358	19798.4	18910.45
897.5857	1594.6035	19714.95	18824
897.7281	1596.3704	19694.25	18801.4
897.8705	1598.1366	19625.85	18733.5
898.0128	1599.9021	19602.2	18710.55
898.1551	1601.6668	19543	18650.5
898.2975	1603.4308	19533.3	18641.5
898.4398	1605.194	19528.55	18631.6
898.5821	1606.9564	19445.95	18558.6
898.7243	1608.7182	19490.8	18598.9
898.8666	1610.4791	19475.35	18588.85
899.0088	1612.2394	19463.3	18576.95
899.1511	1613.9988	19452.2	18565.1
899.2933	1615.7576	19484.05	18597.7
899.4355	1617.5156	19543.85	18645.85
899.5776	1619.2728	19527.1	18633.85
899.7198	1621.0293	19402.5	18511.8
899.862	1622.785	19331.65	18437.9
900.0041	1624.54	19213.75	18322.15
900.1462	1626.2942	19144.9	18253.1
900.2883	1628.0477	18941.9	18049.8
900.4304	1629.8005	18848.3	17956.15
900.5725	1631.5525	18742.6	17853.75
900.7145	1633.3037	18642.3	17754.7
900.8566	1635.0542	18611.6	17722.45
900.9986	1636.804	18484.3	17594.1
901.1406	1638.553	18477.95	17547.1
901.2826	1640.3013	18385.55	17496.9
901.4245	1642.0488	18295.15	17404.6
901.5665	1643.7955	18281.5	17394.55
901.7085	1645.5416	18235.7	17346.35
901.8504	1647.2868	18218	17328.65
901.9923	1649.0313	18192.3	17303.4
902.1342	1650.7751	18156.4	17266.6
902.2761	1652.5181	18140.15	17253.55
902.4179	1654.2604	18130.65	17245.4
902.5598	1656.0019	18109.8	17223.3
902.7016	1657.7427	18118.8	17229.45
902.8434	1659.4828	18131.1	17242.15
902.9852	1661.222	18099.05	17208.55
903.127	1662.9606	18067.8	17181.5
903.2687	1664.6984	18034.1	17145.15
903.4105	1666.4354	17916.75	17026.65
903.5522	1668.1717	17759.6	16870.2
903.6939	1669.9072	17617.4	16727.65
903.8356	1671.642	17500.85	16609.9
903.9773	1673.3761	17400.9	16511.2
904.119	1675.1094	17301.6	16413.45
904.2606	1676.8419	17176.7	16288.85
904.4022	1678.5737	17095.7	16209.15
904.5439	1680.3048	17002.15	16113.7
904.6855	1682.0351	16908.8	16020.85
904.827	1683.7646	16843.7	15950.25
904.9686	1685.4934	16788.95	15902
905.1101	1687.2215	16710.4	15822.7
905.2517	1688.9488	16640.8	15753.95
905.3932	1690.6754	16530.6	15642.1
905.5347	1692.4012	16504.55	15616.45
905.6761	1694.1263	16454.8	15566.75
905.8176	1695.8506	16410.85	15522.15
905.9591	1697.5742	16354.4	15467.65
906.1005	1699.297	16307.8	15418.8
906.2419	1701.0191	16256.2	15369.15
906.3833	1702.7404	16152.85	15269.4
906.5246	1704.461	16115.5	15228
906.666	1706.1808	16046.4	15158
906.8073	1707.8999	16005	15116.8
906.9487	1709.6182	15955.85	15070.2
907.09	1711.3358	15886.3	15003.3
907.2313	1713.0527	15836.55	14953
907.3725	1714.7688	15792	14901.25
907.5138	1716.4841	15701.85	14812.7
907.655	1718.1987	15700.05	14809.3
907.7962	1719.9126	15666.3	14781.15
907.9374	1721.6257	15575.9	14688.1
908.0786	1723.338	15573.1	14685.05
908.2198	1725.0496	15478.6	14593.3
908.3609	1726.7605	15471.95	14585.55
908.502	1728.4706	15422.65	14535.4
908.6431	1730.18	15355.35	14469.5
908.7842	1731.8886	15311.5	14426.25
908.9253	1733.5964	15272.05	14382.1
909.0664	1735.3036	15259.65	14373.35
909.2074	1737.0099	15214.2	14329.1
909.3484	1738.7156	15195.45	14310.25
909.4894	1740.4204	15119.05	14227.05
909.6304	1742.1246	15089.25	14200.6
909.7714	1743.8279	15047.9	14161
909.9123	1745.5306	15061.5	14174.55
910.0532	1747.2325	14983.4	14099
910.1941	1748.9336	14980.25	14094.4
910.335	1750.634	14906.8	14020.15
910.4759	1752.3336	14878.55	13992.95
910.6168	1754.0325	14852.9	13970.2
910.7576	1755.7307	14789.55	13904.4
910.8984	1757.4281	14764.75	13878.7
911.0392	1759.1247	14766.65	13872.75
911.18	1760.8206	14730.55	13837.6
911.3208	1762.5158	14729.2	13837.55
911.4615	1764.2102	14620.55	13735.55
911.6022	1765.9039	14599.55	13713.05
911.7429	1767.5968	14549.35	13664.8
911.8836	1769.289	14566.45	13679.15
912.0243	1770.9804	14501.3	13614.6
912.1649	1772.6711	14502.3	13618.05
912.3056	1774.361	14449.85	13564.9
912.4462	1776.0502	14407.85	13519.95
912.5868	1777.7386	14370.5	13482.45
912.7274	1779.4263	14345.2	13459.4
912.8679	1781.1132	14337.5	13453.45
913.0084	1782.7994	14305.85	13420.65
913.149	1784.4849	14237.15	13353.65
913.2895	1786.1696	14219.45	13315.75
913.4299	1787.8535	14179.15	13295.65
913.5704	1789.5367	14126.45	13243.65
913.7108	1791.2192	14124.75	13242.05
913.8513	1792.9009	14083.6	13169.25
913.9917	1794.5818	14041.3	13153.5
914.132	1796.2621	13998.8	13115.4
914.2724	1797.9415	13976.7	13090.25
914.4128	1799.6202	13936.35	13052.25
914.5531	1801.2982	13914.45	13028.8
914.6934	1802.9755	13903.45	13017.6
914.8337	1804.6519	13864.8	12979.7
914.9739	1806.3277	13795.45	12909.9
915.1142	1808.0027	13735.6	12855.05
915.2544	1809.6769	13718.05	12835.25
915.3946	1811.3504	13711.25	12826.65
915.5348	1813.0231	13663.9	12778.35
915.675	1814.6951	13665.3	12781.5
915.8151	1816.3664	13659.65	12771.75
915.9553	1818.0369	13652.4	12767.7
916.0954	1819.7067	13569.55	12686.5
916.2355	1821.3757	13561.9	12674.8
916.3755	1823.044	13515.1	12631.95
916.5156	1824.7115	13496.1	12610.7
916.6556	1826.3783	13416.55	12530.05
916.7956	1828.0443	13402.35	12520.9
916.9356	1829.7096	13347.6	12461
917.0756	1831.3741	13364.35	12473.95
917.2155	1833.0379	13329.3	12447.3
917.3555	1834.701	13284.55	12401.7
917.4954	1836.3633	13285	12402.3
917.6353	1838.0248	13203.55	12318.6
917.7751	1839.6856	13204.2	12321.45
917.915	1841.3457	13200.45	12312.75
918.0548	1843.005	13150.8	12266
918.1946	1844.6636	13116.9	12231.05
918.3344	1846.3214	13080.65	12195.6
918.4742	1847.9785	13092.3	12207.85
918.6139	1849.6349	13029.45	12143.3
918.7537	1851.2904	13055.4	12159.85
918.8934	1852.9453	12997.6	12112
919.0331	1854.5994	12953.4	12066
919.1727	1856.2528	12956.85	12065.55
919.3124	1857.9054	12930.25	12043.1
919.452	1859.5572	12913.25	12029.8
919.5916	1861.2083	12900.8	12015.05
919.7312	1862.8587	12900	12015.3
919.8708	1864.5084	12856.2	11967.9
920.0103	1866.1572	12805.2	11920.6
920.1498	1867.8054	12773.65	11886.65
920.2893	1869.4528	12728	11843.55
920.4288	1871.0994	12683.35	11798.95
920.5683	1872.7453	12688.35	11800.3
920.7077	1874.3905	12652.1	11758.8
920.8471	1876.0349	12608.75	11719.95
920.9865	1877.6786	12607.7	11720.25
921.1259	1879.3215	12591.95	11708
921.2653	1880.9637	12549.5	11663.05
921.4046	1882.6051	12556.05	11671.45
921.5439	1884.2458	12487.55	11601.95
921.6832	1885.8858	12476.95	11591.6
921.8225	1887.525	12446.15	11559.8
921.9617	1889.1634	12402.45	11516.6
922.101	1890.8011	12352	11465.1
922.2402	1892.4381	12365.75	11482.3
922.3794	1894.0743	12327.2	11443.9
922.5185	1895.7098	12260.1	11375.55
922.6577	1897.3446	12259.5	11374
922.7968	1898.9786	12229.2	11341
922.9359	1900.6118	12201.9	11318.55
923.075	1902.2443	12129.35	11241.3
923.214	1903.8761	12130.2	11242.7
923.3531	1905.5071	12042.75	11154.7
923.4921	1907.1374	12017.15	11131.55
923.6311	1908.7669	11983.85	11099.05
923.77	1910.3957	11982.95	11099.5
923.909	1912.0237	11915.4	11029.65
924.0479	1913.651	11918.75	11031.55
924.1868	1915.2776	11865	10981.85
924.3257	1916.9034	11811.45	10929.1
924.4646	1918.5285	11815.35	10931.35
924.6034	1920.1528	11752.2	10866.3
924.7422	1921.7764	11736.6	10853.3
924.881	1923.3992	11684.4	10799.1
925.0198	1925.0213	11608.85	10724.75
925.1586	1926.6427	11582.65	10701.95
925.2973	1928.2633	11737.8	10605.15
925.436	1929.8832	11573.5	10685.15
925.5747	1931.5023	11483.6	10599.95
925.7134	1933.1207	11445.7	10562.55
925.852	1934.7383	11413.9	10528.2
925.9906	1936.3552	11379	10495.85
926.1292	1937.9714	11361.7	10476.3
926.2678	1939.5868	11315.15	10429.2
926.4064	1941.2015	11277	10393.15
926.5449	1942.8154	11208.15	10320.65
926.6834	1944.4286	11185.85	10301.1
926.8219	1946.041	11148.7	10239.35
926.9604	1947.6528	11103	10213.1
927.0988	1949.2637	11077.85	10194.85
927.2372	1950.8739	11021.75	10138.25
927.3756	1952.4834	11008.2	10124.05
927.514	1954.0921	11014.7	10131.05
927.6523	1955.7001	10934.9	10046.35
927.7907	1957.3074	10936.65	10052.75
927.929	1958.9139	10868.55	9984.4
928.0673	1960.5197	10884.95	9998.3
928.2055	1962.1247	10815.5	9933.95
928.3438	1963.729	10772	9890.85
928.482	1965.3325	10746.2	9842
928.6202	1966.9353	10698.05	9813.75
928.7584	1968.5374	10663	9778.7
928.8965	1970.1387	10621.8	9738.4
929.0346	1971.7393	10572.1	9687.75
929.1727	1973.3392	10555.9	9670.95
929.3108	1974.9383	10535.1	9652.8
929.4489	1976.5366	10488.05	9604.95
929.5869	1978.1342	10460.85	9577.05
929.7249	1979.7311	10438.15	9555.65
929.8629	1981.3273	10433.55	9549.1
930.0009	1982.9227	10406.75	9523.8
930.1388	1984.5173	10360.7	9478.35
930.2767	1986.1112	10324	9442.6
930.4146	1987.7044	10298.3	9415.8
930.5525	1989.2968	10266.8	9382.85
930.6904	1990.8885	10239.75	9355.4
930.8282	1992.4795	10236.65	9355.15
930.966	1994.0697	10220.85	9339.05
931.1038	1995.6592	10177.95	9294.85
931.2415	1997.2479	10156	9273.95
931.3793	1998.8359	10103.4	9221.5
931.517	2000.4232	10069.6	9189.3
931.6547	2002.0097	10044.55	9166
931.7923	2003.5955	9988.15	9106.3
931.93	2005.1805	9985.6	9103.65
932.0676	2006.7648	9963.1	9082.35
932.2052	2008.3484	9944.5	9063.6
932.3427	2009.9312	9946.05	9064
932.4803	2011.5133	9876.2	8997.1
932.6178	2013.0946	9861.25	8980.5
932.7553	2014.6752	9840.05	8958.7
932.8928	2016.2551	9780.55	8897.6
933.0302	2017.8342	9755.4	8874.1
933.1676	2019.4126	9727.2	8847.85
933.305	2020.9902	9680.55	8799.7
933.4424	2022.5672	9694.55	8812.95
933.5798	2024.1433	9674.8	8790.45
933.7171	2025.7188	9628.15	8748.75
933.8544	2027.2935	9626.65	8745.5
933.9917	2028.8674	9574.6	8693.55
934.129	2030.4406	9567.3	8689.3
934.2662	2032.0131	9503.05	8623
934.4034	2033.5849	9477.95	8594.55
934.5406	2035.1559	9463.75	8584.45
934.6778	2036.7261	9447.55	8566.45
934.8149	2038.2957	9400.65	8519.45
934.952	2039.8645	9392.2	8510.45
935.0891	2041.4325	9390.05	8503.85
935.2262	2042.9998	9346.8	8467.8
935.3632	2044.5664	9327	8442.15
935.5002	2046.1323	9313.5	8434.7
935.6372	2047.6974	9272.35	8389.2
935.7742	2049.2617	9258.55	8375.7
935.9111	2050.8254	9268.35	8377.8
936.048	2052.3883	9241.15	8354.9
936.1849	2053.9504	9194.3	8302.7
936.3218	2055.5118	9182.5	8289.35
936.4586	2057.0725	9159.85	8261.95
936.5955	2058.6325	9108.35	8214.75
936.7323	2060.1917	9078.6	8184.2
936.869	2061.7502	9077.05	8179.5
937.0058	2063.3079	9031.5	8136.6
937.1425	2064.8649	9009.8	8113.6
937.2792	2066.4212	9004.4	8112.5
937.4159	2067.9767	8978.2	8092.55
937.5525	2069.5315	8900.55	8015
937.6891	2071.0856	8895	8010.3
937.8257	2072.6389	8868.85	7985.45
937.9623	2074.1915	8837.5	7956.3
938.0989	2075.7433	8786.8	7903.4
938.2354	2077.2945	8772	7892.35
938.3719	2078.8448	8752.4	7870.55
938.5084	2080.3945	8729.3	7845.55
938.6448	2081.9434	8723.7	7840.6
938.7812	2083.4916	8664.2	7778.35
938.9176	2085.039	8655	7767.85
939.054	2086.5857	8617.2	7727.15
939.1903	2088.1317	8616.9	7731.1
939.3267	2089.677	8582.85	7690.85
939.463	2091.2215	8577.2	7686.4
939.5992	2092.7652	8551.8	7658.9
939.7355	2094.3083	8554.75	7666.3
939.8717	2095.8506	8521	7635.95
940.0079	2097.3921	8536	7649.35
940.1441	2098.933	8483.7	7598.95
940.2802	2100.4731	8471.6	7587.2
940.4163	2102.0124	8477.6	7576
940.5524	2103.5511	8424.55	7540.9
940.6885	2105.089	8414	7529.95
940.8245	2106.6261	8395.4	7511.85
940.9606	2108.1626	8383.9	7500.7
941.0965	2109.6983	8390.85	7479.2
941.2325	2111.2332	8353.65	7470
941.3684	2112.7675	8323.1	7438.75
941.5044	2114.301	8271.05	7387.1
941.6403	2115.8337	8266.25	7383.45
941.7761	2117.3657	8257.05	7373.5
941.912	2118.897	8241.55	7359.45
942.0478	2120.4276	8204.8	7316.1
942.1835	2121.9575	8182.7	7299.15
942.3193	2123.4866	8192.2	7294.3
942.455	2125.0149	8163.9	7279.55
942.5907	2126.5426	8097.4	7216.75
942.7264	2128.0695	8096.95	7211.8
942.8621	2129.5956	8104.05	7223.6
942.9977	2131.1211	8087	7200.95
943.1333	2132.6458	8064.9	7182.8
943.2689	2134.1698	8046.05	7163.35
943.4044	2135.693	8016.65	7130.05
943.54	2137.2155	8008.25	7123.7
943.6755	2138.7373	7990	7105.8
943.8109	2140.2584	7946.9	7063.65
943.9464	2141.7787	7919.05	7032.7
944.0818	2143.2983	7889.25	7011.4
944.2172	2144.8171	7852.45	6973.2
944.3526	2146.3353	7853.95	6973.15
944.4879	2147.8527	7840.65	6960.4
944.6232	2149.3693	7830.3	6947.3
944.7585	2150.8853	7802.15	6918.05
944.8938	2152.4005	7775.4	6891.5
945.029	2153.9149	7758.2	6873.3
945.1642	2155.4287	7721.85	6834.7
945.2994	2156.9417	7719.25	6836.65
945.4346	2158.454	7705.3	6820.35
945.5697	2159.9655	7663.1	6781.2
945.7048	2161.4764	7644.95	6762.35
945.8399	2162.9865	7614.05	6733.1
945.9749	2164.4958	7605.6	6724.95
946.1099	2166.0045	7584.9	6699.15
946.2449	2167.5124	7579.65	6699.9
946.3799	2169.0195	7553.35	6672.1
946.5148	2170.526	7542.35	6658.25
946.6498	2172.0317	7523.7	6641.4
946.7846	2173.5367	7485	6602.05
946.9195	2175.0409	7468.8	6587.75
947.0543	2176.5445	7468.35	6588.4
947.1891	2178.0473	7448.45	6565.55
947.3239	2179.5494	7384.55	6497.45
947.4587	2181.0507	7357.85	6475.7
947.5934	2182.5513	7339.55	6458.35
947.7281	2184.0512	7357.5	6473.85
947.8628	2185.5504	7343.05	6460.3
947.9974	2187.0488	7311.4	6428.35
948.132	2188.5465	7301.55	6419.6
948.2666	2190.0435	7256.75	6374.75
948.4012	2191.5397	7220.25	6338.65
948.5357	2193.0353	7215.95	6333.1
948.6702	2194.5301	7178.8	6293.25
948.8047	2196.0241	7151.75	6267.75
948.9392	2197.5175	7151	6267.95
949.0736	2199.0101	7117.95	6228.35
949.208	2200.502	7099.1	6218
949.3424	2201.9931	7051.5	6168.55
949.4767	2203.4835	7055.8	6173.8
949.611	2204.9733	7037.65	6148.7
949.7453	2206.4622	7008.4	6127.9
949.8796	2207.9505	6995.7	6113
950.0138	2209.438	6966.95	6089.1
950.148	2210.9248	6946.75	6063.85
950.2822	2212.4109	6922.25	6041.1
950.4164	2213.8962	6911.5	6025.85
950.5505	2215.3809	6887.95	6002.4
950.6846	2216.8648	6871.85	5986.35
950.8186	2218.3479	6849.5	5961.95
950.9527	2219.8304	6811.25	5923.5
951.0867	2221.3121	6826.95	5941.05
951.2207	2222.7931	6783.85	5900.05
951.3546	2224.2733	6767.4	5883.7
951.4886	2225.7529	6727.9	5843.7
951.6225	2227.2317	6718.95	5834.1
951.7563	2228.7098	6713.9	5832.05
951.8902	2230.1872	6678.75	5797.1
952.024	2231.6638	6658.45	5778.65
952.1578	2233.1397	6654.05	5767.1
952.2916	2234.6149	6627.15	5744.65
952.4253	2236.0894	6607.3	5724.7
952.559	2237.5632	6611.9	5721
952.6927	2239.0362	6569.55	5685.55
952.8263	2240.5085	6550.6	5668.75
952.9599	2241.9801	6512.5	5631.1
953.0935	2243.4509	6498.85	5615.1
953.2271	2244.921	6476.9	5594
953.3606	2246.3904	6470.4	5587.4
953.4941	2247.8591	6439.85	5556.75
953.6276	2249.3271	6432.8	5549.05
953.7611	2250.7943	6400.05	5514.85
953.8945	2252.2608	6366.05	5483.7
954.0279	2253.7266	6374.2	5489.4
954.1612	2255.1917	6358.35	5477.2
954.2946	2256.656	6345.45	5462.2
954.4279	2258.1197	6307.2	5426.65
954.5612	2259.5826	6303.9	5420.3
954.6944	2261.0447	6293.85	5411.6
954.8276	2262.5062	6258.75	5373.65
954.9608	2263.9669	6247.35	5363.65
955.094	2265.4269	6234.65	5351.8
955.2271	2266.8862	6237.65	5353.25
955.3602	2268.3448	6216	5333.35
955.4933	2269.8026	6201.65	5319.1
955.6264	2271.2598	6193.95	5314.7
955.7594	2272.7162	6169.75	5287.1
955.8924	2274.1719	6159.75	5277.25
956.0253	2275.6268	6128.6	5244.9
956.1583	2277.0811	6144.15	5260
956.2912	2278.5346	6098.45	5217.7
956.4241	2279.9874	6102.75	5220.3
956.5569	2281.4395	6098.5	5216.6
956.6897	2282.8908	6057.5	5169.9
956.8225	2284.3414	6062.5	5177.8
956.9553	2285.7914	6035.8	5153.85
957.088	2287.2406	6038.5	5154.5
957.2207	2288.689	5982.8	5099.6
957.3534	2290.1368	5984.05	5100.6
957.486	2291.5838	5957.9	5070.65
957.6186	2293.0302	5946.05	5062.05
957.7512	2294.4758	5920.6	5036.85
957.8838	2295.9206	5918.6	5033.4
958.0163	2297.3648	5888.3	5005.3
958.1488	2298.8082	5886.65	5000.6
958.2813	2300.251	5861.45	4977.85
958.4137	2301.693	5847.3	4962
958.5461	2303.1343	5826.2	4941.8
958.6785	2304.5748	5810.05	4925.85
958.8108	2306.0147	5804.85	4925.1
958.9432	2307.4538	5802	4917.9
959.0754	2308.8922	5767.55	4887.1
959.2077	2310.3299	5747.35	4864.35
959.3399	2311.7669	5749.55	4866.75
959.4721	2313.2031	5731.4	4849.05
959.6043	2314.6387	5701.8	4819.1
959.7365	2316.0735	5699.05	4816.75
959.8686	2317.5076	5670.2	4786.25
960.0006	2318.941	5670.75	4787.2
960.1327	2320.3737	5651.55	4767.1
960.2647	2321.8056	5636.55	4750.35
960.3967	2323.2369	5616.55	4732.1
960.5287	2324.6674	5604.2	4719.05
960.6606	2326.0972	5598	4715.4
960.7925	2327.5263	5568.2	4685.45
960.9244	2328.9547	5564.65	4681.15
961.0562	2330.3823	5543.6	4657.75
961.1881	2331.8092	5537.9	4650.05
961.3198	2333.2355	5505.1	4621.6
961.4516	2334.661	5524.05	4640.45
961.5833	2336.0858	5495.7	4610.4
961.715	2337.5098	5498.5	4615.45
961.8467	2338.9332	5490.1	4604.25
961.9783	2340.3558	5446.9	4559.9
962.1099	2341.7778	5427.05	4543.35
962.2415	2343.199	5402.4	4518.15
962.373	2344.6195	5412.15	4528.5
962.5045	2346.0393	5381.2	4498.8
962.636	2347.4583	5372.5	4490.6
962.7675	2348.8767	5359.9	4475.1
962.8989	2350.2943	5351.85	4469.2
963.0303	2351.7113	5358.9	4471.05
963.1617	2353.1275	5318.45	4432.7
963.293	2354.543	5309.9	4415.35
963.4243	2355.9578	5290.5	4406.1
963.5556	2357.3718	5256.55	4373.5
963.6868	2358.7852	5243.65	4359.3
963.818	2360.1978	5215.75	4332.1
963.9492	2361.6098	5226.2	4341.55
964.0803	2363.021	5206.15	4318.5
964.2114	2364.4315	5181	4298.4
964.3425	2365.8413	5182.4	4298
964.4736	2367.2504	5162.9	4281.55
964.6046	2368.6587	5134.35	4249.9
964.7356	2370.0664	5097.8	4215.65
964.8666	2371.4733	5109.4	4227.05
964.9975	2372.8795	5094.65	4211.8
965.1284	2374.285	5071.9	4188.75
965.2593	2375.6899	5042.9	4159.95
965.3901	2377.0939	5017.35	4135.55
965.5209	2378.4973	5005.1	4123.5
965.6517	2379.9	4995.8	4113.2
965.7825	2381.3019	4993.5	4110.45
965.9132	2382.7032	4987.6	4105.1
966.0439	2384.1037	4978.3	4098.15
966.1745	2385.5035	4964.05	4083.1
966.3051	2386.9027	4939.05	4057.75
966.4357	2388.3011	4916.1	4031.45
966.5663	2389.6987	4916.8	4035.85
966.6968	2391.0957	4893.35	4009.8
966.8273	2392.492	4849.4	3968.6
966.9578	2393.8876	4843.5	3959.4
967.0882	2395.2824	4834.65	3950.5
967.2186	2396.6765	4812.65	3929.6
967.349	2398.07	4802.55	3920.05
967.4793	2399.4627	4795.95	3911.15
967.6097	2400.8547	4782.65	3898.95
967.7399	2402.246	4760.55	3870.65
967.8702	2403.6366	4743.5	3858.6
968.0004	2405.0265	4739.55	3855.95
968.1306	2406.4156	4713.45	3828.25
968.2607	2407.8041	4704.15	3818.9
968.3909	2409.1918	4667.2	3781.45
968.521	2410.5789	4666.6	3784
968.651	2411.9652	4641.7	3757.3
968.781	2413.3508	4631.8	3748.05
968.911	2414.7358	4624.65	3740.45
969.041	2416.12	4611.2	3727.85
969.1709	2417.5035	4592.6	3708.05
969.3008	2418.8863	4577.05	3693.55
969.4307	2420.2684	4562.65	3679.5
969.5606	2421.6497	4550.7	3664.3
969.6904	2423.0304	4517.7	3635
969.8201	2424.4104	4521.15	3636.4
969.9499	2425.7896	4493.45	3608.1
970.0796	2427.1682	4493.65	3609.65
970.2093	2428.546	4495.5	3612.3
970.3389	2429.9232	4495.1	3612.2
970.4685	2431.2996	4463.25	3577.55
970.5981	2432.6753	4455.65	3570.7
970.7277	2434.0503	4453.8	3572.35
970.8572	2435.4246	4441.1	3556.4
970.9867	2436.7982	4421.75	3536.35
971.1161	2438.1711	4399.25	3517.65
971.2456	2439.5433	4392.55	3506.9
971.375	2440.9148	4372.65	3484.8
971.5043	2442.2856	4368.1	3485.35
971.6336	2443.6557	4369.15	3484.3
971.7629	2445.025	4339.5	3456.8
971.8922	2446.3937	4328.4	3445.1
972.0214	2447.7617	4301	3417.95
972.1506	2449.1289	4313.8	3429.8
972.2798	2450.4955	4302.9	3415.05
972.4089	2451.8613	4286.7	3404.4
972.538	2453.2265	4270.4	3386.65
972.6671	2454.5909	4263.25	3378.8
972.7961	2455.9546	4246.25	3364.2
972.9251	2457.3177	4238.95	3356.55
973.0541	2458.68	4236.4	3352.45
973.1831	2460.0416	4221.1	3336.35
973.312	2461.4025	4209.15	3324.9
973.4408	2462.7627	4227.55	3333.55
973.5697	2464.1222	4180.85	3301.55
973.6985	2465.4811	4179.75	3295.1
973.8273	2466.8392	4172.85	3290.45
973.956	2468.1966	4148	3261.75
974.0847	2469.5533	4142.85	3257.65
974.2134	2470.9093	4143.4	3259.25
974.3421	2472.2645	4136.35	3251.85
974.4707	2473.6191	4113.5	3230.3
974.5993	2474.973	4108.75	3226.2
974.7278	2476.3262	4087.8	3202.55
974.8563	2477.6787	4084.9	3203.7
974.9848	2479.0305	4057.95	3173.35
975.1132	2480.3816	4056.85	3172.85
975.2417	2481.7319	4049.9	3165.5
975.37	2483.0816	4026.4	3142.8
975.4984	2484.4306	4016.7	3134.2
975.6267	2485.7789	4010.9	3129.05
975.755	2487.1264	3991.05	3108.6
975.8833	2488.4733	3963.05	3083.35
976.0115	2489.8195	3969.35	3079.25
976.1397	2491.165	3959.3	3071.85
976.2678	2492.5097	3945.8	3063.5
976.3959	2493.8538	3921.5	3039.25
976.524	2495.1972	3925.55	3042
976.6521	2496.5398	3905.05	3019.75
976.7801	2497.8818	3898.25	3012.9
976.9081	2499.2231	3888.2	3004.2
977.036	2500.5637	3873.15	2989.4
977.164	2501.9035	3864.35	2978
977.2918	2503.2427	3853.85	2968.1
977.4197	2504.5812	3827	2943.55
977.5475	2505.919	3841	2956.1
977.6753	2507.256	3813.3	2929.9
977.8031	2508.5924	3801.95	2919.8
977.9308	2509.9281	3791.25	2902.35
978.0585	2511.2631	3791.85	2909.1
978.1861	2512.5974	3781.9	2897.15
978.3137	2513.9309	3770	2888
978.4413	2515.2638	3777.15	2865.55
978.5689	2516.596	3760.15	2877.2
978.6964	2517.9275	3743.95	2859.25
978.8239	2519.2583	3718.1	2834.15
978.9513	2520.5884	3708.15	2824.1
979.0788	2521.9178	3697.4	2812.1
979.2062	2523.2465	3708.4	2825.2
979.3335	2524.5745	3677.25	2794.7
979.4608	2525.9018	3679.35	2795.2
979.5881	2527.2284	3659.05	2776.5
979.7154	2528.5543	3662.5	2781.7
979.8426	2529.8796	3649.2	2763.95
979.9698	2531.2041	3648.85	2765
980.0969	2532.5279	3650.75	2768.6
980.224	2533.851	3626.95	2744.55
980.3511	2535.1735	3619.6	2736.2
980.4781	2536.4952	3604.85	2722.8
980.6052	2537.8163	3583.05	2699.05
980.7321	2539.1366	3580.7	2699.05
980.8591	2540.4562	3581.15	2696.85
980.986	2541.7752	3588.35	2704.8
981.1129	2543.0935	3566	2681.15
981.2397	2544.411	3564.55	2680.45
981.3665	2545.7279	3570.25	2687.45
981.4933	2547.0441	3561.5	2680.95
981.62	2548.3596	3554.4	2667.1
981.7467	2549.6744	3535	2652.8
981.8734	2550.9885	3537.2	2644.9
982.0001	2552.3019	3513.45	2630.4
982.1267	2553.6146	3519.25	2635.4
982.2532	2554.9266	3490.9	2605.1
982.3798	2556.2379	3497.3	2611.4
982.5063	2557.5485	3485.15	2602.05
982.6327	2558.8585	3490.45	2598.4
982.7592	2560.1677	3481.35	2593.75
982.8856	2561.4762	3465.05	2580.9
983.0119	2562.7841	3457.65	2570.8
983.1383	2564.0913	3450.15	2567.95
983.2646	2565.3977	3450.5	2566.55
983.3908	2566.7035	3434.9	2551.85
983.517	2568.0086	3443.25	2558.75
983.6432	2569.313	3433.4	2547.35
983.7694	2570.6167	3422.9	2535.05
983.8955	2571.9197	3411.35	2527.05
984.0216	2573.222	3412.25	2524.45
984.1476	2574.5236	3406.3	2521.85
984.2737	2575.8246	3404.85	2520
984.3996	2577.1248	3409.05	2524.65
984.5256	2578.4244	3391.05	2508.3
984.6515	2579.7232	3382.4	2497.25
984.7774	2581.0214	3404.9	2497.75
984.9032	2582.3189	3373.55	2489.55
985.029	2583.6157	3362.7	2475.1
985.1548	2584.9118	3374.65	2492.1
985.2806	2586.2072	3348.5	2466.25
985.4063	2587.5019	3354.45	2471.3
985.5319	2588.7959	3330.95	2446.65
985.6576	2590.0893	3330.4	2446.9
985.7832	2591.3819	3327.8	2445.7
985.9087	2592.6739	3300.6	2417
986.0343	2593.9652	3295.4	2411.45
986.1597	2595.2557	3278.45	2395.4
986.2852	2596.5456	3277.55	2391.9
986.4106	2597.8348	3263.5	2379.95
986.536	2599.1234	3259.85	2376.6
986.6614	2600.4112	3249.4	2364.95
986.7867	2601.6983	3247.15	2360.65
986.912	2602.9848	3236.65	2353.75
987.0372	2604.2705	3229.35	2338.8
987.1624	2605.5556	3221.35	2337.8
987.2876	2606.84	3199.75	2316.1
987.4128	2608.1237	3190.3	2305.75
987.5379	2609.4067	3185.15	2302.3
987.6629	2610.689	3172.45	2280.35
987.788	2611.9707	3170.9	2283.9
987.913	2613.2516	3151.35	2264.5
988.0379	2614.5319	3148	2266.15
988.1629	2615.8115	3128.15	2245.45
988.2878	2617.0903	3133.3	2250.25
988.4126	2618.3685	3117.4	2234.35
988.5375	2619.6461	3115.7	2232.6
988.6622	2620.9229	3104.15	2221.1
988.787	2622.199	3103.9	2219.75
988.9117	2623.4745	3095.1	2213.35
989.0364	2624.7493	3082.85	2198.15
989.161	2626.0234	3074.9	2193.4
989.2857	2627.2968	3056.5	2175.85
989.4102	2628.5695	3052.6	2169.9
989.5348	2629.8415	3038.1	2155
989.6593	2631.1128	3028.25	2144.1
989.7837	2632.3835	3015.7	2133.15
989.9082	2633.6535	3007.8	2124.35
990.0326	2634.9228	2993.05	2110.1
990.1569	2636.1914	2993.9	2111.05
990.2812	2637.4593	2997.05	2107.55
990.4055	2638.7265	2991.55	2108
990.5298	2639.9931	2991.15	2108.75
990.654	2641.259	2959.6	2075.75
990.7782	2642.5242	2963.7	2080.45
990.9023	2643.7887	2955.75	2072.15
991.0264	2645.0525	2951.15	2071.1
991.1505	2646.3156	2946.9	2065
991.2745	2647.5781	2925.3	2042.95
991.3985	2648.8398	2920.35	2039.2
991.5225	2650.1009	2924.6	2033.75
991.6464	2651.3613	2894.65	2013.3
991.7703	2652.6211	2902.5	2020.85
991.8942	2653.8801	2895.35	2012.5
992.018	2655.1385	2898.25	2011.95
992.1418	2656.3961	2891.1	2009.25
992.2655	2657.6531	2883.8	1999.4
992.3892	2658.9094	2871.55	1990.25
992.5129	2660.1651	2860.95	1979.5
992.6366	2661.42	2861.65	1978.95
992.7602	2662.6743	2861.35	1978.15
992.8837	2663.9279	2852.3	1970.6
993.0073	2665.1808	2853.05	1969.65
993.1307	2666.433	2839.5	1957.5
993.2542	2667.6846	2820.8	1937.1
993.3776	2668.9354	2838.45	1953.45
993.501	2670.1856	2827.05	1940.15
993.6244	2671.4351	2815.2	1933.5
993.7477	2672.6839	2802.5	1920.1
993.8709	2673.9321	2803.3	1921.85
993.9942	2675.1795	2796.15	1911.7
994.1174	2676.4263	2787.65	1905.35
994.2405	2677.6724	2780.15	1897.05
994.3637	2678.9179	2772.55	1889
994.4868	2680.1626	2770.9	1887.9
994.6098	2681.4067	2767.35	1884.7
994.7328	2682.6501	2752.8	1870.05
994.8558	2683.8928	2750.9	1869
994.9788	2685.1348	2737.7	1855.65
995.1017	2686.3761	2728.55	1845.6
995.2245	2687.6168	2728.2	1845.25
995.3474	2688.8568	2717.1	1835.85
995.4702	2690.0961	2705.75	1822.75
995.5929	2691.3348	2701.6	1819.55
995.7156	2692.5727	2708.85	1827.4
995.8383	2693.81	2683	1798.45
995.961	2695.0466	2688.75	1806.65
996.0836	2696.2826	2686.3	1804.25
996.2062	2697.5178	2686.4	1784.4
996.3287	2698.7524	2672.85	1790.4
996.4512	2699.9863	2671.95	1788.4
996.5737	2701.2195	2650.3	1770.75
996.6961	2702.452	2651.35	1765.9
996.8185	2703.6839	2656.2	1774.8
996.9408	2704.9151	2641.45	1759.75
997.0631	2706.1456	2638.7	1756.05
997.1854	2707.3755	2620.95	1739.65
997.3077	2708.6046	2624.2	1738
997.4299	2709.8331	2626.3	1742.7
997.552	2711.0609	2609.7	1727.4
997.6742	2712.2881	2598.1	1716.5
997.7963	2713.5145	2603.4	1719.3
997.9183	2714.7403	2596.05	1715.65
998.0403	2715.9654	2587.05	1703.45
998.1623	2717.1899	2566.2	1680.95
998.2842	2718.4136	2578.85	1696.65
998.4062	2719.6367	2572.25	1689.3
998.528	2720.8591	2577.85	1688.2
998.6498	2722.0809	2559.15	1676.7
998.7716	2723.3019	2545.6	1658.9
998.8934	2724.5223	2548.9	1667.1
999.0151	2725.7421	2543	1660.1
999.1368	2726.9611	2537.85	1653.3
999.2584	2728.1795	2535.65	1650
999.38	2729.3972	2522.5	1640.9
999.5016	2730.6142	2521.55	1632.2
999.6231	2731.8306	2501.75	1616.45
999.7446	2733.0462	2502.1	1616.8
999.8661	2734.2612	2487.05	1600.15
999.9875	2735.4756	2472.35	1587.8
1000.1089	2736.6892	2468.7	1585.2
1000.2302	2737.9022	2459.4	1579
1000.3515	2739.1145	2457.5	1573.65
1000.4728	2740.3262	2450.85	1560.35
1000.594	2741.5372	2434	1551.8
1000.7152	2742.7475	2411.95	1529.1
1000.8363	2743.9571	2430.6	1547.85
1000.9575	2745.1661	2418.3	1530.1
1001.0785	2746.3744	2404.95	1520.4
1001.1996	2747.582	2393.35	1511.2
1001.3206	2748.7889	2395.65	1511.25
1001.4415	2749.9952	2388.8	1505.7
1001.5625	2751.2008	2390.65	1509.2
1001.6833	2752.4057	2384.65	1499.45
1001.8042	2753.61	2376.45	1494.15
1001.925	2754.8136	2367.4	1483.25
1002.0458	2756.0165	2363.35	1482.45
1002.1665	2757.2188	2356	1475.95
1002.2872	2758.4204	2343.85	1460.4
1002.4078	2759.6213	2344.05	1462.3
1002.5285	2760.8215	2340.95	1456.55
1002.649	2762.0211	2336.55	1450.6
1002.7696	2763.22	2327.6	1440.4
1002.8901	2764.4182	2316.75	1432.65
1003.0106	2765.6158	2323.65	1439.95
1003.131	2766.8127	2302.1	1419.5
1003.2514	2768.009	2305.65	1421.05
1003.3717	2769.2045	2290.05	1407.45
1003.492	2770.3994	2292.95	1408.55
1003.6123	2771.5936	2289.1	1407.9
1003.7325	2772.7872	2276.75	1396.85
1003.8527	2773.9801	2269.25	1384.15
1003.9729	2775.1723	2281.95	1383.25
1004.093	2776.3639	2266.05	1383.15
1004.2131	2777.5548	2244.15	1359.8
1004.3331	2778.745	2248.85	1365.15
1004.4531	2779.9346	2254.9	1375.25
1004.5731	2781.1235	2241.25	1359.2
1004.693	2782.3117	2246.15	1365.8
1004.8129	2783.4992	2227.1	1344.5
1004.9328	2784.6861	2225.45	1346.1
1005.0526	2785.8723	2220.05	1337.8
1005.1723	2787.0579	2221.5	1340.4
1005.2921	2788.2428	2219.7	1338.45
1005.4118	2789.427	2201.35	1320.75
1005.5314	2790.6106	2205.55	1323.05
1005.651	2791.7935	2200.7	1317.75
1005.7706	2792.9757	2193.6	1313.05
1005.8902	2794.1573	2180.45	1296.65
1006.0097	2795.3382	2191	1309.85
1006.1291	2796.5184	2181.85	1301.4
1006.2485	2797.698	2174.05	1289.5
1006.3679	2798.8769	2183.4	1304.2
1006.4873	2800.0551	2171.55	1290.6
1006.6066	2801.2327	2166.5	1282.3
1006.7258	2802.4096	2158.8	1279.3
1006.8451	2803.5859	2159.3	1277.15
1006.9642	2804.7615	2160.9	1279.5
1007.0834	2805.9364	2159.45	1278.7
1007.2025	2807.1106	2158.15	1278.55
1007.3216	2808.2842	2156.25	1273.2
1007.4406	2809.4572	2158.15	1275.45
1007.5596	2810.6294	2155.4	1271.4
1007.6785	2811.801	2151.35	1272.5
1007.7975	2812.972	2164.7	1282.4
1007.9163	2814.1423	2153.3	1273
1008.0352	2815.3119	2162.1	1278.6
1008.154	2816.4808	2166.65	1286.55
1008.2727	2817.6491	2174.4	1293.05
1008.3914	2818.8167	2169.25	1289.4
1008.5101	2819.9837	2183.75	1299.05
1008.6288	2821.15	2190.25	1309.8
1008.7474	2822.3157	2192.9	1313
1008.8659	2823.4807	2208.45	1326.6
1008.9844	2824.645	2205.65	1323.85
1009.1029	2825.8086	2211.4	1330.45
1009.2214	2826.9716	2217.45	1335.55
1009.3398	2828.134	2225.75	1345.25
1009.4581	2829.2957	2228.1	1346.1
1009.5764	2830.4567	2234.05	1356.05
1009.6947	2831.617	2236.95	1354.65
1009.813	2832.7767	2232.95	1351.6
1009.9312	2833.9358	2233.75	1353.4
1010.0493	2835.0941	2232	1349.35
1010.1675	2836.2519	2222.65	1343.15
1010.2855	2837.4089	2214.4	1332.35
1010.4036	2838.5653	2203.7	1324.1
1010.5216	2839.7211	2210.75	1330.65
1010.6396	2840.8761	2210.25	1326.15
1010.7575	2842.0306	2207.8	1328.5
1010.8754	2843.1843	2208.3	1327.25
1010.9932	2844.3374	2203.45	1321.05
1011.111	2845.4899	2212.7	1332.15
1011.2288	2846.6417	2214.1	1333.8
1011.3465	2847.7928	2230.5	1350.85
1011.4642	2848.9433	2230.45	1349.2
1011.5818	2850.0931	2236.9	1355.05
1011.6995	2851.2422	2252.2	1371.1
1011.817	2852.3907	2257.5	1375.9
1011.9345	2853.5385	2258.5	1376.95
1012.052	2854.6857	2273.8	1381.15
1012.1695	2855.8323	2269	1388.55
1012.2869	2856.9781	2260.75	1378.75
1012.4042	2858.1233	2270.65	1389.7
1012.5216	2859.2679	2277.5	1395.55
1012.6389	2860.4118	2282.4	1400.65
1012.7561	2861.555	2292.15	1406.05
1012.8733	2862.6976	2289.4	1408.2
1012.9905	2863.8395	2298.55	1418.9
1013.1076	2864.9808	2300.25	1418.65
1013.2247	2866.1214	2303.1	1422.95
1013.3417	2867.2614	2304.95	1422.65
1013.4587	2868.4007	2295.05	1411.7
1013.5757	2869.5393	2300.65	1417.25
1013.6926	2870.6773	2289.15	1405.95
1013.8095	2871.8146	2299.4	1415.05
1013.9263	2872.9513	2281.6	1398.4
1014.0431	2874.0874	2272.25	1391.3
1014.1599	2875.2227	2261.15	1380.15
1014.2766	2876.3574	2262.9	1381.45
1014.3933	2877.4915	2254.25	1374.8
1014.51	2878.6249	2246.5	1366.4
1014.6266	2879.7577	2243.1	1360.15
1014.7431	2880.8898	2241.1	1350.1
1014.8596	2882.0212	2215.35	1337.05
1014.9761	2883.152	2214.45	1333.3
1015.0925	2884.2821	2208.65	1329.65
1015.2089	2885.4116	2203.2	1323.45
1015.3253	2886.5405	2199.25	1318.15
1015.4416	2887.6686	2204.7	1319.4
1015.5579	2888.7962	2197.4	1316.25
1015.6741	2889.923	2195.55	1315.85
1015.7903	2891.0493	2192.45	1312.2
1015.9065	2892.1748	2186.35	1306.2
1016.0226	2893.2997	2192.05	1309.4
1016.1387	2894.424	2187.65	1309.6
1016.2547	2895.5476	2184.95	1303.8
1016.3707	2896.6706	2174.1	1293.6
1016.4866	2897.7929	2183.75	1302.05
1016.6025	2898.9145	2181.85	1300.35
1016.7184	2900.0355	2185.85	1304.6
1016.8342	2901.1559	2167.6	1284.9
1016.95	2902.2756	2179.4	1299.4
1017.0658	2903.3946	2191	1310.85
1017.1815	2904.513	2190.55	1307.5
1017.2971	2905.6308	2192.2	1312.95
1017.4127	2906.7479	2192.4	1311.95
1017.5283	2907.8643	2179.65	1297.2
1017.6439	2908.9801	2179.35	1299.15
1017.7594	2910.0953	2177.15	1294.6
1017.8748	2911.2098	2185.6	1301.85
1017.9902	2912.3236	2179.6	1290.1
1018.1056	2913.4368	2168.2	1283.65
1018.2209	2914.5494	2158.9	1280.35
1018.3362	2915.6613	2157.9	1271.8
1018.4515	2916.7725	2135	1250.7
1018.5667	2917.8831	2136.8	1255.15
1018.6819	2918.9931	2125.85	1243.85
1018.797	2920.1024	2118.65	1238.3
1018.9121	2921.211	2108.1	1228.4
1019.0271	2922.319	2098.2	1217.2
1019.1421	2923.4264	2101.35	1221.7
1019.2571	2924.5331	2097.45	1218.7
1019.372	2925.6391	2095	1213.35
1019.4869	2926.7445	2086.2	1207.45
1019.6017	2927.8493	2084.25	1203.8
1019.7165	2928.9534	2081.95	1199.45
1019.8313	2930.0569	2083.55	1200.3
1019.946	2931.1597	2082.7	1200.85
1020.0606	2932.2619	2077.5	1196.7
1020.1753	2933.3634	2077.9	1197.8
1020.2899	2934.4643	2088.9	1202.75
1020.4044	2935.5645	2078.45	1191.2
1020.5189	2936.6641	2064.8	1180
1020.6334	2937.763	2044.35	1166.05
1020.7478	2938.8613	2044.6	1164
1020.8622	2939.959	2030.9	1143.5
1020.9765	2941.056	2016.05	1137.15
1021.0908	2942.1523	2001.05	1119.7
1021.2051	2943.248	1991.4	1110.1
1021.3193	2944.3431	1960.65	1080.05
1021.4334	2945.4375	1943.1	1062.25
1021.5476	2946.5313	1919.85	1041
1021.6617	2947.6244	1891.45	1010.5
1021.7757	2948.7169	1876.55	995.6
1021.8897	2949.8087	1857.5	978.1
1022.0037	2950.8999	1834.9	953.55
1022.1176	2951.9904	1828	948.6
1022.2315	2953.0803	1804.55	924.55
1022.3453	2954.1696	1786.3	904.2
1022.4591	2955.2582	1795.9	916.65
1022.5728	2956.3462	1772.9	893.55
1022.6865	2957.4335	1758.05	877.5
1022.8002	2958.5202	1754.3	872.75
1022.9138	2959.6062	1739.95	859.9
1023.0274	2960.6916	1737.4	857.35
1023.141	2961.7764	1729.5	850.05
1023.2545	2962.8605	1729.7	850.15
1023.3679	2963.9439	1723.9	843.6
1023.4813	2965.0267	1714.45	832.75
1023.5947	2966.1089	1734.1	827.65
1023.708	2967.1905	1706.85	826.45
1023.8213	2968.2714	1701.35	821.85
1023.9346	2969.3516	1692.9	811.75
1024.0478	2970.4312	1705.3	818.05
1024.1609	2971.5102	1688.5	811.2
1024.274	2972.5885	1700.95	822.7
1024.3871	2973.6662	1698.95	814.1
1024.5002	2974.7432	1682.9	804.25
1024.6132	2975.8196	1682.85	802.55
1024.7261	2976.8954	1672.85	792.45
1024.839	2977.9705	1675.7	795
1024.9519	2979.045	1669.25	790.15
1025.0647	2980.1188	1664.9	786.4
1025.1775	2981.192	1657.35	780.25
1025.2902	2982.2645	1655.45	775.15
1025.4029	2983.3364	1650.8	772.8
1025.5156	2984.4077	1636.3	757.05
1025.6282	2985.4783	1635.5	748.85
1025.7407	2986.5483	1618.4	739.55
1025.8532	2987.6177	1610.6	730.8
1025.9657	2988.6864	1606.1	723.85
1026.0782	2989.7545	1598.55	717.25
1026.1906	2990.8219	1593.85	713.6
1026.3029	2991.8887	1593.7	710.85
1026.4152	2992.9548	1567.55	688.75
1026.5275	2994.0204	1560.3	683.2
1026.6397	2995.0852	1553.6	675.75
1026.7519	2996.1495	1556.05	676.4
1026.864	2997.2131	1540.4	659.35
1026.9761	2998.276	1533.95	653.3
1027.0882	2999.3383	1532.6	652.75
1027.2002	3000.4	1527.3	644.8
1027.3122	3001.4611	1521.65	640.9
1027.4241	3002.5215	1520	639.6
1027.536	3003.5812	1510.35	630.25
1027.6478	3004.6404	1509.7	630.4
1027.7596	3005.6989	1504.4	622.4
1027.8714	3006.7567	1504.4	624.35
1027.9831	3007.8139	1517.85	607.45
1028.0947	3008.8705	1485.05	605.15
1028.2064	3009.9264	1488.35	604.55
1028.3179	3010.9818	1478.3	598
1028.4295	3012.0364	1473.75	592.4
1028.541	3013.0905	1478.7	599.9
1028.6524	3014.1439	1475.55	596.6
1028.7638	3015.1966	1468.75	588.85
1028.8752	3016.2487	1472.65	592.8
1028.9865	3017.3002	1463.2	580.5
1029.0978	3018.3511	1455.2	576.4
1029.209	3019.4013	1457.9	578.65
1029.3202	3020.4509	1458.35	579.05
1029.4314	3021.4998	1455.75	577.55
1029.5425	3022.5481	1448	566.6
1029.6535	3023.5958	1451.75	573.15
1029.7645	3024.6428	1448.65	568.75
1029.8755	3025.6892	1442.2	562
1029.9864	3026.735	1437.95	559.05
1030.0973	3027.7802	1436.3	555.35
1030.2082	3028.8247	1437.65	558.1
1030.319	3029.8685	1437.1	556.35
1030.4297	3030.9118	1433.8	552.6
1030.5404	3031.9544	1429.15	549.8
1030.6511	3032.9963	1422.35	542.7
1030.7617	3034.0376	1429.45	551.4
1030.8723	3035.0783	1428.5	547.35
1030.9829	3036.1184	1419.45	538.25
1031.0934	3037.1578	1421.25	542
1031.2038	3038.1966	1419.8	539.45
1031.3142	3039.2348	1416.9	538.45
1031.4246	3040.2723	1423.1	532.7
1031.5349	3041.3092	1408.8	530.05
1031.6452	3042.3455	1406.75	525.7
1031.7554	3043.3811	1411.05	531.75
1031.8656	3044.4161	1405.55	524.8
1031.9758	3045.4505	1411.85	533.7
1032.0859	3046.4842	1401.65	522.2
1032.1959	3047.5173	1398.15	518.9
1032.3059	3048.5498	1401.5	522
1032.4159	3049.5816	1391.1	512
1032.5258	3050.6128	1394.4	514
1032.6357	3051.6434	1394.4	513
1032.7455	3052.6734	1391.45	512.15
1032.8553	3053.7027	1384.9	504.65
1032.9651	3054.7314	1381.95	501.75
1033.0748	3055.7594	1380.1	502.25
1033.1845	3056.7868	1378.35	497.9
1033.2941	3057.8136	1370.1	490.65
1033.4037	3058.8398	1367.9	490.45
1033.5132	3059.8653	1373.2	492.8
1033.6227	3060.8902	1363.8	484.8
1033.7321	3061.9145	1369.45	488.55
1033.8415	3062.9381	1364.4	484.9
1033.9509	3063.9612	1376.8	479.3
1034.0602	3064.9835	1364.35	484.4
1034.1694	3066.0053	1359.7	477.1
1034.2787	3067.0264	1350.15	470.55
1034.3878	3068.0469	1353.1	471.2
1034.497	3069.0668	1360.15	478.45
1034.6061	3070.086	1347.85	471.1
1034.7151	3071.1046	1350.9	472
1034.8241	3072.1226	1336.5	456.35
1034.9331	3073.1399	1337.25	457.75
1035.042	3074.1567	1335.95	455.35
1035.1508	3075.1727	1335.95	453.65
1035.2597	3076.1882	1334.5	454.2
1035.3684	3077.203	1332.1	453.5
1035.4772	3078.2173	1333.2	452.75
1035.5859	3079.2308	1326.5	443.3
1035.6945	3080.2438	1323.3	441.75
1035.8031	3081.2561	1313.35	434.65
1035.9117	3082.2678	1315.95	436.55
1036.0202	3083.2789	1310.95	431.15
1036.1286	3084.2893	1306.25	427.1
1036.2371	3085.2991	1310.3	430.3
1036.3454	3086.3083	1309.4	425
1036.4538	3087.3169	1304.5	424.65
1036.562	3088.3248	1299.1	416.65
1036.6703	3089.3321	1297.95	416.35
1036.7785	3090.3388	1291.2	411.65
1036.8866	3091.3449	1294.85	416.1
1036.9948	3092.3503	1296.8	415.2
1037.1028	3093.3551	1284.15	406.45
1037.2108	3094.3593	1287.75	408.7
1037.3188	3095.3629	1280.95	401.35
1037.4267	3096.3658	1286.4	407.1
1037.5346	3097.3681	1281.45	403.6
1037.6425	3098.3698	1276.25	393.2
1037.7503	3099.3708	1276.6	391.5
1037.858	3100.3713	1272.65	394.7
1037.9657	3101.3711	1265.4	383.95
1038.0734	3102.3702	1394.2	377.3
1038.181	3103.3688	1269.45	388.45
1038.2886	3104.3667	1260.1	383.7
1038.3961	3105.364	1260.05	382.15
1038.5036	3106.3607	1259.7	378.6
1038.611	3107.3568	1256.6	376
1038.7184	3108.3522	1254.25	375.15
1038.8257	3109.347	1250.45	371.55
1038.933	3110.3412	1250.7	367.35
1039.0403	3111.3348	1244.8	365.35
1039.1475	3112.3277	1242.85	365
1039.2547	3113.32	1241.3	361.55
1039.3618	3114.3117	1240.2	358.95
1039.4689	3115.3028	1233.95	354.75
1039.5759	3116.2932	1236.8	354
1039.6829	3117.2831	1230.55	346.85
1039.7898	3118.2723	1226.2	347.8
1039.8967	3119.2608	1225.2	345.3
1040.0035	3120.2488	1225.3	344.15
1040.1103	3121.2361	1221.5	341.25
1040.2171	3122.2229	1218.75	336.8
1040.3238	3123.209	1225.25	346.4
1040.4305	3124.1944	1216.6	337.8
1040.5371	3125.1793	1217.95	338.9
1040.6437	3126.1635	1217	339.1
1040.7502	3127.1471	1210.7	332.45
1040.8567	3128.1301	1204.5	325.95
1040.9631	3129.1125	1206.7	327.3
1041.0695	3130.0942	1204.2	324.2
1041.1759	3131.0753	1215.7	327
1041.2822	3132.0558	1212.6	329.75
1041.3884	3133.0357	1203.7	322.85
1041.4946	3134.015	1204.55	324.5
1041.6008	3134.9936	1204.55	322
1041.7069	3135.9716	1219.6	318.9
1041.813	3136.949	1197.45	318.05
1041.919	3137.9258	1203.2	317.95
1042.025	3138.902	1201.25	317.6
1042.1309	3139.8775	1192.85	315.55
1042.2368	3140.8524	1192.55	312.3
1042.3427	3141.8267	1197.9	314.65
1042.4485	3142.8004	1188.15	309.05
1042.5542	3143.7735	1195.25	311.55
1042.6599	3144.7459	1182.95	304.55
1042.7656	3145.7178	1191.25	310.15
1042.8712	3146.689	1183.1	305.1
1042.9768	3147.6596	1186.25	304.9
1043.0823	3148.6295	1182.3	301.9
1043.1878	3149.5989	1173.15	293.8
1043.2932	3150.5676	1180.15	302.4
1043.3986	3151.5357	1178.1	300.85
1043.5039	3152.5032	1176.1	298.75
1043.6092	3153.4701	1174.25	296.7
1043.7145	3154.4364	1176.95	294.95
1043.8197	3155.402	1166.65	288.15
1043.9248	3156.367	1167.25	283.5
1044.03	3157.3315	1206.45	288.25
1044.135	3158.2952	1165.6	285.25
1044.24	3159.2584	1160.05	281.2
1044.345	3160.221	1159.8	278.15
1044.4499	3161.1829	1160.15	280.25
1044.5548	3162.1442	1158.85	279.3
1044.6596	3163.105	1154.75	277.4
1044.7644	3164.065	1151.45	271.5
1044.8692	3165.0245	1154.3	271.85
1044.9739	3165.9834	1151.25	273.85
1045.0785	3166.9416	1151.3	275.15
1045.1831	3167.8993	1148.9	269.05
1045.2877	3168.8563	1150.2	270.7
1045.3922	3169.8127	1142.95	263.8
1045.4966	3170.7684	1142.3	262.75
1045.6011	3171.7236	1148	267.7
1045.7054	3172.6782	1144.25	263.75
1045.8098	3173.6321	1144.65	263.95
1045.914	3174.5854	1140.7	255.9
1046.0183	3175.5381	1136.65	257.6
1046.1224	3176.4902	1135.45	257.3
1046.2266	3177.4417	1139.85	258.7
1046.3307	3178.3926	1125.65	249.3
1046.4347	3179.3428	1132.05	254.45
1046.5387	3180.2924	1130.75	252.7
1046.6427	3181.2415	1129.4	249.4
1046.7466	3182.1899	1127.75	246.75
1046.8504	3183.1377	1128.85	251.5
1046.9542	3184.0848	1125.55	241.5
1047.058	3185.0314	1125.9	245.6
1047.1617	3185.9773	1123.9	242.85
1047.2654	3186.9227	1123.1	244.35
1047.369	3187.8674	1119.7	239.8
1047.4726	3188.8115	1120.6	237.85
1047.5761	3189.755	1113.7	234.6
1047.6796	3190.6979	1116	236.8
1047.783	3191.6402	1109.8	231.25
1047.8864	3192.5818	1115.45	235.8
1047.9898	3193.5229	1127.55	231.6
1048.0931	3194.4633	1113.3	234.15
1048.1963	3195.4031	1111.85	230
1048.2995	3196.3423	1111.05	232.75
1048.4027	3197.2809	1109.1	226.95
1048.5058	3198.2189	1106.1	228.15
1048.6089	3199.1563	1125	228.7
1048.7119	3200.0931	1099	221.65
1048.8148	3201.0292	1094.45	217
1048.9178	3201.9648	1107.35	229.25
1049.0206	3202.8997	1101.2	219.1
1049.1235	3203.834	1102.7	222.65
1049.2262	3204.7677	1097.95	221
1049.329	3205.7008	1099	217
1049.4317	3206.6333	1098	219.2
1049.5343	3207.5652	1095.45	214.25
1049.6369	3208.4964	1097.3	217.75
1049.7394	3209.4271	1096.95	219.05
1049.8419	3210.3571	1092.1	213.55
1049.9444	3211.2865	1089.85	211.15
1050.0468	3212.2154	1088.75	209.1
1050.1491	3213.1436	1090.4	207.95
1050.2514	3214.0712	1095.8	210.15
1050.3537	3214.9982	1086.75	207.25
1050.4559	3215.9246	1085.95	205.95
1050.5581	3216.8503	1083.65	205.5
1050.6602	3217.7755	1082	202.6
1050.7623	3218.7001	1084.85	206
1050.8643	3219.624	1080.05	201.45
1050.9663	3220.5473	1081.1	202.75
1051.0682	3221.4701	1076.95	197.8
1051.1701	3222.3922	1079.35	199
1051.2719	3223.3137	1075.75	197.4
1051.3737	3224.2346	1077.1	199.4
1051.4754	3225.1549	1073.35	194.2
1051.5771	3226.0746	1074	195.4
1051.6788	3226.9937	1072	192.7
1051.7804	3227.9121	1067.85	189.55
1051.8819	3228.83	1067.2	189.75
1051.9834	3229.7473	1068.2	188.8
1052.0849	3230.6639	1067.25	188.6
1052.1863	3231.5799	1065.4	186.05
1052.2876	3232.4954	1066.8	186.05
1052.3889	3233.4102	1062.1	182.85
1052.4902	3234.3244	1061.85	182.65
1052.5914	3235.238	1064.6	184.7
1052.6926	3236.151	1082.95	182.6
1052.7937	3237.0634	1060.35	182.75
1052.8948	3237.9752	1059.9	181.6
1052.9958	3238.8864	1057.55	176.6
1053.0968	3239.797	1055.1	177.25
1053.1977	3240.7069	1056.95	177
1053.2986	3241.6163	1056.45	174.7
1053.3994	3242.5251	1050.75	172.35
1053.5002	3243.4332	1051.65	173.9
1053.6009	3244.3408	1053.25	174.95
1053.7016	3245.2477	1050.4	172.4
1053.8022	3246.154	1050.4	171.7
1053.9028	3247.0598	1049.3	169.65
1054.0034	3247.9649	1051.35	172.65
1054.1039	3248.8694	1047.35	167.3
1054.2043	3249.7733	1043.05	163.9
1054.3047	3250.6766	1045.35	165.4
1054.4051	3251.5793	1044.2	165.6
1054.5054	3252.4814	1042.25	163.75
1054.6056	3253.3829	1042.85	165.05
1054.7058	3254.2838	1041.5	163.75
1054.806	3255.1841	1044.5	166.7
1054.9061	3256.0838	1036.75	158.5
1055.0061	3256.9829	1036.5	158.55
1055.1062	3257.8814	1036.7	155.35
1055.2061	3258.7792	1033.85	154
1055.306	3259.6765	1034.95	154.65
1055.4059	3260.5731	1032.1	152.95
1055.5057	3261.4692	1031.1	151.3
1055.6055	3262.3647	1029.45	150.35
1055.7052	3263.2595	1024.55	147.05
1055.8049	3264.1538	1025.45	147.6
1055.9045	3265.0474	1021.8	142.5
1056.0041	3265.9404	1016.65	139
1056.1036	3266.8329	1019.25	140.25
1056.2031	3267.7247	1026.4	136.8
1056.3025	3268.616	1010.9	131.85
1056.4019	3269.5066	1009.2	128.35
1056.5013	3270.3966	1004.95	123.3
1056.6005	3271.286	1003.85	124.55
