Software Version:	3.9.2.0
Unit SN:	10000200
Spectrometer SN:	6960
Date:	3/6/2024 10:49:01 AM
Data Line Index:	25
Spectral Points:	2048
Integration time (ms):	125
Averages:	20
Delay (ms):	30
Sequence Number:	1
Processing:	dark subtract
Laser Power (mW):	305
Laser Current (mA):	821
Laser Diode Temp (C):	25.1
Laser Case Temp (C):	27.5
System Temp (C):	27.3
Spectrometer Temp (C):	24.7
CCD Temp (C):	-0.006
Secondary Temp (C):	20.007
Heatsink Temp (C):	22.949
CCDPCB Temp (C):	36.752
SecondaryPCB Temp (C):	34.306

Wavelength	RamanShift	Raw Counts	Dark Subtracted
787.061	30.1047	1151.4	737.45
787.2016	32.3739	1182.5	769.3
787.3422	34.6426	1221.7	806.2
787.4828	36.9109	1275.75	861.2
787.6235	39.1787	1328.2	908.9
787.7642	41.4461	1399.85	976.4
787.9049	43.7131	1460	1031.55
788.0456	45.9796	1523.4	1094.35
788.1863	48.2456	1597.75	1164.15
788.3271	50.5112	1663.3	1225.5
788.4679	52.7764	1735.2	1294.95
788.6087	55.0411	1824.3	1381.75
788.7496	57.3054	1905	1455.65
788.8904	59.5692	2003.9	1553.65
789.0313	61.8326	2096.95	1641.7
789.1722	64.0955	2215.55	1755.75
789.3132	66.3579	2343.15	1879.6
789.4541	68.6199	2496.35	2030.35
789.5951	70.8815	2763.25	2293.1
789.7361	73.1426	3293.7	2820
789.8771	75.4032	4628.8	4149.05
790.0181	77.6634	8027.9	7543.6
790.1592	79.9231	16963.05	16473.7
790.3003	82.1824	55825.55	55325.15
790.4414	84.4412	65535	65023.4
790.5825	86.6995	65535	64998.55
790.7237	88.9574	65535	64979.6
790.8648	91.2148	65535	64963.6
791.006	93.4717	65535	64950
791.1472	95.7282	65535	64946.15
791.2885	97.9842	65535	64942.45
791.4297	100.2398	65535	64940.05
791.571	102.4949	65535	64939.15
791.7123	104.7495	65535	64935.8
791.8536	107.0036	65535	64932.95
791.9949	109.2573	65535	64933.8
792.1363	111.5105	65535	64931.85
792.2777	113.7632	65535	64930.85
792.4191	116.0154	65535	64915.9
792.5605	118.2672	65535	64928.95
792.7019	120.5185	65535	64924.2
792.8434	122.7693	65535	64924.95
792.9849	125.0197	65535	64916.75
793.1264	127.2696	65535	64914.6
793.2679	129.519	65535	64912.65
793.4094	131.7679	65535	64909.5
793.551	134.0163	65535	64904.95
793.6926	136.2642	65535	64900.4
793.8342	138.5117	65535	64890.55
793.9758	140.7587	65535	64896.55
794.1175	143.0052	65535	64893.4
794.2591	145.2512	65535	64894.4
794.4008	147.4967	65535	64894.6
794.5425	149.7417	65535	64889.1
794.6842	151.9863	65535	64886.25
794.826	154.2304	65535	64882.75
794.9677	156.4739	65535	64877.4
795.1095	158.717	65535	64878.5
795.2513	160.9596	65535	64872.7
795.3931	163.2017	65535	64872.2
795.535	165.4433	65535	64872.6
795.6768	167.6844	65535	64868.6
795.8187	169.925	65535	64865.5
795.9606	172.1651	65535	64860.7
796.1025	174.4047	65535	64855.95
796.2445	176.6439	65535	64855.5
796.3864	178.8825	65535	64855.05
796.5284	181.1206	65535	64852.6
796.6704	183.3582	65535	64846
796.8124	185.5954	65535	64846.7
796.9544	187.832	65535	64842.1
797.0965	190.0681	65535	64838.85
797.2386	192.3037	65535	64838.65
797.3806	194.5388	65535	64833.25
797.5228	196.7734	65535	64830.4
797.6649	199.0075	65535	64825.15
797.807	201.2411	65535	64826.4
797.9492	203.4742	65535	64826.85
798.0914	205.7068	65535	64829.6
798.2336	207.9389	65535	64820.6
798.3758	210.1704	65535	64817.2
798.518	212.4015	65535	64818.4
798.6603	214.632	65535	64825.7
798.8025	216.862	65535	64836.5
798.9448	219.0915	65535	64844.8
799.0871	221.3205	65535	64837.85
799.2294	223.549	65535	64841.75
799.3718	225.777	65535	64840.05
799.5141	228.0044	65535	64836.8
799.6565	230.2314	65535	64838.8
799.7989	232.4578	65535	64834.7
799.9413	234.6837	65535	64827
800.0837	236.909	65535	64823.45
800.2262	239.1339	65535	64800.95
800.3687	241.3582	65535	64815.6
800.5111	243.582	65535	64781.4
800.6536	245.8053	65535	64797.25
800.7961	248.0281	65535	64801.8
800.9387	250.2503	65535	64795.55
801.0812	252.472	65535	64792.75
801.2238	254.6932	65535	64791.15
801.3664	256.9139	65535	64792.8
801.509	259.134	65535	64785.3
801.6516	261.3536	65535	64789.45
801.7942	263.5727	65535	64783.6
801.9369	265.7912	65535	64791
802.0795	268.0092	65535	64789.85
802.2222	270.2267	65535	64784.35
802.3649	272.4436	65535	64786.15
802.5076	274.6601	65535	64775.95
802.6504	276.8759	65535	64781.05
802.7931	279.0913	65535	64780.1
802.9359	281.3061	65535	64777.25
803.0787	283.5204	65535	64775.9
803.2215	285.7341	65535	64773.3
803.3643	287.9473	65535	64760.45
803.5071	290.16	65535	64765.7
803.6499	292.3721	65535	64773.15
803.7928	294.5837	65535	64771.65
803.9357	296.7947	65535	64773.5
804.0786	299.0052	65535	64769.6
804.2215	301.2152	65535	64766.7
804.3644	303.4246	65535	64771.65
804.5074	305.6334	65535	64769.2
804.6503	307.8418	65535	64764.9
804.7933	310.0495	65535	64766.85
804.9363	312.2568	65535	64767.1
805.0793	314.4635	65535	64765.35
805.2223	316.6696	65535	64765.35
805.3653	318.8752	65535	64753.8
805.5084	321.0802	65535	64762.65
805.6514	323.2847	65535	64762.6
805.7945	325.4887	65535	64757.95
805.9376	327.692	65535	64756.4
806.0807	329.8949	65535	64756.4
806.2238	332.0972	65535	64752.6
806.367	334.2989	65535	64751.3
806.5101	336.5001	65535	64751.35
806.6533	338.7007	65535	64750.4
806.7965	340.9008	65535	64751.9
806.9397	343.1003	65535	64747.05
807.0829	345.2992	65535	64745.7
807.2261	347.4976	65535	64746.7
807.3693	349.6955	65535	64742.35
807.5126	351.8927	65535	64739.55
807.6559	354.0895	65535	64728.2
807.7991	356.2856	65535	64738.45
807.9424	358.4812	65535	64739.4
808.0857	360.6763	65535	64739.05
808.2291	362.8707	65535	64738.1
808.3724	365.0646	65535	64733.65
808.5158	367.258	65535	64734.6
808.6591	369.4508	65535	64729.95
808.8025	371.643	65535	64729.2
808.9459	373.8346	65535	64725.15
809.0893	376.0257	65535	64722.2
809.2327	378.2162	65535	64725.2
809.3762	380.4062	65535	64719.65
809.5196	382.5956	65535	64719.9
809.6631	384.7844	65535	64724.35
809.8066	386.9726	65535	64720.25
809.9501	389.1603	65535	64725.25
810.0936	391.3474	65535	64686.55
810.2371	393.5339	65535	64726.25
810.3806	395.7199	65535	64731.8
810.5241	397.9052	65535	64731.45
810.6677	400.09	65535	64731.5
810.8113	402.2743	65535	64730.45
810.9548	404.4579	65535	64730.25
811.0984	406.641	65535	64729.8
811.2421	408.8235	65535	64726.8
811.3857	411.0054	65535	64724.65
811.5293	413.1868	65535	64724.15
811.673	415.3675	65535	64722.65
811.8166	417.5477	65535	64718.25
811.9603	419.7273	65535	64715.6
812.104	421.9064	65535	64706.05
812.2477	424.0848	65535	64712.1
812.3914	426.2627	65535	64709.55
812.5351	428.4399	65535	64712.75
812.6788	430.6166	65535	64707.45
812.8226	432.7928	65535	64709.2
812.9663	434.9683	65535	64708.7
813.1101	437.1432	65535	64701.8
813.2539	439.3176	65535	64701.3
813.3977	441.4914	65535	64706.85
813.5415	443.6645	65535	64704.2
813.6853	445.8371	65535	64707.25
813.8291	448.0091	65535	64705.25
813.973	450.1806	65535	64705.2
814.1168	452.3514	65535	64700.55
814.2607	454.5216	65535	64692.4
814.4046	456.6913	65535	64699.5
814.5485	458.8603	65535	64698.9
814.6924	461.0288	65535	64701.2
814.8363	463.1967	65535	64700.45
814.9802	465.3639	65535	64699.3
815.1241	467.5306	65535	64697.4
815.2681	469.6967	65535	64698.3
815.412	471.8622	65535	64701.35
815.556	474.0271	65535	64700.2
815.7	476.1914	65535	64693.55
815.844	478.3551	65535	64695.8
815.988	480.5182	65535	64695.7
816.132	482.6807	65535	64699.35
816.276	484.8426	65535	64700.15
816.4201	487.0039	65535	64697.5
816.5641	489.1647	65535	64696.75
816.7082	491.3248	65535	64694.95
816.8522	493.4843	65535	64695.65
816.9963	495.6432	65535	64693.3
817.1404	497.8015	65535	64690.1
817.2845	499.9592	65535	64692.6
817.4286	502.1163	65535	64692.05
817.5727	504.2728	65535	64688.85
817.7168	506.4287	65535	64690.3
817.861	508.5839	65535	64692.35
818.0051	510.7386	65535	64689.5
818.1493	512.8927	65535	64687.75
818.2935	515.0461	65535	64691.5
818.4377	517.199	65535	64687.8
818.5818	519.3512	65535	64688.35
818.726	521.5029	65535	64683.05
818.8703	523.6539	65535	64684.8
819.0145	525.8043	65535	64681.45
819.1587	527.9541	65535	64682.15
819.303	530.1033	65535	64683.7
819.4472	532.2519	65535	64687.1
819.5915	534.3999	65535	64680.35
819.7357	536.5472	65535	64681.1
819.88	538.694	65535	64681.5
820.0243	540.8401	65535	64679.15
820.1686	542.9856	65535	64679.35
820.3129	545.1305	65535	64678.25
820.4572	547.2748	65535	64678.05
820.6016	549.4185	65535	64674.5
820.7459	551.5615	65535	64679.65
820.8902	553.704	65535	64675.75
821.0346	555.8458	65535	64680.05
821.1789	557.987	65535	64675.6
821.3233	560.1276	65535	64677.8
821.4677	562.2675	65535	64682.05
821.6121	564.4069	65535	64680.1
821.7565	566.5456	65535	64679.2
821.9009	568.6837	65535	64677.4
822.0453	570.8212	65535	64677.5
822.1897	572.958	65535	64674.4
822.3342	575.0942	65535	64680.5
822.4786	577.2299	65535	64678.95
822.6231	579.3648	65535	64677.35
822.7675	581.4992	65535	64679.7
822.912	583.6329	65535	64678.9
823.0565	585.766	65535	64679
823.201	587.8985	65535	64675.35
823.3454	590.0304	65535	64652.75
823.4899	592.1616	65535	64673.35
823.6345	594.2922	65535	64672.6
823.779	596.4222	65535	64674
823.9235	598.5515	65535	64673.7
824.068	600.6802	65535	64668.65
824.2126	602.8083	65535	64672.4
824.3571	604.9358	65535	64672.7
824.5017	607.0626	65535	64670.75
824.6462	609.1888	65535	64669.1
824.7908	611.3144	65535	64667.5
824.9354	613.4393	65535	64668.05
825.08	615.5636	65535	64671.5
825.2246	617.6873	65535	64671.4
825.3692	619.8103	65535	64664.65
825.5138	621.9327	65535	64669.55
825.6584	624.0544	65535	64669.85
825.803	626.1756	65535	64673.1
825.9477	628.2961	65535	64668.55
826.0923	630.4159	65535	64666.4
826.237	632.5351	65535	64668.05
826.3816	634.6537	65535	64665.25
826.5263	636.7716	65535	64664.9
826.6709	638.8889	65535	64665
826.8156	641.0056	65535	64662.15
826.9603	643.1216	65535	64663.15
827.105	645.237	65535	64662.85
827.2497	647.3518	65535	64665.5
827.3944	649.4659	65535	64664.4
827.5391	651.5793	65535	64665.25
827.6838	653.6922	65535	64664.15
827.8285	655.8043	65535	64663.7
827.9733	657.9159	65535	64663.35
828.118	660.0268	65535	64662
828.2627	662.137	65535	64661.15
828.4075	664.2466	65535	64659.4
828.5522	666.3556	65535	64663.3
828.697	668.4639	65535	64655.9
828.8418	670.5716	65535	64661.75
828.9865	672.6786	65535	64660.95
829.1313	674.785	65535	64658.85
829.2761	676.8907	65535	64660.7
829.4209	678.9958	65535	64661.3
829.5657	681.1002	65535	64660.5
829.7105	683.204	65535	64654.95
829.8553	685.3072	65535	64656.85
830.0001	687.4097	65535	64658.25
830.1449	689.5115	65535	64655.45
830.2898	691.6127	65535	64658.5
830.4346	693.7132	65535	64659.2
830.5794	695.8131	65535	64641.7
830.7243	697.9123	65535	64652.55
830.8691	700.0109	65535	64655.95
831.014	702.1089	65535	64658.1
831.1588	704.2061	65535	64658.25
831.3037	706.3028	65535	64655.35
831.4486	708.3987	65535	64653.9
831.5935	710.4941	65535	64654.85
831.7383	712.5887	65535	64653.65
831.8832	714.6827	65535	64653.55
832.0281	716.7761	65535	64654.95
832.173	718.8688	65535	64653.55
832.3179	720.9608	65535	64649.45
832.4628	723.0522	65535	64648.35
832.6077	725.1429	65535	64653.65
832.7527	727.233	65535	64653.25
832.8976	729.3224	65535	64652.05
833.0425	731.4112	65535	64653.4
833.1874	733.4993	65535	64652.3
833.3324	735.5867	65535	64651.4
833.4773	737.6735	65535	64651.75
833.6222	739.7596	65535	64651.75
833.7672	741.845	65535	64651.05
833.9122	743.9298	65535	64647
834.0571	746.014	65535	64654.55
834.2021	748.0974	65535	64648.6
834.347	750.1802	65535	64650.25
834.492	752.2624	65535	64650.7
834.637	754.3439	65535	64650.4
834.782	756.4247	65535	64642.9
834.9269	758.5048	65535	64650.55
835.0719	760.5843	65535	64648.35
835.2169	762.6631	65535	64651.9
835.3619	764.7413	65535	64652.65
835.5069	766.8188	65535	64646.25
835.6519	768.8956	65535	64648.65
835.7969	770.9718	65535	64647.8
835.9419	773.0473	65535	64649.8
836.0869	775.1221	65535	64649.35
836.232	777.1962	65535	64650
836.377	779.2697	65535	64647.95
836.522	781.3426	65535	64630.45
836.667	783.4147	65535	64646.9
836.8121	785.4862	65535	64648.35
836.9571	787.557	65535	64648.1
837.1021	789.6271	65535	64648.6
837.2472	791.6966	65535	64647.95
837.3922	793.7654	65535	64647.45
837.5373	795.8335	65535	64648.3
837.6823	797.901	65535	64647.65
837.8274	799.9678	65535	64645.75
837.9724	802.0339	65535	64646.95
838.1175	804.0993	65535	64639.45
838.2626	806.1641	65535	64647.7
838.4076	808.2282	65535	64648.25
838.5527	810.2916	65535	64648.65
838.6978	812.3544	65535	64648.85
838.8428	814.4164	65535	64647.55
838.9879	816.4778	65535	64645.9
839.133	818.5385	65535	64646.3
839.2781	820.5986	65535	64645.95
839.4232	822.658	65535	64644.75
839.5682	824.7166	65535	64646.75
839.7133	826.7747	65535	64648.1
839.8584	828.832	65535	64645.7
840.0035	830.8886	65535	64645
840.1486	832.9446	65535	64643.7
840.2937	834.9999	65535	64646.2
840.4388	837.0545	65535	64641.6
840.5839	839.1085	65535	64644.6
840.729	841.1618	65535	64641.85
840.8741	843.2143	65535	64647.3
841.0192	845.2662	65535	64644.75
841.1643	847.3175	65535	64647.35
841.3095	849.368	65535	64644.1
841.4546	851.4179	65535	64646.45
841.5997	853.467	65535	64642.45
841.7448	855.5155	65535	64643.55
841.8899	857.5633	65535	64642.3
842.0351	859.6105	65535	64644.35
842.1802	861.6569	65535	64644.95
842.3253	863.7027	65535	64644.2
842.4704	865.7478	65535	64642.8
842.6156	867.7922	65535	64643.95
842.7607	869.8359	65535	64643.3
842.9058	871.8789	65535	64643.4
843.0509	873.9212	65535	64610.3
843.1961	875.9629	65535	64643.85
843.3412	878.0039	65535	64642.45
843.4863	880.0441	65535	64644.5
843.6315	882.0837	65535	64644.45
843.7766	884.1226	65535	64639.95
843.9218	886.1609	65535	64643.95
844.0669	888.1984	65535	64643.05
844.212	890.2352	65535	64642.3
844.3572	892.2714	65535	64637.95
844.5023	894.3069	65535	64641.3
844.6475	896.3416	65535	64641.65
844.7926	898.3757	65535	64642.55
844.9377	900.4091	65535	64641.1
845.0829	902.4418	65535	64636.5
845.228	904.4739	65535	64638.65
845.3732	906.5052	65535	64641.3
845.5183	908.5358	65535	64640.8
845.6635	910.5658	65535	64639
845.8086	912.595	65535	64642.2
845.9538	914.6236	65535	64641.45
846.0989	916.6515	65535	64640.3
846.2441	918.6786	65535	64637.1
846.3892	920.7051	65535	64637.85
846.5344	922.7309	65535	64641.65
846.6795	924.756	65535	64640.3
846.8246	926.7804	65535	64638.55
846.9698	928.8041	65535	64635.95
847.1149	930.8272	65535	64638.95
847.2601	932.8495	65535	64639.35
847.4052	934.8711	65535	64639.8
847.5504	936.892	65535	64638.6
847.6955	938.9123	65535	64640.35
847.8407	940.9318	65535	64638
847.9858	942.9506	65535	64640.05
848.131	944.9688	65535	64640.7
848.2761	946.9862	65535	64640.6
848.4213	949.003	65535	64641.5
848.5664	951.019	65535	64637.4
848.7115	953.0344	65535	64637.35
848.8567	955.0491	65535	64641.15
849.0018	957.063	65535	64640.6
849.147	959.0763	65535	64641.7
849.2921	961.0888	65535	64637.5
849.4373	963.1007	65535	64641.1
849.5824	965.1119	65535	64640.15
849.7275	967.1223	65535	64639.3
849.8727	969.1321	65535	64642
850.0178	971.1412	65535	64640.45
850.1629	973.1495	65535	64641.2
850.3081	975.1572	65535	64603.25
850.4532	977.1641	65535	64638.75
850.5983	979.1704	65535	64637.1
850.7435	981.1759	65535	64638.65
850.8886	983.1808	65535	64636.45
851.0337	985.1849	65535	64626.65
851.1788	987.1884	65535	64635.3
851.324	989.1911	65535	64636.65
851.4691	991.1932	65535	64637.6
851.6142	993.1945	65535	64641
851.7593	995.1951	65535	64638.3
851.9045	997.1951	65535	64632.75
852.0496	999.1943	65535	64639.05
852.1947	1001.1928	65535	64638.8
852.3398	1003.1906	65535	64638.4
852.4849	1005.1877	65535	64637.95
852.63	1007.1841	65535	64639.6
852.7751	1009.1798	65535	64637.2
852.9202	1011.1748	65535	64637.1
853.0653	1013.1691	65535	64637.95
853.2104	1015.1627	65535	64637.05
853.3555	1017.1556	65535	64640.05
853.5006	1019.1477	65535	64638.2
853.6457	1021.1392	65535	64641.2
853.7908	1023.1299	65535	64640.1
853.9359	1025.12	65535	64636.8
854.081	1027.1093	65535	64642.55
854.2261	1029.0979	65535	64642.8
854.3712	1031.0859	65535	64640.5
854.5163	1033.0731	65535	64639.2
854.6613	1035.0596	65535	64642.75
854.8064	1037.0454	65535	64639.1
854.9515	1039.0304	65535	64637.15
855.0965	1041.0148	65535	64639.1
855.2416	1042.9985	65535	64638.95
855.3867	1044.9814	65535	64638.9
855.5317	1046.9636	65535	64634.3
855.6768	1048.9452	65535	64640.3
855.8219	1050.926	65535	64638.55
855.9669	1052.9061	65535	64638.75
856.112	1054.8855	65535	64639.75
856.257	1056.8642	65535	64638.9
856.4021	1058.8421	65535	64634.15
856.5471	1060.8194	65535	64636.85
856.6921	1062.7959	65535	64639.05
856.8372	1064.7717	65535	64637.1
856.9822	1066.7469	65535	64638.6
857.1272	1068.7213	65535	64636.55
857.2723	1070.695	65535	64636.65
857.4173	1072.6679	65535	64638.65
857.5623	1074.6402	65535	64637.05
857.7073	1076.6117	65535	64631.3
857.8523	1078.5826	65535	64636.2
857.9973	1080.5527	65535	64635.05
858.1423	1082.5221	65535	64637.95
858.2873	1084.4908	65535	64637.05
858.4323	1086.4587	65535	64633.35
858.5773	1088.426	65535	64635.4
858.7223	1090.3925	65535	64632.05
858.8673	1092.3584	65535	64636.6
859.0123	1094.3235	65535	64641.45
859.1573	1096.2879	65535	64635.25
859.3022	1098.2515	65535	64638.9
859.4472	1100.2145	65535	64636.9
859.5922	1102.1767	65535	64637.55
859.7371	1104.1382	65535	64636.8
859.8821	1106.099	65535	64634.45
860.027	1108.0591	65535	64637.85
860.172	1110.0185	65535	64635.55
860.3169	1111.9771	65535	64638.25
860.4619	1113.9351	65535	64639.05
860.6068	1115.8923	65535	64635.7
860.7517	1117.8488	65535	64636.15
860.8967	1119.8045	65535	64640.95
861.0416	1121.7596	65535	64639
861.1865	1123.7139	65535	64638.7
861.3314	1125.6675	65535	64638.55
861.4763	1127.6204	65535	64637.9
861.6212	1129.5726	65535	64634.95
861.7661	1131.524	65535	64637.65
861.911	1133.4748	65535	64638.45
862.0559	1135.4248	65535	64638.85
862.2008	1137.3741	65535	64637.55
862.3457	1139.3226	65535	64637
862.4905	1141.2705	65535	64637.55
862.6354	1143.2176	65535	64630.2
862.7803	1145.164	65535	64636.05
862.9251	1147.1097	65535	64636.65
863.07	1149.0546	65535	64636.75
863.2148	1150.9989	65535	64636.4
863.3597	1152.9424	65535	64637.6
863.5045	1154.8852	65535	64636.5
863.6493	1156.8272	65535	64638.6
863.7942	1158.7686	65535	64629.6
863.939	1160.7092	65535	64635.6
864.0838	1162.6491	65535	64634.8
864.2286	1164.5883	65535	64637.25
864.3734	1166.5267	65535	64635.35
864.5182	1168.4644	65535	64637
864.663	1170.4014	65535	64630.15
864.8078	1172.3377	65535	64636.55
864.9526	1174.2732	65535	64638.65
865.0974	1176.2081	65535	64637.6
865.2421	1178.1421	65535	64631.55
865.3869	1180.0755	65535	64637.7
865.5317	1182.0082	65535	64635.85
865.6764	1183.9401	65535	64636.3
865.8212	1185.8713	65535	64639.35
865.9659	1187.8017	65535	64637.85
866.1106	1189.7315	65535	64638.85
866.2554	1191.6605	65535	64611.75
866.4001	1193.5888	65535	64637.35
866.5448	1195.5163	65535	64638.75
866.6895	1197.4432	65535	64634.55
866.8342	1199.3693	65535	64636.45
866.9789	1201.2947	65535	64635.25
867.1236	1203.2193	65535	64636.25
867.2683	1205.1432	65535	64635.6
867.413	1207.0664	65535	64634.75
867.5576	1208.9889	65535	64634.65
867.7023	1210.9106	65535	64636.55
867.847	1212.8316	65535	64637.5
867.9916	1214.7519	65535	64629.4
868.1363	1216.6715	65535	64635.9
868.2809	1218.5903	65535	64638.2
868.4255	1220.5084	65535	64638.25
868.5701	1222.4257	65535	64638.2
868.7148	1224.3424	65535	64640.8
868.8594	1226.2583	65535	64636.45
869.004	1228.1735	65535	64635.35
869.1486	1230.0879	65535	64636.35
869.2932	1232.0016	65535	64636.1
869.4377	1233.9146	65535	64634.45
869.5823	1235.8269	65535	64637.9
869.7269	1237.7384	65535	64639.35
869.8715	1239.6492	65535	64637.4
870.016	1241.5592	65535	64635.95
870.1606	1243.4686	65535	64637.55
870.3051	1245.3772	65535	64636.7
870.4496	1247.285	65535	64636.3
870.5941	1249.1922	65535	64637.7
870.7387	1251.0986	65535	64637.3
870.8832	1253.0042	65535	64636.65
871.0277	1254.9092	65535	64637.9
871.1722	1256.8134	65535	64638.95
871.3167	1258.7169	65535	64634.15
871.4611	1260.6196	65535	64637.6
871.6056	1262.5216	65535	64635.2
871.7501	1264.4229	65535	64639.2
871.8945	1266.3234	65535	64636
872.039	1268.2232	65535	64635.85
872.1834	1270.1223	65535	64633.35
872.3278	1272.0207	65535	64635.25
872.4723	1273.9183	65535	64630.1
872.6167	1275.8151	65535	64636.9
872.7611	1277.7113	65535	64637.3
872.9055	1279.6067	65535	64639.15
873.0499	1281.5014	65535	64636
873.1943	1283.3953	65535	64633.95
873.3386	1285.2885	65535	64637.85
873.483	1287.181	65535	64635.45
873.6274	1289.0727	65535	64637.25
873.7717	1290.9637	65535	64637.2
873.9161	1292.854	65535	64636.15
874.0604	1294.7435	65535	64636.35
874.2047	1296.6323	65535	64636.25
874.349	1298.5204	65535	64633.05
874.4933	1300.4077	65535	64636.3
874.6376	1302.2943	65535	64636.15
874.7819	1304.1802	65535	64634.6
874.9262	1306.0653	65535	64633.5
875.0705	1307.9497	65535	64638.65
875.2147	1309.8333	65535	64637.05
875.359	1311.7162	65535	64638
875.5032	1313.5984	65535	64633.2
875.6475	1315.4798	65535	64623.8
875.7917	1317.3605	65535	64618.2
875.9359	1319.2405	65535	64634.5
876.0801	1321.1197	65535	64633.8
876.2243	1322.9982	65535	64631.9
876.3685	1324.876	65535	64637.25
876.5127	1326.753	65535	64638.35
876.6569	1328.6293	65535	64634.85
876.801	1330.5048	65535	64635.3
876.9452	1332.3796	65535	64638.1
877.0893	1334.2537	65535	64612.2
877.2335	1336.127	65535	64636.9
877.3776	1337.9996	65535	64636.3
877.5217	1339.8714	65535	64635.7
877.6658	1341.7426	65535	64594.05
877.8099	1343.6129	65535	64635.15
877.954	1345.4826	65535	64634.4
878.0981	1347.3515	65535	64635.55
878.2422	1349.2196	65535	64636.75
878.3862	1351.087	65535	64638.15
878.5303	1352.9537	65535	64637.6
878.6743	1354.8197	65535	64636.15
878.8184	1356.6849	65535	64636.5
878.9624	1358.5493	65535	64634
879.1064	1360.4131	65535	64636.25
879.2504	1362.276	65535	64637.35
879.3944	1364.1383	65535	64636.65
879.5384	1365.9998	65535	64631.2
879.6823	1367.8606	65535	64637.25
879.8263	1369.7206	65535	64636.65
879.9702	1371.5799	65535	64634.7
880.1142	1373.4384	65535	64638.45
880.2581	1375.2962	65535	64634.95
880.402	1377.1533	65535	64636.4
880.5459	1379.0096	65535	64636.9
880.6898	1380.8652	65535	64635.35
880.8337	1382.7201	65535	64635.95
880.9776	1384.5742	65535	64636.95
881.1215	1386.4275	65535	64637.05
881.2653	1388.2802	65535	64637.2
881.4092	1390.132	65535	64635.8
881.553	1391.9832	65535	64634.5
881.6968	1393.8336	65535	64634.4
881.8406	1395.6832	65535	64633.7
881.9844	1397.5322	65535	64637.25
882.1282	1399.3803	65535	64632.45
882.272	1401.2278	65535	64634.4
882.4158	1403.0745	65535	64637.25
882.5595	1404.9204	65535	64637.1
882.7033	1406.7656	65535	64636.2
882.847	1408.6101	65535	64635.4
882.9908	1410.4538	65535	64636.3
883.1345	1412.2968	65535	64636.3
883.2782	1414.139	65535	64635.7
883.4219	1415.9805	65535	64635.35
883.5656	1417.8213	65535	64631.75
883.7092	1419.6613	65535	64637
883.8529	1421.5006	65535	64634.75
883.9965	1423.3391	65535	64635.45
884.1402	1425.1769	65535	64634.65
884.2838	1427.0139	65535	64637.35
884.4274	1428.8502	65535	64634.15
884.571	1430.6858	65535	64636.6
884.7146	1432.5206	65535	64638.15
884.8582	1434.3547	65535	64635.55
885.0018	1436.188	65535	64636.7
885.1453	1438.0206	65535	64636.55
885.2889	1439.8524	65535	64634.4
885.4324	1441.6835	65535	64634.35
885.5759	1443.5139	65535	64633.3
885.7194	1445.3435	65535	64635.8
885.8629	1447.1724	65535	64636.2
886.0064	1449.0005	65535	64637.4
886.1499	1450.8279	65535	64633.8
886.2933	1452.6545	65535	64634.2
886.4368	1454.4804	65535	64638.15
886.5802	1456.3056	65535	64630.55
886.7237	1458.13	65535	64637.85
886.8671	1459.9536	65535	64634
887.0105	1461.7766	65535	64637
887.1539	1463.5987	65535	64636.6
887.2972	1465.4202	65535	64637.55
887.4406	1467.2409	65535	64637.95
887.584	1469.0608	65535	64636.6
887.7273	1470.88	65535	64634.4
887.8706	1472.6984	65535	64637.3
888.0139	1474.5161	65535	64635.55
888.1572	1476.3331	65535	64638.45
888.3005	1478.1493	65535	64638.05
888.4438	1479.9648	65535	64636.15
888.5871	1481.7795	65535	64636.8
888.7303	1483.5935	65535	64638
888.8736	1485.4067	65535	64637.75
889.0168	1487.2192	65535	64635.3
889.16	1489.031	65535	64634.9
889.3032	1490.842	65535	64637.6
889.4464	1492.6522	65535	64637.45
889.5896	1494.4618	65535	64635.45
889.7327	1496.2705	65535	64637.25
889.8759	1498.0785	65535	64635.35
890.019	1499.8858	65535	64637.4
890.1622	1501.6924	65535	64638.3
890.3053	1503.4981	65535	64638.35
890.4484	1505.3032	65535	64636.9
890.5914	1507.1075	65535	64634.95
890.7345	1508.911	65535	64635.85
890.8776	1510.7138	65535	64636.75
891.0206	1512.5159	65535	64637.2
891.1637	1514.3172	65535	64638.3
891.3067	1516.1178	65535	64637.95
891.4497	1517.9176	65535	64636.05
891.5927	1519.7166	65535	64636.3
891.7357	1521.515	65535	64631.35
891.8786	1523.3126	65535	64636.3
892.0216	1525.1094	65535	64636.35
892.1645	1526.9055	65535	64635.55
892.3074	1528.7008	65535	64637.5
892.4503	1530.4954	65535	64632.8
892.5932	1532.2893	65535	64638.6
892.7361	1534.0824	65535	64632.55
892.879	1535.8747	65535	64636.85
893.0218	1537.6663	65535	64637.4
893.1647	1539.4572	65535	64636.1
893.3075	1541.2473	65535	64636
893.4503	1543.0367	65535	64639.05
893.5931	1544.8253	65535	64634.4
893.7359	1546.6132	65535	64637.05
893.8787	1548.4003	65535	64629.9
894.0214	1550.1867	65535	64628.1
894.1642	1551.9723	65535	64631.65
894.3069	1553.7572	65535	64638.75
894.4496	1555.5414	65535	64638.15
894.5923	1557.3247	65535	64640.1
894.735	1559.1074	65535	64638.2
894.8777	1560.8893	65535	64638.45
895.0204	1562.6705	65535	64639.45
895.163	1564.4509	65535	64638.3
895.3056	1566.2305	65535	64640.4
895.4482	1568.0094	65535	64641.7
895.5908	1569.7876	65535	64639.3
895.7334	1571.565	65535	64638.4
895.876	1573.3417	65535	64637.95
896.0186	1575.1176	65535	64637.3
896.1611	1576.8928	65535	64636.9
896.3036	1578.6672	65534.65	64638.55
896.4461	1580.4409	65535	64640.5
896.5886	1582.2138	65525.15	64627.1
896.7311	1583.986	65528.65	64631.75
896.8736	1585.7575	65512.15	64617.05
897.0161	1587.5282	65521.75	64628.3
897.1585	1589.2981	65519.8	64626.5
897.3009	1591.0673	65501.1	64604.45
897.4433	1592.8358	65424.6	64527.5
897.5857	1594.6035	65488.55	64591.85
897.7281	1596.3704	65497.15	64599.4
897.8705	1598.1366	65334.6	64439.75
898.0128	1599.9021	65230.05	64336.55
898.1551	1601.6668	65420.9	64526.2
898.2975	1603.4308	65323.6	64427
898.4398	1605.194	65307.75	64407.9
898.5821	1606.9564	64955.8	64062.75
898.7243	1608.7182	65179.1	64279.95
898.8666	1610.4791	64951.75	64058.55
899.0088	1612.2394	65212.95	64320.35
899.1511	1613.9988	64831.3	63937.95
899.2933	1615.7576	65222.9	64328.4
899.4355	1617.5156	65210.2	64306.8
899.5776	1619.2728	65411	64514.25
899.7198	1621.0293	64974.6	64080.95
899.862	1622.785	65010.25	64114.05
900.0041	1624.54	65174.6	64278.75
900.1462	1626.2942	64846.95	63951.05
900.2883	1628.0477	64084.3	63186.6
900.4304	1629.8005	63276.4	62378.7
900.5725	1631.5525	64167.95	63274.45
900.7145	1633.3037	62917.5	62023.95
900.8566	1635.0542	62693.65	61799.65
900.9986	1636.804	63338.2	62442.65
901.1406	1638.553	61996.3	60995.55
901.2826	1640.3013	62485.75	61589.2
901.4245	1642.0488	61695.9	60799.7
901.5665	1643.7955	62279.75	61387.9
901.7085	1645.5416	61677.7	60784.2
901.8504	1647.2868	61105.6	60213.25
901.9923	1649.0313	62005.9	61111.25
902.1342	1650.7751	61524.65	60626.55
902.2761	1652.5181	61082.9	60190.15
902.4179	1654.2604	61160.8	60264.25
902.5598	1656.0019	61590.6	60699.5
902.7016	1657.7427	61379.8	60487.2
902.8434	1659.4828	62019.8	61126.1
902.9852	1661.222	61453.1	60560
903.127	1662.9606	62117.85	61225.05
903.2687	1664.6984	61110.45	60216.65
903.4105	1666.4354	61350.8	60456.9
903.5522	1668.1717	60127.15	59231.8
903.6939	1669.9072	59245.5	58351.8
903.8356	1671.642	59031.4	58134.3
903.9773	1673.3761	58709	57814.5
904.119	1675.1094	58415.45	57522.9
904.2606	1676.8419	57751.3	56857.4
904.4022	1678.5737	57731.05	56837.5
904.5439	1680.3048	57415.2	56521.65
904.6855	1682.0351	57085.25	56192.15
904.827	1683.7646	56726.45	55827.75
904.9686	1685.4934	56885.6	55993.75
905.1101	1687.2215	55786.7	54894.4
905.2517	1688.9488	56383.3	55487.6
905.3932	1690.6754	54906.85	54014.5
905.5347	1692.4012	55463.4	54571.7
905.6761	1694.1263	55403.85	54510.25
905.8176	1695.8506	55027.85	54135.1
905.9591	1697.5742	54835	53941.7
906.1005	1699.297	54589.1	53694.8
906.2419	1701.0191	54471.2	53578.75
906.3833	1702.7404	53971.3	53078.55
906.5246	1704.461	53639.55	52743.8
906.666	1706.1808	53636.75	52740.6
906.8073	1707.8999	53471.3	52576.5
906.9487	1709.6182	53228.55	52337.15
907.09	1711.3358	53092.9	52199.85
907.2313	1713.0527	52892.05	52000.35
907.3725	1714.7688	52785.75	51887.2
907.5138	1716.4841	52223.85	51330.5
907.655	1718.1987	52322.25	51424.05
907.7962	1719.9126	52142.35	51248.55
907.9374	1721.6257	51922.25	51027.8
908.0786	1723.338	51974.35	51081.9
908.2198	1725.0496	51353.25	50457.85
908.3609	1726.7605	51296.55	50403.65
908.502	1728.4706	51125.4	50232.1
908.6431	1730.18	50944.7	50051.75
908.7842	1731.8886	50771.95	49880.4
908.9253	1733.5964	50547.35	49632.9
909.0664	1735.3036	50563.35	49667.55
909.2074	1737.0099	50377.45	49484.85
909.3484	1738.7156	50152.25	49260.4
909.4894	1740.4204	49821.45	48926.1
909.6304	1742.1246	49779.4	48883.7
909.7714	1743.8279	49705.05	48813.45
909.9123	1745.5306	49607.25	48713.95
910.0532	1747.2325	49173.55	48281.8
910.1941	1748.9336	49103.05	48211.55
910.335	1750.634	48874.65	47980.9
910.4759	1752.3336	48853.45	47962.5
910.6168	1754.0325	48747.2	47856.9
910.7576	1755.7307	48624.85	47731.9
910.8984	1757.4281	48497.45	47605.5
911.0392	1759.1247	48435.55	47534.25
911.18	1760.8206	48184.25	47286.05
911.3208	1762.5158	48168.3	47271.7
911.4615	1764.2102	47903.1	47011.45
911.6022	1765.9039	47746.3	46854.05
911.7429	1767.5968	47612.5	46722.1
911.8836	1769.289	47514.8	46623.85
912.0243	1770.9804	47403.7	46511.15
912.1649	1772.6711	47278	46384.85
912.3056	1774.361	47073.35	46180.15
912.4462	1776.0502	47006.75	46112.05
912.5868	1777.7386	46768.4	45870.75
912.7274	1779.4263	46637.65	45745.65
912.8679	1781.1132	46607.55	45713.85
913.0084	1782.7994	46402.8	45509.75
913.149	1784.4849	46290.95	45398.25
913.2895	1786.1696	46065.4	45165.8
913.4299	1787.8535	45961.75	45068.9
913.5704	1789.5367	45833.05	44941.4
913.7108	1791.2192	45750.65	44858.35
913.8513	1792.9009	45525.45	44603.15
913.9917	1794.5818	45432.7	44539.8
914.132	1796.2621	45348.15	44458.1
914.2724	1797.9415	45217	44325.4
914.4128	1799.6202	45022.55	44129.2
914.5531	1801.2982	44951.2	44059.55
914.6934	1802.9755	44790.95	43898.55
914.8337	1804.6519	44663.5	43771.2
914.9739	1806.3277	44470.2	43577.5
915.1142	1808.0027	44288.7	43398.25
915.2544	1809.6769	44255.55	43363.6
915.3946	1811.3504	44121.9	43229.55
915.5348	1813.0231	43968.75	43075.2
915.675	1814.6951	43863.4	42972
915.8151	1816.3664	43839.45	42948.3
915.9553	1818.0369	43706.6	42814.35
916.0954	1819.7067	43519	42626.15
916.2355	1821.3757	43396.15	42503.1
916.3755	1823.044	43302.65	42411.3
916.5156	1824.7115	43183.65	42293.4
916.6556	1826.3783	42991.8	42099.9
916.7956	1828.0443	42840.15	41950.5
916.9356	1829.7096	42721.6	41827.35
917.0756	1831.3741	42690.25	41795.65
917.2155	1833.0379	42578.25	41688.3
917.3555	1834.701	42380.05	41485.35
917.4954	1836.3633	42375.65	41480.65
917.6353	1838.0248	42160.4	41267.7
917.7751	1839.6856	42074	41181.15
917.915	1841.3457	42010.65	41120.55
918.0548	1843.005	41891.6	41001.75
918.1946	1844.6636	41821.05	40930.55
918.3344	1846.3214	41647.3	40756.7
918.4742	1847.9785	41598.9	40706.3
918.6139	1849.6349	41389.85	40494.7
918.7537	1851.2904	41354.45	40452.3
918.8934	1852.9453	41207.3	40313.5
919.0331	1854.5994	41072.3	40178.4
919.1727	1856.2528	41121.9	40223.75
919.3124	1857.9054	40974.25	40084.1
919.452	1859.5572	40855.75	39964.45
919.5916	1861.2083	40713	39821.2
919.7312	1862.8587	40699.85	39807.25
919.8708	1864.5084	40551.9	39656.85
920.0103	1866.1572	40405.75	39513.4
920.1498	1867.8054	40217.2	39326.3
920.2893	1869.4528	40139.35	39246.45
920.4288	1871.0994	39990.1	39098.1
920.5683	1872.7453	39902.65	39010.4
920.7077	1874.3905	39795.4	38897.25
920.8471	1876.0349	39716.5	38825.95
920.9865	1877.6786	39656.1	38762.2
921.1259	1879.3215	39598.25	38708.75
921.2653	1880.9637	39473.15	38578.65
921.4046	1882.6051	39354	38462
921.5439	1884.2458	39179.65	38285.6
921.6832	1885.8858	39056.45	38162.7
921.8225	1887.525	39041.25	38147.75
921.9617	1889.1634	38803.75	37910.65
922.101	1890.8011	38653	37759.9
922.2402	1892.4381	38553.65	37661.95
922.3794	1894.0743	38458	37566.5
922.5185	1895.7098	38383.5	37491.05
922.6577	1897.3446	38279.8	37388.95
922.7968	1898.9786	38111.8	37214.75
922.9359	1900.6118	38081.4	37189.95
923.075	1902.2443	37813.4	36918.2
923.214	1903.8761	37701.05	36809.65
923.3531	1905.5071	37474.7	36582.95
923.4921	1907.1374	37420.6	36528.55
923.6311	1908.7669	37329.4	36437.9
923.77	1910.3957	37262.05	36368.75
923.909	1912.0237	37047.4	36156.15
924.0479	1913.651	36953.6	36061.4
924.1868	1915.2776	36826.65	35934.55
924.3257	1916.9034	36678.25	35787.4
924.4646	1918.5285	36522.9	35633.35
924.6034	1920.1528	36315.55	35423.95
924.7422	1921.7764	36224.25	35332.65
924.881	1923.3992	36131.55	35240.15
925.0198	1925.0213	35889.45	34996.15
925.1586	1926.6427	35757.2	34865
925.2973	1928.2633	35710.5	34706.35
925.436	1929.8832	35509.7	34615.6
925.5747	1931.5023	35342.45	34449.85
925.7134	1933.1207	35366.9	34474.95
925.852	1934.7383	35240.8	34350.55
925.9906	1936.3552	35072.85	34182.2
926.1292	1937.9714	34963.7	34072.4
926.2678	1939.5868	34766.15	33870
926.4064	1941.2015	34568.2	33674.45
926.5449	1942.8154	34439.85	33548.05
926.6834	1944.4286	34314.15	33421.15
926.8219	1946.041	34096.45	33186.1
926.9604	1947.6528	33928.05	33031.8
927.0988	1949.2637	33876.8	32985.85
927.2372	1950.8739	33735.2	32842.85
927.3756	1952.4834	33648	32755.65
927.514	1954.0921	33530.4	32638.8
927.6523	1955.7001	33439.05	32541.85
927.7907	1957.3074	33341.2	32451.7
927.929	1958.9139	33229.25	32340.05
928.0673	1960.5197	33081.45	32187.7
928.2055	1962.1247	32900.85	32010.75
928.3438	1963.729	32748.95	31858.05
928.482	1965.3325	32626.55	31709.6
928.6202	1966.9353	32522.75	31632.5
928.7584	1968.5374	32406.7	31514.35
928.8965	1970.1387	32270.45	31376.45
929.0346	1971.7393	32095.3	31203.15
929.1727	1973.3392	32063.2	31171.2
929.3108	1974.9383	31890.8	31000.8
929.4489	1976.5366	31806.65	30914.95
929.5869	1978.1342	31713.75	30821.4
929.7249	1979.7311	31599.6	30707.25
929.8629	1981.3273	31526.95	30634.45
930.0009	1982.9227	31369.4	30475.95
930.1388	1984.5173	31267.7	30378.45
930.2767	1986.1112	31099.4	30210.55
930.4146	1987.7044	31026.1	30135.9
930.5525	1989.2968	30933.3	30038.75
930.6904	1990.8885	30865.85	29971.2
930.8282	1992.4795	30784.3	29891.3
930.966	1994.0697	30601.45	29712.85
931.1038	1995.6592	30548.4	29658.75
931.2415	1997.2479	30427.6	29534.1
931.3793	1998.8359	30356.25	29464.7
931.517	2000.4232	30190.95	29300.25
931.6547	2002.0097	30075.7	29186.2
931.7923	2003.5955	29933.6	29043.5
931.93	2005.1805	29890.35	28997.3
932.0676	2006.7648	29784.7	28893
932.2052	2008.3484	29675.45	28782.8
932.3427	2009.9312	29699.2	28808.2
932.4803	2011.5133	29572	28680.5
932.6178	2013.0946	29470.7	28578
932.7553	2014.6752	29366.55	28478.45
932.8928	2016.2551	29261.25	28370.75
933.0302	2017.8342	29094.9	28204.1
933.1676	2019.4126	29016.8	28126.65
933.305	2020.9902	28870.65	27980.15
933.4424	2022.5672	28841.9	27950.3
933.5798	2024.1433	28735.85	27837.85
933.7171	2025.7188	28645.55	27756.3
933.8544	2027.2935	28523.6	27631.35
933.9917	2028.8674	28435.1	27544.6
934.129	2030.4406	28318.85	27431.25
934.2662	2032.0131	28189.75	27300.9
934.4034	2033.5849	28048.75	27153.2
934.5406	2035.1559	27983.95	27092.2
934.6778	2036.7261	27999.9	27108.55
934.8149	2038.2957	27870	26979.2
934.952	2039.8645	27793.4	26903.2
935.0891	2041.4325	27825.7	26932.45
935.2262	2042.9998	27667.95	26779.8
935.3632	2044.5664	27597.1	26702.55
935.5002	2046.1323	27470.85	26579.5
935.6372	2047.6974	27371.65	26479.5
935.7742	2049.2617	27306.85	26415.9
935.9111	2050.8254	27259.5	26346.65
936.048	2052.3883	27170.95	26278.85
936.1849	2053.9504	27100.45	26209.85
936.3218	2055.5118	26983.75	26092.75
936.4586	2057.0725	26842.4	25948.15
936.5955	2058.6325	26785.8	25894.25
936.7323	2060.1917	26698.95	25808.8
936.869	2061.7502	26607.7	25714.7
937.0058	2063.3079	26534.5	25643.8
937.1425	2064.8649	26438.1	25545.25
937.2792	2066.4212	26369.55	25478.5
937.4159	2067.9767	26286.65	25396.1
937.5525	2069.5315	26132.85	25244.35
937.6891	2071.0856	26031.4	25141.5
937.8257	2072.6389	25890.5	24997
937.9623	2074.1915	25770.2	24882.95
938.0989	2075.7433	25677.3	24782.65
938.2354	2077.2945	25625	24735
938.3719	2078.8448	25501.4	24612.55
938.5084	2080.3945	25413.1	24522
938.6448	2081.9434	25413.6	24524
938.7812	2083.4916	25310.95	24421.25
938.9176	2085.039	25229.3	24338.95
939.054	2086.5857	25144.7	24252.45
939.1903	2088.1317	25081.3	24188.6
939.3267	2089.677	24999.55	24107.35
939.463	2091.2215	24931.45	24040
939.5992	2092.7652	24850.35	23958.3
939.7355	2094.3083	24743.15	23851.5
939.8717	2095.8506	24709.65	23819.4
940.0079	2097.3921	24667.05	23777.1
940.1441	2098.933	24568.25	23677.4
940.2802	2100.4731	24464.35	23572.75
940.4163	2102.0124	24471.2	23571.3
940.5524	2103.5511	24385.45	23494.95
940.6885	2105.089	24329.8	23438.7
940.8245	2106.6261	24216.5	23324.95
940.9606	2108.1626	24175.05	23284.3
941.0965	2109.6983	24114.1	23193.3
941.2325	2111.2332	24030.15	23138.8
941.3684	2112.7675	23930.05	23038.9
941.5044	2114.301	23823.75	22932.1
941.6403	2115.8337	23822.4	22931.45
941.7761	2117.3657	23734.55	22844.15
941.912	2118.897	23662.9	22771.75
942.0478	2120.4276	23539.9	22643.65
942.1835	2121.9575	23459.15	22567.1
942.3193	2123.4866	23476	22571.6
942.455	2125.0149	23366.9	22472.55
942.5907	2126.5426	23230.25	22337.45
942.7264	2128.0695	23181.3	22286.8
942.8621	2129.5956	23134.1	22245
942.9977	2131.1211	23061.2	22165.7
943.1333	2132.6458	23021.8	22130.95
943.2689	2134.1698	22941.3	22051.1
943.4044	2135.693	22875.75	21980.8
943.54	2137.2155	22799	21905.15
943.6755	2138.7373	22745.7	21854
943.8109	2140.2584	22671.15	21780.25
943.9464	2141.7787	22580.25	21683.1
944.0818	2143.2983	22443.15	21553.55
944.2172	2144.8171	22342.2	21452.55
944.3526	2146.3353	22267.85	21374.55
944.4879	2147.8527	22186.2	21297.2
944.6232	2149.3693	22191.9	21299.65
944.7585	2150.8853	22095.1	21204.25
944.8938	2152.4005	21958	21066.15
945.029	2153.9149	21959.6	21067.95
945.1642	2155.4287	21847.35	20957.15
945.2994	2156.9417	21813.15	20920.85
945.4346	2158.454	21719.85	20828.45
945.5697	2159.9655	21680	20789.65
945.7048	2161.4764	21644.75	20753.35
945.8399	2162.9865	21554.6	20663.55
945.9749	2164.4958	21507.45	20613.5
946.1099	2166.0045	21388.65	20494.2
946.2449	2167.5124	21380.85	20490.65
946.3799	2169.0195	21321.7	20430.15
946.5148	2170.526	21271.25	20379.45
946.6498	2172.0317	21185.2	20297.05
946.7846	2173.5367	21119.75	20229
946.9195	2175.0409	21054.2	20164.5
947.0543	2176.5445	21032.55	20142.05
947.1891	2178.0473	20950.25	20058.1
947.3239	2179.5494	20835.55	19939.95
947.4587	2181.0507	20773.5	19879.95
947.5934	2182.5513	20715.55	19824.35
947.7281	2184.0512	20624.3	19734.9
947.8628	2185.5504	20604.95	19713.15
947.9974	2187.0488	20460.15	19569.25
948.132	2188.5465	20389.2	19497.9
948.2666	2190.0435	20309.6	19417.65
948.4012	2191.5397	20234.85	19341.75
948.5357	2193.0353	20173.8	19281.15
948.6702	2194.5301	20067.45	19175.25
948.8047	2196.0241	19972.15	19079.85
948.9392	2197.5175	19894.4	19004.35
949.0736	2199.0101	19848.1	18952.65
949.208	2200.502	19689.95	18799.1
949.3424	2201.9931	19672.7	18780.1
949.4767	2203.4835	19581.85	18688.45
949.611	2204.9733	19572	18675.35
949.7453	2206.4622	19494.75	18603.25
949.8796	2207.9505	19423.55	18529.65
950.0138	2209.438	19317.7	18426.75
950.148	2210.9248	19238.7	18348.15
950.2822	2212.4109	19188.85	18296.8
950.4164	2213.8962	19098.1	18201.55
950.5505	2215.3809	19077.4	18185.35
950.6846	2216.8648	19006.85	18114.05
950.8186	2218.3479	18897.6	18001.85
950.9527	2219.8304	18814.6	17920.45
951.0867	2221.3121	18778.15	17885.3
951.2207	2222.7931	18730.95	17836.6
951.3546	2224.2733	18636.9	17746.35
951.4886	2225.7529	18560.4	17667.15
951.6225	2227.2317	18503.05	17607.55
951.7563	2228.7098	18501.6	17609.85
951.8902	2230.1872	18373.1	17481.45
952.024	2231.6638	18343.65	17452.5
952.1578	2233.1397	18254.4	17353.55
952.2916	2234.6149	18214.6	17325.15
952.4253	2236.0894	18114.2	17222.15
952.559	2237.5632	18109.25	17208.35
952.6927	2239.0362	17988.55	17097.1
952.8263	2240.5085	17937.15	17046.15
952.9599	2241.9801	17862.95	16970.4
953.0935	2243.4509	17873.7	16981.9
953.2271	2244.921	17763.85	16872.5
953.3606	2246.3904	17699.9	16804.7
953.4941	2247.8591	17614.6	16723.65
953.6276	2249.3271	17584.5	16693.45
953.7611	2250.7943	17505.15	16612
953.8945	2252.2608	17401.35	16510.3
954.0279	2253.7266	17395	16503.35
954.1612	2255.1917	17343	16449.35
954.2946	2256.656	17282.05	16389.15
954.4279	2258.1197	17196	16306.9
954.5612	2259.5826	17156.15	16262.3
954.6944	2261.0447	17138.45	16247.6
954.8276	2262.5062	17046.3	16153.1
954.9608	2263.9669	16992.65	16099.15
955.094	2265.4269	16982.55	16092.35
955.2271	2266.8862	16894	16004.5
955.3602	2268.3448	16857.1	15964.5
955.4933	2269.8026	16816.65	15924.95
955.6264	2271.2598	16786	15893.35
955.7594	2272.7162	16687.5	15797.85
955.8924	2274.1719	16659.3	15768.3
956.0253	2275.6268	16593	15702.45
956.1583	2277.0811	16571.9	15679.8
956.2912	2278.5346	16510.95	15621.55
956.4241	2279.9874	16467.45	15577.65
956.5569	2281.4395	16427.75	15535.5
956.6897	2282.8908	16380.9	15482.85
956.8225	2284.3414	16302	15409.55
956.9553	2285.7914	16227.6	15336.25
957.088	2287.2406	16168.8	15276.8
957.2207	2288.689	16125.5	15233.3
957.3534	2290.1368	16077	15184.95
957.486	2291.5838	16020.65	15128.15
957.6186	2293.0302	15965.45	15072.85
957.7512	2294.4758	15913.15	15021.7
957.8838	2295.9206	15798.2	14903.9
958.0163	2297.3648	15766.45	14875.2
958.1488	2298.8082	15779.65	14888.25
958.2813	2300.251	15729.8	14837.7
958.4137	2301.693	15681.9	14790.2
958.5461	2303.1343	15633.95	14742.05
958.6785	2304.5748	15570.6	14680.4
958.8108	2306.0147	15504.3	14613.05
958.9432	2307.4538	15466.15	14571.75
959.0754	2308.8922	15415.9	14524.55
959.2077	2310.3299	15366.8	14476.4
959.3399	2311.7669	15316.35	14425.85
959.4721	2313.2031	15228.65	14337.5
959.6043	2314.6387	15176.7	14285.15
959.7365	2316.0735	15117.9	14226.6
959.8686	2317.5076	15084.35	14193.7
960.0006	2318.941	15038.3	14147.4
960.1327	2320.3737	15024.75	14133.9
960.2647	2321.8056	14963.75	14070.5
960.3967	2323.2369	14880.75	13987.95
960.5287	2324.6674	14850.05	13956.8
960.6606	2326.0972	14804	13908.95
960.7925	2327.5263	14730.5	13840.3
960.9244	2328.9547	14678.35	13786.8
961.0562	2330.3823	14673.8	13781.95
961.1881	2331.8092	14648.95	13755.2
961.3198	2333.2355	14563.9	13672.45
961.4516	2334.661	14549.25	13656.05
961.5833	2336.0858	14471.9	13577
961.715	2337.5098	14449.5	13559.75
961.8467	2338.9332	14414.8	13522.3
961.9783	2340.3558	14360.7	13465.65
962.1099	2341.7778	14309.45	13418
962.2415	2343.199	14233.6	13338.9
962.373	2344.6195	14221.45	13332
962.5045	2346.0393	14156.1	13265.6
962.636	2347.4583	14139.3	13248.25
962.7675	2348.8767	14084.5	13193.65
962.8989	2350.2943	14033.1	13138.05
963.0303	2351.7113	14012.1	13119.95
963.1617	2353.1275	13936.8	13044.85
963.293	2354.543	13903.25	13002.45
963.4243	2355.9578	13840.5	12946.95
963.5556	2357.3718	13759.45	12868.85
963.6868	2358.7852	13717.2	12823.65
963.818	2360.1978	13640.3	12747.6
963.9492	2361.6098	13655.3	12763.95
964.0803	2363.021	13605.4	12710.5
964.2114	2364.4315	13534.35	12641.75
964.3425	2365.8413	13452	12558.8
964.4736	2367.2504	13445.75	12556.75
964.6046	2368.6587	13363.45	12472.55
964.7356	2370.0664	13292.15	12402.8
964.8666	2371.4733	13253.3	12360.7
964.9975	2372.8795	13217.55	12325.45
965.1284	2374.285	13144.85	12251.4
965.2593	2375.6899	13103.6	12212
965.3901	2377.0939	13043.85	12154.2
965.5209	2378.4973	12969.55	12080.25
965.6517	2379.9	12936.5	12047.75
965.7825	2381.3019	12873.85	11984.2
965.9132	2382.7032	12834.8	11943.65
966.0439	2384.1037	12809.95	11920.65
966.1745	2385.5035	12764.75	11874.1
966.3051	2386.9027	12742.3	11850.3
966.4357	2388.3011	12703.35	11809.05
966.5663	2389.6987	12635.1	11746.35
966.6968	2391.0957	12593.05	11704
966.8273	2392.492	12546.8	11657.1
966.9578	2393.8876	12433.2	11541.2
967.0882	2395.2824	12382.6	11489.8
967.2186	2396.6765	12341.2	11449.95
967.349	2398.07	12304.75	11414.55
967.4793	2399.4627	12270.35	11378.2
967.6097	2400.8547	12218.5	11327.05
967.7399	2402.246	12176.05	11278.95
967.8702	2403.6366	12125.2	11234.8
968.0004	2405.0265	12052.2	11161.55
968.1306	2406.4156	11992.35	11096.85
968.2607	2407.8041	11977.1	11082.2
968.3909	2409.1918	11933.05	11040.4
968.521	2410.5789	11882.15	10990.65
968.651	2411.9652	11823.1	10929.95
968.781	2413.3508	11772.65	10881
968.911	2414.7358	11739.6	10848.55
969.041	2416.12	11704.1	10816.35
969.1709	2417.5035	11657.3	10766.4
969.3008	2418.8863	11618.85	10726.7
969.4307	2420.2684	11570.75	10679.1
969.5606	2421.6497	11515	10622.95
969.6904	2423.0304	11448.1	10557.8
969.8201	2424.4104	11422.15	10529.45
969.9499	2425.7896	11388.1	10497
970.0796	2427.1682	11353.8	10464
970.2093	2428.546	11337.55	10444.6
970.3389	2429.9232	11302.45	10411.95
970.4685	2431.2996	11258.4	10367.15
970.5981	2432.6753	11218.95	10328.7
970.7277	2434.0503	11218.15	10327.35
970.8572	2435.4246	11152.55	10263.3
970.9867	2436.7982	11100.6	10207.3
971.1161	2438.1711	11054	10163.75
971.2456	2439.5433	11031.85	10138.95
971.375	2440.9148	11005.75	10114.2
971.5043	2442.2856	10955.5	10064.05
971.6336	2443.6557	10908.5	10016.7
971.7629	2445.025	10855.55	9964.1
971.8922	2446.3937	10831.85	9940.8
972.0214	2447.7617	10807.4	9916.9
972.1506	2449.1289	10794.9	9904.85
972.2798	2450.4955	10727.85	9832.35
972.4089	2451.8613	10698.45	9806.95
972.538	2453.2265	10673.85	9782.65
972.6671	2454.5909	10674.25	9783.95
972.7961	2455.9546	10601	9708.9
972.9251	2457.3177	10550	9659.65
973.0541	2458.68	10543.8	9651.2
973.1831	2460.0416	10522.65	9628.35
973.312	2461.4025	10506.35	9614.8
973.4408	2462.7627	10466.95	9564.05
973.5697	2464.1222	10435.4	9544.35
973.6985	2465.4811	10405	9513.75
973.8273	2466.8392	10364.9	9473.2
973.956	2468.1966	10329.9	9437.55
974.0847	2469.5533	10326.7	9433.55
974.2134	2470.9093	10289.7	9397.8
974.3421	2472.2645	10229.05	9336.3
974.4707	2473.6191	10222.45	9329.6
974.5993	2474.973	10169.45	9278.95
974.7278	2476.3262	10141	9250.05
974.8563	2477.6787	10093.15	9202.95
974.9848	2479.0305	10011.7	9120.35
975.1132	2480.3816	10009.3	9116.7
975.2417	2481.7319	9980.9	9088.85
975.37	2483.0816	9940.45	9045.7
975.4984	2484.4306	9929.85	9037
975.6267	2485.7789	9884.75	8993.75
975.755	2487.1264	9836.85	8944.1
975.8833	2488.4733	9803.95	8914.4
976.0115	2489.8195	9755.95	8846.8
976.1397	2491.165	9711.8	8815.8
976.2678	2492.5097	9673.6	8781.7
976.3959	2493.8538	9610.95	8720.05
976.524	2495.1972	9572.5	8682.4
976.6521	2496.5398	9554.1	8661.25
976.7801	2497.8818	9501.9	8608.75
976.9081	2499.2231	9486.85	8596.25
977.036	2500.5637	9426.05	8534.15
977.164	2501.9035	9421.25	8529.5
977.2918	2503.2427	9405.1	8509.3
977.4197	2504.5812	9345.85	8452.9
977.5475	2505.919	9327.75	8434.65
977.6753	2507.256	9317.6	8426.3
977.8031	2508.5924	9255.45	8365.6
977.9308	2509.9281	9239.15	8342.95
978.0585	2511.2631	9185.55	8293.4
978.1861	2512.5974	9166.3	8276.35
978.3137	2513.9309	9150.2	8257.15
978.4413	2515.2638	9131.45	8205.95
978.5689	2516.596	9068.2	8176.7
978.6964	2517.9275	9033.45	8143.5
978.8239	2519.2583	9010.05	8119.05
978.9513	2520.5884	8952.35	8059.35
979.0788	2521.9178	8927.25	8036.4
979.2062	2523.2465	8888.15	7998.55
979.3335	2524.5745	8852.5	7961.15
979.4608	2525.9018	8843.05	7951.45
979.5881	2527.2284	8797.8	7907.75
979.7154	2528.5543	8797.85	7908.75
979.8426	2529.8796	8758.4	7865.95
979.9698	2531.2041	8737.15	7845.3
980.0969	2532.5279	8721.2	7831.55
980.224	2533.851	8698.6	7808.05
980.3511	2535.1735	8656.95	7766.15
980.4781	2536.4952	8628	7736.4
980.6052	2537.8163	8640.55	7746.55
980.7321	2539.1366	8619.15	7727.9
980.8591	2540.4562	8573.05	7681.9
980.986	2541.7752	8563.75	7672.55
981.1129	2543.0935	8550.05	7659.75
981.2397	2544.411	8526.55	7635.65
981.3665	2545.7279	8490.85	7600.1
981.4933	2547.0441	8466.6	7573.6
981.62	2548.3596	8445.45	7552.45
981.7467	2549.6744	8433.7	7543.95
981.8734	2550.9885	8378.6	7483.15
982.0001	2552.3019	8363.9	7472.15
982.1267	2553.6146	8355.6	7463.95
982.2532	2554.9266	8329.15	7437.25
982.3798	2556.2379	8279.4	7383.45
982.5063	2557.5485	8263.2	7374.35
982.6327	2558.8585	8243.05	7346.15
982.7592	2560.1677	8234.45	7338.5
982.8856	2561.4762	8209.85	7317.55
983.0119	2562.7841	8198	7304.4
983.1383	2564.0913	8170.3	7279.2
983.2646	2565.3977	8160.05	7269.45
983.3908	2566.7035	8128.45	7238.25
983.517	2568.0086	8113.65	7220.85
983.6432	2569.313	8100.6	7208.35
983.7694	2570.6167	8094.7	7200
983.8955	2571.9197	8052.55	7161.75
984.0216	2573.222	8054.1	7160.05
984.1476	2574.5236	8017.9	7125.85
984.2737	2575.8246	8006.6	7113.3
984.3996	2577.1248	7973.9	7079.65
984.5256	2578.4244	7938.3	7047.25
984.6515	2579.7232	7931.75	7041.35
984.7774	2581.0214	7944.45	7027.5
984.9032	2582.3189	7925.15	7035.05
985.029	2583.6157	7902.15	7005.5
985.1548	2584.9118	7884.15	6991.9
985.2806	2586.2072	7850.7	6960.35
985.4063	2587.5019	7819	6926.25
985.5319	2588.7959	7795.45	6904.5
985.6576	2590.0893	7783.45	6890.9
985.7832	2591.3819	7780.9	6889.3
985.9087	2592.6739	7743.05	6852.95
986.0343	2593.9652	7719.3	6826.35
986.1597	2595.2557	7688.85	6797.6
986.2852	2596.5456	7660.75	6766.15
986.4106	2597.8348	7646.55	6755.35
986.536	2599.1234	7599.4	6706.3
986.6614	2600.4112	7591.55	6699.55
986.7867	2601.6983	7548.95	6652.25
986.912	2602.9848	7536.8	6644.2
987.0372	2604.2705	7493.85	6597.25
987.1624	2605.5556	7489.25	6597.1
987.2876	2606.84	7448.05	6556.85
987.4128	2608.1237	7420.5	6529.4
987.5379	2609.4067	7382.4	6492.25
987.6629	2610.689	7374	6472.75
987.788	2611.9707	7357.5	6462.3
987.913	2613.2516	7327.25	6430
988.0379	2614.5319	7279.15	6388.7
988.1629	2615.8115	7253.15	6362.35
988.2878	2617.0903	7226.35	6333.7
988.4126	2618.3685	7201	6308.6
988.5375	2619.6461	7173.4	6279.9
988.6622	2620.9229	7151.65	6260.6
988.787	2622.199	7147.4	6255.8
988.9117	2623.4745	7131.55	6238.8
989.0364	2624.7493	7083.7	6191.75
989.161	2626.0234	7074.1	6182.9
989.2857	2627.2968	7034.3	6143.4
989.4102	2628.5695	7012.9	6121.65
989.5348	2629.8415	6967.15	6075.2
989.6593	2631.1128	6949.35	6056.45
989.7837	2632.3835	6921.95	6030.4
989.9082	2633.6535	6901.35	6008.95
990.0326	2634.9228	6866.75	5975.75
990.1569	2636.1914	6844	5953.65
990.2812	2637.4593	6855.35	5959.35
990.4055	2638.7265	6825.3	5933
990.5298	2639.9931	6792.1	5901.9
990.654	2641.259	6791.25	5899
990.7782	2642.5242	6762.6	5869
990.9023	2643.7887	6746.45	5854.2
991.0264	2645.0525	6717.2	5824.95
991.1505	2646.3156	6688.35	5794.6
991.2745	2647.5781	6657.6	5768
991.3985	2648.8398	6647.1	5756.25
991.5225	2650.1009	6617.6	5717.45
991.6464	2651.3613	6599.45	5707.4
991.7703	2652.6211	6592.55	5699.9
991.8942	2653.8801	6560.9	5668.4
992.018	2655.1385	6558.95	5663.6
992.1418	2656.3961	6529.85	5639.45
992.2655	2657.6531	6511.95	5621.6
992.3892	2658.9094	6493.35	5600.1
992.5129	2660.1651	6484.3	5594.55
992.6366	2661.42	6458.05	5566.75
992.7602	2662.6743	6431.4	5537.05
992.8837	2663.9279	6431.35	5539.3
993.0073	2665.1808	6413.4	5520.25
993.1307	2666.433	6379.1	5486
993.2542	2667.6846	6347.3	5456.65
993.3776	2668.9354	6361.65	5466.75
993.501	2670.1856	6340.3	5448
993.6244	2671.4351	6334	5442.55
993.7477	2672.6839	6320.4	5426.65
993.8709	2673.9321	6302.05	5411.45
993.9942	2675.1795	6262.65	5370.7
994.1174	2676.4263	6249.1	5355.95
994.2405	2677.6724	6231	5339.95
994.3637	2678.9179	6221.5	5329.65
994.4868	2680.1626	6199.85	5309.55
994.6098	2681.4067	6196.15	5304.75
994.7328	2682.6501	6177.35	5287.15
994.8558	2683.8928	6143.4	5253.65
994.9788	2685.1348	6138.25	5247.15
995.1017	2686.3761	6084.85	5194.2
995.2245	2687.6168	6070.7	5179.55
995.3474	2688.8568	6053.1	5159.85
995.4702	2690.0961	6017.65	5127.4
995.5929	2691.3348	6007.55	5114.75
995.7156	2692.5727	5993.7	5102.35
995.8383	2693.81	5984.6	5094.45
995.961	2695.0466	5954.3	5064.25
996.0836	2696.2826	5941.5	5049.55
996.2062	2697.5178	5920.8	5027.85
996.3287	2698.7524	5895.5	5004.15
996.4512	2699.9863	5891.5	4998.65
996.5737	2701.2195	5875.6	4985.7
996.6961	2702.452	5846.5	4953.1
996.8185	2703.6839	5848.75	4955.35
996.9408	2704.9151	5828.8	4937.25
997.0631	2706.1456	5826.85	4934.7
997.1854	2707.3755	5789.6	4897.35
997.3077	2708.6046	5784.25	4890.5
997.4299	2709.8331	5788.3	4894.4
997.552	2711.0609	5753.1	4862.45
997.6742	2712.2881	5749.6	4857.95
997.7963	2713.5145	5753.3	4862.05
997.9183	2714.7403	5718.05	4826.7
998.0403	2715.9654	5717.65	4825
998.1623	2717.1899	5724.75	4816.25
998.2842	2718.4136	5697.5	4805.45
998.4062	2719.6367	5692.95	4800.2
998.528	2720.8591	5676.35	4778.1
998.6498	2722.0809	5652.65	4759.55
998.7716	2723.3019	5669.05	4773.8
998.8934	2724.5223	5642.85	4750.8
999.0151	2725.7421	5625	4731.95
999.1368	2726.9611	5616.1	4723.15
999.2584	2728.1795	5605	4708.3
999.38	2729.3972	5592.75	4701.7
999.5016	2730.6142	5551.1	4654.4
999.6231	2731.8306	5491.4	4598
999.7446	2733.0462	5474.65	4580.8
999.8661	2734.2612	5442.25	4545.85
999.9875	2735.4756	5406.85	4515.95
1000.1089	2736.6892	5387.95	4494.6
1000.2302	2737.9022	5352.35	4461.95
1000.3515	2739.1145	5317.9	4427.55
1000.4728	2740.3262	5303.7	4403.75
1000.594	2741.5372	5265.35	4374.85
1000.7152	2742.7475	5224.3	4331.05
1000.8363	2743.9571	5226.15	4333.65
1000.9575	2745.1661	5199.15	4305.15
1001.0785	2746.3744	5171.3	4279.9
1001.1996	2747.582	5152.05	4261.85
1001.3206	2748.7889	5140.3	4247.95
1001.4415	2749.9952	5111.7	4218.25
1001.5625	2751.2008	5100.15	4208.75
1001.6833	2752.4057	5078.05	4184.7
1001.8042	2753.61	5043.65	4153
1001.925	2754.8136	5022.7	4130.25
1002.0458	2756.0165	5029.05	4138.55
1002.1665	2757.2188	4986.5	4096.9
1002.2872	2758.4204	4984.95	4093.25
1002.4078	2759.6213	4961.65	4068.15
1002.5285	2760.8215	4960	4063.6
1002.649	2762.0211	4942.6	4048.3
1002.7696	2763.22	4925.4	4031.8
1002.8901	2764.4182	4904.9	4011.6
1003.0106	2765.6158	4883.3	3992.55
1003.131	2766.8127	4862.65	3970.8
1003.2514	2768.009	4839.6	3948.2
1003.3717	2769.2045	4836.65	3946.2
1003.492	2770.3994	4835.45	3941.85
1003.6123	2771.5936	4807.15	3915.55
1003.7325	2772.7872	4786.7	3896.25
1003.8527	2773.9801	4765.5	3872
1003.9729	2775.1723	4771.25	3864.5
1004.093	2776.3639	4740.85	3849.7
1004.2131	2777.5548	4722.1	3829.5
1004.3331	2778.745	4699.3	3806.4
1004.4531	2779.9346	4697.25	3806.15
1004.5731	2781.1235	4694.35	3802.55
1004.693	2782.3117	4668.45	3777
1004.8129	2783.4992	4659.7	3768.6
1004.9328	2784.6861	4659	3769.3
1005.0526	2785.8723	4665.2	3773.8
1005.1723	2787.0579	4628.9	3737.2
1005.2921	2788.2428	4629.7	3737.3
1005.4118	2789.427	4621.45	3731.7
1005.5314	2790.6106	4618.85	3726.25
1005.651	2791.7935	4601.2	3707.15
1005.7706	2792.9757	4607.35	3715.6
1005.8902	2794.1573	4597.4	3703.95
1006.0097	2795.3382	4610.95	3718.95
1006.1291	2796.5184	4605.95	3716.3
1006.2485	2797.698	4617.8	3724.5
1006.3679	2798.8769	4600.8	3709.3
1006.4873	2800.0551	4609.7	3717.9
1006.6066	2801.2327	4608.65	3714.95
1006.7258	2802.4096	4621.7	3729.1
1006.8451	2803.5859	4632.2	3739.75
1006.9642	2804.7615	4628.65	3736.6
1007.0834	2805.9364	4640.35	3749.35
1007.2025	2807.1106	4653.4	3762.1
1007.3216	2808.2842	4667.05	3774.65
1007.4406	2809.4572	4685	3794.15
1007.5596	2810.6294	4715.1	3823.95
1007.6785	2811.801	4738.05	3848.7
1007.7975	2812.972	4760.1	3867.25
1007.9163	2814.1423	4790.05	3897.6
1008.0352	2815.3119	4841.9	3950.1
1008.154	2816.4808	4878.05	3986.1
1008.2727	2817.6491	4904.75	4014.3
1008.3914	2818.8167	4939.55	4049.1
1008.5101	2819.9837	4993.3	4098.65
1008.6288	2821.15	5009.3	4117
1008.7474	2822.3157	5057.45	4166.65
1008.8659	2823.4807	5090.5	4197.95
1008.9844	2824.645	5119	4226.65
1009.1029	2825.8086	5151.45	4261.95
1009.2214	2826.9716	5189.55	4299.7
1009.3398	2828.134	5222.25	4331.5
1009.4581	2829.2957	5243.25	4351.35
1009.5764	2830.4567	5262.15	4372.2
1009.6947	2831.617	5266	4375.4
1009.813	2832.7767	5268.4	4377.05
1009.9312	2833.9358	5267.35	4376.75
1010.0493	2835.0941	5262.15	4368.15
1010.1675	2836.2519	5230.75	4338.4
1010.2855	2837.4089	5213.3	4321.05
1010.4036	2838.5653	5222.1	4331.35
1010.5216	2839.7211	5186.7	4296.4
1010.6396	2840.8761	5196.9	4305
1010.7575	2842.0306	5206	4315.2
1010.8754	2843.1843	5239.8	4351.5
1010.9932	2844.3374	5282.2	4392.5
1011.111	2845.4899	5329.65	4438.75
1011.2288	2846.6417	5394.85	4503.6
1011.3465	2847.7928	5460.55	4569.45
1011.4642	2848.9433	5525.55	4633.85
1011.5818	2850.0931	5591.65	4702.25
1011.6995	2851.2422	5669.75	4776.65
1011.817	2852.3907	5731.3	4839.6
1011.9345	2853.5385	5803.2	4910.7
1012.052	2854.6857	5857.65	4939.1
1012.1695	2855.8323	5877.4	4987.2
1012.2869	2856.9781	5887.55	4997.3
1012.4042	2858.1233	5962.15	5071.9
1012.5216	2859.2679	5986.2	5095.75
1012.6389	2860.4118	6038.6	5145.6
1012.7561	2861.555	6051.1	5154.7
1012.8733	2862.6976	6060.3	5167.15
1012.9905	2863.8395	6093.15	5204.4
1013.1076	2864.9808	6095.5	5207.35
1013.2247	2866.1214	6112.3	5222.8
1013.3417	2867.2614	6109.6	5219.55
1013.4587	2868.4007	6108.45	5215.5
1013.5757	2869.5393	6103.1	5210.4
1013.6926	2870.6773	6120.7	5224.6
1013.8095	2871.8146	6109.35	5214.65
1013.9263	2872.9513	6113.9	5221.05
1014.0431	2874.0874	6081.95	5192.15
1014.1599	2875.2227	6060.2	5169.45
1014.2766	2876.3574	6052.4	5161.5
1014.3933	2877.4915	5999.25	5109.3
1014.51	2878.6249	5948.8	5058.35
1014.6266	2879.7577	5931.75	5039.35
1014.7431	2880.8898	5906.15	5003.95
1014.8596	2882.0212	5880.45	4989.5
1014.9761	2883.152	5844.05	4951.5
1015.0925	2884.2821	5827.65	4938.2
1015.2089	2885.4116	5821.55	4932.3
1015.3253	2886.5405	5799.45	4908.6
1015.4416	2887.6686	5809	4915.25
1015.5579	2888.7962	5789.85	4898.2
1015.6741	2889.923	5782.45	4892.8
1015.7903	2891.0493	5777.85	4888.6
1015.9065	2892.1748	5790.55	4900.2
1016.0226	2893.2997	5781.3	4889.25
1016.1387	2894.424	5780.6	4893.05
1016.2547	2895.5476	5809.9	4919.5
1016.3707	2896.6706	5802.65	4914.3
1016.4866	2897.7929	5822.7	4930.85
1016.6025	2898.9145	5858	4969.65
1016.7184	2900.0355	5885.9	4994.25
1016.8342	2901.1559	5877	4985.25
1016.95	2902.2756	5912	5020.15
1017.0658	2903.3946	5917.9	5027.55
1017.1815	2904.513	5957.6	5063.75
1017.2971	2905.6308	5972.8	5081.7
1017.4127	2906.7479	5978.15	5086.45
1017.5283	2907.8643	6020	5128.4
1017.6439	2908.9801	6006.05	5116.55
1017.7594	2910.0953	6010.35	5120.8
1017.8748	2911.2098	6004.95	5108.6
1017.9902	2912.3236	5987.35	5086.6
1018.1056	2913.4368	5953.65	5058.65
1018.2209	2914.5494	5937.1	5044.3
1018.3362	2915.6613	5898.45	5003
1018.4515	2916.7725	5848.4	4954.9
1018.5667	2917.8831	5816.95	4923.05
1018.6819	2918.9931	5798.2	4906.45
1018.797	2920.1024	5740.5	4848.3
1018.9121	2921.211	5726.95	4836.8
1019.0271	2922.319	5700.7	4807.2
1019.1421	2923.4264	5661.25	4771.8
1019.2571	2924.5331	5642.55	4752.4
1019.372	2925.6391	5622.4	4732.45
1019.4869	2926.7445	5597.35	4709.8
1019.6017	2927.8493	5594.3	4703.9
1019.7165	2928.9534	5588.5	4698.55
1019.8313	2930.0569	5557.15	4662.6
1019.946	2931.1597	5545.9	4653.85
1020.0606	2932.2619	5539.5	4647.9
1020.1753	2933.3634	5520.9	4629.2
1020.2899	2934.4643	5506	4608.75
1020.4044	2935.5645	5475.2	4576.75
1020.5189	2936.6641	5422.5	4527.3
1020.6334	2937.763	5357.55	4466.5
1020.7478	2938.8613	5309	4420.1
1020.8622	2939.959	5250.2	4354.4
1020.9765	2941.056	5171.35	4281.05
1021.0908	2942.1523	5067.8	4174.15
1021.2051	2943.248	4976.8	4085.1
1021.3193	2944.3431	4877.85	3986.95
1021.4334	2945.4375	4772.65	3880.45
1021.5476	2946.5313	4673.4	3784.9
1021.6617	2947.6244	4552.1	3660.5
1021.7757	2948.7169	4421.4	3529.75
1021.8897	2949.8087	4326.9	3435.25
1022.0037	2950.8999	4217.05	3325.05
1022.1176	2951.9904	4130.8	3240.4
1022.2315	2953.0803	4060.95	3169.35
1022.3453	2954.1696	3985.7	3094.1
1022.4591	2955.2582	3931.7	3040.55
1022.5728	2956.3462	3847.9	2956.6
1022.6865	2957.4335	3839.15	2949.65
1022.8002	2958.5202	3779.7	2886.5
1022.9138	2959.6062	3742.4	2851.35
1023.0274	2960.6916	3718.1	2827.1
1023.141	2961.7764	3685.95	2794.15
1023.2545	2962.8605	3666.4	2773
1023.3679	2963.9439	3633.75	2743.95
1023.4813	2965.0267	3622.9	2731.5
1023.5947	2966.1089	3630.45	2716.55
1023.708	2967.1905	3583	2692.55
1023.8213	2968.2714	3587.6	2697.85
1023.9346	2969.3516	3578.05	2687.7
1024.0478	2970.4312	3578.7	2680.35
1024.1609	2971.5102	3567.15	2677.9
1024.274	2972.5885	3540.65	2650.1
1024.3871	2973.6662	3568.75	2672.45
1024.5002	2974.7432	3538.7	2649.1
1024.6132	2975.8196	3529.1	2637.2
1024.7261	2976.8954	3505.6	2615
1024.839	2977.9705	3481.3	2589.95
1024.9519	2979.045	3459.3	2569.05
1025.0647	2980.1188	3439.2	2549.05
1025.1775	2981.192	3404.55	2515.25
1025.2902	2982.2645	3380.55	2489.95
1025.4029	2983.3364	3340.6	2449.4
1025.5156	2984.4077	3310.3	2418.95
1025.6282	2985.4783	3284.05	2387
1025.7407	2986.5483	3240.6	2348.25
1025.8532	2987.6177	3199.15	2309.45
1025.9657	2988.6864	3165.4	2275.15
1026.0782	2989.7545	3132.05	2239
1026.1906	2990.8219	3083.25	2193.4
1026.3029	2991.8887	3039.8	2145.8
1026.4152	2992.9548	3019.75	2129.35
1026.5275	2994.0204	2970.45	2080.45
1026.6397	2995.0852	2938.35	2048.75
1026.7519	2996.1495	2907.7	2017.55
1026.864	2997.2131	2884.05	1993.7
1026.9761	2998.276	2856.3	1965.05
1027.0882	2999.3383	2832.55	1940.95
1027.2002	3000.4	2813.6	1921.5
1027.3122	3001.4611	2789.6	1899.4
1027.4241	3002.5215	2765.35	1872.4
1027.536	3003.5812	2760.05	1870.65
1027.6478	3004.6404	2737.55	1847.7
1027.7596	3005.6989	2720.45	1828.5
1027.8714	3006.7567	2703.4	1812.15
1027.9831	3007.8139	2705.75	1792.25
1028.0947	3008.8705	2675.75	1783.6
1028.2064	3009.9264	2671.4	1776
1028.3179	3010.9818	2665.85	1775.85
1028.4295	3012.0364	2652	1761.65
1028.541	3013.0905	2639.3	1748.4
1028.6524	3014.1439	2647.6	1757.85
1028.7638	3015.1966	2633.05	1741.65
1028.8752	3016.2487	2612.9	1722.55
1028.9865	3017.3002	2607.4	1709.65
1029.0978	3018.3511	2614.05	1724.4
1029.209	3019.4013	2603.15	1714.75
1029.3202	3020.4509	2604.9	1714.1
1029.4314	3021.4998	2594.75	1705
1029.5425	3022.5481	2594.9	1703.35
1029.6535	3023.5958	2580.05	1688.75
1029.7645	3024.6428	2584.35	1692.8
1029.8755	3025.6892	2574.45	1684
1029.9864	3026.735	2564.6	1674.2
1030.0973	3027.7802	2568.55	1678.05
1030.2082	3028.8247	2570.25	1678.3
1030.319	3029.8685	2547.85	1655.65
1030.4297	3030.9118	2554.25	1662.95
1030.5404	3031.9544	2552.95	1663.65
1030.6511	3032.9963	2570.95	1682.05
1030.7617	3034.0376	2562.7	1672.4
1030.8723	3035.0783	2552.3	1659.7
1030.9829	3036.1184	2565.85	1674
1031.0934	3037.1578	2549.85	1661.35
1031.2038	3038.1966	2541.5	1650.1
1031.3142	3039.2348	2545.1	1654.75
1031.4246	3040.2723	2530.6	1631.1
1031.5349	3041.3092	2530.5	1641.55
1031.6452	3042.3455	2526.9	1636.85
1031.7554	3043.3811	2518.35	1629.2
1031.8656	3044.4161	2505.9	1615.2
1031.9758	3045.4505	2502.05	1613.7
1032.0859	3046.4842	2495.9	1604.85
1032.1959	3047.5173	2472	1582.25
1032.3059	3048.5498	2460.95	1570.05
1032.4159	3049.5816	2453.3	1563.9
1032.5258	3050.6128	2442.55	1549.9
1032.6357	3051.6434	2434.15	1542.9
1032.7455	3052.6734	2416.7	1525.05
1032.8553	3053.7027	2410.7	1520.95
1032.9651	3054.7314	2394.6	1503.95
1033.0748	3055.7594	2390.9	1500.75
1033.1845	3056.7868	2378.6	1487.6
1033.2941	3057.8136	2364.7	1473.75
1033.4037	3058.8398	2349.8	1459.15
1033.5132	3059.8653	2353.65	1463.85
1033.6227	3060.8902	2341.6	1451.55
1033.7321	3061.9145	2338	1448.45
1033.8415	3062.9381	2323.4	1432.5
1033.9509	3063.9612	2321.75	1417.15
1034.0602	3064.9835	2294.95	1403.65
1034.1694	3066.0053	2290.7	1398.75
1034.2787	3067.0264	2272.6	1384.05
1034.3878	3068.0469	2272.35	1380.05
1034.497	3069.0668	2268.05	1376.3
1034.6061	3070.086	2238.05	1350.55
1034.7151	3071.1046	2229	1338.1
1034.8241	3072.1226	2221.75	1331.4
1034.9331	3073.1399	2197.3	1307.9
1035.042	3074.1567	2195.3	1306.15
1035.1508	3075.1727	2186.1	1294.25
1035.2597	3076.1882	2169.1	1278.35
1035.3684	3077.203	2154.75	1265.6
1035.4772	3078.2173	2134.95	1243.65
1035.5859	3079.2308	2129.2	1237.2
1035.6945	3080.2438	2109.9	1218.1
1035.8031	3081.2561	2110.9	1219.8
1035.9117	3082.2678	2092.95	1204.45
1036.0202	3083.2789	2090.1	1198.55
1036.1286	3084.2893	2074.25	1184
1036.2371	3085.2991	2065.05	1174.6
1036.3454	3086.3083	2066.2	1170.9
1036.4538	3087.3169	2048.9	1157.65
1036.562	3088.3248	2037.25	1146.2
1036.6703	3089.3321	2025.8	1133.65
1036.7785	3090.3388	2012.25	1124.7
1036.8866	3091.3449	2003.65	1112.3
1036.9948	3092.3503	2002.05	1109.6
1037.1028	3093.3551	2001.65	1112.25
1037.2108	3094.3593	1984.8	1096
1037.3188	3095.3629	1979.3	1090.85
1037.4267	3096.3658	1976.7	1085.8
1037.5346	3097.3681	1969.35	1078.4
1037.6425	3098.3698	1966.4	1074.5
1037.7503	3099.3708	1960.15	1063.85
1037.858	3100.3713	1941.35	1050.65
1037.9657	3101.3711	1946.5	1054.2
1038.0734	3102.3702	2031.55	1027.25
1038.181	3103.3688	1931.4	1040.4
1038.2886	3104.3667	1921.4	1032.35
1038.3961	3105.364	1912.75	1023.25
1038.5036	3106.3607	1890.55	999.8
1038.611	3107.3568	1902.7	1011.55
1038.7184	3108.3522	1903.7	1012.8
1038.8257	3109.347	1891.15	999.6
1038.933	3110.3412	1885.1	990.15
1039.0403	3111.3348	1879.6	988.85
1039.1475	3112.3277	1877.2	988.45
1039.2547	3113.32	1861.7	973.75
1039.3618	3114.3117	1858.65	968.35
1039.4689	3115.3028	1857.5	967.3
1039.5759	3116.2932	1850	957.9
1039.6829	3117.2831	1849.95	956.8
1039.7898	3118.2723	1836.25	946.4
1039.8967	3119.2608	1830.9	940.75
1040.0035	3120.2488	1831.8	940.95
1040.1103	3121.2361	1819.85	930.4
1040.2171	3122.2229	1813.15	921.75
1040.3238	3123.209	1813.9	923.95
1040.4305	3124.1944	1803.85	913.85
1040.5371	3125.1793	1793.45	902.8
1040.6437	3126.1635	1791.3	902.25
1040.7502	3127.1471	1792	902.25
1040.8567	3128.1301	1777.2	888.8
1040.9631	3129.1125	1785.7	895.15
1041.0695	3130.0942	1780.55	891.35
1041.1759	3131.0753	1781.15	880
1041.2822	3132.0558	1775.35	882.25
1041.3884	3133.0357	1756.95	865.45
1041.4946	3134.015	1756.3	866.5
1041.6008	3134.9936	1747.6	855.25
1041.7069	3135.9716	1775.5	864.3
1041.813	3136.949	1746.2	856.85
1041.919	3137.9258	1751.75	857.15
1042.025	3138.902	1746	849.7
1042.1309	3139.8775	1739.4	849.7
1042.2368	3140.8524	1732.75	845.3
1042.3427	3141.8267	1725.95	836.35
1042.4485	3142.8004	1717.55	827.65
1042.5542	3143.7735	1720.9	825.9
1042.6599	3144.7459	1713.15	819.25
1042.7656	3145.7178	1710.15	819.6
1042.8712	3146.689	1703.7	815.6
1042.9768	3147.6596	1696.45	806.65
1043.0823	3148.6295	1691.9	801.35
1043.1878	3149.5989	1693.2	802.65
1043.2932	3150.5676	1682.25	794.7
1043.3986	3151.5357	1683.4	796
1043.5039	3152.5032	1669.6	778.85
1043.6092	3153.4701	1671.55	780.45
1043.7145	3154.4364	1669.75	776.4
1043.8197	3155.402	1660.2	770.05
1043.9248	3156.367	1664.2	771.65
1044.03	3157.3315	1690.55	759.2
1044.135	3158.2952	1658.75	769.35
1044.24	3159.2584	1644.15	753.7
1044.345	3160.221	1648.4	758.25
1044.4499	3161.1829	1637.85	747.65
1044.5548	3162.1442	1631.7	742.35
1044.6596	3163.105	1619.2	730.3
1044.7644	3164.065	1619.25	731.65
1044.8692	3165.0245	1617.55	724.25
1044.9739	3165.9834	1606.1	717.25
1045.0785	3166.9416	1608.55	718.2
1045.1831	3167.8993	1604.6	714.85
1045.2877	3168.8563	1607.4	717.05
1045.3922	3169.8127	1600.45	711.15
1045.4966	3170.7684	1592.95	703.35
1045.6011	3171.7236	1588.75	699.3
1045.7054	3172.6782	1586.25	697.5
1045.8098	3173.6321	1578.6	688.6
1045.914	3174.5854	1579.35	687.25
1046.0183	3175.5381	1576.65	686.75
1046.1224	3176.4902	1578.25	689.5
1046.2266	3177.4417	1567.45	678.35
1046.3307	3178.3926	1558.35	669.75
1046.4347	3179.3428	1560.25	672
1046.5387	3180.2924	1556.25	667.7
1046.6427	3181.2415	1555.6	665.65
1046.7466	3182.1899	1544.8	652.95
1046.8504	3183.1377	1543.1	652.45
1046.9542	3184.0848	1539.65	648.05
1047.058	3185.0314	1539.2	650
1047.1617	3185.9773	1534.3	645.3
1047.2654	3186.9227	1528	637.3
1047.369	3187.8674	1536.8	646.35
1047.4726	3188.8115	1525.1	631.5
1047.5761	3189.755	1517.6	627.35
1047.6796	3190.6979	1514.4	624.9
1047.783	3191.6402	1519.05	630.7
1047.8864	3192.5818	1511.4	622.5
1047.9898	3193.5229	1527.95	614.35
1048.0931	3194.4633	1508.15	615.5
1048.1963	3195.4031	1496.25	605.3
1048.2995	3196.3423	1495.55	604.6
1048.4027	3197.2809	1493.8	603.85
1048.5058	3198.2189	1488.9	600.6
1048.6089	3199.1563	1496.8	600.5
1048.7119	3200.0931	1480.9	592.35
1048.8148	3201.0292	1478.55	589.45
1048.9178	3201.9648	1480.4	590.9
1049.0206	3202.8997	1473.2	581.6
1049.1235	3203.834	1477.35	586.75
1049.2262	3204.7677	1474	583.25
1049.329	3205.7008	1469.95	578.85
1049.4317	3206.6333	1464.9	577.35
1049.5343	3207.5652	1455.65	563.6
1049.6369	3208.4964	1455.1	563.25
1049.7394	3209.4271	1452.85	562.75
1049.8419	3210.3571	1453.85	564.95
1049.9444	3211.2865	1455.85	564.65
1050.0468	3212.2154	1452.1	563.1
1050.1491	3213.1436	1450.05	557.75
1050.2514	3214.0712	1457.05	562.15
1050.3537	3214.9982	1440.8	551.75
1050.4559	3215.9246	1434.65	544.2
1050.5581	3216.8503	1427.9	540.1
1050.6602	3217.7755	1439.4	549.95
1050.7623	3218.7001	1433.85	543.6
1050.8643	3219.624	1427.75	536.9
1050.9663	3220.5473	1427.4	537.1
1051.0682	3221.4701	1417.4	525.15
1051.1701	3222.3922	1419.05	526.9
1051.2719	3223.3137	1420.9	530.2
1051.3737	3224.2346	1411.85	522.8
1051.4754	3225.1549	1412.65	524.55
1051.5771	3226.0746	1416.6	528.2
1051.6788	3226.9937	1407.6	518.9
1051.7804	3227.9121	1403.3	515.05
1051.8819	3228.83	1402.05	511.15
1051.9834	3229.7473	1399.4	509.75
1052.0849	3230.6639	1401.55	511.25
1052.1863	3231.5799	1384.55	496.1
1052.2876	3232.4954	1386.4	495.55
1052.3889	3233.4102	1385.95	496.15
1052.4902	3234.3244	1382.15	492.1
1052.5914	3235.238	1378.8	488.75
1052.6926	3236.151	1396.8	484.75
1052.7937	3237.0634	1374.4	485.1
1052.8948	3237.9752	1367.95	478.75
1052.9958	3238.8864	1365	476.2
1053.0968	3239.797	1357	467.75
1053.1977	3240.7069	1361.85	472
1053.2986	3241.6163	1363.1	472.1
1053.3994	3242.5251	1356.15	467
1053.5002	3243.4332	1351.8	464.1
1053.6009	3244.3408	1350.7	459.1
1053.7016	3245.2477	1351.25	464.05
1053.8022	3246.154	1344.05	453.4
1053.9028	3247.0598	1339.15	447.1
1054.0034	3247.9649	1333.25	443.8
1054.1039	3248.8694	1332.55	442.75
1054.2043	3249.7733	1333.3	446.8
1054.3047	3250.6766	1329.5	439.45
1054.4051	3251.5793	1328.8	440.15
1054.5054	3252.4814	1328.45	437.9
1054.6056	3253.3829	1317.15	429.3
1054.7058	3254.2838	1324.2	434.1
1054.806	3255.1841	1319.55	429.45
1054.9061	3256.0838	1310.15	420.75
1055.0061	3256.9829	1311.25	422.55
1055.1062	3257.8814	1310.85	418.85
1055.2061	3258.7792	1308.85	419.55
1055.306	3259.6765	1296.65	404.85
1055.4059	3260.5731	1294.85	404.7
1055.5057	3261.4692	1285.25	395.9
1055.6055	3262.3647	1283.05	392.55
1055.7052	3263.2595	1283.5	395.45
1055.8049	3264.1538	1272.4	383
1055.9045	3265.0474	1264.2	375.65
1056.0041	3265.9404	1261.4	371.75
1056.1036	3266.8329	1252.55	363.95
1056.2031	3267.7247	1263.6	365.25
1056.3025	3268.616	1238.45	349.6
1056.4019	3269.5066	1233.15	342.65
1056.5013	3270.3966	1224.4	334.65
1056.6005	3271.286	1213	325
