Software Version:	3.9.2.0
Unit SN:	10000200
Spectrometer SN:	6960
Date:	3/6/2024 9:34:52 AM
Data Line Index:	25
Spectral Points:	2048
Integration time (ms):	125
Averages:	20
Delay (ms):	30
Sequence Number:	1
Processing:	dark subtract
Laser Power (mW):	305
Laser Current (mA):	825
Laser Diode Temp (C):	25.1
Laser Case Temp (C):	23.8
System Temp (C):	23.6
Spectrometer Temp (C):	21.2
CCD Temp (C):	-0.029
Secondary Temp (C):	20
Heatsink Temp (C):	17.611
CCDPCB Temp (C):	30.249
SecondaryPCB Temp (C):	25.591

Wavelength	RamanShift	Raw Counts	Dark Subtracted
787.061	30.1047	525.2	117.55
787.2016	32.3739	525.55	121
787.3422	34.6426	532.15	124.75
787.4828	36.9109	540.75	132.4
787.6235	39.1787	553.55	140.55
787.7642	41.4461	567.25	150.15
787.9049	43.7131	578.85	158.45
788.0456	45.9796	589.6	166.05
788.1863	48.2456	605.05	177.95
788.3271	50.5112	615.2	183.85
788.4679	52.7764	632.35	198.35
788.6087	55.0411	647.15	210.35
788.7496	57.3054	664.25	222.4
788.8904	59.5692	679.4	236
789.0313	61.8326	694.35	248.75
789.1722	64.0955	719.75	270.7
789.3132	66.3579	744.5	290.4
789.4541	68.6199	774.2	316.15
789.5951	70.8815	831.25	369.9
789.7361	73.1426	947.45	479.7
789.8771	75.4032	1230.5	760.25
790.0181	77.6634	1948.25	1475.7
790.1592	79.9231	3676.5	3202.35
790.3003	82.1824	7463.4	6987.05
790.4414	84.4412	14130.8	13646.5
790.5825	86.6995	23083.15	22592
790.7237	88.9574	31733.75	31237.95
790.8648	91.2148	37796.05	37295.95
791.006	93.4717	40964.1	40460.8
791.1472	95.7282	42302.2	41796.7
791.2885	97.9842	42935.95	42430.7
791.4297	100.2398	43262.6	42753
791.571	102.4949	43138.65	42625.8
791.7123	104.7495	43479.35	42962.25
791.8536	107.0036	43237.4	42720.3
791.9949	109.2573	43717.1	43201.4
792.1363	111.5105	43301.25	42782.35
792.2777	113.7632	43650.15	43129.85
792.4191	116.0154	43705.45	43172.7
792.5605	118.2672	44045.65	43520.9
792.7019	120.5185	43999.95	43473.15
792.8434	122.7693	44067.95	43539.6
792.9849	125.0197	44023.5	43488.6
793.1264	127.2696	44401.5	43863.85
793.2679	129.519	44596.15	44055.2
793.4094	131.7679	44941.75	44400.5
793.551	134.0163	44171.8	43628.85
793.6926	136.2642	44605.05	44056.2
793.8342	138.5117	45054	44498.45
793.9758	140.7587	44966.9	44415.8
794.1175	143.0052	45113.85	44557.55
794.2591	145.2512	44749.75	44193.55
794.4008	147.4967	45262.75	44703.1
794.5425	149.7417	45091.25	44529.15
794.6842	151.9863	45189.45	44623.3
794.826	154.2304	44734.35	44163.9
794.9677	156.4739	45053.3	44478
795.1095	158.717	45324.6	44748.7
795.2513	160.9596	45329.35	44749.5
795.3931	163.2017	45043.9	44463.65
795.535	165.4433	45481.4	44897
795.6768	167.6844	45293.5	44708.5
795.8187	169.925	45518.8	44928.45
795.9606	172.1651	45395.5	44802.35
796.1025	174.4047	45277.55	44680.35
796.2445	176.6439	45454.05	44854
796.3864	178.8825	45566.15	44962.6
796.5284	181.1206	45730.8	45122.45
796.6704	183.3582	45792.4	45182.55
796.8124	185.5954	45485	44875.85
796.9544	187.832	45794.65	45180.35
797.0965	190.0681	45702.8	45084.6
797.2386	192.3037	46129.55	45508.2
797.3806	194.5388	46581.4	45956.5
797.5228	196.7734	45765.95	45142.15
797.6649	199.0075	46459.1	45833.05
797.807	201.2411	46545	45918.9
797.9492	203.4742	46879	46250.35
798.0914	205.7068	46963.55	46328.3
798.2336	207.9389	47006.25	46373.2
798.3758	210.1704	46997.25	46372.15
798.518	212.4015	47436.3	46821.25
798.6603	214.632	46842.55	46227.85
798.8025	216.862	47383.15	46769.75
798.9448	219.0915	47525.35	46911.45
799.0871	221.3205	47253	46638.2
799.2294	223.549	47674.3	47061.5
799.3718	225.777	47732.55	47118.3
799.5141	228.0044	47829.65	47207.05
799.6565	230.2314	47969.5	47345.1
799.7989	232.4578	47900.05	47271.9
799.9413	234.6837	47960.95	47320.45
800.0837	236.909	48684.6	48046.1
800.2262	239.1339	47764.55	47102
800.3687	241.3582	48222.25	47577.15
800.5111	243.582	48230.5	47553
800.6536	245.8053	48422.45	47756.45
800.7961	248.0281	48390.65	47731.45
800.9387	250.2503	48571.3	47908.5
801.0812	252.472	48411.7	47748.5
801.2238	254.6932	48531.75	47868.15
801.3664	256.9139	48495.05	47828.45
801.509	259.134	49199.8	48526.4
801.6516	261.3536	48292.8	47623.75
801.7942	263.5727	49059.95	48389.6
801.9369	265.7912	48762.7	48093.45
802.0795	268.0092	48880.85	48210.35
802.2222	270.2267	48969.45	48298.6
802.3649	272.4436	48829.45	48157.3
802.5076	274.6601	49145.8	48461.8
802.6504	276.8759	49222.65	48540.1
802.7931	279.0913	49308.7	48626.75
802.9359	281.3061	49182.7	48501.6
803.0787	283.5204	49401.8	48717.3
803.2215	285.7341	49371.25	48683.9
803.3643	287.9473	49849.5	49151.7
803.5071	290.16	49435.3	48744.35
803.6499	292.3721	49962.35	49279.2
803.7928	294.5837	49204.85	48518.9
803.9357	296.7947	49066.15	48380.35
804.0786	299.0052	49529.25	48840.95
804.2215	301.2152	49229.45	48539.7
804.3644	303.4246	49718.65	49029.85
804.5074	305.6334	49607.85	48917.45
804.6503	307.8418	49144.45	48450.8
804.7933	310.0495	49457.4	48763.65
804.9363	312.2568	49243.05	48550.9
805.0793	314.4635	49137.85	48442.4
805.2223	316.6696	49239.05	48541.8
805.3653	318.8752	49443.65	48735.05
805.5084	321.0802	48623.6	47923.55
805.6514	323.2847	48910.6	48207.2
805.7945	325.4887	49000.05	48296.35
805.9376	327.692	48783.8	48075.85
806.0807	329.8949	49141.3	48434.75
806.2238	332.0972	49009.35	48298.25
806.367	334.2989	49208.55	48495.9
806.5101	336.5001	49446.1	48732.15
806.6533	338.7007	48995.55	48282.5
806.7965	340.9008	49186.9	48471.05
806.9397	343.1003	49153.3	48436.05
807.0829	345.2992	49330.6	48614.35
807.2261	347.4976	48996.35	48277.2
807.3693	349.6955	49130.25	48406.65
807.5126	351.8927	49009.9	48285.85
807.6559	354.0895	49176.8	48442.7
807.7991	356.2856	49123.7	48398.6
807.9424	358.4812	49366.95	48642.05
808.0857	360.6763	49047.5	48317.9
808.2291	362.8707	49127.85	48398.7
808.3724	365.0646	49141.5	48407.4
808.5158	367.258	49081.5	48345.95
808.6591	369.4508	48865.1	48126.2
808.8025	371.643	49118.3	48381.1
808.9459	373.8346	49014.9	48272.9
809.0893	376.0257	48919.8	48175.1
809.2327	378.2162	48825.9	48081.2
809.3762	380.4062	48702.6	47959.95
809.5196	382.5956	48800.75	48060.75
809.6631	384.7844	48824.25	48087.45
809.8066	386.9726	48732.4	47997.4
809.9501	389.1603	48801	48069.05
810.0936	391.3474	48449.1	47666.1
810.2371	393.5339	48744.7	48007.15
810.3806	395.7199	48261.8	47527.5
810.5241	397.9052	48334.05	47597.5
810.6677	400.09	48472.4	47733.1
810.8113	402.2743	48519	47780.85
810.9548	404.4579	48510.7	47770.95
811.0984	406.641	48468.95	47725.55
811.2421	408.8235	48626.8	47881.75
811.3857	411.0054	48604.6	47858.15
811.5293	413.1868	48674.5	47923.85
811.673	415.3675	48668.7	47916.65
811.8166	417.5477	48694.45	47939.6
811.9603	419.7273	48538.85	47781.85
812.104	421.9064	48396.7	47633
812.2477	424.0848	48353	47593.55
812.3914	426.2627	48276.7	47515.8
812.5351	428.4399	48010	47249.8
812.6788	430.6166	47832.6	47069.1
812.8226	432.7928	47908.8	47144.2
812.9663	434.9683	47643.7	46878.55
813.1101	437.1432	47661.25	46894.5
813.2539	439.3176	47609.4	46843.45
813.3977	441.4914	47269.9	46504.9
813.5415	443.6645	47318.55	46550.35
813.6853	445.8371	47154.05	46386.95
813.8291	448.0091	46955.95	46189.65
813.973	450.1806	46892.95	46123.65
814.1168	452.3514	46757	45986.05
814.2607	454.5216	46708	45928.5
814.4046	456.6913	46551.25	45780.45
814.5485	458.8603	46546.35	45773.45
814.6924	461.0288	46579.45	45808.6
814.8363	463.1967	46488.25	45715.4
814.9802	465.3639	46576.6	45801.8
815.1241	467.5306	46329.35	45554.35
815.2681	469.6967	46334.3	45560.3
815.412	471.8622	46190.35	45413.95
815.556	474.0271	46177.3	45400.8
815.7	476.1914	46157.7	45380.85
815.844	478.3551	46168.3	45391.45
815.988	480.5182	46289.6	45511.8
816.132	482.6807	46152.6	45374.1
816.276	484.8426	46233	45454.9
816.4201	487.0039	46347.05	45568.3
816.5641	489.1647	46377.05	45596.05
816.7082	491.3248	46346.15	45566.55
816.8522	493.4843	46352.85	45571.8
816.9963	495.6432	46320.3	45541.45
817.1404	497.8015	46069.5	45286.45
817.2845	499.9592	46178	45395.1
817.4286	502.1163	46107.35	45324.25
817.5727	504.2728	45941.9	45153.65
817.7168	506.4287	46060.45	45274.9
817.861	508.5839	45851.65	45063.85
818.0051	510.7386	45855.25	45068.2
818.1493	512.8927	45933.95	45139.1
818.2935	515.0461	45915.9	45127.15
818.4377	517.199	45903.2	45112.4
818.5818	519.3512	45932.95	45143.6
818.726	521.5029	45841.95	45047.55
818.8703	523.6539	45884.85	45090.75
819.0145	525.8043	45765.45	44971.9
819.1587	527.9541	45788.7	44992.3
819.303	530.1033	45623.25	44829.15
819.4472	532.2519	45501.5	44707.7
819.5915	534.3999	45444.55	44648.1
819.7357	536.5472	45486.75	44691.2
819.88	538.694	45396.9	44601.4
820.0243	540.8401	45436.8	44639.75
820.1686	542.9856	45436.6	44640.05
820.3129	545.1305	45403.55	44603.7
820.4572	547.2748	45421.35	44622.15
820.6016	549.4185	45391.4	44590.05
820.7459	551.5615	45328.65	44530.35
820.8902	553.704	45334.7	44533.75
821.0346	555.8458	45229.95	44429.9
821.1789	557.987	45237.5	44439.05
821.3233	560.1276	45213.05	44412.35
821.4677	562.2675	45244.9	44445.1
821.6121	564.4069	45258.45	44455.95
821.7565	566.5456	45240.15	44439.6
821.9009	568.6837	45167.25	44363.8
822.0453	570.8212	45008.7	44207.65
822.1897	572.958	44727.45	43923.6
822.3342	575.0942	44647.25	43845.65
822.4786	577.2299	44548.6	43743.55
822.6231	579.3648	44443.75	43640.9
822.7675	581.4992	44210.95	43405.5
822.912	583.6329	44039.2	43234.9
823.0565	585.766	44026.7	43221.4
823.201	587.8985	44001.1	43195.65
823.3454	590.0304	43857.05	43041.5
823.4899	592.1616	43855.25	43043.7
823.6345	594.2922	43808	42999.75
823.779	596.4222	43676.5	42867.2
823.9235	598.5515	43576.8	42764.75
824.068	600.6802	43430	42620.4
824.2126	602.8083	43175.55	42365.4
824.3571	604.9358	43141.75	42330.2
824.5017	607.0626	43021.45	42207.75
824.6462	609.1888	42941	42129.25
824.7908	611.3144	42960.55	42147.75
824.9354	613.4393	42889.3	42078.8
825.08	615.5636	42823.85	42009.6
825.2246	617.6873	42865.7	42052.35
825.3692	619.8103	42934.55	42118.4
825.5138	621.9327	42807.05	41988.6
825.6584	624.0544	42810	41996.5
825.803	626.1756	42686	41871.75
825.9477	628.2961	42656.95	41842.45
826.0923	630.4159	42501.65	41684.6
826.237	632.5351	42495.6	41678.65
826.3816	634.6537	42383.3	41565.4
826.5263	636.7716	42292.75	41472.15
826.6709	638.8889	42323.35	41503.9
826.8156	641.0056	42378.15	41558.65
826.9603	643.1216	42257.6	41437.05
827.105	645.237	42306.9	41485.45
827.2497	647.3518	42196	41378.05
827.3944	649.4659	42165.25	41347.8
827.5391	651.5793	42091	41270.2
827.6838	653.6922	41984.05	41162.8
827.8285	655.8043	41906.8	41084.9
827.9733	657.9159	41911.7	41089.25
828.118	660.0268	41757.85	40933.6
828.2627	662.137	41685.9	40862.75
828.4075	664.2466	41662.7	40836.5
828.5522	666.3556	41626.65	40800.95
828.697	668.4639	41466.15	40638.45
828.8418	670.5716	41522.3	40697.25
828.9865	672.6786	41492.65	40666.3
829.1313	674.785	41292	40464.2
829.2761	676.8907	41151.75	40325.3
829.4209	678.9958	41221.9	40396.35
829.5657	681.1002	41101.85	40273.7
829.7105	683.204	40982.95	40151.7
829.8553	685.3072	40978.95	40148.9
830.0001	687.4097	40862.35	40033.95
830.1449	689.5115	40827.25	39995.65
830.2898	691.6127	40832.9	40005.2
830.4346	693.7132	40699.55	39869.9
830.5794	695.8131	40749.85	39898.5
830.7243	697.9123	40763	39934.05
830.8691	700.0109	40681.7	39850.9
831.014	702.1089	40637.8	39807.1
831.1588	704.2061	40574.2	39742.1
831.3037	706.3028	40578.65	39744.55
831.4486	708.3987	40548.55	39716.75
831.5935	710.4941	40476.8	39644.5
831.7383	712.5887	40494.95	39660.3
831.8832	714.6827	40464.95	39626.7
832.0281	716.7761	40428.6	39594.05
832.173	718.8688	40366.15	39531.65
832.3179	720.9608	40274.4	39436.15
832.4628	723.0522	40318.45	39481.6
832.6077	725.1429	40144.65	39309.55
832.7527	727.233	40178.5	39342
832.8976	729.3224	40235.3	39398.05
833.0425	731.4112	40141	39304.1
833.1874	733.4993	40086.1	39246.35
833.3324	735.5867	39889.85	39052.15
833.4773	737.6735	39830.8	38993.2
833.6222	739.7596	39675.65	38836.2
833.7672	741.845	39567.85	38728.6
833.9122	743.9298	39511.25	38671.8
834.0571	746.014	39404.25	38564.55
834.2021	748.0974	39427.6	38586.25
834.347	750.1802	39263.15	38423.7
834.492	752.2624	39125.35	38286.35
834.637	754.3439	39034.45	38192.95
834.782	756.4247	38887.7	38037.55
834.9269	758.5048	38791.55	37952.75
835.0719	760.5843	38674.35	37832.05
835.2169	762.6631	38628.6	37787.45
835.3619	764.7413	38593.75	37752.75
835.5069	766.8188	38672.35	37828.7
835.6519	768.8956	38546.05	37702.05
835.7969	770.9718	38651.05	37809
835.9419	773.0473	38441.75	37598.1
836.0869	775.1221	38405.8	37563
836.232	777.1962	38204.05	37360.7
836.377	779.2697	38204.8	37359.8
836.522	781.3426	38248.75	37387.35
836.667	783.4147	38193.5	37348.05
836.8121	785.4862	38175.75	37333.75
836.9571	787.557	38039.35	37196.3
837.1021	789.6271	37873.85	37029.9
837.2472	791.6966	37682.35	36838.25
837.3922	793.7654	37475.65	36628.45
837.5373	795.8335	37436.2	36590.85
837.6823	797.901	37284.15	36440.45
837.8274	799.9678	37236.95	36391.1
837.9724	802.0339	37131.95	36289.8
838.1175	804.0993	37137.7	36283.6
838.2626	806.1641	36973.95	36127.95
838.4076	808.2282	36920.1	36073
838.5527	810.2916	36856.85	36006.35
838.6978	812.3544	36824.25	35979.6
838.8428	814.4164	36686.25	35841.7
838.9879	816.4778	36758.35	35909.45
839.133	818.5385	36610.15	35763.85
839.2781	820.5986	36661.75	35816.1
839.4232	822.658	36721.3	35873.2
839.5682	824.7166	36630.8	35783.95
839.7133	826.7747	36743.25	35894
839.8584	828.832	36736.85	35887.95
840.0035	830.8886	36585	35735.7
840.1486	832.9446	36628.25	35777.85
840.2937	834.9999	36477.95	35631.4
840.4388	837.0545	36394.15	35541.25
840.5839	839.1085	36302.6	35452.4
840.729	841.1618	36158.55	35304.6
840.8741	843.2143	35997.65	35147.6
841.0192	845.2662	35839.45	34990.4
841.1643	847.3175	35838.3	34989.6
841.3095	849.368	35745.95	34894.35
841.4546	851.4179	35710.75	34860.55
841.5997	853.467	35549.5	34699.05
841.7448	855.5155	35518.55	34668.75
841.8899	857.5633	35444.85	34595
842.0351	859.6105	35258.7	34408.3
842.1802	861.6569	35324.45	34470.7
842.3253	863.7027	35253.4	34401.75
842.4704	865.7478	35203.25	34349.6
842.6156	867.7922	35159.7	34306.55
842.7607	869.8359	35088.25	34236.2
842.9058	871.8789	35024.95	34171.2
843.0509	873.9212	35018.25	34133.9
843.1961	875.9629	34928.1	34073.5
843.3412	878.0039	34948	34092.6
843.4863	880.0441	34854.7	34001.9
843.6315	882.0837	34880.35	34027.7
843.7766	884.1226	34786.75	33929.9
843.9218	886.1609	34782.8	33928.5
844.0669	888.1984	34863.15	34011.6
844.212	890.2352	34919.35	34065
844.3572	892.2714	34809.05	33951.75
844.5023	894.3069	34804	33949.7
844.6475	896.3416	34587.95	33731.2
844.7926	898.3757	34558.4	33704.55
844.9377	900.4091	34488.8	33632.6
845.0829	902.4418	34449.2	33588.55
845.228	904.4739	34369.15	33511.15
845.3732	906.5052	34333.6	33477.3
845.5183	908.5358	34277	33420.3
845.6635	910.5658	34188	33329.2
845.8086	912.595	34054.5	33198.85
845.9538	914.6236	33973.05	33117.15
846.0989	916.6515	33921.8	33065.75
846.2441	918.6786	33844.5	32986.4
846.3892	920.7051	33784.5	32925.8
846.5344	922.7309	33808	32950.15
846.6795	924.756	33619.6	32763.3
846.8246	926.7804	33629.75	32769.35
846.9698	928.8041	33394.2	32533.7
847.1149	930.8272	33465	32606.35
847.2601	932.8495	33285.7	32425.3
847.4052	934.8711	33302.25	32442.15
847.5504	936.892	33113.05	32255.4
847.6955	938.9123	33046.55	32185.95
847.8407	940.9318	33065.55	32209.35
847.9858	942.9506	32976.15	32117.55
848.131	944.9688	32810.85	31952.45
848.2761	946.9862	32738.05	31879.3
848.4213	949.003	32565.6	31706.6
848.5664	951.019	32526.35	31666.2
848.7115	953.0344	32406.25	31546.6
848.8567	955.0491	32359.05	31498.55
849.0018	957.063	32363.4	31503.6
849.147	959.0763	32350.5	31491.9
849.2921	961.0888	32199.9	31336.2
849.4373	963.1007	32174.35	31314.2
849.5824	965.1119	32166.1	31307.25
849.7275	967.1223	32112.6	31251.95
849.8727	969.1321	32052.65	31191.55
850.0178	971.1412	31957.7	31097.6
850.1629	973.1495	31861.6	31001.2
850.3081	975.1572	31854.85	30946.7
850.4532	977.1641	31793.65	30932.95
850.5983	979.1704	31764.65	30902.9
850.7435	981.1759	31652.8	30787.95
850.8886	983.1808	31610.85	30749.55
851.0337	985.1849	31511.9	30645.45
851.1788	987.1884	31431.75	30566.6
851.324	989.1911	31415.05	30551.65
851.4691	991.1932	31364.25	30499.1
851.6142	993.1945	31237.95	30376.45
851.7593	995.1951	31063.8	30200.4
851.9045	997.1951	31044.35	30175.6
852.0496	999.1943	30889.95	30028.75
852.1947	1001.1928	30826.5	29961.95
852.3398	1003.1906	30714.35	29851.4
852.4849	1005.1877	30660.9	29795.5
852.63	1007.1841	30569.5	29705.25
852.7751	1009.1798	30493.05	29629.75
852.9202	1011.1748	30349	29485.6
853.0653	1013.1691	30258.9	29394.2
853.2104	1015.1627	30140.45	29277.4
853.3555	1017.1556	29950.45	29084.95
853.5006	1019.1477	29824.05	28961.05
853.6457	1021.1392	29663.35	28800.7
853.7908	1023.1299	29602.5	28737.6
853.9359	1025.12	29469.1	28601.85
854.081	1027.1093	29342.75	28476.2
854.2261	1029.0979	29246.4	28383.85
854.3712	1031.0859	29176.35	28314.25
854.5163	1033.0731	29163.05	28297.75
854.6613	1035.0596	29071.05	28206.35
854.8064	1037.0454	28932.15	28067.35
854.9515	1039.0304	28907.9	28041.8
855.0965	1041.0148	28743.2	27878.95
855.2416	1042.9985	28645.85	27780.2
855.3867	1044.9814	28637.25	27770.95
855.5317	1046.9636	28481.1	27614.95
855.6768	1048.9452	28381.3	27515.9
855.8219	1050.926	28386.95	27523.1
855.9669	1052.9061	28288.05	27422.85
856.112	1054.8855	28218.05	27352.75
856.257	1056.8642	28183.8	27316.9
856.4021	1058.8421	28181.55	27310.9
856.5471	1060.8194	28076.95	27209.2
856.6921	1062.7959	28035.95	27169.4
856.8372	1064.7717	27973.25	27105.1
856.9822	1066.7469	27900.65	27031.9
857.1272	1068.7213	27877.1	27007.95
857.2723	1070.695	27842.5	26975.35
857.4173	1072.6679	27723.65	26855.95
857.5623	1074.6402	27749.45	26882.5
857.7073	1076.6117	27742.2	26869.95
857.8523	1078.5826	27683.6	26815.9
857.9973	1080.5527	27548.55	26677.4
858.1423	1082.5221	27410.65	26541.6
858.2873	1084.4908	27396.3	26528.05
858.4323	1086.4587	27313.3	26444.5
858.5773	1088.426	27208.8	26341.5
858.7223	1090.3925	27132.2	26259.45
858.8673	1092.3584	27144.9	26277.5
859.0123	1094.3235	26974.95	26108.05
859.1573	1096.2879	26946.55	26078.45
859.3022	1098.2515	26941.8	26073.25
859.4472	1100.2145	26969.8	26103.55
859.5922	1102.1767	26899.95	26026.15
859.7371	1104.1382	26888.55	26021.3
859.8821	1106.099	26906.35	26036.55
860.027	1108.0591	26798.75	25931.35
860.172	1110.0185	26787.3	25916
860.3169	1111.9771	26868.1	26001.15
860.4619	1113.9351	26810.35	25940.7
860.6068	1115.8923	26782.9	25913.6
860.7517	1117.8488	26800.2	25928.35
860.8967	1119.8045	26613.35	25744.65
861.0416	1121.7596	26502.05	25633
861.1865	1123.7139	26281.85	25413
861.3314	1125.6675	26172.25	25303.7
861.4763	1127.6204	26180	25309.15
861.6212	1129.5726	26122	25251.65
861.7661	1131.524	26074.95	25204.65
861.911	1133.4748	26010.45	25140.05
862.0559	1135.4248	25820.2	24948.25
862.2008	1137.3741	25795.15	24926.15
862.3457	1139.3226	25659.3	24787.4
862.4905	1141.2705	25692.25	24823.2
862.6354	1143.2176	25611.8	24737.5
862.7803	1145.164	25588.7	24716.7
862.9251	1147.1097	25518	24647.3
863.07	1149.0546	25472.1	24602.35
863.2148	1150.9989	25419	24547.7
863.3597	1152.9424	25387.5	24516.5
863.5045	1154.8852	25310.6	24438.8
863.6493	1156.8272	25305.25	24433.8
863.7942	1158.7686	25313.65	24435.65
863.939	1160.7092	25220.95	24349.65
864.0838	1162.6491	25100.85	24227.5
864.2286	1164.5883	25116.2	24243.5
864.3734	1166.5267	25057.7	24184.05
864.5182	1168.4644	25077.95	24207.5
864.663	1170.4014	25042.2	24165.75
864.8078	1172.3377	25119.75	24248.55
864.9526	1174.2732	25078.5	24206.45
865.0974	1176.2081	25175.8	24305.05
865.2421	1178.1421	25258.35	24383.5
865.3869	1180.0755	25371.7	24499.7
865.5317	1182.0082	25336.65	24464.3
865.6764	1183.9401	25338.7	24467.25
865.8212	1185.8713	25136.45	24266.4
865.9659	1187.8017	24969.75	24096.6
866.1106	1189.7315	24831.65	23962.4
866.2554	1191.6605	24562.95	23692.15
866.4001	1193.5888	24460.45	23588.15
866.5448	1195.5163	24364.85	23494.5
866.6895	1197.4432	24273.25	23399.85
866.8342	1199.3693	24203.7	23333.15
866.9789	1201.2947	24095.85	23219.4
867.1236	1203.2193	24019.8	23146.9
867.2683	1205.1432	24021.65	23147.95
867.413	1207.0664	23943.85	23068.15
867.5576	1208.9889	23861.5	22984.95
867.7023	1210.9106	23752.4	22878.45
867.847	1212.8316	23621.2	22746.65
867.9916	1214.7519	23632.7	22750.45
868.1363	1216.6715	23551.4	22680.3
868.2809	1218.5903	23599.45	22724.25
868.4255	1220.5084	23524	22651.2
868.5701	1222.4257	23524.15	22650.55
868.7148	1224.3424	23455.9	22582.75
868.8594	1226.2583	23439.95	22563.45
869.004	1228.1735	23386.65	22512.7
869.1486	1230.0879	23312.25	22436.55
869.2932	1232.0016	23307.05	22434.75
869.4377	1233.9146	23297.1	22421.15
869.5823	1235.8269	23268	22395.6
869.7269	1237.7384	23243.2	22370.2
869.8715	1239.6492	23153.9	22278.55
870.016	1241.5592	23174.4	22298.65
870.1606	1243.4686	23122.65	22248.3
870.3051	1245.3772	23148.45	22275.85
870.4496	1247.285	23187.55	22313.7
870.5941	1249.1922	23246.35	22373
870.7387	1251.0986	23273.95	22399.8
870.8832	1253.0042	23250.65	22378.7
871.0277	1254.9092	23343.95	22468.9
871.1722	1256.8134	23368.75	22496.1
871.3167	1258.7169	23445.1	22569.95
871.4611	1260.6196	23479.7	22606.2
871.6056	1262.5216	23485.95	22607.35
871.7501	1264.4229	23402.85	22530.05
871.8945	1266.3234	23382.8	22507.15
872.039	1268.2232	23323.2	22447.3
872.1834	1270.1223	23195.5	22320.45
872.3278	1272.0207	23089.75	22214.35
872.4723	1273.9183	23043.4	22161.8
872.6167	1275.8151	23015.7	22140.8
872.7611	1277.7113	23001.65	22127.1
872.9055	1279.6067	23023.4	22148.15
873.0499	1281.5014	23133.5	22254.2
873.1943	1283.3953	23322.15	22444.9
873.3386	1285.2885	23521.85	22647.3
873.483	1287.181	23672.95	22796.05
873.6274	1289.0727	23758.75	22885.5
873.7717	1290.9637	23628.6	22753.25
873.9161	1292.854	23526.65	22651.8
874.0604	1294.7435	23316.75	22441.95
874.2047	1296.6323	23149.45	22274.95
874.349	1298.5204	23049.95	22170.4
874.4933	1300.4077	22922.95	22047.35
874.6376	1302.2943	22840.85	21965.85
874.7819	1304.1802	22813.9	21940.45
874.9262	1306.0653	22712.4	21832.65
875.0705	1307.9497	22666.1	21790.5
875.2147	1309.8333	22598.65	21723.4
875.359	1311.7162	22520.85	21644.6
875.5032	1313.5984	22517.85	21640.6
875.6475	1315.4798	22389.75	21512.1
875.7917	1317.3605	22370.6	21490.65
875.9359	1319.2405	22417.25	21539.05
876.0801	1321.1197	22310.25	21433.35
876.2243	1322.9982	22216.65	21336.65
876.3685	1324.876	22190.7	21316
876.5127	1326.753	21997.15	21121.35
876.6569	1328.6293	21902.15	21024.8
876.801	1330.5048	21832.25	20953.15
876.9452	1332.3796	21707.45	20833.5
877.0893	1334.2537	21630.6	20729.35
877.2335	1336.127	21534.25	20658.5
877.3776	1337.9996	21483.25	20606.7
877.5217	1339.8714	21390.1	20512.75
877.6658	1341.7426	21346.1	20428.25
877.8099	1343.6129	21276.7	20400
877.954	1345.4826	21214.65	20338.1
878.0981	1347.3515	21195.25	20314.9
878.2422	1349.2196	21120.45	20242.45
878.3862	1351.087	21124.95	20248.35
878.5303	1352.9537	21132	20254
878.6743	1354.8197	21117.25	20242.95
878.8184	1356.6849	21114.1	20239.1
878.9624	1358.5493	21058.3	20181.45
879.1064	1360.4131	21046.2	20168.75
879.2504	1362.276	21020.75	20147.45
879.3944	1364.1383	20996.1	20117.8
879.5384	1365.9998	20971.15	20089.45
879.6823	1367.8606	20906.85	20029
879.8263	1369.7206	20878.15	20000.5
879.9702	1371.5799	20851.55	19971.55
880.1142	1373.4384	20762.35	19885.9
880.2581	1375.2962	20751.2	19874.65
880.402	1377.1533	20579.55	19702.25
880.5459	1379.0096	20450.3	19573.7
880.6898	1380.8652	20387.75	19509.4
880.8337	1382.7201	20316.35	19439
880.9776	1384.5742	20174.8	19298
881.1215	1386.4275	20095.6	19217.15
881.2653	1388.2802	20013.3	19137.3
881.4092	1390.132	19982.5	19104.95
881.553	1391.9832	19948.05	19067.6
881.6968	1393.8336	19823.75	18946
881.8406	1395.6832	19777.9	18900.65
881.9844	1397.5322	19679.25	18800.45
882.1282	1399.3803	19612.6	18731.2
882.272	1401.2278	19521.55	18640.85
882.4158	1403.0745	19525.05	18646.75
882.5595	1404.9204	19350.4	18473.4
882.7033	1406.7656	19370.55	18494.05
882.847	1408.6101	19257.9	18382
882.9908	1410.4538	19222.7	18345.55
883.1345	1412.2968	19167.05	18289.75
883.2782	1414.139	19085.95	18209.25
883.4219	1415.9805	19102.4	18225.15
883.5656	1417.8213	19023.1	18125.75
883.7092	1419.6613	18980.9	18103.65
883.8529	1421.5006	18989.3	18110.7
883.9965	1423.3391	19000.1	18121.3
884.1402	1425.1769	18900.65	18022.15
884.2838	1427.0139	18986.2	18109.25
884.4274	1428.8502	19045.55	18166.95
884.571	1430.6858	19110.8	18230.9
884.7146	1432.5206	19044.7	18167.95
884.8582	1434.3547	19041.4	18163.8
885.0018	1436.188	19003.55	18125.9
885.1453	1438.0206	18985.35	18106.75
885.2889	1439.8524	18872.1	17993.9
885.4324	1441.6835	18855.9	17977.9
885.5759	1443.5139	18809.45	17928.35
885.7194	1445.3435	18761.6	17882.05
885.8629	1447.1724	18763	17886.4
886.0064	1449.0005	18728.7	17851.8
886.1499	1450.8279	18670.45	17790.25
886.2933	1452.6545	18669.25	17791.45
886.4368	1454.4804	18677	17798.5
886.5802	1456.3056	18610.7	17724.85
886.7237	1458.13	18566.15	17689.9
886.8671	1459.9536	18535.85	17655.75
887.0105	1461.7766	18451.9	17573.9
887.1539	1463.5987	18392.35	17512.5
887.2972	1465.4202	18297.7	17419.85
887.4406	1467.2409	18185.2	17307.85
887.584	1469.0608	18150.6	17271.45
887.7273	1470.88	18100.4	17222.25
887.8706	1472.6984	18028.85	17149.4
888.0139	1474.5161	17942	17060.55
888.1572	1476.3331	17917.15	17038.9
888.3005	1478.1493	17823.3	16943.2
888.4438	1479.9648	17834.15	16954.6
888.5871	1481.7795	17793.8	16915.4
888.7303	1483.5935	17770.55	16893.4
888.8736	1485.4067	17752.2	16873.35
889.0168	1487.2192	17720.85	16840.95
889.16	1489.031	17683.85	16802.55
889.3032	1490.842	17673.85	16795.2
889.4464	1492.6522	17640.55	16763.2
889.5896	1494.4618	17575.5	16694.95
889.7327	1496.2705	17551.85	16674.95
889.8759	1498.0785	17529.3	16649.9
890.019	1499.8858	17459.2	16581.45
890.1622	1501.6924	17407.5	16529.85
890.3053	1503.4981	17398.8	16519.25
890.4484	1505.3032	17362.65	16483.05
890.5914	1507.1075	17316.5	16438.65
890.7345	1508.911	17303.75	16425.05
890.8776	1510.7138	17224.4	16345.15
891.0206	1512.5159	17182.1	16304.35
891.1637	1514.3172	17122.65	16245.1
891.3067	1516.1178	17045.55	16167.15
891.4497	1517.9176	17038.55	16157.4
891.5927	1519.7166	16967.2	16090.15
891.7357	1521.515	16931.35	16045.05
891.8786	1523.3126	16874.65	15996.5
892.0216	1525.1094	16814.85	15933.6
892.1645	1526.9055	16737.3	15858.65
892.3074	1528.7008	16714.85	15833.95
892.4503	1530.4954	16587.6	15705.8
892.5932	1532.2893	16567.45	15690.1
892.7361	1534.0824	16469.25	15586.5
892.879	1535.8747	16468	15588.65
893.0218	1537.6663	16444.15	15565.6
893.1647	1539.4572	16386.2	15504.4
893.3075	1541.2473	16349.6	15471.5
893.4503	1543.0367	16276.95	15399.55
893.5931	1544.8253	16242.4	15359.55
893.7359	1546.6132	16201.7	15320.6
893.8787	1548.4003	16107.15	15218.35
894.0214	1550.1867	16092.8	15204.85
894.1642	1551.9723	16071.05	15188.9
894.3069	1553.7572	16052.65	15174.05
894.4496	1555.5414	16012.5	15132
894.5923	1557.3247	15991.65	15111.45
894.735	1559.1074	15974.55	15096.9
894.8777	1560.8893	15991.65	15112.9
895.0204	1562.6705	15952.45	15074.15
895.163	1564.4509	15951.85	15073.75
895.3056	1566.2305	15918.7	15040.6
895.4482	1568.0094	15960.4	15080.9
895.5908	1569.7876	15895.6	15016.5
895.7334	1571.565	15843.95	14965.25
895.876	1573.3417	15829.7	14952.7
896.0186	1575.1176	15776.5	14896.6
896.1611	1576.8928	15743.9	14863.8
896.3036	1578.6672	15712.6	14834
896.4461	1580.4409	15710.15	14831.5
896.5886	1582.2138	15689.9	14811.3
896.7311	1583.986	15663.5	14784.5
896.8736	1585.7575	15661.4	14783.15
897.0161	1587.5282	15691.05	14815.4
897.1585	1589.2981	15700	14822.55
897.3009	1591.0673	15678.55	14799.7
897.4433	1592.8358	15653.3	14777.2
897.5857	1594.6035	15642.6	14761.9
897.7281	1596.3704	15548.65	14670.2
897.8705	1598.1366	15467.3	14585.25
898.0128	1599.9021	15391.4	14512
898.1551	1601.6668	15281.2	14401.15
898.2975	1603.4308	15210.4	14329
898.4398	1605.194	15194.75	14314.05
898.5821	1606.9564	15149.8	14270.85
898.7243	1608.7182	15185.6	14303.2
898.8666	1610.4791	15207.55	14329.25
899.0088	1612.2394	15304.65	14426.3
899.1511	1613.9988	15373.95	14493.9
899.2933	1615.7576	15457.65	14576.75
899.4355	1617.5156	15474.7	14592.5
899.5776	1619.2728	15458.5	14579.5
899.7198	1621.0293	15296.45	14417.9
899.862	1622.785	15126.05	14243.6
900.0041	1624.54	14931.7	14049.65
900.1462	1626.2942	14753.35	13874.1
900.2883	1628.0477	14539.25	13658.3
900.4304	1629.8005	14435.05	13552.05
900.5725	1631.5525	14294.75	13416.3
900.7145	1633.3037	14184.5	13305.35
900.8566	1635.0542	14142.3	13262.05
900.9986	1636.804	14024.95	13145.85
901.1406	1638.553	14025.95	13057.45
901.2826	1640.3013	13901.5	13023.3
901.4245	1642.0488	13795.75	12914.15
901.5665	1643.7955	13794.6	12919.45
901.7085	1645.5416	13673.75	12792.45
901.8504	1647.2868	13649.05	12771.3
901.9923	1649.0313	13580.7	12702
902.1342	1650.7751	13555.95	12673
902.2761	1652.5181	13534.7	12657.25
902.4179	1654.2604	13477.65	12597.1
902.5598	1656.0019	13422.15	12542.3
902.7016	1657.7427	13441.15	12561.45
902.8434	1659.4828	13419.65	12540.95
902.9852	1661.222	13398.3	12520.6
903.127	1662.9606	13366	12489
903.2687	1664.6984	13404.7	12524.45
903.4105	1666.4354	13409.85	12530.95
903.5522	1668.1717	13337.35	12458.1
903.6939	1669.9072	13237.45	12356.75
903.8356	1671.642	13176.55	12295.1
903.9773	1673.3761	13091.35	12213.25
904.119	1675.1094	13027.55	12147.2
904.2606	1676.8419	12902.35	12026.45
904.4022	1678.5737	12846	11967.2
904.5439	1680.3048	12808.4	11927.9
904.6855	1682.0351	12715.25	11833.7
904.827	1683.7646	12668.6	11788.25
904.9686	1685.4934	12642.15	11762.45
905.1101	1687.2215	12590.25	11710.35
905.2517	1688.9488	12483.55	11604.85
905.3932	1690.6754	12432.1	11552.05
905.5347	1692.4012	12412.75	11535.1
905.6761	1694.1263	12362.7	11484.55
905.8176	1695.8506	12345.65	11464.9
905.9591	1697.5742	12287.35	11408.75
906.1005	1699.297	12224.15	11344.35
906.2419	1701.0191	12162.45	11283.55
906.3833	1702.7404	12136.75	11259.5
906.5246	1704.461	12078.4	11197.9
906.666	1706.1808	12032.8	11152.65
906.8073	1707.8999	12012.7	11130.5
906.9487	1709.6182	11969.9	11089.45
907.09	1711.3358	11928.75	11048.95
907.2313	1713.0527	11855.8	10977.55
907.3725	1714.7688	11837.25	10952.65
907.5138	1716.4841	11787.5	10906.95
907.655	1718.1987	11785.55	10900.45
907.7962	1719.9126	11743.2	10866.6
907.9374	1721.6257	11703.55	10818.25
908.0786	1723.338	11714.3	10834.7
908.2198	1725.0496	11617.8	10738.1
908.3609	1726.7605	11611.85	10731.8
908.502	1728.4706	11546	10665.55
908.6431	1730.18	11522.7	10640.2
908.7842	1731.8886	11504.1	10626.45
908.9253	1733.5964	11509.15	10608.6
909.0664	1735.3036	11470.45	10589.35
909.2074	1737.0099	11463.65	10584.8
909.3484	1738.7156	11461.55	10583.6
909.4894	1740.4204	11370.65	10488.65
909.6304	1742.1246	11369.8	10489.35
909.7714	1743.8279	11347.15	10467.35
909.9123	1745.5306	11360.15	10480.55
910.0532	1747.2325	11292.7	10414
910.1941	1748.9336	11303.25	10424.8
910.335	1750.634	11241.6	10358.2
910.4759	1752.3336	11221.8	10344.45
910.6168	1754.0325	11213.85	10336.1
910.7576	1755.7307	11173.7	10295.25
910.8984	1757.4281	11203.2	10324.1
911.0392	1759.1247	11178.9	10291.5
911.18	1760.8206	11164.9	10279.6
911.3208	1762.5158	11160.15	10278.9
911.4615	1764.2102	11115.95	10236.8
911.6022	1765.9039	11060.5	10179.45
911.7429	1767.5968	11046.65	10165.65
911.8836	1769.289	11006.85	10128.35
912.0243	1770.9804	10978.7	10098.3
912.1649	1772.6711	10978.25	10097.85
912.3056	1774.361	10915.6	10036.5
912.4462	1776.0502	10930.15	10050.85
912.5868	1777.7386	10920.2	10039.15
912.7274	1779.4263	10862.85	9983.35
912.8679	1781.1132	10873.2	9993.3
913.0084	1782.7994	10827.4	9948.35
913.149	1784.4849	10811.5	9932.85
913.2895	1786.1696	10774.7	9872.9
913.4299	1787.8535	10746.05	9865.5
913.5704	1789.5367	10716.35	9835.65
913.7108	1791.2192	10695.05	9814.55
913.8513	1792.9009	10673.55	9775.85
913.9917	1794.5818	10677	9797.05
914.132	1796.2621	10628.6	9751.3
914.2724	1797.9415	10593.85	9713.25
914.4128	1799.6202	10562.05	9683.6
914.5531	1801.2982	10531.8	9653.4
914.6934	1802.9755	10527.1	9646.85
914.8337	1804.6519	10506.05	9624.55
914.9739	1806.3277	10454.2	9573.45
915.1142	1808.0027	10418.8	9541.1
915.2544	1809.6769	10394.35	9515.25
915.3946	1811.3504	10380.55	9501.5
915.5348	1813.0231	10367.45	9487.7
915.675	1814.6951	10348.35	9468.75
915.8151	1816.3664	10348.85	9466.4
915.9553	1818.0369	10328.85	9450.5
916.0954	1819.7067	10276.5	9397.45
916.2355	1821.3757	10236.65	9354.2
916.3755	1823.044	10243.25	9363.8
916.5156	1824.7115	10239.2	9359.55
916.6556	1826.3783	10160.4	9280.35
916.7956	1828.0443	10155.1	9276
916.9356	1829.7096	10127.1	9245.4
917.0756	1831.3741	10113.75	9230.65
917.2155	1833.0379	10097.6	9219.5
917.3555	1834.701	10068.55	9189.85
917.4954	1836.3633	10063.15	9182.45
917.6353	1838.0248	10037.5	9156.1
917.7751	1839.6856	10010	9128.3
917.915	1841.3457	10003.5	9124.5
918.0548	1843.005	9968.35	9088.7
918.1946	1844.6636	9965.35	9085.4
918.3344	1846.3214	9913.7	9034.25
918.4742	1847.9785	9918.9	9039.45
918.6139	1849.6349	9882.3	9002.75
918.7537	1851.2904	9876.3	8986.7
918.8934	1852.9453	9833.2	8954.4
919.0331	1854.5994	9796.3	8913.25
919.1727	1856.2528	9837.05	8952.35
919.3124	1857.9054	9804.2	8923.55
919.452	1859.5572	9778.4	8899.6
919.5916	1861.2083	9773.5	8893.4
919.7312	1862.8587	9759.25	8877.9
919.8708	1864.5084	9733.6	8855.15
920.0103	1866.1572	9709	8829.85
920.1498	1867.8054	9656.3	8778
920.2893	1869.4528	9659.05	8778.6
920.4288	1871.0994	9625.45	8745.35
920.5683	1872.7453	9608.55	8726.7
920.7077	1874.3905	9596.45	8709.55
920.8471	1876.0349	9578.3	8698.95
920.9865	1877.6786	9554.85	8672.9
921.1259	1879.3215	9550.6	8672.25
921.2653	1880.9637	9500.5	8619.7
921.4046	1882.6051	9502.1	8623.7
921.5439	1884.2458	9458.55	8575.2
921.6832	1885.8858	9424.55	8545.55
921.8225	1887.525	9447.2	8568.1
921.9617	1889.1634	9406.55	8527.05
922.101	1890.8011	9379.35	8500.35
922.2402	1892.4381	9375.65	8494.55
922.3794	1894.0743	9355.15	8476.6
922.5185	1895.7098	9325.95	8445.4
922.6577	1897.3446	9311.45	8430.75
922.7968	1898.9786	9306.65	8422.55
922.9359	1900.6118	9254.45	8375.2
923.075	1902.2443	9215.3	8333.25
923.214	1903.8761	9205.75	8325.7
923.3531	1905.5071	9142.8	8261.45
923.4921	1907.1374	9127.35	8246.55
923.6311	1908.7669	9145.3	8264.85
923.77	1910.3957	9123.15	8244.8
923.909	1912.0237	9082	8199.7
924.0479	1913.651	9052.45	8171
924.1868	1915.2776	9031.7	8154.45
924.3257	1916.9034	9005	8125.7
924.4646	1918.5285	8962.2	8082.95
924.6034	1920.1528	8936.55	8054.3
924.7422	1921.7764	8917.85	8038.35
924.881	1923.3992	8895.4	8017.4
925.0198	1925.0213	8834.7	7952.55
925.1586	1926.6427	8781.9	7902.25
925.2973	1928.2633	8962	7868.35
925.436	1929.8832	8794.5	7910.15
925.5747	1931.5023	8727.75	7848
925.7134	1933.1207	8712.85	7832.05
925.852	1934.7383	8711.65	7830.5
925.9906	1936.3552	8643.25	7764.9
926.1292	1937.9714	8648.25	7765.6
926.2678	1939.5868	8626.1	7743
926.4064	1941.2015	8566.55	7687.95
926.5449	1942.8154	8566.35	7687
926.6834	1944.4286	8541.75	7660.85
926.8219	1946.041	8503	7599.7
926.9604	1947.6528	8445.1	7560.6
927.0988	1949.2637	8457.2	7577.6
927.2372	1950.8739	8425.6	7545.25
927.3756	1952.4834	8401.9	7521.2
927.514	1954.0921	8409.75	7529.6
927.6523	1955.7001	8367	7482.2
927.7907	1957.3074	8327.85	7449.1
927.929	1958.9139	8324.75	7447
928.0673	1960.5197	8307.35	7428.25
928.2055	1962.1247	8252.1	7372.4
928.3438	1963.729	8243.2	7363.15
928.482	1965.3325	8227.65	7325.25
928.6202	1966.9353	8201.25	7322.55
928.7584	1968.5374	8176.2	7294.4
928.8965	1970.1387	8146.35	7267.25
929.0346	1971.7393	8118.25	7235.6
929.1727	1973.3392	8105	7228.55
929.3108	1974.9383	8088.65	7209.05
929.4489	1976.5366	8020.55	7141.6
929.5869	1978.1342	8066.85	7185.5
929.7249	1979.7311	8026.65	7144.15
929.8629	1981.3273	7992.95	7112.8
930.0009	1982.9227	7961.9	7080.4
930.1388	1984.5173	7956.9	7077.9
930.2767	1986.1112	7924.8	7046.55
930.4146	1987.7044	7920.05	7042.65
930.5525	1989.2968	7910.3	7029.7
930.6904	1990.8885	7887	7003.55
930.8282	1992.4795	7856.95	6975.05
930.966	1994.0697	7839.35	6959.75
931.1038	1995.6592	7796.8	6915.8
931.2415	1997.2479	7783.4	6903.45
931.3793	1998.8359	7778.6	6899.1
931.517	2000.4232	7753.9	6875.9
931.6547	2002.0097	7728.1	6849.65
931.7923	2003.5955	7704.85	6824.3
931.93	2005.1805	7692	6811.35
932.0676	2006.7648	7691.2	6812.65
932.2052	2008.3484	7659.9	6778.6
932.3427	2009.9312	7648.7	6768.65
932.4803	2011.5133	7632.25	6751.75
932.6178	2013.0946	7610.15	6728.8
932.7553	2014.6752	7606.55	6728.8
932.8928	2016.2551	7594.45	6715.4
933.0302	2017.8342	7539.35	6660.45
933.1676	2019.4126	7523.65	6644.3
933.305	2020.9902	7497.95	6619.65
933.4424	2022.5672	7506.55	6624.75
933.5798	2024.1433	7489.8	6605.05
933.7171	2025.7188	7461.75	6583.5
933.8544	2027.2935	7442.75	6559.05
933.9917	2028.8674	7414.8	6535.3
934.129	2030.4406	7396	6517.55
934.2662	2032.0131	7357.8	6478.95
934.4034	2033.5849	7350.4	6465.9
934.5406	2035.1559	7317.85	6439.15
934.6778	2036.7261	7354	6474.15
934.8149	2038.2957	7302.15	6424.45
934.952	2039.8645	7311.2	6430.75
935.0891	2041.4325	7315.25	6435
935.2262	2042.9998	7300.65	6420.2
935.3632	2044.5664	7270.65	6389.25
935.5002	2046.1323	7265.2	6386.9
935.6372	2047.6974	7243.4	6364.35
935.7742	2049.2617	7208.6	6329.65
935.9111	2050.8254	7236.45	6335.45
936.048	2052.3883	7242.9	6361.5
936.1849	2053.9504	7190.95	6311.75
936.3218	2055.5118	7152.35	6272.85
936.4586	2057.0725	7161.2	6279.45
936.5955	2058.6325	7133.75	6252.95
936.7323	2060.1917	7131.9	6253.25
936.869	2061.7502	7108.4	6227.9
937.0058	2063.3079	7081	6203.35
937.1425	2064.8649	7061.3	6177.05
937.2792	2066.4212	7057.5	6176.75
937.4159	2067.9767	7052.1	6173.1
937.5525	2069.5315	7024.95	6145.85
937.6891	2071.0856	6983.55	6102.85
937.8257	2072.6389	6973.35	6093.9
937.9623	2074.1915	6955.65	6078.95
938.0989	2075.7433	6912.3	6030.6
938.2354	2077.2945	6925.25	6046.75
938.3719	2078.8448	6898	6019.05
938.5084	2080.3945	6884.6	6003.95
938.6448	2081.9434	6879.4	5998.3
938.7812	2083.4916	6848.45	5967.55
938.9176	2085.039	6830.1	5950.25
939.054	2086.5857	6818.45	5935.45
939.1903	2088.1317	6832.1	5954.35
939.3267	2089.677	6800.4	5919.7
939.463	2091.2215	6780	5900.45
939.5992	2092.7652	6784.35	5904.3
939.7355	2094.3083	6786.65	5906.5
939.8717	2095.8506	6775.8	5895.95
940.0079	2097.3921	6763.1	5885.1
940.1441	2098.933	6722.45	5843
940.2802	2100.4731	6728.75	5850
940.4163	2102.0124	6741.75	5844.55
940.5524	2103.5511	6727.35	5847.4
940.6885	2105.089	6704.65	5824.8
940.8245	2106.6261	6682.1	5802.15
940.9606	2108.1626	6664.8	5783.75
941.0965	2109.6983	6698.5	5790.7
941.2325	2111.2332	6681.65	5801.9
941.3684	2112.7675	6636.75	5757.3
941.5044	2114.301	6620.4	5738.35
941.6403	2115.8337	6619.1	5740.65
941.7761	2117.3657	6592.05	5713.35
941.912	2118.897	6590.65	5710.05
942.0478	2120.4276	6566.1	5679.1
942.1835	2121.9575	6549.35	5671.1
942.3193	2123.4866	6552.15	5669.45
942.455	2125.0149	6532.25	5651
942.5907	2126.5426	6499.3	5619.35
942.7264	2128.0695	6490.6	5604.9
942.8621	2129.5956	6480.85	5603.4
942.9977	2131.1211	6486.75	5602.6
943.1333	2132.6458	6471.2	5592.5
943.2689	2134.1698	6442.7	5562.7
943.4044	2135.693	6420.05	5539.45
943.54	2137.2155	6413.35	5530.75
943.6755	2138.7373	6425.55	5547.3
943.8109	2140.2584	6392	5511.45
943.9464	2141.7787	6388.85	5504.3
944.0818	2143.2983	6343	5465.05
944.2172	2144.8171	6342.85	5465.3
944.3526	2146.3353	6329.35	5449.3
944.4879	2147.8527	6290.2	5410.65
944.6232	2149.3693	6293.1	5412.95
944.7585	2150.8853	6270.5	5391.1
944.8938	2152.4005	6236.1	5357.25
945.029	2153.9149	6272.05	5391.95
945.1642	2155.4287	6225.3	5347.85
945.2994	2156.9417	6197.65	5319.05
945.4346	2158.454	6187.95	5304.75
945.5697	2159.9655	6199.4	5319.85
945.7048	2161.4764	6182.6	5303.6
945.8399	2162.9865	6164.1	5284.65
945.9749	2164.4958	6140.35	5258.7
946.1099	2166.0045	6127.2	5244.5
946.2449	2167.5124	6123.8	5244.35
946.3799	2169.0195	6107.15	5229.2
946.5148	2170.526	6105.25	5224.3
946.6498	2172.0317	6084.85	5206.75
946.7846	2173.5367	6077.6	5196.5
946.9195	2175.0409	6066.95	5189.05
947.0543	2176.5445	6045.1	5165.8
947.1891	2178.0473	6021.85	5141.65
947.3239	2179.5494	5999.55	5118.05
947.4587	2181.0507	5981.95	5102.45
947.5934	2182.5513	5981.2	5102.35
947.7281	2184.0512	5979.35	5100.05
947.8628	2185.5504	5953.35	5073.05
947.9974	2187.0488	5927.1	5048.8
948.132	2188.5465	5902.55	5020.8
948.2666	2190.0435	5894.4	5016.75
948.4012	2191.5397	5872.7	4993.65
948.5357	2193.0353	5871.5	4992.2
948.6702	2194.5301	5834.3	4952.9
948.8047	2196.0241	5817.2	4937.1
948.9392	2197.5175	5806.7	4928.1
949.0736	2199.0101	5786.45	4903.4
949.208	2200.502	5762.25	4883.6
949.3424	2201.9931	5750.5	4871.35
949.4767	2203.4835	5740.5	4862.25
949.611	2204.9733	5713.1	4826.85
949.7453	2206.4622	5714.6	4835.85
949.8796	2207.9505	5711.65	4828.05
950.0138	2209.438	5668.75	4791.95
950.148	2210.9248	5678.15	4796.7
950.2822	2212.4109	5665.75	4787.75
950.4164	2213.8962	5642.35	4759.65
950.5505	2215.3809	5614.15	4734.9
950.6846	2216.8648	5599.85	4718.9
950.8186	2218.3479	5583.85	4699.1
950.9527	2219.8304	5581.3	4699.1
951.0867	2221.3121	5559.75	4677.15
951.2207	2222.7931	5537.85	4658.95
951.3546	2224.2733	5526.1	4647.4
951.4886	2225.7529	5496.4	4617.2
951.6225	2227.2317	5492.35	4609.9
951.7563	2228.7098	5495.15	4618.35
951.8902	2230.1872	5460.8	4580.9
952.024	2231.6638	5474.65	4593.75
952.1578	2233.1397	5434.65	4551.15
952.2916	2234.6149	5432.35	4552.45
952.4253	2236.0894	5397.8	4515.65
952.559	2237.5632	5370.45	4488.95
952.6927	2239.0362	5365.45	4485.05
952.8263	2240.5085	5350.9	4472.1
952.9599	2241.9801	5347.5	4468.2
953.0935	2243.4509	5334.3	4457.8
953.2271	2244.921	5322.55	4444.15
953.3606	2246.3904	5298.95	4417.6
953.4941	2247.8591	5284.85	4405.55
953.6276	2249.3271	5285.95	4406.1
953.7611	2250.7943	5246.2	4365.65
953.8945	2252.2608	5239.7	4361.45
954.0279	2253.7266	5229	4348.4
954.1612	2255.1917	5203.8	4323.55
954.2946	2256.656	5196.9	4314.1
954.4279	2258.1197	5195.7	4318.4
954.5612	2259.5826	5176.25	4295.95
954.6944	2261.0447	5167.7	4288.5
954.8276	2262.5062	5153.15	4270.25
954.9608	2263.9669	5150	4267.9
955.094	2265.4269	5127.15	4249.5
955.2271	2266.8862	5119.85	4240.45
955.3602	2268.3448	5105.9	4224.9
955.4933	2269.8026	5103.3	4221.95
955.6264	2271.2598	5102.65	4223.6
955.7594	2272.7162	5082.2	4204.35
955.8924	2274.1719	5050.8	4170.3
956.0253	2275.6268	5041.35	4160.5
956.1583	2277.0811	5033.45	4152.25
956.2912	2278.5346	5020.5	4143.25
956.4241	2279.9874	4996.3	4117.8
956.5569	2281.4395	5014.9	4137.4
956.6897	2282.8908	4974.45	4090.15
956.8225	2284.3414	4985.45	4104.35
956.9553	2285.7914	4971.95	4094.45
957.088	2287.2406	4941.1	4058.95
957.2207	2288.689	4948.1	4068.7
957.3534	2290.1368	4919	4037.75
957.486	2291.5838	4919.95	4038.95
957.6186	2293.0302	4919.2	4037.9
957.7512	2294.4758	4886.5	4008.15
957.8838	2295.9206	4856.85	3977.8
958.0163	2297.3648	4860.95	3981.3
958.1488	2298.8082	4849.75	3969.6
958.2813	2300.251	4841.55	3963.7
958.4137	2301.693	4818.45	3936.6
958.5461	2303.1343	4814.3	3934.85
958.6785	2304.5748	4802.3	3923.2
958.8108	2306.0147	4796.25	3917.9
958.9432	2307.4538	4783.65	3901.75
959.0754	2308.8922	4767.15	3889.25
959.2077	2310.3299	4760.6	3881.4
959.3399	2311.7669	4729.65	3850.75
959.4721	2313.2031	4712.2	3832.25
959.6043	2314.6387	4712.45	3830.8
959.7365	2316.0735	4704.05	3823.3
959.8686	2317.5076	4692.9	3813.65
960.0006	2318.941	4672.95	3791.3
960.1327	2320.3737	4659.6	3779.8
960.2647	2321.8056	4666.45	3785.15
960.3967	2323.2369	4651.75	3770.8
960.5287	2324.6674	4624.25	3743.3
960.6606	2326.0972	4620.9	3738.7
960.7925	2327.5263	4615.05	3736.3
960.9244	2328.9547	4601.75	3722.9
961.0562	2330.3823	4574.75	3694.65
961.1881	2331.8092	4583.2	3700.5
961.3198	2333.2355	4553.25	3675.7
961.4516	2334.661	4547.15	3666.6
961.5833	2336.0858	4539.1	3656.25
961.715	2337.5098	4525.5	3644.5
961.8467	2338.9332	4523.35	3644.2
961.9783	2340.3558	4503.6	3619.7
962.1099	2341.7778	4500.15	3620.8
962.2415	2343.199	4484.7	3602.4
962.373	2344.6195	4466.75	3587.55
962.5045	2346.0393	4476.55	3597.7
962.636	2347.4583	4460.85	3580.45
962.7675	2348.8767	4439.75	3559.8
962.8989	2350.2943	4421.45	3540.5
963.0303	2351.7113	4425.35	3544.2
963.1617	2353.1275	4414.5	3533.65
963.293	2354.543	4394.15	3507.15
963.4243	2355.9578	4390.15	3511.65
963.5556	2357.3718	4359.6	3480.05
963.6868	2358.7852	4334	3449.45
963.818	2360.1978	4330.7	3449.55
963.9492	2361.6098	4327.2	3446.65
964.0803	2363.021	4326.15	3442.8
964.2114	2364.4315	4313.5	3434.9
964.3425	2365.8413	4307.5	3421.5
964.4736	2367.2504	4286.45	3408.65
964.6046	2368.6587	4264.45	3384.4
964.7356	2370.0664	4240.35	3360.05
964.8666	2371.4733	4234.75	3352.55
964.9975	2372.8795	4227.55	3348.9
965.1284	2374.285	4206.7	3326.95
965.2593	2375.6899	4199.35	3318.6
965.3901	2377.0939	4178.45	3298
965.5209	2378.4973	4183.3	3303.65
965.6517	2379.9	4172.1	3291.4
965.7825	2381.3019	4153.55	3273.5
965.9132	2382.7032	4142.3	3262.8
966.0439	2384.1037	4122.15	3244
966.1745	2385.5035	4133.55	3254.8
966.3051	2386.9027	4096.15	3217.75
966.4357	2388.3011	4107.05	3223.55
966.5663	2389.6987	4081.25	3200.6
966.6968	2391.0957	4082.5	3203.55
966.8273	2392.492	4070.4	3193.1
966.9578	2393.8876	4043.5	3163.55
967.0882	2395.2824	4037.55	3157.2
967.2186	2396.6765	4012.25	3133.7
967.349	2398.07	3998.85	3119.45
967.4793	2399.4627	4002.45	3122.15
967.6097	2400.8547	3982.5	3102.75
967.7399	2402.246	3968	3081.7
967.8702	2403.6366	3957.6	3078.6
968.0004	2405.0265	3935.5	3054.35
968.1306	2406.4156	3929.9	3045.95
968.2607	2407.8041	3913.55	3030.35
968.3909	2409.1918	3900.3	3016.6
968.521	2410.5789	3898.85	3018.75
968.651	2411.9652	3888.35	3006
968.781	2413.3508	3872.35	2993.75
968.911	2414.7358	3856	2974.1
969.041	2416.12	3837.4	2960.3
969.1709	2417.5035	3830.95	2951.3
969.3008	2418.8863	3811.05	2931
969.4307	2420.2684	3818.95	2937.5
969.5606	2421.6497	3784.5	2904.65
969.6904	2423.0304	3765.9	2886.5
969.8201	2424.4104	3772.1	2890.9
969.9499	2425.7896	3768.55	2884.75
970.0796	2427.1682	3745.45	2866.8
970.2093	2428.546	3736.1	2855.55
970.3389	2429.9232	3732.25	2850.6
970.4685	2431.2996	3720.5	2840.5
970.5981	2432.6753	3724.4	2845.2
970.7277	2434.0503	3716.45	2836.4
970.8572	2435.4246	3689.75	2809
970.9867	2436.7982	3685.75	2804.4
971.1161	2438.1711	3682.8	2803.7
971.2456	2439.5433	3680.95	2800.8
971.375	2440.9148	3659.95	2774.3
971.5043	2442.2856	3642.3	2764
971.6336	2443.6557	3644.9	2764.45
971.7629	2445.025	3620.1	2741.45
971.8922	2446.3937	3624.15	2741.35
972.0214	2447.7617	3591.55	2711.2
972.1506	2449.1289	3597.4	2717.05
972.2798	2450.4955	3598.95	2715.55
972.4089	2451.8613	3596.5	2716.9
972.538	2453.2265	3578.15	2697.8
972.6671	2454.5909	3575.25	2692.35
972.7961	2455.9546	3563.95	2684.6
972.9251	2457.3177	3549.1	2668.9
973.0541	2458.68	3532.95	2651.25
973.1831	2460.0416	3523.85	2645.3
973.312	2461.4025	3527.15	2645.6
973.4408	2462.7627	3522.05	2630.35
973.5697	2464.1222	3509.25	2628.9
973.6985	2465.4811	3502.25	2623.75
973.8273	2466.8392	3508.8	2627.65
973.956	2468.1966	3482.15	2600.9
974.0847	2469.5533	3472.25	2588.55
974.2134	2470.9093	3470	2590.15
974.3421	2472.2645	3456.8	2573.6
974.4707	2473.6191	3446.1	2565.95
974.5993	2474.973	3435.95	2556.75
974.7278	2476.3262	3437.5	2557.7
974.8563	2477.6787	3414.45	2533.6
974.9848	2479.0305	3401	2520.75
975.1132	2480.3816	3397.65	2514.35
975.2417	2481.7319	3377.9	2499.6
975.37	2483.0816	3372.55	2489.1
975.4984	2484.4306	3371.35	2490.8
975.6267	2485.7789	3362.4	2483.65
975.755	2487.1264	3350.7	2469.15
975.8833	2488.4733	3337.15	2458.1
976.0115	2489.8195	3344.55	2456.95
976.1397	2491.165	3324.2	2441.6
976.2678	2492.5097	3326.6	2444.65
976.3959	2493.8538	3302.4	2421.6
976.524	2495.1972	3288.05	2407.35
976.6521	2496.5398	3282.15	2401.7
976.7801	2497.8818	3277.8	2395.25
976.9081	2499.2231	3270	2391.45
977.036	2500.5637	3252.2	2371.55
977.164	2501.9035	3259.4	2378.75
977.2918	2503.2427	3243.35	2360.75
977.4197	2504.5812	3232.3	2352.3
977.5475	2505.919	3215.05	2331.3
977.6753	2507.256	3222.15	2340.75
977.8031	2508.5924	3200.05	2318.55
977.9308	2509.9281	3188.35	2302.7
978.0585	2511.2631	3180.8	2301.4
978.1861	2512.5974	3174.45	2296.25
978.3137	2513.9309	3172.55	2291.7
978.4413	2515.2638	3181.2	2273.4
978.5689	2516.596	3176.95	2297.85
978.6964	2517.9275	3137.85	2254
978.8239	2519.2583	3126.7	2246.75
978.9513	2520.5884	3122.3	2239.8
979.0788	2521.9178	3106.15	2226.2
979.2062	2523.2465	3104.45	2226.8
979.3335	2524.5745	3088.05	2206.75
979.4608	2525.9018	3081.85	2202.95
979.5881	2527.2284	3086.8	2207.95
979.7154	2528.5543	3072.15	2193.8
979.8426	2529.8796	3057.5	2177.8
979.9698	2531.2041	3052.9	2173
980.0969	2532.5279	3042.9	2162.95
980.224	2533.851	3051.05	2170.35
980.3511	2535.1735	3028.35	2149.3
980.4781	2536.4952	3030.55	2149.05
980.6052	2537.8163	3027.4	2147.5
980.7321	2539.1366	3021.85	2140.4
980.8591	2540.4562	2996.75	2114.55
980.986	2541.7752	3003.9	2122.5
981.1129	2543.0935	3001	2122.2
981.2397	2544.411	3004.65	2123.35
981.3665	2545.7279	2984.55	2105.6
981.4933	2547.0441	2996.55	2117.85
981.62	2548.3596	2985.8	2102.75
981.7467	2549.6744	2973.25	2093.25
981.8734	2550.9885	2963.4	2074.6
982.0001	2552.3019	2964.3	2088.35
982.1267	2553.6146	2960.45	2079.1
982.2532	2554.9266	2948.95	2068.4
982.3798	2556.2379	2950.65	2070.1
982.5063	2557.5485	2950.25	2070.95
982.6327	2558.8585	2934.15	2049.65
982.7592	2560.1677	2933.55	2049.65
982.8856	2561.4762	2927.85	2047.55
983.0119	2562.7841	2915.1	2032.95
983.1383	2564.0913	2898.15	2018.4
983.2646	2565.3977	2912.75	2033.3
983.3908	2566.7035	2893	2013.75
983.517	2568.0086	2896.8	2015.3
983.6432	2569.313	2892.2	2012
983.7694	2570.6167	2890.2	2006.2
983.8955	2571.9197	2879.6	2000.35
984.0216	2573.222	2871.65	1987.75
984.1476	2574.5236	2871.3	1990.9
984.2737	2575.8246	2874.35	1990.85
984.3996	2577.1248	2863.1	1979.8
984.5256	2578.4244	2850.8	1969.45
984.6515	2579.7232	2864.25	1986.55
984.7774	2581.0214	2863.4	1959.3
984.9032	2582.3189	2840	1961.75
985.029	2583.6157	2835.35	1951.75
985.1548	2584.9118	2836.25	1956.25
985.2806	2586.2072	2810.05	1930.1
985.4063	2587.5019	2808.95	1931.7
985.5319	2588.7959	2810.8	1929.9
985.6576	2590.0893	2806.1	1924.55
985.7832	2591.3819	2794.8	1914.55
985.9087	2592.6739	2790.9	1913.05
986.0343	2593.9652	2763	1881.7
986.1597	2595.2557	2770.5	1889.95
986.2852	2596.5456	2756.6	1876.2
986.4106	2597.8348	2760.5	1881.6
986.536	2599.1234	2742.9	1864.75
986.6614	2600.4112	2733.95	1855.85
986.7867	2601.6983	2730.45	1846.7
986.912	2602.9848	2721	1843
987.0372	2604.2705	2720.05	1831.4
987.1624	2605.5556	2716.25	1836.25
987.2876	2606.84	2704.85	1823.75
987.4128	2608.1237	2697.75	1815.35
987.5379	2609.4067	2693.15	1812.3
987.6629	2610.689	2690.05	1799.4
987.788	2611.9707	2664.8	1781.7
987.913	2613.2516	2661.05	1776.7
988.0379	2614.5319	2656	1775.6
988.1629	2615.8115	2643.15	1764.1
988.2878	2617.0903	2640.25	1759.9
988.4126	2618.3685	2619	1739.05
988.5375	2619.6461	2620.3	1740.5
988.6622	2620.9229	2611.4	1732.3
988.787	2622.199	2616.45	1736.2
988.9117	2623.4745	2611.3	1731.1
989.0364	2624.7493	2600.1	1722
989.161	2626.0234	2594.2	1716.6
989.2857	2627.2968	2582.9	1700.65
989.4102	2628.5695	2568.85	1688.1
989.5348	2629.8415	2565.85	1687.6
989.6593	2631.1128	2556.25	1672.7
989.7837	2632.3835	2557.45	1679.2
989.9082	2633.6535	2536.25	1656.3
990.0326	2634.9228	2528	1650
990.1569	2636.1914	2528.6	1648.7
990.2812	2637.4593	2522.05	1635.9
990.4055	2638.7265	2522.65	1641.45
990.5298	2639.9931	2510.1	1629.7
990.654	2641.259	2502.6	1623.4
990.7782	2642.5242	2506.9	1625.55
990.9023	2643.7887	2501.15	1618.8
991.0264	2645.0525	2491.25	1610.6
991.1505	2646.3156	2485.05	1602.55
991.2745	2647.5781	2465.9	1585.4
991.3985	2648.8398	2456.05	1578.9
991.5225	2650.1009	2461.45	1573.35
991.6464	2651.3613	2454.35	1576.3
991.7703	2652.6211	2455.75	1575.05
991.8942	2653.8801	2444.2	1564.05
992.018	2655.1385	2441.65	1559.1
992.1418	2656.3961	2432.8	1552
992.2655	2657.6531	2433.35	1553.35
992.3892	2658.9094	2415.95	1536.75
992.5129	2660.1651	2417.65	1538.55
992.6366	2661.42	2410.15	1529
992.7602	2662.6743	2411.95	1530.4
992.8837	2663.9279	2409.1	1530.65
993.0073	2665.1808	2403.55	1523.5
993.1307	2666.433	2402.2	1520.75
993.2542	2667.6846	2383.75	1503.95
993.3776	2668.9354	2394.1	1509.95
993.501	2670.1856	2379.95	1499.65
993.6244	2671.4351	2382.65	1505.1
993.7477	2672.6839	2379.75	1498.6
993.8709	2673.9321	2369.3	1491.1
993.9942	2675.1795	2362.55	1483.65
994.1174	2676.4263	2349.35	1469.35
994.2405	2677.6724	2346.6	1466.25
994.3637	2678.9179	2342.05	1460.9
994.4868	2680.1626	2336.85	1457.75
994.6098	2681.4067	2345.65	1465.25
994.7328	2682.6501	2330.05	1449.25
994.8558	2683.8928	2321.7	1440.65
994.9788	2685.1348	2310.3	1429
995.1017	2686.3761	2310.5	1430.65
995.2245	2687.6168	2293.85	1415.3
995.3474	2688.8568	2303.25	1423
995.4702	2690.0961	2296.65	1416.9
995.5929	2691.3348	2283.95	1404.55
995.7156	2692.5727	2284.45	1405.45
995.8383	2693.81	2273.6	1395.45
995.961	2695.0466	2282.9	1404.6
996.0836	2696.2826	2276.7	1396.55
996.2062	2697.5178	2262.8	1379.35
996.3287	2698.7524	2252.4	1373.95
996.4512	2699.9863	2252.25	1369.6
996.5737	2701.2195	2241.9	1363.5
996.6961	2702.452	2243.8	1361.45
996.8185	2703.6839	2234.95	1353.7
996.9408	2704.9151	2225.35	1345.05
997.0631	2706.1456	2228.1	1347.2
997.1854	2707.3755	2225.6	1344.3
997.3077	2708.6046	2221.65	1340.6
997.4299	2709.8331	2213.1	1333.3
997.552	2711.0609	2213.9	1333.8
997.6742	2712.2881	2202.55	1322.35
997.7963	2713.5145	2204.85	1322.05
997.9183	2714.7403	2194.1	1316.05
998.0403	2715.9654	2183.25	1303.25
998.1623	2717.1899	2195.2	1301.65
998.2842	2718.4136	2186.1	1307
998.4062	2719.6367	2178.6	1298.45
998.528	2720.8591	2168.9	1282.6
998.6498	2722.0809	2151.25	1269.55
998.7716	2723.3019	2152.25	1269.85
998.8934	2724.5223	2157.75	1275.6
999.0151	2725.7421	2150.65	1270.1
999.1368	2726.9611	2152.1	1270.7
999.2584	2728.1795	2141.9	1255.8
999.38	2729.3972	2133	1254
999.5016	2730.6142	2131.6	1239.1
999.6231	2731.8306	2118.3	1237.75
999.7446	2733.0462	2114.15	1231.8
999.8661	2734.2612	2102.9	1218.25
999.9875	2735.4756	2095	1214.9
1000.1089	2736.6892	2083.85	1204.2
1000.2302	2737.9022	2079.6	1199.9
1000.3515	2739.1145	2076.55	1196
1000.4728	2740.3262	2089.45	1203.35
1000.594	2741.5372	2062.85	1185.55
1000.7152	2742.7475	2067.6	1186.95
1000.8363	2743.9571	2064.7	1181.3
1000.9575	2745.1661	2050.6	1166.6
1001.0785	2746.3744	2044.65	1163.2
1001.1996	2747.582	2043.85	1165.15
1001.3206	2748.7889	2035.35	1152.25
1001.4415	2749.9952	2029.95	1150.6
1001.5625	2751.2008	2037.45	1155.65
1001.6833	2752.4057	2021.1	1139.15
1001.8042	2753.61	2022.5	1141.45
1001.925	2754.8136	2011.45	1129.35
1002.0458	2756.0165	2008	1125.8
1002.1665	2757.2188	1991.1	1112.05
1002.2872	2758.4204	1995.55	1115.8
1002.4078	2759.6213	1991.5	1109.15
1002.5285	2760.8215	1985.2	1102.4
1002.649	2762.0211	1983	1102.75
1002.7696	2763.22	1985.95	1103.2
1002.8901	2764.4182	1983.35	1102.8
1003.0106	2765.6158	1979.65	1099.4
1003.131	2766.8127	1969.85	1090.65
1003.2514	2768.009	1958.3	1078.75
1003.3717	2769.2045	1959.4	1079
1003.492	2770.3994	1963.55	1080.25
1003.6123	2771.5936	1948.5	1066.9
1003.7325	2772.7872	1946.55	1065.25
1003.8527	2773.9801	1932.85	1052.4
1003.9729	2775.1723	1949.9	1051.4
1004.093	2776.3639	1924.65	1045.5
1004.2131	2777.5548	1934.85	1052.7
1004.3331	2778.745	1922.75	1040.9
1004.4531	2779.9346	1915.5	1035.1
1004.5731	2781.1235	1918.55	1037.35
1004.693	2782.3117	1911.9	1033.2
1004.8129	2783.4992	1900.3	1022.2
1004.9328	2784.6861	1904.35	1023.15
1005.0526	2785.8723	1898.1	1018.35
1005.1723	2787.0579	1889.6	1008.1
1005.2921	2788.2428	1893.8	1013.7
1005.4118	2789.427	1884.8	1005.55
1005.5314	2790.6106	1886.4	1005.1
1005.651	2791.7935	1881.5	1000.25
1005.7706	2792.9757	1878.9	999.65
1005.8902	2794.1573	1869.3	987.55
1006.0097	2795.3382	1859.35	980.15
1006.1291	2796.5184	1851.3	972
1006.2485	2797.698	1854.85	973.8
1006.3679	2798.8769	1842.05	964
1006.4873	2800.0551	1843.6	962.15
1006.6066	2801.2327	1834.25	952.15
1006.7258	2802.4096	1838.1	958.45
1006.8451	2803.5859	1832.65	951.4
1006.9642	2804.7615	1833.3	952.3
1007.0834	2805.9364	1826.35	947.15
1007.2025	2807.1106	1822.6	942.25
1007.3216	2808.2842	1824.85	944.4
1007.4406	2809.4572	1818.35	937.1
1007.5596	2810.6294	1811.3	932
1007.6785	2811.801	1808.45	928.95
1007.7975	2812.972	1803.35	925.75
1007.9163	2814.1423	1810.75	929.75
1008.0352	2815.3119	1814.45	933.55
1008.154	2816.4808	1810.7	932.05
1008.2727	2817.6491	1812.15	931.4
1008.3914	2818.8167	1811.65	933.75
1008.5101	2819.9837	1827.3	943.25
1008.6288	2821.15	1809.85	929.45
1008.7474	2822.3157	1814.9	935.75
1008.8659	2823.4807	1832.55	953.15
1008.9844	2824.645	1840.1	959.95
1009.1029	2825.8086	1847.2	966.25
1009.2214	2826.9716	1847.55	968.75
1009.3398	2828.134	1867.45	988
1009.4581	2829.2957	1871.3	992.15
1009.5764	2830.4567	1869.6	991.45
1009.6947	2831.617	1867.1	985.55
1009.813	2832.7767	1868.7	989.55
1009.9312	2833.9358	1874.25	995.4
1010.0493	2835.0941	1869.9	987.15
1010.1675	2836.2519	1862.2	983.7
1010.2855	2837.4089	1862.45	982.3
1010.4036	2838.5653	1849	969.85
1010.5216	2839.7211	1844.95	965.95
1010.6396	2840.8761	1834.8	953.95
1010.7575	2842.0306	1828.85	951.05
1010.8754	2843.1843	1830.3	949.95
1010.9932	2844.3374	1825.75	946.6
1011.111	2845.4899	1825.5	945.75
1011.2288	2846.6417	1826.5	949.3
1011.3465	2847.7928	1819.85	941.45
1011.4642	2848.9433	1822.35	945.2
1011.5818	2850.0931	1824.3	946.3
1011.6995	2851.2422	1824.1	941.55
1011.817	2852.3907	1829.65	949.55
1011.9345	2853.5385	1829.55	945.95
1012.052	2854.6857	1817.7	929.4
1012.1695	2855.8323	1816.45	937.7
1012.2869	2856.9781	1818.15	939.4
1012.4042	2858.1233	1820.05	941.45
1012.5216	2859.2679	1821.85	942.15
1012.6389	2860.4118	1822.4	943.9
1012.7561	2861.555	1821.9	938.4
1012.8733	2862.6976	1817.7	936.25
1012.9905	2863.8395	1824.05	946.05
1013.1076	2864.9808	1827	945.3
1013.2247	2866.1214	1823.15	945.15
1013.3417	2867.2614	1814.3	932.6
1013.4587	2868.4007	1816.4	936.6
1013.5757	2869.5393	1822.1	941.1
1013.6926	2870.6773	1821.05	942.5
1013.8095	2871.8146	1824.35	942.95
1013.9263	2872.9513	1826.6	942.8
1014.0431	2874.0874	1813.7	931.05
1014.1599	2875.2227	1808.6	929
1014.2766	2876.3574	1814.7	935.15
1014.3933	2877.4915	1814.4	932.95
1014.51	2878.6249	1812.45	932.75
1014.6266	2879.7577	1811.4	930.3
1014.7431	2880.8898	1822.5	931.85
1014.8596	2882.0212	1812.65	933.15
1014.9761	2883.152	1808.75	928.85
1015.0925	2884.2821	1808.75	929.35
1015.2089	2885.4116	1804.3	925.8
1015.3253	2886.5405	1800.85	921.2
1015.4416	2887.6686	1802.8	919.5
1015.5579	2888.7962	1800.3	922.5
1015.6741	2889.923	1799.15	921
1015.7903	2891.0493	1793.6	915.35
1015.9065	2892.1748	1792.8	913.55
1016.0226	2893.2997	1789.05	910
1016.1387	2894.424	1790.7	912.85
1016.2547	2895.5476	1781.3	900.85
1016.3707	2896.6706	1771.5	891.6
1016.4866	2897.7929	1777.05	897.3
1016.6025	2898.9145	1773.05	893.6
1016.7184	2900.0355	1767.15	886.7
1016.8342	2901.1559	1771.45	891.05
1016.95	2902.2756	1768.9	887.3
1017.0658	2903.3946	1754.25	875.15
1017.1815	2904.513	1753.55	869.55
1017.2971	2905.6308	1749.55	869.75
1017.4127	2906.7479	1750.45	870.7
1017.5283	2907.8643	1744.2	864.35
1017.6439	2908.9801	1742.3	862
1017.7594	2910.0953	1737.7	860.4
1017.8748	2911.2098	1734.35	852
1017.9902	2912.3236	1723.55	833.55
1018.1056	2913.4368	1724.35	841.55
1018.2209	2914.5494	1728.05	848.05
1018.3362	2915.6613	1725.6	839.95
1018.4515	2916.7725	1713.4	829.6
1018.5667	2917.8831	1713	830.65
1018.6819	2918.9931	1711.65	829.95
1018.797	2920.1024	1693.35	811.25
1018.9121	2921.211	1684.8	804.55
1019.0271	2922.319	1690.6	812.55
1019.1421	2923.4264	1682.7	804.5
1019.2571	2924.5331	1678.8	800.95
1019.372	2925.6391	1676.55	797.55
1019.4869	2926.7445	1670.6	791.4
1019.6017	2927.8493	1670.6	789.45
1019.7165	2928.9534	1672.05	790.8
1019.8313	2930.0569	1674.65	792.65
1019.946	2931.1597	1673	791.95
1020.0606	2932.2619	1665.75	786.85
1020.1753	2933.3634	1673.5	795.65
1020.2899	2934.4643	1671.9	785.95
1020.4044	2935.5645	1669.45	781.6
1020.5189	2936.6641	1673.3	789.1
1020.6334	2937.763	1662.35	783.35
1020.7478	2938.8613	1664.4	784.85
1020.8622	2939.959	1664.75	778.4
1020.9765	2941.056	1642.65	765.3
1021.0908	2942.1523	1642.95	760.55
1021.2051	2943.248	1626.1	746.6
1021.3193	2944.3431	1610.3	730.75
1021.4334	2945.4375	1595.45	713.45
1021.5476	2946.5313	1575.7	697.05
1021.6617	2947.6244	1577.3	697.8
1021.7757	2948.7169	1572.9	692.55
1021.8897	2949.8087	1560.55	681.5
1022.0037	2950.8999	1543	663.3
1022.1176	2951.9904	1533.4	654.35
1022.2315	2953.0803	1526.1	645.95
1022.3453	2954.1696	1516.8	636.85
1022.4591	2955.2582	1505.75	627.05
1022.5728	2956.3462	1502.45	622.25
1022.6865	2957.4335	1495.35	614.95
1022.8002	2958.5202	1492	611.15
1022.9138	2959.6062	1493.2	614.95
1023.0274	2960.6916	1486	606.65
1023.141	2961.7764	1486.7	605.7
1023.2545	2962.8605	1484.85	604.05
1023.3679	2963.9439	1482.25	603.2
1023.4813	2965.0267	1473.75	592.85
1023.5947	2966.1089	1502.85	600.6
1023.708	2967.1905	1471.1	592.55
1023.8213	2968.2714	1464.95	585.45
1023.9346	2969.3516	1465.9	585.65
1024.0478	2970.4312	1475.5	587.45
1024.1609	2971.5102	1460.25	582.1
1024.274	2972.5885	1455.1	576.9
1024.3871	2973.6662	1460	575.15
1024.5002	2974.7432	1451.2	572.5
1024.6132	2975.8196	1454	573.65
1024.7261	2976.8954	1448.65	570.65
1024.839	2977.9705	1447.6	569.3
1024.9519	2979.045	1444.15	565.9
1025.0647	2980.1188	1443.75	562.8
1025.1775	2981.192	1443.15	563.1
1025.2902	2982.2645	1438.2	556.9
1025.4029	2983.3364	1426.6	545.95
1025.5156	2984.4077	1423.95	545.25
1025.6282	2985.4783	1425.7	539.5
1025.7407	2986.5483	1414.35	535.8
1025.8532	2987.6177	1410.5	531.95
1025.9657	2988.6864	1408	526.45
1026.0782	2989.7545	1398.45	518.05
1026.1906	2990.8219	1400.05	520.55
1026.3029	2991.8887	1391.05	507.3
1026.4152	2992.9548	1392.55	514.3
1026.5275	2994.0204	1375.25	496.25
1026.6397	2995.0852	1374.8	496.35
1026.7519	2996.1495	1366.15	486.55
1026.864	2997.2131	1369.8	492.2
1026.9761	2998.276	1361.85	481.85
1027.0882	2999.3383	1355.7	474.8
1027.2002	3000.4	1346.6	466.75
1027.3122	3001.4611	1349.2	470.65
1027.4241	3002.5215	1346.1	465.8
1027.536	3003.5812	1340.1	462.35
1027.6478	3004.6404	1337.7	457.15
1027.7596	3005.6989	1335.55	454.05
1027.8714	3006.7567	1329.55	452.7
1027.9831	3007.8139	1350.6	448.6
1028.0947	3008.8705	1327.35	449.9
1028.2064	3009.9264	1323.45	439.45
1028.3179	3010.9818	1317.05	436.6
1028.4295	3012.0364	1327.6	447.7
1028.541	3013.0905	1318.95	437.15
1028.6524	3014.1439	1312.7	432.8
1028.7638	3015.1966	1310.65	431.05
1028.8752	3016.2487	1308.35	428.8
1028.9865	3017.3002	1305.85	420.75
1029.0978	3018.3511	1310.05	434.1
1029.209	3019.4013	1303.95	424.45
1029.3202	3020.4509	1305.55	425.95
1029.4314	3021.4998	1304.5	423.85
1029.5425	3022.5481	1303.85	425.6
1029.6535	3023.5958	1300.75	419.7
1029.7645	3024.6428	1291.45	411.7
1029.8755	3025.6892	1286.75	407.65
1029.9864	3026.735	1290.65	410.5
1030.0973	3027.7802	1292.85	413.8
1030.2082	3028.8247	1286.85	407.1
1030.319	3029.8685	1278.85	398.65
1030.4297	3030.9118	1276	396.65
1030.5404	3031.9544	1277.95	399.4
1030.6511	3032.9963	1277.9	397.5
1030.7617	3034.0376	1273.75	394.1
1030.8723	3035.0783	1278.4	395.1
1030.9829	3036.1184	1275.7	395.4
1031.0934	3037.1578	1272.55	392.8
1031.2038	3038.1966	1279.1	399.55
1031.3142	3039.2348	1276.55	397.55
1031.4246	3040.2723	1278.5	388.25
1031.5349	3041.3092	1257.75	378.9
1031.6452	3042.3455	1262.65	383.75
1031.7554	3043.3811	1260.35	379.85
1031.8656	3044.4161	1263.75	383.15
1031.9758	3045.4505	1260.1	379.95
1032.0859	3046.4842	1262.3	382.65
1032.1959	3047.5173	1252.85	374.4
1032.3059	3048.5498	1256.85	375.1
1032.4159	3049.5816	1257.35	377.4
1032.5258	3050.6128	1254.75	374.6
1032.6357	3051.6434	1258.45	379.35
1032.7455	3052.6734	1252.2	372.35
1032.8553	3053.7027	1249.35	367.85
1032.9651	3054.7314	1249.35	371.25
1033.0748	3055.7594	1243.95	365.65
1033.1845	3056.7868	1245.2	365.45
1033.2941	3057.8136	1243.35	362.35
1033.4037	3058.8398	1243.85	365.2
1033.5132	3059.8653	1235.45	357.3
1033.6227	3060.8902	1239.25	362.55
1033.7321	3061.9145	1238.3	359.35
1033.8415	3062.9381	1240.85	363.3
1033.9509	3063.9612	1248.95	353.5
1034.0602	3064.9835	1236.75	358.45
1034.1694	3066.0053	1237.4	355.8
1034.2787	3067.0264	1233.65	354.05
1034.3878	3068.0469	1236.55	355.7
1034.497	3069.0668	1233.35	352.15
1034.6061	3070.086	1227.15	349.95
1034.7151	3071.1046	1225.9	346.55
1034.8241	3072.1226	1227.65	350
1034.9331	3073.1399	1229.4	349.6
1035.042	3074.1567	1225.7	346.5
1035.1508	3075.1727	1221.3	341.7
1035.2597	3076.1882	1216.55	337.6
1035.3684	3077.203	1215.3	335.2
1035.4772	3078.2173	1217.2	336.35
1035.5859	3079.2308	1217.95	337.45
1035.6945	3080.2438	1206.05	323.75
1035.8031	3081.2561	1209.4	330.05
1035.9117	3082.2678	1203.45	324.6
1036.0202	3083.2789	1205.25	324.7
1036.1286	3084.2893	1201.55	322.7
1036.2371	3085.2991	1202.6	323.7
1036.3454	3086.3083	1204.15	319.7
1036.4538	3087.3169	1200.1	319.9
1036.562	3088.3248	1198.85	317.15
1036.6703	3089.3321	1198.55	317.15
1036.7785	3090.3388	1192.6	312
1036.8866	3091.3449	1193.8	313
1036.9948	3092.3503	1190.25	309.1
1037.1028	3093.3551	1188.25	311.55
1037.2108	3094.3593	1189.6	311.7
1037.3188	3095.3629	1183.9	306.65
1037.4267	3096.3658	1183.5	302.05
1037.5346	3097.3681	1182.9	302.15
1037.6425	3098.3698	1184.15	303.5
1037.7503	3099.3708	1185	296.3
1037.858	3100.3713	1175.15	295.2
1037.9657	3101.3711	1176.35	297.2
1038.0734	3102.3702	1305.35	290.3
1038.181	3103.3688	1173.5	293.5
1038.2886	3104.3667	1167.2	288.35
1038.3961	3105.364	1164.4	282.85
1038.5036	3106.3607	1169.3	289.15
1038.611	3107.3568	1166.4	283.75
1038.7184	3108.3522	1158.55	279.75
1038.8257	3109.347	1164.65	282.9
1038.933	3110.3412	1160.75	276.25
1039.0403	3111.3348	1155.1	276.85
1039.1475	3112.3277	1154.95	276.85
1039.2547	3113.32	1153.9	275.3
1039.3618	3114.3117	1149.7	269.1
1039.4689	3115.3028	1153.6	274.05
1039.5759	3116.2932	1152.15	268.75
1039.6829	3117.2831	1155.95	273.6
1039.7898	3118.2723	1148.75	270
1039.8967	3119.2608	1144.85	265.8
1040.0035	3120.2488	1148.45	268.65
1040.1103	3121.2361	1140.5	260.65
1040.2171	3122.2229	1138.95	257.5
1040.3238	3123.209	1141.35	261.15
1040.4305	3124.1944	1139.25	260.55
1040.5371	3125.1793	1133	251.5
1040.6437	3126.1635	1132.35	255.3
1040.7502	3127.1471	1130.8	251.9
1040.8567	3128.1301	1127.55	248.25
1040.9631	3129.1125	1129.75	251.85
1041.0695	3130.0942	1126.25	247.2
1041.1759	3131.0753	1140	252.5
1041.2822	3132.0558	1125.45	244.4
1041.3884	3133.0357	1126.55	246
1041.4946	3134.015	1118.6	238
1041.6008	3134.9936	1125.95	245.2
1041.7069	3135.9716	1149.9	250.5
1041.813	3136.949	1122.2	244.25
1041.919	3137.9258	1121.7	237.8
1042.025	3138.902	1118.45	233.5
1042.1309	3139.8775	1118.1	240.7
1042.2368	3140.8524	1115.05	236.55
1042.3427	3141.8267	1113.2	233.25
1042.4485	3142.8004	1117.25	237.45
1042.5542	3143.7735	1120.15	235.8
1042.6599	3144.7459	1111.15	228.4
1042.7656	3145.7178	1106.75	225.5
1042.8712	3146.689	1114.4	235.35
1042.9768	3147.6596	1114.15	233.65
1043.0823	3148.6295	1109.35	228.8
1043.1878	3149.5989	1108.05	228.15
1043.2932	3150.5676	1106.95	229
1043.3986	3151.5357	1104	225.6
1043.5039	3152.5032	1105.05	226.9
1043.6092	3153.4701	1101.2	222.9
1043.7145	3154.4364	1099.5	218.6
1043.8197	3155.402	1099.15	220.5
1043.9248	3156.367	1098.35	216
1044.03	3157.3315	1130.1	214.9
1044.135	3158.2952	1088.75	208.4
1044.24	3159.2584	1095.05	215.65
1044.345	3160.221	1092.4	212
1044.4499	3161.1829	1091.25	210.35
1044.5548	3162.1442	1088.05	209.05
1044.6596	3163.105	1086.75	207.3
1044.7644	3164.065	1087.9	206.7
1044.8692	3165.0245	1092	209.4
1044.9739	3165.9834	1086.35	208.85
1045.0785	3166.9416	1082.65	202.25
1045.1831	3167.8993	1086.85	206.05
1045.2877	3168.8563	1079.95	200.05
1045.3922	3169.8127	1081.55	203.35
1045.4966	3170.7684	1078.6	199.9
1045.6011	3171.7236	1076.7	196.15
1045.7054	3172.6782	1075.7	195.25
1045.8098	3173.6321	1076.5	194.3
1045.914	3174.5854	1079.55	197.75
1046.0183	3175.5381	1077.25	197.35
1046.1224	3176.4902	1073.75	194.9
1046.2266	3177.4417	1069.05	190.55
1046.3307	3178.3926	1072.6	193.15
1046.4347	3179.3428	1069.5	192.3
1046.5387	3180.2924	1071.45	191.7
1046.6427	3181.2415	1073.7	193.55
1046.7466	3182.1899	1070	187.95
1046.8504	3183.1377	1064.45	183.65
1046.9542	3184.0848	1068.45	185.35
1047.058	3185.0314	1061.15	179.85
1047.1617	3185.9773	1065.65	187.25
1047.2654	3186.9227	1061.2	183.05
1047.369	3187.8674	1060.15	180.9
1047.4726	3188.8115	1063.05	179
1047.5761	3189.755	1055.85	177.1
1047.6796	3190.6979	1061.75	182.75
1047.783	3191.6402	1057.55	179
1047.8864	3192.5818	1059	177.8
1047.9898	3193.5229	1056.95	173.65
1048.0931	3194.4633	1056.8	178.25
1048.1963	3195.4031	1056.7	176.5
1048.2995	3196.3423	1053.45	174.05
1048.4027	3197.2809	1052	171.3
1048.5058	3198.2189	1053.05	172.35
1048.6089	3199.1563	1055.8	167.35
1048.7119	3200.0931	1048.6	170.75
1048.8148	3201.0292	1048.2	168.85
1048.9178	3201.9648	1046.75	167.3
1049.0206	3202.8997	1050.2	168.3
1049.1235	3203.834	1048.85	168.55
1049.2262	3204.7677	1041.55	163.85
1049.329	3205.7008	1047.55	166.1
1049.4317	3206.6333	1040.15	159.15
1049.5343	3207.5652	1048.2	166.3
1049.6369	3208.4964	1038.5	158.75
1049.7394	3209.4271	1040.6	164.3
1049.8419	3210.3571	1039.2	161.25
1049.9444	3211.2865	1036	154.8
1050.0468	3212.2154	1040	159.9
1050.1491	3213.1436	1042	161.8
1050.2514	3214.0712	1046.95	161.3
1050.3537	3214.9982	1034.75	154.7
1050.4559	3215.9246	1039.8	157.55
1050.5581	3216.8503	1032.85	153.15
1050.6602	3217.7755	1033.95	153.6
1050.7623	3218.7001	1035.05	155.5
1050.8643	3219.624	1031.65	151.35
1050.9663	3220.5473	1033.15	153.55
1051.0682	3221.4701	1029.65	149.1
1051.1701	3222.3922	1035.05	154.75
1051.2719	3223.3137	1029.25	149.65
1051.3737	3224.2346	1030.2	153.85
1051.4754	3225.1549	1024.25	145.7
1051.5771	3226.0746	1028.9	150.25
1051.6788	3226.9937	1029.15	147.8
1051.7804	3227.9121	1022.8	142.95
1051.8819	3228.83	1024.95	146.05
1051.9834	3229.7473	1025.55	144.7
1052.0849	3230.6639	1022.45	142.45
1052.1863	3231.5799	1020.55	141.5
1052.2876	3232.4954	1020.55	139.15
1052.3889	3233.4102	1021.1	139.85
1052.4902	3234.3244	1020.95	142.1
1052.5914	3235.238	1016.9	137.8
1052.6926	3236.151	1038.85	134.7
1052.7937	3237.0634	1017	139.4
1052.8948	3237.9752	1014.4	134.65
1052.9958	3238.8864	1016.9	137.15
1053.0968	3239.797	1012.3	134.5
1053.1977	3240.7069	1019.15	139.1
1053.2986	3241.6163	1014.25	134.15
1053.3994	3242.5251	1013.95	135.1
1053.5002	3243.4332	1014.35	134.6
1053.6009	3244.3408	1010.3	131.2
1053.7016	3245.2477	1011.3	131.7
1053.8022	3246.154	1010.3	129.45
1053.9028	3247.0598	1008	127.75
1054.0034	3247.9649	1004.35	126.5
1054.1039	3248.8694	1004.1	123.95
1054.2043	3249.7733	1009.65	131.25
1054.3047	3250.6766	1004.55	126.6
1054.4051	3251.5793	1003.25	122
1054.5054	3252.4814	1000.7	123.75
1054.6056	3253.3829	1003	123.75
1054.7058	3254.2838	998.3	119.45
1054.806	3255.1841	997.7	119.35
1054.9061	3256.0838	999.35	119
1055.0061	3256.9829	992.9	113.75
1055.1062	3257.8814	1000.6	118.9
1055.2061	3258.7792	997.65	113.85
1055.306	3259.6765	995.05	114.85
1055.4059	3260.5731	992.85	114
1055.5057	3261.4692	991	110.35
1055.6055	3262.3647	991.9	111.3
1055.7052	3263.2595	987.25	106.2
1055.8049	3264.1538	986.25	107.2
1055.9045	3265.0474	987	106.5
1056.0041	3265.9404	985.1	106.95
1056.1036	3266.8329	982.95	104.5
1056.2031	3267.7247	994.45	105.1
1056.3025	3268.616	979.7	102.85
1056.4019	3269.5066	974.95	96.3
1056.5013	3270.3966	975.95	95.4
1056.6005	3271.286	971.35	93.7
