Software Version:	3.9.2.0
Unit SN:	10000200
Spectrometer SN:	6960
Date:	3/6/2024 9:52:28 AM
Data Line Index:	25
Spectral Points:	2048
Integration time (ms):	125
Averages:	20
Delay (ms):	30
Sequence Number:	1
Processing:	dark subtract
Laser Power (mW):	305
Laser Current (mA):	824
Laser Diode Temp (C):	25.1
Laser Case Temp (C):	24.4
System Temp (C):	24.2
Spectrometer Temp (C):	21.7
CCD Temp (C):	0.005
Secondary Temp (C):	20.007
Heatsink Temp (C):	18.406
CCDPCB Temp (C):	30.716
SecondaryPCB Temp (C):	25.991

Wavelength	RamanShift	Raw Counts	Dark Subtracted
787.061	30.1047	438.3	31.4
787.2016	32.3739	440.7	33.95
787.3422	34.6426	442.35	33.7
787.4828	36.9109	447.3	39.35
787.6235	39.1787	453.15	40.45
787.7642	41.4461	460.45	43.25
787.9049	43.7131	467.65	46.85
788.0456	45.9796	473.95	51.2
788.1863	48.2456	477.1	50.7
788.3271	50.5112	485.05	54.8
788.4679	52.7764	492.9	59.25
788.6087	55.0411	497.1	58.4
788.7496	57.3054	509.9	66.7
788.8904	59.5692	511.25	66.8
789.0313	61.8326	523.6	76.35
789.1722	64.0955	530.9	79.85
789.3132	66.3579	538.05	83.75
789.4541	68.6199	551.3	92.1
789.5951	70.8815	572.1	109.35
789.7361	73.1426	609.55	143.75
789.8771	75.4032	703.65	232.45
790.0181	77.6634	943.55	468.15
790.1592	79.9231	1485.3	1006.35
790.3003	82.1824	2641.75	2155.1
790.4414	84.4412	4655.45	4155.5
790.5825	86.6995	7345.55	6828.85
790.7237	88.9574	10068.85	9538.35
790.8648	91.2148	12063.3	11522.7
791.006	93.4717	13181.55	12636.1
791.1472	95.7282	13683.85	13132.95
791.2885	97.9842	13927.3	13373.4
791.4297	100.2398	13973.1	13417.15
791.571	102.4949	14044.05	13485.95
791.7123	104.7495	14069	13505.6
791.8536	107.0036	14065.1	13501.65
791.9949	109.2573	14054.7	13494.5
792.1363	111.5105	14044.7	13482
792.2777	113.7632	14014.35	13447.8
792.4191	116.0154	14021.3	13440.4
792.5605	118.2672	14047.95	13478.55
792.7019	120.5185	14064.55	13489.55
792.8434	122.7693	14083.95	13508.15
792.9849	125.0197	14109.05	13527.25
793.1264	127.2696	14088.2	13503.35
793.2679	129.519	14152.25	13562.75
793.4094	131.7679	14180.45	13591.55
793.551	134.0163	14206.7	13615.55
793.6926	136.2642	14216.25	13620.85
793.8342	138.5117	14226.9	13626.7
793.9758	140.7587	14261.25	13662.1
794.1175	143.0052	14250.65	13647.15
794.2591	145.2512	14227.05	13623.7
794.4008	147.4967	14219.3	13613.4
794.5425	149.7417	14214.65	13606.6
794.6842	151.9863	14183.65	13570.2
794.826	154.2304	14227.25	13611.35
794.9677	156.4739	14178.3	13554.8
795.1095	158.717	14196.65	13576.9
795.2513	160.9596	14210.6	13585.55
795.3931	163.2017	14191.15	13563.8
795.535	165.4433	14240.35	13611.05
795.6768	167.6844	14226.85	13592.15
795.8187	169.925	14224.2	13587.5
795.9606	172.1651	14184.9	13548.1
796.1025	174.4047	14202.75	13561.35
796.2445	176.6439	14200.65	13557.35
796.3864	178.8825	14191.85	13545.45
796.5284	181.1206	14230.2	13578.75
796.6704	183.3582	14238.75	13584.6
796.8124	185.5954	14231.85	13577.1
796.9544	187.832	14227.85	13567.45
797.0965	190.0681	14294.1	13632.75
797.2386	192.3037	14307.35	13640.8
797.3806	194.5388	14301.1	13630
797.5228	196.7734	14317.5	13645.9
797.6649	199.0075	14386.05	13712.7
797.807	201.2411	14422.2	13746.7
797.9492	203.4742	14480.95	13806.6
798.0914	205.7068	14526.4	13845.6
798.2336	207.9389	14525.5	13844.8
798.3758	210.1704	14571.4	13894.6
798.518	212.4015	14539.95	13875.25
798.6603	214.632	14569.9	13910.75
798.8025	216.862	14581.3	13923.05
798.9448	219.0915	14573.35	13913.35
799.0871	221.3205	14632.8	13967.15
799.2294	223.549	14666.45	14005.6
799.3718	225.777	14659.95	13999.6
799.5141	228.0044	14687.8	14020.1
799.6565	230.2314	14722.15	14054.35
799.7989	232.4578	14708.2	14035.25
799.9413	234.6837	14719.85	14041.25
800.0837	236.909	14741.15	14059.95
800.2262	239.1339	14812.05	14102.6
800.3687	241.3582	14777.75	14086.65
800.5111	243.582	14784	14062.4
800.6536	245.8053	14805.1	14097.45
800.7961	248.0281	14794.45	14090.2
800.9387	250.2503	14800.7	14091.2
801.0812	252.472	14805.45	14093.5
801.2238	254.6932	14848.75	14140.3
801.3664	256.9139	14794.55	14083.35
801.509	259.134	14835.3	14122.2
801.6516	261.3536	14858.7	14146.1
801.7942	263.5727	14926.25	14212.85
801.9369	265.7912	14874.15	14160.35
802.0795	268.0092	14933.25	14215.95
802.2222	270.2267	14935.2	14219.95
802.3649	272.4436	14942.2	14222.7
802.5076	274.6601	14953.2	14226.6
802.6504	276.8759	14980.45	14255.95
802.7931	279.0913	14976.5	14251.3
802.9359	281.3061	14984.9	14258.55
803.0787	283.5204	15009.85	14282
803.2215	285.7341	15039.65	14306.15
803.3643	287.9473	15084.75	14340.9
803.5071	290.16	15084.7	14349.5
803.6499	292.3721	15045.15	14316.05
803.7928	294.5837	15042.65	14309.15
803.9357	296.7947	14991.8	14259.9
804.0786	299.0052	15007.4	14276.25
804.2215	301.2152	14951.2	14216.85
804.3644	303.4246	14963.25	14231.35
804.5074	305.6334	14968.7	14236.25
804.6503	307.8418	14978.85	14239.95
804.7933	310.0495	14961.95	14224.4
804.9363	312.2568	14917.4	14178.55
805.0793	314.4635	14865.35	14124.05
805.2223	316.6696	14833.1	14089.55
805.3653	318.8752	14824.95	14073.1
805.5084	321.0802	14759.15	14014.15
805.6514	323.2847	14756.9	14010.95
805.7945	325.4887	14738.25	13989.9
805.9376	327.692	14730.6	13982.2
806.0807	329.8949	14774.3	14025.15
806.2238	332.0972	14782.6	14029.7
806.367	334.2989	14828.45	14072.7
806.5101	336.5001	14786.3	14033.85
806.6533	338.7007	14773.05	14018.8
806.7965	340.9008	14811.85	14052.6
806.9397	343.1003	14736.5	13977.45
807.0829	345.2992	14740.95	13981.85
807.2261	347.4976	14736.15	13974.9
807.3693	349.6955	14697.4	13930.35
807.5126	351.8927	14736.65	13969.35
807.6559	354.0895	14696.8	13916.25
807.7991	356.2856	14713	13944.25
807.9424	358.4812	14657.55	13886.8
808.0857	360.6763	14705.3	13933.5
808.2291	362.8707	14689.35	13915.45
808.3724	365.0646	14706.9	13930.05
808.5158	367.258	14662.7	13883.7
808.6591	369.4508	14678.75	13899.35
808.8025	371.643	14657.15	13876.6
808.9459	373.8346	14633.9	13852.65
809.0893	376.0257	14614.5	13828.3
809.2327	378.2162	14584.85	13801.6
809.3762	380.4062	14599.2	13814
809.5196	382.5956	14572.9	13786.25
809.6631	384.7844	14544.15	13764.4
809.8066	386.9726	14496.55	13717.8
809.9501	389.1603	14466.75	13689.15
810.0936	391.3474	14484.7	13673.95
810.2371	393.5339	14451.7	13672.6
810.3806	395.7199	14418.75	13641
810.5241	397.9052	14390.4	13613.9
810.6677	400.09	14382.95	13604.6
810.8113	402.2743	14422.9	13645
810.9548	404.4579	14430.05	13647.35
811.0984	406.641	14458.8	13675.7
811.2421	408.8235	14454.95	13671.65
811.3857	411.0054	14490.7	13703.35
811.5293	413.1868	14589.95	13801.4
811.673	415.3675	14612.25	13820.35
811.8166	417.5477	14634.6	13842.8
811.9603	419.7273	14530.65	13734.95
812.104	421.9064	14439.55	13634.65
812.2477	424.0848	14394.6	13598.65
812.3914	426.2627	14333.7	13532.55
812.5351	428.4399	14287.6	13486.8
812.6788	430.6166	14227.45	13424.65
812.8226	432.7928	14184.25	13378.9
812.9663	434.9683	14142.95	13341.1
813.1101	437.1432	14104.2	13295.45
813.2539	439.3176	14057.5	13254.45
813.3977	441.4914	14022.75	13221.45
813.5415	443.6645	14011.5	13209.35
813.6853	445.8371	13939.8	13135.35
813.8291	448.0091	13899.2	13094.45
813.973	450.1806	13850.2	13045.65
814.1168	452.3514	13812.15	13004.9
814.2607	454.5216	13846.3	13030.4
814.4046	456.6913	13739.55	12930.9
814.5485	458.8603	13728.45	12920
814.6924	461.0288	13783.95	12977.05
814.8363	463.1967	13725.45	12920.65
814.9802	465.3639	13761.75	12953.45
815.1241	467.5306	13684	12876.3
815.2681	469.6967	13684.55	12875.35
815.412	471.8622	13637.85	12831.7
815.556	474.0271	13653.15	12844.15
815.7	476.1914	13613.55	12803.35
815.844	478.3551	13606.3	12793.4
815.988	480.5182	13605.9	12794.75
816.132	482.6807	13625.05	12814.7
816.276	484.8426	13625.15	12814.9
816.4201	487.0039	13640.2	12829.5
816.5641	489.1647	13664.4	12849.65
816.7082	491.3248	13688.6	12875.75
816.8522	493.4843	13684.15	12870.5
816.9963	495.6432	13686.25	12869.5
817.1404	497.8015	13648.95	12829.55
817.2845	499.9592	13623.45	12802.65
817.4286	502.1163	13618	12795.25
817.5727	504.2728	13560.35	12741.25
817.7168	506.4287	13577.65	12761.75
817.861	508.5839	13550.3	12733.35
818.0051	510.7386	13494.15	12675.3
818.1493	512.8927	13532.55	12712.45
818.2935	515.0461	13530	12706.6
818.4377	517.199	13529	12704.75
818.5818	519.3512	13501.9	12678.65
818.726	521.5029	13522.3	12691.6
818.8703	523.6539	13505.2	12681.1
819.0145	525.8043	13556.6	12730.05
819.1587	527.9541	13468	12637
819.303	530.1033	13462.65	12636.45
819.4472	532.2519	13409.8	12581.9
819.5915	534.3999	13386.1	12556.6
819.7357	536.5472	13372.8	12541.8
819.88	538.694	13391.05	12563.45
820.0243	540.8401	13414.85	12584
820.1686	542.9856	13403.65	12571.7
820.3129	545.1305	13373.9	12537.6
820.4572	547.2748	13407.85	12568.3
820.6016	549.4185	13370.75	12535.25
820.7459	551.5615	13344.65	12509.05
820.8902	553.704	13388.55	12551.85
821.0346	555.8458	13327.8	12497.1
821.1789	557.987	13351.55	12518.65
821.3233	560.1276	13338.05	12505.7
821.4677	562.2675	13380.95	12545.4
821.6121	564.4069	13356.55	12519.75
821.7565	566.5456	13351.55	12514.9
821.9009	568.6837	13310.95	12474.55
822.0453	570.8212	13254.5	12419.1
822.1897	572.958	13249.2	12413.1
822.3342	575.0942	13193.7	12358.6
822.4786	577.2299	13147.3	12312.3
822.6231	579.3648	13097.75	12267.35
822.7675	581.4992	13014.3	12186.95
822.912	583.6329	12995.25	12166.85
823.0565	585.766	12950.3	12117.25
823.201	587.8985	12963.95	12131.9
823.3454	590.0304	12957.2	12112.6
823.4899	592.1616	12919.15	12076.85
823.6345	594.2922	12914.25	12073.2
823.779	596.4222	12881.5	12038.5
823.9235	598.5515	12833.95	11990.35
824.068	600.6802	12795.3	11954.65
824.2126	602.8083	12687.55	11845.8
824.3571	604.9358	12738.35	11895.2
824.5017	607.0626	12679.4	11835.15
824.6462	609.1888	12677.85	11829.6
824.7908	611.3144	12645.45	11795.7
824.9354	613.4393	12656.15	11809.05
825.08	615.5636	12660.05	11814.25
825.2246	617.6873	12671.8	11825.4
825.3692	619.8103	12680.95	11832.35
825.5138	621.9327	12639.95	11791.2
825.6584	624.0544	12640.65	11794.95
825.803	626.1756	12589.75	11746.5
825.9477	628.2961	12557.1	11706.5
826.0923	630.4159	12533.2	11684.45
826.237	632.5351	12535.4	11684.85
826.3816	634.6537	12506.65	11655.75
826.5263	636.7716	12493.7	11637.25
826.6709	638.8889	12494.2	11641.1
826.8156	641.0056	12501.2	11647.85
826.9603	643.1216	12472.9	11618.85
827.105	645.237	12496.35	11642.9
827.2497	647.3518	12454.8	11603.6
827.3944	649.4659	12406.6	11556.15
827.5391	651.5793	12382.9	11531.15
827.6838	653.6922	12389.65	11538.2
827.8285	655.8043	12362.35	11511
827.9733	657.9159	12366.6	11514.6
828.118	660.0268	12329.4	11477.35
828.2627	662.137	12294.6	11439.25
828.4075	664.2466	12304.35	11444.55
828.5522	666.3556	12296.75	11442.1
828.697	668.4639	12236.25	11380.35
828.8418	670.5716	12264.35	11413
828.9865	672.6786	12250.9	11394.65
829.1313	674.785	12214.6	11355.65
829.2761	676.8907	12215.45	11358.4
829.4209	678.9958	12196.05	11340.6
829.5657	681.1002	12135.7	11275.45
829.7105	683.204	12136.05	11271.65
829.8553	685.3072	12102.15	11242.8
830.0001	687.4097	12078.55	11217.1
830.1449	689.5115	12087.45	11226.35
830.2898	691.6127	12090.5	11231.35
830.4346	693.7132	12059.85	11200.8
830.5794	695.8131	12056.75	11183.15
830.7243	697.9123	12061.65	11200.35
830.8691	700.0109	12045	11182.9
831.014	702.1089	12027.35	11168
831.1588	704.2061	12026.4	11162.45
831.3037	706.3028	12004.25	11139.65
831.4486	708.3987	11997.35	11133.05
831.5935	710.4941	11971.9	11107
831.7383	712.5887	11980.75	11116.7
831.8832	714.6827	11990.1	11123
832.0281	716.7761	11977.2	11114.4
832.173	718.8688	11935.7	11072.25
832.3179	720.9608	11945	11075
832.4628	723.0522	11925.6	11056.4
832.6077	725.1429	11926.15	11060.25
832.7527	727.233	11931.25	11063.5
832.8976	729.3224	11957.5	11091.75
833.0425	731.4112	11934.15	11068.1
833.1874	733.4993	11912.05	11045.25
833.3324	735.5867	11836.65	10969.5
833.4773	737.6735	11814.35	10942
833.6222	739.7596	11802.5	10934.55
833.7672	741.845	11786.1	10915.9
833.9122	743.9298	11765.7	10896.5
834.0571	746.014	11737.6	10868.1
834.2021	748.0974	11752.7	10880.05
834.347	750.1802	11721.15	10849.5
834.492	752.2624	11659.1	10788.7
834.637	754.3439	11605.65	10733.5
834.782	756.4247	11613.4	10732.4
834.9269	758.5048	11524.35	10653.3
835.0719	760.5843	11529.4	10657.7
835.2169	762.6631	11477.15	10601.7
835.3619	764.7413	11519.65	10646.3
835.5069	766.8188	11552.9	10679.5
835.6519	768.8956	11511.1	10638.85
835.7969	770.9718	11523.7	10651.85
835.9419	773.0473	11465.05	10593.2
836.0869	775.1221	11487.25	10613.5
836.232	777.1962	11439.65	10565.9
836.377	779.2697	11413.4	10540.7
836.522	781.3426	11434.8	10542.45
836.667	783.4147	11436.75	10564.5
836.8121	785.4862	11424.1	10551.6
836.9571	787.557	11372.1	10495.65
837.1021	789.6271	11268	10392.95
837.2472	791.6966	11232.5	10358.1
837.3922	793.7654	11170.05	10295.55
837.5373	795.8335	11167.85	10296.1
837.6823	797.901	11109.15	10234
837.8274	799.9678	11092.65	10214.1
837.9724	802.0339	11068.4	10193.4
838.1175	804.0993	11089.5	10204.55
838.2626	806.1641	11051.3	10175.8
838.4076	808.2282	10998.45	10123.05
838.5527	810.2916	10998.3	10116.1
838.6978	812.3544	10993.65	10120.7
838.8428	814.4164	10955.5	10079.05
838.9879	816.4778	10970.25	10091.85
839.133	818.5385	10934.8	10058.7
839.2781	820.5986	10953.25	10077.55
839.4232	822.658	10964.2	10085.8
839.5682	824.7166	10943.8	10069.4
839.7133	826.7747	10992.05	10117.1
839.8584	828.832	10972.85	10094.6
840.0035	830.8886	10950.8	10070.35
840.1486	832.9446	10979.3	10099.6
840.2937	834.9999	10940	10060.85
840.4388	837.0545	10903.85	10022.65
840.5839	839.1085	10854.8	9974.05
840.729	841.1618	10838.45	9955.5
840.8741	843.2143	10776.25	9897.45
841.0192	845.2662	10734.7	9856.3
841.1643	847.3175	10742.05	9862.25
841.3095	849.368	10700.05	9818.85
841.4546	851.4179	10673.35	9792.6
841.5997	853.467	10636.6	9756.4
841.7448	855.5155	10639.8	9756.9
841.8899	857.5633	10633.7	9751.55
842.0351	859.6105	10582.9	9703.5
842.1802	861.6569	10558.05	9677.85
842.3253	863.7027	10535.05	9652.1
842.4704	865.7478	10533.3	9648
842.6156	867.7922	10533.55	9652.15
842.7607	869.8359	10483.25	9602.45
842.9058	871.8789	10489.35	9609.35
843.0509	873.9212	10502.2	9587.65
843.1961	875.9629	10447.95	9564.05
843.3412	878.0039	10452.75	9570.45
843.4863	880.0441	10447.75	9564.4
843.6315	882.0837	10457.7	9576
843.7766	884.1226	10436	9550.4
843.9218	886.1609	10424.7	9542.9
844.0669	888.1984	10452.05	9569.1
844.212	890.2352	10470.3	9587.7
844.3572	892.2714	10437.25	9553.35
844.5023	894.3069	10438.55	9554.1
844.6475	896.3416	10390.85	9506.75
844.7926	898.3757	10386.85	9502.15
844.9377	900.4091	10359.35	9471.7
845.0829	902.4418	10356.8	9465.65
845.228	904.4739	10319.4	9430.4
845.3732	906.5052	10320.1	9434.8
845.5183	908.5358	10272.2	9386.85
845.6635	910.5658	10272.5	9386.05
845.8086	912.595	10230.45	9342.35
845.9538	914.6236	10188.3	9301.25
846.0989	916.6515	10189.65	9306.65
846.2441	918.6786	10138.65	9252.5
846.3892	920.7051	10150.1	9261.2
846.5344	922.7309	10127.15	9240
846.6795	924.756	10079.15	9192.65
846.8246	926.7804	10080.2	9192.45
846.9698	928.8041	10022.25	9132.95
847.1149	930.8272	10029.1	9142.55
847.2601	932.8495	9990.1	9102.05
847.4052	934.8711	10010.8	9124.55
847.5504	936.892	9967.2	9080
847.6955	938.9123	9937.15	9047.4
847.8407	940.9318	9931.8	9042.4
847.9858	942.9506	9874.15	8985.85
848.131	944.9688	9878.2	8990.05
848.2761	946.9862	9835.45	8949.9
848.4213	949.003	9809.05	8922.95
848.5664	951.019	9749.6	8860.05
848.7115	953.0344	9739.4	8850.2
848.8567	955.0491	9729.2	8839.9
849.0018	957.063	9722.1	8832.35
849.147	959.0763	9716.75	8831.45
849.2921	961.0888	9682.4	8793.1
849.4373	963.1007	9690.05	8804.5
849.5824	965.1119	9654.45	8769.75
849.7275	967.1223	9631.4	8745.7
849.8727	969.1321	9608.8	8724.9
850.0178	971.1412	9604.4	8718.9
850.1629	973.1495	9587.8	8701.4
850.3081	975.1572	9581.95	8659.45
850.4532	977.1641	9586.5	8694
850.5983	979.1704	9558.8	8667.95
850.7435	981.1759	9536.9	8643.7
850.8886	983.1808	9510.95	8621.45
851.0337	985.1849	9475.45	8578
851.1788	987.1884	9469.45	8578.5
851.324	989.1911	9462.6	8568.85
851.4691	991.1932	9449.1	8557.8
851.6142	993.1945	9399.75	8509.65
851.7593	995.1951	9342.05	8449.35
851.9045	997.1951	9338.65	8443.75
852.0496	999.1943	9283.1	8395.15
852.1947	1001.1928	9260.05	8371.3
852.3398	1003.1906	9211.2	8321.05
852.4849	1005.1877	9237.15	8347.2
852.63	1007.1841	9204.65	8314.35
852.7751	1009.1798	9184.55	8296
852.9202	1011.1748	9160.05	8273.4
853.0653	1013.1691	9129.8	8240.35
853.2104	1015.1627	9095.3	8204.55
853.3555	1017.1556	9021.1	8130.55
853.5006	1019.1477	9019.7	8130.05
853.6457	1021.1392	8955.35	8067.85
853.7908	1023.1299	8919.5	8031.15
853.9359	1025.12	8890.75	8004.05
854.081	1027.1093	8852.5	7971.55
854.2261	1029.0979	8839.65	7958.4
854.3712	1031.0859	8826.65	7941.85
854.5163	1033.0731	8779.2	7891.05
854.6613	1035.0596	8774.05	7885.3
854.8064	1037.0454	8736.5	7845.5
854.9515	1039.0304	8707.2	7817.85
855.0965	1041.0148	8686.1	7796.95
855.2416	1042.9985	8641.65	7749.45
855.3867	1044.9814	8646.5	7755.05
855.5317	1046.9636	8602.65	7711
855.6768	1048.9452	8568.7	7681.2
855.8219	1050.926	8544.3	7655.2
855.9669	1052.9061	8531.05	7640.3
856.112	1054.8855	8530.75	7640.05
856.257	1056.8642	8509.1	7620.35
856.4021	1058.8421	8485.95	7593.1
856.5471	1060.8194	8466.35	7576.05
856.6921	1062.7959	8468.3	7576.65
856.8372	1064.7717	8437.75	7545.35
856.9822	1066.7469	8412	7516.9
857.1272	1068.7213	8413.75	7518.7
857.2723	1070.695	8402.4	7511.95
857.4173	1072.6679	8366.6	7475.5
857.5623	1074.6402	8404.45	7512.9
857.7073	1076.6117	8375.65	7479.05
857.8523	1078.5826	8355.8	7466.05
857.9973	1080.5527	8338.55	7445.3
858.1423	1082.5221	8284.7	7393.1
858.2873	1084.4908	8278.6	7385.95
858.4323	1086.4587	8228.55	7337.05
858.5773	1088.426	8226.65	7334.2
858.7223	1090.3925	8197.9	7300.6
858.8673	1092.3584	8189.55	7298.9
859.0123	1094.3235	8142.9	7254.3
859.1573	1096.2879	8141.75	7249.6
859.3022	1098.2515	8126.95	7232.9
859.4472	1100.2145	8148.6	7257
859.5922	1102.1767	8130.25	7236.85
859.7371	1104.1382	8110.15	7216.8
859.8821	1106.099	8122.2	7226.95
860.027	1108.0591	8121.3	7229.55
860.172	1110.0185	8119.55	7226.3
860.3169	1111.9771	8132	7238.45
860.4619	1113.9351	8119.45	7225.2
860.6068	1115.8923	8136.2	7242.25
860.7517	1117.8488	8126.4	7231.25
860.8967	1119.8045	8075.6	7183.9
861.0416	1121.7596	8041	7147.35
861.1865	1123.7139	7956.95	7066.6
861.3314	1125.6675	7930.9	7037.65
861.4763	1127.6204	7919.1	7026
861.6212	1129.5726	7898.2	7005
861.7661	1131.524	7896	7004.9
861.911	1133.4748	7858.45	6963
862.0559	1135.4248	7830.55	6937.55
862.2008	1137.3741	7807.05	6912
862.3457	1139.3226	7783.95	6887.9
862.4905	1141.2705	7772.5	6880.15
862.6354	1143.2176	7745	6843.45
862.7803	1145.164	7728.25	6831
862.9251	1147.1097	7712.15	6817.45
863.07	1149.0546	7694.6	6799.9
863.2148	1150.9989	7681.9	6786.1
863.3597	1152.9424	7668	6776.75
863.5045	1154.8852	7640.7	6746.2
863.6493	1156.8272	7620.35	6728.15
863.7942	1158.7686	7623.15	6721.9
863.939	1160.7092	7583.9	6688.15
864.0838	1162.6491	7576.65	6681.05
864.2286	1164.5883	7582.8	6689.9
864.3734	1166.5267	7570.4	6675.95
864.5182	1168.4644	7554.9	6660.8
864.663	1170.4014	7558.15	6659.65
864.8078	1172.3377	7571.6	6678.95
864.9526	1174.2732	7597.3	6702.65
865.0974	1176.2081	7618.25	6727.6
865.2421	1178.1421	7668.8	6771.25
865.3869	1180.0755	7680.75	6788.35
865.5317	1182.0082	7681.75	6788.2
865.6764	1183.9401	7649.9	6754.1
865.8212	1185.8713	7604.3	6714.55
865.9659	1187.8017	7526.55	6634.9
866.1106	1189.7315	7495.15	6609
866.2554	1191.6605	7414.1	6525.75
866.4001	1193.5888	7388.6	6498.9
866.5448	1195.5163	7371.15	6480.65
866.6895	1197.4432	7330.75	6437.2
866.8342	1199.3693	7315.55	6423.7
866.9789	1201.2947	7272.95	6372.35
867.1236	1203.2193	7230.25	6336.9
867.2683	1205.1432	7239.85	6345
867.413	1207.0664	7202.2	6309.5
867.5576	1208.9889	7201.15	6304.25
867.7023	1210.9106	7162.45	6268.15
867.847	1212.8316	7139.85	6247.2
867.9916	1214.7519	7137.55	6234.35
868.1363	1216.6715	7123.25	6229.85
868.2809	1218.5903	7102.6	6211.1
868.4255	1220.5084	7103.15	6210.8
868.5701	1222.4257	7108.5	6215.25
868.7148	1224.3424	7078.2	6186.9
868.8594	1226.2583	7071.15	6177.35
869.004	1228.1735	7062.75	6168.4
869.1486	1230.0879	7059.35	6164.1
869.2932	1232.0016	7047.1	6153.75
869.4377	1233.9146	7032.75	6139.85
869.5823	1235.8269	7023.7	6131.2
869.7269	1237.7384	7052.2	6159.65
869.8715	1239.6492	7009.45	6117.4
870.016	1241.5592	6998.5	6102.45
870.1606	1243.4686	7026.35	6133.15
870.3051	1245.3772	7028.25	6135.1
870.4496	1247.285	7051.6	6156.2
870.5941	1249.1922	7064.4	6170.95
870.7387	1251.0986	7115.7	6222.8
870.8832	1253.0042	7115	6222.45
871.0277	1254.9092	7134.75	6241.05
871.1722	1256.8134	7130	6237.5
871.3167	1258.7169	7165.4	6271.3
871.4611	1260.6196	7167.55	6273.85
871.6056	1262.5216	7168.05	6273
871.7501	1264.4229	7137.15	6246
871.8945	1266.3234	7123.7	6228.45
872.039	1268.2232	7089.7	6192.8
872.1834	1270.1223	7051.45	6155.2
872.3278	1272.0207	7033.2	6137.75
872.4723	1273.9183	7007.9	6107.85
872.6167	1275.8151	7007.2	6114.25
872.7611	1277.7113	7013.25	6119.3
872.9055	1279.6067	7031.45	6137.05
873.0499	1281.5014	7072.35	6177.95
873.1943	1283.3953	7141.8	6245.35
873.3386	1285.2885	7197.6	6303.85
873.483	1287.181	7263.5	6367.45
873.6274	1289.0727	7296.25	6402.8
873.7717	1290.9637	7267.6	6372.15
873.9161	1292.854	7221.85	6328.3
874.0604	1294.7435	7166.95	6271.6
874.2047	1296.6323	7113.45	6216.9
874.349	1298.5204	7057.85	6159.4
874.4933	1300.4077	7036.3	6140.4
874.6376	1302.2943	7002.4	6107.2
874.7819	1304.1802	6982.15	6091.2
874.9262	1306.0653	6946.85	6051.85
875.0705	1307.9497	6927.65	6033.1
875.2147	1309.8333	6908.2	6015.1
875.359	1311.7162	6882.6	5985.55
875.5032	1313.5984	6860.15	5963
875.6475	1315.4798	6833.4	5937.35
875.7917	1317.3605	6813.3	5903.45
875.9359	1319.2405	6811.6	5913.35
876.0801	1321.1197	6786.55	5888.8
876.2243	1322.9982	6771.45	5872.5
876.3685	1324.876	6750.35	5857.2
876.5127	1326.753	6683.05	5789.05
876.6569	1328.6293	6641.55	5746.3
876.801	1330.5048	6620.5	5723.35
876.9452	1332.3796	6552.05	5657.8
877.0893	1334.2537	6555.55	5635.2
877.2335	1336.127	6515.95	5622.1
877.3776	1337.9996	6489.4	5595.3
877.5217	1339.8714	6450.55	5557
877.6658	1341.7426	6476.5	5540.2
877.8099	1343.6129	6452.85	5555.4
877.954	1345.4826	6398.1	5502.85
878.0981	1347.3515	6399.7	5502.35
878.2422	1349.2196	6394.45	5498.1
878.3862	1351.087	6397.7	5504.7
878.5303	1352.9537	6372.6	5477.65
878.6743	1354.8197	6384.1	5490.4
878.8184	1356.6849	6374.75	5480.1
878.9624	1358.5493	6372.9	5475.4
879.1064	1360.4131	6363.25	5466.8
879.2504	1362.276	6381.3	5485.75
879.3944	1364.1383	6369.65	5476
879.5384	1365.9998	6363.9	5459.15
879.6823	1367.8606	6350.75	5455.3
879.8263	1369.7206	6328.1	5433
879.9702	1371.5799	6306	5409.25
880.1142	1373.4384	6286.45	5390.95
880.2581	1375.2962	6273.9	5377.05
880.402	1377.1533	6222.45	5328.2
880.5459	1379.0096	6183	5288.1
880.6898	1380.8652	6164.75	5272.95
880.8337	1382.7201	6128.55	5234.95
880.9776	1384.5742	6095.25	5201.9
881.1215	1386.4275	6062.85	5167.15
881.2653	1388.2802	6036.05	5141.4
881.4092	1390.132	6024.7	5129.5
881.553	1391.9832	6016.15	5120.6
881.6968	1393.8336	5967.8	5071.3
881.8406	1395.6832	5962.95	5064.9
881.9844	1397.5322	5946.45	5052.7
882.1282	1399.3803	5924.65	5027.25
882.272	1401.2278	5876.5	4982.5
882.4158	1403.0745	5854.6	4960.2
882.5595	1404.9204	5843.7	4948.85
882.7033	1406.7656	5839.1	4945.45
882.847	1408.6101	5814.05	4917.5
882.9908	1410.4538	5795.3	4899.25
883.1345	1412.2968	5776.75	4880.3
883.2782	1414.139	5758.9	4867.3
883.4219	1415.9805	5746.15	4849.65
883.5656	1417.8213	5738.6	4834.5
883.7092	1419.6613	5717	4823.3
883.8529	1421.5006	5729.6	4834.75
883.9965	1423.3391	5747.65	4851.75
884.1402	1425.1769	5751.05	4854.2
884.2838	1427.0139	5775.1	4879.15
884.4274	1428.8502	5802.05	4905.9
884.571	1430.6858	5791.35	4896.4
884.7146	1432.5206	5789.55	4894.55
884.8582	1434.3547	5783.5	4885.8
885.0018	1436.188	5772.75	4877.9
885.1453	1438.0206	5751.7	4857.55
885.2889	1439.8524	5756.55	4862.7
885.4324	1441.6835	5740.65	4845.75
885.5759	1443.5139	5708.85	4810.65
885.7194	1445.3435	5685.4	4789.4
885.8629	1447.1724	5705.6	4811.4
886.0064	1449.0005	5693.05	4799.55
886.1499	1450.8279	5686.95	4789.15
886.2933	1452.6545	5680.15	4785.15
886.4368	1454.4804	5675.7	4780.75
886.5802	1456.3056	5664.25	4765.05
886.7237	1458.13	5632.65	4738.95
886.8671	1459.9536	5615.95	4723.1
887.0105	1461.7766	5591.25	4697
887.1539	1463.5987	5563	4667.65
887.2972	1465.4202	5537.75	4642.6
887.4406	1467.2409	5501.8	4606.55
887.584	1469.0608	5485.4	4593.3
887.7273	1470.88	5497.3	4602.6
887.8706	1472.6984	5461.5	4566.45
888.0139	1474.5161	5428.2	4532
888.1572	1476.3331	5414.35	4518.5
888.3005	1478.1493	5398.7	4502.5
888.4438	1479.9648	5397.15	4502.3
888.5871	1481.7795	5385.5	4489.15
888.7303	1483.5935	5374.15	4477.7
888.8736	1485.4067	5332.75	4437.15
889.0168	1487.2192	5327.65	4431.85
889.16	1489.031	5354.15	4457.1
889.3032	1490.842	5319.45	4427.25
889.4464	1492.6522	5330.9	4436.95
889.5896	1494.4618	5310.15	4417.1
889.7327	1496.2705	5299.5	4404.6
889.8759	1498.0785	5307.45	4411.55
890.019	1499.8858	5269.6	4375.55
890.1622	1501.6924	5256.15	4363.65
890.3053	1503.4981	5255.8	4362.1
890.4484	1505.3032	5242.65	4347.75
890.5914	1507.1075	5226.5	4330.6
890.7345	1508.911	5208.2	4314.65
890.8776	1510.7138	5205.3	4310.5
891.0206	1512.5159	5181.8	4288.25
891.1637	1514.3172	5157.15	4264.75
891.3067	1516.1178	5153.85	4261.4
891.4497	1517.9176	5138.7	4243.55
891.5927	1519.7166	5127.55	4233.6
891.7357	1521.515	5107.6	4207.75
891.8786	1523.3126	5092.6	4200.2
892.0216	1525.1094	5072.95	4178
892.1645	1526.9055	5061.45	4169.05
892.3074	1528.7008	5043.1	4151.05
892.4503	1530.4954	5005.3	4109.75
892.5932	1532.2893	5013.65	4122.3
892.7361	1534.0824	4987.6	4091.75
892.879	1535.8747	4968.9	4077.45
893.0218	1537.6663	4938.9	4045.5
893.1647	1539.4572	4934.7	4039.95
893.3075	1541.2473	4923.2	4028.75
893.4503	1543.0367	4913.65	4022.25
893.5931	1544.8253	4894.3	3998.3
893.7359	1546.6132	4890.2	3994.95
893.8787	1548.4003	4868.75	3966.5
894.0214	1550.1867	4856.75	3957
894.1642	1551.9723	4856.3	3959.85
894.3069	1553.7572	4854.1	3961.1
894.4496	1555.5414	4848.15	3957.05
894.5923	1557.3247	4839.95	3947.4
894.735	1559.1074	4816.8	3927.8
894.8777	1560.8893	4833.95	3942.65
895.0204	1562.6705	4849.6	3956.8
895.163	1564.4509	4854.8	3964.75
895.3056	1566.2305	4835.4	3947.2
895.4482	1568.0094	4835.4	3947.85
895.5908	1569.7876	4808.6	3921.05
895.7334	1571.565	4782.1	3891.5
895.876	1573.3417	4794.85	3904.2
896.0186	1575.1176	4774.55	3885.05
896.1611	1576.8928	4785.4	3895.15
896.3036	1578.6672	4752.9	3867.4
896.4461	1580.4409	4754.95	3868.95
896.5886	1582.2138	4757.5	3869.2
896.7311	1583.986	4763.55	3873.9
896.8736	1585.7575	4759.55	3870.55
897.0161	1587.5282	4767.9	3881.9
897.1585	1589.2981	4770.35	3886
897.3009	1591.0673	4768.3	3879.1
897.4433	1592.8358	4764.2	3878.45
897.5857	1594.6035	4761.75	3871.65
897.7281	1596.3704	4722.1	3832.15
897.8705	1598.1366	4717.65	3829.15
898.0128	1599.9021	4679.4	3790.75
898.1551	1601.6668	4657.55	3767.15
898.2975	1603.4308	4650.15	3763
898.4398	1605.194	4642.6	3749.75
898.5821	1606.9564	4616	3729.35
898.7243	1608.7182	4625.35	3737.3
898.8666	1610.4791	4663.05	3779.1
899.0088	1612.2394	4686.7	3802.75
899.1511	1613.9988	4708.85	3823.5
899.2933	1615.7576	4749	3864.5
899.4355	1617.5156	4752.9	3861.45
899.5776	1619.2728	4735.75	3847.55
899.7198	1621.0293	4693.6	3806.8
899.862	1622.785	4635.05	3744.05
900.0041	1624.54	4546.4	3656.1
900.1462	1626.2942	4490.65	3603
900.2883	1628.0477	4438.25	3550.5
900.4304	1629.8005	4378.8	3485.6
900.5725	1631.5525	4350	3465.5
900.7145	1633.3037	4291.55	3406.75
900.8566	1635.0542	4276.3	3391.9
900.9986	1636.804	4239.5	3354.9
901.1406	1638.553	4293.9	3327
901.2826	1640.3013	4214.2	3327.25
901.4245	1642.0488	4188.35	3301.55
901.5665	1643.7955	4163.65	3276.1
901.7085	1645.5416	4137.65	3249.9
901.8504	1647.2868	4120.05	3233
901.9923	1649.0313	4111.7	3226.45
902.1342	1650.7751	4106.6	3215.5
902.2761	1652.5181	4096.65	3211.5
902.4179	1654.2604	4073.05	3188.5
902.5598	1656.0019	4054.9	3171.1
902.7016	1657.7427	4062.5	3178.2
902.8434	1659.4828	4072.3	3186.25
902.9852	1661.222	4063.95	3174.65
903.127	1662.9606	4066.8	3180.8
903.2687	1664.6984	4060.45	3172.7
903.4105	1666.4354	4085.3	3196.65
903.5522	1668.1717	4030.85	3142.7
903.6939	1669.9072	4012.05	3120.75
903.8356	1671.642	3996.95	3106
903.9773	1673.3761	3944.75	3058.05
904.119	1675.1094	3910.05	3024.25
904.2606	1676.8419	3900.8	3013.45
904.4022	1678.5737	3867	2980
904.5439	1680.3048	3859.4	2971.2
904.6855	1682.0351	3831.05	2942.95
904.827	1683.7646	3822.9	2930.4
904.9686	1685.4934	3822.1	2935.25
905.1101	1687.2215	3785.85	2899.15
905.2517	1688.9488	3775.95	2890.8
905.3932	1690.6754	3757.7	2871
905.5347	1692.4012	3749.6	2862.4
905.6761	1694.1263	3735.35	2848.5
905.8176	1695.8506	3720	2833.65
905.9591	1697.5742	3711.25	2824.25
906.1005	1699.297	3702.6	2817.95
906.2419	1701.0191	3690.95	2806.35
906.3833	1702.7404	3668	2781.2
906.5246	1704.461	3655.95	2768.9
906.666	1706.1808	3649.05	2760.75
906.8073	1707.8999	3650.6	2764.85
906.9487	1709.6182	3637.6	2750.6
907.09	1711.3358	3620.75	2736.7
907.2313	1713.0527	3608.3	2727.65
907.3725	1714.7688	3609	2720.75
907.5138	1716.4841	3572.3	2685.95
907.655	1718.1987	3584.25	2694.75
907.7962	1719.9126	3564.65	2681
907.9374	1721.6257	3550.8	2663.95
908.0786	1723.338	3564.35	2679.75
908.2198	1725.0496	3543.15	2657.25
908.3609	1726.7605	3552.35	2666.4
908.502	1728.4706	3534.6	2648.85
908.6431	1730.18	3517.25	2630.15
908.7842	1731.8886	3530.25	2645.55
908.9253	1733.5964	3511.9	2621.4
909.0664	1735.3036	3499.75	2613.6
909.2074	1737.0099	3506.25	2622.1
909.3484	1738.7156	3497.85	2612.85
909.4894	1740.4204	3488.6	2602.15
909.6304	1742.1246	3488.9	2602.45
909.7714	1743.8279	3474.75	2591.95
909.9123	1745.5306	3481.95	2596.05
910.0532	1747.2325	3472.45	2589.55
910.1941	1748.9336	3458.7	2574
910.335	1750.634	3450.25	2564.45
910.4759	1752.3336	3440.85	2555.8
910.6168	1754.0325	3441.05	2557.55
910.7576	1755.7307	3435.95	2551.45
910.8984	1757.4281	3445.8	2560.4
911.0392	1759.1247	3436.5	2540.4
911.18	1760.8206	3444.05	2553
911.3208	1762.5158	3438.4	2548.5
911.4615	1764.2102	3402.9	2518.85
911.6022	1765.9039	3393.55	2510.05
911.7429	1767.5968	3406.1	2521.5
911.8836	1769.289	3396.35	2512.3
912.0243	1770.9804	3400.45	2514.7
912.1649	1772.6711	3389.25	2501.05
912.3056	1774.361	3384.55	2498.65
912.4462	1776.0502	3380.85	2494.15
912.5868	1777.7386	3371.1	2483.1
912.7274	1779.4263	3365.35	2478.7
912.8679	1781.1132	3355.55	2472.8
913.0084	1782.7994	3341.9	2456.35
913.149	1784.4849	3339.65	2454.75
913.2895	1786.1696	3353.95	2454.15
913.4299	1787.8535	3335.2	2452.7
913.5704	1789.5367	3318.35	2434.15
913.7108	1791.2192	3309.2	2426.5
913.8513	1792.9009	3318.95	2402.6
913.9917	1794.5818	3305.45	2419
914.132	1796.2621	3298.2	2416.3
914.2724	1797.9415	3287.1	2399.35
914.4128	1799.6202	3286.85	2402.5
914.5531	1801.2982	3272.3	2387.6
914.6934	1802.9755	3275.25	2388.6
914.8337	1804.6519	3282.65	2396.6
914.9739	1806.3277	3264.3	2381.5
915.1142	1808.0027	3245.25	2363.8
915.2544	1809.6769	3232.65	2347.25
915.3946	1811.3504	3234.75	2353.35
915.5348	1813.0231	3226.3	2341.65
915.675	1814.6951	3236.75	2351.7
915.8151	1816.3664	3235.5	2349.6
915.9553	1818.0369	3229.45	2343.85
916.0954	1819.7067	3217.8	2331.05
916.2355	1821.3757	3217.9	2331.15
916.3755	1823.044	3194.75	2309.35
916.5156	1824.7115	3203.6	2318.45
916.6556	1826.3783	3182.9	2299.55
916.7956	1828.0443	3175.85	2292.8
916.9356	1829.7096	3172.8	2288.95
917.0756	1831.3741	3165.1	2276.05
917.2155	1833.0379	3163.9	2281.05
917.3555	1834.701	3166	2280
917.4954	1836.3633	3150.55	2267.1
917.6353	1838.0248	3147.3	2262.65
917.7751	1839.6856	3138.15	2254.3
917.915	1841.3457	3139.3	2253.45
918.0548	1843.005	3139.75	2254.35
918.1946	1844.6636	3143.7	2258.35
918.3344	1846.3214	3122.75	2237.7
918.4742	1847.9785	3124.3	2240.25
918.6139	1849.6349	3113.95	2227.55
918.7537	1851.2904	3117.1	2221.95
918.8934	1852.9453	3096.55	2210.25
919.0331	1854.5994	3097.3	2209.85
919.1727	1856.2528	3096.5	2204.85
919.3124	1857.9054	3077.45	2193.75
919.452	1859.5572	3086.15	2202.35
919.5916	1861.2083	3083.2	2196.25
919.7312	1862.8587	3083.3	2197.15
919.8708	1864.5084	3070.05	2183.45
920.0103	1866.1572	3057.45	2173.35
920.1498	1867.8054	3062.85	2175.6
920.2893	1869.4528	3047.75	2162.25
920.4288	1871.0994	3041.75	2155.85
920.5683	1872.7453	3049.6	2163.85
920.7077	1874.3905	3044.55	2151.25
920.8471	1876.0349	3031.75	2144.8
920.9865	1877.6786	3030.7	2145.4
921.1259	1879.3215	3026.45	2142.5
921.2653	1880.9637	3018.95	2131.1
921.4046	1882.6051	3011	2126.05
921.5439	1884.2458	3013.55	2127.05
921.6832	1885.8858	3008.7	2125.1
921.8225	1887.525	3002.3	2118.15
921.9617	1889.1634	2979.05	2094.9
922.101	1890.8011	2989.45	2102.6
922.2402	1892.4381	2974.8	2089.15
922.3794	1894.0743	2972.55	2088.3
922.5185	1895.7098	2977.1	2094.85
922.6577	1897.3446	2970.8	2084.55
922.7968	1898.9786	2968.35	2078.8
922.9359	1900.6118	2947	2061.55
923.075	1902.2443	2938.5	2050.7
923.214	1903.8761	2933.7	2050.6
923.3531	1905.5071	2931.7	2046.7
923.4921	1907.1374	2922.1	2037.65
923.6311	1908.7669	2924.65	2039.85
923.77	1910.3957	2921.1	2036
923.909	1912.0237	2906.25	2022.15
924.0479	1913.651	2893.7	2007.1
924.1868	1915.2776	2902.45	2018.75
924.3257	1916.9034	2882.7	1999.4
924.4646	1918.5285	2881.2	1998.4
924.6034	1920.1528	2871.8	1987.1
924.7422	1921.7764	2874.2	1988.95
924.881	1923.3992	2853.4	1969.6
925.0198	1925.0213	2842.9	1958.3
925.1586	1926.6427	2845.25	1962.1
925.2973	1928.2633	3051.3	1928.8
925.436	1929.8832	2869.7	1983.3
925.5747	1931.5023	2837.05	1951.85
925.7134	1933.1207	2832.05	1944.95
925.852	1934.7383	2823.85	1939.45
925.9906	1936.3552	2804	1919.05
926.1292	1937.9714	2798.75	1915.6
926.2678	1939.5868	2802.2	1912.9
926.4064	1941.2015	2789.3	1904.4
926.5449	1942.8154	2794.9	1908.7
926.6834	1944.4286	2784.45	1899.25
926.8219	1946.041	2807	1899.15
926.9604	1947.6528	2782.65	1891.55
927.0988	1949.2637	2760.75	1875.2
927.2372	1950.8739	2766.3	1881.05
927.3756	1952.4834	2766.8	1883.6
927.514	1954.0921	2756.65	1870.6
927.6523	1955.7001	2745.1	1856.55
927.7907	1957.3074	2738.35	1857.15
927.929	1958.9139	2718.95	1834.95
928.0673	1960.5197	2728.25	1842.75
928.2055	1962.1247	2709.25	1826.15
928.3438	1963.729	2709.65	1828.8
928.482	1965.3325	2727.45	1823.25
928.6202	1966.9353	2700.9	1819.75
928.7584	1968.5374	2701.35	1816.75
928.8965	1970.1387	2687.45	1804.7
929.0346	1971.7393	2680.8	1797.5
929.1727	1973.3392	2692.2	1808.75
929.3108	1974.9383	2674.25	1791.6
929.4489	1976.5366	2661.2	1779.15
929.5869	1978.1342	2662.4	1776.6
929.7249	1979.7311	2659.6	1776.1
929.8629	1981.3273	2660.85	1778.65
930.0009	1982.9227	2655	1771
930.1388	1984.5173	2643.15	1759.5
930.2767	1986.1112	2640.55	1760
930.4146	1987.7044	2635	1753.65
930.5525	1989.2968	2638.8	1754.5
930.6904	1990.8885	2639.2	1755
930.8282	1992.4795	2630.7	1748.35
930.966	1994.0697	2622.1	1741.5
931.1038	1995.6592	2607.35	1725
931.2415	1997.2479	2613.95	1731.6
931.3793	1998.8359	2612.15	1730.3
931.517	2000.4232	2590.2	1710.7
931.6547	2002.0097	2594.35	1713.85
931.7923	2003.5955	2592.95	1710.6
931.93	2005.1805	2595.8	1711.8
932.0676	2006.7648	2595.2	1713.65
932.2052	2008.3484	2583.2	1699.9
932.3427	2009.9312	2575.25	1693.1
932.4803	2011.5133	2569.55	1690.35
932.6178	2013.0946	2558.95	1677.5
932.7553	2014.6752	2548.35	1668.45
932.8928	2016.2551	2553.45	1670.9
933.0302	2017.8342	2560.5	1679.35
933.1676	2019.4126	2560.6	1681.55
933.305	2020.9902	2556.3	1675.85
933.4424	2022.5672	2543.6	1662.85
933.5798	2024.1433	2548.3	1661.7
933.7171	2025.7188	2530.45	1650.95
933.8544	2027.2935	2529.1	1644.95
933.9917	2028.8674	2521.75	1640.45
934.129	2030.4406	2508.55	1630.95
934.2662	2032.0131	2521.1	1640.5
934.4034	2033.5849	2496.25	1611.95
934.5406	2035.1559	2513.05	1632.8
934.6778	2036.7261	2518.5	1637.6
934.8149	2038.2957	2511.35	1631.2
934.952	2039.8645	2501.4	1620.85
935.0891	2041.4325	2506.8	1623.05
935.2262	2042.9998	2493.25	1613.7
935.3632	2044.5664	2497.3	1613.7
935.5002	2046.1323	2495.3	1615.45
935.6372	2047.6974	2490.1	1609
935.7742	2049.2617	2482.15	1600.8
935.9111	2050.8254	2492.9	1609.05
936.048	2052.3883	2487.2	1603.8
936.1849	2053.9504	2476.7	1595.9
936.3218	2055.5118	2475.45	1593.1
936.4586	2057.0725	2473.45	1589.2
936.5955	2058.6325	2471.6	1590.65
936.7323	2060.1917	2468.95	1589
936.869	2061.7502	2468.25	1586.3
937.0058	2063.3079	2448.85	1568.75
937.1425	2064.8649	2455.3	1570
937.2792	2066.4212	2451.2	1569.45
937.4159	2067.9767	2448.3	1568.6
937.5525	2069.5315	2456.25	1576.4
937.6891	2071.0856	2439.6	1557.3
937.8257	2072.6389	2430.95	1547.85
937.9623	2074.1915	2428.7	1552.05
938.0989	2075.7433	2420.75	1538.2
938.2354	2077.2945	2416.8	1539.35
938.3719	2078.8448	2422.05	1541.2
938.5084	2080.3945	2421.45	1540.5
938.6448	2081.9434	2408.1	1526.8
938.7812	2083.4916	2403	1520.65
938.9176	2085.039	2411.45	1526.65
939.054	2086.5857	2413	1528.1
939.1903	2088.1317	2405.3	1522.85
939.3267	2089.677	2395.65	1512.2
939.463	2091.2215	2397.75	1515.1
939.5992	2092.7652	2410.65	1525.4
939.7355	2094.3083	2385.85	1501.6
939.8717	2095.8506	2374.6	1495
940.0079	2097.3921	2384.1	1503.25
940.1441	2098.933	2388.6	1507.75
940.2802	2100.4731	2380.9	1497.9
940.4163	2102.0124	2397.9	1496.7
940.5524	2103.5511	2367.05	1485.85
940.6885	2105.089	2373.8	1492.95
940.8245	2106.6261	2379.45	1496.45
940.9606	2108.1626	2375.65	1494.8
941.0965	2109.6983	2404	1494.45
941.2325	2111.2332	2380.1	1497.1
941.3684	2112.7675	2362.75	1480.3
941.5044	2114.301	2355.85	1473
941.6403	2115.8337	2365.5	1482.6
941.7761	2117.3657	2356.95	1475.9
941.912	2118.897	2359.65	1476.2
942.0478	2120.4276	2342.4	1454.45
942.1835	2121.9575	2347.95	1468.1
942.3193	2123.4866	2359.35	1463
942.455	2125.0149	2343.6	1458.15
942.5907	2126.5426	2325.45	1442.7
942.7264	2128.0695	2327.1	1441.85
942.8621	2129.5956	2324.45	1446.25
942.9977	2131.1211	2329.45	1445.2
943.1333	2132.6458	2326.85	1445.75
943.2689	2134.1698	2330.15	1448.6
943.4044	2135.693	2325.05	1441.85
943.54	2137.2155	2320.75	1437.65
943.6755	2138.7373	2316.7	1432.95
943.8109	2140.2584	2313.85	1433.75
943.9464	2141.7787	2312.95	1427.4
944.0818	2143.2983	2298	1416.65
944.2172	2144.8171	2293.95	1413.9
944.3526	2146.3353	2289.35	1405.95
944.4879	2147.8527	2294.6	1413.4
944.6232	2149.3693	2281.15	1399.65
944.7585	2150.8853	2285.55	1403
944.8938	2152.4005	2265.35	1384.7
945.029	2153.9149	2268.75	1387.3
945.1642	2155.4287	2274	1391.35
945.2994	2156.9417	2268.3	1384.35
945.4346	2158.454	2260.6	1376.45
945.5697	2159.9655	2256.55	1374.35
945.7048	2161.4764	2265.05	1382.45
945.8399	2162.9865	2254.5	1373
945.9749	2164.4958	2253.6	1371.15
946.1099	2166.0045	2255.3	1373.25
946.2449	2167.5124	2247.4	1367.4
946.3799	2169.0195	2244	1362.65
946.5148	2170.526	2244.65	1363.75
946.6498	2172.0317	2244.75	1363
946.7846	2173.5367	2234.2	1351.05
946.9195	2175.0409	2220.4	1340.15
947.0543	2176.5445	2219.9	1337.2
947.1891	2178.0473	2219.2	1338.6
947.3239	2179.5494	2221.15	1336.15
947.4587	2181.0507	2218.55	1337.2
947.5934	2182.5513	2217.6	1333.65
947.7281	2184.0512	2216.65	1334.55
947.8628	2185.5504	2205.25	1322.15
947.9974	2187.0488	2196.4	1315.05
948.132	2188.5465	2191.3	1309.55
948.2666	2190.0435	2192.65	1313.55
948.4012	2191.5397	2188.3	1304.75
948.5357	2193.0353	2189.2	1309.2
948.6702	2194.5301	2180.4	1295.7
948.8047	2196.0241	2176.45	1292.95
948.9392	2197.5175	2164.8	1281.9
949.0736	2199.0101	2176.25	1291.7
949.208	2200.502	2157.8	1276.15
949.3424	2201.9931	2158.2	1276.15
949.4767	2203.4835	2146.75	1264.2
949.611	2204.9733	2157.65	1270.3
949.7453	2206.4622	2153.75	1273.2
949.8796	2207.9505	2139.2	1258.05
950.0138	2209.438	2135.15	1256.1
950.148	2210.9248	2134.2	1250.75
950.2822	2212.4109	2143.45	1260.75
950.4164	2213.8962	2131.25	1246.75
950.5505	2215.3809	2123.5	1239.4
950.6846	2216.8648	2118.55	1234.6
950.8186	2218.3479	2126.5	1238.3
950.9527	2219.8304	2120.15	1233.3
951.0867	2221.3121	2115.15	1230.1
951.2207	2222.7931	2107.9	1225.45
951.3546	2224.2733	2096.95	1215.45
951.4886	2225.7529	2088.15	1204.2
951.6225	2227.2317	2101.05	1216.45
951.7563	2228.7098	2088.5	1208
951.8902	2230.1872	2084.3	1201.95
952.024	2231.6638	2088.9	1208.5
952.1578	2233.1397	2084.9	1198.65
952.2916	2234.6149	2079.4	1201.3
952.4253	2236.0894	2077.75	1196.4
952.559	2237.5632	2079.45	1189.2
952.6927	2239.0362	2069.75	1190.5
952.8263	2240.5085	2056.9	1173.7
952.9599	2241.9801	2062.55	1181.1
953.0935	2243.4509	2054.25	1172.65
953.2271	2244.921	2048.1	1166.45
953.3606	2246.3904	2053.1	1170.35
953.4941	2247.8591	2040.5	1157.6
953.6276	2249.3271	2041.85	1160.2
953.7611	2250.7943	2038.2	1156.05
953.8945	2252.2608	2026.3	1144.3
954.0279	2253.7266	2024.7	1142.05
954.1612	2255.1917	2020.65	1139.05
954.2946	2256.656	2027.25	1145.85
954.4279	2258.1197	2012.75	1132.85
954.5612	2259.5826	2014.85	1131.05
954.6944	2261.0447	2010.9	1128.45
954.8276	2262.5062	2010.65	1127.3
954.9608	2263.9669	2008.35	1125.3
955.094	2265.4269	2004.95	1125.25
955.2271	2266.8862	1999.55	1116.2
955.3602	2268.3448	2000.05	1119.7
955.4933	2269.8026	1990.1	1108.45
955.6264	2271.2598	1992	1111.15
955.7594	2272.7162	1987.5	1106.1
955.8924	2274.1719	1988.35	1104
956.0253	2275.6268	1987.45	1106.85
956.1583	2277.0811	1984.6	1101.6
956.2912	2278.5346	1982.45	1101.95
956.4241	2279.9874	1979.1	1097.65
956.5569	2281.4395	1976.95	1095.7
956.6897	2282.8908	1975.95	1091.1
956.8225	2284.3414	1973.65	1092.1
956.9553	2285.7914	1964	1084.55
957.088	2287.2406	1958.6	1074.3
957.2207	2288.689	1951.1	1069.3
957.3534	2290.1368	1954.6	1071.4
957.486	2291.5838	1955.2	1069.65
957.6186	2293.0302	1954.8	1070.15
957.7512	2294.4758	1935.7	1050.85
957.8838	2295.9206	1948.5	1063.7
958.0163	2297.3648	1936.9	1057.2
958.1488	2298.8082	1931.85	1049.85
958.2813	2300.251	1929.35	1045.35
958.4137	2301.693	1938	1052.2
958.5461	2303.1343	1926.95	1044.6
958.6785	2304.5748	1922.65	1042.3
958.8108	2306.0147	1913.8	1032.85
958.9432	2307.4538	1913.3	1027.85
959.0754	2308.8922	1910.35	1030.9
959.2077	2310.3299	1905.7	1024.65
959.3399	2311.7669	1907.8	1025.95
959.4721	2313.2031	1896.65	1013.5
959.6043	2314.6387	1894.2	1012.9
959.7365	2316.0735	1887.75	1004.6
959.8686	2317.5076	1888.75	1004.9
960.0006	2318.941	1891	1007.3
960.1327	2320.3737	1887.65	1005.6
960.2647	2321.8056	1887.8	1002.3
960.3967	2323.2369	1875.4	993.9
960.5287	2324.6674	1880.3	996.6
960.6606	2326.0972	1884.7	1001
960.7925	2327.5263	1870.2	987.9
960.9244	2328.9547	1880.3	996.6
961.0562	2330.3823	1873.8	990.75
961.1881	2331.8092	1879.05	991.8
961.3198	2333.2355	1865.05	982
961.4516	2334.661	1856	972.9
961.5833	2336.0858	1857.95	972.7
961.715	2337.5098	1854.95	971.8
961.8467	2338.9332	1846.65	961.65
961.9783	2340.3558	1851.25	965.85
962.1099	2341.7778	1834.45	952.4
962.2415	2343.199	1837.1	951.25
962.373	2344.6195	1838.25	958
962.5045	2346.0393	1825.45	944.1
962.636	2347.4583	1829.6	944.7
962.7675	2348.8767	1827.05	944
962.8989	2350.2943	1825.05	940.4
963.0303	2351.7113	1819.9	935.7
963.1617	2353.1275	1820.1	935
963.293	2354.543	1817.65	925.8
963.4243	2355.9578	1811.8	929.95
963.5556	2357.3718	1802.65	918.85
963.6868	2358.7852	1803.35	917.5
963.818	2360.1978	1795.65	912.25
963.9492	2361.6098	1797.4	915.6
964.0803	2363.021	1791.15	904.85
964.2114	2364.4315	1792.05	907.9
964.3425	2365.8413	1779.85	894.5
964.4736	2367.2504	1779.85	897.8
964.6046	2368.6587	1774.85	891.05
964.7356	2370.0664	1775.05	893.95
964.8666	2371.4733	1771.7	887.1
964.9975	2372.8795	1764.9	881.75
965.1284	2374.285	1765.85	883.65
965.2593	2375.6899	1748.25	863.6
965.3901	2377.0939	1759.35	877.3
965.5209	2378.4973	1745.95	863.35
965.6517	2379.9	1751.35	867.7
965.7825	2381.3019	1739.65	856.3
965.9132	2382.7032	1734.35	851.25
966.0439	2384.1037	1736.7	856.85
966.1745	2385.5035	1739.4	855.9
966.3051	2386.9027	1725.65	844.5
966.4357	2388.3011	1735.2	849.3
966.5663	2389.6987	1724.35	841.75
966.6968	2391.0957	1714.6	832.95
966.8273	2392.492	1708.05	824.55
966.9578	2393.8876	1705.3	822.7
967.0882	2395.2824	1712.35	831.35
967.2186	2396.6765	1711.45	826.75
967.349	2398.07	1700.45	817.25
967.4793	2399.4627	1695.95	812
967.6097	2400.8547	1704.75	819.1
967.7399	2402.246	1702.7	812.55
967.8702	2403.6366	1687.1	802.3
968.0004	2405.0265	1679.7	797.35
968.1306	2406.4156	1683.3	797.3
968.2607	2407.8041	1683.45	796.9
968.3909	2409.1918	1676.3	790.7
968.521	2410.5789	1672.9	789.6
968.651	2411.9652	1666.25	778.2
968.781	2413.3508	1662.65	778.1
968.911	2414.7358	1660	773.4
969.041	2416.12	1660.35	776.2
969.1709	2417.5035	1654.3	771.25
969.3008	2418.8863	1647.8	763.75
969.4307	2420.2684	1655.3	772.2
969.5606	2421.6497	1649.25	763.4
969.6904	2423.0304	1636.5	753.35
969.8201	2424.4104	1631.65	744.25
969.9499	2425.7896	1639.6	754.25
970.0796	2427.1682	1636.9	752.95
970.2093	2428.546	1637.5	753.65
970.3389	2429.9232	1634.8	748.8
970.4685	2431.2996	1622.55	737.55
970.5981	2432.6753	1617.95	733.55
970.7277	2434.0503	1619.05	735.5
970.8572	2435.4246	1614.95	732.3
970.9867	2436.7982	1621.25	737.2
971.1161	2438.1711	1615.35	732.15
971.2456	2439.5433	1616.55	731.65
971.375	2440.9148	1610.9	721.55
971.5043	2442.2856	1608.4	726
971.6336	2443.6557	1606.9	720.8
971.7629	2445.025	1602.5	718.05
971.8922	2446.3937	1607.2	722.2
972.0214	2447.7617	1597.8	713.6
972.1506	2449.1289	1603.85	719.85
972.2798	2450.4955	1598.7	710.7
972.4089	2451.8613	1598.1	715.65
972.538	2453.2265	1590.6	705.95
972.6671	2454.5909	1594.3	710.15
972.7961	2455.9546	1582.6	699.05
972.9251	2457.3177	1583.25	701.3
973.0541	2458.68	1582.2	695.95
973.1831	2460.0416	1583.9	699.35
973.312	2461.4025	1584.2	698.05
973.4408	2462.7627	1584.75	691.55
973.5697	2464.1222	1574.65	692.7
973.6985	2465.4811	1575.6	691.3
973.8273	2466.8392	1564.75	681.05
973.956	2468.1966	1559.25	672.05
974.0847	2469.5533	1565.05	679.55
974.2134	2470.9093	1571.85	689.7
974.3421	2472.2645	1564.6	679.6
974.4707	2473.6191	1559.9	677.2
974.5993	2474.973	1563.35	680.25
974.7278	2476.3262	1552.05	665.45
974.8563	2477.6787	1553.9	671.55
974.9848	2479.0305	1550	666.3
975.1132	2480.3816	1544.2	657.75
975.2417	2481.7319	1551.65	667.2
975.37	2483.0816	1540.25	654.9
975.4984	2484.4306	1541.4	657.25
975.6267	2485.7789	1540	658.55
975.755	2487.1264	1537.35	652.45
975.8833	2488.4733	1524	644.3
976.0115	2489.8195	1532.3	642.45
976.1397	2491.165	1531.3	645.2
976.2678	2492.5097	1526.3	642.1
976.3959	2493.8538	1518.9	636.5
976.524	2495.1972	1522.4	638.75
976.6521	2496.5398	1510.05	623.7
976.7801	2497.8818	1517.25	631.25
976.9081	2499.2231	1517.95	635.55
977.036	2500.5637	1518.3	632.45
977.164	2501.9035	1503.75	618.65
977.2918	2503.2427	1511.15	621.3
977.4197	2504.5812	1500.35	616.1
977.5475	2505.919	1510.7	625.75
977.6753	2507.256	1503	619.75
977.8031	2508.5924	1502.45	619.55
977.9308	2509.9281	1502.55	613.65
978.0585	2511.2631	1494.3	612.9
978.1861	2512.5974	1491.1	606.2
978.3137	2513.9309	1492.95	609.35
978.4413	2515.2638	1519.05	605.6
978.5689	2516.596	1485.3	601.4
978.6964	2517.9275	1482.85	598.05
978.8239	2519.2583	1476.6	590.9
978.9513	2520.5884	1471.2	587.05
979.0788	2521.9178	1474.35	591.55
979.2062	2523.2465	1469.9	588.05
979.3335	2524.5745	1466.95	583.05
979.4608	2525.9018	1472.1	590.45
979.5881	2527.2284	1467.4	584.25
979.7154	2528.5543	1470.9	589.1
979.8426	2529.8796	1459.1	575.15
979.9698	2531.2041	1456.15	572.3
980.0969	2532.5279	1453.4	571.9
980.224	2533.851	1457.35	573.55
980.3511	2535.1735	1452.9	572.55
980.4781	2536.4952	1456	571.25
980.6052	2537.8163	1448.15	564.85
980.7321	2539.1366	1450.9	566.95
980.8591	2540.4562	1456.05	570.85
980.986	2541.7752	1441.2	558.4
981.1129	2543.0935	1451.1	565.3
981.2397	2544.411	1448.05	563.5
981.3665	2545.7279	1437	553.45
981.4933	2547.0441	1442.1	560.85
981.62	2548.3596	1440.15	554.25
981.7467	2549.6744	1440.35	556.8
981.8734	2550.9885	1438	546.45
982.0001	2552.3019	1431.35	548.65
982.1267	2553.6146	1432.1	547.2
982.2532	2554.9266	1434.15	550.25
982.3798	2556.2379	1432.95	548.15
982.5063	2557.5485	1426.35	545.75
982.6327	2558.8585	1433.7	543.1
982.7592	2560.1677	1425.4	539.8
982.8856	2561.4762	1422.75	540.1
983.0119	2562.7841	1419.3	533.55
983.1383	2564.0913	1421.75	539.55
983.2646	2565.3977	1418.9	537
983.3908	2566.7035	1415.7	531.65
983.517	2568.0086	1415.65	530.7
983.6432	2569.313	1417.65	533.75
983.7694	2570.6167	1414.6	526.45
983.8955	2571.9197	1409.45	523.85
984.0216	2573.222	1410.55	523.15
984.1476	2574.5236	1411.35	527.25
984.2737	2575.8246	1414.5	528.45
984.3996	2577.1248	1408.75	521.65
984.5256	2578.4244	1406.3	524.3
984.6515	2579.7232	1403.5	518.55
984.7774	2581.0214	1427.5	519
984.9032	2582.3189	1400.8	517.7
985.029	2583.6157	1401	514.25
985.1548	2584.9118	1402.35	518.7
985.2806	2586.2072	1388.35	503
985.4063	2587.5019	1398.9	514.6
985.5319	2588.7959	1388.9	504.65
985.6576	2590.0893	1389.7	502.9
985.7832	2591.3819	1390.1	507.4
985.9087	2592.6739	1381.8	499.8
986.0343	2593.9652	1382.75	494.8
986.1597	2595.2557	1384.85	501.6
986.2852	2596.5456	1381.75	496.85
986.4106	2597.8348	1372.55	488.05
986.536	2599.1234	1379.2	496.25
986.6614	2600.4112	1375.45	492.35
986.7867	2601.6983	1373	486.5
986.912	2602.9848	1372.5	488.8
987.0372	2604.2705	1372.15	482.7
987.1624	2605.5556	1363.8	482.25
987.2876	2606.84	1364.7	480.85
987.4128	2608.1237	1363.85	481.2
987.5379	2609.4067	1358.75	474.15
987.6629	2610.689	1361.7	470.25
987.788	2611.9707	1356.15	468.85
987.913	2613.2516	1349.65	460.75
988.0379	2614.5319	1348.55	465.7
988.1629	2615.8115	1345.75	462.35
988.2878	2617.0903	1338.6	454.85
988.4126	2618.3685	1342.55	460.2
988.5375	2619.6461	1339.7	458.2
988.6622	2620.9229	1346.75	465
988.787	2622.199	1333.7	449.85
988.9117	2623.4745	1333.25	448.85
989.0364	2624.7493	1336.8	454.25
989.161	2626.0234	1330.5	446.5
989.2857	2627.2968	1337.15	455
989.4102	2628.5695	1327.6	443.6
989.5348	2629.8415	1327.35	444.65
989.6593	2631.1128	1324.25	441.05
989.7837	2632.3835	1322.45	440.75
989.9082	2633.6535	1316.8	433.85
990.0326	2634.9228	1314.3	430.25
990.1569	2636.1914	1321.4	437.7
990.2812	2637.4593	1323.3	434.35
990.4055	2638.7265	1316	432.55
990.5298	2639.9931	1312.05	428.45
990.654	2641.259	1311.55	425.25
990.7782	2642.5242	1309.45	428.25
990.9023	2643.7887	1305.1	422.65
991.0264	2645.0525	1304.2	422.7
991.1505	2646.3156	1302.5	417.45
991.2745	2647.5781	1305.7	422.4
991.3985	2648.8398	1299.95	415.85
991.5225	2650.1009	1304.2	412.5
991.6464	2651.3613	1301.8	418.95
991.7703	2652.6211	1293.9	410.15
991.8942	2653.8801	1290.5	408.85
992.018	2655.1385	1291.65	405
992.1418	2656.3961	1287.9	404.15
992.2655	2657.6531	1290.65	409.9
992.3892	2658.9094	1290.3	407.2
992.5129	2660.1651	1290.95	409.95
992.6366	2661.42	1287.1	403.8
992.7602	2662.6743	1282.2	395.75
992.8837	2663.9279	1288.85	406.05
993.0073	2665.1808	1277.6	394.65
993.1307	2666.433	1283.55	400.3
993.2542	2667.6846	1287.9	405.9
993.3776	2668.9354	1282.55	394.9
993.501	2670.1856	1274	391.4
993.6244	2671.4351	1269.25	386.95
993.7477	2672.6839	1274.35	388.65
993.8709	2673.9321	1268.6	385.95
993.9942	2675.1795	1269.95	387.85
994.1174	2676.4263	1268.05	384.8
994.2405	2677.6724	1272.05	390.35
994.3637	2678.9179	1270	387.6
994.4868	2680.1626	1268.45	386.8
994.6098	2681.4067	1265.8	382.5
994.7328	2682.6501	1260.6	377.8
994.8558	2683.8928	1263.05	379.85
994.9788	2685.1348	1264.1	379.25
995.1017	2686.3761	1253.15	370.65
995.2245	2687.6168	1253.2	370.85
995.3474	2688.8568	1251.85	368.6
995.4702	2690.0961	1254.75	374.5
995.5929	2691.3348	1251.95	369.05
995.7156	2692.5727	1254.65	370.35
995.8383	2693.81	1250.65	368.15
995.961	2695.0466	1243.5	362
996.0836	2696.2826	1246.2	361.8
996.2062	2697.5178	1245.85	359.9
996.3287	2698.7524	1246.7	361.85
996.4512	2699.9863	1241.85	357.15
996.5737	2701.2195	1239.6	358.05
996.6961	2702.452	1244.45	359.55
996.8185	2703.6839	1236.35	352.4
996.9408	2704.9151	1237.6	357.7
997.0631	2706.1456	1240.9	356.6
997.1854	2707.3755	1234.6	351.8
997.3077	2708.6046	1235.15	348.5
997.4299	2709.8331	1234.75	350.45
997.552	2711.0609	1235.85	352.05
997.6742	2712.2881	1230.5	347.75
997.7963	2713.5145	1229.8	346.95
997.9183	2714.7403	1226.3	345.45
998.0403	2715.9654	1222.35	338.7
998.1623	2717.1899	1236.5	340.05
998.2842	2718.4136	1223.5	341
998.4062	2719.6367	1224.95	342.65
998.528	2720.8591	1223.95	334.15
998.6498	2722.0809	1222.7	338.25
998.7716	2723.3019	1223	336.55
998.8934	2724.5223	1213.2	328.75
999.0151	2725.7421	1217.45	334.8
999.1368	2726.9611	1219.55	337.7
999.2584	2728.1795	1220.6	334.4
999.38	2729.3972	1212.8	330.35
999.5016	2730.6142	1224.65	330.2
999.6231	2731.8306	1209.95	326.85
999.7446	2733.0462	1204.4	318.8
999.8661	2734.2612	1202.35	314.65
999.9875	2735.4756	1202.2	316.3
1000.1089	2736.6892	1200.55	317.35
1000.2302	2737.9022	1195.7	315.25
1000.3515	2739.1145	1195.5	312.75
1000.4728	2740.3262	1203.45	312.25
1000.594	2741.5372	1199.45	317.95
1000.7152	2742.7475	1186.55	302.1
1000.8363	2743.9571	1196.5	311.75
1000.9575	2745.1661	1196.45	309.05
1001.0785	2746.3744	1190.75	306.85
1001.1996	2747.582	1187.05	304.45
1001.3206	2748.7889	1186	301.95
1001.4415	2749.9952	1181.35	300.7
1001.5625	2751.2008	1184.25	302.45
1001.6833	2752.4057	1186.05	301.2
1001.8042	2753.61	1187.35	305.7
1001.925	2754.8136	1181.95	298.65
1002.0458	2756.0165	1178.85	296.2
1002.1665	2757.2188	1173.85	289.7
1002.2872	2758.4204	1181.35	298.25
1002.4078	2759.6213	1177.85	292.35
1002.5285	2760.8215	1179.3	292.1
1002.649	2762.0211	1173.05	290.4
1002.7696	2763.22	1175.15	290.3
1002.8901	2764.4182	1174	289.45
1003.0106	2765.6158	1167.1	285.55
1003.131	2766.8127	1168.7	287
1003.2514	2768.009	1167.75	283.75
1003.3717	2769.2045	1158.8	275.15
1003.492	2770.3994	1165.85	280.3
1003.6123	2771.5936	1159.1	276.95
1003.7325	2772.7872	1160.5	278.2
1003.8527	2773.9801	1161.85	278.8
1003.9729	2775.1723	1174.25	276.1
1004.093	2776.3639	1153.35	270.85
1004.2131	2777.5548	1158.15	272.9
1004.3331	2778.745	1158.1	273.8
1004.4531	2779.9346	1152.6	272.2
1004.5731	2781.1235	1156.2	273.5
1004.693	2782.3117	1153.9	272.45
1004.8129	2783.4992	1146.55	265.6
1004.9328	2784.6861	1152.45	269.95
1005.0526	2785.8723	1144.25	260.65
1005.1723	2787.0579	1151.3	268.8
1005.2921	2788.2428	1143	260.8
1005.4118	2789.427	1145.25	263.6
1005.5314	2790.6106	1142.15	261.4
1005.651	2791.7935	1140.1	258.6
1005.7706	2792.9757	1138	260.25
1005.8902	2794.1573	1142.1	259.15
1006.0097	2795.3382	1137.9	255.8
1006.1291	2796.5184	1134.65	254.65
1006.2485	2797.698	1133.1	247.9
1006.3679	2798.8769	1136.2	254.4
1006.4873	2800.0551	1131.9	248.55
1006.6066	2801.2327	1135	250.15
1006.7258	2802.4096	1133.95	252.3
1006.8451	2803.5859	1133	251.6
1006.9642	2804.7615	1134.05	251.8
1007.0834	2805.9364	1126.15	247.25
1007.2025	2807.1106	1130.05	248.4
1007.3216	2808.2842	1129.8	247.7
1007.4406	2809.4572	1126.35	245.7
1007.5596	2810.6294	1129.15	245.65
1007.6785	2811.801	1128.7	247.65
1007.7975	2812.972	1132.1	252.95
1007.9163	2814.1423	1129.2	247.55
1008.0352	2815.3119	1130	249.25
1008.154	2816.4808	1127.55	248.65
1008.2727	2817.6491	1136.2	253.8
1008.3914	2818.8167	1131.8	251.65
1008.5101	2819.9837	1135.35	249.5
1008.6288	2821.15	1131.6	248.3
1008.7474	2822.3157	1131.4	251
1008.8659	2823.4807	1136.45	254.45
1008.9844	2824.645	1142.2	261.95
1009.1029	2825.8086	1141.15	261.2
1009.2214	2826.9716	1145.9	263.5
1009.3398	2828.134	1152.2	272.1
1009.4581	2829.2957	1157.15	276.3
1009.5764	2830.4567	1153.9	272.55
1009.6947	2831.617	1154.6	272.95
1009.813	2832.7767	1148.95	268.6
1009.9312	2833.9358	1157.75	277
1010.0493	2835.0941	1156.75	272.9
1010.1675	2836.2519	1152.75	270
1010.2855	2837.4089	1149.95	269.2
1010.4036	2838.5653	1147.25	264.55
1010.5216	2839.7211	1141.1	262.05
1010.6396	2840.8761	1144.8	262.25
1010.7575	2842.0306	1140.95	260.05
1010.8754	2843.1843	1138.8	258
1010.9932	2844.3374	1140	259.55
1011.111	2845.4899	1140.4	256.85
1011.2288	2846.6417	1141.65	260.55
1011.3465	2847.7928	1141.65	259.8
1011.4642	2848.9433	1144.8	262.6
1011.5818	2850.0931	1139.05	258.6
1011.6995	2851.2422	1145.25	259.9
1011.817	2852.3907	1143.35	260.95
1011.9345	2853.5385	1146.15	263.25
1012.052	2854.6857	1153.55	263.8
1012.1695	2855.8323	1143.15	264.75
1012.2869	2856.9781	1145	265.5
1012.4042	2858.1233	1144.35	261.9
1012.5216	2859.2679	1144.75	263.95
1012.6389	2860.4118	1146.95	263.15
1012.7561	2861.555	1146.55	260.55
1012.8733	2862.6976	1150.85	267.5
1012.9905	2863.8395	1153.35	273.35
1013.1076	2864.9808	1150.5	269.65
1013.2247	2866.1214	1149.65	269.75
1013.3417	2867.2614	1147.85	266.2
1013.4587	2868.4007	1152.85	270.45
1013.5757	2869.5393	1147.2	262.85
1013.6926	2870.6773	1152.8	268.15
1013.8095	2871.8146	1148.05	263.25
1013.9263	2872.9513	1149.2	267
1014.0431	2874.0874	1145.15	262.65
1014.1599	2875.2227	1152.2	270.2
1014.2766	2876.3574	1143.9	262.3
1014.3933	2877.4915	1146.1	263.1
1014.51	2878.6249	1145.7	265.6
1014.6266	2879.7577	1145.7	264.35
1014.7431	2880.8898	1162.25	270.55
1014.8596	2882.0212	1145.25	265.9
1014.9761	2883.152	1152.15	269.2
1015.0925	2884.2821	1145.05	266.8
1015.2089	2885.4116	1145.95	266.5
1015.3253	2886.5405	1149.1	269.75
1015.4416	2887.6686	1153.9	269.35
1015.5579	2888.7962	1144.65	265.5
1015.6741	2889.923	1142.55	261.85
1015.7903	2891.0493	1147.2	269
1015.9065	2892.1748	1150.9	268.3
1016.0226	2893.2997	1143.7	261.1
1016.1387	2894.424	1143.15	263.3
1016.2547	2895.5476	1138.8	255.5
1016.3707	2896.6706	1144.05	264.2
1016.4866	2897.7929	1140.65	258.75
1016.6025	2898.9145	1138.7	257.35
1016.7184	2900.0355	1136.3	254
1016.8342	2901.1559	1139.85	257.4
1016.95	2902.2756	1136.65	256.15
1017.0658	2903.3946	1135.1	256.05
1017.1815	2904.513	1139.05	255.15
1017.2971	2905.6308	1137.3	256.45
1017.4127	2906.7479	1130.85	249.7
1017.5283	2907.8643	1137.1	256.25
1017.6439	2908.9801	1135.9	255
1017.7594	2910.0953	1132	251.5
1017.8748	2911.2098	1137.45	252.95
1017.9902	2912.3236	1136.6	248
1018.1056	2913.4368	1132.05	249.5
1018.2209	2914.5494	1128.75	247.75
1018.3362	2915.6613	1127.6	238
1018.4515	2916.7725	1124.25	239.65
1018.5667	2917.8831	1123.35	241.15
1018.6819	2918.9931	1123.1	239.15
1018.797	2920.1024	1122.05	241.8
1018.9121	2921.211	1117.3	235.65
1019.0271	2922.319	1119.6	239.6
1019.1421	2923.4264	1111.95	231.85
1019.2571	2924.5331	1112.6	233.85
1019.372	2925.6391	1110.2	228.1
1019.4869	2926.7445	1109.15	230.55
1019.6017	2927.8493	1115.65	233.15
1019.7165	2928.9534	1110.35	230.05
1019.8313	2930.0569	1113.25	228.2
1019.946	2931.1597	1112.05	231.3
1020.0606	2932.2619	1113.85	234.35
1020.1753	2933.3634	1115.5	235.95
1020.2899	2934.4643	1118.2	228
1020.4044	2935.5645	1116.05	229.6
1020.5189	2936.6641	1113.2	228.45
1020.6334	2937.763	1115.25	235.85
1020.7478	2938.8613	1110.6	228.85
1020.8622	2939.959	1113.6	227.2
1020.9765	2941.056	1102.55	222.8
1021.0908	2942.1523	1104.65	222.45
1021.2051	2943.248	1096.95	215
1021.3193	2944.3431	1093.55	214.05
1021.4334	2945.4375	1089.25	206.95
1021.5476	2946.5313	1083	204.85
1021.6617	2947.6244	1083.15	202.15
1021.7757	2948.7169	1075.9	196.4
1021.8897	2949.8087	1071.8	189.7
1022.0037	2950.8999	1064.1	184.6
1022.1176	2951.9904	1062.45	182.4
1022.2315	2953.0803	1062.15	180.9
1022.3453	2954.1696	1059.2	179
1022.4591	2955.2582	1052.25	171.95
1022.5728	2956.3462	1054.4	173.85
1022.6865	2957.4335	1050.75	169.6
1022.8002	2958.5202	1052.15	169.45
1022.9138	2959.6062	1052.85	173.75
1023.0274	2960.6916	1051.5	171.65
1023.141	2961.7764	1049.6	167.9
1023.2545	2962.8605	1053.8	173.2
1023.3679	2963.9439	1047.25	165.6
1023.4813	2965.0267	1047.95	167.2
1023.5947	2966.1089	1064.55	160.05
1023.708	2967.1905	1046.05	166.35
1023.8213	2968.2714	1039.95	161.2
1023.9346	2969.3516	1043.15	163.15
1024.0478	2970.4312	1049.9	159.95
1024.1609	2971.5102	1041.5	161.7
1024.274	2972.5885	1041.7	162.85
1024.3871	2973.6662	1046.2	158.9
1024.5002	2974.7432	1035.7	156.35
1024.6132	2975.8196	1043.05	160.6
1024.7261	2976.8954	1035.15	156.1
1024.839	2977.9705	1037.95	159.7
1024.9519	2979.045	1037.3	157.9
1025.0647	2980.1188	1037.65	157.75
1025.1775	2981.192	1032.5	154.4
1025.2902	2982.2645	1035.55	153.25
1025.4029	2983.3364	1033.3	152.05
1025.5156	2984.4077	1031.65	149.3
1025.6282	2985.4783	1035	147.3
1025.7407	2986.5483	1029.5	149.3
1025.8532	2987.6177	1024.2	144.65
1025.9657	2988.6864	1029.45	149.05
1026.0782	2989.7545	1023.65	142.4
1026.1906	2990.8219	1020.7	141.3
1026.3029	2991.8887	1022.25	140.15
1026.4152	2992.9548	1022.05	140.7
1026.5275	2994.0204	1018.55	138.8
1026.6397	2995.0852	1015.65	135.35
1026.7519	2996.1495	1016	135.5
1026.864	2997.2131	1013.9	132.8
1026.9761	2998.276	1010.35	131.85
1027.0882	2999.3383	1009.25	129.4
1027.2002	3000.4	1005.15	123.35
1027.3122	3001.4611	1008.4	129.45
1027.4241	3002.5215	1007.3	126.5
1027.536	3003.5812	1003.55	124.7
1027.6478	3004.6404	1002.7	123.6
1027.7596	3005.6989	1003.7	119.25
1027.8714	3006.7567	1001.2	120.2
1027.9831	3007.8139	1022.1	117.4
1028.0947	3008.8705	998.9	118.8
1028.2064	3009.9264	1005.1	120.4
1028.3179	3010.9818	1001.6	121.6
1028.4295	3012.0364	997.3	119.6
1028.541	3013.0905	994.45	113.6
1028.6524	3014.1439	998	117.5
1028.7638	3015.1966	992.6	113.05
1028.8752	3016.2487	993	113.15
1028.9865	3017.3002	1002.15	115.45
1029.0978	3018.3511	992.1	113.2
1029.209	3019.4013	992.45	112.25
1029.3202	3020.4509	991.65	111.8
1029.4314	3021.4998	994.45	114.6
1029.5425	3022.5481	995.15	116.6
1029.6535	3023.5958	989.6	109.4
1029.7645	3024.6428	991.6	111.6
1029.8755	3025.6892	993.7	114.55
1029.9864	3026.735	988.7	106.25
1030.0973	3027.7802	986.55	106.3
1030.2082	3028.8247	986.25	106.1
1030.319	3029.8685	989.05	109.75
1030.4297	3030.9118	986.95	106.45
1030.5404	3031.9544	985.5	107.7
1030.6511	3032.9963	986.75	107.1
1030.7617	3034.0376	986.15	106.7
1030.8723	3035.0783	984.55	102.45
1030.9829	3036.1184	985.05	103.15
1031.0934	3037.1578	985.45	104.3
1031.2038	3038.1966	985.05	104.15
1031.3142	3039.2348	986.45	107.25
1031.4246	3040.2723	990.2	99.35
1031.5349	3041.3092	979.65	100.6
1031.6452	3042.3455	983.95	102.45
1031.7554	3043.3811	984.6	104.05
1031.8656	3044.4161	983.55	102.1
1031.9758	3045.4505	981.85	102.6
1032.0859	3046.4842	981.3	101.75
1032.1959	3047.5173	979.05	100.2
1032.3059	3048.5498	980	100.4
1032.4159	3049.5816	977.75	99.2
1032.5258	3050.6128	981.65	100.7
1032.6357	3051.6434	979.65	98.3
1032.7455	3052.6734	978.2	95
1032.8553	3053.7027	980.15	102.2
1032.9651	3054.7314	979.45	99.45
1033.0748	3055.7594	978.25	98.6
1033.1845	3056.7868	976.5	95.65
1033.2941	3057.8136	979.1	99.65
1033.4037	3058.8398	976.65	99.15
1033.5132	3059.8653	976.55	98.55
1033.6227	3060.8902	977.1	98.5
1033.7321	3061.9145	974.7	94.25
1033.8415	3062.9381	974.85	94.25
1033.9509	3063.9612	988	92.55
1034.0602	3064.9835	972.6	92.15
1034.1694	3066.0053	977.25	92.85
1034.2787	3067.0264	973.85	95.45
1034.3878	3068.0469	979.7	96.55
1034.497	3069.0668	980.05	99.45
1034.6061	3070.086	972.25	92.7
1034.7151	3071.1046	973.35	92.5
1034.8241	3072.1226	975.55	95.3
1034.9331	3073.1399	974.15	97.15
1035.042	3074.1567	969.35	89.85
1035.1508	3075.1727	975.1	95.3
1035.2597	3076.1882	972.1	91.25
1035.3684	3077.203	969.25	89.5
1035.4772	3078.2173	971.4	88.3
1035.5859	3079.2308	972.4	90
1035.6945	3080.2438	972.85	90.35
1035.8031	3081.2561	968.8	87.9
1035.9117	3082.2678	965.05	86.55
1036.0202	3083.2789	963.25	82.45
1036.1286	3084.2893	966.4	86
1036.2371	3085.2991	967.35	86.45
1036.3454	3086.3083	965.7	81.55
1036.4538	3087.3169	965.2	84.45
1036.562	3088.3248	961.55	80.6
1036.6703	3089.3321	966.1	84.7
1036.7785	3090.3388	961.25	82.5
1036.8866	3091.3449	961.95	80.1
1036.9948	3092.3503	963.1	80.95
1037.1028	3093.3551	961.05	83.75
1037.2108	3094.3593	958.3	79.5
1037.3188	3095.3629	959.5	79.85
1037.4267	3096.3658	962.25	82.1
1037.5346	3097.3681	958.9	79.65
1037.6425	3098.3698	960.55	77.65
1037.7503	3099.3708	963.25	76.6
1037.858	3100.3713	956.65	76.8
1037.9657	3101.3711	960.1	80.3
1038.0734	3102.3702	1094.75	79.5
1038.181	3103.3688	959.95	80.25
1038.2886	3104.3667	955.6	78.65
1038.3961	3105.364	954.35	76.25
1038.5036	3106.3607	956.5	75.3
1038.611	3107.3568	956.75	76.25
1038.7184	3108.3522	954.4	76.7
1038.8257	3109.347	957.25	77.35
1038.933	3110.3412	957.05	71.15
1039.0403	3111.3348	955.4	77.4
1039.1475	3112.3277	951.15	70.3
1039.2547	3113.32	950.25	72.4
1039.3618	3114.3117	948.6	68.5
1039.4689	3115.3028	947.9	68.45
1039.5759	3116.2932	955.35	73.85
1039.6829	3117.2831	956.8	69.7
1039.7898	3118.2723	951.05	71.8
1039.8967	3119.2608	952.25	73.15
1040.0035	3120.2488	949.3	70.9
1040.1103	3121.2361	946.5	66.6
1040.2171	3122.2229	947.2	67.4
1040.3238	3123.209	947.15	66.15
1040.4305	3124.1944	948.9	69.05
1040.5371	3125.1793	949.45	69.55
1040.6437	3126.1635	949.85	71.05
1040.7502	3127.1471	948.25	69.15
1040.8567	3128.1301	944.9	67.6
1040.9631	3129.1125	944.6	65.05
1041.0695	3130.0942	944.6	67.1
1041.1759	3131.0753	953.75	67.4
1041.2822	3132.0558	947.75	65.05
1041.3884	3133.0357	942.85	63.95
1041.4946	3134.015	945.2	64.6
1041.6008	3134.9936	945.55	66.15
1041.7069	3135.9716	966.2	66.25
1041.813	3136.949	941.3	61.35
1041.919	3137.9258	945.3	59.55
1042.025	3138.902	951.75	66.95
1042.1309	3139.8775	940.25	62.1
1042.2368	3140.8524	944.45	65.05
1042.3427	3141.8267	946.8	64.35
1042.4485	3142.8004	943	63.55
1042.5542	3143.7735	946.45	59.6
1042.6599	3144.7459	945.2	63.4
1042.7656	3145.7178	939.9	58.55
1042.8712	3146.689	940.2	62.5
1042.9768	3147.6596	941.45	57.5
1043.0823	3148.6295	940	60.55
1043.1878	3149.5989	939.65	60.9
1043.2932	3150.5676	939.45	63.9
1043.3986	3151.5357	939.35	60.55
1043.5039	3152.5032	936.2	58.9
1043.6092	3153.4701	937.75	58.95
1043.7145	3154.4364	940.45	57.75
1043.8197	3155.402	933.9	56.2
1043.9248	3156.367	936.55	55.15
1044.03	3157.3315	975.7	57.3
1044.135	3158.2952	937	58.2
1044.24	3159.2584	934.65	54.15
1044.345	3160.221	934	52.85
1044.4499	3161.1829	935.9	57
1044.5548	3162.1442	935.9	57
1044.6596	3163.105	937	57.1
1044.7644	3164.065	935.95	55.8
1044.8692	3165.0245	937.45	55.5
1044.9739	3165.9834	934.8	57.65
1045.0785	3166.9416	931.8	53.95
1045.1831	3167.8993	931.1	52.2
1045.2877	3168.8563	933.25	52.9
1045.3922	3169.8127	931.6	51.3
1045.4966	3170.7684	929.6	49.7
1045.6011	3171.7236	934	51.95
1045.7054	3172.6782	933.15	54.55
1045.8098	3173.6321	934.5	54.4
1045.914	3174.5854	933.25	49.4
1046.0183	3175.5381	931.45	53.4
1046.1224	3176.4902	933.6	53.25
1046.2266	3177.4417	929.5	52.15
1046.3307	3178.3926	928.45	48.85
1046.4347	3179.3428	929.05	49.4
1046.5387	3180.2924	927.3	48.55
1046.6427	3181.2415	929.9	50.55
1046.7466	3182.1899	932.1	50.6
1046.8504	3183.1377	931.85	54.4
1046.9542	3184.0848	930.05	46.55
1047.058	3185.0314	925.65	44.85
1047.1617	3185.9773	929.85	49.7
1047.2654	3186.9227	928	49
1047.369	3187.8674	925.65	45.7
1047.4726	3188.8115	929.05	45.8
1047.5761	3189.755	925.65	43.85
1047.6796	3190.6979	926.4	49.05
1047.783	3191.6402	926.05	46.55
1047.8864	3192.5818	927.8	47.45
1047.9898	3193.5229	941.25	43.75
1048.0931	3194.4633	928.15	48.85
1048.1963	3195.4031	927.6	47.8
1048.2995	3196.3423	921.1	41.2
1048.4027	3197.2809	924.2	44.2
1048.5058	3198.2189	926.35	45.9
1048.6089	3199.1563	942.9	46.35
1048.7119	3200.0931	926.75	48.25
1048.8148	3201.0292	923.75	45.4
1048.9178	3201.9648	924.6	44.65
1049.0206	3202.8997	927.05	43.9
1049.1235	3203.834	922.2	42.55
1049.2262	3204.7677	924.65	45.5
1049.329	3205.7008	923.9	42.15
1049.4317	3206.6333	923.3	44.65
1049.5343	3207.5652	924.6	45.45
1049.6369	3208.4964	924.8	44.2
1049.7394	3209.4271	922.85	42.25
1049.8419	3210.3571	920.35	41.85
1049.9444	3211.2865	923.3	43
1050.0468	3212.2154	923.55	42.6
1050.1491	3213.1436	924.3	40.55
1050.2514	3214.0712	927.85	41.45
1050.3537	3214.9982	922.25	43.25
1050.4559	3215.9246	923.9	43.25
1050.5581	3216.8503	917.6	38.3
1050.6602	3217.7755	919.3	38.25
1050.7623	3218.7001	920.65	41.15
1050.8643	3219.624	919.2	41.05
1050.9663	3220.5473	922.05	42.55
1051.0682	3221.4701	920.45	40.45
1051.1701	3222.3922	919.95	39.7
1051.2719	3223.3137	922.3	44.35
1051.3737	3224.2346	920.8	40.35
1051.4754	3225.1549	917.35	37.6
1051.5771	3226.0746	915.4	36.25
1051.6788	3226.9937	920.4	39.75
1051.7804	3227.9121	917.35	39.05
1051.8819	3228.83	918.3	38.3
1051.9834	3229.7473	917.25	39.55
1052.0849	3230.6639	919.25	41.05
1052.1863	3231.5799	916.55	37.65
1052.2876	3232.4954	918.75	39.35
1052.3889	3233.4102	914	35.95
1052.4902	3234.3244	917.05	37.75
1052.5914	3235.238	914.15	35.85
1052.6926	3236.151	938.8	36.95
1052.7937	3237.0634	915.6	36.5
1052.8948	3237.9752	914.55	33.85
1052.9958	3238.8864	915.8	35.7
1053.0968	3239.797	914.7	33.4
1053.1977	3240.7069	913.1	31.35
1053.2986	3241.6163	916.05	35.3
1053.3994	3242.5251	912.85	33.4
1053.5002	3243.4332	913.65	35.3
1053.6009	3244.3408	915.35	35.1
1053.7016	3245.2477	912.6	34.3
1053.8022	3246.154	915.8	35.4
1053.9028	3247.0598	913.9	34.25
1054.0034	3247.9649	911.8	31.4
1054.1039	3248.8694	916.45	38.25
1054.2043	3249.7733	911.4	31.85
1054.3047	3250.6766	913.65	36.25
1054.4051	3251.5793	913.4	32.55
1054.5054	3252.4814	909.4	31.5
1054.6056	3253.3829	911.9	33.75
1054.7058	3254.2838	909.75	29.55
1054.806	3255.1841	910.8	31.95
1054.9061	3256.0838	910.15	30.4
1055.0061	3256.9829	910.45	32
1055.1062	3257.8814	912.8	30.2
1055.2061	3258.7792	910.55	29.4
1055.306	3259.6765	911.2	29.3
1055.4059	3260.5731	908.35	28.7
1055.5057	3261.4692	911.4	32.45
1055.6055	3262.3647	907.65	29
1055.7052	3263.2595	907.6	27.4
1055.8049	3264.1538	906.5	28.2
1055.9045	3265.0474	909.8	30.1
1056.0041	3265.9404	907.85	28
1056.1036	3266.8329	908.45	29.5
1056.2031	3267.7247	915.85	25.45
1056.3025	3268.616	905.55	27.7
1056.4019	3269.5066	905.7	27.1
1056.5013	3270.3966	905.35	25.35
1056.6005	3271.286	903.7	27.05
