Software Version:	3.9.2.0
Unit SN:	10000200
Spectrometer SN:	6960
Date:	3/6/2024 10:56:37 AM
Data Line Index:	25
Spectral Points:	2048
Integration time (ms):	125
Averages:	20
Delay (ms):	30
Sequence Number:	1
Processing:	dark subtract
Laser Power (mW):	300
Laser Current (mA):	821
Laser Diode Temp (C):	25.1
Laser Case Temp (C):	27.9
System Temp (C):	27.8
Spectrometer Temp (C):	25.2
CCD Temp (C):	-0.002
Secondary Temp (C):	20.01
Heatsink Temp (C):	23.553
CCDPCB Temp (C):	37.107
SecondaryPCB Temp (C):	34.173

Wavelength	RamanShift	Raw Counts	Dark Subtracted
787.061	30.1047	1100.3	686.45
787.2016	32.3739	1132.8	720.8
787.3422	34.6426	1182.05	768.65
787.4828	36.9109	1227.6	813.55
787.6235	39.1787	1284.8	864.8
787.7642	41.4461	1340.2	917.45
787.9049	43.7131	1398.95	971.95
788.0456	45.9796	1460.15	1030.1
788.1863	48.2456	1532.9	1098.55
788.3271	50.5112	1595	1157.95
788.4679	52.7764	1670.2	1229.3
788.6087	55.0411	1741	1296.6
788.7496	57.3054	1823.85	1374
788.8904	59.5692	1912.45	1460.05
789.0313	61.8326	2003.9	1548.7
789.1722	64.0955	2119.55	1660
789.3132	66.3579	2236.75	1772
789.4541	68.6199	2381.4	1915.15
789.5951	70.8815	2622.1	2151.1
789.7361	73.1426	3114.9	2642.25
789.8771	75.4032	4361.6	3879.75
790.0181	77.6634	7530.5	7044.75
790.1592	79.9231	15665.65	15174.9
790.3003	82.1824	51041.95	50543.3
790.4414	84.4412	65535	65019.8
790.5825	86.6995	65535	64992.4
790.7237	88.9574	65535	64972.65
790.8648	91.2148	65535	64959
791.006	93.4717	65535	64945.9
791.1472	95.7282	65535	64938.8
791.2885	97.9842	65535	64938.35
791.4297	100.2398	65535	64933.3
791.571	102.4949	65535	64933.55
791.7123	104.7495	65535	64928.45
791.8536	107.0036	65535	64924.65
791.9949	109.2573	65535	64929.1
792.1363	111.5105	65535	64928.8
792.2777	113.7632	65535	64926.35
792.4191	116.0154	65535	64914.4
792.5605	118.2672	65535	64921.1
792.7019	120.5185	65535	64918.25
792.8434	122.7693	65535	64917.3
792.9849	125.0197	65535	64917.35
793.1264	127.2696	65535	64910.05
793.2679	129.519	65535	64907.75
793.4094	131.7679	65535	64906.3
793.551	134.0163	65535	64901.35
793.6926	136.2642	65535	64894.45
793.8342	138.5117	65535	64887.5
793.9758	140.7587	65535	64893.3
794.1175	143.0052	65535	64889.2
794.2591	145.2512	65535	64892.4
794.4008	147.4967	65535	64889.35
794.5425	149.7417	65535	64886.85
794.6842	151.9863	65535	64883.7
794.826	154.2304	65535	64879.95
794.9677	156.4739	65535	64874
795.1095	158.717	65535	64878.1
795.2513	160.9596	65535	64872.2
795.3931	163.2017	65535	64870.2
795.535	165.4433	65535	64866.5
795.6768	167.6844	65535	64863.7
795.8187	169.925	65535	64858.8
795.9606	172.1651	65535	64856.55
796.1025	174.4047	65535	64853.8
796.2445	176.6439	65535	64852.95
796.3864	178.8825	65535	64849.75
796.5284	181.1206	65535	64844.95
796.6704	183.3582	65535	64844.35
796.8124	185.5954	65535	64843.15
796.9544	187.832	65535	64837.65
797.0965	190.0681	65535	64834
797.2386	192.3037	65535	64830.85
797.3806	194.5388	65535	64832.3
797.5228	196.7734	65535	64827.8
797.6649	199.0075	65535	64822.85
797.807	201.2411	65535	64821.1
797.9492	203.4742	65535	64823.85
798.0914	205.7068	65535	64821.15
798.2336	207.9389	65535	64818.9
798.3758	210.1704	65535	64818.75
798.518	212.4015	65535	64813.5
798.6603	214.632	65535	64820.85
798.8025	216.862	65535	64828.3
798.9448	219.0915	65535	64830.85
799.0871	221.3205	65535	64832.15
799.2294	223.549	65535	64835.7
799.3718	225.777	65535	64834.8
799.5141	228.0044	65535	64834.2
799.6565	230.2314	65535	64836.1
799.7989	232.4578	65535	64834.75
799.9413	234.6837	65535	64823.6
800.0837	236.909	65535	64824.65
800.2262	239.1339	65535	64795.65
800.3687	241.3582	65535	64813.75
800.5111	243.582	65535	64778.75
800.6536	245.8053	65535	64792.9
800.7961	248.0281	65535	64800.7
800.9387	250.2503	65535	64796.15
801.0812	252.472	65535	64792.05
801.2238	254.6932	65535	64786.5
801.3664	256.9139	65535	64786.65
801.509	259.134	65535	64785.3
801.6516	261.3536	65535	64784.5
801.7942	263.5727	65535	64784.2
801.9369	265.7912	65535	64784.3
802.0795	268.0092	65535	64782.65
802.2222	270.2267	65535	64783.85
802.3649	272.4436	65535	64779.35
802.5076	274.6601	65535	64776.65
802.6504	276.8759	65535	64779.6
802.7931	279.0913	65535	64774.8
802.9359	281.3061	65535	64772.35
803.0787	283.5204	65535	64771.85
803.2215	285.7341	65535	64766.85
803.3643	287.9473	65535	64753.75
803.5071	290.16	65535	64761.65
803.6499	292.3721	65535	64770.75
803.7928	294.5837	65535	64767.7
803.9357	296.7947	65535	64769.4
804.0786	299.0052	65535	64767.45
804.2215	301.2152	65535	64764.7
804.3644	303.4246	65535	64765.85
804.5074	305.6334	65535	64769
804.6503	307.8418	65535	64764.25
804.7933	310.0495	65535	64762.15
804.9363	312.2568	65535	64764.75
805.0793	314.4635	65535	64760.25
805.2223	316.6696	65535	64756.25
805.3653	318.8752	65535	64751.1
805.5084	321.0802	65535	64757.35
805.6514	323.2847	65535	64755.8
805.7945	325.4887	65535	64754
805.9376	327.692	65535	64752.7
806.0807	329.8949	65535	64750.95
806.2238	332.0972	65535	64753.75
806.367	334.2989	65535	64751.3
806.5101	336.5001	65535	64748.05
806.6533	338.7007	65535	64746.75
806.7965	340.9008	65535	64747.8
806.9397	343.1003	65535	64745.05
807.0829	345.2992	65535	64740.95
807.2261	347.4976	65535	64743.65
807.3693	349.6955	65535	64738.2
807.5126	351.8927	65535	64735.6
807.6559	354.0895	65535	64725.7
807.7991	356.2856	65535	64737.6
807.9424	358.4812	65535	64736.85
808.0857	360.6763	65535	64736.5
808.2291	362.8707	65535	64731.25
808.3724	365.0646	65535	64730.15
808.5158	367.258	65535	64729
808.6591	369.4508	65535	64726.15
808.8025	371.643	65535	64724.75
808.9459	373.8346	65535	64725.1
809.0893	376.0257	65535	64722.45
809.2327	378.2162	65535	64722.9
809.3762	380.4062	65535	64717.4
809.5196	382.5956	65535	64714.3
809.6631	384.7844	65535	64718.7
809.8066	386.9726	65535	64722.85
809.9501	389.1603	65535	64719.25
810.0936	391.3474	65535	64684.1
810.2371	393.5339	65535	64723.35
810.3806	395.7199	65535	64728.5
810.5241	397.9052	65535	64728.15
810.6677	400.09	65535	64730.1
810.8113	402.2743	65535	64730.15
810.9548	404.4579	65535	64725.9
811.0984	406.641	65535	64726.1
811.2421	408.8235	65535	64720.85
811.3857	411.0054	65535	64718.15
811.5293	413.1868	65535	64722
811.673	415.3675	65535	64716.15
811.8166	417.5477	65535	64713.35
811.9603	419.7273	65535	64709.8
812.104	421.9064	65535	64705.25
812.2477	424.0848	65535	64711.4
812.3914	426.2627	65535	64706.05
812.5351	428.4399	65535	64708
812.6788	430.6166	65535	64703.9
812.8226	432.7928	65535	64702.1
812.9663	434.9683	65535	64702.05
813.1101	437.1432	65535	64698.7
813.2539	439.3176	65535	64703.05
813.3977	441.4914	65535	64701.35
813.5415	443.6645	65535	64698.45
813.6853	445.8371	65535	64698.4
813.8291	448.0091	65535	64702.5
813.973	450.1806	65535	64699.2
814.1168	452.3514	65535	64698.05
814.2607	454.5216	65535	64688.65
814.4046	456.6913	65535	64698.8
814.5485	458.8603	65535	64701.75
814.6924	461.0288	65535	64696.6
814.8363	463.1967	65535	64697.2
814.9802	465.3639	65535	64696.9
815.1241	467.5306	65535	64696.15
815.2681	469.6967	65535	64695.65
815.412	471.8622	65535	64699.6
815.556	474.0271	65535	64694.65
815.7	476.1914	65535	64691.2
815.844	478.3551	65535	64693.95
815.988	480.5182	65535	64696.05
816.132	482.6807	65535	64695.75
816.276	484.8426	65535	64696.6
816.4201	487.0039	65535	64693.55
816.5641	489.1647	65535	64695.45
816.7082	491.3248	65535	64692.6
816.8522	493.4843	65535	64693.2
816.9963	495.6432	65535	64690.45
817.1404	497.8015	65535	64686.55
817.2845	499.9592	65535	64688.85
817.4286	502.1163	65535	64686
817.5727	504.2728	65535	64687.65
817.7168	506.4287	65535	64690.55
817.861	508.5839	65535	64688.6
818.0051	510.7386	65535	64687.9
818.1493	512.8927	65535	64685.2
818.2935	515.0461	65535	64681.95
818.4377	517.199	65535	64687
818.5818	519.3512	65535	64684.35
818.726	521.5029	65535	64678
818.8703	523.6539	65535	64682.45
819.0145	525.8043	65535	64680.65
819.1587	527.9541	65535	64679.9
819.303	530.1033	65535	64681.85
819.4472	532.2519	65535	64681.8
819.5915	534.3999	65535	64677.7
819.7357	536.5472	65535	64680
819.88	538.694	65535	64681
820.0243	540.8401	65535	64675.25
820.1686	542.9856	65535	64675.1
820.3129	545.1305	65535	64674
820.4572	547.2748	65535	64675
820.6016	549.4185	65535	64673.8
820.7459	551.5615	65535	64676.85
820.8902	553.704	65535	64674.95
821.0346	555.8458	65535	64676.5
821.1789	557.987	65535	64677.6
821.3233	560.1276	65535	64674.7
821.4677	562.2675	65535	64677
821.6121	564.4069	65535	64672.95
821.7565	566.5456	65535	64677.1
821.9009	568.6837	65535	64675.1
822.0453	570.8212	65535	64678.6
822.1897	572.958	65535	64674.45
822.3342	575.0942	65535	64677.05
822.4786	577.2299	65535	64673.4
822.6231	579.3648	65535	64674.75
822.7675	581.4992	65535	64677.4
822.912	583.6329	65535	64678.9
823.0565	585.766	65535	64677.8
823.201	587.8985	65535	64678.45
823.3454	590.0304	65535	64649.8
823.4899	592.1616	65535	64669.25
823.6345	594.2922	65535	64670.15
823.779	596.4222	65535	64667.65
823.9235	598.5515	65535	64668.65
824.068	600.6802	65535	64673.75
824.2126	602.8083	65535	64671.1
824.3571	604.9358	65535	64668.8
824.5017	607.0626	65535	64667.8
824.6462	609.1888	65535	64669.5
824.7908	611.3144	65535	64666.5
824.9354	613.4393	65535	64669.95
825.08	615.5636	65535	64668.1
825.2246	617.6873	65535	64666.9
825.3692	619.8103	65535	64668.2
825.5138	621.9327	65535	64662.8
825.6584	624.0544	65535	64666.35
825.803	626.1756	65535	64669.7
825.9477	628.2961	65535	64664.7
826.0923	630.4159	65535	64664.05
826.237	632.5351	65535	64664.35
826.3816	634.6537	65535	64664.65
826.5263	636.7716	65535	64662.05
826.6709	638.8889	65535	64662.75
826.8156	641.0056	65535	64663.55
826.9603	643.1216	65535	64659.75
827.105	645.237	65535	64662
827.2497	647.3518	65535	64661.15
827.3944	649.4659	65535	64665
827.5391	651.5793	65535	64660.95
827.6838	653.6922	65535	64661.45
827.8285	655.8043	65535	64662.2
827.9733	657.9159	65535	64660.9
828.118	660.0268	65535	64659.1
828.2627	662.137	65535	64662.45
828.4075	664.2466	65535	64658.65
828.5522	666.3556	65535	64661.25
828.697	668.4639	65535	64657.4
828.8418	670.5716	65535	64661.7
828.9865	672.6786	65535	64657.75
829.1313	674.785	65535	64655.45
829.2761	676.8907	65535	64658.2
829.4209	678.9958	65535	64658.7
829.5657	681.1002	65535	64654.8
829.7105	683.204	65535	64656.05
829.8553	685.3072	65535	64656.35
830.0001	687.4097	65535	64656.65
830.1449	689.5115	65535	64656.4
830.2898	691.6127	65535	64658.35
830.4346	693.7132	65535	64650.55
830.5794	695.8131	65535	64639.7
830.7243	697.9123	65535	64652.55
830.8691	700.0109	65535	64656.6
831.014	702.1089	65535	64654.95
831.1588	704.2061	65535	64658.45
831.3037	706.3028	65535	64650.8
831.4486	708.3987	65535	64653.45
831.5935	710.4941	65535	64656
831.7383	712.5887	65535	64652.65
831.8832	714.6827	65535	64651.3
832.0281	716.7761	65535	64653.9
832.173	718.8688	65535	64651.25
832.3179	720.9608	65535	64649.2
832.4628	723.0522	65535	64647.55
832.6077	725.1429	65535	64651.9
832.7527	727.233	65535	64652.45
832.8976	729.3224	65535	64650.7
833.0425	731.4112	65535	64649.35
833.1874	733.4993	65535	64648
833.3324	735.5867	65535	64650.6
833.4773	737.6735	65535	64647.6
833.6222	739.7596	65535	64645.5
833.7672	741.845	65535	64650.2
833.9122	743.9298	65535	64649.15
834.0571	746.014	65535	64648.6
834.2021	748.0974	65535	64646.6
834.347	750.1802	65535	64645.65
834.492	752.2624	65535	64650.35
834.637	754.3439	65535	64646.45
834.782	756.4247	65535	64640.75
834.9269	758.5048	65535	64652.05
835.0719	760.5843	65535	64649.4
835.2169	762.6631	65535	64649.2
835.3619	764.7413	65535	64650
835.5069	766.8188	65535	64649.05
835.6519	768.8956	65535	64645.5
835.7969	770.9718	65535	64647.9
835.9419	773.0473	65535	64647.85
836.0869	775.1221	65535	64648.65
836.232	777.1962	65535	64646.6
836.377	779.2697	65535	64645.25
836.522	781.3426	65535	64627.5
836.667	783.4147	65535	64645.4
836.8121	785.4862	65535	64648.65
836.9571	787.557	65535	64643.85
837.1021	789.6271	65535	64646.15
837.2472	791.6966	65535	64646.7
837.3922	793.7654	65535	64644.65
837.5373	795.8335	65535	64648.4
837.6823	797.901	65535	64646.75
837.8274	799.9678	65535	64642.55
837.9724	802.0339	65535	64645.9
838.1175	804.0993	65535	64635.15
838.2626	806.1641	65535	64646.35
838.4076	808.2282	65535	64644.75
838.5527	810.2916	65535	64643.25
838.6978	812.3544	65535	64648.4
838.8428	814.4164	65535	64646.75
838.9879	816.4778	65535	64645.65
839.133	818.5385	65535	64645.55
839.2781	820.5986	65535	64642.7
839.4232	822.658	65535	64640.6
839.5682	824.7166	65535	64645.15
839.7133	826.7747	65535	64642.5
839.8584	828.832	65535	64644.1
840.0035	830.8886	65535	64642.25
840.1486	832.9446	65535	64644.75
840.2937	834.9999	65535	64644
840.4388	837.0545	65535	64641.75
840.5839	839.1085	65535	64645.05
840.729	841.1618	65535	64639.45
840.8741	843.2143	65535	64642.05
841.0192	845.2662	65535	64640.8
841.1643	847.3175	65535	64643.35
841.3095	849.368	65535	64644.1
841.4546	851.4179	65535	64641.95
841.5997	853.467	65535	64642.85
841.7448	855.5155	65535	64642.85
841.8899	857.5633	65535	64644.9
842.0351	859.6105	65535	64641.7
842.1802	861.6569	65535	64640.15
842.3253	863.7027	65535	64639.65
842.4704	865.7478	65535	64642
842.6156	867.7922	65535	64642.35
842.7607	869.8359	65535	64638.1
842.9058	871.8789	65535	64642.2
843.0509	873.9212	65535	64611.7
843.1961	875.9629	65535	64640.85
843.3412	878.0039	65535	64642.9
843.4863	880.0441	65535	64643.15
843.6315	882.0837	65535	64639.15
843.7766	884.1226	65535	64640.3
843.9218	886.1609	65535	64640.8
844.0669	888.1984	65535	64640.45
844.212	890.2352	65535	64641.3
844.3572	892.2714	65535	64636.55
844.5023	894.3069	65535	64638.45
844.6475	896.3416	65535	64637.3
844.7926	898.3757	65535	64639.1
844.9377	900.4091	65535	64640.5
845.0829	902.4418	65535	64636.55
845.228	904.4739	65535	64639.15
845.3732	906.5052	65535	64641.35
845.5183	908.5358	65535	64638.9
845.6635	910.5658	65535	64637.1
845.8086	912.595	65535	64638.55
845.9538	914.6236	65535	64639.55
846.0989	916.6515	65535	64641.45
846.2441	918.6786	65535	64637.3
846.3892	920.7051	65535	64635.35
846.5344	922.7309	65535	64639.85
846.6795	924.756	65535	64638.2
846.8246	926.7804	65535	64636.3
846.9698	928.8041	65535	64637.55
847.1149	930.8272	65535	64637.55
847.2601	932.8495	65535	64634.5
847.4052	934.8711	65535	64638.3
847.5504	936.892	65535	64640.4
847.6955	938.9123	65535	64637.95
847.8407	940.9318	65535	64640.4
847.9858	942.9506	65535	64638.3
848.131	944.9688	65535	64637.8
848.2761	946.9862	65535	64636.15
848.4213	949.003	65535	64637.7
848.5664	951.019	65535	64638
848.7115	953.0344	65535	64640.15
848.8567	955.0491	65535	64636.55
849.0018	957.063	65535	64638.85
849.147	959.0763	65535	64639.2
849.2921	961.0888	65535	64638.2
849.4373	963.1007	65535	64638.3
849.5824	965.1119	65535	64640.8
849.7275	967.1223	65535	64638.3
849.8727	969.1321	65535	64639.6
850.0178	971.1412	65535	64640.55
850.1629	973.1495	65535	64638.55
850.3081	975.1572	65535	64605.1
850.4532	977.1641	65535	64637.95
850.5983	979.1704	65535	64637.35
850.7435	981.1759	65535	64635.8
850.8886	983.1808	65535	64638.9
851.0337	985.1849	65535	64627
851.1788	987.1884	65535	64634.2
851.324	989.1911	65535	64632.45
851.4691	991.1932	65535	64635.3
851.6142	993.1945	65535	64638.4
851.7593	995.1951	65535	64638.25
851.9045	997.1951	65535	64630.7
852.0496	999.1943	65535	64640.45
852.1947	1001.1928	65535	64636.35
852.3398	1003.1906	65535	64635.95
852.4849	1005.1877	65535	64636.35
852.63	1007.1841	65535	64635.7
852.7751	1009.1798	65535	64635.75
852.9202	1011.1748	65535	64635.15
853.0653	1013.1691	65535	64635.55
853.2104	1015.1627	65535	64637
853.3555	1017.1556	65535	64637.55
853.5006	1019.1477	65535	64636.15
853.6457	1021.1392	65535	64638.45
853.7908	1023.1299	65535	64637.2
853.9359	1025.12	65535	64637.9
854.081	1027.1093	65535	64641.25
854.2261	1029.0979	65535	64641.25
854.3712	1031.0859	65535	64642.15
854.5163	1033.0731	65535	64636
854.6613	1035.0596	65535	64638.65
854.8064	1037.0454	65535	64641.15
854.9515	1039.0304	65535	64637.3
855.0965	1041.0148	65535	64637.3
855.2416	1042.9985	65535	64634.1
855.3867	1044.9814	65535	64638.4
855.5317	1046.9636	65535	64635.75
855.6768	1048.9452	65535	64637.5
855.8219	1050.926	65535	64636.35
855.9669	1052.9061	65535	64638.5
856.112	1054.8855	65535	64637.2
856.257	1056.8642	65535	64639.6
856.4021	1058.8421	65535	64633.05
856.5471	1060.8194	65535	64637
856.6921	1062.7959	65535	64640.65
856.8372	1064.7717	65535	64636.1
856.9822	1066.7469	65535	64634.2
857.1272	1068.7213	65535	64634
857.2723	1070.695	65535	64637.65
857.4173	1072.6679	65535	64636
857.5623	1074.6402	65535	64637.85
857.7073	1076.6117	65535	64632.55
857.8523	1078.5826	65535	64636.5
857.9973	1080.5527	65535	64634.7
858.1423	1082.5221	65535	64635.3
858.2873	1084.4908	65535	64633.55
858.4323	1086.4587	65535	64636.85
858.5773	1088.426	65535	64634.9
858.7223	1090.3925	65535	64633.5
858.8673	1092.3584	65535	64634.95
859.0123	1094.3235	65535	64635.55
859.1573	1096.2879	65535	64637.3
859.3022	1098.2515	65535	64634.45
859.4472	1100.2145	65535	64637.35
859.5922	1102.1767	65535	64634
859.7371	1104.1382	65535	64636.9
859.8821	1106.099	65535	64635.15
860.027	1108.0591	65535	64636.15
860.172	1110.0185	65535	64636.9
860.3169	1111.9771	65535	64636.8
860.4619	1113.9351	65535	64635.85
860.6068	1115.8923	65535	64634.25
860.7517	1117.8488	65535	64632.35
860.8967	1119.8045	65535	64637.4
861.0416	1121.7596	65535	64638.05
861.1865	1123.7139	65535	64636.5
861.3314	1125.6675	65535	64638.1
861.4763	1127.6204	65535	64634.95
861.6212	1129.5726	65535	64631.85
861.7661	1131.524	65535	64637.5
861.911	1133.4748	65535	64634.05
862.0559	1135.4248	65535	64633.75
862.2008	1137.3741	65535	64635.85
862.3457	1139.3226	65535	64633.75
862.4905	1141.2705	65535	64635.55
862.6354	1143.2176	65535	64629.85
862.7803	1145.164	65535	64636
862.9251	1147.1097	65535	64633.05
863.07	1149.0546	65535	64633.7
863.2148	1150.9989	65535	64637.6
863.3597	1152.9424	65535	64635.55
863.5045	1154.8852	65535	64634.95
863.6493	1156.8272	65535	64637.8
863.7942	1158.7686	65535	64631.05
863.939	1160.7092	65535	64635.35
864.0838	1162.6491	65535	64633.55
864.2286	1164.5883	65535	64636
864.3734	1166.5267	65535	64637.2
864.5182	1168.4644	65535	64638.15
864.663	1170.4014	65535	64631.4
864.8078	1172.3377	65535	64636
864.9526	1174.2732	65535	64635.4
865.0974	1176.2081	65535	64636.4
865.2421	1178.1421	65535	64629.9
865.3869	1180.0755	65535	64634.7
865.5317	1182.0082	65535	64637.35
865.6764	1183.9401	65535	64636.55
865.8212	1185.8713	65535	64637.85
865.9659	1187.8017	65535	64635.4
866.1106	1189.7315	65535	64639.5
866.2554	1191.6605	65535	64608.6
866.4001	1193.5888	65535	64638.7
866.5448	1195.5163	65535	64634.15
866.6895	1197.4432	65535	64634
866.8342	1199.3693	65535	64635.1
866.9789	1201.2947	65535	64633.1
867.1236	1203.2193	65535	64634.85
867.2683	1205.1432	65535	64635.65
867.413	1207.0664	65535	64637.1
867.5576	1208.9889	65535	64635.15
867.7023	1210.9106	65535	64636.4
867.847	1212.8316	65535	64637.1
867.9916	1214.7519	65535	64629.3
868.1363	1216.6715	65535	64635.8
868.2809	1218.5903	65535	64635.8
868.4255	1220.5084	65535	64636.15
868.5701	1222.4257	65535	64634.05
868.7148	1224.3424	65535	64638.65
868.8594	1226.2583	65535	64630.9
869.004	1228.1735	65535	64634.7
869.1486	1230.0879	65535	64635.75
869.2932	1232.0016	65535	64636.8
869.4377	1233.9146	65535	64634.8
869.5823	1235.8269	65535	64636.85
869.7269	1237.7384	65535	64634.75
869.8715	1239.6492	65535	64637.3
870.016	1241.5592	65535	64634.05
870.1606	1243.4686	65535	64634
870.3051	1245.3772	65535	64636.5
870.4496	1247.285	65535	64635.15
870.5941	1249.1922	65535	64635.65
870.7387	1251.0986	65535	64637.45
870.8832	1253.0042	65535	64635.85
871.0277	1254.9092	65535	64636.85
871.1722	1256.8134	65535	64636.5
871.3167	1258.7169	65535	64634.1
871.4611	1260.6196	65535	64637.25
871.6056	1262.5216	65535	64635.95
871.7501	1264.4229	65535	64636.3
871.8945	1266.3234	65535	64637.05
872.039	1268.2232	65535	64635.15
872.1834	1270.1223	65535	64632.85
872.3278	1272.0207	65535	64634.3
872.4723	1273.9183	65535	64630.35
872.6167	1275.8151	65535	64637
872.7611	1277.7113	65535	64635.65
872.9055	1279.6067	65535	64638.5
873.0499	1281.5014	65535	64634.8
873.1943	1283.3953	65535	64632
873.3386	1285.2885	65535	64634.9
873.483	1287.181	65535	64635.25
873.6274	1289.0727	65535	64635
873.7717	1290.9637	65535	64638.25
873.9161	1292.854	65535	64637.95
874.0604	1294.7435	65535	64633.35
874.2047	1296.6323	65535	64635.5
874.349	1298.5204	65535	64631.35
874.4933	1300.4077	65535	64634.7
874.6376	1302.2943	65535	64636.8
874.7819	1304.1802	65535	64638.1
874.9262	1306.0653	65535	64634.4
875.0705	1307.9497	65535	64634.05
875.2147	1309.8333	65535	64637.65
875.359	1311.7162	65535	64637.3
875.5032	1313.5984	65535	64633.65
875.6475	1315.4798	65535	64634.15
875.7917	1317.3605	65535	64618.4
875.9359	1319.2405	65535	64633.6
876.0801	1321.1197	65535	64633.6
876.2243	1322.9982	65535	64632.4
876.3685	1324.876	65535	64636.1
876.5127	1326.753	65535	64633.75
876.6569	1328.6293	65535	64633.1
876.801	1330.5048	65535	64632.9
876.9452	1332.3796	65535	64635.25
877.0893	1334.2537	65535	64608.7
877.2335	1336.127	65535	64636.8
877.3776	1337.9996	65535	64636.1
877.5217	1339.8714	65535	64634.1
877.6658	1341.7426	65535	64593.65
877.8099	1343.6129	65535	64635.9
877.954	1345.4826	65535	64636.55
878.0981	1347.3515	65535	64636.25
878.2422	1349.2196	65535	64635.9
878.3862	1351.087	65535	64635.65
878.5303	1352.9537	65535	64634.65
878.6743	1354.8197	65535	64634.75
878.8184	1356.6849	65535	64633.45
878.9624	1358.5493	65535	64634.45
879.1064	1360.4131	65535	64635.3
879.2504	1362.276	65535	64637.05
879.3944	1364.1383	65535	64635.8
879.5384	1365.9998	65535	64630.65
879.6823	1367.8606	65535	64635.95
879.8263	1369.7206	65535	64635.85
879.9702	1371.5799	65535	64633.85
880.1142	1373.4384	65535	64636.5
880.2581	1375.2962	65535	64637.55
880.402	1377.1533	65535	64635.3
880.5459	1379.0096	65535	64636.15
880.6898	1380.8652	65535	64634.25
880.8337	1382.7201	65535	64636.95
880.9776	1384.5742	65535	64634.9
881.1215	1386.4275	65535	64636.05
881.2653	1388.2802	65535	64638.7
881.4092	1390.132	65535	64635.65
881.553	1391.9832	65535	64634
881.6968	1393.8336	65535	64633.2
881.8406	1395.6832	65535	64634.8
881.9844	1397.5322	65535	64634.55
882.1282	1399.3803	65535	64631.5
882.272	1401.2278	65535	64637.7
882.4158	1403.0745	65535	64637.4
882.5595	1404.9204	65535	64638.35
882.7033	1406.7656	65535	64635.7
882.847	1408.6101	65535	64633.65
882.9908	1410.4538	65535	64637.15
883.1345	1412.2968	65535	64634.85
883.2782	1414.139	65535	64635.3
883.4219	1415.9805	65535	64634.2
883.5656	1417.8213	65535	64630.7
883.7092	1419.6613	65535	64635.9
883.8529	1421.5006	65535	64635.45
883.9965	1423.3391	65535	64634.15
884.1402	1425.1769	65535	64634.35
884.2838	1427.0139	65535	64637.05
884.4274	1428.8502	65535	64634.45
884.571	1430.6858	65535	64635.95
884.7146	1432.5206	65535	64637.75
884.8582	1434.3547	65535	64636.15
885.0018	1436.188	65535	64633.9
885.1453	1438.0206	65535	64636.65
885.2889	1439.8524	65535	64634.7
885.4324	1441.6835	65535	64635.45
885.5759	1443.5139	65535	64630.25
885.7194	1445.3435	65535	64635.05
885.8629	1447.1724	65535	64636.7
886.0064	1449.0005	65535	64637.55
886.1499	1450.8279	65535	64636.7
886.2933	1452.6545	65535	64638.05
886.4368	1454.4804	65535	64637.15
886.5802	1456.3056	65535	64628.55
886.7237	1458.13	65535	64636.3
886.8671	1459.9536	65535	64638.85
887.0105	1461.7766	65535	64634.95
887.1539	1463.5987	65535	64634.6
887.2972	1465.4202	65535	64638.05
887.4406	1467.2409	65535	64635.1
887.584	1469.0608	65535	64636.45
887.7273	1470.88	65535	64636.85
887.8706	1472.6984	65535	64635.5
888.0139	1474.5161	65535	64633.05
888.1572	1476.3331	65535	64637
888.3005	1478.1493	65535	64635
888.4438	1479.9648	65535	64637.45
888.5871	1481.7795	65535	64635.45
888.7303	1483.5935	65535	64636.9
888.8736	1485.4067	65535	64633.55
889.0168	1487.2192	65535	64633.6
889.16	1489.031	65535	64634.25
889.3032	1490.842	65535	64636.95
889.4464	1492.6522	65535	64637.9
889.5896	1494.4618	65535	64633.7
889.7327	1496.2705	65535	64638.65
889.8759	1498.0785	65535	64634.95
890.019	1499.8858	65535	64635.2
890.1622	1501.6924	65535	64637.25
890.3053	1503.4981	65535	64636.65
890.4484	1505.3032	65535	64636.25
890.5914	1507.1075	65535	64636.45
890.7345	1508.911	65535	64634.9
890.8776	1510.7138	65535	64637.1
891.0206	1512.5159	65535	64636.65
891.1637	1514.3172	65535	64635.55
891.3067	1516.1178	65535	64637.9
891.4497	1517.9176	65535	64632.6
891.5927	1519.7166	65535	64636.7
891.7357	1521.515	65535	64632.45
891.8786	1523.3126	65530.35	64629.35
892.0216	1525.1094	65535	64634.15
892.1645	1526.9055	65535	64637.3
892.3074	1528.7008	65535	64635.85
892.4503	1530.4954	65525.55	64622.75
892.5932	1532.2893	65535	64636.05
892.7361	1534.0824	65523.4	64620.55
892.879	1535.8747	65518.05	64621.75
893.0218	1537.6663	65535	64635.3
893.1647	1539.4572	65455.9	64558.35
893.3075	1541.2473	65510.1	64611.25
893.4503	1543.0367	65497.55	64600.6
893.5931	1544.8253	65482.8	64580.85
893.7359	1546.6132	65506.85	64606.35
893.8787	1548.4003	65465.05	64560
894.0214	1550.1867	65436.75	64530.65
894.1642	1551.9723	65407.6	64505
894.3069	1553.7572	65402.75	64502.65
894.4496	1555.5414	65461.9	64563.55
894.5923	1557.3247	65038.05	64141.05
894.735	1559.1074	65427.15	64531.45
894.8777	1560.8893	65303.45	64405.7
895.0204	1562.6705	65358.95	64459.95
895.163	1564.4509	65043.3	64146.65
895.3056	1566.2305	65235.7	64339.8
895.4482	1568.0094	65383.2	64486.2
895.5908	1569.7876	65245.15	64346.55
895.7334	1571.565	65036.15	64138.3
895.876	1573.3417	65177.9	64280.45
896.0186	1575.1176	65097.7	64202.15
896.1611	1576.8928	64972.6	64074
896.3036	1578.6672	64641.65	63746.1
896.4461	1580.4409	64907.05	64012.9
896.5886	1582.2138	64333.6	63435.35
896.7311	1583.986	64502.75	63605.25
896.8736	1585.7575	63889.6	62993.55
897.0161	1587.5282	64127	63231.9
897.1585	1589.2981	64124.05	63227.55
897.3009	1591.0673	63421.15	62523.85
897.4433	1592.8358	62911.5	62017.25
897.5857	1594.6035	63467.8	62570.65
897.7281	1596.3704	63564.5	62668.65
897.8705	1598.1366	62518.5	61623.05
898.0128	1599.9021	62006.1	61112.05
898.1551	1601.6668	62825.95	61928.55
898.2975	1603.4308	62337.1	61438.65
898.4398	1605.194	62448.15	61546.75
898.5821	1606.9564	61333.25	60438.8
898.7243	1608.7182	61982.55	61083.65
898.8666	1610.4791	61341.55	60448.75
899.0088	1612.2394	61907.9	61014.5
899.1511	1613.9988	61263.85	60366.95
899.2933	1615.7576	62031.3	61136.1
899.4355	1617.5156	62020.75	61120
899.5776	1619.2728	62867.6	61971.95
899.7198	1621.0293	61578.15	60682.3
899.862	1622.785	61575.7	60678.95
900.0041	1624.54	62021.05	61124.45
900.1462	1626.2942	61342.75	60444.3
900.2883	1628.0477	60253.05	59356.8
900.4304	1629.8005	59610.25	58712.7
900.5725	1631.5525	60138.8	59242.9
900.7145	1633.3037	59021.7	58127.85
900.8566	1635.0542	58909.1	58014.65
900.9986	1636.804	59263.85	58369.7
901.1406	1638.553	58360.45	57356.45
901.2826	1640.3013	58512.6	57615.3
901.4245	1642.0488	57844.45	56948.8
901.5665	1643.7955	58210.6	57315.4
901.7085	1645.5416	57752.1	56857.45
901.8504	1647.2868	57384.85	56490.65
901.9923	1649.0313	57971.4	57078.2
902.1342	1650.7751	57633.2	56736.45
902.2761	1652.5181	57300.6	56406.35
902.4179	1654.2604	57388.2	56495.65
902.5598	1656.0019	57803.05	56907.9
902.7016	1657.7427	57681.7	56788.25
902.8434	1659.4828	58179.9	57285.35
902.9852	1661.222	57879.2	56983.75
903.127	1662.9606	58184.2	57290.5
903.2687	1664.6984	57601.75	56707.35
903.4105	1666.4354	57541.5	56645.35
903.5522	1668.1717	56443.35	55549.1
903.6939	1669.9072	55729.45	54833.3
903.8356	1671.642	55420.95	54525.65
903.9773	1673.3761	55091.05	54198.6
904.119	1675.1094	54776.15	53880.6
904.2606	1676.8419	54280.8	53387.35
904.4022	1678.5737	54001.85	53105.95
904.5439	1680.3048	53713.95	52818.1
904.6855	1682.0351	53471.45	52576.95
904.827	1683.7646	53116.9	52218.45
904.9686	1685.4934	53025.2	52131.95
905.1101	1687.2215	52406.35	51512.65
905.2517	1688.9488	52596.3	51701.75
905.3932	1690.6754	51753.1	50860.55
905.5347	1692.4012	51957.2	51064.4
905.6761	1694.1263	51813.5	50920.45
905.8176	1695.8506	51498.85	50604.05
905.9591	1697.5742	51383.25	50489
906.1005	1699.297	51125	50232.3
906.2419	1701.0191	50910.2	50016
906.3833	1702.7404	50659.05	49764.85
906.5246	1704.461	50333.5	49438.8
906.666	1706.1808	50167.2	49272
906.8073	1707.8999	50051.05	49155.25
906.9487	1709.6182	49823.85	48930.85
907.09	1711.3358	49716.1	48822.3
907.2313	1713.0527	49488.4	48595.3
907.3725	1714.7688	49350.4	48451
907.5138	1716.4841	49003.7	48109.75
907.655	1718.1987	49023.4	48125.35
907.7962	1719.9126	48821.6	47929.5
907.9374	1721.6257	48633.55	47737.75
908.0786	1723.338	48504.45	47610.8
908.2198	1725.0496	48121.55	47227.35
908.3609	1726.7605	48039.35	47144.95
908.502	1728.4706	47840.9	46946.2
908.6431	1730.18	47570.8	46675.4
908.7842	1731.8886	47491.6	46596.15
908.9253	1733.5964	47374.75	46463.8
909.0664	1735.3036	47220.6	46323.15
909.2074	1737.0099	47133.25	46239.9
909.3484	1738.7156	46958.2	46067.25
909.4894	1740.4204	46699.4	45804.6
909.6304	1742.1246	46598.05	45703.8
909.7714	1743.8279	46502.05	45610.25
909.9123	1745.5306	46422.2	45529.7
910.0532	1747.2325	46226.9	45332.55
910.1941	1748.9336	45998.7	45104.35
910.335	1750.634	45747.6	44853.05
910.4759	1752.3336	45642.15	44747.45
910.6168	1754.0325	45592.8	44700.5
910.7576	1755.7307	45463.15	44571
910.8984	1757.4281	45387.5	44494.75
911.0392	1759.1247	45296.7	44395.2
911.18	1760.8206	45198.15	44299.35
911.3208	1762.5158	45058.85	44160.15
911.4615	1764.2102	44855	43962.65
911.6022	1765.9039	44635.95	43742.8
911.7429	1767.5968	44566.8	43673.8
911.8836	1769.289	44436.65	43544
912.0243	1770.9804	44326.45	43431.95
912.1649	1772.6711	44285	43390.6
912.3056	1774.361	44117	43222.95
912.4462	1776.0502	43979.3	43087
912.5868	1777.7386	43877.35	42982.55
912.7274	1779.4263	43693.25	42799.65
912.8679	1781.1132	43650.55	42758.95
913.0084	1782.7994	43493.15	42599.8
913.149	1784.4849	43354.65	42462.85
913.2895	1786.1696	43155.5	42256.8
913.4299	1787.8535	43070.15	42178.75
913.5704	1789.5367	42933.8	42039.65
913.7108	1791.2192	42873.7	41980.85
913.8513	1792.9009	42651.45	41726.35
913.9917	1794.5818	42554.3	41659.05
914.132	1796.2621	42452.15	41559.75
914.2724	1797.9415	42294.8	41402.5
914.4128	1799.6202	42177.9	41285.5
914.5531	1801.2982	42041.4	41148.75
914.6934	1802.9755	41892.25	40997.15
914.8337	1804.6519	41877.95	40983.75
914.9739	1806.3277	41632.6	40739.45
915.1142	1808.0027	41437.7	40543.15
915.2544	1809.6769	41389.3	40495.85
915.3946	1811.3504	41260.55	40365.65
915.5348	1813.0231	41129.65	40234.7
915.675	1814.6951	41100.5	40208.6
915.8151	1816.3664	41082.05	40186.65
915.9553	1818.0369	40925.7	40033.6
916.0954	1819.7067	40750.9	39858.3
916.2355	1821.3757	40623.25	39728.5
916.3755	1823.044	40563.65	39671.4
916.5156	1824.7115	40480.8	39588.55
916.6556	1826.3783	40302.1	39411.15
916.7956	1828.0443	40185.55	39294.55
916.9356	1829.7096	39979.25	39086.1
917.0756	1831.3741	40011.85	39114.5
917.2155	1833.0379	39864.7	38971.95
917.3555	1834.701	39717.85	38824.05
917.4954	1836.3633	39614.8	38721.7
917.6353	1838.0248	39473.2	38578.65
917.7751	1839.6856	39362.1	38469.15
917.915	1841.3457	39317.65	38425.1
918.0548	1843.005	39256.6	38365.65
918.1946	1844.6636	39171.5	38279.55
918.3344	1846.3214	38979.9	38085.35
918.4742	1847.9785	38980.85	38089.1
918.6139	1849.6349	38854.4	37959.7
918.7537	1851.2904	38710.7	37807.85
918.8934	1852.9453	38592.7	37701.15
919.0331	1854.5994	38476.1	37579.45
919.1727	1856.2528	38472.15	37575.65
919.3124	1857.9054	38310.75	37416.85
919.452	1859.5572	38247.35	37355.75
919.5916	1861.2083	38159.1	37265.35
919.7312	1862.8587	38091.55	37199.25
919.8708	1864.5084	37978.2	37085.65
920.0103	1866.1572	37897.75	37007
920.1498	1867.8054	37703.2	36809.5
920.2893	1869.4528	37611.7	36720.6
920.4288	1871.0994	37508.9	36614.8
920.5683	1872.7453	37390.65	36499.15
920.7077	1874.3905	37320.75	36421.3
920.8471	1876.0349	37169.85	36275.9
920.9865	1877.6786	37094.3	36201.8
921.1259	1879.3215	37065.2	36172.85
921.2653	1880.9637	36930.9	36037.6
921.4046	1882.6051	36880.3	35988.1
921.5439	1884.2458	36771.6	35878.2
921.6832	1885.8858	36615	35721.8
921.8225	1887.525	36534.75	35641.2
921.9617	1889.1634	36330.35	35438.8
922.101	1890.8011	36217.5	35323.45
922.2402	1892.4381	36135.05	35241.3
922.3794	1894.0743	36129.4	35238.4
922.5185	1895.7098	35988.05	35096.95
922.6577	1897.3446	35905.6	35012.45
922.7968	1898.9786	35754.3	34856.55
922.9359	1900.6118	35683.55	34790.15
923.075	1902.2443	35444.85	34551.15
923.214	1903.8761	35369.25	34477.65
923.3531	1905.5071	35169.95	34277.9
923.4921	1907.1374	35029.6	34136.65
923.6311	1908.7669	34989.2	34096.1
923.77	1910.3957	34869.35	33975.7
923.909	1912.0237	34698.85	33805.7
924.0479	1913.651	34590.75	33699.05
924.1868	1915.2776	34504.2	33613.1
924.3257	1916.9034	34357.5	33466.4
924.4646	1918.5285	34206.5	33315.35
924.6034	1920.1528	34049	33156.35
924.7422	1921.7764	33956.35	33063.6
924.881	1923.3992	33856.7	32965.9
925.0198	1925.0213	33585.3	32691.8
925.1586	1926.6427	33470.55	32579.1
925.2973	1928.2633	33480.55	32478.7
925.436	1929.8832	33267.7	32372.95
925.5747	1931.5023	33116.4	32224.9
925.7134	1933.1207	33028	32135.45
925.852	1934.7383	32950.95	32058.75
925.9906	1936.3552	32796.1	31902.55
926.1292	1937.9714	32766.85	31876.4
926.2678	1939.5868	32592.1	31699.35
926.4064	1941.2015	32417.15	31525
926.5449	1942.8154	32297.9	31403.2
926.6834	1944.4286	32157.9	31264.75
926.8219	1946.041	32021.5	31108.75
926.9604	1947.6528	31832	30937.65
927.0988	1949.2637	31770.2	30878.5
927.2372	1950.8739	31626	30734.35
927.3756	1952.4834	31590.45	30698.3
927.514	1954.0921	31500.75	30608.55
927.6523	1955.7001	31320.8	30424.6
927.7907	1957.3074	31234.4	30344.1
927.929	1958.9139	31105.7	30216.05
928.0673	1960.5197	31033.3	30141.95
928.2055	1962.1247	30821.6	29928.95
928.3438	1963.729	30704	29812.65
928.482	1965.3325	30546.85	29632.7
928.6202	1966.9353	30467.55	29575.8
928.7584	1968.5374	30360.45	29466.4
928.8965	1970.1387	30251.5	29357.1
929.0346	1971.7393	30141.25	29249.05
929.1727	1973.3392	30077.4	29184.8
929.3108	1974.9383	29895.55	29004.35
929.4489	1976.5366	29815.95	28924.55
929.5869	1978.1342	29763.1	28871.05
929.7249	1979.7311	29700.5	28805.95
929.8629	1981.3273	29572.45	28679.15
930.0009	1982.9227	29483.55	28589.2
930.1388	1984.5173	29342.9	28451.7
930.2767	1986.1112	29197.8	28307.55
930.4146	1987.7044	29162.95	28274.05
930.5525	1989.2968	29049.5	28155.8
930.6904	1990.8885	28974.35	28078.5
930.8282	1992.4795	28876.9	27982.85
930.966	1994.0697	28731.1	27838.95
931.1038	1995.6592	28637.55	27747.45
931.2415	1997.2479	28531.8	27638.9
931.3793	1998.8359	28379.7	27485.6
931.517	2000.4232	28252.2	27362.75
931.6547	2002.0097	28192.35	27303.1
931.7923	2003.5955	28064.25	27171.9
931.93	2005.1805	28012.6	27118.55
932.0676	2006.7648	27962.2	27070.35
932.2052	2008.3484	27817.9	26925.65
932.3427	2009.9312	27846.75	26950.95
932.4803	2011.5133	27710.2	26818
932.6178	2013.0946	27535.85	26643.95
932.7553	2014.6752	27522.25	26630.65
932.8928	2016.2551	27463.35	26572.6
933.0302	2017.8342	27324.75	26432.55
933.1676	2019.4126	27188.2	26298.5
933.305	2020.9902	27074.55	26183.4
933.4424	2022.5672	27043.35	26151.2
933.5798	2024.1433	26963.4	26064.15
933.7171	2025.7188	26853.55	25965.45
933.8544	2027.2935	26764.4	25871.6
933.9917	2028.8674	26682	25791.65
934.129	2030.4406	26585.5	25695.45
934.2662	2032.0131	26445.15	25554.35
934.4034	2033.5849	26347.35	25449.3
934.5406	2035.1559	26272.05	25381.05
934.6778	2036.7261	26216.3	25324.75
934.8149	2038.2957	26152.4	25261.65
934.952	2039.8645	26109.1	25219.85
935.0891	2041.4325	26087.7	25192.3
935.2262	2042.9998	25906.8	25016.05
935.3632	2044.5664	25866	24971.45
935.5002	2046.1323	25764.15	24871.95
935.6372	2047.6974	25657.8	24766.35
935.7742	2049.2617	25610.35	24719.25
935.9111	2050.8254	25569.95	24656.65
936.048	2052.3883	25508.85	24616.8
936.1849	2053.9504	25391.55	24501.35
936.3218	2055.5118	25263.7	24372.85
936.4586	2057.0725	25158.6	24265.7
936.5955	2058.6325	25101.9	24209.55
936.7323	2060.1917	25040.75	24149.55
936.869	2061.7502	24979.95	24085.35
937.0058	2063.3079	24862.95	23971.2
937.1425	2064.8649	24807.3	23911.4
937.2792	2066.4212	24735.05	23842.7
937.4159	2067.9767	24626.1	23734.05
937.5525	2069.5315	24521.55	23630.65
937.6891	2071.0856	24436.2	23546.35
937.8257	2072.6389	24359.2	23467.85
937.9623	2074.1915	24188.55	23298.65
938.0989	2075.7433	24103.65	23210
938.2354	2077.2945	24016.55	23125.1
938.3719	2078.8448	23928.75	23037
938.5084	2080.3945	23879.55	22988.55
938.6448	2081.9434	23820.15	22929.6
938.7812	2083.4916	23738.4	22845.65
938.9176	2085.039	23636.7	22745.5
939.054	2086.5857	23527.15	22638.45
939.1903	2088.1317	23505.1	22613
939.3267	2089.677	23436.5	22545.05
939.463	2091.2215	23340.65	22448.6
939.5992	2092.7652	23271.35	22377
939.7355	2094.3083	23214.2	22322.45
939.8717	2095.8506	23122.45	22233
940.0079	2097.3921	23163.6	22272.8
940.1441	2098.933	23060.3	22167.95
940.2802	2100.4731	22990.35	22099.75
940.4163	2102.0124	22951.65	22053.1
940.5524	2103.5511	22893.8	22002.5
940.6885	2105.089	22806	21917.25
940.8245	2106.6261	22742.35	21851.15
940.9606	2108.1626	22689.6	21800.35
941.0965	2109.6983	22633.25	21709.7
941.2325	2111.2332	22550.85	21657.15
941.3684	2112.7675	22453.75	21561.2
941.5044	2114.301	22385.25	21490.6
941.6403	2115.8337	22349	21454.95
941.7761	2117.3657	22283.55	21393.2
941.912	2118.897	22222.25	21331.5
942.0478	2120.4276	22142.8	21244.65
942.1835	2121.9575	21996.4	21104.55
942.3193	2123.4866	22017.85	21110.7
942.455	2125.0149	21947.45	21053.6
942.5907	2126.5426	21801.3	20911.45
942.7264	2128.0695	21746.2	20851.75
942.8621	2129.5956	21722.75	20831.6
942.9977	2131.1211	21648.45	20751.1
943.1333	2132.6458	21595	20703.4
943.2689	2134.1698	21579	20685.35
943.4044	2135.693	21473.75	20578.55
943.54	2137.2155	21422.9	20528.3
943.6755	2138.7373	21365.45	20473.6
943.8109	2140.2584	21267.75	20376.1
943.9464	2141.7787	21217.6	20320.3
944.0818	2143.2983	21104.45	20212.35
944.2172	2144.8171	20959.65	20070.3
944.3526	2146.3353	20915.3	20021.95
944.4879	2147.8527	20837.25	19945.9
944.6232	2149.3693	20822.05	19929.6
944.7585	2150.8853	20717.4	19825.55
944.8938	2152.4005	20647.65	19755.65
945.029	2153.9149	20631	19737.25
945.1642	2155.4287	20529.5	19637.65
945.2994	2156.9417	20495.35	19603.45
945.4346	2158.454	20415.1	19519.1
945.5697	2159.9655	20361.05	19469
945.7048	2161.4764	20346.8	19453.4
945.8399	2162.9865	20234	19341.45
945.9749	2164.4958	20157.15	19264.95
946.1099	2166.0045	20096	19200.95
946.2449	2167.5124	20072.05	19181.3
946.3799	2169.0195	20019.1	19127.1
946.5148	2170.526	19971.6	19078.3
946.6498	2172.0317	19897.05	19005.15
946.7846	2173.5367	19818.7	18925.75
946.9195	2175.0409	19765.05	18874.5
947.0543	2176.5445	19765.9	18874.2
947.1891	2178.0473	19681.05	18789.65
947.3239	2179.5494	19578.75	18682.9
947.4587	2181.0507	19509.95	18616.8
947.5934	2182.5513	19454.2	18561.2
947.7281	2184.0512	19370.5	18478.3
947.8628	2185.5504	19298.85	18406.3
947.9974	2187.0488	19207.35	18315.3
948.132	2188.5465	19146.45	18253.6
948.2666	2190.0435	19076.4	18183.65
948.4012	2191.5397	18989.1	18098.7
948.5357	2193.0353	18969.75	18077.35
948.6702	2194.5301	18834.95	17940.4
948.8047	2196.0241	18795.7	17900.9
948.9392	2197.5175	18721.8	17829
949.0736	2199.0101	18643.65	17748.15
949.208	2200.502	18554.5	17663.55
949.3424	2201.9931	18461.3	17568.85
949.4767	2203.4835	18405.9	17513.3
949.611	2204.9733	18356.8	17459.4
949.7453	2206.4622	18318.55	17425.55
949.8796	2207.9505	18220	17324
950.0138	2209.438	18150.05	17260.7
950.148	2210.9248	18054.15	17159.8
950.2822	2212.4109	18049.65	17158.75
950.4164	2213.8962	17969.85	17075.95
950.5505	2215.3809	17931.5	17038.05
950.6846	2216.8648	17863.45	16971.45
950.8186	2218.3479	17798.05	16902.1
950.9527	2219.8304	17726.65	16830.85
951.0867	2221.3121	17674.85	16780.3
951.2207	2222.7931	17591.6	16698.7
951.3546	2224.2733	17539.25	16647.65
951.4886	2225.7529	17487.8	16594.35
951.6225	2227.2317	17381.45	16487.95
951.7563	2228.7098	17352.9	16461.8
951.8902	2230.1872	17270.1	16377.9
952.024	2231.6638	17244	16351.05
952.1578	2233.1397	17156.1	16259.5
952.2916	2234.6149	17108.8	16217
952.4253	2236.0894	17053.35	16161.05
952.559	2237.5632	17007.15	16103.4
952.6927	2239.0362	16924.1	16031.75
952.8263	2240.5085	16872.85	15979.3
952.9599	2241.9801	16825.8	15934.6
953.0935	2243.4509	16805.1	15912.3
953.2271	2244.921	16689.9	15798.5
953.3606	2246.3904	16634.75	15738.35
953.4941	2247.8591	16573.75	15683.1
953.6276	2249.3271	16550.2	15659.5
953.7611	2250.7943	16456.8	15563.8
953.8945	2252.2608	16376.55	15485.55
954.0279	2253.7266	16359.85	15467.25
954.1612	2255.1917	16302.2	15409.9
954.2946	2256.656	16206.4	15313.7
954.4279	2258.1197	16174.4	15284.25
954.5612	2259.5826	16141.9	15247.15
954.6944	2261.0447	16107.3	15213.9
954.8276	2262.5062	16009.75	15114.75
954.9608	2263.9669	16013.5	15120.25
955.094	2265.4269	15955.8	15063.3
955.2271	2266.8862	15883	14992.55
955.3602	2268.3448	15868.95	14976.05
955.4933	2269.8026	15822.6	14929
955.6264	2271.2598	15764.25	14871.95
955.7594	2272.7162	15702.2	14811.95
955.8924	2274.1719	15661.3	14768.8
956.0253	2275.6268	15584.15	14692.35
956.1583	2277.0811	15552.9	14660.8
956.2912	2278.5346	15480.9	14588.25
956.4241	2279.9874	15506.7	14614.4
956.5569	2281.4395	15446.15	14553.9
956.6897	2282.8908	15378.55	14478.8
956.8225	2284.3414	15306.3	14414.5
956.9553	2285.7914	15280.85	14387.15
957.088	2287.2406	15208.7	14313.85
957.2207	2288.689	15166.1	14273.85
957.3534	2290.1368	15116.3	14220.85
957.486	2291.5838	15060.9	14167.55
957.6186	2293.0302	15019.3	14126.6
957.7512	2294.4758	14949.35	14056.9
957.8838	2295.9206	14883.05	13989.55
958.0163	2297.3648	14844.8	13951.55
958.1488	2298.8082	14846.65	13953.8
958.2813	2300.251	14775.95	13882.85
958.4137	2301.693	14735.4	13839.05
958.5461	2303.1343	14728.95	13836.1
958.6785	2304.5748	14649.7	13755.8
958.8108	2306.0147	14576.55	13685.4
958.9432	2307.4538	14579.75	13683.85
959.0754	2308.8922	14517.15	13625.45
959.2077	2310.3299	14466.75	13574.55
959.3399	2311.7669	14429.8	13538.55
959.4721	2313.2031	14365.3	13474.85
959.6043	2314.6387	14304.75	13411.7
959.7365	2316.0735	14228.2	13334.15
959.8686	2317.5076	14210.5	13317.25
960.0006	2318.941	14186.2	13293.8
960.1327	2320.3737	14147	13253.65
960.2647	2321.8056	14083.75	13187.45
960.3967	2323.2369	13979.8	13087
960.5287	2324.6674	13956.3	13060.65
960.6606	2326.0972	13911	13016.1
960.7925	2327.5263	13841.4	12949.9
960.9244	2328.9547	13793.95	12900.95
961.0562	2330.3823	13781.1	12888
961.1881	2331.8092	13774.45	12880.5
961.3198	2333.2355	13694.85	12802.25
961.4516	2334.661	13703.25	12811.05
961.5833	2336.0858	13632.1	12737.95
961.715	2337.5098	13599.5	12707.5
961.8467	2338.9332	13576.6	12683.1
961.9783	2340.3558	13521.55	12624.9
962.1099	2341.7778	13472.45	12579.2
962.2415	2343.199	13398.6	12504.5
962.373	2344.6195	13385.75	12493.05
962.5045	2346.0393	13358.85	12468.45
962.636	2347.4583	13307.8	12415.75
962.7675	2348.8767	13249.1	12356.15
962.8989	2350.2943	13203.6	12311.4
963.0303	2351.7113	13163.1	12267.85
963.1617	2353.1275	13128.8	12236.4
963.293	2354.543	13106.45	12189.4
963.4243	2355.9578	13073.7	12182.05
963.5556	2357.3718	12977.75	12085.55
963.6868	2358.7852	12918.95	12023.05
963.818	2360.1978	12843	11950.9
963.9492	2361.6098	12818.45	11925.8
964.0803	2363.021	12782.4	11887.95
964.2114	2364.4315	12764.3	11870.95
964.3425	2365.8413	12684.8	11786.05
964.4736	2367.2504	12620.55	11729.1
964.6046	2368.6587	12597.65	11705.35
964.7356	2370.0664	12527.15	11634.7
964.8666	2371.4733	12485.65	11592.85
964.9975	2372.8795	12458.45	11567.4
965.1284	2374.285	12409.85	11517.85
965.2593	2375.6899	12326.4	11435.35
965.3901	2377.0939	12271.4	11379.7
965.5209	2378.4973	12235.9	11345.85
965.6517	2379.9	12199.65	11309
965.7825	2381.3019	12124.4	11231.95
965.9132	2382.7032	12095.2	11205.2
966.0439	2384.1037	12065.65	11175.05
966.1745	2385.5035	12030.65	11139.8
966.3051	2386.9027	11981.9	11090.4
966.4357	2388.3011	11947.4	11054.3
966.5663	2389.6987	11895.25	11002.35
966.6968	2391.0957	11866.65	10975.6
966.8273	2392.492	11803.95	10914.35
966.9578	2393.8876	11723.8	10832.8
967.0882	2395.2824	11680.5	10788.5
967.2186	2396.6765	11625.75	10733.7
967.349	2398.07	11578.75	10686.85
967.4793	2399.4627	11565.3	10672.5
967.6097	2400.8547	11530.8	10639.1
967.7399	2402.246	11484.1	10587.75
967.8702	2403.6366	11399.85	10507.55
968.0004	2405.0265	11374.1	10484.15
968.1306	2406.4156	11319.3	10425.6
968.2607	2407.8041	11291.65	10395.5
968.3909	2409.1918	11204.85	10312.8
968.521	2410.5789	11188.8	10299
968.651	2411.9652	11142.2	10246.6
968.781	2413.3508	11098.35	10206.9
968.911	2414.7358	11045.1	10152.95
969.041	2416.12	11037.2	10146.35
969.1709	2417.5035	11005.05	10115.5
969.3008	2418.8863	10943.15	10051.65
969.4307	2420.2684	10907.25	10019.1
969.5606	2421.6497	10857.5	9966.85
969.6904	2423.0304	10801.7	9909.25
969.8201	2424.4104	10786.55	9894.5
969.9499	2425.7896	10721	9822.3
970.0796	2427.1682	10698.55	9806.9
970.2093	2428.546	10669.65	9776.9
970.3389	2429.9232	10700.7	9808.1
970.4685	2431.2996	10626.1	9734.45
970.5981	2432.6753	10606.5	9715.85
970.7277	2434.0503	10570.75	9679.75
970.8572	2435.4246	10502.85	9609.45
970.9867	2436.7982	10487.8	9592.7
971.1161	2438.1711	10449.65	9559.5
971.2456	2439.5433	10401.9	9509.85
971.375	2440.9148	10358.4	9466.95
971.5043	2442.2856	10290.2	9398.85
971.6336	2443.6557	10279	9386.25
971.7629	2445.025	10250.65	9358.8
971.8922	2446.3937	10224.7	9333.1
972.0214	2447.7617	10198.55	9305.6
972.1506	2449.1289	10177.2	9286.6
972.2798	2450.4955	10117.3	9222.9
972.4089	2451.8613	10108.25	9217.35
972.538	2453.2265	10047.8	9155
972.6671	2454.5909	10035.1	9142.15
972.7961	2455.9546	10035.6	9144
972.9251	2457.3177	9953.5	9061.55
973.0541	2458.68	9943.1	9049.65
973.1831	2460.0416	9933.45	9042.3
973.312	2461.4025	9940.65	9049.05
973.4408	2462.7627	9881.4	8978.55
973.5697	2464.1222	9844.05	8952.95
973.6985	2465.4811	9810.2	8917.15
973.8273	2466.8392	9780.85	8887.65
973.956	2468.1966	9751.45	8856.15
974.0847	2469.5533	9752.7	8858.25
974.2134	2470.9093	9734.15	8840.6
974.3421	2472.2645	9677.3	8783.4
974.4707	2473.6191	9625.85	8735.3
974.5993	2474.973	9584.95	8693.55
974.7278	2476.3262	9562.1	8668.9
974.8563	2477.6787	9553.85	8662.75
974.9848	2479.0305	9494.65	8603.6
975.1132	2480.3816	9468.7	8577.05
975.2417	2481.7319	9414.2	8522.95
975.37	2483.0816	9364.25	8470.4
975.4984	2484.4306	9349.35	8456.05
975.6267	2485.7789	9306.5	8416
975.755	2487.1264	9242.95	8349
975.8833	2488.4733	9215.6	8324.2
976.0115	2489.8195	9184.25	8285.85
976.1397	2491.165	9147.5	8251.7
976.2678	2492.5097	9126.05	8232.85
976.3959	2493.8538	9082.5	8189.65
976.524	2495.1972	9031.7	8138.5
976.6521	2496.5398	9002.9	8109.25
976.7801	2497.8818	8978.95	8084.55
976.9081	2499.2231	8954	8062.7
977.036	2500.5637	8930.05	8037.05
977.164	2501.9035	8908.35	8013.55
977.2918	2503.2427	8873	7978.25
977.4197	2504.5812	8833.3	7939.7
977.5475	2505.919	8801.85	7908.2
977.6753	2507.256	8781.8	7890
977.8031	2508.5924	8745.8	7854.95
977.9308	2509.9281	8748.3	7851.7
978.0585	2511.2631	8690.4	7797.95
978.1861	2512.5974	8662.35	7771.35
978.3137	2513.9309	8609.9	7717.5
978.4413	2515.2638	8621	7694.7
978.5689	2516.596	8586.8	7694.8
978.6964	2517.9275	8533.4	7639.25
978.8239	2519.2583	8504	7611.75
978.9513	2520.5884	8436.7	7543.9
979.0788	2521.9178	8429.15	7537.95
979.2062	2523.2465	8410.45	7518.6
979.3335	2524.5745	8375.85	7483.4
979.4608	2525.9018	8330.25	7439.2
979.5881	2527.2284	8326.3	7435.95
979.7154	2528.5543	8289.55	7399.9
979.8426	2529.8796	8256.9	7365.3
979.9698	2531.2041	8240.95	7348.55
980.0969	2532.5279	8240.7	7348.8
980.224	2533.851	8217.65	7324.7
980.3511	2535.1735	8185.95	7293.2
980.4781	2536.4952	8148.6	7257.95
980.6052	2537.8163	8143	7249.85
980.7321	2539.1366	8114.35	7221.85
980.8591	2540.4562	8099.5	7206.9
980.986	2541.7752	8078.65	7186.95
981.1129	2543.0935	8070.6	7179.25
981.2397	2544.411	8043.3	7151.45
981.3665	2545.7279	8029.15	7135.45
981.4933	2547.0441	7981.4	7089.5
981.62	2548.3596	7983.65	7087.55
981.7467	2549.6744	7947.2	7054.65
981.8734	2550.9885	7918.9	7027.35
982.0001	2552.3019	7889.55	6996.1
982.1267	2553.6146	7877.25	6985.95
982.2532	2554.9266	7839.9	6945.85
982.3798	2556.2379	7836.95	6942.6
982.5063	2557.5485	7801.75	6912.75
982.6327	2558.8585	7801.5	6903.05
982.7592	2560.1677	7808.35	6911.85
982.8856	2561.4762	7747.3	6855.75
983.0119	2562.7841	7754.6	6860.05
983.1383	2564.0913	7731.55	6838.75
983.2646	2565.3977	7691.5	6800.95
983.3908	2566.7035	7679.85	6788.4
983.517	2568.0086	7665.25	6768.9
983.6432	2569.313	7654	6760.5
983.7694	2570.6167	7622.2	6726.05
983.8955	2571.9197	7585.35	6693.5
984.0216	2573.222	7623.7	6729.3
984.1476	2574.5236	7585.15	6691.65
984.2737	2575.8246	7561.15	6667.9
984.3996	2577.1248	7556.35	6662.85
984.5256	2578.4244	7518.95	6627.55
984.6515	2579.7232	7540.25	6648.65
984.7774	2581.0214	7523.25	6604.15
984.9032	2582.3189	7474.8	6583.25
985.029	2583.6157	7452.1	6556.5
985.1548	2584.9118	7440.2	6547.45
985.2806	2586.2072	7403.65	6511.8
985.4063	2587.5019	7394.5	6501.8
985.5319	2588.7959	7374.9	6481.4
985.6576	2590.0893	7368.2	6473.85
985.7832	2591.3819	7363.3	6472.3
985.9087	2592.6739	7310.45	6419.1
986.0343	2593.9652	7311	6416.65
986.1597	2595.2557	7291.55	6401.1
986.2852	2596.5456	7250.4	6356.2
986.4106	2597.8348	7233.4	6341.95
986.536	2599.1234	7199.2	6306.85
986.6614	2600.4112	7179.65	6287.45
986.7867	2601.6983	7160.25	6262.7
986.912	2602.9848	7117.7	6225.15
987.0372	2604.2705	7103	6204.5
987.1624	2605.5556	7094.65	6201.85
987.2876	2606.84	7060.3	6168.35
987.4128	2608.1237	7035.9	6142.8
987.5379	2609.4067	6995.15	6103.35
987.6629	2610.689	6974.7	6072.85
987.788	2611.9707	6965.35	6070.1
987.913	2613.2516	6945.1	6049.45
988.0379	2614.5319	6892.85	6002.35
988.1629	2615.8115	6856.9	5966
988.2878	2617.0903	6854.35	5959.85
988.4126	2618.3685	6836.25	5942.7
988.5375	2619.6461	6790	5896.95
988.6622	2620.9229	6778.95	5885.35
988.787	2622.199	6767.85	5875.35
988.9117	2623.4745	6760.4	5866.05
989.0364	2624.7493	6729.9	5837.4
989.161	2626.0234	6695.95	5806.3
989.2857	2627.2968	6674.8	5782.25
989.4102	2628.5695	6667.85	5775.25
989.5348	2629.8415	6607.95	5716.35
989.6593	2631.1128	6592.85	5698.8
989.7837	2632.3835	6542	5648.45
989.9082	2633.6535	6533.75	5640.9
990.0326	2634.9228	6504.45	5613.55
990.1569	2636.1914	6493.65	5601.6
990.2812	2637.4593	6495.7	5597.7
990.4055	2638.7265	6467.65	5575.65
990.5298	2639.9931	6446.3	5552.45
990.654	2641.259	6417.45	5525.1
990.7782	2642.5242	6403.3	5509.2
990.9023	2643.7887	6379.4	5487.05
991.0264	2645.0525	6363.55	5469.75
991.1505	2646.3156	6331.1	5437.55
991.2745	2647.5781	6318.5	5425.1
991.3985	2648.8398	6309.35	5416.7
991.5225	2650.1009	6270.6	5367.45
991.6464	2651.3613	6256.2	5362.55
991.7703	2652.6211	6233.4	5341.05
991.8942	2653.8801	6206.65	5314.05
992.018	2655.1385	6211.15	5317
992.1418	2656.3961	6190.3	5298.35
992.2655	2657.6531	6184.8	5291.5
992.3892	2658.9094	6167.15	5274.15
992.5129	2660.1651	6149.4	5256.85
992.6366	2661.42	6138	5246.7
992.7602	2662.6743	6111.9	5216
992.8837	2663.9279	6100.5	5210.75
993.0073	2665.1808	6093.3	5200.05
993.1307	2666.433	6068	5174.2
993.2542	2667.6846	6049.1	5157.05
993.3776	2668.9354	6028.1	5130.3
993.501	2670.1856	5992.15	5097.6
993.6244	2671.4351	6010.9	5119.55
993.7477	2672.6839	5995.6	5101.25
993.8709	2673.9321	5982.05	5090.2
993.9942	2675.1795	5951.95	5060.5
994.1174	2676.4263	5946.6	5053.65
994.2405	2677.6724	5934.05	5043.05
994.3637	2678.9179	5885.05	4993.7
994.4868	2680.1626	5886.45	4996.35
994.6098	2681.4067	5864.75	4972.4
994.7328	2682.6501	5842.9	4951.7
994.8558	2683.8928	5834.65	4943.2
994.9788	2685.1348	5791.2	4901.65
995.1017	2686.3761	5782.8	4892.5
995.2245	2687.6168	5782.05	4888.2
995.3474	2688.8568	5756.75	4865.95
995.4702	2690.0961	5727.9	4837
995.5929	2691.3348	5703.65	4812.45
995.7156	2692.5727	5688.15	4795.95
995.8383	2693.81	5685.6	4791.85
995.961	2695.0466	5661.05	4770.7
996.0836	2696.2826	5640.95	4748.4
996.2062	2697.5178	5640.7	4746.35
996.3287	2698.7524	5607.6	4714.5
996.4512	2699.9863	5610.7	4715.55
996.5737	2701.2195	5568	4676.45
996.6961	2702.452	5562	4667.75
996.8185	2703.6839	5554	4661.3
996.9408	2704.9151	5542.9	4652.7
997.0631	2706.1456	5514.8	4622.2
997.1854	2707.3755	5522.6	4629.45
997.3077	2708.6046	5502.8	4610.15
997.4299	2709.8331	5492.4	4598.95
997.552	2711.0609	5477.75	4585.65
997.6742	2712.2881	5439.9	4546.8
997.7963	2713.5145	5441.2	4546.45
997.9183	2714.7403	5436.35	4546.85
998.0403	2715.9654	5434.15	4542.75
998.1623	2717.1899	5426.7	4520.15
998.2842	2718.4136	5424.15	4530.55
998.4062	2719.6367	5402	4508.45
998.528	2720.8591	5411.2	4512.45
998.6498	2722.0809	5389.35	4497.4
998.7716	2723.3019	5390.6	4493.25
998.8934	2724.5223	5392.1	4497.4
999.0151	2725.7421	5373.75	4479.4
999.1368	2726.9611	5349.95	4457.15
999.2584	2728.1795	5336.1	4438.8
999.38	2729.3972	5327.05	4436.75
999.5016	2730.6142	5291.9	4393.15
999.6231	2731.8306	5246.9	4352.35
999.7446	2733.0462	5220.25	4326.75
999.8661	2734.2612	5207.1	4309.4
999.9875	2735.4756	5151.9	4255.35
1000.1089	2736.6892	5128.7	4235.85
1000.2302	2737.9022	5086.4	4196.85
1000.3515	2739.1145	5053.3	4161.9
1000.4728	2740.3262	5041.6	4141.95
1000.594	2741.5372	5016	4124.25
1000.7152	2742.7475	4972	4079.45
1000.8363	2743.9571	4946.5	4052.1
1000.9575	2745.1661	4930.2	4034.2
1001.0785	2746.3744	4909.45	4016.7
1001.1996	2747.582	4890.35	4000
1001.3206	2748.7889	4866.45	3972.3
1001.4415	2749.9952	4847.4	3956.95
1001.5625	2751.2008	4834.2	3942.25
1001.6833	2752.4057	4831.8	3936.3
1001.8042	2753.61	4803	3909.6
1001.925	2754.8136	4792.55	3898.3
1002.0458	2756.0165	4770.9	3878.35
1002.1665	2757.2188	4743.3	3851.9
1002.2872	2758.4204	4751.95	3861.1
1002.4078	2759.6213	4723.9	3828.8
1002.5285	2760.8215	4730.1	3833.75
1002.649	2762.0211	4695.05	3799.05
1002.7696	2763.22	4694	3799
1002.8901	2764.4182	4684.3	3790.2
1003.0106	2765.6158	4668.65	3775.8
1003.131	2766.8127	4635.7	3742.6
1003.2514	2768.009	4624.2	3732.3
1003.3717	2769.2045	4602.8	3709.9
1003.492	2770.3994	4595.5	3701.6
1003.6123	2771.5936	4580.4	3687.35
1003.7325	2772.7872	4557.95	3666.8
1003.8527	2773.9801	4542.2	3646.5
1003.9729	2775.1723	4539.8	3632.9
1004.093	2776.3639	4506.45	3612.2
1004.2131	2777.5548	4496.9	3603.1
1004.3331	2778.745	4489.4	3594.4
1004.4531	2779.9346	4477.1	3584.75
1004.5731	2781.1235	4485.6	3594.6
1004.693	2782.3117	4463.7	3572.55
1004.8129	2783.4992	4457.75	3566.1
1004.9328	2784.6861	4436.35	3543.05
1005.0526	2785.8723	4433.4	3541.55
1005.1723	2787.0579	4421.45	3529.25
1005.2921	2788.2428	4423	3530.25
1005.4118	2789.427	4404	3510.6
1005.5314	2790.6106	4392.35	3501.15
1005.651	2791.7935	4407.2	3514.4
1005.7706	2792.9757	4401.4	3511
1005.8902	2794.1573	4403.7	3511.35
1006.0097	2795.3382	4406.35	3513.4
1006.1291	2796.5184	4392.1	3501.85
1006.2485	2797.698	4411.6	3516.55
1006.3679	2798.8769	4403.65	3511.2
1006.4873	2800.0551	4398	3505.2
1006.6066	2801.2327	4401.25	3506.45
1006.7258	2802.4096	4409.05	3518.2
1006.8451	2803.5859	4440.35	3548.9
1006.9642	2804.7615	4427.25	3533.9
1007.0834	2805.9364	4423.4	3531.25
1007.2025	2807.1106	4453.2	3561.2
1007.3216	2808.2842	4465.25	3572.7
1007.4406	2809.4572	4484	3591.9
1007.5596	2810.6294	4510.05	3618.5
1007.6785	2811.801	4550.55	3658.95
1007.7975	2812.972	4580.3	3691.1
1007.9163	2814.1423	4616.85	3726.5
1008.0352	2815.3119	4650.1	3758.75
1008.154	2816.4808	4685.5	3796.05
1008.2727	2817.6491	4721.95	3830.5
1008.3914	2818.8167	4756	3865.65
1008.5101	2819.9837	4803.65	3906.4
1008.6288	2821.15	4837.6	3944.2
1008.7474	2822.3157	4869.55	3979.4
1008.8659	2823.4807	4905.1	4013.15
1008.9844	2824.645	4928.75	4036.15
1009.1029	2825.8086	4971.65	4080.95
1009.2214	2826.9716	4996.35	4104.4
1009.3398	2828.134	5017.35	4126.45
1009.4581	2829.2957	5058.15	4164.4
1009.5764	2830.4567	5075.95	4185.15
1009.6947	2831.617	5085.55	4192.6
1009.813	2832.7767	5076.5	4183.7
1009.9312	2833.9358	5093.55	4202.4
1010.0493	2835.0941	5085.25	4193.5
1010.1675	2836.2519	5060.2	4169.55
1010.2855	2837.4089	5007.85	4113.05
1010.4036	2838.5653	5027.05	4137.3
1010.5216	2839.7211	4993.8	4102
1010.6396	2840.8761	5004.95	4111.45
1010.7575	2842.0306	5012.45	4120.6
1010.8754	2843.1843	5055.4	4164.95
1010.9932	2844.3374	5098.95	4206.85
1011.111	2845.4899	5139.7	4246.65
1011.2288	2846.6417	5207.35	4315.15
1011.3465	2847.7928	5286.3	4395.65
1011.4642	2848.9433	5338.95	4447.65
1011.5818	2850.0931	5420.1	4528.15
1011.6995	2851.2422	5504.9	4612.35
1011.817	2852.3907	5567.1	4673.6
1011.9345	2853.5385	5634.4	4741.15
1012.052	2854.6857	5684.05	4765.7
1012.1695	2855.8323	5690.85	4798.95
1012.2869	2856.9781	5743.9	4852.75
1012.4042	2858.1233	5777.9	4887.25
1012.5216	2859.2679	5828.25	4937.45
1012.6389	2860.4118	5834.65	4941.75
1012.7561	2861.555	5875.6	4978.05
1012.8733	2862.6976	5903.05	5009.35
1012.9905	2863.8395	5927.4	5034.85
1013.1076	2864.9808	5949.7	5057.85
1013.2247	2866.1214	5946.3	5056.3
1013.3417	2867.2614	5937.35	5046.3
1013.4587	2868.4007	5948.95	5056.2
1013.5757	2869.5393	5932	5038.65
1013.6926	2870.6773	5978.1	5083.65
1013.8095	2871.8146	5957.65	5062.25
1013.9263	2872.9513	5954.9	5062.45
1014.0431	2874.0874	5931.6	5039.9
1014.1599	2875.2227	5927.1	5036
1014.2766	2876.3574	5901.35	5009.45
1014.3933	2877.4915	5857	4965.7
1014.51	2878.6249	5821.35	4930.8
1014.6266	2879.7577	5797.95	4905.7
1014.7431	2880.8898	5750.35	4847.45
1014.8596	2882.0212	5733.5	4842.5
1014.9761	2883.152	5705.6	4811.75
1015.0925	2884.2821	5674.9	4784.7
1015.2089	2885.4116	5666.35	4776.3
1015.3253	2886.5405	5651.35	4762.55
1015.4416	2887.6686	5661.2	4767.5
1015.5579	2888.7962	5638.4	4747.3
1015.6741	2889.923	5634.2	4743.15
1015.7903	2891.0493	5623.8	4734
1015.9065	2892.1748	5628.3	4736.55
1016.0226	2893.2997	5628.95	4736.8
1016.1387	2894.424	5637.3	4746.9
1016.2547	2895.5476	5641.45	4750.55
1016.3707	2896.6706	5683.35	4792.05
1016.4866	2897.7929	5708.95	4817.6
1016.6025	2898.9145	5726	4834.85
1016.7184	2900.0355	5738.9	4848.4
1016.8342	2901.1559	5776.55	4885.8
1016.95	2902.2756	5790.15	4894.35
1017.0658	2903.3946	5804.15	4912.85
1017.1815	2904.513	5831.55	4937.5
1017.2971	2905.6308	5841.7	4950.4
1017.4127	2906.7479	5847.2	4956.6
1017.5283	2907.8643	5867.05	4973.95
1017.6439	2908.9801	5879.65	4986.85
1017.7594	2910.0953	5857.2	4968
1017.8748	2911.2098	5868.55	4972.65
1017.9902	2912.3236	5839.3	4938.8
1018.1056	2913.4368	5830.55	4936.65
1018.2209	2914.5494	5808.95	4916.4
1018.3362	2915.6613	5753.55	4857.2
1018.4515	2916.7725	5730.75	4836.9
1018.5667	2917.8831	5687.5	4796
1018.6819	2918.9931	5661.95	4768.6
1018.797	2920.1024	5626.55	4734.4
1018.9121	2921.211	5583	4693.55
1019.0271	2922.319	5578.35	4688.2
1019.1421	2923.4264	5532.05	4639.35
1019.2571	2924.5331	5506.25	4614.7
1019.372	2925.6391	5502.05	4612
1019.4869	2926.7445	5480.1	4590.3
1019.6017	2927.8493	5453.05	4561.3
1019.7165	2928.9534	5452.75	4561.25
1019.8313	2930.0569	5434.45	4539.5
1019.946	2931.1597	5420.45	4529.7
1020.0606	2932.2619	5405.3	4514.9
1020.1753	2933.3634	5398.25	4508.3
1020.2899	2934.4643	5386.15	4489.1
1020.4044	2935.5645	5354.75	4456.2
1020.5189	2936.6641	5295.85	4399.6
1020.6334	2937.763	5257.2	4367.4
1020.7478	2938.8613	5206.05	4316.05
1020.8622	2939.959	5142.85	4244.45
1020.9765	2941.056	5050	4159.4
1021.0908	2942.1523	4952.4	4060.1
1021.2051	2943.248	4874.3	3980.4
1021.3193	2944.3431	4754.3	3863.2
1021.4334	2945.4375	4663.3	3770.05
1021.5476	2946.5313	4528.3	3637.4
1021.6617	2947.6244	4425.15	3534.55
1021.7757	2948.7169	4312.65	3421.7
1021.8897	2949.8087	4211.95	3319.5
1022.0037	2950.8999	4116.5	3224.5
1022.1176	2951.9904	4018.8	3128.6
1022.2315	2953.0803	3927.65	3034.75
1022.3453	2954.1696	3875.45	2985
1022.4591	2955.2582	3809.8	2921.15
1022.5728	2956.3462	3757.1	2865.95
1022.6865	2957.4335	3704.45	2812.5
1022.8002	2958.5202	3671.65	2777.75
1022.9138	2959.6062	3636.2	2744.75
1023.0274	2960.6916	3600.15	2709.25
1023.141	2961.7764	3574.7	2682.8
1023.2545	2962.8605	3543.3	2650.5
1023.3679	2963.9439	3527.4	2633.65
1023.4813	2965.0267	3491.85	2599.3
1023.5947	2966.1089	3502.8	2588.35
1023.708	2967.1905	3495.5	2603.65
1023.8213	2968.2714	3464.1	2575.3
1023.9346	2969.3516	3469.55	2579.25
1024.0478	2970.4312	3453.1	2554.2
1024.1609	2971.5102	3453.45	2560.95
1024.274	2972.5885	3437.1	2544.9
1024.3871	2973.6662	3448.15	2551.55
1024.5002	2974.7432	3432.15	2542.3
1024.6132	2975.8196	3419.15	2528.5
1024.7261	2976.8954	3391.6	2501.3
1024.839	2977.9705	3382.6	2490.75
1024.9519	2979.045	3366.05	2477.5
1025.0647	2980.1188	3335.8	2445.75
1025.1775	2981.192	3303.55	2412.8
1025.2902	2982.2645	3289.75	2397.85
1025.4029	2983.3364	3254.05	2362.9
1025.5156	2984.4077	3219.4	2329.9
1025.6282	2985.4783	3187.55	2289.9
1025.7407	2986.5483	3145.35	2254.75
1025.8532	2987.6177	3109.75	2218.8
1025.9657	2988.6864	3065.5	2173.3
1026.0782	2989.7545	3037.85	2145.55
1026.1906	2990.8219	2992.25	2100.95
1026.3029	2991.8887	2955.35	2062.75
1026.4152	2992.9548	2913.85	2023.3
1026.5275	2994.0204	2880.7	1989.2
1026.6397	2995.0852	2846.1	1956.55
1026.7519	2996.1495	2818.65	1925.05
1026.864	2997.2131	2788.4	1897.7
1026.9761	2998.276	2774.8	1883.6
1027.0882	2999.3383	2739.55	1848.95
1027.2002	3000.4	2722.9	1831.4
1027.3122	3001.4611	2683.5	1791.95
1027.4241	3002.5215	2681.1	1789.15
1027.536	3003.5812	2665.8	1774.35
1027.6478	3004.6404	2637.8	1745.35
1027.7596	3005.6989	2621.9	1728.65
1027.8714	3006.7567	2616.5	1724.2
1027.9831	3007.8139	2615.25	1702.35
1028.0947	3008.8705	2585.4	1693.85
1028.2064	3009.9264	2597.7	1702.8
1028.3179	3010.9818	2573.8	1683.9
1028.4295	3012.0364	2564.85	1672.8
1028.541	3013.0905	2552.65	1661.35
1028.6524	3014.1439	2545.55	1654.55
1028.7638	3015.1966	2540.95	1650.9
1028.8752	3016.2487	2530.15	1638.85
1028.9865	3017.3002	2534.1	1634.8
1029.0978	3018.3511	2517.8	1627.95
1029.209	3019.4013	2517.05	1627.05
1029.3202	3020.4509	2505.85	1615.8
1029.4314	3021.4998	2498.1	1606.2
1029.5425	3022.5481	2510.15	1619.95
1029.6535	3023.5958	2499.3	1609.6
1029.7645	3024.6428	2500.5	1608.15
1029.8755	3025.6892	2492.4	1601.1
1029.9864	3026.735	2492.75	1601.2
1030.0973	3027.7802	2484.3	1593.25
1030.2082	3028.8247	2484.75	1593.5
1030.319	3029.8685	2472.1	1579.4
1030.4297	3030.9118	2463.45	1569.65
1030.5404	3031.9544	2483.55	1593.45
1030.6511	3032.9963	2475.05	1584.75
1030.7617	3034.0376	2479.85	1587.6
1030.8723	3035.0783	2470.55	1576.95
1030.9829	3036.1184	2475.35	1582.9
1031.0934	3037.1578	2475.5	1586.5
1031.2038	3038.1966	2477.2	1585.4
1031.3142	3039.2348	2457.15	1566.7
1031.4246	3040.2723	2472.85	1572.5
1031.5349	3041.3092	2460.1	1570.7
1031.6452	3042.3455	2451.8	1561.2
1031.7554	3043.3811	2438.65	1547.1
1031.8656	3044.4161	2433.95	1541.55
1031.9758	3045.4505	2423.45	1531.2
1032.0859	3046.4842	2416.4	1523.35
1032.1959	3047.5173	2387.05	1497.75
1032.3059	3048.5498	2388.6	1497.95
1032.4159	3049.5816	2379.1	1488.2
1032.5258	3050.6128	2361.55	1469.75
1032.6357	3051.6434	2356.3	1463.9
1032.7455	3052.6734	2348.5	1457.2
1032.8553	3053.7027	2327	1434.95
1032.9651	3054.7314	2320.65	1429.35
1033.0748	3055.7594	2311	1420.3
1033.1845	3056.7868	2309.9	1417.8
1033.2941	3057.8136	2302.75	1412
1033.4037	3058.8398	2277.4	1387.85
1033.5132	3059.8653	2280.05	1389.45
1033.6227	3060.8902	2272.45	1382.95
1033.7321	3061.9145	2259.75	1368.75
1033.8415	3062.9381	2251.25	1361.3
1033.9509	3063.9612	2251.5	1344.95
1034.0602	3064.9835	2220.4	1330.5
1034.1694	3066.0053	2211.2	1318.35
1034.2787	3067.0264	2208.8	1319.65
1034.3878	3068.0469	2193.75	1302.15
1034.497	3069.0668	2188.5	1295.3
1034.6061	3070.086	2178.4	1288.75
1034.7151	3071.1046	2159.7	1269.95
1034.8241	3072.1226	2156.35	1266
1034.9331	3073.1399	2138.15	1247.05
1035.042	3074.1567	2122.65	1233.15
1035.1508	3075.1727	2106.4	1212.7
1035.2597	3076.1882	2090.65	1198.1
1035.3684	3077.203	2075.95	1184.05
1035.4772	3078.2173	2085.65	1194
1035.5859	3079.2308	2066.95	1173.9
1035.6945	3080.2438	2046.6	1153.9
1035.8031	3081.2561	2045.6	1153.65
1035.9117	3082.2678	2023.15	1132.65
1036.0202	3083.2789	2020.1	1128.9
1036.1286	3084.2893	2003.75	1114.35
1036.2371	3085.2991	2002.75	1110.55
1036.3454	3086.3083	1988.15	1091.75
1036.4538	3087.3169	1985.2	1092.3
1036.562	3088.3248	1973.5	1079.9
1036.6703	3089.3321	1954.5	1063.3
1036.7785	3090.3388	1957.3	1067.25
1036.8866	3091.3449	1939	1048.75
1036.9948	3092.3503	1940.5	1047.2
1037.1028	3093.3551	1918.35	1026.95
1037.2108	3094.3593	1932.5	1041.5
1037.3188	3095.3629	1909.15	1020.5
1037.4267	3096.3658	1915.75	1025.8
1037.5346	3097.3681	1902.1	1012.7
1037.6425	3098.3698	1896.85	1004.25
1037.7503	3099.3708	1900.1	1002.8
1037.858	3100.3713	1882.05	991.05
1037.9657	3101.3711	1880.9	989.3
1038.0734	3102.3702	1976.95	974.1
1038.181	3103.3688	1876	985.15
1038.2886	3104.3667	1867.1	978.35
1038.3961	3105.364	1850.25	960.95
1038.5036	3106.3607	1850.25	957.9
1038.611	3107.3568	1836.55	942.9
1038.7184	3108.3522	1832.4	943.5
1038.8257	3109.347	1830.85	938
1038.933	3110.3412	1828.05	934.75
1039.0403	3111.3348	1809.05	917.2
1039.1475	3112.3277	1805.35	915.2
1039.2547	3113.32	1797.5	907.65
1039.3618	3114.3117	1796.4	906.85
1039.4689	3115.3028	1792.4	901.35
1039.5759	3116.2932	1787.4	894.45
1039.6829	3117.2831	1785.55	889.25
1039.7898	3118.2723	1778	887
1039.8967	3119.2608	1770.6	880.25
1040.0035	3120.2488	1767.1	877.9
1040.1103	3121.2361	1765.7	875.8
1040.2171	3122.2229	1763.2	873.3
1040.3238	3123.209	1757.25	866.15
1040.4305	3124.1944	1746.7	855.35
1040.5371	3125.1793	1749.65	858.4
1040.6437	3126.1635	1732.9	842.35
1040.7502	3127.1471	1730.2	840
1040.8567	3128.1301	1737.2	847.1
1040.9631	3129.1125	1736.4	844.9
1041.0695	3130.0942	1723.85	833.45
1041.1759	3131.0753	1725.15	826.55
1041.2822	3132.0558	1712.05	818.9
1041.3884	3133.0357	1700.75	809.35
1041.4946	3134.015	1710.3	819.9
1041.6008	3134.9936	1712.1	819.85
1041.7069	3135.9716	1726.6	813.35
1041.813	3136.949	1694.85	804.6
1041.919	3137.9258	1695.25	799.5
1042.025	3138.902	1682.8	787
1042.1309	3139.8775	1682.1	793.65
1042.2368	3140.8524	1685.4	796.05
1042.3427	3141.8267	1669.65	778.2
1042.4485	3142.8004	1665.55	774.45
1042.5542	3143.7735	1668.9	772.45
1042.6599	3144.7459	1668.3	775.1
1042.7656	3145.7178	1661.1	769.4
1042.8712	3146.689	1653.5	763.1
1042.9768	3147.6596	1648.9	756.65
1043.0823	3148.6295	1644.3	753.6
1043.1878	3149.5989	1647.6	759.1
1043.2932	3150.5676	1636.55	748.05
1043.3986	3151.5357	1632.95	744.4
1043.5039	3152.5032	1627.35	738.35
1043.6092	3153.4701	1627	735.45
1043.7145	3154.4364	1618	725.25
1043.8197	3155.402	1617.45	728.1
1043.9248	3156.367	1612.4	718.8
1044.03	3157.3315	1650.55	718.6
1044.135	3158.2952	1612.3	722.45
1044.24	3159.2584	1601.2	712.65
1044.345	3160.221	1597.45	706.15
1044.4499	3161.1829	1588.15	698.5
1044.5548	3162.1442	1593.9	703.4
1044.6596	3163.105	1581.1	690.55
1044.7644	3164.065	1578.85	684.4
1044.8692	3165.0245	1574.35	680.2
1044.9739	3165.9834	1568.75	678.75
1045.0785	3166.9416	1563.9	674.25
1045.1831	3167.8993	1566.5	677.5
1045.2877	3168.8563	1557.4	667
1045.3922	3169.8127	1551.45	662.6
1045.4966	3170.7684	1544	655.05
1045.6011	3171.7236	1547.45	655.8
1045.7054	3172.6782	1542.3	652.55
1045.8098	3173.6321	1544.1	652.7
1045.914	3174.5854	1541.2	648.95
1046.0183	3175.5381	1531.15	641.2
1046.1224	3176.4902	1524.45	636.1
1046.2266	3177.4417	1526.5	638.05
1046.3307	3178.3926	1518.9	628.95
1046.4347	3179.3428	1515.85	625.6
1046.5387	3180.2924	1508.65	620.25
1046.6427	3181.2415	1517.25	624
1046.7466	3182.1899	1502.15	612.1
1046.8504	3183.1377	1506.3	615.85
1046.9542	3184.0848	1504.85	612.3
1047.058	3185.0314	1493.45	603.75
1047.1617	3185.9773	1497.85	608.3
1047.2654	3186.9227	1496.55	607.05
1047.369	3187.8674	1484.55	594.95
1047.4726	3188.8115	1487.65	593.35
1047.5761	3189.755	1479.65	588.7
1047.6796	3190.6979	1476.25	586.85
1047.783	3191.6402	1478.5	588.65
1047.8864	3192.5818	1486.6	596.8
1047.9898	3193.5229	1488.85	573.2
1048.0931	3194.4633	1466.4	576.05
1048.1963	3195.4031	1466.6	576.7
1048.2995	3196.3423	1464.25	573.95
1048.4027	3197.2809	1456.1	566.8
1048.5058	3198.2189	1449.7	557.6
1048.6089	3199.1563	1456.45	560.9
1048.7119	3200.0931	1445.05	555.5
1048.8148	3201.0292	1450.8	560.45
1048.9178	3201.9648	1445.4	555.65
1049.0206	3202.8997	1443.25	551.2
1049.1235	3203.834	1431.75	542
1049.2262	3204.7677	1436.55	545.4
1049.329	3205.7008	1432.15	538.95
1049.4317	3206.6333	1433.05	543.1
1049.5343	3207.5652	1427.25	536.25
1049.6369	3208.4964	1421.4	531.95
1049.7394	3209.4271	1426.7	538.25
1049.8419	3210.3571	1418.95	530.45
1049.9444	3211.2865	1416.65	526.75
1050.0468	3212.2154	1416.1	525.1
1050.1491	3213.1436	1420.05	527.75
1050.2514	3214.0712	1419.4	521.7
1050.3537	3214.9982	1405.95	517.05
1050.4559	3215.9246	1408.95	518.25
1050.5581	3216.8503	1402.9	513.1
1050.6602	3217.7755	1399.8	508.55
1050.7623	3218.7001	1396.75	506.75
1050.8643	3219.624	1400.5	508.6
1050.9663	3220.5473	1397.7	508.2
1051.0682	3221.4701	1390.7	498.55
1051.1701	3222.3922	1389.5	496.1
1051.2719	3223.3137	1383.45	492.7
1051.3737	3224.2346	1381.95	492.35
1051.4754	3225.1549	1378.7	488.8
1051.5771	3226.0746	1375.15	485.75
1051.6788	3226.9937	1371.3	481.3
1051.7804	3227.9121	1367.45	478.3
1051.8819	3228.83	1371.8	480.95
1051.9834	3229.7473	1364.05	475.35
1052.0849	3230.6639	1356.5	466.9
1052.1863	3231.5799	1353.15	464
1052.2876	3232.4954	1354.4	462.8
1052.3889	3233.4102	1358.1	468.55
1052.4902	3234.3244	1356.05	464.85
1052.5914	3235.238	1350	460.05
1052.6926	3236.151	1363.6	448.75
1052.7937	3237.0634	1346.5	456.7
1052.8948	3237.9752	1341.1	450.4
1052.9958	3238.8864	1343.7	452.6
1053.0968	3239.797	1334.95	444.6
1053.1977	3240.7069	1330.75	438.95
1053.2986	3241.6163	1330.8	438.5
1053.3994	3242.5251	1329.2	439.8
1053.5002	3243.4332	1323.3	433.8
1053.6009	3244.3408	1323.05	434.05
1053.7016	3245.2477	1316	425.3
1053.8022	3246.154	1311.65	421.25
1053.9028	3247.0598	1325.8	434.45
1054.0034	3247.9649	1312.4	422.3
1054.1039	3248.8694	1315.3	425.05
1054.2043	3249.7733	1308.4	418.95
1054.3047	3250.6766	1302.4	414.2
1054.4051	3251.5793	1304.55	412.55
1054.5054	3252.4814	1298.35	408.3
1054.6056	3253.3829	1296.4	407.2
1054.7058	3254.2838	1297.75	408.1
1054.806	3255.1841	1287.65	398.45
1054.9061	3256.0838	1286.45	395.6
1055.0061	3256.9829	1286.55	396.9
1055.1062	3257.8814	1279.5	385.95
1055.2061	3258.7792	1278.4	386.55
1055.306	3259.6765	1273.25	383.2
1055.4059	3260.5731	1265.25	378.65
1055.5057	3261.4692	1267.4	376.6
1055.6055	3262.3647	1255.9	366.65
1055.7052	3263.2595	1254.3	363.35
1055.8049	3264.1538	1247.4	356.1
1055.9045	3265.0474	1247.7	358.95
1056.0041	3265.9404	1236.7	348.05
1056.1036	3266.8329	1231.8	343.15
1056.2031	3267.7247	1230.5	330.65
1056.3025	3268.616	1216.05	327.7
1056.4019	3269.5066	1212	323.6
1056.5013	3270.3966	1205.85	315.3
1056.6005	3271.286	1193.3	303.9
