Software Version:	3.9.2.0
Unit SN:	10000200
Spectrometer SN:	6960
Date:	3/6/2024 9:58:19 AM
Data Line Index:	25
Spectral Points:	2048
Integration time (ms):	125
Averages:	20
Delay (ms):	30
Sequence Number:	1
Processing:	dark subtract
Laser Power (mW):	300
Laser Current (mA):	826
Laser Diode Temp (C):	25.1
Laser Case Temp (C):	24.6
System Temp (C):	24.4
Spectrometer Temp (C):	22
CCD Temp (C):	-0.009
Secondary Temp (C):	20.023
Heatsink Temp (C):	18.295
CCDPCB Temp (C):	32.105
SecondaryPCB Temp (C):	26.014

Wavelength	RamanShift	Raw Counts	Dark Subtracted
787.061	30.1047	695.1	288.05
787.2016	32.3739	705.6	299.55
787.3422	34.6426	733.3	323.75
787.4828	36.9109	753.85	344.95
787.6235	39.1787	777.4	365.05
787.7642	41.4461	799.95	382.65
787.9049	43.7131	820.45	401.1
788.0456	45.9796	854.7	432
788.1863	48.2456	885.45	458.6
788.3271	50.5112	917.4	483.75
788.4679	52.7764	943.75	509.1
788.6087	55.0411	973.3	534.3
788.7496	57.3054	1010.75	568.7
788.8904	59.5692	1050.65	603.65
789.0313	61.8326	1092.6	643.95
789.1722	64.0955	1144.25	693.55
789.3132	66.3579	1187.25	731.35
789.4541	68.6199	1264.35	803.6
789.5951	70.8815	1380.7	916.35
789.7361	73.1426	1638.25	1170.25
789.8771	75.4032	2300.65	1829.6
790.0181	77.6634	3964.3	3490.3
790.1592	79.9231	8155.65	7675.45
790.3003	82.1824	19194.8	18705.35
790.4414	84.4412	39648.05	39143.2
790.5825	86.6995	54471.95	53949.15
790.7237	88.9574	60101.7	59562.9
790.8648	91.2148	62457.85	61907.75
791.006	93.4717	63006.6	62449.1
791.1472	95.7282	63178.25	62617.05
791.2885	97.9842	63254	62688.35
791.4297	100.2398	63265.6	62696.6
791.571	102.4949	63262.6	62692.35
791.7123	104.7495	63251.2	62681.25
791.8536	107.0036	63221	62645.7
791.9949	109.2573	63263.25	62690.95
792.1363	111.5105	63244.3	62670.6
792.2777	113.7632	63256.95	62679.7
792.4191	116.0154	63271.9	62681.75
792.5605	118.2672	63304.6	62721.85
792.7019	120.5185	63310.55	62727.65
792.8434	122.7693	63315.1	62723.65
792.9849	125.0197	63284.25	62692.9
793.1264	127.2696	63355.25	62756.15
793.2679	129.519	63360.3	62761.3
793.4094	131.7679	63382	62778.7
793.551	134.0163	63318.3	62712.15
793.6926	136.2642	63345.6	62737.1
793.8342	138.5117	63385.55	62776.2
793.9758	140.7587	63366.25	62753.85
794.1175	143.0052	63366.95	62753.2
794.2591	145.2512	63333.4	62718.65
794.4008	147.4967	63394.5	62778.25
794.5425	149.7417	63370.2	62751.15
794.6842	151.9863	63369.5	62744.5
794.826	154.2304	63333.55	62706.05
794.9677	156.4739	63360.35	62724.65
795.1095	158.717	63392.25	62757.95
795.2513	160.9596	63369.95	62734.35
795.3931	163.2017	63324.25	62686.05
795.535	165.4433	63369.8	62731.6
795.6768	167.6844	63344.55	62700.6
795.8187	169.925	63372.9	62727.7
795.9606	172.1651	63341.5	62689.5
796.1025	174.4047	63348.5	62697.45
796.2445	176.6439	63353.35	62701.35
796.3864	178.8825	63348.05	62690.8
796.5284	181.1206	63388.4	62724.8
796.6704	183.3582	63367.8	62698.55
796.8124	185.5954	63350.65	62682.8
796.9544	187.832	63362.9	62688.5
797.0965	190.0681	63343.85	62669.25
797.2386	192.3037	63389	62712.6
797.3806	194.5388	63444.9	62764
797.5228	196.7734	63316.85	62635.35
797.6649	199.0075	63437.2	62753.6
797.807	201.2411	63400.15	62719.75
797.9492	203.4742	63459.7	62770.25
798.0914	205.7068	63457.25	62767.3
798.2336	207.9389	63448.6	62755.95
798.3758	210.1704	63432.7	62743.35
798.518	212.4015	63474.95	62798.8
798.6603	214.632	63419.45	62747.05
798.8025	216.862	63485.35	62816.25
798.9448	219.0915	63464.95	62793.85
799.0871	221.3205	63447.7	62772.4
799.2294	223.549	63503	62833
799.3718	225.777	63494.6	62824.55
799.5141	228.0044	63529.65	62850.5
799.6565	230.2314	63493.7	62812.55
799.7989	232.4578	63486.1	62806.4
799.9413	234.6837	63503.55	62811.95
800.0837	236.909	63607.6	62911.85
800.2262	239.1339	63487.05	62769.1
800.3687	241.3582	63542.45	62840.25
800.5111	243.582	63538.1	62803.4
800.6536	245.8053	63542	62824.1
800.7961	248.0281	63542.85	62826.5
800.9387	250.2503	63552.85	62832.85
801.0812	252.472	63513.5	62792.2
801.2238	254.6932	63550.25	62827.4
801.3664	256.9139	63551.3	62826.05
801.509	259.134	63640.35	62910.5
801.6516	261.3536	63526.9	62801.95
801.7942	263.5727	63586.4	62858.1
801.9369	265.7912	63553.2	62825.45
802.0795	268.0092	63566.95	62836.1
802.2222	270.2267	63580.3	62853
802.3649	272.4436	63531.35	62800.75
802.5076	274.6601	63569.95	62832.55
802.6504	276.8759	63595.85	62859.65
802.7931	279.0913	63568.95	62834.3
802.9359	281.3061	63575.1	62839.5
803.0787	283.5204	63587.5	62848.75
803.2215	285.7341	63594.6	62852.95
803.3643	287.9473	63637.1	62882.3
803.5071	290.16	63597.55	62848.5
803.6499	292.3721	63612.3	62873.5
803.7928	294.5837	63583.05	62837.4
803.9357	296.7947	63545.45	62796.25
804.0786	299.0052	63611.1	62870.45
804.2215	301.2152	63591.55	62845.35
804.3644	303.4246	63626.15	62881.75
804.5074	305.6334	63618.85	62876.25
804.6503	307.8418	63570.45	62820.35
804.7933	310.0495	63562.95	62811.9
804.9363	312.2568	63561.4	62808.7
805.0793	314.4635	63555.7	62802.7
805.2223	316.6696	63587.25	62832.25
805.3653	318.8752	63598.85	62835.25
805.5084	321.0802	63504.55	62748.1
805.6514	323.2847	63559.25	62800.25
805.7945	325.4887	63545.55	62784.45
805.9376	327.692	63524.55	62763.55
806.0807	329.8949	63551	62788.7
806.2238	332.0972	63522.55	62757.7
806.367	334.2989	63546.65	62777.35
806.5101	336.5001	63584.7	62816.2
806.6533	338.7007	63504.8	62735.6
806.7965	340.9008	63547.45	62776.75
806.9397	343.1003	63561.05	62789.25
807.0829	345.2992	63588.95	62817.45
807.2261	347.4976	63549.05	62773.45
807.3693	349.6955	63568.7	62790.1
807.5126	351.8927	63533.6	62753.05
807.6559	354.0895	63550.55	62761.6
807.7991	356.2856	63558.45	62778.6
807.9424	358.4812	63582.7	62801.75
808.0857	360.6763	63524.6	62739.85
808.2291	362.8707	63586	62798.25
808.3724	365.0646	63535.7	62747.05
808.5158	367.258	63549.55	62760.7
808.6591	369.4508	63510.65	62719.1
808.8025	371.643	63564.4	62769.75
808.9459	373.8346	63532.55	62738.15
809.0893	376.0257	63548.35	62749.25
809.2327	378.2162	63519.05	62722.45
809.3762	380.4062	63484.15	62687.75
809.5196	382.5956	63524.75	62727.5
809.6631	384.7844	63508.1	62716.8
809.8066	386.9726	63531.2	62739.65
809.9501	389.1603	63518.45	62730.3
810.0936	391.3474	63488.95	62666.8
810.2371	393.5339	63523.35	62731.15
810.3806	395.7199	63468.7	62680.25
810.5241	397.9052	63490.05	62698.3
810.6677	400.09	63496	62705.45
810.8113	402.2743	63513.4	62721.3
810.9548	404.4579	63480	62686.2
811.0984	406.641	63487.75	62693.95
811.2421	408.8235	63506.5	62715.75
811.3857	411.0054	63502.7	62704.35
811.5293	413.1868	63510.15	62709.95
811.673	415.3675	63501.3	62695.2
811.8166	417.5477	63511.4	62708.05
811.9603	419.7273	63501.6	62693.25
812.104	421.9064	63474.9	62657.95
812.2477	424.0848	63494.3	62685.85
812.3914	426.2627	63515.1	62707.15
812.5351	428.4399	63477.9	62668
812.6788	430.6166	63418.75	62602.35
812.8226	432.7928	63478.6	62660.9
812.9663	434.9683	63433.4	62619.2
813.1101	437.1432	63435.7	62619.15
813.2539	439.3176	63451.25	62638.05
813.3977	441.4914	63391.05	62579.2
813.5415	443.6645	63392.95	62578.25
813.6853	445.8371	63399.8	62584.05
813.8291	448.0091	63369.95	62552.55
813.973	450.1806	63356	62540.75
814.1168	452.3514	63361.05	62543.05
814.2607	454.5216	63335.65	62509.4
814.4046	456.6913	63364.15	62545.45
814.5485	458.8603	63359.6	62540.8
814.6924	461.0288	63315.8	62498.65
814.8363	463.1967	63351.1	62536.4
814.9802	465.3639	63342	62524.1
815.1241	467.5306	63277.8	62457.8
815.2681	469.6967	63322.85	62506.25
815.412	471.8622	63349.15	62531.65
815.556	474.0271	63319.35	62500.75
815.7	476.1914	63331.25	62506.2
815.844	478.3551	63333	62512.7
815.988	480.5182	63349.15	62526.4
816.132	482.6807	63303.8	62484.85
816.276	484.8426	63312.65	62495.95
816.4201	487.0039	63367.95	62546.85
816.5641	489.1647	63356.9	62534.85
816.7082	491.3248	63304.05	62478.65
816.8522	493.4843	63358.85	62537.6
816.9963	495.6432	63371.95	62548
817.1404	497.8015	63306.75	62476.5
817.2845	499.9592	63328.2	62499.9
817.4286	502.1163	63328.45	62497.9
817.5727	504.2728	63318.9	62487.45
817.7168	506.4287	63325.55	62499.85
817.861	508.5839	63286	62460.15
818.0051	510.7386	63302.85	62474.85
818.1493	512.8927	63331.45	62497.5
818.2935	515.0461	63307	62472.3
818.4377	517.199	63334.5	62500.5
818.5818	519.3512	63306.75	62471.7
818.726	521.5029	63309.9	62470.4
818.8703	523.6539	63318.7	62484.1
819.0145	525.8043	63276.75	62437.25
819.1587	527.9541	63309.5	62469
819.303	530.1033	63312.75	62473.75
819.4472	532.2519	63279.5	62441.45
819.5915	534.3999	63305.7	62462.45
819.7357	536.5472	63322.1	62481.95
819.88	538.694	63261.35	62426.05
820.0243	540.8401	63303.55	62466.5
820.1686	542.9856	63312.6	62470.1
820.3129	545.1305	63314.35	62466.45
820.4572	547.2748	63283.5	62431.8
820.6016	549.4185	63296.65	62447.55
820.7459	551.5615	63300.3	62450.9
820.8902	553.704	63290.15	62442.7
821.0346	555.8458	63263	62421.2
821.1789	557.987	63272.3	62427.65
821.3233	560.1276	63278.4	62432.65
821.4677	562.2675	63266.45	62419.8
821.6121	564.4069	63269.65	62422.05
821.7565	566.5456	63292.75	62446.45
821.9009	568.6837	63257.35	62409.5
822.0453	570.8212	63272.5	62426.6
822.1897	572.958	63231.95	62384.65
822.3342	575.0942	63255.4	62410.4
822.4786	577.2299	63218.9	62374.9
822.6231	579.3648	63213.3	62373.4
822.7675	581.4992	63204.95	62367.3
822.912	583.6329	63173.75	62337.35
823.0565	585.766	63172.95	62331.25
823.201	587.8985	63185.2	62346.85
823.3454	590.0304	63133.35	62272.3
823.4899	592.1616	63172.35	62320.75
823.6345	594.2922	63150.3	62298.25
823.779	596.4222	63131.75	62276.95
823.9235	598.5515	63134.4	62280.35
824.068	600.6802	63157.45	62300.15
824.2126	602.8083	63105.35	62251.6
824.3571	604.9358	63107.15	62255.1
824.5017	607.0626	63126	62271.35
824.6462	609.1888	63080.9	62223
824.7908	611.3144	63110.75	62251.4
824.9354	613.4393	63088.55	62229.75
825.08	615.5636	63077	62219.5
825.2246	617.6873	63088.2	62231.15
825.3692	619.8103	63082.05	62225.25
825.5138	621.9327	63081.55	62222.6
825.6584	624.0544	63090.5	62234.85
825.803	626.1756	63075.25	62219.4
825.9477	628.2961	63085.55	62226.55
826.0923	630.4159	63049.95	62192.6
826.237	632.5351	63041.75	62182.3
826.3816	634.6537	63065.2	62205.35
826.5263	636.7716	63038.45	62173.4
826.6709	638.8889	63057.45	62194.4
826.8156	641.0056	63071.6	62204.5
826.9603	643.1216	63047.85	62181.25
827.105	645.237	63055.75	62193.5
827.2497	647.3518	63014	62152.95
827.3944	649.4659	63036.7	62177.3
827.5391	651.5793	63034.15	62175.05
827.6838	653.6922	63024.8	62164.95
827.8285	655.8043	63011.75	62151.9
827.9733	657.9159	63032.2	62168.8
828.118	660.0268	62974.55	62110.75
828.2627	662.137	63001.65	62137.55
828.4075	664.2466	63009.2	62142.85
828.5522	666.3556	62988.1	62122.55
828.697	668.4639	62991	62122.7
828.8418	670.5716	62993.95	62130.5
828.9865	672.6786	62989.5	62127.05
829.1313	674.785	62955.15	62085.95
829.2761	676.8907	62970.75	62103.15
829.4209	678.9958	62962.25	62099.3
829.5657	681.1002	62966.65	62098.6
829.7105	683.204	62949.7	62074.15
829.8553	685.3072	62940.7	62067.75
830.0001	687.4097	62936.3	62066.75
830.1449	689.5115	62938.1	62068.35
830.2898	691.6127	62944.2	62075.8
830.4346	693.7132	62914.1	62045
830.5794	695.8131	62939.75	62049.55
830.7243	697.9123	62931.7	62056.8
830.8691	700.0109	62927.35	62054.1
831.014	702.1089	62892.7	62020.1
831.1588	704.2061	62899.15	62025.8
831.3037	706.3028	62891.75	62017.5
831.4486	708.3987	62909.95	62037.9
831.5935	710.4941	62893.1	62020.9
831.7383	712.5887	62894.95	62020.5
831.8832	714.6827	62874.1	61996.5
832.0281	716.7761	62900.45	62028.05
832.173	718.8688	62899.5	62024.45
832.3179	720.9608	62883.8	62005.5
832.4628	723.0522	62880.55	62002
832.6077	725.1429	62845.55	61969.75
832.7527	727.233	62888.9	62013.35
832.8976	729.3224	62793.3	61915.7
833.0425	731.4112	62848.6	61972.65
833.1874	733.4993	62828.4	61949
833.3324	735.5867	62829.85	61953.75
833.4773	737.6735	62817.9	61938.85
833.6222	739.7596	62769.55	61890.4
833.7672	741.845	62776.85	61896.65
833.9122	743.9298	62806.8	61928.25
834.0571	746.014	62754.3	61875.85
834.2021	748.0974	62688.75	61808.3
834.347	750.1802	62786.05	61903.55
834.492	752.2624	62658.2	61774
834.637	754.3439	62657.3	61774.85
834.782	756.4247	62699.55	61810.9
834.9269	758.5048	62618.75	61736.45
835.0719	760.5843	62646.3	61763
835.2169	762.6631	62659.95	61776.15
835.3619	764.7413	62577.75	61696.65
835.5069	766.8188	62578.25	61695.75
835.6519	768.8956	62644.45	61757.7
835.7969	770.9718	62621.85	61740.5
835.9419	773.0473	62576.25	61693.1
836.0869	775.1221	62464	61583.05
836.232	777.1962	62478.55	61596.6
836.377	779.2697	62295.75	61415.65
836.522	781.3426	62402.2	61497.25
836.667	783.4147	62421.4	61536.75
836.8121	785.4862	62405.15	61523.4
836.9571	787.557	62185.3	61302.95
837.1021	789.6271	62417.7	61532.55
837.2472	791.6966	62313.2	61429.85
837.3922	793.7654	62109.35	61223.75
837.5373	795.8335	62137.85	61252.65
837.6823	797.901	62207.6	61322.45
837.8274	799.9678	62089.1	61202.25
837.9724	802.0339	62028.95	61142.4
838.1175	804.0993	62060.6	61164.55
838.2626	806.1641	61961.65	61073.3
838.4076	808.2282	61926	61043.35
838.5527	810.2916	61871.8	60982.45
838.6978	812.3544	62034.15	61149.7
838.8428	814.4164	61809.8	60925.95
838.9879	816.4778	61821.75	60933.9
839.133	818.5385	61851.85	60962.4
839.2781	820.5986	61809.6	60920.85
839.4232	822.658	61839.15	60949.05
839.5682	824.7166	61856.6	60970.6
839.7133	826.7747	61662.9	60774.75
839.8584	828.832	61761.3	60870.45
840.0035	830.8886	61844.7	60953.65
840.1486	832.9446	61831	60939.7
840.2937	834.9999	61515.45	60626.05
840.4388	837.0545	61645.3	60751.1
840.5839	839.1085	61745.25	60854.7
840.729	841.1618	61660.85	60768.9
840.8741	843.2143	61442.25	60554.65
841.0192	845.2662	61451.95	60564.55
841.1643	847.3175	61525.2	60636.5
841.3095	849.368	61303.55	60415.05
841.4546	851.4179	61474.9	60584.3
841.5997	853.467	61300	60409.2
841.7448	855.5155	61420.5	60529.15
841.8899	857.5633	61263.8	60374.6
842.0351	859.6105	61182.7	60290.85
842.1802	861.6569	61295.2	60401.35
842.3253	863.7027	61120.5	60225.9
842.4704	865.7478	61179.2	60281.55
842.6156	867.7922	61115.15	60223.35
842.7607	869.8359	61220.65	60328.35
842.9058	871.8789	60994.1	60102.25
843.0509	873.9212	61086.6	60162.6
843.1961	875.9629	61062.1	60168.85
843.3412	878.0039	61025.15	60131.75
843.4863	880.0441	60951.8	60056.4
843.6315	882.0837	60951.85	60059
843.7766	884.1226	60972.4	60078.95
843.9218	886.1609	60999.55	60108.45
844.0669	888.1984	60922.2	60030.6
844.212	890.2352	61056.4	60163.5
844.3572	892.2714	60889.2	59990.45
844.5023	894.3069	60943.4	60050.25
844.6475	896.3416	60880.9	59986.05
844.7926	898.3757	60855.9	59959.5
844.9377	900.4091	60686.9	59791.75
845.0829	902.4418	60917.95	60018.65
845.228	904.4739	60734.6	59837.15
845.3732	906.5052	60773.25	59877
845.5183	908.5358	60677.15	59782.35
845.6635	910.5658	60607.55	59711.55
845.8086	912.595	60629.05	59732.8
845.9538	914.6236	60432.8	59540.75
846.0989	916.6515	60707.8	59812.1
846.2441	918.6786	60394.85	59494
846.3892	920.7051	60451.65	59555.5
846.5344	922.7309	60383.25	59485.2
846.6795	924.756	60426.85	59529.3
846.8246	926.7804	60357.75	59459.55
846.9698	928.8041	60152	59250.8
847.1149	930.8272	60242.75	59346.95
847.2601	932.8495	60259.9	59362.9
847.4052	934.8711	60090.9	59191.7
847.5504	936.892	60002.95	59104.2
847.6955	938.9123	60080.65	59180.35
847.8407	940.9318	59979.65	59080.2
847.9858	942.9506	59942.8	59045.5
848.131	944.9688	59947.45	59047.45
848.2761	946.9862	59694.5	58797.85
848.4213	949.003	59768.5	58871.9
848.5664	951.019	59566.7	58671.35
848.7115	953.0344	59617.7	58718.25
848.8567	955.0491	59562.15	58664.45
849.0018	957.063	59611.7	58713.75
849.147	959.0763	59656.95	58762
849.2921	961.0888	59481.05	58581.6
849.4373	963.1007	59564.3	58664.9
849.5824	965.1119	59504.45	58606.5
849.7275	967.1223	59381.25	58489.45
849.8727	969.1321	59508.65	58617.05
850.0178	971.1412	59325.2	58430.9
850.1629	973.1495	59242.85	58345.3
850.3081	975.1572	59294.85	58359.7
850.4532	977.1641	59231.6	58332.95
850.5983	979.1704	59175.65	58277.1
850.7435	981.1759	59163.1	58261.05
850.8886	983.1808	59040.65	58140.2
851.0337	985.1849	59049.3	58140.5
851.1788	987.1884	59022.1	58121.5
851.324	989.1911	59099.65	58198.95
851.4691	991.1932	58771.1	57871
851.6142	993.1945	58790.45	57892
851.7593	995.1951	58820.55	57920.85
851.9045	997.1951	58630.95	57726.05
852.0496	999.1943	58603.3	57707.45
852.1947	1001.1928	58517.1	57616.4
852.3398	1003.1906	58556.25	57655.35
852.4849	1005.1877	58313.6	57413
852.63	1007.1841	58208.4	57308.3
852.7751	1009.1798	58219.3	57321.8
852.9202	1011.1748	58196.45	57296
853.0653	1013.1691	58141.15	57239.15
853.2104	1015.1627	57709.4	56809.45
853.3555	1017.1556	57765.4	56865.15
853.5006	1019.1477	57841.2	56939.45
853.6457	1021.1392	57635.6	56739.7
853.7908	1023.1299	57380.6	56483.6
853.9359	1025.12	57497.05	56602.35
854.081	1027.1093	57281.1	56392.15
854.2261	1029.0979	57279.05	56391.25
854.3712	1031.0859	57192.4	56303.95
854.5163	1033.0731	57021.15	56124.5
854.6613	1035.0596	57064.85	56168.6
854.8064	1037.0454	56963	56066.65
854.9515	1039.0304	56813.4	55912.8
855.0965	1041.0148	56566.35	55669.05
855.2416	1042.9985	56607.15	55703.55
855.3867	1044.9814	56712.25	55812.45
855.5317	1046.9636	56451.1	55551.6
855.6768	1048.9452	56482.55	55583.95
855.8219	1050.926	56415.85	55518
855.9669	1052.9061	56332.8	55433.35
856.112	1054.8855	56345.75	55446.75
856.257	1056.8642	56220.75	55320.4
856.4021	1058.8421	56131.95	55230.65
856.5471	1060.8194	56091.75	55192.55
856.6921	1062.7959	56026	55128.55
856.8372	1064.7717	56093.75	55192.45
856.9822	1066.7469	55999.05	55097.6
857.1272	1068.7213	55964.7	55059.2
857.2723	1070.695	55932.8	55031.9
857.4173	1072.6679	55747.7	54845.9
857.5623	1074.6402	55821.7	54919.1
857.7073	1076.6117	55709.75	54803
857.8523	1078.5826	55689.25	54787.65
857.9973	1080.5527	55633.65	54732.2
858.1423	1082.5221	55499.6	54601.6
858.2873	1084.4908	55500.3	54599.4
858.4323	1086.4587	55399.2	54497.25
858.5773	1088.426	55395.4	54493.95
858.7223	1090.3925	55294.45	54386.35
858.8673	1092.3584	55325.2	54425.25
859.0123	1094.3235	55157.1	54254.05
859.1573	1096.2879	55110.05	54210.4
859.3022	1098.2515	55119.15	54218.5
859.4472	1100.2145	55074.9	54172.85
859.5922	1102.1767	55014.75	54112.35
859.7371	1104.1382	55055.95	54155.85
859.8821	1106.099	54968.9	54066.1
860.027	1108.0591	54893.3	53993.35
860.172	1110.0185	54658.85	53753.45
860.3169	1111.9771	54853.75	53954.45
860.4619	1113.9351	54724.2	53823.7
860.6068	1115.8923	54597.5	53695.8
860.7517	1117.8488	54507.1	53603.3
860.8967	1119.8045	54319	53417.35
861.0416	1121.7596	54352.1	53452.95
861.1865	1123.7139	54217.85	53318.25
861.3314	1125.6675	54194.8	53295.3
861.4763	1127.6204	54178.95	53276.4
861.6212	1129.5726	53995.8	53093.55
861.7661	1131.524	54017.2	53115.75
861.911	1133.4748	54026	53122.8
862.0559	1135.4248	53853.2	52948.2
862.2008	1137.3741	53828.55	52927.35
862.3457	1139.3226	53733.4	52828.15
862.4905	1141.2705	53765.25	52862.75
862.6354	1143.2176	53643.65	52737.65
862.7803	1145.164	53402.7	52500.1
862.9251	1147.1097	53488	52586.05
863.07	1149.0546	53424.8	52521.1
863.2148	1150.9989	53460.85	52562.3
863.3597	1152.9424	53240.2	52337.25
863.5045	1154.8852	53342.5	52442.8
863.6493	1156.8272	53172.75	52274.25
863.7942	1158.7686	53367.5	52458.15
863.939	1160.7092	53039.25	52137.85
864.0838	1162.6491	53029.05	52127.55
864.2286	1164.5883	53077.05	52175.45
864.3734	1166.5267	52908.15	52008.3
864.5182	1168.4644	52993.3	52090.8
864.663	1170.4014	52903.3	51997.45
864.8078	1172.3377	53012.15	52110.6
864.9526	1174.2732	53057	52156.95
865.0974	1176.2081	52933.95	52035.1
865.2421	1178.1421	52888.3	51983.75
865.3869	1180.0755	53024.15	52124.25
865.5317	1182.0082	52932	52031.85
865.6764	1183.9401	52918.35	52017.25
865.8212	1185.8713	52711.95	51813.35
865.9659	1187.8017	52660.15	51761.35
866.1106	1189.7315	52605.1	51714.8
866.2554	1191.6605	52473	51578.1
866.4001	1193.5888	52314.05	51417.8
866.5448	1195.5163	52178.85	51279.3
866.6895	1197.4432	52142.7	51240.4
866.8342	1199.3693	52076.1	51179
866.9789	1201.2947	51941.65	51035.6
867.1236	1203.2193	51947.8	51045.9
867.2683	1205.1432	51774.2	50875.5
867.413	1207.0664	51721.45	50820.75
867.5576	1208.9889	51673.7	50773.4
867.7023	1210.9106	51573.35	50672.4
867.847	1212.8316	51429.75	50525.85
867.9916	1214.7519	51398	50487.05
868.1363	1216.6715	51336.35	50433.25
868.2809	1218.5903	51307.4	50405.15
868.4255	1220.5084	51237.7	50336.8
868.5701	1222.4257	51248.25	50346.95
868.7148	1224.3424	51127.2	50227.5
868.8594	1226.2583	51033.5	50127.2
869.004	1228.1735	51034.25	50130.9
869.1486	1230.0879	50866.75	49966.65
869.2932	1232.0016	50950.4	50049.05
869.4377	1233.9146	50789.9	49887.95
869.5823	1235.8269	50762.55	49861.35
869.7269	1237.7384	50759.8	49859.6
869.8715	1239.6492	50658.35	49760.2
870.016	1241.5592	50535.65	49633.8
870.1606	1243.4686	50530	49630.6
870.3051	1245.3772	50430.8	49530.8
870.4496	1247.285	50478.75	49578.3
870.5941	1249.1922	50291.4	49389.4
870.7387	1251.0986	50380.05	49479.85
870.8832	1253.0042	50209.7	49306.9
871.0277	1254.9092	50248.1	49349
871.1722	1256.8134	50042.6	49143.4
871.3167	1258.7169	50192.8	49294.95
871.4611	1260.6196	50019.1	49119.55
871.6056	1262.5216	50043.35	49142.15
871.7501	1264.4229	50041.35	49143.25
871.8945	1266.3234	50130.45	49227.15
872.039	1268.2232	50080.45	49177.95
872.1834	1270.1223	49930.35	49025.8
872.3278	1272.0207	49904.2	49003.3
872.4723	1273.9183	49853.25	48945.55
872.6167	1275.8151	49781.7	48882.2
872.7611	1277.7113	49754.5	48852.5
872.9055	1279.6067	49655.9	48756.4
873.0499	1281.5014	49633.1	48731.65
873.1943	1283.3953	49717.5	48813.55
873.3386	1285.2885	49710.7	48811.05
873.483	1287.181	49739.45	48835.65
873.6274	1289.0727	49765.3	48865.75
873.7717	1290.9637	49618.6	48716.35
873.9161	1292.854	49811.3	48910.5
874.0604	1294.7435	49656.15	48755.8
874.2047	1296.6323	49644.2	48746.1
874.349	1298.5204	49544.5	48640.1
874.4933	1300.4077	49601.75	48699
874.6376	1302.2943	49451.5	48550.15
874.7819	1304.1802	49421.35	48522.45
874.9262	1306.0653	49210.75	48308.9
875.0705	1307.9497	49120.95	48219.85
875.2147	1309.8333	49059.7	48161.25
875.359	1311.7162	48980.85	48081.6
875.5032	1313.5984	48947.5	48045.05
875.6475	1315.4798	48813.85	47912.1
875.7917	1317.3605	48763.6	47846.55
875.9359	1319.2405	48744.65	47842.25
876.0801	1321.1197	48581	47680.05
876.2243	1322.9982	48468.15	47563.2
876.3685	1324.876	48453.5	47552.9
876.5127	1326.753	48322.95	47422.2
876.6569	1328.6293	48391.7	47490
876.801	1330.5048	48330.05	47424.85
876.9452	1332.3796	48211.3	47309.35
877.0893	1334.2537	48151.95	47224.85
877.2335	1336.127	48113.85	47215.65
877.3776	1337.9996	48002.2	47100.45
877.5217	1339.8714	48018.65	47118.3
877.6658	1341.7426	47847.05	46903
877.8099	1343.6129	47910.9	47007.5
877.954	1345.4826	47883.8	46982.25
878.0981	1347.3515	47724.35	46821.05
878.2422	1349.2196	47776.45	46875.1
878.3862	1351.087	47787.25	46885.7
878.5303	1352.9537	47706.55	46806.65
878.6743	1354.8197	47717.65	46816.45
878.8184	1356.6849	47759.2	46856.4
878.9624	1358.5493	47670.15	46766.7
879.1064	1360.4131	47580.15	46681.35
879.2504	1362.276	47647.6	46747.75
879.3944	1364.1383	47481.2	46579.45
879.5384	1365.9998	47348.85	46442.45
879.6823	1367.8606	47322.9	46420.55
879.8263	1369.7206	47158.6	46255
879.9702	1371.5799	47017.7	46116.05
880.1142	1373.4384	46898.8	45998.3
880.2581	1375.2962	46873.35	45972.4
880.402	1377.1533	46568.25	45668.05
880.5459	1379.0096	46381.65	45481.6
880.6898	1380.8652	46286.25	45386.35
880.8337	1382.7201	46163.15	45262.2
880.9776	1384.5742	46080.7	45181.75
881.1215	1386.4275	45755.45	44853.1
881.2653	1388.2802	45667.15	44764.75
881.4092	1390.132	45706.95	44804.95
881.553	1391.9832	45463.9	44559.7
881.6968	1393.8336	45323.8	44422
881.8406	1395.6832	45294.6	44393.25
881.9844	1397.5322	45290	44390.25
882.1282	1399.3803	45090.8	44185.2
882.272	1401.2278	45006.95	44106.2
882.4158	1403.0745	44861.75	43960.8
882.5595	1404.9204	44758.7	43857.9
882.7033	1406.7656	44701.1	43801.6
882.847	1408.6101	44540.45	43637.15
882.9908	1410.4538	44528.9	43628.65
883.1345	1412.2968	44531.2	43629
883.2782	1414.139	44293.4	43392
883.4219	1415.9805	44351.15	43452.45
883.5656	1417.8213	44177.5	43272.55
883.7092	1419.6613	44195.55	43296.15
883.8529	1421.5006	44118.95	43218.15
883.9965	1423.3391	44043.65	43144.65
884.1402	1425.1769	44058.6	43156.9
884.2838	1427.0139	44143.75	43240
884.4274	1428.8502	44144.8	43243.05
884.571	1430.6858	44214.8	43314.6
884.7146	1432.5206	44362.6	43465.1
884.8582	1434.3547	44241.85	43341.75
885.0018	1436.188	44158.7	43258.5
885.1453	1438.0206	44188.2	43287.3
885.2889	1439.8524	44045.25	43145.6
885.4324	1441.6835	43916.35	43015.2
885.5759	1443.5139	43922.05	43019.35
885.7194	1445.3435	43779.85	42877.7
885.8629	1447.1724	43772.15	42873.75
886.0064	1449.0005	43566.85	42665.85
886.1499	1450.8279	43629.25	42729.65
886.2933	1452.6545	43604.45	42704.55
886.4368	1454.4804	43517.35	42621.55
886.5802	1456.3056	43412.6	42508.9
886.7237	1458.13	43392.2	42492.15
886.8671	1459.9536	43474.75	42574
887.0105	1461.7766	43217.8	42318.5
887.1539	1463.5987	42989.65	42090.1
887.2972	1465.4202	42952.85	42053.25
887.4406	1467.2409	42777.5	41877.75
887.584	1469.0608	42589.2	41690.15
887.7273	1470.88	42520.95	41621.45
887.8706	1472.6984	42472.5	41571.4
888.0139	1474.5161	42170.65	41268.75
888.1572	1476.3331	42261.05	41359.5
888.3005	1478.1493	42064.55	41163.4
888.4438	1479.9648	41971.65	41071.55
888.5871	1481.7795	41998.75	41100.7
888.7303	1483.5935	41996.75	41099.95
888.8736	1485.4067	41740.4	40842.3
889.0168	1487.2192	41769.9	40869.4
889.16	1489.031	41651.7	40750.15
889.3032	1490.842	41643.65	40744.7
889.4464	1492.6522	41629.7	40729.7
889.5896	1494.4618	41509	40605.4
889.7327	1496.2705	41539.5	40639.45
889.8759	1498.0785	41240	40342.5
890.019	1499.8858	41251.15	40351.35
890.1622	1501.6924	41276.75	40377.85
890.3053	1503.4981	41051.2	40153.1
890.4484	1505.3032	41064.95	40165.95
890.5914	1507.1075	40907.25	40009
890.7345	1508.911	40882.85	39984.9
890.8776	1510.7138	40872.35	39973.35
891.0206	1512.5159	40873.6	39975.25
891.1637	1514.3172	40514.95	39614.4
891.3067	1516.1178	40519.35	39622.55
891.4497	1517.9176	40579.65	39679.5
891.5927	1519.7166	40403.45	39507.7
891.7357	1521.515	40295.45	39392.8
891.8786	1523.3126	40169.45	39271.45
892.0216	1525.1094	40171	39271.65
892.1645	1526.9055	40019.1	39121.75
892.3074	1528.7008	39975	39079.45
892.4503	1530.4954	39707.85	38808.5
892.5932	1532.2893	39765.3	38868.55
892.7361	1534.0824	39576.95	38677.85
892.879	1535.8747	39522.1	38627.3
893.0218	1537.6663	39621.8	38724.2
893.1647	1539.4572	39221.45	38325.9
893.3075	1541.2473	39331.05	38431.85
893.4503	1543.0367	39222.5	38326.7
893.5931	1544.8253	39139.35	38236.7
893.7359	1546.6132	39185.95	38285.2
893.8787	1548.4003	38996.2	38090.65
894.0214	1550.1867	38888.95	37984.95
894.1642	1551.9723	38861.4	37960.8
894.3069	1553.7572	38874.25	37976.2
894.4496	1555.5414	38865.8	37969.15
894.5923	1557.3247	38728.25	37834.1
894.735	1559.1074	38781.25	37889.7
894.8777	1560.8893	38693.55	37801
895.0204	1562.6705	38667.1	37773.5
895.163	1564.4509	38593.05	37701.15
895.3056	1566.2305	38519.85	37627.35
895.4482	1568.0094	38621.25	37730.4
895.5908	1569.7876	38516.95	37625
895.7334	1571.565	38421.9	37526.95
895.876	1573.3417	38436.25	37542.6
896.0186	1575.1176	38337.65	37444.3
896.1611	1576.8928	38248.95	37357.1
896.3036	1578.6672	38096.8	37209.15
896.4461	1580.4409	38063	37175.45
896.5886	1582.2138	37950.55	37058.2
896.7311	1583.986	37943.2	37050.95
896.8736	1585.7575	37829.8	36938.95
897.0161	1587.5282	37798.3	36908.25
897.1585	1589.2981	37777.85	36889.95
897.3009	1591.0673	37689.35	36801.1
897.4433	1592.8358	37649.85	36761.05
897.5857	1594.6035	37687.95	36793.9
897.7281	1596.3704	37646.35	36754.95
897.8705	1598.1366	37493.7	36604
898.0128	1599.9021	37416.85	36527.05
898.1551	1601.6668	37385.75	36492.1
898.2975	1603.4308	37353.9	36461.65
898.4398	1605.194	37441.75	36544.4
898.5821	1606.9564	37222.1	36331.85
898.7243	1608.7182	37309.65	36418.8
898.8666	1610.4791	37259	36375.15
899.0088	1612.2394	37351.95	36466.85
899.1511	1613.9988	37295.05	36409.35
899.2933	1615.7576	37411.35	36525.05
899.4355	1617.5156	37392.25	36496.55
899.5776	1619.2728	37439.85	36550.05
899.7198	1621.0293	37273	36383
899.862	1622.785	37143.55	36250.4
900.0041	1624.54	37034.2	36145.2
900.1462	1626.2942	36818.9	35928.3
900.2883	1628.0477	36519.2	35629.5
900.4304	1629.8005	36273.45	35381.7
900.5725	1631.5525	36289.95	35403.5
900.7145	1633.3037	35985.7	35099.25
900.8566	1635.0542	35907.25	35017.45
900.9986	1636.804	35808.6	34921.05
901.1406	1638.553	35715.2	34782.45
901.2826	1640.3013	35630.8	34740.55
901.4245	1642.0488	35497.15	34605.9
901.5665	1643.7955	35451.35	34563.2
901.7085	1645.5416	35393.05	34506.6
901.8504	1647.2868	35369.95	34483.2
901.9923	1649.0313	35350.3	34461.35
902.1342	1650.7751	35346.4	34456.5
902.2761	1652.5181	35308.9	34423.9
902.4179	1654.2604	35262.5	34375.4
902.5598	1656.0019	35267.35	34380.7
902.7016	1657.7427	35248.45	34358.65
902.8434	1659.4828	35323.95	34436
902.9852	1661.222	35246.5	34358.1
903.127	1662.9606	35205.2	34316.7
903.2687	1664.6984	35065.1	34175.55
903.4105	1666.4354	34945.35	34052.25
903.5522	1668.1717	34629.65	33741.45
903.6939	1669.9072	34324.2	33434.3
903.8356	1671.642	34157.7	33264.5
903.9773	1673.3761	34001.4	33113.7
904.119	1675.1094	33820	32931.45
904.2606	1676.8419	33627.95	32741.45
904.4022	1678.5737	33489.45	32601
904.5439	1680.3048	33392.4	32501.2
904.6855	1682.0351	33181.95	32295.85
904.827	1683.7646	33055.5	32162.9
904.9686	1685.4934	32983.75	32096.5
905.1101	1687.2215	32843.25	31956.15
905.2517	1688.9488	32782.15	31896
905.3932	1690.6754	32516.9	31630.1
905.5347	1692.4012	32556.9	31667.7
905.6761	1694.1263	32491.4	31605.05
905.8176	1695.8506	32356.6	31468.3
905.9591	1697.5742	32296.45	31408.6
906.1005	1699.297	32158.55	31272.15
906.2419	1701.0191	32075.8	31190.25
906.3833	1702.7404	31900.75	31014.15
906.5246	1704.461	31755.15	30867.65
906.666	1706.1808	31734.65	30844.4
906.8073	1707.8999	31557.2	30670.4
906.9487	1709.6182	31494	30605.8
907.09	1711.3358	31470.4	30587.55
907.2313	1713.0527	31354.35	30470.6
907.3725	1714.7688	31241.25	30350.5
907.5138	1716.4841	30995.2	30107.85
907.655	1718.1987	31092.2	30200.7
907.7962	1719.9126	30985.25	30099.45
907.9374	1721.6257	30889.85	30005
908.0786	1723.338	30884	30000.65
908.2198	1725.0496	30566.8	29680
908.3609	1726.7605	30592.8	29705.4
908.502	1728.4706	30459.5	29573.4
908.6431	1730.18	30403	29517.05
908.7842	1731.8886	30274.1	29389.9
908.9253	1733.5964	30228.3	29338
909.0664	1735.3036	30230.55	29342.15
909.2074	1737.0099	30094.6	29210.8
909.3484	1738.7156	29968.45	29083.9
909.4894	1740.4204	29838.1	28952.65
909.6304	1742.1246	29822.7	28935.95
909.7714	1743.8279	29787.8	28902.5
909.9123	1745.5306	29751.4	28866.1
910.0532	1747.2325	29537.7	28653.2
910.1941	1748.9336	29489.35	28604.8
910.335	1750.634	29428.75	28542.6
910.4759	1752.3336	29461.8	28574.7
910.6168	1754.0325	29281.65	28397.6
910.7576	1755.7307	29351.6	28468.35
910.8984	1757.4281	29171.35	28285.45
911.0392	1759.1247	29255.9	28361.2
911.18	1760.8206	29004.9	28113
911.3208	1762.5158	29002.05	28109.55
911.4615	1764.2102	28945.95	28060.55
911.6022	1765.9039	28853.2	27966.8
911.7429	1767.5968	28774.6	27890.8
911.8836	1769.289	28688.05	27803.55
912.0243	1770.9804	28695.7	27810.75
912.1649	1772.6711	28641.1	27755.6
912.3056	1774.361	28568.8	27683.25
912.4462	1776.0502	28546.85	27660.05
912.5868	1777.7386	28350.4	27461.6
912.7274	1779.4263	28332.3	27444.5
912.8679	1781.1132	28301.85	27420.6
913.0084	1782.7994	28165.75	27279.75
913.149	1784.4849	28152.95	27270.85
913.2895	1786.1696	27987.3	27087
913.4299	1787.8535	27976.2	27092.85
913.5704	1789.5367	27963.6	27079.8
913.7108	1791.2192	27877.6	26993.05
913.8513	1792.9009	27761.35	26846
913.9917	1794.5818	27742.5	26854.6
914.132	1796.2621	27599.75	26716.45
914.2724	1797.9415	27572.15	26687.05
914.4128	1799.6202	27486.75	26598.25
914.5531	1801.2982	27526.2	26641.15
914.6934	1802.9755	27387.45	26500
914.8337	1804.6519	27304.2	26418.4
914.9739	1806.3277	27291.65	26408.8
915.1142	1808.0027	27094.2	26211.3
915.2544	1809.6769	27150.45	26268
915.3946	1811.3504	27082.45	26197.5
915.5348	1813.0231	26937.4	26053.8
915.675	1814.6951	26971.7	26087.6
915.8151	1816.3664	26927.4	26039.9
915.9553	1818.0369	26890.65	26005.85
916.0954	1819.7067	26785.25	25902.8
916.2355	1821.3757	26767.75	25880.4
916.3755	1823.044	26670.8	25786.3
916.5156	1824.7115	26618.6	25732.3
916.6556	1826.3783	26517.4	25632.45
916.7956	1828.0443	26462.05	25578.4
916.9356	1829.7096	26386.75	25501.6
917.0756	1831.3741	26332.65	25445.5
917.2155	1833.0379	26314.15	25431.85
917.3555	1834.701	26227.4	25343.2
917.4954	1836.3633	26153	25270.35
917.6353	1838.0248	26121.9	25236.3
917.7751	1839.6856	26072.9	25190.1
917.915	1841.3457	25985.05	25099.25
918.0548	1843.005	25986.15	25101.1
918.1946	1844.6636	25923.3	25039.6
918.3344	1846.3214	25831.35	24946.6
918.4742	1847.9785	25830.9	24947.6
918.6139	1849.6349	25734.3	24848.9
918.7537	1851.2904	25740.5	24847.2
918.8934	1852.9453	25639.55	24753.6
919.0331	1854.5994	25563.1	24677.25
919.1727	1856.2528	25569.55	24678.85
919.3124	1857.9054	25484.15	24597.1
919.452	1859.5572	25449.05	24563
919.5916	1861.2083	25404.85	24521.5
919.7312	1862.8587	25427.15	24542.45
919.8708	1864.5084	25265.9	24380.6
920.0103	1866.1572	25265.7	24379.15
920.1498	1867.8054	25095.75	24208.65
920.2893	1869.4528	25084.1	24198.45
920.4288	1871.0994	25014.7	24127.9
920.5683	1872.7453	24975.95	24089.45
920.7077	1874.3905	24905.35	24012.3
920.8471	1876.0349	24850.75	23964.05
920.9865	1877.6786	24824.2	23937.05
921.1259	1879.3215	24791.8	23904.95
921.2653	1880.9637	24770.85	23884.05
921.4046	1882.6051	24706.1	23822.3
921.5439	1884.2458	24638.8	23750.2
921.6832	1885.8858	24500.95	23617.75
921.8225	1887.525	24511.95	23627.55
921.9617	1889.1634	24421.15	23535.2
922.101	1890.8011	24355.5	23469.95
922.2402	1892.4381	24252.4	23367
922.3794	1894.0743	24286.3	23400.95
922.5185	1895.7098	24197.35	23312.2
922.6577	1897.3446	24176.1	23289.9
922.7968	1898.9786	24085	23195.75
922.9359	1900.6118	24040.65	23157.7
923.075	1902.2443	23914.75	23027.3
923.214	1903.8761	23873	22989
923.3531	1905.5071	23745	22859.7
923.4921	1907.1374	23669.3	22786.45
923.6311	1908.7669	23642.05	22757.05
923.77	1910.3957	23615.85	22730.9
923.909	1912.0237	23439.2	22553.75
924.0479	1913.651	23437.35	22551.25
924.1868	1915.2776	23402.35	22520.4
924.3257	1916.9034	23285.95	22404.5
924.4646	1918.5285	23190.05	22306.9
924.6034	1920.1528	23105.55	22221.3
924.7422	1921.7764	23053.95	22168
924.881	1923.3992	22981.95	22099.3
925.0198	1925.0213	22842.5	21958.6
925.1586	1926.6427	22725.85	21839.7
925.2973	1928.2633	22876.6	21743.25
925.436	1929.8832	22690.6	21802.25
925.5747	1931.5023	22530.7	21647.6
925.7134	1933.1207	22477.45	21592.6
925.852	1934.7383	22464.9	21579.95
925.9906	1936.3552	22395.95	21514.65
926.1292	1937.9714	22339.75	21454.7
926.2678	1939.5868	22237.2	21351.1
926.4064	1941.2015	22117.25	21234.2
926.5449	1942.8154	22055.85	21167.1
926.6834	1944.4286	21964.05	21079.25
926.8219	1946.041	21937.1	21029
926.9604	1947.6528	21741.05	20852
927.0988	1949.2637	21713.5	20832.1
927.2372	1950.8739	21642.85	20757.85
927.3756	1952.4834	21620.7	20737.1
927.514	1954.0921	21612.65	20728
927.6523	1955.7001	21541.6	20652.8
927.7907	1957.3074	21432.15	20550.6
927.929	1958.9139	21333.5	20451.55
928.0673	1960.5197	21311.35	20425.8
928.2055	1962.1247	21202.65	20319.45
928.3438	1963.729	21114.55	20232.7
928.482	1965.3325	21037.35	20135.35
928.6202	1966.9353	20944.4	20064.75
928.7584	1968.5374	20911.95	20027.4
928.8965	1970.1387	20844.35	19959.65
929.0346	1971.7393	20765.05	19881.9
929.1727	1973.3392	20679.55	19794.7
929.3108	1974.9383	20630.15	19746.7
929.4489	1976.5366	20513.75	19631.7
929.5869	1978.1342	20506.85	19621.7
929.7249	1979.7311	20496.55	19614.3
929.8629	1981.3273	20435	19552.3
930.0009	1982.9227	20351	19467.5
930.1388	1984.5173	20280.85	19400.55
930.2767	1986.1112	20187.8	19305.4
930.4146	1987.7044	20159.45	19278.95
930.5525	1989.2968	20115.45	19231.65
930.6904	1990.8885	20069.3	19184.05
930.8282	1992.4795	20044.75	19164.5
930.966	1994.0697	19941.2	19061.3
931.1038	1995.6592	19886.8	19006.65
931.2415	1997.2479	19842.75	18959.25
931.3793	1998.8359	19790.95	18909.95
931.517	2000.4232	19706.45	18827.95
931.6547	2002.0097	19649.9	18769.65
931.7923	2003.5955	19525.8	18644.9
931.93	2005.1805	19534.8	18653.95
932.0676	2006.7648	19478.8	18598.7
932.2052	2008.3484	19443.55	18561.95
932.3427	2009.9312	19441.15	18558.5
932.4803	2011.5133	19330.95	18451.55
932.6178	2013.0946	19283.05	18402.85
932.7553	2014.6752	19239.4	18360.5
932.8928	2016.2551	19198.2	18316.5
933.0302	2017.8342	19128.6	18247.35
933.1676	2019.4126	19022.05	18142.45
933.305	2020.9902	18956.8	18077.2
933.4424	2022.5672	18954.15	18072.3
933.5798	2024.1433	18888.9	18004.1
933.7171	2025.7188	18808.3	17929.95
933.8544	2027.2935	18768.05	17888
933.9917	2028.8674	18694.9	17816.8
934.129	2030.4406	18639.55	17762.7
934.2662	2032.0131	18573.5	17694.65
934.4034	2033.5849	18519.9	17633.55
934.5406	2035.1559	18466.75	17585.25
934.6778	2036.7261	18430.8	17552
934.8149	2038.2957	18387.7	17508.2
934.952	2039.8645	18344.6	17463.35
935.0891	2041.4325	18333.25	17450.25
935.2262	2042.9998	18237.9	17357.55
935.3632	2044.5664	18243	17362.5
935.5002	2046.1323	18190.2	17310.85
935.6372	2047.6974	18117.8	17238.55
935.7742	2049.2617	18090.75	17211.05
935.9111	2050.8254	18067.5	17180.55
936.048	2052.3883	18032.45	17150.75
936.1849	2053.9504	17932.5	17048.75
936.3218	2055.5118	17857.25	16973.5
936.4586	2057.0725	17779.45	16893.5
936.5955	2058.6325	17766.3	16885.55
936.7323	2060.1917	17716.1	16837.5
936.869	2061.7502	17685.5	16802.45
937.0058	2063.3079	17626.45	16747.05
937.1425	2064.8649	17550.1	16666.9
937.2792	2066.4212	17511.05	16629.25
937.4159	2067.9767	17469.65	16589.2
937.5525	2069.5315	17426.25	16544.5
937.6891	2071.0856	17346.5	16465.65
937.8257	2072.6389	17262.35	16380.7
937.9623	2074.1915	17192.55	16313.8
938.0989	2075.7433	17130.85	16248.55
938.2354	2077.2945	17094.55	16214.75
938.3719	2078.8448	17035.2	16154.5
938.5084	2080.3945	16991.05	16109.85
938.6448	2081.9434	16990.95	16110.6
938.7812	2083.4916	16922.7	16040.8
938.9176	2085.039	16855.25	15971.75
939.054	2086.5857	16821.35	15936.15
939.1903	2088.1317	16785.3	15903.75
939.3267	2089.677	16730	15846
939.463	2091.2215	16688.6	15805.5
939.5992	2092.7652	16626.25	15740.55
939.7355	2094.3083	16602.35	15718.5
939.8717	2095.8506	16602.4	15721.9
940.0079	2097.3921	16574.85	15693.55
940.1441	2098.933	16484.35	15603
940.2802	2100.4731	16465.05	15582.8
940.4163	2102.0124	16464.75	15564.6
940.5524	2103.5511	16402.95	15521.65
940.6885	2105.089	16376.6	15494.4
940.8245	2106.6261	16346.2	15464.2
940.9606	2108.1626	16311.3	15428.65
941.0965	2109.6983	16277.9	15365.9
941.2325	2111.2332	16230.6	15348.75
941.3684	2112.7675	16158	15274.35
941.5044	2114.301	16088.2	15203.45
941.6403	2115.8337	16093.55	15210.5
941.7761	2117.3657	16060.65	15176.9
941.912	2118.897	16030.6	15149.85
942.0478	2120.4276	15942.75	15054
942.1835	2121.9575	15873.5	14992.6
942.3193	2123.4866	15895.35	14997.7
942.455	2125.0149	15849.25	14965.1
942.5907	2126.5426	15707.4	14827.15
942.7264	2128.0695	15676.15	14793.1
942.8621	2129.5956	15667.25	14788.45
942.9977	2131.1211	15666.1	14781.55
943.1333	2132.6458	15585.55	14705.25
943.2689	2134.1698	15592.9	14709.25
943.4044	2135.693	15530.85	14647.6
943.54	2137.2155	15517.75	14631.6
943.6755	2138.7373	15462.15	14580.15
943.8109	2140.2584	15412.1	14530.75
943.9464	2141.7787	15352.3	14467.6
944.0818	2143.2983	15280.95	14401.5
944.2172	2144.8171	15213.5	14335.95
944.3526	2146.3353	15199.25	14315.8
944.4879	2147.8527	15107.5	14226.6
944.6232	2149.3693	15116.45	14233
944.7585	2150.8853	15067.5	14185.5
944.8938	2152.4005	14986.05	14101.5
945.029	2153.9149	14986.15	14105.05
945.1642	2155.4287	14927.6	14043.7
945.2994	2156.9417	14883	14001.3
945.4346	2158.454	14848.15	13963.8
945.5697	2159.9655	14803.3	13924.3
945.7048	2161.4764	14817.2	13935.9
945.8399	2162.9865	14731.5	13850.35
945.9749	2164.4958	14726.65	13845.85
946.1099	2166.0045	14645.55	13761.9
946.2449	2167.5124	14618.05	13735.65
946.3799	2169.0195	14598.2	13717.35
946.5148	2170.526	14581.7	13697.5
946.6498	2172.0317	14539.85	13659.95
946.7846	2173.5367	14485.2	13604.3
946.9195	2175.0409	14440.7	13559.9
947.0543	2176.5445	14447.75	13566.7
947.1891	2178.0473	14364.4	13481.55
947.3239	2179.5494	14304.65	13420
947.4587	2181.0507	14261.8	13380.15
947.5934	2182.5513	14236.6	13352.85
947.7281	2184.0512	14189.35	13308
947.8628	2185.5504	14149.2	13268.05
947.9974	2187.0488	14055.5	13175.95
948.132	2188.5465	14063.7	13181.65
948.2666	2190.0435	13999.6	13116.55
948.4012	2191.5397	13898.65	13016.55
948.5357	2193.0353	13897.9	13017.3
948.6702	2194.5301	13838.05	12952.8
948.8047	2196.0241	13777.25	12893.7
948.9392	2197.5175	13759.65	12875
949.0736	2199.0101	13701.85	12816.9
949.208	2200.502	13642.55	12760.7
949.3424	2201.9931	13632.35	12751.35
949.4767	2203.4835	13574.6	12690.9
949.611	2204.9733	13554.8	12667.65
949.7453	2206.4622	13511.4	12631.1
949.8796	2207.9505	13455.5	12569.9
950.0138	2209.438	13388.3	12507.85
950.148	2210.9248	13353.5	12471.15
950.2822	2212.4109	13317.75	12437.95
950.4164	2213.8962	13245.05	12358.5
950.5505	2215.3809	13258.05	12373.45
950.6846	2216.8648	13193	12307.85
950.8186	2218.3479	13186.95	12296.1
950.9527	2219.8304	13125.65	12239.35
951.0867	2221.3121	13077.25	12190.15
951.2207	2222.7931	13010.7	12126.9
951.3546	2224.2733	12964.9	12080.45
951.4886	2225.7529	12941.85	12059.3
951.6225	2227.2317	12907.7	12023.35
951.7563	2228.7098	12867.8	11987.45
951.8902	2230.1872	12795.75	11917.55
952.024	2231.6638	12772.15	11892.25
952.1578	2233.1397	12739.1	11853.3
952.2916	2234.6149	12694.15	11813.35
952.4253	2236.0894	12645.95	11763.55
952.559	2237.5632	12638.7	11746.25
952.6927	2239.0362	12581.95	11699.75
952.8263	2240.5085	12574.65	11694.3
952.9599	2241.9801	12483.6	11601
953.0935	2243.4509	12482.25	11599.25
953.2271	2244.921	12399.6	11515.9
953.3606	2246.3904	12397	11509.7
953.4941	2247.8591	12361.25	11482
953.6276	2249.3271	12325	11442.25
953.7611	2250.7943	12289.05	11406.4
953.8945	2252.2608	12223.45	11342.05
954.0279	2253.7266	12198.3	11316.5
954.1612	2255.1917	12162.3	11280.2
954.2946	2256.656	12101.15	11216.4
954.4279	2258.1197	12100.4	11217.95
954.5612	2259.5826	12069.75	11186.45
954.6944	2261.0447	12029.95	11144.9
954.8276	2262.5062	11949.05	11066.55
954.9608	2263.9669	11947.55	11063
955.094	2265.4269	11950.4	11068.85
955.2271	2266.8862	11923.95	11042.85
955.3602	2268.3448	11893.85	11010.7
955.4933	2269.8026	11871.55	10988.5
955.6264	2271.2598	11826.2	10945
955.7594	2272.7162	11773.5	10891.4
955.8924	2274.1719	11743.5	10860.3
956.0253	2275.6268	11679.85	10795.25
956.1583	2277.0811	11683.2	10798.65
956.2912	2278.5346	11646.55	10766.1
956.4241	2279.9874	11640.35	10758.1
956.5569	2281.4395	11614.6	10732.75
956.6897	2282.8908	11551.7	10665.1
956.8225	2284.3414	11520.6	10635.15
956.9553	2285.7914	11504.2	10624.2
957.088	2287.2406	11450.6	10565.55
957.2207	2288.689	11441.05	10556.4
957.3534	2290.1368	11393.1	10506.15
957.486	2291.5838	11372.05	10485.35
957.6186	2293.0302	11339.3	10453.8
957.7512	2294.4758	11296.9	10413
957.8838	2295.9206	11240.3	10355.5
958.0163	2297.3648	11226	10343.75
958.1488	2298.8082	11176.8	10293.1
958.2813	2300.251	11137.95	10255.05
958.4137	2301.693	11117.25	10231.05
958.5461	2303.1343	11125.7	10240.7
958.6785	2304.5748	11068.8	10186.1
958.8108	2306.0147	11024.75	10143.1
958.9432	2307.4538	11014.8	10129.65
959.0754	2308.8922	10946.5	10066.7
959.2077	2310.3299	10908.7	10026.9
959.3399	2311.7669	10892.65	10010.25
959.4721	2313.2031	10895.65	10013.75
959.6043	2314.6387	10838.15	9955.9
959.7365	2316.0735	10815.8	9932.7
959.8686	2317.5076	10770.2	9888.2
960.0006	2318.941	10734.45	9852.15
960.1327	2320.3737	10737.25	9853.75
960.2647	2321.8056	10701.3	9816.6
960.3967	2323.2369	10630	9748.45
960.5287	2324.6674	10620.25	9733.15
960.6606	2326.0972	10573.1	9687.5
960.7925	2327.5263	10530.4	9650
960.9244	2328.9547	10515.3	9629.45
961.0562	2330.3823	10493.05	9609.5
961.1881	2331.8092	10441.95	9553.25
961.3198	2333.2355	10440.45	9556.7
961.4516	2334.661	10425.35	9541.65
961.5833	2336.0858	10388.85	9502.7
961.715	2337.5098	10368.45	9486
961.8467	2338.9332	10327.5	9442.85
961.9783	2340.3558	10297.6	9410.4
962.1099	2341.7778	10265.35	9383.85
962.2415	2343.199	10241.3	9357.85
962.373	2344.6195	10194.2	9311.7
962.5045	2346.0393	10159.25	9276.8
962.636	2347.4583	10152.5	9269.45
962.7675	2348.8767	10114.55	9229.7
962.8989	2350.2943	10072.8	9188.3
963.0303	2351.7113	10067.35	9183.95
963.1617	2353.1275	10022.8	9138.45
963.293	2354.543	10012	9119.05
963.4243	2355.9578	9979.35	9096.6
963.5556	2357.3718	9910.25	9028.85
963.6868	2358.7852	9884.2	8997.4
963.818	2360.1978	9840.8	8958.7
963.9492	2361.6098	9820.85	8938.35
964.0803	2363.021	9799.65	8912.3
964.2114	2364.4315	9772.3	8889.8
964.3425	2365.8413	9743.4	8859.3
964.4736	2367.2504	9694.85	8814
964.6046	2368.6587	9632.05	8750.25
964.7356	2370.0664	9642	8760.55
964.8666	2371.4733	9589.4	8707.3
964.9975	2372.8795	9550.25	8666.65
965.1284	2374.285	9515.5	8631.05
965.2593	2375.6899	9479.75	8596.85
965.3901	2377.0939	9437.6	8554.1
965.5209	2378.4973	9423.35	8540.55
965.6517	2379.9	9373.1	8490.95
965.7825	2381.3019	9335.75	8451.1
965.9132	2382.7032	9326.65	8444.7
966.0439	2384.1037	9296.1	8414.55
966.1745	2385.5035	9258.15	8377.95
966.3051	2386.9027	9267.6	8387.6
966.4357	2388.3011	9234.7	8348.55
966.5663	2389.6987	9202.5	8322.2
966.6968	2391.0957	9163.2	8281.3
966.8273	2392.492	9134.1	8253.55
966.9578	2393.8876	9068.25	8183.95
967.0882	2395.2824	9046.55	8164.65
967.2186	2396.6765	8991.9	8110.3
967.349	2398.07	8962.25	8079.65
967.4793	2399.4627	8949.95	8064.95
967.6097	2400.8547	8922.5	8038.55
967.7399	2402.246	8917.6	8029.15
967.8702	2403.6366	8843.15	7961.7
968.0004	2405.0265	8796.4	7914.45
968.1306	2406.4156	8771.5	7884.85
968.2607	2407.8041	8754	7868.25
968.3909	2409.1918	8708.1	7823.1
968.521	2410.5789	8704.7	7821.4
968.651	2411.9652	8648	7762.2
968.781	2413.3508	8603.85	7720.65
968.911	2414.7358	8583.5	7698.25
969.041	2416.12	8563.95	7681.1
969.1709	2417.5035	8522.25	7639.2
969.3008	2418.8863	8487.4	7602.85
969.4307	2420.2684	8484.95	7600.05
969.5606	2421.6497	8460.1	7577.1
969.6904	2423.0304	8410.05	7529.5
969.8201	2424.4104	8388.2	7506.7
969.9499	2425.7896	8353.95	7468.8
970.0796	2427.1682	8321.1	7437.8
970.2093	2428.546	8320.35	7434.9
970.3389	2429.9232	8309.1	7424.7
970.4685	2431.2996	8275.4	7391.45
970.5981	2432.6753	8257.9	7374.75
970.7277	2434.0503	8221.7	7336.7
970.8572	2435.4246	8183.6	7301.55
970.9867	2436.7982	8176.5	7290.05
971.1161	2438.1711	8158.6	7275.4
971.2456	2439.5433	8137.9	7252.8
971.375	2440.9148	8100.85	7212.35
971.5043	2442.2856	8061.7	7179.05
971.6336	2443.6557	8033.45	7147.15
971.7629	2445.025	8014.45	7131.55
971.8922	2446.3937	7990.1	7104.65
972.0214	2447.7617	7980.45	7097.85
972.1506	2449.1289	7986	7103.1
972.2798	2450.4955	7933.15	7047.65
972.4089	2451.8613	7930.45	7048.3
972.538	2453.2265	7897.45	7014.1
972.6671	2454.5909	7876	6991.65
972.7961	2455.9546	7842.35	6959.7
972.9251	2457.3177	7803.2	6921.25
973.0541	2458.68	7798.5	6914.65
973.1831	2460.0416	7794.7	6912
973.312	2461.4025	7783.75	6899.6
973.4408	2462.7627	7752.65	6858.7
973.5697	2464.1222	7718.25	6837.85
973.6985	2465.4811	7703.45	6821.9
973.8273	2466.8392	7680	6797.35
973.956	2468.1966	7663.8	6778.75
974.0847	2469.5533	7663.6	6778.3
974.2134	2470.9093	7637.55	6753.65
974.3421	2472.2645	7606.5	6722.1
974.4707	2473.6191	7571.55	6687.15
974.5993	2474.973	7543.35	6661.35
974.7278	2476.3262	7540.7	6656.85
974.8563	2477.6787	7499.35	6615.55
974.9848	2479.0305	7468.35	6586.05
975.1132	2480.3816	7462.1	6577.85
975.2417	2481.7319	7429.1	6546.3
975.37	2483.0816	7406.05	6520.6
975.4984	2484.4306	7372.6	6489.8
975.6267	2485.7789	7353	6470.55
975.755	2487.1264	7319.15	6435.95
975.8833	2488.4733	7290.4	6408.3
976.0115	2489.8195	7260	6368.15
976.1397	2491.165	7219.85	6334.4
976.2678	2492.5097	7213.9	6330.85
976.3959	2493.8538	7167	6286.8
976.524	2495.1972	7159.05	6275.15
976.6521	2496.5398	7124.1	6240.05
976.7801	2497.8818	7133.25	6248.65
976.9081	2499.2231	7094.05	6210.35
977.036	2500.5637	7084.95	6199.8
977.164	2501.9035	7057.85	6172.1
977.2918	2503.2427	7031.35	6145.6
977.4197	2504.5812	6999.8	6114.6
977.5475	2505.919	6988.05	6102.75
977.6753	2507.256	6979.15	6096.6
977.8031	2508.5924	6943.05	6058.5
977.9308	2509.9281	6912.45	6021.85
978.0585	2511.2631	6908.85	6028.05
978.1861	2512.5974	6885.35	6002.95
978.3137	2513.9309	6845.2	5962
978.4413	2515.2638	6858.15	5946.1
978.5689	2516.596	6806.2	5924.2
978.6964	2517.9275	6779.05	5894.25
978.8239	2519.2583	6773.25	5889.45
978.9513	2520.5884	6729.65	5846.7
979.0788	2521.9178	6712.35	5828.3
979.2062	2523.2465	6704.7	5822.6
979.3335	2524.5745	6683.35	5803.3
979.4608	2525.9018	6658.2	5773.75
979.5881	2527.2284	6635.55	5753.75
979.7154	2528.5543	6629.4	5749.6
979.8426	2529.8796	6615.3	5732.05
979.9698	2531.2041	6566.05	5684.15
980.0969	2532.5279	6562.25	5680.55
980.224	2533.851	6567.8	5685.35
980.3511	2535.1735	6547.4	5664.5
980.4781	2536.4952	6528.5	5643.7
980.6052	2537.8163	6528.85	5644.3
980.7321	2539.1366	6479.4	5596.9
980.8591	2540.4562	6468.2	5584.95
980.986	2541.7752	6456.8	5572.25
981.1129	2543.0935	6441.05	5557.15
981.2397	2544.411	6444.25	5557.8
981.3665	2545.7279	6405	5523.9
981.4933	2547.0441	6416.95	5534.45
981.62	2548.3596	6396.5	5509.45
981.7467	2549.6744	6377.45	5493.35
981.8734	2550.9885	6358.8	5469.7
982.0001	2552.3019	6339	5455.9
982.1267	2553.6146	6333.8	5450.4
982.2532	2554.9266	6313.4	5429.75
982.3798	2556.2379	6278.1	5394.35
982.5063	2557.5485	6280.75	5397.15
982.6327	2558.8585	6261.55	5370.7
982.7592	2560.1677	6245.2	5356.75
982.8856	2561.4762	6249.6	5366.65
983.0119	2562.7841	6231	5343.15
983.1383	2564.0913	6203.75	5321.7
983.2646	2565.3977	6185.75	5304.8
983.3908	2566.7035	6170.3	5286.4
983.517	2568.0086	6185.8	5301.3
983.6432	2569.313	6158.7	5274.9
983.7694	2570.6167	6162.55	5276.25
983.8955	2571.9197	6151.6	5269.85
984.0216	2573.222	6135.65	5250.3
984.1476	2574.5236	6104.25	5220.05
984.2737	2575.8246	6084.5	5199.15
984.3996	2577.1248	6070.55	5184.85
984.5256	2578.4244	6071	5187.05
984.6515	2579.7232	6071.1	5188.1
984.7774	2581.0214	6056.7	5148.65
984.9032	2582.3189	6024.75	5143.9
985.029	2583.6157	6010.7	5125.6
985.1548	2584.9118	6011.25	5126.3
985.2806	2586.2072	5982.05	5099.75
985.4063	2587.5019	5975.15	5091.2
985.5319	2588.7959	5966.2	5082.15
985.6576	2590.0893	5953.55	5067.95
985.7832	2591.3819	5936.35	5054.4
985.9087	2592.6739	5911.05	5028.65
986.0343	2593.9652	5887.1	5003.25
986.1597	2595.2557	5866.4	4982.45
986.2852	2596.5456	5852.15	4967
986.4106	2597.8348	5844.1	4961.45
986.536	2599.1234	5801.55	4919.1
986.6614	2600.4112	5794.55	4911.05
986.7867	2601.6983	5781.9	4896
986.912	2602.9848	5765.7	4882.9
987.0372	2604.2705	5736.85	4844.3
987.1624	2605.5556	5731.95	4846.1
987.2876	2606.84	5681.05	4797.55
987.4128	2608.1237	5677.2	4792.5
987.5379	2609.4067	5658.25	4773.85
987.6629	2610.689	5657.25	4765.9
987.788	2611.9707	5615.25	4729
987.913	2613.2516	5596.95	4710.7
988.0379	2614.5319	5575.05	4693.8
988.1629	2615.8115	5550.9	4668.3
988.2878	2617.0903	5525.4	4641
988.4126	2618.3685	5514.8	4631.9
988.5375	2619.6461	5509	4624.6
988.6622	2620.9229	5507.05	4625.8
988.787	2622.199	5481.1	4596.45
988.9117	2623.4745	5470.55	4586.05
989.0364	2624.7493	5437.8	4554.2
989.161	2626.0234	5423.85	4540.5
989.2857	2627.2968	5414.5	4530.1
989.4102	2628.5695	5386.2	4503.05
989.5348	2629.8415	5350.25	4467.9
989.6593	2631.1128	5344.35	4459.05
989.7837	2632.3835	5325.95	4442.4
989.9082	2633.6535	5298.95	4416.8
990.0326	2634.9228	5295.7	4413.6
990.1569	2636.1914	5267.7	4386.2
990.2812	2637.4593	5265.95	4378.3
990.4055	2638.7265	5235.75	4352.95
990.5298	2639.9931	5214.55	4331.65
990.654	2641.259	5198.5	4315.5
990.7782	2642.5242	5210.2	4324.95
990.9023	2643.7887	5175.4	4291.55
991.0264	2645.0525	5174.3	4290.4
991.1505	2646.3156	5152.35	4270.15
991.2745	2647.5781	5142.7	4262.25
991.3985	2648.8398	5113.4	4230.3
991.5225	2650.1009	5106.65	4216.25
991.6464	2651.3613	5091.75	4209.1
991.7703	2652.6211	5084.7	4202.2
991.8942	2653.8801	5062.15	4178.2
992.018	2655.1385	5064.8	4179.4
992.1418	2656.3961	5032.7	4148.45
992.2655	2657.6531	5028.9	4147.1
992.3892	2658.9094	5028.6	4143.3
992.5129	2660.1651	5007.4	4125.15
992.6366	2661.42	5001.1	4118.5
992.7602	2662.6743	5005.05	4120.85
992.8837	2663.9279	4958.55	4076.2
993.0073	2665.1808	4955.4	4071.65
993.1307	2666.433	4936.4	4052.6
993.2542	2667.6846	4925.9	4044.35
993.3776	2668.9354	4916.9	4032.4
993.501	2670.1856	4917.2	4033.55
993.6244	2671.4351	4888.5	4007.7
993.7477	2672.6839	4880.4	3996.35
993.8709	2673.9321	4876.7	3995.6
993.9942	2675.1795	4864.15	3981.95
994.1174	2676.4263	4848.8	3965.75
994.2405	2677.6724	4837.75	3955.55
994.3637	2678.9179	4817.5	3934.1
994.4868	2680.1626	4785.95	3902.95
994.6098	2681.4067	4787.15	3902.2
994.7328	2682.6501	4773.05	3891.75
994.8558	2683.8928	4769.5	3886.85
994.9788	2685.1348	4740.95	3861.35
995.1017	2686.3761	4715.3	3834.45
995.2245	2687.6168	4728.65	3846.8
995.3474	2688.8568	4698.15	3816.95
995.4702	2690.0961	4706.8	3826.45
995.5929	2691.3348	4676.75	3792.55
995.7156	2692.5727	4650.4	3770.1
995.8383	2693.81	4652.4	3770.1
995.961	2695.0466	4623.25	3739.35
996.0836	2696.2826	4609.65	3726.5
996.2062	2697.5178	4611.95	3727.1
996.3287	2698.7524	4614.45	3734.55
996.4512	2699.9863	4602.05	3716.85
996.5737	2701.2195	4575	3693.55
996.6961	2702.452	4561.4	3676.25
996.8185	2703.6839	4539.65	3657.2
996.9408	2704.9151	4502.4	3622.15
997.0631	2706.1456	4526.8	3645.45
997.1854	2707.3755	4515.5	3631.45
997.3077	2708.6046	4498.8	3614.3
997.4299	2709.8331	4498.2	3614
997.552	2711.0609	4478.95	3596.45
997.6742	2712.2881	4472.75	3588.95
997.7963	2713.5145	4460.4	3576.15
997.9183	2714.7403	4445.65	3563.3
998.0403	2715.9654	4433.4	3550.1
998.1623	2717.1899	4436.65	3540.5
998.2842	2718.4136	4409.2	3528.6
998.4062	2719.6367	4395.75	3512.6
998.528	2720.8591	4392.05	3501.85
998.6498	2722.0809	4385.3	3502.8
998.7716	2723.3019	4357.85	3472.5
998.8934	2724.5223	4355.55	3472.25
999.0151	2725.7421	4339.3	3457.35
999.1368	2726.9611	4339.15	3455.3
999.2584	2728.1795	4316.35	3430.35
999.38	2729.3972	4291	3408.4
999.5016	2730.6142	4297.9	3403.6
999.6231	2731.8306	4282.7	3400.2
999.7446	2733.0462	4245.15	3362.6
999.8661	2734.2612	4241.45	3354.8
999.9875	2735.4756	4200.8	3317.3
1000.1089	2736.6892	4185.8	3303.95
1000.2302	2737.9022	4171.55	3289.45
1000.3515	2739.1145	4127.45	3245.3
1000.4728	2740.3262	4138.25	3248.7
1000.594	2741.5372	4109.6	3230.15
1000.7152	2742.7475	4090.9	3208
1000.8363	2743.9571	4077.65	3193.1
1000.9575	2745.1661	4060.35	3175.1
1001.0785	2746.3744	4066.2	3182.25
1001.1996	2747.582	4032.75	3152.2
1001.3206	2748.7889	4017.7	3133.15
1001.4415	2749.9952	4019.1	3137.7
1001.5625	2751.2008	4004.05	3120.9
1001.6833	2752.4057	3986.2	3101.05
1001.8042	2753.61	3972.85	3091.2
1001.925	2754.8136	3975.9	3092.55
1002.0458	2756.0165	3964.8	3083.6
1002.1665	2757.2188	3945.25	3062.55
1002.2872	2758.4204	3919.35	3039.25
1002.4078	2759.6213	3915.5	3031.8
1002.5285	2760.8215	3918.7	3033.7
1002.649	2762.0211	3901.7	3017.2
1002.7696	2763.22	3889.9	3003.75
1002.8901	2764.4182	3883.1	3000.05
1003.0106	2765.6158	3863.2	2979.8
1003.131	2766.8127	3838.35	2955.6
1003.2514	2768.009	3833	2950.55
1003.3717	2769.2045	3834.3	2951.95
1003.492	2770.3994	3817.55	2932.35
1003.6123	2771.5936	3812.35	2930.95
1003.7325	2772.7872	3793	2911.7
1003.8527	2773.9801	3797.6	2914.1
1003.9729	2775.1723	3788.55	2891.25
1004.093	2776.3639	3751	2871.05
1004.2131	2777.5548	3742.4	2858.1
1004.3331	2778.745	3742.45	2859.4
1004.4531	2779.9346	3722.2	2840.3
1004.5731	2781.1235	3727.6	2845.7
1004.693	2782.3117	3710.6	2828.05
1004.8129	2783.4992	3691.85	2810.65
1004.9328	2784.6861	3683	2801
1005.0526	2785.8723	3694	2810.55
1005.1723	2787.0579	3669.4	2787.8
1005.2921	2788.2428	3667.55	2784.6
1005.4118	2789.427	3659.2	2776.95
1005.5314	2790.6106	3631.9	2751.25
1005.651	2791.7935	3624.55	2741.4
1005.7706	2792.9757	3614.25	2734.65
1005.8902	2794.1573	3612.8	2727
1006.0097	2795.3382	3597.3	2716.2
1006.1291	2796.5184	3598.55	2717.5
1006.2485	2797.698	3593.1	2710.75
1006.3679	2798.8769	3590.8	2709.2
1006.4873	2800.0551	3573.05	2692.45
1006.6066	2801.2327	3579.95	2695.1
1006.7258	2802.4096	3572.1	2691.5
1006.8451	2803.5859	3556.35	2675.35
1006.9642	2804.7615	3556.8	2673.5
1007.0834	2805.9364	3558.05	2677.75
1007.2025	2807.1106	3554.5	2673.2
1007.3216	2808.2842	3559.55	2677.55
1007.4406	2809.4572	3574.2	2692.35
1007.5596	2810.6294	3569.9	2687
1007.6785	2811.801	3554.25	2675.5
1007.7975	2812.972	3566.75	2686.25
1007.9163	2814.1423	3587.15	2706.8
1008.0352	2815.3119	3594.65	2712.4
1008.154	2816.4808	3589.4	2708.9
1008.2727	2817.6491	3616.7	2735.35
1008.3914	2818.8167	3630.3	2750.15
1008.5101	2819.9837	3640.4	2753.85
1008.6288	2821.15	3641.45	2759.45
1008.7474	2822.3157	3666.8	2786.85
1008.8659	2823.4807	3686.9	2803.95
1008.9844	2824.645	3704.4	2821.3
1009.1029	2825.8086	3723.3	2843.2
1009.2214	2826.9716	3725.45	2845.1
1009.3398	2828.134	3744.35	2863.9
1009.4581	2829.2957	3773.4	2893.2
1009.5764	2830.4567	3771.35	2893.8
1009.6947	2831.617	3788.25	2907.35
1009.813	2832.7767	3787.75	2906.3
1009.9312	2833.9358	3782	2902.2
1010.0493	2835.0941	3768.8	2885.9
1010.1675	2836.2519	3751.7	2868.7
1010.2855	2837.4089	3738.65	2856.15
1010.4036	2838.5653	3714.9	2833.2
1010.5216	2839.7211	3718.15	2840.4
1010.6396	2840.8761	3708.25	2825.85
1010.7575	2842.0306	3693.35	2813.25
1010.8754	2843.1843	3701.45	2822
1010.9932	2844.3374	3706.2	2826.25
1011.111	2845.4899	3726.8	2845.45
1011.2288	2846.6417	3742.35	2863.15
1011.3465	2847.7928	3759.3	2879.65
1011.4642	2848.9433	3757.5	2879.05
1011.5818	2850.0931	3793.2	2912.05
1011.6995	2851.2422	3816.9	2933.6
1011.817	2852.3907	3854.15	2972.15
1011.9345	2853.5385	3857.4	2973.5
1012.052	2854.6857	3857.4	2967.05
1012.1695	2855.8323	3886.4	3007.65
1012.2869	2856.9781	3891.75	3012.45
1012.4042	2858.1233	3905.4	3024.95
1012.5216	2859.2679	3916.25	3036.95
1012.6389	2860.4118	3939.75	3058.9
1012.7561	2861.555	3943.8	3058.05
1012.8733	2862.6976	3957.6	3073.25
1012.9905	2863.8395	3960.6	3080.4
1013.1076	2864.9808	3976.65	3095.35
1013.2247	2866.1214	3947.05	3067.8
1013.3417	2867.2614	3967.4	3086.6
1013.4587	2868.4007	3965.3	3084.55
1013.5757	2869.5393	3962.35	3080.35
1013.6926	2870.6773	3963.6	3079.95
1013.8095	2871.8146	3947.6	3063.65
1013.9263	2872.9513	3931.7	3048.95
1014.0431	2874.0874	3921.5	3040.35
1014.1599	2875.2227	3906.15	3025.55
1014.2766	2876.3574	3904.15	3025.75
1014.3933	2877.4915	3862.4	2981.6
1014.51	2878.6249	3852.85	2973.9
1014.6266	2879.7577	3829.3	2946.15
1014.7431	2880.8898	3821.35	2930.75
1014.8596	2882.0212	3806.95	2926.85
1014.9761	2883.152	3805.15	2925.1
1015.0925	2884.2821	3776.05	2898.1
1015.2089	2885.4116	3761.1	2881.05
1015.3253	2886.5405	3765.5	2884.95
1015.4416	2887.6686	3751	2867.2
1015.5579	2888.7962	3750.15	2873.35
1015.6741	2889.923	3732.5	2853.6
1015.7903	2891.0493	3737.15	2856.75
1015.9065	2892.1748	3736.5	2856.55
1016.0226	2893.2997	3719.55	2837.2
1016.1387	2894.424	3715.85	2836.65
1016.2547	2895.5476	3729.5	2851.1
1016.3707	2896.6706	3712.45	2833.05
1016.4866	2897.7929	3727.1	2846.4
1016.6025	2898.9145	3730.3	2849.9
1016.7184	2900.0355	3732.2	2851.25
1016.8342	2901.1559	3737.9	2857.25
1016.95	2902.2756	3745.45	2865.75
1017.0658	2903.3946	3744.15	2864.2
1017.1815	2904.513	3735.55	2852.05
1017.2971	2905.6308	3751.95	2871.6
1017.4127	2906.7479	3741.15	2861.3
1017.5283	2907.8643	3741.75	2860.2
1017.6439	2908.9801	3761.9	2882.2
1017.7594	2910.0953	3744.3	2866.25
1017.8748	2911.2098	3732.6	2849.9
1017.9902	2912.3236	3729.95	2842.2
1018.1056	2913.4368	3707.7	2825
1018.2209	2914.5494	3707.55	2827.05
1018.3362	2915.6613	3669.5	2781.85
1018.4515	2916.7725	3677.75	2795.95
1018.5667	2917.8831	3646.1	2765.15
1018.6819	2918.9931	3612.4	2730.55
1018.797	2920.1024	3598.7	2718.15
1018.9121	2921.211	3595.6	2716.2
1019.0271	2922.319	3567.15	2687.15
1019.1421	2923.4264	3561.25	2682.5
1019.2571	2924.5331	3558.1	2680.25
1019.372	2925.6391	3540.45	2659.5
1019.4869	2926.7445	3537.5	2657.95
1019.6017	2927.8493	3530.7	2650.25
1019.7165	2928.9534	3520	2637.3
1019.8313	2930.0569	3527.65	2644.7
1019.946	2931.1597	3531.05	2647.8
1020.0606	2932.2619	3512.75	2634.5
1020.1753	2933.3634	3522.75	2641.8
1020.2899	2934.4643	3506.6	2622.5
1020.4044	2935.5645	3495.3	2608.85
1020.5189	2936.6641	3490.5	2605
1020.6334	2937.763	3461.45	2580.25
1020.7478	2938.8613	3434.85	2556.5
1020.8622	2939.959	3411.45	2524.1
1020.9765	2941.056	3370.1	2490.9
1021.0908	2942.1523	3340.8	2457.5
1021.2051	2943.248	3288.2	2407.6
1021.3193	2944.3431	3246.9	2367.3
1021.4334	2945.4375	3202.35	2322.9
1021.5476	2946.5313	3164	2286.95
1021.6617	2947.6244	3109.75	2229.1
1021.7757	2948.7169	3061.85	2180.7
1021.8897	2949.8087	3014.8	2133.65
1022.0037	2950.8999	2961.2	2080.65
1022.1176	2951.9904	2928.2	2049.5
1022.2315	2953.0803	2885.75	2005.35
1022.3453	2954.1696	2854.85	1975.95
1022.4591	2955.2582	2837.45	1958.25
1022.5728	2956.3462	2810.45	1930.85
1022.6865	2957.4335	2776.3	1894.3
1022.8002	2958.5202	2763	1882.1
1022.9138	2959.6062	2735.75	1855.45
1023.0274	2960.6916	2713.75	1834
1023.141	2961.7764	2697.9	1817.85
1023.2545	2962.8605	2707.45	1824.5
1023.3679	2963.9439	2692.7	1814.25
1023.4813	2965.0267	2666.35	1784.05
1023.5947	2966.1089	2680.15	1779.1
1023.708	2967.1905	2661.6	1781.85
1023.8213	2968.2714	2649.3	1769.45
1023.9346	2969.3516	2655.35	1775.95
1024.0478	2970.4312	2643.9	1757.4
1024.1609	2971.5102	2623.2	1744.5
1024.274	2972.5885	2624.55	1745.75
1024.3871	2973.6662	2621.25	1734
1024.5002	2974.7432	2613.35	1734.2
1024.6132	2975.8196	2606.95	1725.55
1024.7261	2976.8954	2594.55	1714.8
1024.839	2977.9705	2586.45	1707.95
1024.9519	2979.045	2583	1703.2
1025.0647	2980.1188	2569.65	1690.15
1025.1775	2981.192	2540.45	1662.85
1025.2902	2982.2645	2543.75	1663.05
1025.4029	2983.3364	2530.15	1650.95
1025.5156	2984.4077	2507.85	1627.1
1025.6282	2985.4783	2485.85	1600.95
1025.7407	2986.5483	2466.35	1587.25
1025.8532	2987.6177	2451.15	1570
1025.9657	2988.6864	2445.4	1563.55
1026.0782	2989.7545	2428.6	1546.7
1026.1906	2990.8219	2405.05	1525.75
1026.3029	2991.8887	2375.1	1492.75
1026.4152	2992.9548	2360.55	1479.5
1026.5275	2994.0204	2333.55	1456.2
1026.6397	2995.0852	2327.65	1449.55
1026.7519	2996.1495	2303.5	1422.7
1026.864	2997.2131	2296.1	1417.15
1026.9761	2998.276	2278.6	1397.15
1027.0882	2999.3383	2261.95	1381.7
1027.2002	3000.4	2247.4	1368.45
1027.3122	3001.4611	2246.85	1367.1
1027.4241	3002.5215	2231.75	1351.6
1027.536	3003.5812	2200.4	1319.95
1027.6478	3004.6404	2212.8	1332.3
1027.7596	3005.6989	2203.3	1322.25
1027.8714	3006.7567	2183.85	1302.85
1027.9831	3007.8139	2194.4	1291.9
1028.0947	3008.8705	2175.05	1296.6
1028.2064	3009.9264	2171.8	1289
1028.3179	3010.9818	2148.25	1269.95
1028.4295	3012.0364	2145	1265.5
1028.541	3013.0905	2134.65	1256.1
1028.6524	3014.1439	2132.6	1252.35
1028.7638	3015.1966	2129.1	1249.35
1028.8752	3016.2487	2110.1	1229.7
1028.9865	3017.3002	2111.7	1228.3
1029.0978	3018.3511	2100.5	1224.15
1029.209	3019.4013	2101.6	1221.4
1029.3202	3020.4509	2092.3	1213.5
1029.4314	3021.4998	2099.35	1221
1029.5425	3022.5481	2083.05	1201.25
1029.6535	3023.5958	2079.55	1202.75
1029.7645	3024.6428	2082.3	1200.55
1029.8755	3025.6892	2075.1	1197.8
1029.9864	3026.735	2063.4	1183.05
1030.0973	3027.7802	2067.8	1187.3
1030.2082	3028.8247	2065.2	1185.25
1030.319	3029.8685	2052.05	1170.75
1030.4297	3030.9118	2051.7	1168.95
1030.5404	3031.9544	2042.6	1164.85
1030.6511	3032.9963	2036.6	1156.65
1030.7617	3034.0376	2031.95	1152.4
1030.8723	3035.0783	2033	1150.9
1030.9829	3036.1184	2032.95	1153.85
1031.0934	3037.1578	2030.8	1153.5
1031.2038	3038.1966	2026.15	1144
1031.3142	3039.2348	2028.15	1150.2
1031.4246	3040.2723	2030.65	1143.4
1031.5349	3041.3092	2012.45	1133.3
1031.6452	3042.3455	2005.35	1126
1031.7554	3043.3811	2001.45	1120.2
1031.8656	3044.4161	1991.05	1111.4
1031.9758	3045.4505	1995.65	1118.25
1032.0859	3046.4842	1991.85	1112
1032.1959	3047.5173	1982.35	1103.6
1032.3059	3048.5498	1975.6	1094.35
1032.4159	3049.5816	1973.95	1094.65
1032.5258	3050.6128	1970.6	1090.05
1032.6357	3051.6434	1966.1	1085.15
1032.7455	3052.6734	1959.35	1078.2
1032.8553	3053.7027	1953.85	1075.85
1032.9651	3054.7314	1940.3	1061.95
1033.0748	3055.7594	1933.85	1054.85
1033.1845	3056.7868	1935.8	1056.45
1033.2941	3057.8136	1922.3	1042.7
1033.4037	3058.8398	1920.95	1043.15
1033.5132	3059.8653	1915.25	1036.85
1033.6227	3060.8902	1919.35	1039.55
1033.7321	3061.9145	1908.65	1028.5
1033.8415	3062.9381	1903.1	1024
1033.9509	3063.9612	1909.25	1012.45
1034.0602	3064.9835	1892.9	1011.4
1034.1694	3066.0053	1893.8	1013.8
1034.2787	3067.0264	1885.9	1006.3
1034.3878	3068.0469	1885.95	1006
1034.497	3069.0668	1875	993.45
1034.6061	3070.086	1865.05	987.95
1034.7151	3071.1046	1862.25	983.35
1034.8241	3072.1226	1861.6	979.45
1034.9331	3073.1399	1849.15	969.25
1035.042	3074.1567	1848.5	971.35
1035.1508	3075.1727	1842.8	964.2
1035.2597	3076.1882	1834.05	953.1
1035.3684	3077.203	1830.95	951.3
1035.4772	3078.2173	1818.55	937.9
1035.5859	3079.2308	1814.25	932.3
1035.6945	3080.2438	1807.85	926.7
1035.8031	3081.2561	1802.7	925.3
1035.9117	3082.2678	1784	904.8
1036.0202	3083.2789	1786.4	908.55
1036.1286	3084.2893	1784	903.25
1036.2371	3085.2991	1779.7	899.55
1036.3454	3086.3083	1782.1	898.8
1036.4538	3087.3169	1770.15	889.85
1036.562	3088.3248	1766.55	884.3
1036.6703	3089.3321	1756.15	876
1036.7785	3090.3388	1750.35	873.25
1036.8866	3091.3449	1742	863.3
1036.9948	3092.3503	1745.55	864.3
1037.1028	3093.3551	1734.15	855.95
1037.2108	3094.3593	1727.45	848.7
1037.3188	3095.3629	1724.1	843.55
1037.4267	3096.3658	1723.55	842.55
1037.5346	3097.3681	1713.05	832.85
1037.6425	3098.3698	1709.25	827.45
1037.7503	3099.3708	1720.05	835.7
1037.858	3100.3713	1693.4	815.7
1037.9657	3101.3711	1695.35	813.6
1038.0734	3102.3702	1808.75	790.8
1038.181	3103.3688	1698.85	819.9
1038.2886	3104.3667	1678.2	799.75
1038.3961	3105.364	1672.95	792.95
1038.5036	3106.3607	1676.3	794.9
1038.611	3107.3568	1665.75	784.7
1038.7184	3108.3522	1659.6	780.7
1038.8257	3109.347	1654.75	773.3
1038.933	3110.3412	1657.75	772.95
1039.0403	3111.3348	1646.55	766.75
1039.1475	3112.3277	1641.2	761.2
1039.2547	3113.32	1641.05	762.9
1039.3618	3114.3117	1637.15	759.65
1039.4689	3115.3028	1636.5	757.2
1039.5759	3116.2932	1628.1	747
1039.6829	3117.2831	1618.2	732.6
1039.7898	3118.2723	1611.65	732.65
1039.8967	3119.2608	1608.5	730.15
1040.0035	3120.2488	1610.75	731.4
1040.1103	3121.2361	1603.6	722.45
1040.2171	3122.2229	1597.15	720.75
1040.3238	3123.209	1604.1	722.55
1040.4305	3124.1944	1595.35	715.65
1040.5371	3125.1793	1587	705.35
1040.6437	3126.1635	1584.1	704.85
1040.7502	3127.1471	1580.1	701.9
1040.8567	3128.1301	1570.15	692.35
1040.9631	3129.1125	1568.8	690.25
1041.0695	3130.0942	1565.25	685.65
1041.1759	3131.0753	1581.25	693.2
1041.2822	3132.0558	1578.4	695.8
1041.3884	3133.0357	1559.85	680.15
1041.4946	3134.015	1563.75	682.15
1041.6008	3134.9936	1551.8	670.95
1041.7069	3135.9716	1573.3	672.6
1041.813	3136.949	1550.2	670.15
1041.919	3137.9258	1555.2	670.55
1042.025	3138.902	1549.25	664.45
1042.1309	3139.8775	1538.95	660.65
1042.2368	3140.8524	1536.2	655.6
1042.3427	3141.8267	1540.3	661.05
1042.4485	3142.8004	1526.85	645.95
1042.5542	3143.7735	1540	655.05
1042.6599	3144.7459	1527.4	645.45
1042.7656	3145.7178	1523.5	645.3
1042.8712	3146.689	1520.15	641.4
1042.9768	3147.6596	1519.05	637.65
1043.0823	3148.6295	1508.5	629
1043.1878	3149.5989	1506.25	627.6
1043.2932	3150.5676	1498.25	619.05
1043.3986	3151.5357	1501.75	625.55
1043.5039	3152.5032	1496.7	618.7
1043.6092	3153.4701	1492	611.15
1043.7145	3154.4364	1495.75	615.1
1043.8197	3155.402	1486.6	607.9
1043.9248	3156.367	1478.85	598.55
1044.03	3157.3315	1517.75	602.15
1044.135	3158.2952	1478.05	599.4
1044.24	3159.2584	1471.25	592.45
1044.345	3160.221	1475.05	594.5
1044.4499	3161.1829	1456.65	576.45
1044.5548	3162.1442	1456.95	578.65
1044.6596	3163.105	1457.05	579.6
1044.7644	3164.065	1449.05	569.3
1044.8692	3165.0245	1455.25	573.6
1044.9739	3165.9834	1450.3	572.65
1045.0785	3166.9416	1443.15	564.15
1045.1831	3167.8993	1447.8	569.25
1045.2877	3168.8563	1436.95	556.85
1045.3922	3169.8127	1439.45	560.45
1045.4966	3170.7684	1434.95	556.55
1045.6011	3171.7236	1431.25	549.95
1045.7054	3172.6782	1426.4	548.4
1045.8098	3173.6321	1426.3	547.1
1045.914	3174.5854	1429.75	546.65
1046.0183	3175.5381	1419.05	538.5
1046.1224	3176.4902	1418.95	541.35
1046.2266	3177.4417	1414.25	536.1
1046.3307	3178.3926	1407.75	530.4
1046.4347	3179.3428	1413.3	533.45
1046.5387	3180.2924	1406.55	526.7
1046.6427	3181.2415	1399.95	520.1
1046.7466	3182.1899	1399	518
1046.8504	3183.1377	1400.1	522.5
1046.9542	3184.0848	1399.8	516.2
1047.058	3185.0314	1397.1	518.45
1047.1617	3185.9773	1384.2	505.65
1047.2654	3186.9227	1387.95	508.45
1047.369	3187.8674	1379.6	501.05
1047.4726	3188.8115	1376.7	491.9
1047.5761	3189.755	1377.1	499.9
1047.6796	3190.6979	1374.1	495.35
1047.783	3191.6402	1369.7	491.3
1047.8864	3192.5818	1373.05	493.6
1047.9898	3193.5229	1383.25	489.15
1048.0931	3194.4633	1361.75	481.9
1048.1963	3195.4031	1361.35	483.55
1048.2995	3196.3423	1356.1	477.2
1048.4027	3197.2809	1355.25	477.55
1048.5058	3198.2189	1353.85	474.95
1048.6089	3199.1563	1370	473.9
1048.7119	3200.0931	1350.35	472.8
1048.8148	3201.0292	1342.35	465.85
1048.9178	3201.9648	1348.4	470.3
1049.0206	3202.8997	1343.15	462.15
1049.1235	3203.834	1336.1	458.7
1049.2262	3204.7677	1336.65	458.65
1049.329	3205.7008	1336.9	455.05
1049.4317	3206.6333	1328.5	450.4
1049.5343	3207.5652	1332.1	451.8
1049.6369	3208.4964	1325.25	445.65
1049.7394	3209.4271	1323.3	443.8
1049.8419	3210.3571	1324.1	446.65
1049.9444	3211.2865	1323.15	442.15
1050.0468	3212.2154	1318.95	439.1
1050.1491	3213.1436	1322.6	441.05
1050.2514	3214.0712	1319.6	434.8
1050.3537	3214.9982	1310.15	431.25
1050.4559	3215.9246	1306.45	427.05
1050.5581	3216.8503	1304.9	426.55
1050.6602	3217.7755	1304.7	426.15
1050.7623	3218.7001	1304.55	426.9
1050.8643	3219.624	1302.75	424.6
1050.9663	3220.5473	1291.2	412.1
1051.0682	3221.4701	1300.7	420.7
1051.1701	3222.3922	1297.7	415.65
1051.2719	3223.3137	1297.35	418.3
1051.3737	3224.2346	1292.45	413.3
1051.4754	3225.1549	1284.2	406.15
1051.5771	3226.0746	1288.2	409.55
1051.6788	3226.9937	1287.8	406.65
1051.7804	3227.9121	1278.55	400.6
1051.8819	3228.83	1279.25	399.7
1051.9834	3229.7473	1277.7	399.4
1052.0849	3230.6639	1274.95	395.2
1052.1863	3231.5799	1271.35	391.05
1052.2876	3232.4954	1271.3	392.4
1052.3889	3233.4102	1268.2	389.6
1052.4902	3234.3244	1259.55	381.95
1052.5914	3235.238	1255.2	377.35
1052.6926	3236.151	1282.85	378.55
1052.7937	3237.0634	1266.35	387.8
1052.8948	3237.9752	1256.7	376.95
1052.9958	3238.8864	1254.9	374.95
1053.0968	3239.797	1249.65	371
1053.1977	3240.7069	1250.85	371.25
1053.2986	3241.6163	1249.2	369.55
1053.3994	3242.5251	1244.75	367.5
1053.5002	3243.4332	1240.85	361.85
1053.6009	3244.3408	1236.55	359.15
1053.7016	3245.2477	1231.75	352.45
1053.8022	3246.154	1238.95	359.8
1053.9028	3247.0598	1235.85	357
1054.0034	3247.9649	1231.3	353.3
1054.1039	3248.8694	1230.85	352.25
1054.2043	3249.7733	1222.7	344.9
1054.3047	3250.6766	1225.15	345.25
1054.4051	3251.5793	1223.25	345.65
1054.5054	3252.4814	1224.75	346.1
1054.6056	3253.3829	1216.85	335.95
1054.7058	3254.2838	1219.9	340.75
1054.806	3255.1841	1214.3	335.5
1054.9061	3256.0838	1210.8	331.1
1055.0061	3256.9829	1209.9	331.2
1055.1062	3257.8814	1207.25	326.75
1055.2061	3258.7792	1207.8	328.2
1055.306	3259.6765	1197.75	318.15
1055.4059	3260.5731	1191.75	315
1055.5057	3261.4692	1194.3	313.4
1055.6055	3262.3647	1189.15	311.2
1055.7052	3263.2595	1185.15	306.45
1055.8049	3264.1538	1181.7	301.55
1055.9045	3265.0474	1174.9	294.6
1056.0041	3265.9404	1170.35	292.45
1056.1036	3266.8329	1166.4	287.8
1056.2031	3267.7247	1170.55	280.95
1056.3025	3268.616	1157	278.2
1056.4019	3269.5066	1142.25	262.85
1056.5013	3270.3966	1137.9	257.25
1056.6005	3271.286	1128.15	250.95
