Software Version:	3.9.2.0
Unit SN:	10000200
Spectrometer SN:	6960
Date:	3/6/2024 9:47:43 AM
Data Line Index:	25
Spectral Points:	2048
Integration time (ms):	125
Averages:	20
Delay (ms):	30
Sequence Number:	1
Processing:	dark subtract
Laser Power (mW):	305
Laser Current (mA):	823
Laser Diode Temp (C):	25.1
Laser Case Temp (C):	24.2
System Temp (C):	24
Spectrometer Temp (C):	21.6
CCD Temp (C):	-0.031
Secondary Temp (C):	20.003
Heatsink Temp (C):	18.014
CCDPCB Temp (C):	30.916
SecondaryPCB Temp (C):	25.769

Wavelength	RamanShift	Raw Counts	Dark Subtracted
787.061	30.1047	448.35	42.3
787.2016	32.3739	446.75	44.1
787.3422	34.6426	454.1	48.9
787.4828	36.9109	459.15	51.35
787.6235	39.1787	465	54.85
787.7642	41.4461	474.3	59.5
787.9049	43.7131	479.15	58.65
788.0456	45.9796	484.85	61.6
788.1863	48.2456	494.3	68.65
788.3271	50.5112	501.9	72.35
788.4679	52.7764	508.2	74.3
788.6087	55.0411	518.65	80.05
788.7496	57.3054	528.75	84.4
788.8904	59.5692	532.05	87.15
789.0313	61.8326	537.2	90.6
789.1722	64.0955	549.85	98.4
789.3132	66.3579	566.1	111.3
789.4541	68.6199	577.35	117.65
789.5951	70.8815	602.4	141.85
789.7361	73.1426	651.45	184.3
789.8771	75.4032	769.5	298.65
790.0181	77.6634	1063.45	590.9
790.1592	79.9231	1776.4	1298.6
790.3003	82.1824	3249.85	2767.05
790.4414	84.4412	5824.6	5326.6
790.5825	86.6995	9308.7	8800.25
790.7237	88.9574	12767.55	12249.8
790.8648	91.2148	15317.3	14792.4
791.006	93.4717	16725	16193.65
791.1472	95.7282	17339.55	16804.3
791.2885	97.9842	17678.25	17141.6
791.4297	100.2398	17791.45	17251.65
791.571	102.4949	17819.35	17277.9
791.7123	104.7495	17870.3	17321.55
791.8536	107.0036	17826.8	17278.7
791.9949	109.2573	17848.8	17303.1
792.1363	111.5105	17829.35	17277.2
792.2777	113.7632	17807	17255.25
792.4191	116.0154	17837.25	17273
792.5605	118.2672	17895.95	17339.45
792.7019	120.5185	17888.1	17328.3
792.8434	122.7693	17907.2	17343.3
792.9849	125.0197	17960.1	17393.35
793.1264	127.2696	17948.55	17377.95
793.2679	129.519	18033.6	17462.6
793.4094	131.7679	18059.9	17485.55
793.551	134.0163	18110.2	17532.6
793.6926	136.2642	18137.65	17559.1
793.8342	138.5117	18161.85	17577.7
793.9758	140.7587	18145.7	17564.25
794.1175	143.0052	18187.7	17601.05
794.2591	145.2512	18182.4	17595.1
794.4008	147.4967	18158.95	17567.05
794.5425	149.7417	18125.5	17532.05
794.6842	151.9863	18150.7	17555.05
794.826	154.2304	18155.55	17555.4
794.9677	156.4739	18120.25	17515.2
795.1095	158.717	18173.7	17567.75
795.2513	160.9596	18171.3	17560.35
795.3931	163.2017	18196.7	17585.4
795.535	165.4433	18207.9	17592.45
795.6768	167.6844	18215.5	17599.2
795.8187	169.925	18219.7	17600.4
795.9606	172.1651	18174.85	17549.35
796.1025	174.4047	18173	17546.95
796.2445	176.6439	18156.1	17527.35
796.3864	178.8825	18149.25	17516.1
796.5284	181.1206	18169.2	17533.55
796.6704	183.3582	18217.05	17577.35
796.8124	185.5954	18235.25	17595
796.9544	187.832	18220.9	17573.8
797.0965	190.0681	18311.8	17665.75
797.2386	192.3037	18334.6	17685.6
797.3806	194.5388	18327.55	17675.6
797.5228	196.7734	18377.75	17722.75
797.6649	199.0075	18441.75	17781.8
797.807	201.2411	18524.45	17868.65
797.9492	203.4742	18560.25	17902.45
798.0914	205.7068	18627.75	17963.3
798.2336	207.9389	18629.3	17966.1
798.3758	210.1704	18684	18025.8
798.518	212.4015	18676.9	18026.8
798.6603	214.632	18691.5	18046.05
798.8025	216.862	18746.45	18104.4
798.9448	219.0915	18753.4	18108.05
799.0871	221.3205	18783.65	18138.95
799.2294	223.549	18801.45	18159.05
799.3718	225.777	18851.5	18207.85
799.5141	228.0044	18883	18229.9
799.6565	230.2314	18916.9	18263
799.7989	232.4578	18923.55	18261.65
799.9413	234.6837	18945.6	18281.7
800.0837	236.909	18997.5	18329.7
800.2262	239.1339	18971.15	18277.9
800.3687	241.3582	18989.15	18309.3
800.5111	243.582	19008	18299.15
800.6536	245.8053	19056.45	18361.7
800.7961	248.0281	19032.55	18343.05
800.9387	250.2503	19055.25	18363.55
801.0812	252.472	19056.1	18361.95
801.2238	254.6932	19109.1	18415.5
801.3664	256.9139	19046.75	18351.5
801.509	259.134	19094.25	18394
801.6516	261.3536	19091.4	18392.15
801.7942	263.5727	19160.65	18460.3
801.9369	265.7912	19142.3	18445.25
802.0795	268.0092	19188.45	18486.65
802.2222	270.2267	19202.05	18500.45
802.3649	272.4436	19251	18546.5
802.5076	274.6601	19287.45	18574.6
802.6504	276.8759	19271.65	18563.7
802.7931	279.0913	19306.85	18595.15
802.9359	281.3061	19293.65	18582
803.0787	283.5204	19343.6	18631.3
803.2215	285.7341	19371.4	18653.8
803.3643	287.9473	19390.2	18660.65
803.5071	290.16	19392.4	18670.1
803.6499	292.3721	19330.95	18617.9
803.7928	294.5837	19358.35	18644.5
803.9357	296.7947	19332	18617.4
804.0786	299.0052	19328.35	18611.8
804.2215	301.2152	19275.55	18555.3
804.3644	303.4246	19308.25	18592.05
804.5074	305.6334	19292.6	18573.05
804.6503	307.8418	19294.3	18572.3
804.7933	310.0495	19269.6	18547.6
804.9363	312.2568	19248.4	18524.65
805.0793	314.4635	19150.9	18426.5
805.2223	316.6696	19137.65	18411.25
805.3653	318.8752	19062.1	18326.7
805.5084	321.0802	19048.95	18317.4
805.6514	323.2847	19063.05	18330
805.7945	325.4887	19026.6	18295.1
805.9376	327.692	19017.5	18284.55
806.0807	329.8949	19078.45	18343.3
806.2238	332.0972	19076.45	18339.55
806.367	334.2989	19107.65	18363.95
806.5101	336.5001	19086.25	18343.35
806.6533	338.7007	19062.85	18321.05
806.7965	340.9008	19120.15	18378
806.9397	343.1003	19052.95	18310.7
807.0829	345.2992	19049.3	18303.8
807.2261	347.4976	19037.25	18289
807.3693	349.6955	18991.4	18240.5
807.5126	351.8927	19029.2	18275.15
807.6559	354.0895	18964.95	18200.2
807.7991	356.2856	18986.8	18229.8
807.9424	358.4812	18955.8	18199.8
808.0857	360.6763	18990.7	18233.2
808.2291	362.8707	18961.25	18204.4
808.3724	365.0646	18979.3	18215.45
808.5158	367.258	18942.65	18180.1
808.6591	369.4508	18915.25	18148.15
808.8025	371.643	18926.5	18159.25
808.9459	373.8346	18899.9	18132.25
809.0893	376.0257	18868.85	18098.1
809.2327	378.2162	18837.65	18068.2
809.3762	380.4062	18884.25	18113.5
809.5196	382.5956	18818.4	18050.1
809.6631	384.7844	18809.9	18045.6
809.8066	386.9726	18731.1	17969.3
809.9501	389.1603	18711.3	17947.25
810.0936	391.3474	18728	17921.25
810.2371	393.5339	18680.95	17916.4
810.3806	395.7199	18623.4	17860.2
810.5241	397.9052	18631.55	17868.45
810.6677	400.09	18583.25	17818.25
810.8113	402.2743	18647.7	17881.6
810.9548	404.4579	18593.4	17827.2
811.0984	406.641	18652.95	17882.9
811.2421	408.8235	18707.6	17937.75
811.3857	411.0054	18737.3	17964.95
811.5293	413.1868	18814.05	18034.45
811.673	415.3675	18835.85	18056.2
811.8166	417.5477	18828.85	18048.8
811.9603	419.7273	18825.35	18044.7
812.104	421.9064	18662	17874.85
812.2477	424.0848	18612.05	17829.45
812.3914	426.2627	18505.65	17718.45
812.5351	428.4399	18453.4	17666.65
812.6788	430.6166	18394.1	17602.6
812.8226	432.7928	18355.6	17563.55
812.9663	434.9683	18252.6	17460.75
813.1101	437.1432	18224.15	17431.55
813.2539	439.3176	18124.9	17331.6
813.3977	441.4914	18118.1	17328.2
813.5415	443.6645	18110.25	17318.3
813.6853	445.8371	18041.7	17248.2
813.8291	448.0091	17970.75	17180.2
813.973	450.1806	17970.7	17176.95
814.1168	452.3514	17869.35	17076.85
814.2607	454.5216	17887.15	17084.9
814.4046	456.6913	17815.5	17018.9
814.5485	458.8603	17805.7	17009.5
814.6924	461.0288	17836.95	17040.2
814.8363	463.1967	17775.95	16981.2
814.9802	465.3639	17780.65	16985
815.1241	467.5306	17732.9	16935.2
815.2681	469.6967	17706	16911.75
815.412	471.8622	17616.75	16823.3
815.556	474.0271	17648.55	16849.45
815.7	476.1914	17665.8	16864.85
815.844	478.3551	17645.35	16845.7
815.988	480.5182	17648.1	16847.7
816.132	482.6807	17657.2	16856.65
816.276	484.8426	17653.05	16855.6
816.4201	487.0039	17673.6	16872.1
816.5641	489.1647	17725.7	16923.15
816.7082	491.3248	17721.3	16917.9
816.8522	493.4843	17696.85	16894.95
816.9963	495.6432	17703.4	16902.75
817.1404	497.8015	17638.85	16830.95
817.2845	499.9592	17650.3	16839.7
817.4286	502.1163	17620.5	16812.65
817.5727	504.2728	17559.1	16752.1
817.7168	506.4287	17579.1	16770.95
817.861	508.5839	17518.15	16711.3
818.0051	510.7386	17495.1	16686.8
818.1493	512.8927	17512.7	16702.25
818.2935	515.0461	17512	16701.4
818.4377	517.199	17502.6	16689.2
818.5818	519.3512	17521.85	16706.85
818.726	521.5029	17514.1	16693.95
818.8703	523.6539	17508.45	16695.6
819.0145	525.8043	17523.95	16709.45
819.1587	527.9541	17500.75	16685.5
819.303	530.1033	17438.45	16622.6
819.4472	532.2519	17351.7	16534.2
819.5915	534.3999	17337.75	16517.6
819.7357	536.5472	17333.25	16517.05
819.88	538.694	17320.4	16501.75
820.0243	540.8401	17349.65	16530.05
820.1686	542.9856	17353	16531.05
820.3129	545.1305	17328.5	16507
820.4572	547.2748	17366.95	16542.9
820.6016	549.4185	17324	16501.2
820.7459	551.5615	17283.85	16458.15
820.8902	553.704	17310.2	16485.8
821.0346	555.8458	17261.4	16439.6
821.1789	557.987	17258.9	16437.6
821.3233	560.1276	17281.35	16456.2
821.4677	562.2675	17289.85	16469.3
821.6121	564.4069	17289.1	16463.7
821.7565	566.5456	17274.05	16452.3
821.9009	568.6837	17249.85	16425.25
822.0453	570.8212	17189.15	16364.95
822.1897	572.958	17107.05	16280.3
822.3342	575.0942	17074.85	16252.4
822.4786	577.2299	17047.05	16222.4
822.6231	579.3648	16968.5	16146.6
822.7675	581.4992	16873.6	16050.35
822.912	583.6329	16825.3	16003.75
823.0565	585.766	16804.05	15981.6
823.201	587.8985	16811.55	15989.3
823.3454	590.0304	16789	15952.7
823.4899	592.1616	16771.15	15940.45
823.6345	594.2922	16749.4	15921.45
823.779	596.4222	16678.55	15846.3
823.9235	598.5515	16610.35	15778.85
824.068	600.6802	16565.65	15735.55
824.2126	602.8083	16437.9	15607.45
824.3571	604.9358	16496	15663.65
824.5017	607.0626	16433	15600.8
824.6462	609.1888	16413.9	15577.5
824.7908	611.3144	16386.85	15548.55
824.9354	613.4393	16390.35	15555.4
825.08	615.5636	16371.55	15534.55
825.2246	617.6873	16378.75	15543.4
825.3692	619.8103	16419.2	15583.2
825.5138	621.9327	16394.25	15556.55
825.6584	624.0544	16382.4	15549.65
825.803	626.1756	16311	15475.7
825.9477	628.2961	16295.35	15459.65
826.0923	630.4159	16263.35	15424.65
826.237	632.5351	16242	15405.05
826.3816	634.6537	16179.65	15339.65
826.5263	636.7716	16201.2	15360.7
826.6709	638.8889	16202.75	15361.8
826.8156	641.0056	16241.4	15400.45
826.9603	643.1216	16159.95	15317.45
827.105	645.237	16195.15	15349.95
827.2497	647.3518	16133.7	15293.55
827.3944	649.4659	16147.2	15307.3
827.5391	651.5793	16055.05	15214.75
827.6838	653.6922	16043	15202.7
827.8285	655.8043	16013.45	15172.6
827.9733	657.9159	16030.25	15187.35
828.118	660.0268	15948.1	15103.25
828.2627	662.137	15921	15076
828.4075	664.2466	15933.9	15087.15
828.5522	666.3556	15919.8	15075.45
828.697	668.4639	15871.1	15025.15
828.8418	670.5716	15870.75	15027.05
828.9865	672.6786	15882.4	15036.6
829.1313	674.785	15803.85	14954.75
829.2761	676.8907	15734.3	14886.1
829.4209	678.9958	15764.35	14919.6
829.5657	681.1002	15736.2	14889.4
829.7105	683.204	15712.75	14861.6
829.8553	685.3072	15692.9	14841.45
830.0001	687.4097	15655.25	14806.1
830.1449	689.5115	15659.55	14808.9
830.2898	691.6127	15636.15	14786.2
830.4346	693.7132	15598.35	14750.3
830.5794	695.8131	15616.15	14743.15
830.7243	697.9123	15605.8	14755.6
830.8691	700.0109	15585.7	14731.85
831.014	702.1089	15597.85	14747.3
831.1588	704.2061	15568.4	14717.8
831.3037	706.3028	15576.2	14722.05
831.4486	708.3987	15553.25	14701.3
831.5935	710.4941	15558.4	14709.7
831.7383	712.5887	15528.45	14674.15
831.8832	714.6827	15543	14685.1
832.0281	716.7761	15505.7	14652
832.173	718.8688	15461.7	14607.7
832.3179	720.9608	15433.9	14575.8
832.4628	723.0522	15463	14604.05
832.6077	725.1429	15423.85	14568.1
832.7527	727.233	15441.6	14584.55
832.8976	729.3224	15480.85	14626.35
833.0425	731.4112	15433.05	14576.75
833.1874	733.4993	15441.2	14583.45
833.3324	735.5867	15354.85	14497.6
833.4773	737.6735	15328.7	14470.15
833.6222	739.7596	15295.45	14436.55
833.7672	741.845	15262.85	14404.8
833.9122	743.9298	15196.75	14337.35
834.0571	746.014	15212.15	14355.55
834.2021	748.0974	15201.45	14343.65
834.347	750.1802	15165.6	14306.05
834.492	752.2624	15083.2	14223.85
834.637	754.3439	15011.65	14151.2
834.782	756.4247	14997.15	14128.1
834.9269	758.5048	14930.25	14067.9
835.0719	760.5843	14931.3	14068.8
835.2169	762.6631	14912.35	14050.6
835.3619	764.7413	14905.45	14045.45
835.5069	766.8188	14931.25	14068.3
835.6519	768.8956	14881.35	14019.7
835.7969	770.9718	14955.4	14095.7
835.9419	773.0473	14881.45	14020.85
836.0869	775.1221	14831.15	13971.45
836.232	777.1962	14767.4	13904.55
836.377	779.2697	14768.55	13903.5
836.522	781.3426	14787.2	13903.3
836.667	783.4147	14814.6	13950
836.8121	785.4862	14781.7	13921.55
836.9571	787.557	14704.6	13841.15
837.1021	789.6271	14636.75	13773.05
837.2472	791.6966	14559.05	13696.65
837.3922	793.7654	14459.2	13595.5
837.5373	795.8335	14443.5	13580
837.6823	797.901	14429.8	13567.2
837.8274	799.9678	14373.5	13505.75
837.9724	802.0339	14355.05	13492.2
838.1175	804.0993	14336.75	13464.65
838.2626	806.1641	14281	13415.2
838.4076	808.2282	14273.4	13408.75
838.5527	810.2916	14216.05	13347.3
838.6978	812.3544	14195.9	13331.6
838.8428	814.4164	14164.6	13299.5
838.9879	816.4778	14199.1	13332.1
839.133	818.5385	14158.8	13292.45
839.2781	820.5986	14169.2	13304.1
839.4232	822.658	14188.05	13321.15
839.5682	824.7166	14166.9	13299.55
839.7133	826.7747	14203.5	13336.95
839.8584	828.832	14236.2	13366.7
840.0035	830.8886	14183.45	13309.95
840.1486	832.9446	14212.45	13343.4
840.2937	834.9999	14166.55	13300.3
840.4388	837.0545	14138.1	13267.8
840.5839	839.1085	14063.8	13193.85
840.729	841.1618	13992.45	13120
840.8741	843.2143	13954.9	13086.35
841.0192	845.2662	13909.25	13038.55
841.1643	847.3175	13882.8	13013
841.3095	849.368	13841.1	12972.2
841.4546	851.4179	13835.75	12964.4
841.5997	853.467	13750.15	12881.1
841.7448	855.5155	13767.75	12897.9
841.8899	857.5633	13737.85	12868.8
842.0351	859.6105	13673.55	12803.9
842.1802	861.6569	13679.75	12808.6
842.3253	863.7027	13657	12785.65
842.4704	865.7478	13665.5	12792.95
842.6156	867.7922	13613.8	12742
842.7607	869.8359	13588.2	12715.95
842.9058	871.8789	13593.65	12721.1
843.0509	873.9212	13584.2	12682.65
843.1961	875.9629	13530.15	12659.55
843.3412	878.0039	13521.85	12648.85
843.4863	880.0441	13504.8	12634.5
843.6315	882.0837	13524.05	12651.55
843.7766	884.1226	13491.5	12617.15
843.9218	886.1609	13500.75	12627.85
844.0669	888.1984	13542.8	12672.25
844.212	890.2352	13580.2	12707.85
844.3572	892.2714	13576.05	12698.9
844.5023	894.3069	13530.45	12656.55
844.6475	896.3416	13449.9	12574.6
844.7926	898.3757	13448.75	12576.15
844.9377	900.4091	13424.55	12549.9
845.0829	902.4418	13390.9	12513.35
845.228	904.4739	13333.3	12458.4
845.3732	906.5052	13349.25	12472.85
845.5183	908.5358	13284.55	12412.4
845.6635	910.5658	13300.5	12421.1
845.8086	912.595	13246.05	12372.2
845.9538	914.6236	13171.75	12297.8
846.0989	916.6515	13188.6	12312.55
846.2441	918.6786	13146	12271.6
846.3892	920.7051	13141.2	12265.55
846.5344	922.7309	13133.3	12258.75
846.6795	924.756	13052.85	12177.75
846.8246	926.7804	13063.7	12186.5
846.9698	928.8041	13002.3	12124.2
847.1149	930.8272	13017	12140.05
847.2601	932.8495	12936.85	12058.55
847.4052	934.8711	12936.3	12058.9
847.5504	936.892	12896.7	12019.8
847.6955	938.9123	12862.5	11984.35
847.8407	940.9318	12850.95	11976
847.9858	942.9506	12844.4	11965.7
848.131	944.9688	12759.5	11882.55
848.2761	946.9862	12739.75	11863.05
848.4213	949.003	12691.85	11814.85
848.5664	951.019	12658.5	11780.6
848.7115	953.0344	12591.9	11710.15
848.8567	955.0491	12591.3	11711.05
849.0018	957.063	12574.9	11699.3
849.147	959.0763	12572.35	11694.35
849.2921	961.0888	12509	11628.45
849.4373	963.1007	12517.4	11638.1
849.5824	965.1119	12526.85	11651.2
849.7275	967.1223	12475.8	11601
849.8727	969.1321	12471	11593.5
850.0178	971.1412	12457.05	11582.2
850.1629	973.1495	12412.85	11535.65
850.3081	975.1572	12417	11494.8
850.4532	977.1641	12398.95	11523.35
850.5983	979.1704	12355.6	11473.3
850.7435	981.1759	12294.15	11412.45
850.8886	983.1808	12332.75	11450.6
851.0337	985.1849	12276.75	11389.4
851.1788	987.1884	12256.85	11375.8
851.324	989.1911	12227.3	11346.75
851.4691	991.1932	12200.95	11321.7
851.6142	993.1945	12142.2	11262.45
851.7593	995.1951	12088.75	11209.6
851.9045	997.1951	12080.3	11194.8
852.0496	999.1943	12042.8	11164.4
852.1947	1001.1928	12008.15	11125.8
852.3398	1003.1906	11970.4	11089.3
852.4849	1005.1877	11974.75	11092.8
852.63	1007.1841	11902.85	11020.85
852.7751	1009.1798	11874.6	10994.45
852.9202	1011.1748	11838.75	10958.7
853.0653	1013.1691	11802.2	10921.3
853.2104	1015.1627	11758	10874.75
853.3555	1017.1556	11676.1	10794.9
853.5006	1019.1477	11645.1	10764.25
853.6457	1021.1392	11579.6	10700.55
853.7908	1023.1299	11500.9	10622.1
853.9359	1025.12	11471.95	10590.55
854.081	1027.1093	11433.65	10558.6
854.2261	1029.0979	11431.3	10558
854.3712	1031.0859	11386.1	10511.5
854.5163	1033.0731	11371.95	10492.8
854.6613	1035.0596	11335.6	10456.4
854.8064	1037.0454	11263.95	10384.35
854.9515	1039.0304	11252.5	10372.5
855.0965	1041.0148	11209.3	10325.8
855.2416	1042.9985	11162.2	10277.95
855.3867	1044.9814	11156.55	10278.15
855.5317	1046.9636	11088	10205.2
855.6768	1048.9452	11039.15	10158.5
855.8219	1050.926	11065.85	10185.55
855.9669	1052.9061	11042.75	10161.25
856.112	1054.8855	10997.65	10115.4
856.257	1056.8642	11010.25	10129.85
856.4021	1058.8421	10960.85	10075.9
856.5471	1060.8194	10950.85	10068.1
856.6921	1062.7959	10928.1	10044.25
856.8372	1064.7717	10937.9	10054.35
856.9822	1066.7469	10897.15	10009.35
857.1272	1068.7213	10891.15	10006.65
857.2723	1070.695	10874.1	9993.4
857.4173	1072.6679	10826.25	9941.1
857.5623	1074.6402	10835.6	9953.1
857.7073	1076.6117	10816.45	9929
857.8523	1078.5826	10821.1	9937.3
857.9973	1080.5527	10766.55	9883.35
858.1423	1082.5221	10724.5	9840.85
858.2873	1084.4908	10673.1	9789.7
858.4323	1086.4587	10652.4	9765.85
858.5773	1088.426	10593.85	9708.75
858.7223	1090.3925	10569.4	9681.65
858.8673	1092.3584	10564.7	9681.65
859.0123	1094.3235	10511.45	9629.7
859.1573	1096.2879	10521.25	9639.1
859.3022	1098.2515	10498.2	9614.35
859.4472	1100.2145	10526.85	9644.35
859.5922	1102.1767	10495.55	9608.9
859.7371	1104.1382	10492	9609.95
859.8821	1106.099	10501.35	9616.05
860.027	1108.0591	10486.9	9605.6
860.172	1110.0185	10481.4	9594.9
860.3169	1111.9771	10495.85	9613.45
860.4619	1113.9351	10487.2	9603.3
860.6068	1115.8923	10481	9597.65
860.7517	1117.8488	10478.3	9592.25
860.8967	1119.8045	10401.6	9517
861.0416	1121.7596	10350.7	9465.6
861.1865	1123.7139	10276.85	9394.65
861.3314	1125.6675	10222.8	9339.85
861.4763	1127.6204	10208.65	9324.5
861.6212	1129.5726	10187.6	9302.55
861.7661	1131.524	10198.4	9315.15
861.911	1133.4748	10166.55	9282.35
862.0559	1135.4248	10097.7	9215.2
862.2008	1137.3741	10049.15	9167.3
862.3457	1139.3226	9984.55	9098.45
862.4905	1141.2705	10020.2	9137.1
862.6354	1143.2176	9963	9075.45
862.7803	1145.164	9956.45	9072
862.9251	1147.1097	9916.3	9031.7
863.07	1149.0546	9922.6	9036.65
863.2148	1150.9989	9908.95	9023.25
863.3597	1152.9424	9885.85	9000.4
863.5045	1154.8852	9844.35	8959.3
863.6493	1156.8272	9825.75	8941.1
863.7942	1158.7686	9837	8945.3
863.939	1160.7092	9798.05	8910.75
864.0838	1162.6491	9761.65	8873.95
864.2286	1164.5883	9762.2	8877.7
864.3734	1166.5267	9757.65	8870.95
864.5182	1168.4644	9780.7	8896.3
864.663	1170.4014	9752.3	8864.15
864.8078	1172.3377	9768.45	8884
864.9526	1174.2732	9792.55	8908.25
865.0974	1176.2081	9830	8943.6
865.2421	1178.1421	9858.6	8970.8
865.3869	1180.0755	9905.9	9021.5
865.5317	1182.0082	9905.55	9022.45
865.6764	1183.9401	9884	8998.4
865.8212	1185.8713	9797.3	8912.4
865.9659	1187.8017	9735.1	8851.95
866.1106	1189.7315	9654.2	8774.75
866.2554	1191.6605	9561.4	8676.45
866.4001	1193.5888	9537.25	8652.75
866.5448	1195.5163	9513.05	8629.55
866.6895	1197.4432	9461	8574.9
866.8342	1199.3693	9426.7	8541.65
866.9789	1201.2947	9390.05	8498.55
867.1236	1203.2193	9325.25	8440.45
867.2683	1205.1432	9299.7	8412.8
867.413	1207.0664	9274.2	8387.35
867.5576	1208.9889	9263.9	8374.5
867.7023	1210.9106	9203.75	8316.6
867.847	1212.8316	9188.15	8303.8
867.9916	1214.7519	9178.05	8282.6
868.1363	1216.6715	9158.7	8274.1
868.2809	1218.5903	9162.65	8277.75
868.4255	1220.5084	9158.65	8272.3
868.5701	1222.4257	9133.6	8248.6
868.7148	1224.3424	9091.3	8206.9
868.8594	1226.2583	9075.55	8183.95
869.004	1228.1735	9104.3	8215.5
869.1486	1230.0879	9058.8	8170.15
869.2932	1232.0016	9059.05	8172.3
869.4377	1233.9146	9043.95	8157.7
869.5823	1235.8269	9047.55	8161.25
869.7269	1237.7384	9064.35	8177.6
869.8715	1239.6492	9025.75	8141.75
870.016	1241.5592	9013.9	8127.25
870.1606	1243.4686	9014.5	8127.8
870.3051	1245.3772	9033.5	8149.15
870.4496	1247.285	9041.2	8153.55
870.5941	1249.1922	9070.95	8185.4
870.7387	1251.0986	9105.6	8219.9
870.8832	1253.0042	9108.1	8220.95
871.0277	1254.9092	9154.55	8268.55
871.1722	1256.8134	9167.55	8280.45
871.3167	1258.7169	9188.15	8302.3
871.4611	1260.6196	9197.3	8312.3
871.6056	1262.5216	9191.45	8302.8
871.7501	1264.4229	9180.75	8296.1
871.8945	1266.3234	9169.95	8283.8
872.039	1268.2232	9114.35	8225.1
872.1834	1270.1223	9073.6	8186.1
872.3278	1272.0207	9029.7	8142.95
872.4723	1273.9183	9020.9	8127.2
872.6167	1275.8151	8999.45	8113.15
872.7611	1277.7113	9017.65	8129.85
872.9055	1279.6067	9036.55	8149.4
873.0499	1281.5014	9088.6	8199.45
873.1943	1283.3953	9164.1	8274.7
873.3386	1285.2885	9256.55	8372.35
873.483	1287.181	9316.1	8429.15
873.6274	1289.0727	9367.1	8481.6
873.7717	1290.9637	9346.85	8457.8
873.9161	1292.854	9266.9	8379.35
874.0604	1294.7435	9178.1	8289.65
874.2047	1296.6323	9142.25	8255.55
874.349	1298.5204	9067.9	8175.1
874.4933	1300.4077	9028	8141.7
874.6376	1302.2943	8967.7	8083.15
874.7819	1304.1802	8987	8098.75
874.9262	1306.0653	8970.8	8081.2
875.0705	1307.9497	8919.7	8030.95
875.2147	1309.8333	8877.35	7989.95
875.359	1311.7162	8866.05	7980.8
875.5032	1313.5984	8836.4	7943.7
875.6475	1315.4798	8800.55	7899.95
875.7917	1317.3605	8765.75	7860.65
875.9359	1319.2405	8763.1	7873.15
876.0801	1321.1197	8754.65	7866.75
876.2243	1322.9982	8687.35	7796.1
876.3685	1324.876	8674.15	7786.55
876.5127	1326.753	8582.05	7696.15
876.6569	1328.6293	8551.4	7661.7
876.801	1330.5048	8485.5	7594.65
876.9452	1332.3796	8435.3	7546.6
877.0893	1334.2537	8417.05	7503.3
877.2335	1336.127	8368.55	7480.95
877.3776	1337.9996	8337.9	7451
877.5217	1339.8714	8305.45	7420.55
877.6658	1341.7426	8319.1	7388
877.8099	1343.6129	8285.8	7396.85
877.954	1345.4826	8255.45	7367.95
878.0981	1347.3515	8236.05	7342.9
878.2422	1349.2196	8210	7319.25
878.3862	1351.087	8207.75	7320.95
878.5303	1352.9537	8185	7296.8
878.6743	1354.8197	8205.25	7317.15
878.8184	1356.6849	8206	7316.2
878.9624	1358.5493	8191.85	7305.25
879.1064	1360.4131	8177.2	7289.3
879.2504	1362.276	8190.9	7304.9
879.3944	1364.1383	8196.35	7309.3
879.5384	1365.9998	8181.1	7287.9
879.6823	1367.8606	8136.35	7245.45
879.8263	1369.7206	8124.05	7235.3
879.9702	1371.5799	8086.4	7196.45
880.1142	1373.4384	8082.6	7192.05
880.2581	1375.2962	8064.05	7172.85
880.402	1377.1533	7986.3	7100.9
880.5459	1379.0096	7928.2	7042.35
880.6898	1380.8652	7910.55	7025
880.8337	1382.7201	7897.75	7009
880.9776	1384.5742	7812.7	6923.9
881.1215	1386.4275	7767.25	6878.5
881.2653	1388.2802	7779.45	6892.05
881.4092	1390.132	7745.1	6855.65
881.553	1391.9832	7715	6825.5
881.6968	1393.8336	7653.05	6763.65
881.8406	1395.6832	7665.7	6776.45
881.9844	1397.5322	7613.75	6725.3
882.1282	1399.3803	7605.55	6711.95
882.272	1401.2278	7562	6673.9
882.4158	1403.0745	7550.05	6660
882.5595	1404.9204	7507.35	6620.65
882.7033	1406.7656	7493.05	6603.75
882.847	1408.6101	7470.35	6580.65
882.9908	1410.4538	7446.25	6556.95
883.1345	1412.2968	7430.15	6542.15
883.2782	1414.139	7397.3	6508.1
883.4219	1415.9805	7402.45	6513.6
883.5656	1417.8213	7394	6500.65
883.7092	1419.6613	7356.95	6468.1
883.8529	1421.5006	7353.45	6466.2
883.9965	1423.3391	7361.55	6473.75
884.1402	1425.1769	7356.6	6465.6
884.2838	1427.0139	7384.75	6497.5
884.4274	1428.8502	7411.05	6522.25
884.571	1430.6858	7425.05	6538.15
884.7146	1432.5206	7413.45	6524.6
884.8582	1434.3547	7418	6527.8
885.0018	1436.188	7409.7	6520.4
885.1453	1438.0206	7391	6500.3
885.2889	1439.8524	7355.75	6468.2
885.4324	1441.6835	7345.4	6457.65
885.5759	1443.5139	7341.75	6451.05
885.7194	1445.3435	7326.45	6439.5
885.8629	1447.1724	7319.6	6429.45
886.0064	1449.0005	7301.6	6414.65
886.1499	1450.8279	7271.9	6379.95
886.2933	1452.6545	7267.8	6377.9
886.4368	1454.4804	7263.55	6377.5
886.5802	1456.3056	7252.65	6354.45
886.7237	1458.13	7235.65	6346.8
886.8671	1459.9536	7230.65	6342.9
887.0105	1461.7766	7179.65	6294
887.1539	1463.5987	7151.95	6262.65
887.2972	1465.4202	7105.8	6218.15
887.4406	1467.2409	7066.35	6180.3
887.584	1469.0608	7044.55	6158
887.7273	1470.88	7008.75	6121.7
887.8706	1472.6984	6975.65	6087.2
888.0139	1474.5161	6937.8	6045.4
888.1572	1476.3331	6925.35	6035.75
888.3005	1478.1493	6935.15	6047.1
888.4438	1479.9648	6907.75	6019.75
888.5871	1481.7795	6880.7	5992.4
888.7303	1483.5935	6885.55	5997.9
888.8736	1485.4067	6877.6	5990.45
889.0168	1487.2192	6865.85	5975.8
889.16	1489.031	6851.55	5962
889.3032	1490.842	6823.4	5935.25
889.4464	1492.6522	6805.85	5918.95
889.5896	1494.4618	6780.95	5892.95
889.7327	1496.2705	6779.75	5890.2
889.8759	1498.0785	6765.7	5877
890.019	1499.8858	6755.05	5865.15
890.1622	1501.6924	6717.95	5832.25
890.3053	1503.4981	6717.25	5829.95
890.4484	1505.3032	6691.95	5801.7
890.5914	1507.1075	6670.5	5781.95
890.7345	1508.911	6654.6	5765.85
890.8776	1510.7138	6636.9	5746.85
891.0206	1512.5159	6624.35	5735.05
891.1637	1514.3172	6596.3	5707
891.3067	1516.1178	6564.75	5678.75
891.4497	1517.9176	6562.25	5671.95
891.5927	1519.7166	6529.75	5642.3
891.7357	1521.515	6498	5605.4
891.8786	1523.3126	6500.25	5610.4
892.0216	1525.1094	6473	5582.1
892.1645	1526.9055	6452.5	5564.95
892.3074	1528.7008	6426.45	5537.9
892.4503	1530.4954	6380.1	5491.25
892.5932	1532.2893	6363.75	5478.3
892.7361	1534.0824	6339.3	5446.65
892.879	1535.8747	6321.25	5435.15
893.0218	1537.6663	6302.35	5415.35
893.1647	1539.4572	6299.05	5411.2
893.3075	1541.2473	6288.95	5401.55
893.4503	1543.0367	6271.1	5384.35
893.5931	1544.8253	6228.75	5337.3
893.7359	1546.6132	6206.65	5316
893.8787	1548.4003	6190.1	5292.2
894.0214	1550.1867	6190.9	5294.3
894.1642	1551.9723	6165.55	5274.05
894.3069	1553.7572	6155.3	5267.2
894.4496	1555.5414	6136.45	5250.5
894.5923	1557.3247	6142.65	5255.25
894.735	1559.1074	6132.65	5246.3
894.8777	1560.8893	6140.85	5256.05
895.0204	1562.6705	6120.85	5233.25
895.163	1564.4509	6134.15	5249.25
895.3056	1566.2305	6110.55	5224.95
895.4482	1568.0094	6128.8	5244.1
895.5908	1569.7876	6122.3	5235.95
895.7334	1571.565	6092.2	5206.05
895.876	1573.3417	6066.5	5182.95
896.0186	1575.1176	6052.95	5168.3
896.1611	1576.8928	6048	5163.3
896.3036	1578.6672	6038.75	5156.2
896.4461	1580.4409	6019.55	5134.8
896.5886	1582.2138	6020.85	5132.85
896.7311	1583.986	6029	5143.65
896.8736	1585.7575	6023.3	5138.85
897.0161	1587.5282	6028.75	5145.25
897.1585	1589.2981	6002.85	5119.95
897.3009	1591.0673	5996	5111.75
897.4433	1592.8358	6010.85	5127.25
897.5857	1594.6035	6007.8	5120.6
897.7281	1596.3704	5978.05	5092.25
897.8705	1598.1366	5943.15	5059.15
898.0128	1599.9021	5934.25	5051.45
898.1551	1601.6668	5876.55	4990.65
898.2975	1603.4308	5842.25	4954.4
898.4398	1605.194	5827.65	4937.65
898.5821	1606.9564	5828.7	4945.3
898.7243	1608.7182	5848.85	4961.9
898.8666	1610.4791	5877.7	4996.45
899.0088	1612.2394	5899.5	5017.85
899.1511	1613.9988	5967.45	5086.8
899.2933	1615.7576	5981.85	5099.25
899.4355	1617.5156	5990	5099.85
899.5776	1619.2728	5967.1	5082.25
899.7198	1621.0293	5892.5	5010.25
899.862	1622.785	5820.3	4931.5
900.0041	1624.54	5721.35	4833.85
900.1462	1626.2942	5636.65	4753.15
900.2883	1628.0477	5568.85	4682.95
900.4304	1629.8005	5499.25	4611
900.5725	1631.5525	5439.7	4555.9
900.7145	1633.3037	5403.85	4521.3
900.8566	1635.0542	5361.3	4476.4
900.9986	1636.804	5325.6	4441.8
901.1406	1638.553	5363.55	4391.8
901.2826	1640.3013	5263.15	4378.55
901.4245	1642.0488	5253.75	4367.05
901.5665	1643.7955	5207.75	4324.2
901.7085	1645.5416	5179.65	4294.55
901.8504	1647.2868	5177.75	4294.8
901.9923	1649.0313	5149.25	4265.3
902.1342	1650.7751	5135.25	4248.9
902.2761	1652.5181	5114.65	4232.25
902.4179	1654.2604	5096.95	4213.5
902.5598	1656.0019	5082.2	4198.75
902.7016	1657.7427	5089.75	4206.25
902.8434	1659.4828	5079.35	4194.65
902.9852	1661.222	5080.25	4194.7
903.127	1662.9606	5072.2	4188.3
903.2687	1664.6984	5103.8	4217.5
903.4105	1666.4354	5108	4223.7
903.5522	1668.1717	5045.75	4158.35
903.6939	1669.9072	4990.8	4105.15
903.8356	1671.642	4972.1	4082.7
903.9773	1673.3761	4910.95	4029.15
904.119	1675.1094	4877.9	3993.65
904.2606	1676.8419	4854.2	3971.3
904.4022	1678.5737	4831.7	3946.15
904.5439	1680.3048	4824.55	3939.45
904.6855	1682.0351	4777.8	3893.15
904.827	1683.7646	4767.65	3879.85
904.9686	1685.4934	4759.05	3876
905.1101	1687.2215	4739.2	3855.4
905.2517	1688.9488	4708.15	3824.4
905.3932	1690.6754	4684.95	3800.1
905.5347	1692.4012	4681.4	3797.3
905.6761	1694.1263	4659.9	3775.25
905.8176	1695.8506	4630.85	3746
905.9591	1697.5742	4616.45	3731.25
906.1005	1699.297	4595.9	3713.3
906.2419	1701.0191	4576.25	3694.35
906.3833	1702.7404	4569.5	3687.6
906.5246	1704.461	4543.55	3659.3
906.666	1706.1808	4517.8	3632.05
906.8073	1707.8999	4515.65	3631.3
906.9487	1709.6182	4506.4	3623.4
907.09	1711.3358	4474.8	3592.45
907.2313	1713.0527	4463.65	3583.9
907.3725	1714.7688	4467.7	3579.1
907.5138	1716.4841	4450.85	3565.15
907.655	1718.1987	4448.7	3559.35
907.7962	1719.9126	4422.4	3538.8
907.9374	1721.6257	4423.85	3537.1
908.0786	1723.338	4414	3530.55
908.2198	1725.0496	4386.7	3503.95
908.3609	1726.7605	4382.1	3497.15
908.502	1728.4706	4372.55	3489.25
908.6431	1730.18	4377.75	3493.25
908.7842	1731.8886	4346.3	3463.85
908.9253	1733.5964	4334.45	3445.3
909.0664	1735.3036	4352.65	3466.75
909.2074	1737.0099	4332.3	3448.15
909.3484	1738.7156	4310.35	3426.55
909.4894	1740.4204	4341	3455.75
909.6304	1742.1246	4337.25	3451.1
909.7714	1743.8279	4309.95	3426.65
909.9123	1745.5306	4315.25	3433.1
910.0532	1747.2325	4308.35	3425.85
910.1941	1748.9336	4294.65	3410.85
910.335	1750.634	4283.15	3398.7
910.4759	1752.3336	4264.15	3382.3
910.6168	1754.0325	4262.05	3380.15
910.7576	1755.7307	4261.65	3378.65
910.8984	1757.4281	4269.15	3386.05
911.0392	1759.1247	4275.65	3383.25
911.18	1760.8206	4245	3357
911.3208	1762.5158	4245.35	3355.85
911.4615	1764.2102	4230.4	3346.15
911.6022	1765.9039	4215.75	3333.6
911.7429	1767.5968	4206.9	3325.45
911.8836	1769.289	4203.65	3319.8
912.0243	1770.9804	4187.95	3303.75
912.1649	1772.6711	4197.7	3314.95
912.3056	1774.361	4187.05	3303.75
912.4462	1776.0502	4171.95	3286.75
912.5868	1777.7386	4178.8	3292.75
912.7274	1779.4263	4159.9	3275.2
912.8679	1781.1132	4154.7	3273.4
913.0084	1782.7994	4150.1	3267.15
913.149	1784.4849	4158.1	3276.55
913.2895	1786.1696	4135.45	3231.9
913.4299	1787.8535	4129.4	3246.3
913.5704	1789.5367	4104.2	3221.95
913.7108	1791.2192	4106.05	3223.7
913.8513	1792.9009	4116.15	3202.65
913.9917	1794.5818	4084.35	3200.7
914.132	1796.2621	4082.55	3200.8
914.2724	1797.9415	4069.35	3183.75
914.4128	1799.6202	4064	3181.1
914.5531	1801.2982	4049.1	3165.4
914.6934	1802.9755	4041.4	3157.4
914.8337	1804.6519	4029.15	3144.55
914.9739	1806.3277	4014.7	3133.75
915.1142	1808.0027	3993.95	3111.65
915.2544	1809.6769	4002	3121.25
915.3946	1811.3504	4003.05	3119.8
915.5348	1813.0231	3996.55	3114.15
915.675	1814.6951	3991.65	3108.3
915.8151	1816.3664	3989.85	3106.3
915.9553	1818.0369	3967.5	3085.85
916.0954	1819.7067	3958.55	3075.7
916.2355	1821.3757	3941.95	3055.65
916.3755	1823.044	3945	3060.4
916.5156	1824.7115	3934.9	3051
916.6556	1826.3783	3926.6	3042.65
916.7956	1828.0443	3908.95	3026.9
916.9356	1829.7096	3916.35	3031.2
917.0756	1831.3741	3924.5	3038.35
917.2155	1833.0379	3889.7	3008.05
917.3555	1834.701	3897.05	3013
917.4954	1836.3633	3894.05	3009.6
917.6353	1838.0248	3882.05	2996.7
917.7751	1839.6856	3862.2	2981.35
917.915	1841.3457	3865.85	2983.75
918.0548	1843.005	3849	2965.95
918.1946	1844.6636	3847.55	2963.85
918.3344	1846.3214	3838.6	2955.6
918.4742	1847.9785	3843.95	2963.15
918.6139	1849.6349	3821.8	2938.05
918.7537	1851.2904	3833.3	2940.7
918.8934	1852.9453	3803.3	2918.45
919.0331	1854.5994	3800.55	2917.65
919.1727	1856.2528	3816.7	2927.4
919.3124	1857.9054	3785.25	2902.35
919.452	1859.5572	3798.4	2916
919.5916	1861.2083	3782.1	2897.55
919.7312	1862.8587	3784.55	2901.5
919.8708	1864.5084	3771	2886.05
920.0103	1866.1572	3760.2	2877.2
920.1498	1867.8054	3750.55	2867.95
920.2893	1869.4528	3752.75	2867.2
920.4288	1871.0994	3740.75	2856.9
920.5683	1872.7453	3729.45	2844.55
920.7077	1874.3905	3725.6	2835.75
920.8471	1876.0349	3709.95	2827.3
920.9865	1877.6786	3709.75	2822.9
921.1259	1879.3215	3712.7	2829.85
921.2653	1880.9637	3700.95	2814.6
921.4046	1882.6051	3707.25	2825.55
921.5439	1884.2458	3689.5	2802.65
921.6832	1885.8858	3689.05	2804.7
921.8225	1887.525	3675.75	2793.05
921.9617	1889.1634	3657.05	2771.7
922.101	1890.8011	3649.75	2764.55
922.2402	1892.4381	3652.15	2770.25
922.3794	1894.0743	3650	2767.85
922.5185	1895.7098	3644.65	2761.2
922.6577	1897.3446	3630.2	2745
922.7968	1898.9786	3619.95	2732.65
922.9359	1900.6118	3616.55	2733.8
923.075	1902.2443	3597	2712.7
923.214	1903.8761	3599.7	2717.1
923.3531	1905.5071	3594.35	2707.4
923.4921	1907.1374	3585.1	2700.2
923.6311	1908.7669	3578.4	2695
923.77	1910.3957	3573.95	2690.8
923.909	1912.0237	3560.55	2678.3
924.0479	1913.651	3553.55	2669.2
924.1868	1915.2776	3548.45	2667.3
924.3257	1916.9034	3530.65	2649.85
924.4646	1918.5285	3517.35	2634.75
924.6034	1920.1528	3521.2	2636.65
924.7422	1921.7764	3513.1	2629.6
924.881	1923.3992	3495.1	2611.85
925.0198	1925.0213	3480.6	2596.4
925.1586	1926.6427	3462.95	2578.9
925.2973	1928.2633	3650.65	2547.7
925.436	1929.8832	3486.65	2598.8
925.5747	1931.5023	3456.45	2572.95
925.7134	1933.1207	3458.8	2574.6
925.852	1934.7383	3432.8	2549.65
925.9906	1936.3552	3445.35	2562.5
926.1292	1937.9714	3432.35	2550.05
926.2678	1939.5868	3435.6	2551.05
926.4064	1941.2015	3402.25	2519.25
926.5449	1942.8154	3404.2	2520.45
926.6834	1944.4286	3401.4	2517.65
926.8219	1946.041	3395.5	2489.7
926.9604	1947.6528	3379.25	2493.15
927.0988	1949.2637	3353.45	2469.65
927.2372	1950.8739	3372.95	2487.15
927.3756	1952.4834	3342.6	2459.75
927.514	1954.0921	3347.8	2464.85
927.6523	1955.7001	3342.7	2457.05
927.7907	1957.3074	3336.65	2455.5
927.929	1958.9139	3319.85	2440.4
928.0673	1960.5197	3315.3	2431.9
928.2055	1962.1247	3311.95	2429.25
928.3438	1963.729	3301.85	2420
928.482	1965.3325	3303.45	2397.05
928.6202	1966.9353	3294.15	2414.95
928.7584	1968.5374	3282.65	2399.35
928.8965	1970.1387	3276.1	2395.75
929.0346	1971.7393	3280.9	2399.2
929.1727	1973.3392	3258.55	2374.9
929.3108	1974.9383	3248.05	2367.85
929.4489	1976.5366	3251.25	2371.1
929.5869	1978.1342	3251.5	2370.3
929.7249	1979.7311	3243.95	2361.45
929.8629	1981.3273	3234.6	2353.95
930.0009	1982.9227	3219.8	2336.55
930.1388	1984.5173	3214.8	2333.85
930.2767	1986.1112	3207.35	2324.95
930.4146	1987.7044	3211.05	2328.9
930.5525	1989.2968	3202.1	2318.1
930.6904	1990.8885	3200.55	2315.6
930.8282	1992.4795	3209.9	2327.25
930.966	1994.0697	3186	2305.45
931.1038	1995.6592	3168.3	2289.85
931.2415	1997.2479	3180.4	2298.45
931.3793	1998.8359	3175.9	2295.85
931.517	2000.4232	3148.7	2268.95
931.6547	2002.0097	3142.8	2262.45
931.7923	2003.5955	3144.75	2262.2
931.93	2005.1805	3146.6	2264.35
932.0676	2006.7648	3132.7	2251.7
932.2052	2008.3484	3131.9	2250.75
932.3427	2009.9312	3148.55	2266
932.4803	2011.5133	3118.05	2239.45
932.6178	2013.0946	3113.45	2233.9
932.7553	2014.6752	3117.65	2237.35
932.8928	2016.2551	3106.1	2223.15
933.0302	2017.8342	3099.2	2218.2
933.1676	2019.4126	3107.75	2228.15
933.305	2020.9902	3089.05	2210.65
933.4424	2022.5672	3079.2	2197.8
933.5798	2024.1433	3087.65	2202.6
933.7171	2025.7188	3082.6	2203.7
933.8544	2027.2935	3066.7	2187.1
933.9917	2028.8674	3062.5	2183.65
934.129	2030.4406	3045.2	2166.45
934.2662	2032.0131	3053.1	2173.4
934.4034	2033.5849	3051.35	2166.75
934.5406	2035.1559	3046.15	2167.4
934.6778	2036.7261	3051.1	2169.95
934.8149	2038.2957	3041.4	2161.4
934.952	2039.8645	3040.6	2159.25
935.0891	2041.4325	3031.2	2146.4
935.2262	2042.9998	3028.6	2149.25
935.3632	2044.5664	3030.8	2150.4
935.5002	2046.1323	3024.25	2143.4
935.6372	2047.6974	3022.85	2143.85
935.7742	2049.2617	3016.75	2138.5
935.9111	2050.8254	3019.7	2133.15
936.048	2052.3883	3026.3	2143.5
936.1849	2053.9504	3018.65	2136.75
936.3218	2055.5118	3005.25	2123.95
936.4586	2057.0725	2992.9	2108.55
936.5955	2058.6325	2994.05	2114.6
936.7323	2060.1917	3004.6	2125
936.869	2061.7502	3001.95	2118.8
937.0058	2063.3079	2981.2	2099.8
937.1425	2064.8649	2980.8	2097.75
937.2792	2066.4212	2983.05	2101.75
937.4159	2067.9767	2971.05	2089.95
937.5525	2069.5315	2964.4	2085.4
937.6891	2071.0856	2946.7	2066.35
937.8257	2072.6389	2958.8	2077.7
937.9623	2074.1915	2942.3	2062.65
938.0989	2075.7433	2934.6	2052.85
938.2354	2077.2945	2942.3	2063.6
938.3719	2078.8448	2921.45	2042.85
938.5084	2080.3945	2920.95	2039.95
938.6448	2081.9434	2922.7	2041.5
938.7812	2083.4916	2923	2041.7
938.9176	2085.039	2919.8	2035.5
939.054	2086.5857	2925.35	2043.5
939.1903	2088.1317	2913.9	2031.75
939.3267	2089.677	2911.9	2029.75
939.463	2091.2215	2905.5	2023.85
939.5992	2092.7652	2898.25	2011.95
939.7355	2094.3083	2894.6	2012.5
939.8717	2095.8506	2895.9	2017
940.0079	2097.3921	2887.2	2003.8
940.1441	2098.933	2889	2009.65
940.2802	2100.4731	2887.25	2006.2
940.4163	2102.0124	2903.8	2003.05
940.5524	2103.5511	2882.45	2003.4
940.6885	2105.089	2875.35	1993.45
940.8245	2106.6261	2874.45	1994.9
940.9606	2108.1626	2871.2	1990.4
941.0965	2109.6983	2896.6	1987
941.2325	2111.2332	2878.55	1995.75
941.3684	2112.7675	2873.45	1989.55
941.5044	2114.301	2876	1994
941.6403	2115.8337	2867.7	1986.15
941.7761	2117.3657	2858.1	1976.7
941.912	2118.897	2847.45	1965.15
942.0478	2120.4276	2845.05	1958.4
942.1835	2121.9575	2837.95	1956
942.3193	2123.4866	2840.5	1957.4
942.455	2125.0149	2834	1951.15
942.5907	2126.5426	2821.85	1940.65
942.7264	2128.0695	2826.15	1941.25
942.8621	2129.5956	2813.05	1934.5
942.9977	2131.1211	2826.4	1941.95
943.1333	2132.6458	2812.05	1930.65
943.2689	2134.1698	2809.9	1928.85
943.4044	2135.693	2807.9	1924.45
943.54	2137.2155	2821.75	1937.7
943.6755	2138.7373	2811.45	1931.05
943.8109	2140.2584	2804.5	1924.15
943.9464	2141.7787	2804.65	1919.3
944.0818	2143.2983	2780.55	1901.6
944.2172	2144.8171	2767.5	1888.1
944.3526	2146.3353	2778.15	1896.2
944.4879	2147.8527	2760.2	1878.2
944.6232	2149.3693	2764.55	1882.5
944.7585	2150.8853	2759.2	1877
944.8938	2152.4005	2753.7	1871.75
945.029	2153.9149	2747.35	1865.25
945.1642	2155.4287	2742.25	1862.8
945.2994	2156.9417	2755.45	1871.6
945.4346	2158.454	2733.9	1849.1
945.5697	2159.9655	2733.25	1851.05
945.7048	2161.4764	2725.35	1846.05
945.8399	2162.9865	2731.05	1849.85
945.9749	2164.4958	2730.4	1845.95
946.1099	2166.0045	2724.15	1840.55
946.2449	2167.5124	2710.85	1828.65
946.3799	2169.0195	2710.4	1828.95
946.5148	2170.526	2721.1	1838.8
946.6498	2172.0317	2711.45	1829.75
946.7846	2173.5367	2699.2	1819.65
946.9195	2175.0409	2698.25	1818.95
947.0543	2176.5445	2692	1814.35
947.1891	2178.0473	2696	1813.65
947.3239	2179.5494	2683.15	1800.1
947.4587	2181.0507	2671.05	1789.5
947.5934	2182.5513	2676.9	1796.55
947.7281	2184.0512	2666.85	1786.55
947.8628	2185.5504	2659.65	1778.7
947.9974	2187.0488	2639.15	1758.1
948.132	2188.5465	2653.4	1773.6
948.2666	2190.0435	2644.15	1762.75
948.4012	2191.5397	2644.05	1765.4
948.5357	2193.0353	2637.4	1758.95
948.6702	2194.5301	2615.1	1733.75
948.8047	2196.0241	2615.8	1734.15
948.9392	2197.5175	2618.3	1737
949.0736	2199.0101	2616.65	1730.55
949.208	2200.502	2598.3	1716.65
949.3424	2201.9931	2592.95	1711
949.4767	2203.4835	2601.95	1720
949.611	2204.9733	2606.35	1721.7
949.7453	2206.4622	2580.25	1700.4
949.8796	2207.9505	2569.1	1687.85
950.0138	2209.438	2566.25	1687.5
950.148	2210.9248	2570.75	1690.4
950.2822	2212.4109	2567.9	1687.65
950.4164	2213.8962	2577.9	1693.6
950.5505	2215.3809	2568.9	1686.85
950.6846	2216.8648	2561.5	1680.5
950.8186	2218.3479	2540.8	1653
950.9527	2219.8304	2537.65	1651.1
951.0867	2221.3121	2539.75	1655.65
951.2207	2222.7931	2533.7	1653
951.3546	2224.2733	2518.5	1635.95
951.4886	2225.7529	2512.9	1631.25
951.6225	2227.2317	2512.05	1629.5
951.7563	2228.7098	2512.7	1632.15
951.8902	2230.1872	2503.75	1624.45
952.024	2231.6638	2505.2	1624.95
952.1578	2233.1397	2504.95	1618.8
952.2916	2234.6149	2493.45	1614.15
952.4253	2236.0894	2497.35	1616.35
952.559	2237.5632	2496.7	1606.2
952.6927	2239.0362	2477.6	1595.3
952.8263	2240.5085	2482.55	1600.75
952.9599	2241.9801	2468.65	1587.55
953.0935	2243.4509	2468.9	1587.8
953.2271	2244.921	2450.9	1570
953.3606	2246.3904	2460.75	1576.55
953.4941	2247.8591	2452.6	1573.3
953.6276	2249.3271	2445.7	1564.55
953.7611	2250.7943	2443.05	1562.25
953.8945	2252.2608	2439.3	1558.85
954.0279	2253.7266	2424.65	1545.6
954.1612	2255.1917	2415.7	1534.6
954.2946	2256.656	2415.8	1534.8
954.4279	2258.1197	2414.7	1533.6
954.5612	2259.5826	2408.4	1525.55
954.6944	2261.0447	2405.85	1523.8
954.8276	2262.5062	2405.4	1522.25
954.9608	2263.9669	2405.35	1521.85
955.094	2265.4269	2394.25	1511.85
955.2271	2266.8862	2393.5	1512.85
955.3602	2268.3448	2390.35	1509.5
955.4933	2269.8026	2381.25	1499.15
955.6264	2271.2598	2373.6	1493.95
955.7594	2272.7162	2380.65	1500.4
955.8924	2274.1719	2361.45	1478.6
956.0253	2275.6268	2364.8	1481.9
956.1583	2277.0811	2374.6	1492.5
956.2912	2278.5346	2359.3	1477.25
956.4241	2279.9874	2364.45	1484
956.5569	2281.4395	2346.25	1467.1
956.6897	2282.8908	2345.9	1457.8
956.8225	2284.3414	2344.6	1462.2
956.9553	2285.7914	2339.4	1459.25
957.088	2287.2406	2335.6	1453.15
957.2207	2288.689	2328.2	1444.2
957.3534	2290.1368	2316.7	1436.75
957.486	2291.5838	2326.15	1441.45
957.6186	2293.0302	2313.6	1431
957.7512	2294.4758	2311.5	1431.75
957.8838	2295.9206	2314.05	1431.05
958.0163	2297.3648	2300	1420.9
958.1488	2298.8082	2303.15	1422.8
958.2813	2300.251	2282.75	1401.05
958.4137	2301.693	2296.05	1412.95
958.5461	2303.1343	2296.6	1414.25
958.6785	2304.5748	2288.85	1407.8
958.8108	2306.0147	2279.75	1398.65
958.9432	2307.4538	2266.6	1384.55
959.0754	2308.8922	2267.65	1388.9
959.2077	2310.3299	2263.1	1382.75
959.3399	2311.7669	2252.7	1371.25
959.4721	2313.2031	2261.85	1381.45
959.6043	2314.6387	2257.45	1375.15
959.7365	2316.0735	2252.35	1371.6
959.8686	2317.5076	2250.75	1370.95
960.0006	2318.941	2241.15	1358.5
960.1327	2320.3737	2236.9	1355.65
960.2647	2321.8056	2232.75	1349.8
960.3967	2323.2369	2233.35	1351.65
960.5287	2324.6674	2228.25	1342.85
960.6606	2326.0972	2230.75	1348.55
960.7925	2327.5263	2224.65	1344.7
960.9244	2328.9547	2228.4	1350.65
961.0562	2330.3823	2206.95	1325.4
961.1881	2331.8092	2215.3	1330.3
961.3198	2333.2355	2196.95	1315.25
961.4516	2334.661	2197.2	1313.9
961.5833	2336.0858	2190	1306.65
961.715	2337.5098	2194.4	1312.35
961.8467	2338.9332	2192.7	1309.4
961.9783	2340.3558	2175.95	1291.85
962.1099	2341.7778	2171.5	1291.8
962.2415	2343.199	2162.9	1278.95
962.373	2344.6195	2165.35	1286.05
962.5045	2346.0393	2166.35	1284.95
962.636	2347.4583	2163.35	1280.85
962.7675	2348.8767	2158.6	1276.55
962.8989	2350.2943	2163.1	1280.15
963.0303	2351.7113	2150.25	1267.65
963.1617	2353.1275	2147.8	1264.3
963.293	2354.543	2141	1250.65
963.4243	2355.9578	2138.7	1259.2
963.5556	2357.3718	2129.75	1247.7
963.6868	2358.7852	2127.65	1245.1
963.818	2360.1978	2125.4	1243.8
963.9492	2361.6098	2114.5	1232.15
964.0803	2363.021	2110.15	1224.9
964.2114	2364.4315	2102.25	1221.6
964.3425	2365.8413	2106.85	1223.6
964.4736	2367.2504	2091.55	1211.3
964.6046	2368.6587	2088.25	1206.15
964.7356	2370.0664	2081.75	1202.45
964.8666	2371.4733	2079.25	1197.3
964.9975	2372.8795	2073.5	1190.6
965.1284	2374.285	2069.2	1187.15
965.2593	2375.6899	2056.7	1175.2
965.3901	2377.0939	2064.45	1182.65
965.5209	2378.4973	2051.05	1168.75
965.6517	2379.9	2055.6	1171.5
965.7825	2381.3019	2040.7	1159.5
965.9132	2382.7032	2047.8	1166.05
966.0439	2384.1037	2036.85	1158.6
966.1745	2385.5035	2026.8	1145.3
966.3051	2386.9027	2025.5	1145.55
966.4357	2388.3011	2026	1141.55
966.5663	2389.6987	2023.9	1141.2
966.6968	2391.0957	2008.1	1126.5
966.8273	2392.492	2012.65	1131.2
966.9578	2393.8876	2000.95	1118.7
967.0882	2395.2824	2010.85	1129.45
967.2186	2396.6765	1992.85	1110.55
967.349	2398.07	1990.65	1108.9
967.4793	2399.4627	1988.55	1105.7
967.6097	2400.8547	1986.85	1105.25
967.7399	2402.246	1972.4	1084.75
967.8702	2403.6366	1969.2	1086.6
968.0004	2405.0265	1957.05	1074.2
968.1306	2406.4156	1955.25	1069.95
968.2607	2407.8041	1950.75	1065.9
968.3909	2409.1918	1953.9	1068.3
968.521	2410.5789	1947.7	1065
968.651	2411.9652	1953.8	1067.15
968.781	2413.3508	1941	1058.4
968.911	2414.7358	1939.45	1057
969.041	2416.12	1938.1	1057.6
969.1709	2417.5035	1928.9	1046.7
969.3008	2418.8863	1915.95	1032.4
969.4307	2420.2684	1915.25	1032.1
969.5606	2421.6497	1905.5	1021.5
969.6904	2423.0304	1907.15	1027.55
969.8201	2424.4104	1909.3	1026.25
969.9499	2425.7896	1899.4	1015
970.0796	2427.1682	1898.65	1015.1
970.2093	2428.546	1890.4	1005.95
970.3389	2429.9232	1904.35	1020.2
970.4685	2431.2996	1896	1011.65
970.5981	2432.6753	1889.45	1006.8
970.7277	2434.0503	1883.45	1000.25
970.8572	2435.4246	1881.6	1001.4
970.9867	2436.7982	1878.95	995.2
971.1161	2438.1711	1876.5	996.3
971.2456	2439.5433	1875.95	990.35
971.375	2440.9148	1872.55	984.45
971.5043	2442.2856	1865.3	983.4
971.6336	2443.6557	1859.1	975.65
971.7629	2445.025	1858.25	975.55
971.8922	2446.3937	1861.6	977.4
972.0214	2447.7617	1859	976.3
972.1506	2449.1289	1852.45	970.05
972.2798	2450.4955	1848.4	962.2
972.4089	2451.8613	1831.55	950.2
972.538	2453.2265	1839.9	958.05
972.6671	2454.5909	1835.15	951.3
972.7961	2455.9546	1832.7	952.25
972.9251	2457.3177	1829.85	948.35
973.0541	2458.68	1828.45	944.65
973.1831	2460.0416	1828.5	946.75
973.312	2461.4025	1825.95	941.55
973.4408	2462.7627	1835.55	942.8
973.5697	2464.1222	1816.8	937.15
973.6985	2465.4811	1810.45	926.25
973.8273	2466.8392	1806.55	924.95
973.956	2468.1966	1806.95	922
974.0847	2469.5533	1806.7	921.9
974.2134	2470.9093	1802	919.75
974.3421	2472.2645	1807.65	924.45
974.4707	2473.6191	1802.6	920.05
974.5993	2474.973	1788.25	905.7
974.7278	2476.3262	1778.85	893.4
974.8563	2477.6787	1778.75	895.7
974.9848	2479.0305	1777.55	895.9
975.1132	2480.3816	1773.1	887.4
975.2417	2481.7319	1776.35	894.6
975.37	2483.0816	1765.6	883.1
975.4984	2484.4306	1768.45	886.15
975.6267	2485.7789	1761.65	880.15
975.755	2487.1264	1761.65	877.6
975.8833	2488.4733	1755.5	873.4
976.0115	2489.8195	1766.5	877.35
976.1397	2491.165	1749.05	865
976.2678	2492.5097	1745	860.15
976.3959	2493.8538	1742.5	861
976.524	2495.1972	1737.05	856.5
976.6521	2496.5398	1738.75	854.55
976.7801	2497.8818	1744.9	859.35
976.9081	2499.2231	1733.75	851.6
977.036	2500.5637	1732.75	848.05
977.164	2501.9035	1730.4	846.4
977.2918	2503.2427	1727.45	840.5
977.4197	2504.5812	1713.65	833
977.5475	2505.919	1719.4	834.45
977.6753	2507.256	1717.8	834.75
977.8031	2508.5924	1712.6	831.55
977.9308	2509.9281	1715.35	825.75
978.0585	2511.2631	1700.35	817.9
978.1861	2512.5974	1702.25	823.4
978.3137	2513.9309	1697.15	815.05
978.4413	2515.2638	1725.3	813.6
978.5689	2516.596	1695.65	814.15
978.6964	2517.9275	1690.95	807.4
978.8239	2519.2583	1681.85	798.55
978.9513	2520.5884	1676.05	790.75
979.0788	2521.9178	1684.2	800.8
979.2062	2523.2465	1664.7	782.6
979.3335	2524.5745	1678.4	796.6
979.4608	2525.9018	1665.55	783.9
979.5881	2527.2284	1666.2	785.9
979.7154	2528.5543	1658.45	778.65
979.8426	2529.8796	1669.3	787.75
979.9698	2531.2041	1654.8	772
980.0969	2532.5279	1653.75	775.15
980.224	2533.851	1655.2	771.8
980.3511	2535.1735	1654.35	770.95
980.4781	2536.4952	1655.55	772.95
980.6052	2537.8163	1645.2	762.95
980.7321	2539.1366	1644.25	761.65
980.8591	2540.4562	1643.25	760
980.986	2541.7752	1650.6	769.85
981.1129	2543.0935	1639.95	758.9
981.2397	2544.411	1641.6	755.45
981.3665	2545.7279	1638.1	758.5
981.4933	2547.0441	1632	749.15
981.62	2548.3596	1634	749.6
981.7467	2549.6744	1634.3	750.95
981.8734	2550.9885	1627.5	736.55
982.0001	2552.3019	1623.35	743.3
982.1267	2553.6146	1625.55	742.75
982.2532	2554.9266	1617.2	736.7
982.3798	2556.2379	1613.9	730.7
982.5063	2557.5485	1606.95	724.2
982.6327	2558.8585	1615.65	727.75
982.7592	2560.1677	1617.25	730.55
982.8856	2561.4762	1611.3	729.2
983.0119	2562.7841	1615.3	727.9
983.1383	2564.0913	1598.05	716.2
983.2646	2565.3977	1602.05	721.1
983.3908	2566.7035	1599.35	718.05
983.517	2568.0086	1603.9	718.8
983.6432	2569.313	1604.2	721.05
983.7694	2570.6167	1595.25	710.9
983.8955	2571.9197	1594.2	714.25
984.0216	2573.222	1590.5	705.45
984.1476	2574.5236	1591.9	709.9
984.2737	2575.8246	1589.6	705.45
984.3996	2577.1248	1592.45	707.15
984.5256	2578.4244	1581.9	701.2
984.6515	2579.7232	1580.2	697.95
984.7774	2581.0214	1602.85	693.2
984.9032	2582.3189	1576.75	696.65
985.029	2583.6157	1571.5	684.15
985.1548	2584.9118	1562.25	681.5
985.2806	2586.2072	1562.75	681.2
985.4063	2587.5019	1566.95	683.3
985.5319	2588.7959	1561.95	680.65
985.6576	2590.0893	1561.45	676.55
985.7832	2591.3819	1566.25	683.55
985.9087	2592.6739	1561.45	680.05
986.0343	2593.9652	1561.15	678.55
986.1597	2595.2557	1556.95	674.6
986.2852	2596.5456	1549.7	665
986.4106	2597.8348	1542.65	659.25
986.536	2599.1234	1537.55	655.15
986.6614	2600.4112	1547.2	665.15
986.7867	2601.6983	1545.25	660.8
986.912	2602.9848	1534.6	651.85
987.0372	2604.2705	1538.25	647.75
987.1624	2605.5556	1537.35	657.45
987.2876	2606.84	1523.55	640.15
987.4128	2608.1237	1529.35	648.35
987.5379	2609.4067	1518.9	636.25
987.6629	2610.689	1525.9	634.85
987.788	2611.9707	1518.65	633.2
987.913	2613.2516	1520	632.6
988.0379	2614.5319	1510.65	627.45
988.1629	2615.8115	1506.9	623.85
988.2878	2617.0903	1503.25	619.9
988.4126	2618.3685	1503	622.5
988.5375	2619.6461	1502.5	619.05
988.6622	2620.9229	1497.15	614.6
988.787	2622.199	1490.7	606.75
988.9117	2623.4745	1497.7	614.3
989.0364	2624.7493	1490.75	610.4
989.161	2626.0234	1483.4	602.75
989.2857	2627.2968	1488.55	605.9
989.4102	2628.5695	1489.75	605
989.5348	2629.8415	1478.7	597.3
989.6593	2631.1128	1473.3	590.65
989.7837	2632.3835	1468.65	588.5
989.9082	2633.6535	1467.35	587.85
990.0326	2634.9228	1474	594.3
990.1569	2636.1914	1464.45	582.55
990.2812	2637.4593	1468.65	583.8
990.4055	2638.7265	1461.8	579.25
990.5298	2639.9931	1459.3	577.4
990.654	2641.259	1457.55	573.5
990.7782	2642.5242	1452.7	570
990.9023	2643.7887	1450.15	569.15
991.0264	2645.0525	1445.45	563.2
991.1505	2646.3156	1445.05	563.35
991.2745	2647.5781	1443.1	561.45
991.3985	2648.8398	1433.55	553.35
991.5225	2650.1009	1440.2	550.6
991.6464	2651.3613	1435	550.85
991.7703	2652.6211	1430.4	548.4
991.8942	2653.8801	1429.5	548.95
992.018	2655.1385	1434.95	549.55
992.1418	2656.3961	1428.55	547.95
992.2655	2657.6531	1428.75	547.05
992.3892	2658.9094	1428	546.65
992.5129	2660.1651	1426.35	547.25
992.6366	2661.42	1424.9	541.7
992.7602	2662.6743	1422.8	542.8
992.8837	2663.9279	1419.3	538.95
993.0073	2665.1808	1413.8	529.6
993.1307	2666.433	1415.45	531.95
993.2542	2667.6846	1414.6	532.75
993.3776	2668.9354	1419.1	535.2
993.501	2670.1856	1415.9	533.5
993.6244	2671.4351	1406.9	525.1
993.7477	2672.6839	1407.9	526.5
993.8709	2673.9321	1400.25	518.1
993.9942	2675.1795	1403.35	521.4
994.1174	2676.4263	1394.3	512.35
994.2405	2677.6724	1397.2	516.4
994.3637	2678.9179	1401.45	520.95
994.4868	2680.1626	1388.7	508.75
994.6098	2681.4067	1391.55	507.75
994.7328	2682.6501	1393.3	510.95
994.8558	2683.8928	1387.05	504.85
994.9788	2685.1348	1386.65	506.65
995.1017	2686.3761	1381.5	499.85
995.2245	2687.6168	1382.35	500.4
995.3474	2688.8568	1381.4	501.8
995.4702	2690.0961	1376.8	497.2
995.5929	2691.3348	1375.25	494.75
995.7156	2692.5727	1378.3	494.85
995.8383	2693.81	1370.15	488.35
995.961	2695.0466	1368.4	487.35
996.0836	2696.2826	1367.85	485.1
996.2062	2697.5178	1370.35	483.75
996.3287	2698.7524	1365.95	485.2
996.4512	2699.9863	1370.35	486.2
996.5737	2701.2195	1362.3	482.1
996.6961	2702.452	1363.9	480.25
996.8185	2703.6839	1361.55	482.85
996.9408	2704.9151	1350.6	470.7
997.0631	2706.1456	1355.35	473.1
997.1854	2707.3755	1352.95	473.3
997.3077	2708.6046	1350.2	466.45
997.4299	2709.8331	1349.6	467.45
997.552	2711.0609	1350.75	469.8
997.6742	2712.2881	1346.65	464.95
997.7963	2713.5145	1349.4	466.3
997.9183	2714.7403	1339.1	457.65
998.0403	2715.9654	1340.75	458.55
998.1623	2717.1899	1349.9	457.2
998.2842	2718.4136	1337.15	454.1
998.4062	2719.6367	1335.9	456.5
998.528	2720.8591	1345.05	453.95
998.6498	2722.0809	1333.1	452.05
998.7716	2723.3019	1327.8	443.4
998.8934	2724.5223	1338.9	457
999.0151	2725.7421	1326.6	445.1
999.1368	2726.9611	1328.9	442.75
999.2584	2728.1795	1325.6	439.8
999.38	2729.3972	1321.7	440.95
999.5016	2730.6142	1335.9	440.1
999.6231	2731.8306	1311.55	427.9
999.7446	2733.0462	1316.05	430.65
999.8661	2734.2612	1318.55	432.7
999.9875	2735.4756	1309.9	426.8
1000.1089	2736.6892	1306.75	423.95
1000.2302	2737.9022	1308.8	428.4
1000.3515	2739.1145	1302.1	421.45
1000.4728	2740.3262	1304.45	414.45
1000.594	2741.5372	1292.3	413.25
1000.7152	2742.7475	1295.9	414.6
1000.8363	2743.9571	1293.5	410.55
1000.9575	2745.1661	1294.9	410.05
1001.0785	2746.3744	1289.7	409
1001.1996	2747.582	1283.05	401.95
1001.3206	2748.7889	1284.8	402.7
1001.4415	2749.9952	1283.05	400.7
1001.5625	2751.2008	1286	404.8
1001.6833	2752.4057	1285.4	402.45
1001.8042	2753.61	1280.2	397.9
1001.925	2754.8136	1272.65	388.35
1002.0458	2756.0165	1274.1	396.35
1002.1665	2757.2188	1279.9	398.6
1002.2872	2758.4204	1270.25	388.3
1002.4078	2759.6213	1274.5	392.85
1002.5285	2760.8215	1274.55	388.8
1002.649	2762.0211	1268.6	388.5
1002.7696	2763.22	1266.45	380.75
1002.8901	2764.4182	1264.5	384.05
1003.0106	2765.6158	1259.7	377.25
1003.131	2766.8127	1265	385.65
1003.2514	2768.009	1260.35	379.5
1003.3717	2769.2045	1262.65	380.55
1003.492	2770.3994	1260.85	377.4
1003.6123	2771.5936	1257.45	376.75
1003.7325	2772.7872	1247.05	365.3
1003.8527	2773.9801	1250.1	365.75
1003.9729	2775.1723	1265.95	368.55
1004.093	2776.3639	1248.85	368.85
1004.2131	2777.5548	1251.2	369.05
1004.3331	2778.745	1244.95	359.85
1004.4531	2779.9346	1244.15	364.85
1004.5731	2781.1235	1242.75	361.15
1004.693	2782.3117	1240.8	359.8
1004.8129	2783.4992	1242.9	362.85
1004.9328	2784.6861	1231.35	350.05
1005.0526	2785.8723	1237.15	353.55
1005.1723	2787.0579	1234.45	353.85
1005.2921	2788.2428	1231	351.5
1005.4118	2789.427	1227.4	348.2
1005.5314	2790.6106	1224.6	344.6
1005.651	2791.7935	1221.5	339.8
1005.7706	2792.9757	1225.9	346.25
1005.8902	2794.1573	1228.45	346.55
1006.0097	2795.3382	1224.85	344.4
1006.1291	2796.5184	1219.75	340.4
1006.2485	2797.698	1221.85	338.35
1006.3679	2798.8769	1218.8	336.8
1006.4873	2800.0551	1224	342.75
1006.6066	2801.2327	1219.4	335.15
1006.7258	2802.4096	1216.35	337.55
1006.8451	2803.5859	1211.55	331.05
1006.9642	2804.7615	1211.65	329.75
1007.0834	2805.9364	1207.6	328.2
1007.2025	2807.1106	1206.45	326.95
1007.3216	2808.2842	1208.25	327.65
1007.4406	2809.4572	1208.7	328.3
1007.5596	2810.6294	1207.9	326.45
1007.6785	2811.801	1207.65	327.7
1007.7975	2812.972	1204	324.2
1007.9163	2814.1423	1208.2	329.1
1008.0352	2815.3119	1204.4	322.75
1008.154	2816.4808	1205.1	324.6
1008.2727	2817.6491	1210.85	329.6
1008.3914	2818.8167	1202.75	323.25
1008.5101	2819.9837	1217.05	331.75
1008.6288	2821.15	1214.35	332.4
1008.7474	2822.3157	1207.95	329.15
1008.8659	2823.4807	1219.85	338.1
1008.9844	2824.645	1218	336.2
1009.1029	2825.8086	1224.2	344.3
1009.2214	2826.9716	1230.35	350.35
1009.3398	2828.134	1234.5	354.45
1009.4581	2829.2957	1241.15	361.65
1009.5764	2830.4567	1238.2	358.3
1009.6947	2831.617	1237	355.9
1009.813	2832.7767	1234.8	353
1009.9312	2833.9358	1240.7	361.1
1010.0493	2835.0941	1242.8	358.25
1010.1675	2836.2519	1230	351.45
1010.2855	2837.4089	1231.9	349.35
1010.4036	2838.5653	1229.8	350.55
1010.5216	2839.7211	1229.55	350.35
1010.6396	2840.8761	1227.1	344.7
1010.7575	2842.0306	1222.6	342.9
1010.8754	2843.1843	1225.2	345.35
1010.9932	2844.3374	1224.3	343.75
1011.111	2845.4899	1222.15	342.15
1011.2288	2846.6417	1227.45	348.2
1011.3465	2847.7928	1225.25	345.7
1011.4642	2848.9433	1225.55	345.5
1011.5818	2850.0931	1219.9	339.45
1011.6995	2851.2422	1224.3	342.1
1011.817	2852.3907	1214.85	336.1
1011.9345	2853.5385	1221.35	339.5
1012.052	2854.6857	1230.1	340.55
1012.1695	2855.8323	1218.7	337.8
1012.2869	2856.9781	1222.8	341.3
1012.4042	2858.1233	1223.7	343.85
1012.5216	2859.2679	1225.7	344.05
1012.6389	2860.4118	1225.4	346.45
1012.7561	2861.555	1233.7	348.55
1012.8733	2862.6976	1227.05	345.9
1012.9905	2863.8395	1227.4	347.5
1013.1076	2864.9808	1225.8	345.25
1013.2247	2866.1214	1229.6	351.25
1013.3417	2867.2614	1220.9	337.55
1013.4587	2868.4007	1223.6	342.55
1013.5757	2869.5393	1234.3	351.5
1013.6926	2870.6773	1228.4	344.65
1013.8095	2871.8146	1236.85	353.15
1013.9263	2872.9513	1229.5	348.85
1014.0431	2874.0874	1225.2	345.3
1014.1599	2875.2227	1226.75	347
1014.2766	2876.3574	1227.4	346.3
1014.3933	2877.4915	1226.25	346.4
1014.51	2878.6249	1224	342.1
1014.6266	2879.7577	1224.35	344
1014.7431	2880.8898	1235.5	344.5
1014.8596	2882.0212	1224.1	345.05
1014.9761	2883.152	1230	348.2
1015.0925	2884.2821	1218.3	337.5
1015.2089	2885.4116	1226.05	346.45
1015.3253	2886.5405	1222.7	341.9
1015.4416	2887.6686	1223.9	338.5
1015.5579	2888.7962	1212.65	335.05
1015.6741	2889.923	1222.6	344.6
1015.7903	2891.0493	1222.5	342.35
1015.9065	2892.1748	1222.35	342.45
1016.0226	2893.2997	1218.6	335.55
1016.1387	2894.424	1217.15	338.5
1016.2547	2895.5476	1214.55	334.85
1016.3707	2896.6706	1214.05	335.85
1016.4866	2897.7929	1212.1	331.65
1016.6025	2898.9145	1220.4	340.4
1016.7184	2900.0355	1217.2	336.75
1016.8342	2901.1559	1213.9	333.35
1016.95	2902.2756	1215.35	336.5
1017.0658	2903.3946	1210.25	329.95
1017.1815	2904.513	1216.25	333.35
1017.2971	2905.6308	1211.6	332.5
1017.4127	2906.7479	1203.7	323.6
1017.5283	2907.8643	1204.7	323.55
1017.6439	2908.9801	1202.1	321.6
1017.7594	2910.0953	1203	323.15
1017.8748	2911.2098	1205.55	321.1
1017.9902	2912.3236	1211.6	323.6
1018.1056	2913.4368	1206.65	322.65
1018.2209	2914.5494	1199.05	320.3
1018.3362	2915.6613	1197.35	312
1018.4515	2916.7725	1197.25	313.25
1018.5667	2917.8831	1194.75	313.65
1018.6819	2918.9931	1189.15	306.75
1018.797	2920.1024	1187.2	305.65
1018.9121	2921.211	1188.15	308.3
1019.0271	2922.319	1186.75	307.9
1019.1421	2923.4264	1177.45	298.6
1019.2571	2924.5331	1182.65	302.7
1019.372	2925.6391	1178.65	298.8
1019.4869	2926.7445	1175.95	297.35
1019.6017	2927.8493	1178.5	297.05
1019.7165	2928.9534	1179.85	298.95
1019.8313	2930.0569	1178.85	294.55
1019.946	2931.1597	1182.3	303
1020.0606	2932.2619	1175.15	293.6
1020.1753	2933.3634	1178.75	297.95
1020.2899	2934.4643	1183.75	294.2
1020.4044	2935.5645	1182.4	296.3
1020.5189	2936.6641	1181.85	298.25
1020.6334	2937.763	1175.3	295.8
1020.7478	2938.8613	1177.5	297.5
1020.8622	2939.959	1175.65	288.25
1020.9765	2941.056	1169.7	291
1021.0908	2942.1523	1164.55	281.9
1021.2051	2943.248	1166.55	285.25
1021.3193	2944.3431	1155.6	276.5
1021.4334	2945.4375	1152.95	270.7
1021.5476	2946.5313	1141.45	263.25
1021.6617	2947.6244	1140.5	261.55
1021.7757	2948.7169	1131.45	251.15
1021.8897	2949.8087	1129.5	250.85
1022.0037	2950.8999	1117.9	238.75
1022.1176	2951.9904	1121.85	243.25
1022.2315	2953.0803	1116.05	234.8
1022.3453	2954.1696	1113.95	234.8
1022.4591	2955.2582	1102.7	224.55
1022.5728	2956.3462	1106.9	226.25
1022.6865	2957.4335	1108	226.8
1022.8002	2958.5202	1102.3	219.3
1022.9138	2959.6062	1101	219.85
1023.0274	2960.6916	1101.5	221.4
1023.141	2961.7764	1099.65	219.95
1023.2545	2962.8605	1097.85	215.75
1023.3679	2963.9439	1097.6	218.8
1023.4813	2965.0267	1100.5	221.75
1023.5947	2966.1089	1121.5	219.2
1023.708	2967.1905	1091.9	212.5
1023.8213	2968.2714	1092.85	212.8
1023.9346	2969.3516	1095.3	214.6
1024.0478	2970.4312	1098.8	208.85
1024.1609	2971.5102	1091.2	207.85
1024.274	2972.5885	1090.5	211.9
1024.3871	2973.6662	1097.6	212.75
1024.5002	2974.7432	1085.9	208.85
1024.6132	2975.8196	1084.65	206.2
1024.7261	2976.8954	1082.4	204.95
1024.839	2977.9705	1082.45	202.55
1024.9519	2979.045	1087.15	209.05
1025.0647	2980.1188	1085.45	207.8
1025.1775	2981.192	1078.85	200.5
1025.2902	2982.2645	1082.4	199.6
1025.4029	2983.3364	1079.05	200.3
1025.5156	2984.4077	1075.85	196.2
1025.6282	2985.4783	1077.95	191.3
1025.7407	2986.5483	1074.1	196
1025.8532	2987.6177	1070.9	189.9
1025.9657	2988.6864	1072.2	195.3
1026.0782	2989.7545	1066	183.7
1026.1906	2990.8219	1067.8	190.45
1026.3029	2991.8887	1063.95	181.35
1026.4152	2992.9548	1064	184.5
1026.5275	2994.0204	1058.3	179.45
1026.6397	2995.0852	1053.25	175.8
1026.7519	2996.1495	1053.75	173.6
1026.864	2997.2131	1049.6	171
1026.9761	2998.276	1050.55	170.85
1027.0882	2999.3383	1049.8	171
1027.2002	3000.4	1047.75	167.6
1027.3122	3001.4611	1042.05	162.45
1027.4241	3002.5215	1046.75	167.15
1027.536	3003.5812	1043.3	163.25
1027.6478	3004.6404	1042.05	161.7
1027.7596	3005.6989	1041.1	156
1027.8714	3006.7567	1037.8	155.35
1027.9831	3007.8139	1054.8	152.45
1028.0947	3008.8705	1034.8	155.2
1028.2064	3009.9264	1036.3	153
1028.3179	3010.9818	1035.2	157.4
1028.4295	3012.0364	1034.2	153.25
1028.541	3013.0905	1029.15	149.55
1028.6524	3014.1439	1029.3	148.2
1028.7638	3015.1966	1031.6	151.7
1028.8752	3016.2487	1030.25	150.5
1028.9865	3017.3002	1035.9	149.3
1029.0978	3018.3511	1025.95	147.15
1029.209	3019.4013	1031.2	150.3
1029.3202	3020.4509	1026.45	145.85
1029.4314	3021.4998	1023.25	144.95
1029.5425	3022.5481	1026.7	146.25
1029.6535	3023.5958	1024.45	146.45
1029.7645	3024.6428	1024.25	143.4
1029.8755	3025.6892	1024.25	145.75
1029.9864	3026.735	1022.65	142.6
1030.0973	3027.7802	1026.35	145.4
1030.2082	3028.8247	1021.85	141.75
1030.319	3029.8685	1018.15	137.9
1030.4297	3030.9118	1018.7	135.3
1030.5404	3031.9544	1018.5	141.15
1030.6511	3032.9963	1020.05	140.35
1030.7617	3034.0376	1019.85	141.4
1030.8723	3035.0783	1017.5	135.3
1030.9829	3036.1184	1019.5	136.95
1031.0934	3037.1578	1017.15	140.3
1031.2038	3038.1966	1016.2	134.7
1031.3142	3039.2348	1014.55	137.5
1031.4246	3040.2723	1024.5	134.4
1031.5349	3041.3092	1012.05	134.1
1031.6452	3042.3455	1015.65	135.1
1031.7554	3043.3811	1013.7	133.45
1031.8656	3044.4161	1013.8	133.55
1031.9758	3045.4505	1017	137.5
1032.0859	3046.4842	1014.65	134.8
1032.1959	3047.5173	1011.9	133.15
1032.3059	3048.5498	1012.9	131.8
1032.4159	3049.5816	1009.25	128.45
1032.5258	3050.6128	1012.2	131.25
1032.6357	3051.6434	1012	131.25
1032.7455	3052.6734	1011.85	131.1
1032.8553	3053.7027	1008.35	126.7
1032.9651	3054.7314	1009.5	130.65
1033.0748	3055.7594	1009.1	132.05
1033.1845	3056.7868	1010.45	128.4
1033.2941	3057.8136	1006.45	128.8
1033.4037	3058.8398	1005.3	125.05
1033.5132	3059.8653	1009.25	129.65
1033.6227	3060.8902	1005.9	125.95
1033.7321	3061.9145	1002.4	122.65
1033.8415	3062.9381	1002.8	123.2
1033.9509	3063.9612	1023.25	126.7
1034.0602	3064.9835	1009.1	130.75
1034.1694	3066.0053	1007.35	125.05
1034.2787	3067.0264	1004.25	125.05
1034.3878	3068.0469	1007.1	127
1034.497	3069.0668	1001.35	118.85
1034.6061	3070.086	1000.95	123.25
1034.7151	3071.1046	1001.65	121
1034.8241	3072.1226	1008.4	127.35
1034.9331	3073.1399	996.55	118.3
1035.042	3074.1567	999.35	118.5
1035.1508	3075.1727	1000.1	118.7
1035.2597	3076.1882	1003.1	122.8
1035.3684	3077.203	997.95	117.8
1035.4772	3078.2173	1001.8	121.15
1035.5859	3079.2308	1001.15	118.25
1035.6945	3080.2438	996.4	114.65
1035.8031	3081.2561	995.15	116.75
1035.9117	3082.2678	992.15	112.05
1036.0202	3083.2789	991.85	112.3
1036.1286	3084.2893	993.75	114.35
1036.2371	3085.2991	988.15	107.9
1036.3454	3086.3083	995.9	110.6
1036.4538	3087.3169	992.3	110.85
1036.562	3088.3248	991.45	109.35
1036.6703	3089.3321	992.8	111
1036.7785	3090.3388	986.95	108.5
1036.8866	3091.3449	990.1	107.95
1036.9948	3092.3503	994.9	113.1
1037.1028	3093.3551	984.45	105.1
1037.2108	3094.3593	990.1	112.1
1037.3188	3095.3629	985.95	106.1
1037.4267	3096.3658	987.8	106.1
1037.5346	3097.3681	984.1	105.65
1037.6425	3098.3698	986.65	106.35
1037.7503	3099.3708	990.45	105.35
1037.858	3100.3713	983.75	103.8
1037.9657	3101.3711	981.25	99.55
1038.0734	3102.3702	1118.8	103.65
1038.181	3103.3688	985.75	103
1038.2886	3104.3667	978.55	99.9
1038.3961	3105.364	980.25	101
1038.5036	3106.3607	979.25	98.4
1038.611	3107.3568	978.4	97
1038.7184	3108.3522	979.2	102.45
1038.8257	3109.347	977.6	96.2
1038.933	3110.3412	979.5	95
1039.0403	3111.3348	974.55	96.8
1039.1475	3112.3277	975.4	94.8
1039.2547	3113.32	974.55	95.5
1039.3618	3114.3117	974.35	93.7
1039.4689	3115.3028	972.65	93.45
1039.5759	3116.2932	972.8	91.1
1039.6829	3117.2831	976.65	91.6
1039.7898	3118.2723	973.1	95.25
1039.8967	3119.2608	971.35	91.8
1040.0035	3120.2488	970.25	88
1040.1103	3121.2361	970.1	87.6
1040.2171	3122.2229	969.85	90.1
1040.3238	3123.209	968.2	87.3
1040.4305	3124.1944	968.2	89.85
1040.5371	3125.1793	972.55	91.9
1040.6437	3126.1635	967.2	88.3
1040.7502	3127.1471	967.15	89.2
1040.8567	3128.1301	966.5	87.55
1040.9631	3129.1125	965.2	86.4
1041.0695	3130.0942	968.25	88.6
1041.1759	3131.0753	975.3	87.3
1041.2822	3132.0558	974.6	92.65
1041.3884	3133.0357	964.25	83.05
1041.4946	3134.015	964.9	85.05
1041.6008	3134.9936	963.8	81.95
1041.7069	3135.9716	984.65	83.75
1041.813	3136.949	968.1	91.3
1041.919	3137.9258	970.7	84.05
1042.025	3138.902	967.15	83.3
1042.1309	3139.8775	962.4	82.75
1042.2368	3140.8524	958.95	80.45
1042.3427	3141.8267	965.25	84.35
1042.4485	3142.8004	961.4	83.15
1042.5542	3143.7735	962.25	74.2
1042.6599	3144.7459	963.25	81.85
1042.7656	3145.7178	963.35	82.15
1042.8712	3146.689	956.6	80
1042.9768	3147.6596	960.75	78.9
1043.0823	3148.6295	955.35	77.25
1043.1878	3149.5989	959.8	80.4
1043.2932	3150.5676	957.25	81.1
1043.3986	3151.5357	955.65	78.8
1043.5039	3152.5032	958.8	78.7
1043.6092	3153.4701	952.4	72.7
1043.7145	3154.4364	957.7	76.05
1043.8197	3155.402	952.55	74
1043.9248	3156.367	956.3	75.95
1044.03	3157.3315	993.7	76.85
1044.135	3158.2952	955.6	76.85
1044.24	3159.2584	952.9	73.45
1044.345	3160.221	953.45	73.4
1044.4499	3161.1829	952.6	74.45
1044.5548	3162.1442	952.95	74.45
1044.6596	3163.105	952	71.75
1044.7644	3164.065	953.05	73.2
1044.8692	3165.0245	954.6	71.95
1044.9739	3165.9834	950.5	74.45
1045.0785	3166.9416	950.85	70.75
1045.1831	3167.8993	949.15	69.85
1045.2877	3168.8563	951.45	69.65
1045.3922	3169.8127	949.7	71.6
1045.4966	3170.7684	950.7	71.35
1045.6011	3171.7236	949.7	68.2
1045.7054	3172.6782	947.15	66.25
1045.8098	3173.6321	950	69
1045.914	3174.5854	955.15	71.35
1046.0183	3175.5381	947.3	68.4
1046.1224	3176.4902	947.1	65.7
1046.2266	3177.4417	944.3	64
1046.3307	3178.3926	943.5	64.1
1046.4347	3179.3428	942.85	63.65
1046.5387	3180.2924	943.9	65.6
1046.6427	3181.2415	944.05	63.95
1046.7466	3182.1899	949.2	71.05
1046.8504	3183.1377	941.05	62.9
1046.9542	3184.0848	947.7	65.45
1047.058	3185.0314	945.35	66.65
1047.1617	3185.9773	942.95	63.05
1047.2654	3186.9227	945	63.95
1047.369	3187.8674	941.9	61.9
1047.4726	3188.8115	947.1	63.1
1047.5761	3189.755	940.85	63.4
1047.6796	3190.6979	941.55	62.4
1047.783	3191.6402	940.8	63.6
1047.8864	3192.5818	940.45	62.15
1047.9898	3193.5229	959.4	64.15
1048.0931	3194.4633	944.85	67
1048.1963	3195.4031	940.4	59.65
1048.2995	3196.3423	942.2	63.6
1048.4027	3197.2809	937.15	58
1048.5058	3198.2189	939.35	59
1048.6089	3199.1563	957.65	61.85
1048.7119	3200.0931	938.3	61.4
1048.8148	3201.0292	937.5	59.05
1048.9178	3201.9648	938.6	59.25
1049.0206	3202.8997	942.4	60.7
1049.1235	3203.834	933.1	54.55
1049.2262	3204.7677	937.7	58.5
1049.329	3205.7008	937.6	56.45
1049.4317	3206.6333	933.5	56.25
1049.5343	3207.5652	936.1	54.15
1049.6369	3208.4964	935.2	56.1
1049.7394	3209.4271	933.65	53.8
1049.8419	3210.3571	936.45	57.25
1049.9444	3211.2865	935.35	54.75
1050.0468	3212.2154	936.55	57.4
1050.1491	3213.1436	933.3	49.1
1050.2514	3214.0712	939.8	55.4
1050.3537	3214.9982	933.55	55.35
1050.4559	3215.9246	932.75	53.8
1050.5581	3216.8503	932.3	54.1
1050.6602	3217.7755	933.95	53.25
1050.7623	3218.7001	931.8	53.95
1050.8643	3219.624	933.85	54.5
1050.9663	3220.5473	932.45	53.8
1051.0682	3221.4701	933.4	51.45
1051.1701	3222.3922	935.45	55.7
1051.2719	3223.3137	930.45	52.35
1051.3737	3224.2346	929.7	49
1051.4754	3225.1549	932.35	54.35
1051.5771	3226.0746	930.55	52.8
1051.6788	3226.9937	930.55	53
1051.7804	3227.9121	930.15	51.3
1051.8819	3228.83	929.3	51.6
1051.9834	3229.7473	930.35	51.6
1052.0849	3230.6639	929.35	50
1052.1863	3231.5799	927.5	48.9
1052.2876	3232.4954	928.1	49.35
1052.3889	3233.4102	927.5	48.85
1052.4902	3234.3244	926.55	47.4
1052.5914	3235.238	927.25	49.7
1052.6926	3236.151	951.05	48.3
1052.7937	3237.0634	927.5	49.05
1052.8948	3237.9752	926.55	46.95
1052.9958	3238.8864	926.25	45.5
1053.0968	3239.797	925.55	44.65
1053.1977	3240.7069	927.85	47.65
1053.2986	3241.6163	926.4	47.7
1053.3994	3242.5251	923.4	44.65
1053.5002	3243.4332	928.25	50.85
1053.6009	3244.3408	923.65	44.1
1053.7016	3245.2477	923.4	44.75
1053.8022	3246.154	923.9	43
1053.9028	3247.0598	926.8	44.2
1054.0034	3247.9649	923.7	44.5
1054.1039	3248.8694	923.15	41.95
1054.2043	3249.7733	923.35	43.6
1054.3047	3250.6766	924.5	48.15
1054.4051	3251.5793	924.35	46.6
1054.5054	3252.4814	920.55	43.35
1054.6056	3253.3829	924.35	44.5
1054.7058	3254.2838	923.25	43.3
1054.806	3255.1841	922.1	44.9
1054.9061	3256.0838	920.35	39.95
1055.0061	3256.9829	919.1	41.8
1055.1062	3257.8814	922.65	42.7
1055.2061	3258.7792	921.55	40
1055.306	3259.6765	921.9	41.8
1055.4059	3260.5731	919.35	39.1
1055.5057	3261.4692	918.95	38.85
1055.6055	3262.3647	918.2	39.65
1055.7052	3263.2595	919.95	39.35
1055.8049	3264.1538	915.95	36.85
1055.9045	3265.0474	917.8	39.2
1056.0041	3265.9404	915.3	36.75
1056.1036	3266.8329	918.35	40.45
1056.2031	3267.7247	924.45	34.95
1056.3025	3268.616	913.75	35.85
1056.4019	3269.5066	913.25	33.25
1056.5013	3270.3966	912.35	32.6
1056.6005	3271.286	909.7	31.35
