Software Version:	3.9.2.0
Unit SN:	10000200
Spectrometer SN:	6960
Date:	3/6/2024 9:42:26 AM
Data Line Index:	25
Spectral Points:	2048
Integration time (ms):	125
Averages:	20
Delay (ms):	30
Sequence Number:	1
Processing:	dark subtract
Laser Power (mW):	300
Laser Current (mA):	825
Laser Diode Temp (C):	25.1
Laser Case Temp (C):	24
System Temp (C):	23.8
Spectrometer Temp (C):	21.4
CCD Temp (C):	-0.041
Secondary Temp (C):	20.007
Heatsink Temp (C):	17.409
CCDPCB Temp (C):	30.571
SecondaryPCB Temp (C):	25.447

Wavelength	RamanShift	Raw Counts	Dark Subtracted
787.061	30.1047	456.35	49.05
787.2016	32.3739	459.65	53.7
787.3422	34.6426	460.25	52.5
787.4828	36.9109	467.2	59.35
787.6235	39.1787	476.15	65.7
787.7642	41.4461	483.8	68.45
787.9049	43.7131	490.4	70.1
788.0456	45.9796	500.3	78.15
788.1863	48.2456	504.45	77.2
788.3271	50.5112	516.65	87.95
788.4679	52.7764	522.25	90.35
788.6087	55.0411	531.6	93.65
788.7496	57.3054	543.1	100.95
788.8904	59.5692	549.5	105.95
789.0313	61.8326	557.85	112.6
789.1722	64.0955	568.05	119.45
789.3132	66.3579	586.6	131.7
789.4541	68.6199	600.15	142.75
789.5951	70.8815	626.7	165.35
789.7361	73.1426	687.85	221.45
789.8771	75.4032	832.5	362.9
790.0181	77.6634	1181.7	709.75
790.1592	79.9231	2005	1531
790.3003	82.1824	3759.8	3280.05
790.4414	84.4412	6834.05	6344.7
790.5825	86.6995	11004.5	10503.1
790.7237	88.9574	15102.3	14595.65
790.8648	91.2148	18100.3	17587.4
791.006	93.4717	19767	19250.6
791.1472	95.7282	20509.7	19989.25
791.2885	97.9842	20901.95	20378.55
791.4297	100.2398	21028.9	20508.15
791.571	102.4949	21116.7	20589.95
791.7123	104.7495	21113.85	20583.4
791.8536	107.0036	21098.25	20565.55
791.9949	109.2573	21076.6	20544.7
792.1363	111.5105	21131.75	20601.4
792.2777	113.7632	21104.2	20568.8
792.4191	116.0154	21101.3	20552.45
792.5605	118.2672	21161.6	20621.2
792.7019	120.5185	21174.05	20631.15
792.8434	122.7693	21225.65	20681.4
792.9849	125.0197	21287.1	20737.4
793.1264	127.2696	21284.1	20728.85
793.2679	129.519	21350.8	20794.75
793.4094	131.7679	21377.05	20817.85
793.551	134.0163	21434.35	20874.6
793.6926	136.2642	21457.55	20891.8
793.8342	138.5117	21508.75	20941
793.9758	140.7587	21507.1	20938.55
794.1175	143.0052	21583.7	21012.35
794.2591	145.2512	21527.95	20954.8
794.4008	147.4967	21501.5	20926
794.5425	149.7417	21510.85	20932.3
794.6842	151.9863	21520.05	20939.65
794.826	154.2304	21549.4	20965.65
794.9677	156.4739	21480.75	20890.65
795.1095	158.717	21533.55	20944.6
795.2513	160.9596	21533.4	20937.7
795.3931	163.2017	21526.35	20929.15
795.535	165.4433	21563.25	20962.95
795.6768	167.6844	21602.65	21003.2
795.8187	169.925	21587.05	20982.6
795.9606	172.1651	21541	20932.85
796.1025	174.4047	21548.75	20937.7
796.2445	176.6439	21549.3	20932.95
796.3864	178.8825	21589.6	20975.1
796.5284	181.1206	21601.05	20980.65
796.6704	183.3582	21649.9	21025.8
796.8124	185.5954	21629.5	21006.8
796.9544	187.832	21634.8	21002.25
797.0965	190.0681	21702.6	21069.55
797.2386	192.3037	21726.9	21090.6
797.3806	194.5388	21776.75	21140.15
797.5228	196.7734	21830.65	21192.95
797.6649	199.0075	21908.85	21266.65
797.807	201.2411	22035.2	21394.05
797.9492	203.4742	22040.2	21394.8
798.0914	205.7068	22108.35	21460.65
798.2336	207.9389	22154.8	21504
798.3758	210.1704	22228.95	21588.9
798.518	212.4015	22195.45	21561.2
798.6603	214.632	22244.2	21617.1
798.8025	216.862	22280.9	21654.7
798.9448	219.0915	22305	21677.25
799.0871	221.3205	22331.7	21700.95
799.2294	223.549	22408.65	21780.25
799.3718	225.777	22447.25	21818.95
799.5141	228.0044	22442.95	21806.4
799.6565	230.2314	22509.8	21873.3
799.7989	232.4578	22468.25	21824.55
799.9413	234.6837	22544.15	21891.45
800.0837	236.909	22567.25	21916.4
800.2262	239.1339	22598.9	21919.65
800.3687	241.3582	22621.6	21962.25
800.5111	243.582	22596	21905.1
800.6536	245.8053	22639.55	21961.15
800.7961	248.0281	22613.05	21938.15
800.9387	250.2503	22670.55	21995.1
801.0812	252.472	22681.85	22004.35
801.2238	254.6932	22737.25	22057
801.3664	256.9139	22690.7	22006.3
801.509	259.134	22736.55	22052.8
801.6516	261.3536	22748.85	22066.65
801.7942	263.5727	22843.1	22159
801.9369	265.7912	22853.3	22168.6
802.0795	268.0092	22893.3	22207.9
802.2222	270.2267	22891.9	22206.55
802.3649	272.4436	22954.8	22267.25
802.5076	274.6601	22973.1	22273.2
802.6504	276.8759	22954.4	22260.2
802.7931	279.0913	22955.4	22261.3
802.9359	281.3061	22987.55	22292.65
803.0787	283.5204	23063.2	22364.75
803.2215	285.7341	23059.3	22359.7
803.3643	287.9473	23151.2	22439.95
803.5071	290.16	23123.1	22418
803.6499	292.3721	23081.35	22384.35
803.7928	294.5837	23093.4	22392.45
803.9357	296.7947	23033.45	22333.35
804.0786	299.0052	23037.05	22334.8
804.2215	301.2152	23000.8	22299.25
804.3644	303.4246	23048.55	22347.9
804.5074	305.6334	23009.75	22305.5
804.6503	307.8418	23005.5	22298.55
804.7933	310.0495	22932.5	22224.65
804.9363	312.2568	22936.05	22228.55
805.0793	314.4635	22835.6	22125.45
805.2223	316.6696	22834.65	22122.6
805.3653	318.8752	22749.25	22028.9
805.5084	321.0802	22723.5	22008.8
805.6514	323.2847	22733.65	22016.35
805.7945	325.4887	22709.35	21992.9
805.9376	327.692	22719.9	22001.75
806.0807	329.8949	22796.85	22077.5
806.2238	332.0972	22761.35	22042.3
806.367	334.2989	22832.55	22107.45
806.5101	336.5001	22790.15	22065.65
806.6533	338.7007	22780	22054.45
806.7965	340.9008	22774.1	22047.85
806.9397	343.1003	22777.3	22046.6
807.0829	345.2992	22728.2	21999
807.2261	347.4976	22701.8	21970.65
807.3693	349.6955	22684.85	21948.15
807.5126	351.8927	22725.85	21989.75
807.6559	354.0895	22659.35	21910.5
807.7991	356.2856	22639.35	21900.85
807.9424	358.4812	22643.6	21905.6
808.0857	360.6763	22689.65	21947.35
808.2291	362.8707	22620.9	21878.75
808.3724	365.0646	22669.9	21921.45
808.5158	367.258	22609.45	21862.4
808.6591	369.4508	22617.5	21865.1
808.8025	371.643	22650.85	21898.55
808.9459	373.8346	22542.75	21789
809.0893	376.0257	22601.35	21846.55
809.2327	378.2162	22553.55	21800.75
809.3762	380.4062	22566.8	21812.45
809.5196	382.5956	22506.2	21754
809.6631	384.7844	22492.3	21744.15
809.8066	386.9726	22393.75	21646.3
809.9501	389.1603	22381.4	21635.6
810.0936	391.3474	22388	21602.5
810.2371	393.5339	22356.2	21606.55
810.3806	395.7199	22277.2	21531.4
810.5241	397.9052	22268.45	21521.3
810.6677	400.09	22310.85	21560.25
810.8113	402.2743	22323.05	21570.45
810.9548	404.4579	22301.45	21548
811.0984	406.641	22366.4	21613.9
811.2421	408.8235	22404.8	21647.2
811.3857	411.0054	22418.9	21658.75
811.5293	413.1868	22498.8	21735.15
811.673	415.3675	22499.3	21734.2
811.8166	417.5477	22520.1	21756.2
811.9603	419.7273	22470.9	21702
812.104	421.9064	22342.35	21568.15
812.2477	424.0848	22220.35	21450.65
812.3914	426.2627	22124.15	21352.2
812.5351	428.4399	22084.85	21315.85
812.6788	430.6166	22016.35	21240.65
812.8226	432.7928	21955.3	21180
812.9663	434.9683	21866.25	21091.4
813.1101	437.1432	21836.4	21057.8
813.2539	439.3176	21780.2	21005.35
813.3977	441.4914	21722.2	20946
813.5415	443.6645	21712.95	20934.9
813.6853	445.8371	21617	20840.75
813.8291	448.0091	21503.55	20727.65
813.973	450.1806	21484.3	20706.35
814.1168	452.3514	21406.35	20626.55
814.2607	454.5216	21411.6	20622.9
814.4046	456.6913	21299.05	20516.65
814.5485	458.8603	21325.2	20543.1
814.6924	461.0288	21344.3	20563.8
814.8363	463.1967	21279.15	20498
814.9802	465.3639	21293.2	20509.2
815.1241	467.5306	21240.15	20455.7
815.2681	469.6967	21215.2	20432.45
815.412	471.8622	21187.7	20405
815.556	474.0271	21157.75	20371.75
815.7	476.1914	21130.55	20341.95
815.844	478.3551	21109.9	20321.05
815.988	480.5182	21123.95	20338.65
816.132	482.6807	21167.1	20377.95
816.276	484.8426	21141.7	20353.8
816.4201	487.0039	21170.25	20379.95
816.5641	489.1647	21230.85	20440.8
816.7082	491.3248	21255.8	20464.95
816.8522	493.4843	21240.95	20451
816.9963	495.6432	21230.6	20439.45
817.1404	497.8015	21164.15	20367.45
817.2845	499.9592	21158.1	20364.6
817.4286	502.1163	21115.7	20321.1
817.5727	504.2728	21046.45	20250.3
817.7168	506.4287	21100.4	20304.65
817.861	508.5839	20974.2	20176.65
818.0051	510.7386	21004.65	20209.05
818.1493	512.8927	20983.4	20184.45
818.2935	515.0461	21001.2	20201.4
818.4377	517.199	20977.9	20178.65
818.5818	519.3512	20971.75	20172.75
818.726	521.5029	21019.85	20216.2
818.8703	523.6539	21009.05	20208.05
819.0145	525.8043	20982.95	20180.1
819.1587	527.9541	20923.1	20121.9
819.303	530.1033	20860.9	20057.65
819.4472	532.2519	20801.45	19997
819.5915	534.3999	20791.85	19986.3
819.7357	536.5472	20751	19947.1
819.88	538.694	20757.5	19955.4
820.0243	540.8401	20789	19983.65
820.1686	542.9856	20800.35	19993.2
820.3129	545.1305	20752.3	19946.1
820.4572	547.2748	20804.35	19998.5
820.6016	549.4185	20776.5	19966.75
820.7459	551.5615	20724.9	19918.05
820.8902	553.704	20751.75	19943.35
821.0346	555.8458	20711.45	19903.9
821.1789	557.987	20704.2	19897.05
821.3233	560.1276	20693.1	19884.25
821.4677	562.2675	20753.7	19946.25
821.6121	564.4069	20714.15	19906.3
821.7565	566.5456	20717.95	19912.1
821.9009	568.6837	20727.65	19917.65
822.0453	570.8212	20603.3	19792
822.1897	572.958	20555.55	19741.9
822.3342	575.0942	20476.75	19666.4
822.4786	577.2299	20386.3	19574.15
822.6231	579.3648	20307.35	19496.45
822.7675	581.4992	20244.25	19430.95
822.912	583.6329	20168.15	19357.55
823.0565	585.766	20155.35	19343
823.201	587.8985	20130.55	19320.25
823.3454	590.0304	20111.25	19283.1
823.4899	592.1616	20098.45	19280.2
823.6345	594.2922	20042.85	19227.35
823.779	596.4222	19979.4	19159.75
823.9235	598.5515	19925.9	19108.55
824.068	600.6802	19862.9	19045.05
824.2126	602.8083	19768.1	18949.85
824.3571	604.9358	19721.6	18902.55
824.5017	607.0626	19661.5	18841.6
824.6462	609.1888	19656.65	18836.1
824.7908	611.3144	19613.05	18791.45
824.9354	613.4393	19614.4	18792.2
825.08	615.5636	19655.2	18831.35
825.2246	617.6873	19640.3	18820.95
825.3692	619.8103	19711.75	18890
825.5138	621.9327	19647.3	18823.15
825.6584	624.0544	19632.7	18811.25
825.803	626.1756	19572.7	18749.75
825.9477	628.2961	19510.05	18686.9
826.0923	630.4159	19432.3	18606.8
826.237	632.5351	19455.75	18630.6
826.3816	634.6537	19424.35	18600.1
826.5263	636.7716	19412.7	18588.5
826.6709	638.8889	19357.9	18530.1
826.8156	641.0056	19398.9	18572.9
826.9603	643.1216	19383	18557.55
827.105	645.237	19393.9	18566.45
827.2497	647.3518	19341.55	18514.65
827.3944	649.4659	19296.15	18468.85
827.5391	651.5793	19270	18440.6
827.6838	653.6922	19234.55	18406.9
827.8285	655.8043	19213.65	18386.4
827.9733	657.9159	19178.95	18350.9
828.118	660.0268	19138.25	18307.4
828.2627	662.137	19102.8	18271.05
828.4075	664.2466	19100.25	18268.3
828.5522	666.3556	19077.65	18245.7
828.697	668.4639	19032.25	18198.6
828.8418	670.5716	19038.65	18209.1
828.9865	672.6786	19034.95	18203.7
829.1313	674.785	18955.2	18122.75
829.2761	676.8907	18884.1	18052.85
829.4209	678.9958	18896.25	18063.9
829.5657	681.1002	18821.85	17987.9
829.7105	683.204	18826.95	17989.35
829.8553	685.3072	18795.4	17957.25
830.0001	687.4097	18754.85	17918.6
830.1449	689.5115	18732	17895.3
830.2898	691.6127	18703.4	17869.7
830.4346	693.7132	18690.45	17853.85
830.5794	695.8131	18723.45	17866.15
830.7243	697.9123	18706.2	17868
830.8691	700.0109	18656.25	17817.55
831.014	702.1089	18650.15	17813.3
831.1588	704.2061	18660.4	17820.6
831.3037	706.3028	18650.15	17810.35
831.4486	708.3987	18630	17792.55
831.5935	710.4941	18586.1	17746.4
831.7383	712.5887	18621.7	17785.2
831.8832	714.6827	18591.3	17749.7
832.0281	716.7761	18578.05	17738.65
832.173	718.8688	18570.85	17732.65
832.3179	720.9608	18525.75	17680.6
832.4628	723.0522	18525.4	17682
832.6077	725.1429	18507.85	17665.5
832.7527	727.233	18494.4	17653.4
832.8976	729.3224	18517.6	17676.1
833.0425	731.4112	18457.9	17613.9
833.1874	733.4993	18475.5	17631
833.3324	735.5867	18393.45	17550.75
833.4773	737.6735	18365.35	17521.35
833.6222	739.7596	18283	17438.3
833.7672	741.845	18225	17380.8
833.9122	743.9298	18182.2	17336.1
834.0571	746.014	18186.7	17341.5
834.2021	748.0974	18153.95	17306.95
834.347	750.1802	18132.75	17287.15
834.492	752.2624	18066.1	17219.1
834.637	754.3439	17980.9	17136.55
834.782	756.4247	17936.45	17078.85
834.9269	758.5048	17871.3	17025.25
835.0719	760.5843	17852.7	17005.7
835.2169	762.6631	17851.2	17001.7
835.3619	764.7413	17822	16977.85
835.5069	766.8188	17836.9	16989.15
835.6519	768.8956	17797.35	16949.65
835.7969	770.9718	17867.35	17020.1
835.9419	773.0473	17799.3	16952.1
836.0869	775.1221	17730.7	16883.5
836.232	777.1962	17683.05	16834.7
836.377	779.2697	17690.2	16840.3
836.522	781.3426	17726.45	16862.15
836.667	783.4147	17692.75	16843.35
836.8121	785.4862	17678.15	16831.9
836.9571	787.557	17560.35	16710.75
837.1021	789.6271	17538.1	16689.25
837.2472	791.6966	17431.75	16583.7
837.3922	793.7654	17333.1	16483.9
837.5373	795.8335	17305.35	16454.95
837.6823	797.901	17252.4	16401.25
837.8274	799.9678	17232.85	16380.8
837.9724	802.0339	17129.8	16280.65
838.1175	804.0993	17150.5	16290.05
838.2626	806.1641	17079.9	16228.8
838.4076	808.2282	17048.85	16197.1
838.5527	810.2916	17033.85	16176.45
838.6978	812.3544	17054.9	16204.75
838.8428	814.4164	16996.45	16147.15
838.9879	816.4778	17008.5	16155.75
839.133	818.5385	16909.35	16059.65
839.2781	820.5986	16938.8	16087.45
839.4232	822.658	16958.85	16105.45
839.5682	824.7166	16919.35	16067.25
839.7133	826.7747	17006.1	16155.95
839.8584	828.832	17032.65	16180.35
840.0035	830.8886	17001.65	16147.1
840.1486	832.9446	16987.7	16134.05
840.2937	834.9999	16930.05	16077.65
840.4388	837.0545	16882.45	16023.2
840.5839	839.1085	16828.75	15973.4
840.729	841.1618	16721.45	15862.7
840.8741	843.2143	16698.85	15845.8
841.0192	845.2662	16593.05	15739.05
841.1643	847.3175	16596.05	15741.7
841.3095	849.368	16553.3	15698.6
841.4546	851.4179	16557.35	15703.2
841.5997	853.467	16483.9	15629.25
841.7448	855.5155	16507.35	15649.85
841.8899	857.5633	16463.85	15607.25
842.0351	859.6105	16389.15	15534.65
842.1802	861.6569	16399.5	15544.8
842.3253	863.7027	16351.75	15493.45
842.4704	865.7478	16326.05	15468.3
842.6156	867.7922	16291	15432.7
842.7607	869.8359	16254.55	15397
842.9058	871.8789	16256.05	15398.5
843.0509	873.9212	16256.65	15369.1
843.1961	875.9629	16174.1	15319.75
843.3412	878.0039	16172.25	15314.4
843.4863	880.0441	16214.25	15357.2
843.6315	882.0837	16174.8	15315.8
843.7766	884.1226	16183.9	15321.95
843.9218	886.1609	16173.4	15318.1
844.0669	888.1984	16177.45	15321.15
844.212	890.2352	16219.65	15361.8
844.3572	892.2714	16191.65	15330.6
844.5023	894.3069	16172.25	15311.95
844.6475	896.3416	16090	15231.8
844.7926	898.3757	16081.95	15222.65
844.9377	900.4091	16036.75	15176.55
845.0829	902.4418	16016.9	15150.3
845.228	904.4739	15948.65	15085.75
845.3732	906.5052	15947.7	15087.65
845.5183	908.5358	15927.85	15070.15
845.6635	910.5658	15879.95	15017.95
845.8086	912.595	15839.6	14978.85
845.9538	914.6236	15799.1	14936.1
846.0989	916.6515	15774.9	14915.35
846.2441	918.6786	15726.15	14863.45
846.3892	920.7051	15701.45	14839
846.5344	922.7309	15729.1	14868.5
846.6795	924.756	15650.4	14787.65
846.8246	926.7804	15642.85	14779.65
846.9698	928.8041	15579.2	14715.9
847.1149	930.8272	15560.75	14698.85
847.2601	932.8495	15474	14610.35
847.4052	934.8711	15482.85	14619.65
847.5504	936.892	15457.05	14592.45
847.6955	938.9123	15394.4	14530
847.8407	940.9318	15379.75	14516.9
847.9858	942.9506	15313.95	14449
848.131	944.9688	15314.2	14452.2
848.2761	946.9862	15251.65	14388.6
848.4213	949.003	15188.5	14325.85
848.5664	951.019	15109.4	14245.15
848.7115	953.0344	15095.6	14233.2
848.8567	955.0491	15077.85	14211.55
849.0018	957.063	15060.85	14195.8
849.147	959.0763	15096.5	14233.65
849.2921	961.0888	15022.05	14154.8
849.4373	963.1007	15006.7	14143
849.5824	965.1119	14989.25	14127.05
849.7275	967.1223	14967.55	14105.55
849.8727	969.1321	14927.85	14065.2
850.0178	971.1412	14906.5	14044
850.1629	973.1495	14873.85	14010.8
850.3081	975.1572	14870.85	13959.15
850.4532	977.1641	14866.7	14001.8
850.5983	979.1704	14798	13932
850.7435	981.1759	14758.4	13890.3
850.8886	983.1808	14741.75	13875.3
851.0337	985.1849	14703	13828.1
851.1788	987.1884	14660.7	13792.9
851.324	989.1911	14641.95	13774.6
851.4691	991.1932	14637.65	13770.8
851.6142	993.1945	14565.7	13700.7
851.7593	995.1951	14505.7	13640.15
851.9045	997.1951	14489.5	13616.35
852.0496	999.1943	14442.35	13579.7
852.1947	1001.1928	14383.25	13517.8
852.3398	1003.1906	14329.55	13463.85
852.4849	1005.1877	14313.45	13445.8
852.63	1007.1841	14270.1	13404.35
852.7751	1009.1798	14240.85	13374.1
852.9202	1011.1748	14179.3	13312.35
853.0653	1013.1691	14114.45	13248.55
853.2104	1015.1627	14082.5	13217.05
853.3555	1017.1556	13994.45	13126.1
853.5006	1019.1477	13938.3	13069.05
853.6457	1021.1392	13844.2	12977.75
853.7908	1023.1299	13824.6	12957.1
853.9359	1025.12	13777.45	12910.2
854.081	1027.1093	13724.4	12858.05
854.2261	1029.0979	13699.7	12835.55
854.3712	1031.0859	13665.3	12799.4
854.5163	1033.0731	13626.75	12757.95
854.6613	1035.0596	13598	12730.7
854.8064	1037.0454	13513.85	12645.05
854.9515	1039.0304	13516.45	12646.6
855.0965	1041.0148	13422.45	12555.8
855.2416	1042.9985	13380.35	12511.75
855.3867	1044.9814	13365.1	12499.1
855.5317	1046.9636	13320.65	12449.15
855.6768	1048.9452	13271.5	12404.55
855.8219	1050.926	13271.7	12405.35
855.9669	1052.9061	13241.8	12374.8
856.112	1054.8855	13210.8	12342.9
856.257	1056.8642	13186.2	12316.85
856.4021	1058.8421	13161.9	12289.75
856.5471	1060.8194	13145.1	12274.25
856.6921	1062.7959	13092.2	12222.75
856.8372	1064.7717	13085.15	12216.15
856.9822	1066.7469	13070.05	12200.4
857.1272	1068.7213	13043.75	12170.15
857.2723	1070.695	13039.75	12171.1
857.4173	1072.6679	12982.15	12112.8
857.5623	1074.6402	12987.35	12115.15
857.7073	1076.6117	12964.8	12090
857.8523	1078.5826	12952.9	12081
857.9973	1080.5527	12884.1	12011.3
858.1423	1082.5221	12858.7	11987
858.2873	1084.4908	12824.3	11955.8
858.4323	1086.4587	12771.4	11901.15
858.5773	1088.426	12738.8	11868.2
858.7223	1090.3925	12697.3	11823.05
858.8673	1092.3584	12665.15	11796.35
859.0123	1094.3235	12609.7	11738.3
859.1573	1096.2879	12588	11715.4
859.3022	1098.2515	12589.6	11717.85
859.4472	1100.2145	12617.9	11746.7
859.5922	1102.1767	12596.15	11723.25
859.7371	1104.1382	12601.6	11731.2
859.8821	1106.099	12571.15	11700.4
860.027	1108.0591	12578.8	11710.35
860.172	1110.0185	12570.9	11699.05
860.3169	1111.9771	12589.4	11715.9
860.4619	1113.9351	12550.05	11677.9
860.6068	1115.8923	12595	11724.75
860.7517	1117.8488	12580.6	11706.4
860.8967	1119.8045	12535.65	11665.55
861.0416	1121.7596	12437.85	11565.15
861.1865	1123.7139	12325.45	11454.55
861.3314	1125.6675	12273.25	11402
861.4763	1127.6204	12274.9	11404.1
861.6212	1129.5726	12253.25	11377.2
861.7661	1131.524	12229.9	11357.6
861.911	1133.4748	12174.95	11301.2
862.0559	1135.4248	12117.3	11243.55
862.2008	1137.3741	12084.4	11213.3
862.3457	1139.3226	12028.7	11154.5
862.4905	1141.2705	12035	11162.3
862.6354	1143.2176	11978.15	11102.6
862.7803	1145.164	11973.75	11099.45
862.9251	1147.1097	11942.4	11069.85
863.07	1149.0546	11911.5	11036.4
863.2148	1150.9989	11888.8	11013.6
863.3597	1152.9424	11890.2	11016.2
863.5045	1154.8852	11839.05	10966.25
863.6493	1156.8272	11831.6	10958.95
863.7942	1158.7686	11844.35	10964.65
863.939	1160.7092	11762.35	10888.2
864.0838	1162.6491	11741.95	10865.55
864.2286	1164.5883	11754.6	10881.55
864.3734	1166.5267	11743.6	10869.55
864.5182	1168.4644	11732.35	10858.55
864.663	1170.4014	11710.95	10832.55
864.8078	1172.3377	11753.55	10883.95
864.9526	1174.2732	11750.7	10876.65
865.0974	1176.2081	11809.85	10937.2
865.2421	1178.1421	11836.35	10958.7
865.3869	1180.0755	11893.4	11019.85
865.5317	1182.0082	11916.25	11043.8
865.6764	1183.9401	11887	11011.1
865.8212	1185.8713	11778.2	10905.8
865.9659	1187.8017	11723.75	10852.4
866.1106	1189.7315	11640.05	10767.55
866.2554	1191.6605	11526.9	10653.75
866.4001	1193.5888	11438.4	10567
866.5448	1195.5163	11394.5	10519.8
866.6895	1197.4432	11361.5	10487.05
866.8342	1199.3693	11324.4	10450.45
866.9789	1201.2947	11243.6	10361.15
867.1236	1203.2193	11229.25	10355.05
867.2683	1205.1432	11216.15	10340.7
867.413	1207.0664	11168.2	10294.75
867.5576	1208.9889	11143.45	10266.4
867.7023	1210.9106	11108.5	10238.3
867.847	1212.8316	11066.3	10192.7
867.9916	1214.7519	11051.9	10169.55
868.1363	1216.6715	11011.7	10138.85
868.2809	1218.5903	11025.55	10150.05
868.4255	1220.5084	10999.9	10125.7
868.5701	1222.4257	10999.35	10123.5
868.7148	1224.3424	10947.45	10074.15
868.8594	1226.2583	10957.85	10077.1
869.004	1228.1735	10956.1	10079.45
869.1486	1230.0879	10903.45	10026.25
869.2932	1232.0016	10925.45	10048.9
869.4377	1233.9146	10914.2	10035.2
869.5823	1235.8269	10913.2	10039.45
869.7269	1237.7384	10899.45	10024.1
869.8715	1239.6492	10853	9978.55
870.016	1241.5592	10842.95	9967.5
870.1606	1243.4686	10837.85	9963.45
870.3051	1245.3772	10895.95	10021.15
870.4496	1247.285	10909.95	10034.35
870.5941	1249.1922	10949.45	10074.45
870.7387	1251.0986	10964.1	10089.35
870.8832	1253.0042	10944.2	10068.95
871.0277	1254.9092	10997.75	10123.7
871.1722	1256.8134	11037.15	10163
871.3167	1258.7169	11075.65	10198.05
871.4611	1260.6196	11091.3	10215.45
871.6056	1262.5216	11101.6	10224.6
871.7501	1264.4229	11072.95	10197.6
871.8945	1266.3234	11037.65	10161.8
872.039	1268.2232	10994.25	10117.85
872.1834	1270.1223	10932.6	10057.05
872.3278	1272.0207	10881.85	10006.75
872.4723	1273.9183	10857.85	9975.75
872.6167	1275.8151	10842.25	9968.05
872.7611	1277.7113	10856.2	9980.5
872.9055	1279.6067	10891.9	10014.35
873.0499	1281.5014	10970.35	10092.7
873.1943	1283.3953	11072.45	10196.5
873.3386	1285.2885	11147.8	10272.3
873.483	1287.181	11247.05	10369.45
873.6274	1289.0727	11269.85	10395.55
873.7717	1290.9637	11251.4	10374.8
873.9161	1292.854	11196	10319.5
874.0604	1294.7435	11099.8	10222.7
874.2047	1296.6323	11012.9	10136.95
874.349	1298.5204	10939.2	10057.35
874.4933	1300.4077	10871.1	9994.35
874.6376	1302.2943	10833.4	9956.2
874.7819	1304.1802	10797.85	9921.75
874.9262	1306.0653	10767.85	9888.25
875.0705	1307.9497	10725.85	9850.3
875.2147	1309.8333	10718.7	9842.6
875.359	1311.7162	10669.1	9793.7
875.5032	1313.5984	10642.05	9761.4
875.6475	1315.4798	10596.95	9710.15
875.7917	1317.3605	10567.45	9675.15
875.9359	1319.2405	10578.05	9699.2
876.0801	1321.1197	10560.25	9684.2
876.2243	1322.9982	10497.3	9615.75
876.3685	1324.876	10452.95	9577.3
876.5127	1326.753	10386.05	9510.7
876.6569	1328.6293	10369.75	9492.1
876.801	1330.5048	10280.7	9401.6
876.9452	1332.3796	10179.2	9302.9
877.0893	1334.2537	10178.95	9276.2
877.2335	1336.127	10104.85	9228.25
877.3776	1337.9996	10071.5	9192.5
877.5217	1339.8714	10034.2	9157.75
877.6658	1341.7426	10033.15	9110.65
877.8099	1343.6129	9990.1	9112.7
877.954	1345.4826	9964.1	9086.6
878.0981	1347.3515	9948.7	9069.65
878.2422	1349.2196	9916.5	9037.95
878.3862	1351.087	9896.75	9018.85
878.5303	1352.9537	9905.15	9027.6
878.6743	1354.8197	9882.5	9004.95
878.8184	1356.6849	9909.3	9031.6
878.9624	1358.5493	9868.4	8992.25
879.1064	1360.4131	9875.5	8998.35
879.2504	1362.276	9861.25	8985.6
879.3944	1364.1383	9872.8	8994.75
879.5384	1365.9998	9858.25	8974.3
879.6823	1367.8606	9819.45	8943.65
879.8263	1369.7206	9796.45	8919.45
879.9702	1371.5799	9791.5	8911.35
880.1142	1373.4384	9765.4	8886.95
880.2581	1375.2962	9761.2	8882.8
880.402	1377.1533	9667.65	8791
880.5459	1379.0096	9599.7	8720.65
880.6898	1380.8652	9551.85	8673.9
880.8337	1382.7201	9519.85	8641.85
880.9776	1384.5742	9455.1	8577.2
881.1215	1386.4275	9412.6	8535.5
881.2653	1388.2802	9356	8477.9
881.4092	1390.132	9320.75	8442.4
881.553	1391.9832	9316.05	8436.55
881.6968	1393.8336	9262.15	8384.3
881.8406	1395.6832	9259.7	8379.8
881.9844	1397.5322	9240.3	8362.95
882.1282	1399.3803	9194.15	8311.05
882.272	1401.2278	9145.7	8267.5
882.4158	1403.0745	9122.45	8243.25
882.5595	1404.9204	9068.15	8190.95
882.7033	1406.7656	9094.55	8214.6
882.847	1408.6101	9023.8	8144.9
882.9908	1410.4538	8992.85	8114.3
883.1345	1412.2968	8994.45	8115.65
883.2782	1414.139	8944.7	8065.55
883.4219	1415.9805	8926.75	8050.45
883.5656	1417.8213	8920.55	8023.05
883.7092	1419.6613	8883.15	8006.4
883.8529	1421.5006	8871.75	7994.5
883.9965	1423.3391	8897.8	8016.05
884.1402	1425.1769	8896.15	8016.4
884.2838	1427.0139	8908.3	8029.05
884.4274	1428.8502	8971.5	8092
884.571	1430.6858	8987.05	8111.7
884.7146	1432.5206	8969.45	8090.5
884.8582	1434.3547	8969.4	8089.25
885.0018	1436.188	8946	8067.65
885.1453	1438.0206	8910.1	8031.9
885.2889	1439.8524	8875.75	7995.2
885.4324	1441.6835	8883.05	8003.4
885.5759	1443.5139	8852.35	7969.8
885.7194	1445.3435	8828.05	7951.4
885.8629	1447.1724	8837.25	7959.1
886.0064	1449.0005	8829.8	7952
886.1499	1450.8279	8790.65	7910.9
886.2933	1452.6545	8798.55	7921.35
886.4368	1454.4804	8786.2	7908.75
886.5802	1456.3056	8771.65	7885.8
886.7237	1458.13	8766.3	7889.05
886.8671	1459.9536	8718.15	7836.7
887.0105	1461.7766	8676.15	7798.4
887.1539	1463.5987	8632.85	7752.55
887.2972	1465.4202	8600.1	7721.3
887.4406	1467.2409	8530	7651.15
887.584	1469.0608	8528.1	7650.8
887.7273	1470.88	8488.7	7610.15
887.8706	1472.6984	8462.8	7585.45
888.0139	1474.5161	8403.1	7522.05
888.1572	1476.3331	8390.7	7514.65
888.3005	1478.1493	8373	7492.25
888.4438	1479.9648	8352.1	7474
888.5871	1481.7795	8329.7	7450.7
888.7303	1483.5935	8324.5	7446.5
888.8736	1485.4067	8307.05	7427.8
889.0168	1487.2192	8296.7	7417.5
889.16	1489.031	8282.35	7402.4
889.3032	1490.842	8279.8	7401.7
889.4464	1492.6522	8250.95	7373.1
889.5896	1494.4618	8222.45	7341.15
889.7327	1496.2705	8212.75	7333.75
889.8759	1498.0785	8185.65	7306.1
890.019	1499.8858	8166.7	7286.8
890.1622	1501.6924	8129.7	7250.85
890.3053	1503.4981	8135.75	7257.15
890.4484	1505.3032	8109.8	7231.75
890.5914	1507.1075	8086.65	7207.3
890.7345	1508.911	8060.4	7181
890.8776	1510.7138	8031.15	7150.6
891.0206	1512.5159	7993.8	7115.7
891.1637	1514.3172	7991	7113.6
891.3067	1516.1178	7967.2	7089.8
891.4497	1517.9176	7954.45	7072.05
891.5927	1519.7166	7928.75	7052.05
891.7357	1521.515	7901.3	7016.85
891.8786	1523.3126	7896.65	7018.2
892.0216	1525.1094	7833.25	6953.2
892.1645	1526.9055	7806.05	6926.75
892.3074	1528.7008	7806.25	6926.25
892.4503	1530.4954	7748.15	6868
892.5932	1532.2893	7720.35	6842.85
892.7361	1534.0824	7690.4	6805.4
892.879	1535.8747	7687.95	6811.55
893.0218	1537.6663	7638.35	6757.5
893.1647	1539.4572	7624	6743.8
893.3075	1541.2473	7614.6	6732.55
893.4503	1543.0367	7577.3	6699.2
893.5931	1544.8253	7555.45	6672.8
893.7359	1546.6132	7534.4	6654.1
893.8787	1548.4003	7486.8	6598.7
894.0214	1550.1867	7502.05	6613.6
894.1642	1551.9723	7498.35	6614.05
894.3069	1553.7572	7492	6612
894.4496	1555.5414	7457.35	6575.9
894.5923	1557.3247	7457.7	6578.75
894.735	1559.1074	7455.5	6576.3
894.8777	1560.8893	7455.2	6577.55
895.0204	1562.6705	7456.15	6578.4
895.163	1564.4509	7448.4	6572.15
895.3056	1566.2305	7419.65	6543.65
895.4482	1568.0094	7445.35	6568.3
895.5908	1569.7876	7412.55	6534.95
895.7334	1571.565	7396.8	6516.8
895.876	1573.3417	7386.7	6508.15
896.0186	1575.1176	7364.15	6485.75
896.1611	1576.8928	7354.95	6477.7
896.3036	1578.6672	7339.2	6461.7
896.4461	1580.4409	7323.25	6445.4
896.5886	1582.2138	7313.5	6434.25
896.7311	1583.986	7339.6	6460
896.8736	1585.7575	7344.65	6468.6
897.0161	1587.5282	7330.55	6456.85
897.1585	1589.2981	7340.5	6464.95
897.3009	1591.0673	7323	6444.2
897.4433	1592.8358	7333.25	6456.8
897.5857	1594.6035	7339.05	6456.9
897.7281	1596.3704	7257.55	6377.85
897.8705	1598.1366	7260.1	6382.4
898.0128	1599.9021	7206.4	6329.95
898.1551	1601.6668	7160.65	6280.6
898.2975	1603.4308	7140.2	6262.25
898.4398	1605.194	7114.4	6231.25
898.5821	1606.9564	7104.85	6228.35
898.7243	1608.7182	7129.6	6248.5
898.8666	1610.4791	7150.45	6275.3
899.0088	1612.2394	7175.45	6297.1
899.1511	1613.9988	7245.65	6369.05
899.2933	1615.7576	7284.65	6407.35
899.4355	1617.5156	7286.85	6403.95
899.5776	1619.2728	7263.6	6387.35
899.7198	1621.0293	7184	6308.1
899.862	1622.785	7092.9	6211.75
900.0041	1624.54	6992.8	6110.8
900.1462	1626.2942	6902.9	6025.55
900.2883	1628.0477	6788.7	5910.4
900.4304	1629.8005	6706.1	5824.4
900.5725	1631.5525	6658.6	5781
900.7145	1633.3037	6586	5708.2
900.8566	1635.0542	6544.1	5668.3
900.9986	1636.804	6492.25	5615.65
901.1406	1638.553	6550.85	5583.55
901.2826	1640.3013	6452.8	5576.6
901.4245	1642.0488	6407.45	5528.6
901.5665	1643.7955	6359.35	5481.8
901.7085	1645.5416	6335.05	5458.95
901.8504	1647.2868	6316.75	5441.45
901.9923	1649.0313	6265.35	5386.25
902.1342	1650.7751	6276.1	5395.35
902.2761	1652.5181	6256.7	5380.15
902.4179	1654.2604	6242.2	5363.65
902.5598	1656.0019	6223	5346.4
902.7016	1657.7427	6197.95	5321.7
902.8434	1659.4828	6222.1	5345.2
902.9852	1661.222	6202.65	5324.3
903.127	1662.9606	6200	5322.45
903.2687	1664.6984	6198.55	5318.95
903.4105	1666.4354	6211.3	5332.75
903.5522	1668.1717	6170.85	5292.15
903.6939	1669.9072	6096.3	5217.7
903.8356	1671.642	6084.5	5205.5
903.9773	1673.3761	6041.85	5166.7
904.119	1675.1094	5991.95	5116
904.2606	1676.8419	5950.3	5074.6
904.4022	1678.5737	5931.35	5053.15
904.5439	1680.3048	5908.05	5031.5
904.6855	1682.0351	5858.1	4979.1
904.827	1683.7646	5841.75	4958.8
904.9686	1685.4934	5804.3	4928.65
905.1101	1687.2215	5820.55	4941.8
905.2517	1688.9488	5759.05	4883.75
905.3932	1690.6754	5718.55	4842.3
905.5347	1692.4012	5706.5	4829.2
905.6761	1694.1263	5688.05	4808.95
905.8176	1695.8506	5676.55	4799.25
905.9591	1697.5742	5660.9	4783.1
906.1005	1699.297	5645.25	4767.85
906.2419	1701.0191	5606	4726.85
906.3833	1702.7404	5580.7	4704.6
906.5246	1704.461	5559.9	4680.9
906.666	1706.1808	5546	4666.15
906.8073	1707.8999	5508.55	4630.45
906.9487	1709.6182	5517.3	4639.1
907.09	1711.3358	5478.45	4601.3
907.2313	1713.0527	5464.55	4588.8
907.3725	1714.7688	5452.45	4570.55
907.5138	1716.4841	5439.1	4560.1
907.655	1718.1987	5451.2	4568.55
907.7962	1719.9126	5424.05	4549.05
907.9374	1721.6257	5406.2	4525.5
908.0786	1723.338	5399.75	4520.8
908.2198	1725.0496	5358.6	4479.85
908.3609	1726.7605	5361.4	4483.95
908.502	1728.4706	5356.05	4479.95
908.6431	1730.18	5322.55	4443.8
908.7842	1731.8886	5328.35	4450.45
908.9253	1733.5964	5327.7	4444.75
909.0664	1735.3036	5318.4	4439.7
909.2074	1737.0099	5292.35	4414.95
909.3484	1738.7156	5294.95	4418.5
909.4894	1740.4204	5260.2	4378.45
909.6304	1742.1246	5266.35	4387.15
909.7714	1743.8279	5270.95	4393.45
909.9123	1745.5306	5273.7	4395.5
910.0532	1747.2325	5233.65	4356.05
910.1941	1748.9336	5241.25	4363.7
910.335	1750.634	5203.5	4324.75
910.4759	1752.3336	5204.6	4328.5
910.6168	1754.0325	5206.55	4331.25
910.7576	1755.7307	5205.55	4328.05
910.8984	1757.4281	5197.65	4321.95
911.0392	1759.1247	5210.9	4324.25
911.18	1760.8206	5191.9	4307.6
911.3208	1762.5158	5191	4308.5
911.4615	1764.2102	5159.3	4281.9
911.6022	1765.9039	5162	4285.5
911.7429	1767.5968	5133.3	4255.8
911.8836	1769.289	5127.15	4250.15
912.0243	1770.9804	5132.85	4252.4
912.1649	1772.6711	5106.3	4229.9
912.3056	1774.361	5105.8	4226.8
912.4462	1776.0502	5087	4209.45
912.5868	1777.7386	5085.25	4203.1
912.7274	1779.4263	5066	4189
912.8679	1781.1132	5063.8	4185.9
913.0084	1782.7994	5056.1	4177.2
913.149	1784.4849	5045.45	4167.9
913.2895	1786.1696	5041.25	4143.15
913.4299	1787.8535	5015.9	4141.9
913.5704	1789.5367	4998.65	4121.65
913.7108	1791.2192	5006	4129.85
913.8513	1792.9009	4993.55	4088.05
913.9917	1794.5818	4964	4086.7
914.132	1796.2621	4966.15	4089.25
914.2724	1797.9415	4945.15	4066.45
914.4128	1799.6202	4945.8	4068.15
914.5531	1801.2982	4921.2	4043.75
914.6934	1802.9755	4912.55	4036.4
914.8337	1804.6519	4918.3	4039.2
914.9739	1806.3277	4902.5	4023.9
915.1142	1808.0027	4882.35	4005.75
915.2544	1809.6769	4872.55	3996.1
915.3946	1811.3504	4856.85	3977.65
915.5348	1813.0231	4841.3	3962.5
915.675	1814.6951	4851.5	3974.85
915.8151	1816.3664	4842.3	3961.7
915.9553	1818.0369	4833	3957.1
916.0954	1819.7067	4825.45	3947.2
916.2355	1821.3757	4801.05	3920.35
916.3755	1823.044	4806.55	3930.95
916.5156	1824.7115	4807.85	3931.45
916.6556	1826.3783	4786.05	3909.7
916.7956	1828.0443	4769.35	3893.75
916.9356	1829.7096	4760.2	3880.4
917.0756	1831.3741	4759.5	3879.8
917.2155	1833.0379	4744.4	3866.85
917.3555	1834.701	4733.2	3854.5
917.4954	1836.3633	4703.7	3825.6
917.6353	1838.0248	4702.25	3823.05
917.7751	1839.6856	4696.95	3820.35
917.915	1841.3457	4702.45	3826.8
918.0548	1843.005	4699.05	3821.7
918.1946	1844.6636	4685.85	3809.2
918.3344	1846.3214	4673.2	3795.25
918.4742	1847.9785	4671.75	3796.6
918.6139	1849.6349	4655.45	3775.8
918.7537	1851.2904	4657.35	3771.15
918.8934	1852.9453	4643.2	3767.1
919.0331	1854.5994	4607.2	3726.95
919.1727	1856.2528	4613.3	3731
919.3124	1857.9054	4597.4	3720.65
919.452	1859.5572	4619.15	3743.7
919.5916	1861.2083	4604.8	3726.7
919.7312	1862.8587	4581.85	3703.75
919.8708	1864.5084	4591.7	3711.6
920.0103	1866.1572	4583.85	3707.9
920.1498	1867.8054	4552.6	3674.4
920.2893	1869.4528	4567.3	3690.3
920.4288	1871.0994	4542.75	3663.85
920.5683	1872.7453	4560.4	3682.3
920.7077	1874.3905	4539.55	3654.8
920.8471	1876.0349	4500.1	3621.25
920.9865	1877.6786	4525.9	3649.4
921.1259	1879.3215	4506.35	3629
921.2653	1880.9637	4509.4	3631.05
921.4046	1882.6051	4508.85	3631.9
921.5439	1884.2458	4486	3608.1
921.6832	1885.8858	4478.65	3602.25
921.8225	1887.525	4479.6	3598.85
921.9617	1889.1634	4455	3576.7
922.101	1890.8011	4438.7	3559.55
922.2402	1892.4381	4448.25	3572.2
922.3794	1894.0743	4429.05	3552.9
922.5185	1895.7098	4410.05	3533.8
922.6577	1897.3446	4410.35	3532.85
922.7968	1898.9786	4399.8	3516.35
922.9359	1900.6118	4390.25	3514.2
923.075	1902.2443	4370.4	3490.6
923.214	1903.8761	4375.15	3497.6
923.3531	1905.5071	4357.8	3480.35
923.4921	1907.1374	4358	3480.15
923.6311	1908.7669	4339.85	3461.8
923.77	1910.3957	4332.45	3452.9
923.909	1912.0237	4311.85	3435.05
924.0479	1913.651	4311.65	3433.35
924.1868	1915.2776	4305	3428.15
924.3257	1916.9034	4307.35	3431.3
924.4646	1918.5285	4273.55	3397.2
924.6034	1920.1528	4263.15	3385.35
924.7422	1921.7764	4256.45	3379.4
924.881	1923.3992	4245.8	3370.3
925.0198	1925.0213	4228	3350.45
925.1586	1926.6427	4214.6	3338.2
925.2973	1928.2633	4373.05	3281.25
925.436	1929.8832	4232.55	3351.45
925.5747	1931.5023	4193.5	3316.5
925.7134	1933.1207	4192.55	3314.05
925.852	1934.7383	4161.25	3283.6
925.9906	1936.3552	4152.15	3274.9
926.1292	1937.9714	4143.9	3265.85
926.2678	1939.5868	4150.65	3271.4
926.4064	1941.2015	4119.7	3242.5
926.5449	1942.8154	4106.75	3228.4
926.6834	1944.4286	4084	3205.7
926.8219	1946.041	4108.4	3207.5
926.9604	1947.6528	4071.1	3189.7
927.0988	1949.2637	4065.55	3188.35
927.2372	1950.8739	4060.65	3185
927.3756	1952.4834	4045.55	3167.35
927.514	1954.0921	4046.9	3168.5
927.6523	1955.7001	4044.55	3166
927.7907	1957.3074	4042.5	3168.6
927.929	1958.9139	4013.75	3137.15
928.0673	1960.5197	4006.25	3128.1
928.2055	1962.1247	3998.5	3121.6
928.3438	1963.729	3974.35	3099
928.482	1965.3325	3991.4	3088.35
928.6202	1966.9353	3964.95	3089.6
928.7584	1968.5374	3967.2	3087.75
928.8965	1970.1387	3947.2	3071.35
929.0346	1971.7393	3945.95	3068.7
929.1727	1973.3392	3935.55	3060.1
929.3108	1974.9383	3930.05	3054.1
929.4489	1976.5366	3911.7	3034.5
929.5869	1978.1342	3915.9	3038
929.7249	1979.7311	3921.8	3043.2
929.8629	1981.3273	3884.55	3007.45
930.0009	1982.9227	3889.45	3011.65
930.1388	1984.5173	3870.35	2992.7
930.2767	1986.1112	3874.75	2998.1
930.4146	1987.7044	3864.4	2988.75
930.5525	1989.2968	3854.2	2977.4
930.6904	1990.8885	3845.35	2963.05
930.8282	1992.4795	3836.5	2958.6
930.966	1994.0697	3812.75	2935.95
931.1038	1995.6592	3824.2	2947.25
931.2415	1997.2479	3815.3	2939.15
931.3793	1998.8359	3819.65	2943.5
931.517	2000.4232	3806.75	2933.15
931.6547	2002.0097	3797.9	2923.85
931.7923	2003.5955	3787.85	2910.7
931.93	2005.1805	3772.3	2894.4
932.0676	2006.7648	3777.45	2901.9
932.2052	2008.3484	3765.15	2889.3
932.3427	2009.9312	3788.55	2911.35
932.4803	2011.5133	3749.6	2875.05
932.6178	2013.0946	3750.6	2874.45
932.7553	2014.6752	3734.25	2859.1
932.8928	2016.2551	3724.35	2848.1
933.0302	2017.8342	3717.45	2841.6
933.1676	2019.4126	3716.6	2841.7
933.305	2020.9902	3696.55	2820.6
933.4424	2022.5672	3687.9	2810.4
933.5798	2024.1433	3699.6	2819.35
933.7171	2025.7188	3692.4	2817.85
933.8544	2027.2935	3674.7	2798.5
933.9917	2028.8674	3677.4	2801.25
934.129	2030.4406	3659.05	2784
934.2662	2032.0131	3647.05	2771
934.4034	2033.5849	3648.25	2768.1
934.5406	2035.1559	3644.35	2770.2
934.6778	2036.7261	3630.15	2753.95
934.8149	2038.2957	3621.45	2744.05
934.952	2039.8645	3627.3	2752
935.0891	2041.4325	3629.95	2750.65
935.2262	2042.9998	3625.05	2750.55
935.3632	2044.5664	3617.9	2740.35
935.5002	2046.1323	3610.75	2734.7
935.6372	2047.6974	3600.15	2723.7
935.7742	2049.2617	3585.75	2710.6
935.9111	2050.8254	3597.8	2717.95
936.048	2052.3883	3608.1	2731
936.1849	2053.9504	3590.05	2713.65
936.3218	2055.5118	3584.45	2709.25
936.4586	2057.0725	3568.65	2688.35
936.5955	2058.6325	3584.95	2709.85
936.7323	2060.1917	3570.45	2693.9
936.869	2061.7502	3559.45	2680.35
937.0058	2063.3079	3549.5	2672.6
937.1425	2064.8649	3533.5	2652.75
937.2792	2066.4212	3531	2653.9
937.4159	2067.9767	3532.7	2657.6
937.5525	2069.5315	3534	2657.85
937.6891	2071.0856	3527.05	2651.7
937.8257	2072.6389	3521.45	2644.25
937.9623	2074.1915	3508.35	2634.6
938.0989	2075.7433	3493.1	2616.45
938.2354	2077.2945	3497.8	2622.5
938.3719	2078.8448	3481.35	2605.65
938.5084	2080.3945	3479.4	2603.25
938.6448	2081.9434	3487.25	2611.15
938.7812	2083.4916	3461.65	2585.05
938.9176	2085.039	3450.55	2574.65
939.054	2086.5857	3460.5	2584.05
939.1903	2088.1317	3465.8	2589.8
939.3267	2089.677	3452.9	2575.1
939.463	2091.2215	3439.35	2563.45
939.5992	2092.7652	3432.3	2553.8
939.7355	2094.3083	3442.3	2565.95
939.8717	2095.8506	3435.45	2560.35
940.0079	2097.3921	3435.7	2559.7
940.1441	2098.933	3424.45	2546.7
940.2802	2100.4731	3409.65	2532.3
940.4163	2102.0124	3428.15	2533.55
940.5524	2103.5511	3408.1	2531.45
940.6885	2105.089	3406.4	2530.55
940.8245	2106.6261	3388.55	2513.6
940.9606	2108.1626	3405.35	2528.4
941.0965	2109.6983	3418.8	2514.9
941.2325	2111.2332	3390.75	2514.55
941.3684	2112.7675	3385.3	2506.95
941.5044	2114.301	3380.2	2500.25
941.6403	2115.8337	3400.25	2523.6
941.7761	2117.3657	3398.95	2523.75
941.912	2118.897	3373.85	2498.65
942.0478	2120.4276	3370.95	2488.25
942.1835	2121.9575	3363.55	2488.3
942.3193	2123.4866	3360.8	2482.95
942.455	2125.0149	3354.55	2475.8
942.5907	2126.5426	3338.45	2462.3
942.7264	2128.0695	3337	2454.35
942.8621	2129.5956	3339.4	2464.55
942.9977	2131.1211	3340.3	2460.5
943.1333	2132.6458	3332.55	2458
943.2689	2134.1698	3317.4	2441.8
943.4044	2135.693	3324.55	2447.5
943.54	2137.2155	3320.15	2441.7
943.6755	2138.7373	3321.55	2444.15
943.8109	2140.2584	3294.25	2419.45
943.9464	2141.7787	3303.85	2423.15
944.0818	2143.2983	3284.55	2410.7
944.2172	2144.8171	3270.15	2395.25
944.3526	2146.3353	3260.95	2384.05
944.4879	2147.8527	3248	2371.2
944.6232	2149.3693	3257.5	2381.15
944.7585	2150.8853	3237.35	2360.7
944.8938	2152.4005	3225.3	2348.7
945.029	2153.9149	3231.1	2354.05
945.1642	2155.4287	3231.6	2354.45
945.2994	2156.9417	3220.65	2345.7
945.4346	2158.454	3227.5	2348.35
945.5697	2159.9655	3209.75	2334.05
945.7048	2161.4764	3213.35	2337.3
945.8399	2162.9865	3208.65	2331.4
945.9749	2164.4958	3201.45	2323.75
946.1099	2166.0045	3192.55	2312
946.2449	2167.5124	3176.7	2300.2
946.3799	2169.0195	3188.3	2315.85
946.5148	2170.526	3187.45	2312.15
946.6498	2172.0317	3175.4	2301.35
946.7846	2173.5367	3175.05	2297.7
946.9195	2175.0409	3161.7	2284.65
947.0543	2176.5445	3165.6	2291.75
947.1891	2178.0473	3151.95	2276
947.3239	2179.5494	3147.45	2268.95
947.4587	2181.0507	3131.4	2255.2
947.5934	2182.5513	3121.55	2244.65
947.7281	2184.0512	3127.75	2251.95
947.8628	2185.5504	3107.7	2232.3
947.9974	2187.0488	3114.55	2238.95
948.132	2188.5465	3100.8	2225.1
948.2666	2190.0435	3097.5	2220.4
948.4012	2191.5397	3093.85	2217.9
948.5357	2193.0353	3091.3	2214.7
948.6702	2194.5301	3083.85	2208.05
948.8047	2196.0241	3073.65	2198.15
948.9392	2197.5175	3065.8	2187.8
949.0736	2199.0101	3067.25	2188.45
949.208	2200.502	3047.3	2173.35
949.3424	2201.9931	3037.2	2160.7
949.4767	2203.4835	3030	2152.3
949.611	2204.9733	3049.35	2165.9
949.7453	2206.4622	3036.15	2161.8
949.8796	2207.9505	3018.35	2138.7
950.0138	2209.438	3011	2134.7
950.148	2210.9248	3002.05	2126.4
950.2822	2212.4109	2999.85	2124.7
950.4164	2213.8962	2998.8	2119
950.5505	2215.3809	2991.05	2113.1
950.6846	2216.8648	2981.9	2105.1
950.8186	2218.3479	2975.7	2095.85
950.9527	2219.8304	2971.35	2094.55
951.0867	2221.3121	2966.75	2090.2
951.2207	2222.7931	2951.9	2074.25
951.3546	2224.2733	2941.25	2065
951.4886	2225.7529	2949.8	2071.95
951.6225	2227.2317	2927.15	2046.7
951.7563	2228.7098	2922.35	2046.5
951.8902	2230.1872	2914.95	2039.2
952.024	2231.6638	2911.5	2036.35
952.1578	2233.1397	2908.45	2029.1
952.2916	2234.6149	2906.3	2030.5
952.4253	2236.0894	2894.75	2017.55
952.559	2237.5632	2906.55	2020.15
952.6927	2239.0362	2876.75	2000.7
952.8263	2240.5085	2869.15	1994.05
952.9599	2241.9801	2876.2	1999.7
953.0935	2243.4509	2852.85	1977.4
953.2271	2244.921	2845.05	1968.7
953.3606	2246.3904	2857.8	1981.55
953.4941	2247.8591	2852.8	1978.15
953.6276	2249.3271	2837	1961.65
953.7611	2250.7943	2838.65	1959.95
953.8945	2252.2608	2834.4	1958.25
954.0279	2253.7266	2817.45	1941.1
954.1612	2255.1917	2818.55	1943.45
954.2946	2256.656	2800.4	1923.15
954.4279	2258.1197	2784.25	1907.7
954.5612	2259.5826	2796.35	1920.55
954.6944	2261.0447	2799.7	1922.5
954.8276	2262.5062	2793.9	1915.95
954.9608	2263.9669	2782.8	1906.25
955.094	2265.4269	2771.65	1896.4
955.2271	2266.8862	2769.5	1894.2
955.3602	2268.3448	2762.1	1883.85
955.4933	2269.8026	2771.6	1894.1
955.6264	2271.2598	2754.55	1878.8
955.7594	2272.7162	2760.3	1884.3
955.8924	2274.1719	2748.95	1872.65
956.0253	2275.6268	2740.3	1863.3
956.1583	2277.0811	2742.45	1866.5
956.2912	2278.5346	2733.75	1859.35
956.4241	2279.9874	2718	1841.45
956.5569	2281.4395	2719.8	1846
956.6897	2282.8908	2715.6	1833.05
956.8225	2284.3414	2716.2	1838.4
956.9553	2285.7914	2703.9	1828.6
957.088	2287.2406	2711.9	1832.85
957.2207	2288.689	2680.95	1804.35
957.3534	2290.1368	2691.95	1812.5
957.486	2291.5838	2690.9	1812.6
957.6186	2293.0302	2686.05	1808.35
957.7512	2294.4758	2670.2	1793.8
957.8838	2295.9206	2666.6	1788.75
958.0163	2297.3648	2661.45	1785.15
958.1488	2298.8082	2656.05	1778.05
958.2813	2300.251	2646.45	1770.9
958.4137	2301.693	2646.3	1766.1
958.5461	2303.1343	2646.65	1767.95
958.6785	2304.5748	2628.85	1750.85
958.8108	2306.0147	2633.25	1755
958.9432	2307.4538	2625.35	1747.15
959.0754	2308.8922	2612.75	1738.2
959.2077	2310.3299	2619.65	1743.7
959.3399	2311.7669	2605.8	1732.15
959.4721	2313.2031	2596.9	1722.25
959.6043	2314.6387	2602.1	1725.65
959.7365	2316.0735	2590.1	1713
959.8686	2317.5076	2587.85	1711.1
960.0006	2318.941	2582.95	1708.35
960.1327	2320.3737	2583.5	1707.45
960.2647	2321.8056	2585.95	1707.9
960.3967	2323.2369	2578.25	1701.25
960.5287	2324.6674	2569.65	1693.15
960.6606	2326.0972	2564.2	1685.8
960.7925	2327.5263	2567.5	1690.55
960.9244	2328.9547	2551.8	1675.8
961.0562	2330.3823	2538.05	1660.55
961.1881	2331.8092	2548.3	1669.45
961.3198	2333.2355	2536.6	1660.25
961.4516	2334.661	2523.5	1646.3
961.5833	2336.0858	2524.65	1646.75
961.715	2337.5098	2512.5	1635.65
961.8467	2338.9332	2523.7	1646
961.9783	2340.3558	2500.15	1622.15
962.1099	2341.7778	2498.55	1620.25
962.2415	2343.199	2502.85	1625.9
962.373	2344.6195	2491.35	1616.5
962.5045	2346.0393	2482.9	1605.35
962.636	2347.4583	2487.5	1606.9
962.7675	2348.8767	2471.55	1593.4
962.8989	2350.2943	2466.05	1587.75
963.0303	2351.7113	2459.95	1581.55
963.1617	2353.1275	2457.95	1581.3
963.293	2354.543	2469.15	1582.2
963.4243	2355.9578	2459.6	1582.5
963.5556	2357.3718	2436	1560.2
963.6868	2358.7852	2443.05	1562.3
963.818	2360.1978	2428.35	1548.9
963.9492	2361.6098	2424.25	1549.8
964.0803	2363.021	2398	1517.45
964.2114	2364.4315	2409.45	1533.3
964.3425	2365.8413	2419.15	1540.95
964.4736	2367.2504	2403.5	1528.6
964.6046	2368.6587	2402.4	1526.55
964.7356	2370.0664	2391.05	1515.45
964.8666	2371.4733	2381.9	1505.5
964.9975	2372.8795	2379.9	1502.35
965.1284	2374.285	2382.4	1505.45
965.2593	2375.6899	2358.9	1482.85
965.3901	2377.0939	2359.85	1481.6
965.5209	2378.4973	2347.6	1469.85
965.6517	2379.9	2343.3	1464.9
965.7825	2381.3019	2342	1465.8
965.9132	2382.7032	2333.45	1456.25
966.0439	2384.1037	2336.4	1462.35
966.1745	2385.5035	2328.85	1452.7
966.3051	2386.9027	2321.4	1444
966.4357	2388.3011	2317.6	1438.55
966.5663	2389.6987	2315	1437.6
966.6968	2391.0957	2314.55	1436.15
966.8273	2392.492	2296.9	1420.6
966.9578	2393.8876	2288.25	1411.2
967.0882	2395.2824	2290	1413.2
967.2186	2396.6765	2272.65	1396.2
967.349	2398.07	2272.75	1394.85
967.4793	2399.4627	2268.45	1391.7
967.6097	2400.8547	2258.4	1380.3
967.7399	2402.246	2252.3	1370.55
967.8702	2403.6366	2244.15	1366.45
968.0004	2405.0265	2241.75	1366.15
968.1306	2406.4156	2238.85	1357.8
968.2607	2407.8041	2233.5	1355.5
968.3909	2409.1918	2235.3	1356.85
968.521	2410.5789	2220.75	1343
968.651	2411.9652	2212	1331.4
968.781	2413.3508	2219.75	1341.1
968.911	2414.7358	2202.85	1324.1
969.041	2416.12	2198.85	1321.45
969.1709	2417.5035	2197.8	1319.6
969.3008	2418.8863	2193.8	1315
969.4307	2420.2684	2181.8	1305.1
969.5606	2421.6497	2172.15	1293.4
969.6904	2423.0304	2163.15	1287.4
969.8201	2424.4104	2162.9	1284.05
969.9499	2425.7896	2170.4	1291.05
970.0796	2427.1682	2159.6	1282.85
970.2093	2428.546	2169.2	1290.4
970.3389	2429.9232	2163.45	1284.15
970.4685	2431.2996	2164	1286.2
970.5981	2432.6753	2143.15	1267.9
970.7277	2434.0503	2148.55	1271.55
970.8572	2435.4246	2132.6	1255.05
970.9867	2436.7982	2135.05	1256
971.1161	2438.1711	2127.4	1252.25
971.2456	2439.5433	2119.5	1239.55
971.375	2440.9148	2121.55	1239.75
971.5043	2442.2856	2119.9	1241.15
971.6336	2443.6557	2106	1225.7
971.7629	2445.025	2097.55	1219.5
971.8922	2446.3937	2102.85	1225.05
972.0214	2447.7617	2094.85	1218.3
972.1506	2449.1289	2103.75	1227
972.2798	2450.4955	2097.95	1215.85
972.4089	2451.8613	2088.3	1211.65
972.538	2453.2265	2085.7	1207.1
972.6671	2454.5909	2084.5	1207.55
972.7961	2455.9546	2079.2	1202.4
972.9251	2457.3177	2075.7	1196.8
973.0541	2458.68	2067.25	1189.15
973.1831	2460.0416	2072.2	1194.65
973.312	2461.4025	2060.15	1183.65
973.4408	2462.7627	2073.4	1184.4
973.5697	2464.1222	2063.55	1187.25
973.6985	2465.4811	2059.05	1181.45
973.8273	2466.8392	2045.4	1165.45
973.956	2468.1966	2045.2	1165.5
974.0847	2469.5533	2053.6	1174.3
974.2134	2470.9093	2042.4	1165.55
974.3421	2472.2645	2040.95	1163.65
974.4707	2473.6191	2039.15	1162.75
974.5993	2474.973	2015.3	1137.65
974.7278	2476.3262	2026.45	1147.85
974.8563	2477.6787	2027.3	1150.55
974.9848	2479.0305	2008.75	1133.6
975.1132	2480.3816	2006.85	1127.25
975.2417	2481.7319	1998.55	1123.65
975.37	2483.0816	2006.6	1129.05
975.4984	2484.4306	2000.2	1123.3
975.6267	2485.7789	1991.25	1115.65
975.755	2487.1264	1992.05	1113.8
975.8833	2488.4733	1980.05	1102.8
976.0115	2489.8195	1984.1	1099.6
976.1397	2491.165	1979.7	1098.95
976.2678	2492.5097	1973	1093.8
976.3959	2493.8538	1966.45	1090.5
976.524	2495.1972	1957.6	1078.15
976.6521	2496.5398	1956.45	1077.75
976.7801	2497.8818	1952.55	1072.05
976.9081	2499.2231	1944.55	1067.55
977.036	2500.5637	1941.5	1061.4
977.164	2501.9035	1940.75	1063.25
977.2918	2503.2427	1941.05	1061.4
977.4197	2504.5812	1944.35	1067.35
977.5475	2505.919	1930.5	1050.2
977.6753	2507.256	1926.1	1049.6
977.8031	2508.5924	1916.75	1037.6
977.9308	2509.9281	1926.4	1045.2
978.0585	2511.2631	1926.7	1048.55
978.1861	2512.5974	1914.55	1038.3
978.3137	2513.9309	1903.65	1026.15
978.4413	2515.2638	1928.5	1022.9
978.5689	2516.596	1903.55	1027.3
978.6964	2517.9275	1897.5	1019.05
978.8239	2519.2583	1893.5	1014.35
978.9513	2520.5884	1887	1007.3
979.0788	2521.9178	1880.7	1003.5
979.2062	2523.2465	1882.15	1007.1
979.3335	2524.5745	1878.85	1001.55
979.4608	2525.9018	1872.25	993.9
979.5881	2527.2284	1874.25	999.4
979.7154	2528.5543	1869.6	993.3
979.8426	2529.8796	1857.7	982.75
979.9698	2531.2041	1847.8	967.9
980.0969	2532.5279	1854.55	977.75
980.224	2533.851	1851.55	974.45
980.3511	2535.1735	1844.75	968.45
980.4781	2536.4952	1843.75	967.35
980.6052	2537.8163	1840.4	962.9
980.7321	2539.1366	1834.35	959.85
980.8591	2540.4562	1835.5	958
980.986	2541.7752	1824.75	946.3
981.1129	2543.0935	1841.55	963.45
981.2397	2544.411	1825.95	947
981.3665	2545.7279	1822.25	944.65
981.4933	2547.0441	1816.45	941.55
981.62	2548.3596	1821.2	941.85
981.7467	2549.6744	1821.95	944.6
981.8734	2550.9885	1822.35	937.55
982.0001	2552.3019	1808.8	932.3
982.1267	2553.6146	1811.25	934.6
982.2532	2554.9266	1810.45	930.95
982.3798	2556.2379	1802.55	923.05
982.5063	2557.5485	1799.9	924.9
982.6327	2558.8585	1799.8	915.75
982.7592	2560.1677	1806.2	927.25
982.8856	2561.4762	1793.2	917.8
983.0119	2562.7841	1798	917.8
983.1383	2564.0913	1788.15	911.9
983.2646	2565.3977	1786.2	908.7
983.3908	2566.7035	1778.15	900.25
983.517	2568.0086	1784.1	904.65
983.6432	2569.313	1781.75	905.8
983.7694	2570.6167	1785.45	905
983.8955	2571.9197	1780.25	903.05
984.0216	2573.222	1780.05	902.55
984.1476	2574.5236	1775.35	898.05
984.2737	2575.8246	1762.3	881.7
984.3996	2577.1248	1770.5	890.9
984.5256	2578.4244	1766.75	889.65
984.6515	2579.7232	1756.7	879.05
984.7774	2581.0214	1776.8	867
984.9032	2582.3189	1753.3	879.25
985.029	2583.6157	1762.65	881.65
985.1548	2584.9118	1752.05	874.15
985.2806	2586.2072	1748.2	870.95
985.4063	2587.5019	1741.75	866.05
985.5319	2588.7959	1738.45	860.85
985.6576	2590.0893	1739.65	862.65
985.7832	2591.3819	1738.35	861.45
985.9087	2592.6739	1739.45	863.85
986.0343	2593.9652	1728.1	849.95
986.1597	2595.2557	1724.7	845.9
986.2852	2596.5456	1726.5	847.95
986.4106	2597.8348	1719.3	844.3
986.536	2599.1234	1710.45	833.4
986.6614	2600.4112	1714.65	836.75
986.7867	2601.6983	1711.05	828.6
986.912	2602.9848	1703.6	827.15
987.0372	2604.2705	1714.2	830.25
987.1624	2605.5556	1693.95	816.85
987.2876	2606.84	1693.8	816.3
987.4128	2608.1237	1695.5	816.05
987.5379	2609.4067	1684.45	807.8
987.6629	2610.689	1694.65	809.9
987.788	2611.9707	1689.5	810.4
987.913	2613.2516	1679.9	798.3
988.0379	2614.5319	1664.9	787.6
988.1629	2615.8115	1662.2	783.8
988.2878	2617.0903	1666.2	787.35
988.4126	2618.3685	1664.45	786.7
988.5375	2619.6461	1660.3	783.7
988.6622	2620.9229	1656.7	781.35
988.787	2622.199	1645.9	767.4
988.9117	2623.4745	1650.05	773.35
989.0364	2624.7493	1645.4	767.15
989.161	2626.0234	1645.9	769.8
989.2857	2627.2968	1639.55	764.75
989.4102	2628.5695	1633.8	755.85
989.5348	2629.8415	1637.55	760.5
989.6593	2631.1128	1633.3	755.15
989.7837	2632.3835	1619.6	743
989.9082	2633.6535	1619.4	742.05
990.0326	2634.9228	1618.5	742.55
990.1569	2636.1914	1618.6	742.8
990.2812	2637.4593	1616.15	731.75
990.4055	2638.7265	1605.95	728.45
990.5298	2639.9931	1605.7	729.55
990.654	2641.259	1606.6	726.45
990.7782	2642.5242	1603.1	726.45
990.9023	2643.7887	1597.3	719.65
991.0264	2645.0525	1597.85	720.15
991.1505	2646.3156	1592.65	715.65
991.2745	2647.5781	1589.35	712.65
991.3985	2648.8398	1585.5	709.35
991.5225	2650.1009	1590.35	707.25
991.6464	2651.3613	1580.55	703.25
991.7703	2652.6211	1582.25	707.05
991.8942	2653.8801	1575	698.75
992.018	2655.1385	1569.85	690.8
992.1418	2656.3961	1567.6	691.9
992.2655	2657.6531	1573.05	696.2
992.3892	2658.9094	1566.85	687.95
992.5129	2660.1651	1573.15	697.75
992.6366	2661.42	1566.6	690.95
992.7602	2662.6743	1565.15	688.25
992.8837	2663.9279	1564.8	688.65
993.0073	2665.1808	1555.6	676.65
993.1307	2666.433	1561.15	683.6
993.2542	2667.6846	1550.35	672.8
993.3776	2668.9354	1552.2	672.15
993.501	2670.1856	1551.55	672.9
993.6244	2671.4351	1549.8	672.95
993.7477	2672.6839	1545.05	665.75
993.8709	2673.9321	1544.4	668
993.9942	2675.1795	1538.9	660.7
994.1174	2676.4263	1534.2	658.65
994.2405	2677.6724	1529.65	653.75
994.3637	2678.9179	1529.35	651.45
994.4868	2680.1626	1530.15	654.3
994.6098	2681.4067	1529.5	652.1
994.7328	2682.6501	1527.75	651.25
994.8558	2683.8928	1523.65	648.7
994.9788	2685.1348	1519.55	642.55
995.1017	2686.3761	1514.15	638.4
995.2245	2687.6168	1510.05	635.3
995.3474	2688.8568	1509.05	633.3
995.4702	2690.0961	1506.05	630.85
995.5929	2691.3348	1505.9	630.5
995.7156	2692.5727	1497.65	619.7
995.8383	2693.81	1490.9	615.4
995.961	2695.0466	1489.6	614.3
996.0836	2696.2826	1497.3	619.35
996.2062	2697.5178	1512.7	615
996.3287	2698.7524	1497.25	622.55
996.4512	2699.9863	1489.05	610.4
996.5737	2701.2195	1487.3	611.5
996.6961	2702.452	1487.5	610.3
996.8185	2703.6839	1489.85	612.2
996.9408	2704.9151	1480.9	603.35
997.0631	2706.1456	1479.1	601.6
997.1854	2707.3755	1479.45	602.7
997.3077	2708.6046	1480.3	602.1
997.4299	2709.8331	1472.7	595.95
997.552	2711.0609	1474.95	598.45
997.6742	2712.2881	1468.25	591.3
997.7963	2713.5145	1470.05	589.7
997.9183	2714.7403	1460.15	585.15
998.0403	2715.9654	1462.05	585.2
998.1623	2717.1899	1474.45	582.55
998.2842	2718.4136	1453.5	576.85
998.4062	2719.6367	1456.2	579.3
998.528	2720.8591	1466.7	581.75
998.6498	2722.0809	1448.6	572.95
998.7716	2723.3019	1462.9	584.45
998.8934	2724.5223	1451.8	574.15
999.0151	2725.7421	1441.85	564
999.1368	2726.9611	1436.8	558
999.2584	2728.1795	1437.5	554.9
999.38	2729.3972	1436.8	560.35
999.5016	2730.6142	1442.3	553.55
999.6231	2731.8306	1436.8	560.65
999.7446	2733.0462	1423.95	545.05
999.8661	2734.2612	1423.35	541.8
999.9875	2735.4756	1420.85	543.05
1000.1089	2736.6892	1416.9	539.6
1000.2302	2737.9022	1411.45	534.5
1000.3515	2739.1145	1413.2	536.65
1000.4728	2740.3262	1416.8	534.35
1000.594	2741.5372	1408.4	534
1000.7152	2742.7475	1405.8	528.4
1000.8363	2743.9571	1405.9	527.35
1000.9575	2745.1661	1402.5	522.55
1001.0785	2746.3744	1395.9	519.6
1001.1996	2747.582	1389.5	513.3
1001.3206	2748.7889	1397.45	517.7
1001.4415	2749.9952	1390.25	513.1
1001.5625	2751.2008	1390.4	512.3
1001.6833	2752.4057	1392.65	514.85
1001.8042	2753.61	1382.2	503.6
1001.925	2754.8136	1379.7	499.55
1002.0458	2756.0165	1374.7	498.5
1002.1665	2757.2188	1377.35	501.75
1002.2872	2758.4204	1373.5	497.15
1002.4078	2759.6213	1375.7	497.15
1002.5285	2760.8215	1370.5	491.25
1002.649	2762.0211	1373.95	495.55
1002.7696	2763.22	1370.1	489.25
1002.8901	2764.4182	1366.95	488.85
1003.0106	2765.6158	1364.6	487.8
1003.131	2766.8127	1358.3	481.4
1003.2514	2768.009	1359.1	483.35
1003.3717	2769.2045	1352.3	475.8
1003.492	2770.3994	1357.9	477.6
1003.6123	2771.5936	1357.1	479.35
1003.7325	2772.7872	1346.3	468.7
1003.8527	2773.9801	1345.1	467.55
1003.9729	2775.1723	1360.15	468.55
1004.093	2776.3639	1345.65	471.1
1004.2131	2777.5548	1339.25	459.7
1004.3331	2778.745	1346.05	468.7
1004.4531	2779.9346	1332.65	457.3
1004.5731	2781.1235	1338.6	462.45
1004.693	2782.3117	1335.4	458.5
1004.8129	2783.4992	1331.05	455.5
1004.9328	2784.6861	1329.25	453.8
1005.0526	2785.8723	1326.5	446.6
1005.1723	2787.0579	1330.4	453.35
1005.2921	2788.2428	1324.15	444.9
1005.4118	2789.427	1327.25	450.55
1005.5314	2790.6106	1317	440.55
1005.651	2791.7935	1320.65	445.8
1005.7706	2792.9757	1310.4	436.45
1005.8902	2794.1573	1314.55	436.35
1006.0097	2795.3382	1314.05	437.4
1006.1291	2796.5184	1307.3	431.3
1006.2485	2797.698	1309.75	430.95
1006.3679	2798.8769	1307.85	430.95
1006.4873	2800.0551	1310.15	433
1006.6066	2801.2327	1308.05	427.3
1006.7258	2802.4096	1302.4	426.05
1006.8451	2803.5859	1298.8	423.45
1006.9642	2804.7615	1296.85	419.45
1007.0834	2805.9364	1291.25	415.8
1007.2025	2807.1106	1296.4	419.8
1007.3216	2808.2842	1299.95	422.9
1007.4406	2809.4572	1293.15	416.85
1007.5596	2810.6294	1298.85	421.05
1007.6785	2811.801	1297.55	422.75
1007.7975	2812.972	1291.8	415.7
1007.9163	2814.1423	1291.5	415
1008.0352	2815.3119	1291.5	415.75
1008.154	2816.4808	1296.5	423.2
1008.2727	2817.6491	1292.85	414.75
1008.3914	2818.8167	1291.85	415.6
1008.5101	2819.9837	1298.35	418.1
1008.6288	2821.15	1305.1	428.8
1008.7474	2822.3157	1296.55	421.5
1008.8659	2823.4807	1308.8	432.9
1008.9844	2824.645	1311.7	433.75
1009.1029	2825.8086	1309.9	434.85
1009.2214	2826.9716	1320.35	443.95
1009.3398	2828.134	1322.05	447.2
1009.4581	2829.2957	1327.3	452.35
1009.5764	2830.4567	1332.75	456.95
1009.6947	2831.617	1333.55	456.55
1009.813	2832.7767	1333.8	457.85
1009.9312	2833.9358	1338.7	463.25
1010.0493	2835.0941	1331.45	453.85
1010.1675	2836.2519	1326.55	451.35
1010.2855	2837.4089	1324.3	448.1
1010.4036	2838.5653	1313.75	437.25
1010.5216	2839.7211	1311.4	435.15
1010.6396	2840.8761	1313	435.55
1010.7575	2842.0306	1305.9	430.45
1010.8754	2843.1843	1308.7	432.85
1010.9932	2844.3374	1306	430.65
1011.111	2845.4899	1315.15	438.05
1011.2288	2846.6417	1307.5	431.25
1011.3465	2847.7928	1305.25	429.45
1011.4642	2848.9433	1309.55	434.5
1011.5818	2850.0931	1305.35	428.3
1011.6995	2851.2422	1308.65	430.85
1011.817	2852.3907	1312	433.85
1011.9345	2853.5385	1312.95	436.1
1012.052	2854.6857	1319.45	432.75
1012.1695	2855.8323	1311.45	437.95
1012.2869	2856.9781	1310.7	435.4
1012.4042	2858.1233	1311.45	435.8
1012.5216	2859.2679	1312.35	436.75
1012.6389	2860.4118	1312.7	434.55
1012.7561	2861.555	1326.85	446.05
1012.8733	2862.6976	1320.5	442.25
1012.9905	2863.8395	1310.4	434.85
1013.1076	2864.9808	1312.15	435.6
1013.2247	2866.1214	1320.4	445.4
1013.3417	2867.2614	1310.6	436
1013.4587	2868.4007	1311.8	434.25
1013.5757	2869.5393	1324.3	447.5
1013.6926	2870.6773	1314.15	434.35
1013.8095	2871.8146	1322.45	442.9
1013.9263	2872.9513	1312.9	436.6
1014.0431	2874.0874	1317.6	441.9
1014.1599	2875.2227	1317.45	440.85
1014.2766	2876.3574	1311	435.35
1014.3933	2877.4915	1309.25	435.05
1014.51	2878.6249	1308.8	434.05
1014.6266	2879.7577	1311.1	433
1014.7431	2880.8898	1326.9	440.5
1014.8596	2882.0212	1318.6	442
1014.9761	2883.152	1318.6	439.95
1015.0925	2884.2821	1315.9	440.8
1015.2089	2885.4116	1311.65	437.25
1015.3253	2886.5405	1305.95	429.9
1015.4416	2887.6686	1315.15	435.65
1015.5579	2888.7962	1299.95	423.65
1015.6741	2889.923	1307.4	433.4
1015.7903	2891.0493	1308.65	434.1
1015.9065	2892.1748	1300.6	424.5
1016.0226	2893.2997	1299.75	424.6
1016.1387	2894.424	1291.85	419.1
1016.2547	2895.5476	1303.65	427.45
1016.3707	2896.6706	1295.4	419.85
1016.4866	2897.7929	1299.75	422.5
1016.6025	2898.9145	1295.95	419.3
1016.7184	2900.0355	1296.5	417.45
1016.8342	2901.1559	1292.9	416
1016.95	2902.2756	1294.1	416.6
1017.0658	2903.3946	1289.6	414.65
1017.1815	2904.513	1293.05	416.55
1017.2971	2905.6308	1285.25	409.65
1017.4127	2906.7479	1291.9	415.5
1017.5283	2907.8643	1285.9	409.05
1017.6439	2908.9801	1281.6	405.6
1017.7594	2910.0953	1284.65	408.85
1017.8748	2911.2098	1280.35	400.85
1017.9902	2912.3236	1288.4	404.1
1018.1056	2913.4368	1285.15	407.15
1018.2209	2914.5494	1276.65	401.8
1018.3362	2915.6613	1277.95	397.15
1018.4515	2916.7725	1277.9	399.8
1018.5667	2917.8831	1269.1	389.6
1018.6819	2918.9931	1265.05	387.2
1018.797	2920.1024	1264.1	387.75
1018.9121	2921.211	1262.3	386.35
1019.0271	2922.319	1260.65	385.55
1019.1421	2923.4264	1264.25	390.5
1019.2571	2924.5331	1245.3	369.95
1019.372	2925.6391	1254.9	379
1019.4869	2926.7445	1253.9	378.65
1019.6017	2927.8493	1250.45	373.4
1019.7165	2928.9534	1249.85	371.55
1019.8313	2930.0569	1254.35	375.25
1019.946	2931.1597	1257.8	381.25
1020.0606	2932.2619	1246.65	372.8
1020.1753	2933.3634	1253.25	376.9
1020.2899	2934.4643	1258.1	376.25
1020.4044	2935.5645	1266.7	385.75
1020.5189	2936.6641	1255.75	374.4
1020.6334	2937.763	1245	368.35
1020.7478	2938.8613	1247.05	369.55
1020.8622	2939.959	1246.55	364.65
1020.9765	2941.056	1240.45	364.9
1021.0908	2942.1523	1232.9	355
1021.2051	2943.248	1235.45	359.6
1021.3193	2944.3431	1222.65	347.7
1021.4334	2945.4375	1219.15	341.55
1021.5476	2946.5313	1204.85	329
1021.6617	2947.6244	1199	322.15
1021.7757	2948.7169	1197.1	318.9
1021.8897	2949.8087	1192.8	317.8
1022.0037	2950.8999	1182.7	307.35
1022.1176	2951.9904	1174.9	298.75
1022.2315	2953.0803	1175.45	299.4
1022.3453	2954.1696	1167	289.45
1022.4591	2955.2582	1168.7	292.95
1022.5728	2956.3462	1168.6	291.1
1022.6865	2957.4335	1161.25	284.5
1022.8002	2958.5202	1163.15	284.95
1022.9138	2959.6062	1162.4	285.5
1023.0274	2960.6916	1156.45	280.75
1023.141	2961.7764	1154.25	276.05
1023.2545	2962.8605	1156.9	281.05
1023.3679	2963.9439	1156.35	279.3
1023.4813	2965.0267	1149.4	272.5
1023.5947	2966.1089	1172.65	273
1023.708	2967.1905	1149.4	275.1
1023.8213	2968.2714	1148.05	273.95
1023.9346	2969.3516	1146.45	271.55
1024.0478	2970.4312	1151.85	268.8
1024.1609	2971.5102	1140.05	266.2
1024.274	2972.5885	1144.05	268.6
1024.3871	2973.6662	1143.85	261.6
1024.5002	2974.7432	1139.1	261.55
1024.6132	2975.8196	1142.1	265.55
1024.7261	2976.8954	1137.25	263.45
1024.839	2977.9705	1138.1	263.8
1024.9519	2979.045	1134.2	259.85
1025.0647	2980.1188	1140.4	264.5
1025.1775	2981.192	1130.3	254.55
1025.2902	2982.2645	1135.3	257
1025.4029	2983.3364	1133.05	255.25
1025.5156	2984.4077	1127.4	250.05
1025.6282	2985.4783	1131.1	247.65
1025.7407	2986.5483	1117.45	241.1
1025.8532	2987.6177	1120.55	244.65
1025.9657	2988.6864	1118.5	241.2
1026.0782	2989.7545	1118.65	243.35
1026.1906	2990.8219	1114.55	242.35
1026.3029	2991.8887	1113.45	235.65
1026.4152	2992.9548	1112.75	235.9
1026.5275	2994.0204	1102.85	226.9
1026.6397	2995.0852	1099.2	226.45
1026.7519	2996.1495	1100.7	222.6
1026.864	2997.2131	1098.15	223.05
1026.9761	2998.276	1091.35	215.35
1027.0882	2999.3383	1090.45	214.8
1027.2002	3000.4	1092.95	217.3
1027.3122	3001.4611	1086.1	210
1027.4241	3002.5215	1086.95	210
1027.536	3003.5812	1085.05	209.35
1027.6478	3004.6404	1084.15	207.8
1027.7596	3005.6989	1078.65	201.9
1027.8714	3006.7567	1078.75	200.75
1027.9831	3007.8139	1102.6	205.25
1028.0947	3008.8705	1074.9	200.1
1028.2064	3009.9264	1078.55	198.1
1028.3179	3010.9818	1071.05	195.1
1028.4295	3012.0364	1075.05	197.4
1028.541	3013.0905	1075	198.6
1028.6524	3014.1439	1068.85	191.9
1028.7638	3015.1966	1065.85	189.95
1028.8752	3016.2487	1067.2	190.55
1028.9865	3017.3002	1073.4	190
1029.0978	3018.3511	1064.15	188.95
1029.209	3019.4013	1062.05	185.6
1029.3202	3020.4509	1066.35	191.25
1029.4314	3021.4998	1068.3	191.95
1029.5425	3022.5481	1058.5	183.9
1029.6535	3023.5958	1058.6	183
1029.7645	3024.6428	1063.7	187.2
1029.8755	3025.6892	1058.3	183.55
1029.9864	3026.735	1063.2	186.25
1030.0973	3027.7802	1062	187.15
1030.2082	3028.8247	1059.35	184.2
1030.319	3029.8685	1057.1	180.35
1030.4297	3030.9118	1054.6	176.75
1030.5404	3031.9544	1056.25	179.2
1030.6511	3032.9963	1055.6	179.95
1030.7617	3034.0376	1054.2	179.2
1030.8723	3035.0783	1055.25	176.6
1030.9829	3036.1184	1053.05	176.7
1031.0934	3037.1578	1045.9	171.9
1031.2038	3038.1966	1049.7	174.3
1031.3142	3039.2348	1050.3	175.2
1031.4246	3040.2723	1057	172.5
1031.5349	3041.3092	1048.15	174.25
1031.6452	3042.3455	1046.3	170
1031.7554	3043.3811	1046.2	169.75
1031.8656	3044.4161	1048.2	170.65
1031.9758	3045.4505	1044.2	170
1032.0859	3046.4842	1046.5	173.3
1032.1959	3047.5173	1043.3	171.25
1032.3059	3048.5498	1048.65	173.15
1032.4159	3049.5816	1045.1	168.75
1032.5258	3050.6128	1043.55	165.9
1032.6357	3051.6434	1044.3	167.3
1032.7455	3052.6734	1043.95	167.1
1032.8553	3053.7027	1043.2	166.85
1032.9651	3054.7314	1041.85	167.65
1033.0748	3055.7594	1041.3	165.75
1033.1845	3056.7868	1041.4	164.1
1033.2941	3057.8136	1039.15	163.25
1033.4037	3058.8398	1038.1	164.05
1033.5132	3059.8653	1035.45	158.4
1033.6227	3060.8902	1036.8	161.45
1033.7321	3061.9145	1037.1	161.25
1033.8415	3062.9381	1037.65	162.05
1033.9509	3063.9612	1052.05	159.75
1034.0602	3064.9835	1035.75	159.95
1034.1694	3066.0053	1037.55	159.55
1034.2787	3067.0264	1032.9	158.05
1034.3878	3068.0469	1037.85	160.85
1034.497	3069.0668	1041.25	166.4
1034.6061	3070.086	1031.15	155.8
1034.7151	3071.1046	1037.15	161.45
1034.8241	3072.1226	1033.4	157.95
1034.9331	3073.1399	1031.2	156
1035.042	3074.1567	1028.65	151.7
1035.1508	3075.1727	1025.65	148.8
1035.2597	3076.1882	1027.1	151.4
1035.3684	3077.203	1027.4	151.7
1035.4772	3078.2173	1028.5	150.7
1035.5859	3079.2308	1028.2	147.55
1035.6945	3080.2438	1024	146.15
1035.8031	3081.2561	1022.7	148.2
1035.9117	3082.2678	1020.25	146.45
1036.0202	3083.2789	1022.2	147.95
1036.1286	3084.2893	1018.1	143.15
1036.2371	3085.2991	1020.45	142.8
1036.3454	3086.3083	1023.9	142.35
1036.4538	3087.3169	1017.8	138.9
1036.562	3088.3248	1015.8	137.35
1036.6703	3089.3321	1017.4	139.8
1036.7785	3090.3388	1017.4	141.4
1036.8866	3091.3449	1012.75	137.4
1036.9948	3092.3503	1015.85	139.7
1037.1028	3093.3551	1012.3	139.75
1037.2108	3094.3593	1014.8	142.3
1037.3188	3095.3629	1011.4	137.5
1037.4267	3096.3658	1012.2	135.55
1037.5346	3097.3681	1008.65	132.15
1037.6425	3098.3698	1012.6	134.5
1037.7503	3099.3708	1015.4	132.35
1037.858	3100.3713	1005.4	130.7
1037.9657	3101.3711	1004.4	128.75
1038.0734	3102.3702	1141.25	127.15
1038.181	3103.3688	1008.6	132.95
1038.2886	3104.3667	1002.2	128.55
1038.3961	3105.364	1004.7	129.85
1038.5036	3106.3607	1003.25	124.85
1038.611	3107.3568	1002.3	127
1038.7184	3108.3522	999.9	124.45
1038.8257	3109.347	1002.3	127.8
1038.933	3110.3412	1004.8	127.1
1039.0403	3111.3348	997.05	120.9
1039.1475	3112.3277	1001.1	126.25
1039.2547	3113.32	996.6	121.7
1039.3618	3114.3117	1000.55	125.3
1039.4689	3115.3028	995.75	119.2
1039.5759	3116.2932	998.45	121.5
1039.6829	3117.2831	1003.05	122.05
1039.7898	3118.2723	997.9	122.1
1039.8967	3119.2608	993.4	118.4
1040.0035	3120.2488	994.7	118.85
1040.1103	3121.2361	991.55	115.35
1040.2171	3122.2229	993.05	117.35
1040.3238	3123.209	992.85	116.6
1040.4305	3124.1944	990.25	114
1040.5371	3125.1793	992.45	117.5
1040.6437	3126.1635	988.9	113.3
1040.7502	3127.1471	990.35	115.5
1040.8567	3128.1301	987.75	111.85
1040.9631	3129.1125	987.5	110.65
1041.0695	3130.0942	986.3	109.15
1041.1759	3131.0753	995.05	112.3
1041.2822	3132.0558	990.2	113.55
1041.3884	3133.0357	985.6	110
1041.4946	3134.015	986.7	113.25
1041.6008	3134.9936	983.2	107.25
1041.7069	3135.9716	1004.75	109.25
1041.813	3136.949	982.25	106.15
1041.919	3137.9258	986.5	103.2
1042.025	3138.902	986.85	107
1042.1309	3139.8775	981.1	107.3
1042.2368	3140.8524	982.9	109.1
1042.3427	3141.8267	980.95	102.45
1042.4485	3142.8004	979.15	102.85
1042.5542	3143.7735	989.9	110.05
1042.6599	3144.7459	980.35	103.75
1042.7656	3145.7178	979.5	103.45
1042.8712	3146.689	975.65	99.5
1042.9768	3147.6596	981.65	103.25
1043.0823	3148.6295	979.55	102.45
1043.1878	3149.5989	975.25	98.7
1043.2932	3150.5676	975	100.4
1043.3986	3151.5357	972.35	98.65
1043.5039	3152.5032	975.35	99.55
1043.6092	3153.4701	971.55	97.55
1043.7145	3154.4364	977.1	99
1043.8197	3155.402	970.7	95.85
1043.9248	3156.367	973.35	95.65
1044.03	3157.3315	1013.85	100.4
1044.135	3158.2952	973.25	97.45
1044.24	3159.2584	972.65	97.75
1044.345	3160.221	969	91.15
1044.4499	3161.1829	970.2	92.8
1044.5548	3162.1442	968.9	94.35
1044.6596	3163.105	967.65	90.95
1044.7644	3164.065	974.1	99.9
1044.8692	3165.0245	968.75	91.15
1044.9739	3165.9834	965	91.25
1045.0785	3166.9416	968	93.1
1045.1831	3167.8993	963.9	88
1045.2877	3168.8563	967.55	91.65
1045.3922	3169.8127	963.95	88.8
1045.4966	3170.7684	963.15	88.1
1045.6011	3171.7236	965.95	90.15
1045.7054	3172.6782	967.45	91.1
1045.8098	3173.6321	965.15	88.05
1045.914	3174.5854	965.8	85
1046.0183	3175.5381	964.7	90.1
1046.1224	3176.4902	960.7	84.25
1046.2266	3177.4417	960.3	85
1046.3307	3178.3926	962.2	86.7
1046.4347	3179.3428	962.05	87.4
1046.5387	3180.2924	958.3	84.45
1046.6427	3181.2415	957.55	81.7
1046.7466	3182.1899	961.8	82.9
1046.8504	3183.1377	955.95	80.45
1046.9542	3184.0848	962.4	82.7
1047.058	3185.0314	957	80.7
1047.1617	3185.9773	958.8	82.5
1047.2654	3186.9227	959.1	82.55
1047.369	3187.8674	956.65	81.25
1047.4726	3188.8115	960.4	80.75
1047.5761	3189.755	955	79.35
1047.6796	3190.6979	955.75	80.05
1047.783	3191.6402	951.7	77.05
1047.8864	3192.5818	953.7	78.35
1047.9898	3193.5229	959.55	78.25
1048.0931	3194.4633	955.05	78.7
1048.1963	3195.4031	953.65	78.4
1048.2995	3196.3423	955.2	80.35
1048.4027	3197.2809	955.8	79.1
1048.5058	3198.2189	953.55	77.2
1048.6089	3199.1563	959.75	79.1
1048.7119	3200.0931	950.15	76
1048.8148	3201.0292	948.3	73.65
1048.9178	3201.9648	951.4	76.2
1049.0206	3202.8997	951.9	72.35
1049.1235	3203.834	951.35	74.4
1049.2262	3204.7677	951.3	76
1049.329	3205.7008	948.7	69.9
1049.4317	3206.6333	947.1	74.6
1049.5343	3207.5652	948.45	73.3
1049.6369	3208.4964	948.85	72.7
1049.7394	3209.4271	943.8	66.05
1049.8419	3210.3571	946.85	70.15
1049.9444	3211.2865	948.95	71.85
1050.0468	3212.2154	946.85	68.1
1050.1491	3213.1436	949.45	69.5
1050.2514	3214.0712	951.35	70.15
1050.3537	3214.9982	945.1	70.45
1050.4559	3215.9246	947.85	72.7
1050.5581	3216.8503	943.9	70.25
1050.6602	3217.7755	944.8	68.35
1050.7623	3218.7001	943.45	65.95
1050.8643	3219.624	945.3	68.1
1050.9663	3220.5473	945.8	69.9
1051.0682	3221.4701	944.65	68.05
1051.1701	3222.3922	944.25	68.9
1051.2719	3223.3137	941.4	67.05
1051.3737	3224.2346	941.15	65.65
1051.4754	3225.1549	939.55	64.8
1051.5771	3226.0746	940.15	65.1
1051.6788	3226.9937	942.05	66.3
1051.7804	3227.9121	941.35	67.2
1051.8819	3228.83	939.45	65.25
1051.9834	3229.7473	940.75	64.9
1052.0849	3230.6639	937.55	61.25
1052.1863	3231.5799	936.7	62.3
1052.2876	3232.4954	940.95	64.8
1052.3889	3233.4102	936.05	60.85
1052.4902	3234.3244	940.5	63.85
1052.5914	3235.238	940.75	66.4
1052.6926	3236.151	958.95	58.6
1052.7937	3237.0634	940.15	66.25
1052.8948	3237.9752	932.2	54.15
1052.9958	3238.8864	936.35	60.35
1053.0968	3239.797	937.15	61.65
1053.1977	3240.7069	936.25	60.2
1053.2986	3241.6163	934.35	57.75
1053.3994	3242.5251	932.8	59.1
1053.5002	3243.4332	934.5	60.4
1053.6009	3244.3408	933.85	58.2
1053.7016	3245.2477	931.45	55.8
1053.8022	3246.154	933.65	56
1053.9028	3247.0598	934.35	55.8
1054.0034	3247.9649	933.1	55.85
1054.1039	3248.8694	932.8	55.85
1054.2043	3249.7733	931.65	56.6
1054.3047	3250.6766	931.55	56.8
1054.4051	3251.5793	931.5	55.45
1054.5054	3252.4814	928.7	52.1
1054.6056	3253.3829	930.55	54.4
1054.7058	3254.2838	930.05	53.05
1054.806	3255.1841	927.6	53.05
1054.9061	3256.0838	927	51.45
1055.0061	3256.9829	930	54.55
1055.1062	3257.8814	931.05	52.8
1055.2061	3258.7792	932.15	53.55
1055.306	3259.6765	927.65	49.1
1055.4059	3260.5731	923.45	49.45
1055.5057	3261.4692	925.6	49.35
1055.6055	3262.3647	925.65	51
1055.7052	3263.2595	923.9	48.95
1055.8049	3264.1538	922.85	45.9
1055.9045	3265.0474	922.75	46.4
1056.0041	3265.9404	922.5	48
1056.1036	3266.8329	922.35	48.95
1056.2031	3267.7247	932.45	46.65
1056.3025	3268.616	918.15	43.55
1056.4019	3269.5066	919.2	43.1
1056.5013	3270.3966	920.65	43.4
1056.6005	3271.286	916.6	41.6
