Software Version:	3.9.2.0
Unit SN:	10000200
Spectrometer SN:	6960
Date:	3/6/2024 10:51:55 AM
Data Line Index:	25
Spectral Points:	2048
Integration time (ms):	125
Averages:	20
Delay (ms):	30
Sequence Number:	1
Processing:	dark subtract
Laser Power (mW):	295
Laser Current (mA):	822
Laser Diode Temp (C):	25
Laser Case Temp (C):	27.7
System Temp (C):	27.5
Spectrometer Temp (C):	24.9
CCD Temp (C):	-0.003
Secondary Temp (C):	20.007
Heatsink Temp (C):	23.181
CCDPCB Temp (C):	36.896
SecondaryPCB Temp (C):	34.362

Wavelength	RamanShift	Raw Counts	Dark Subtracted
787.061	30.1047	1111.65	698.8
787.2016	32.3739	1157.7	746.2
787.3422	34.6426	1194.3	781.65
787.4828	36.9109	1249.4	834.85
787.6235	39.1787	1302.45	883.6
787.7642	41.4461	1359.5	934.8
787.9049	43.7131	1422.75	993.6
788.0456	45.9796	1500.2	1070
788.1863	48.2456	1562	1128
788.3271	50.5112	1633.05	1194.7
788.4679	52.7764	1702.85	1261.35
788.6087	55.0411	1783.8	1339.7
788.7496	57.3054	1863.15	1414.4
788.8904	59.5692	1953.65	1500.95
789.0313	61.8326	2048.45	1591.55
789.1722	64.0955	2161.55	1701.8
789.3132	66.3579	2289.2	1824.4
789.4541	68.6199	2438.05	1971.65
789.5951	70.8815	2669.05	2199.25
789.7361	73.1426	3194.4	2720.4
789.8771	75.4032	4457.05	3976.7
790.0181	77.6634	7756.05	7273.4
790.1592	79.9231	16199.45	15711.15
790.3003	82.1824	53218.95	52722.4
790.4414	84.4412	65535	65019.65
790.5825	86.6995	65535	64996.85
790.7237	88.9574	65535	64971.95
790.8648	91.2148	65535	64960.65
791.006	93.4717	65535	64944.2
791.1472	95.7282	65535	64940.05
791.2885	97.9842	65535	64937.35
791.4297	100.2398	65535	64935.35
791.571	102.4949	65535	64933.6
791.7123	104.7495	65535	64928
791.8536	107.0036	65535	64929.2
791.9949	109.2573	65535	64928.3
792.1363	111.5105	65535	64925
792.2777	113.7632	65535	64925.3
792.4191	116.0154	65535	64912.3
792.5605	118.2672	65535	64919.25
792.7019	120.5185	65535	64918.9
792.8434	122.7693	65535	64918.15
792.9849	125.0197	65535	64913.25
793.1264	127.2696	65535	64912.75
793.2679	129.519	65535	64908.55
793.4094	131.7679	65535	64903.45
793.551	134.0163	65535	64899.55
793.6926	136.2642	65535	64897.55
793.8342	138.5117	65535	64888.45
793.9758	140.7587	65535	64889.7
794.1175	143.0052	65535	64889.55
794.2591	145.2512	65535	64889.8
794.4008	147.4967	65535	64888.35
794.5425	149.7417	65535	64886.45
794.6842	151.9863	65535	64882.55
794.826	154.2304	65535	64881.4
794.9677	156.4739	65535	64871.6
795.1095	158.717	65535	64875.45
795.2513	160.9596	65535	64868.6
795.3931	163.2017	65535	64869.8
795.535	165.4433	65535	64866.65
795.6768	167.6844	65535	64866.15
795.8187	169.925	65535	64862.8
795.9606	172.1651	65535	64856.35
796.1025	174.4047	65535	64856
796.2445	176.6439	65535	64850.95
796.3864	178.8825	65535	64849.15
796.5284	181.1206	65535	64847.7
796.6704	183.3582	65535	64840.2
796.8124	185.5954	65535	64840.25
796.9544	187.832	65535	64839.65
797.0965	190.0681	65535	64836.8
797.2386	192.3037	65535	64831.7
797.3806	194.5388	65535	64827.05
797.5228	196.7734	65535	64824
797.6649	199.0075	65535	64821.75
797.807	201.2411	65535	64818.2
797.9492	203.4742	65535	64819.25
798.0914	205.7068	65535	64819.05
798.2336	207.9389	65535	64814.85
798.3758	210.1704	65535	64813.85
798.518	212.4015	65535	64815.5
798.6603	214.632	65535	64820.7
798.8025	216.862	65535	64827.7
798.9448	219.0915	65535	64833.8
799.0871	221.3205	65535	64832.1
799.2294	223.549	65535	64833.25
799.3718	225.777	65535	64836.65
799.5141	228.0044	65535	64831.45
799.6565	230.2314	65535	64833.45
799.7989	232.4578	65535	64830.1
799.9413	234.6837	65535	64821.7
800.0837	236.909	65535	64824.35
800.2262	239.1339	65535	64795.5
800.3687	241.3582	65535	64811.65
800.5111	243.582	65535	64776.6
800.6536	245.8053	65535	64792.35
800.7961	248.0281	65535	64795.15
800.9387	250.2503	65535	64792.45
801.0812	252.472	65535	64789.95
801.2238	254.6932	65535	64789.05
801.3664	256.9139	65535	64789.1
801.509	259.134	65535	64780.95
801.6516	261.3536	65535	64782.4
801.7942	263.5727	65535	64781.9
801.9369	265.7912	65535	64783.2
802.0795	268.0092	65535	64781.9
802.2222	270.2267	65535	64782.7
802.3649	272.4436	65535	64781.95
802.5076	274.6601	65535	64772.05
802.6504	276.8759	65535	64778.95
802.7931	279.0913	65535	64775.45
802.9359	281.3061	65535	64770.25
803.0787	283.5204	65535	64768.75
803.2215	285.7341	65535	64766.15
803.3643	287.9473	65535	64754.05
803.5071	290.16	65535	64759.85
803.6499	292.3721	65535	64767.3
803.7928	294.5837	65535	64763.9
803.9357	296.7947	65535	64769.05
804.0786	299.0052	65535	64765.05
804.2215	301.2152	65535	64763.15
804.3644	303.4246	65535	64767.35
804.5074	305.6334	65535	64769.35
804.6503	307.8418	65535	64762.45
804.7933	310.0495	65535	64761
804.9363	312.2568	65535	64762.25
805.0793	314.4635	65535	64758.75
805.2223	316.6696	65535	64755.7
805.3653	318.8752	65535	64748.9
805.5084	321.0802	65535	64755.45
805.6514	323.2847	65535	64756.85
805.7945	325.4887	65535	64755.75
805.9376	327.692	65535	64752.4
806.0807	329.8949	65535	64751.4
806.2238	332.0972	65535	64751.35
806.367	334.2989	65535	64745.35
806.5101	336.5001	65535	64747.3
806.6533	338.7007	65535	64748.7
806.7965	340.9008	65535	64744.55
806.9397	343.1003	65535	64742.6
807.0829	345.2992	65535	64745.6
807.2261	347.4976	65535	64742.4
807.3693	349.6955	65535	64736.15
807.5126	351.8927	65535	64735.25
807.6559	354.0895	65535	64724.25
807.7991	356.2856	65535	64733.9
807.9424	358.4812	65535	64737.85
808.0857	360.6763	65535	64735.35
808.2291	362.8707	65535	64730.3
808.3724	365.0646	65535	64729
808.5158	367.258	65535	64728.5
808.6591	369.4508	65535	64726.8
808.8025	371.643	65535	64724.05
808.9459	373.8346	65535	64721.1
809.0893	376.0257	65535	64717.65
809.2327	378.2162	65535	64720
809.3762	380.4062	65535	64716.7
809.5196	382.5956	65535	64714.2
809.6631	384.7844	65535	64715.2
809.8066	386.9726	65535	64719.7
809.9501	389.1603	65535	64722
810.0936	391.3474	65535	64677.3
810.2371	393.5339	65535	64718.05
810.3806	395.7199	65535	64722.15
810.5241	397.9052	65535	64725.6
810.6677	400.09	65535	64722.75
810.8113	402.2743	65535	64726.2
810.9548	404.4579	65535	64726.15
811.0984	406.641	65535	64725.35
811.2421	408.8235	65535	64724.05
811.3857	411.0054	65535	64723.15
811.5293	413.1868	65535	64720.85
811.673	415.3675	65535	64716.35
811.8166	417.5477	65535	64715.6
811.9603	419.7273	65535	64713.4
812.104	421.9064	65535	64706.1
812.2477	424.0848	65535	64705.8
812.3914	426.2627	65535	64708.2
812.5351	428.4399	65535	64705.6
812.6788	430.6166	65535	64705.95
812.8226	432.7928	65535	64703.7
812.9663	434.9683	65535	64703.55
813.1101	437.1432	65535	64698.5
813.2539	439.3176	65535	64698.65
813.3977	441.4914	65535	64701.15
813.5415	443.6645	65535	64696.9
813.6853	445.8371	65535	64697.75
813.8291	448.0091	65535	64700.45
813.973	450.1806	65535	64700.6
814.1168	452.3514	65535	64696.05
814.2607	454.5216	65535	64690.35
814.4046	456.6913	65535	64694.55
814.5485	458.8603	65535	64697.6
814.6924	461.0288	65535	64698.45
814.8363	463.1967	65535	64697.65
814.9802	465.3639	65535	64694.95
815.1241	467.5306	65535	64694.1
815.2681	469.6967	65535	64699.2
815.412	471.8622	65535	64696.45
815.556	474.0271	65535	64696.85
815.7	476.1914	65535	64692.85
815.844	478.3551	65535	64693.7
815.988	480.5182	65535	64693.8
816.132	482.6807	65535	64697.2
816.276	484.8426	65535	64691.75
816.4201	487.0039	65535	64692.95
816.5641	489.1647	65535	64693.2
816.7082	491.3248	65535	64692.45
816.8522	493.4843	65535	64690.25
816.9963	495.6432	65535	64690.4
817.1404	497.8015	65535	64688.25
817.2845	499.9592	65535	64688.65
817.4286	502.1163	65535	64691.6
817.5727	504.2728	65535	64685.65
817.7168	506.4287	65535	64689.65
817.861	508.5839	65535	64685.7
818.0051	510.7386	65535	64691
818.1493	512.8927	65535	64683.35
818.2935	515.0461	65535	64683.4
818.4377	517.199	65535	64683.85
818.5818	519.3512	65535	64685.2
818.726	521.5029	65535	64678
818.8703	523.6539	65535	64681.8
819.0145	525.8043	65535	64682.5
819.1587	527.9541	65535	64680.25
819.303	530.1033	65535	64682.05
819.4472	532.2519	65535	64679.35
819.5915	534.3999	65535	64679.25
819.7357	536.5472	65535	64678.9
819.88	538.694	65535	64679.25
820.0243	540.8401	65535	64677.6
820.1686	542.9856	65535	64674.5
820.3129	545.1305	65535	64675.8
820.4572	547.2748	65535	64673.95
820.6016	549.4185	65535	64672
820.7459	551.5615	65535	64674.45
820.8902	553.704	65535	64677.15
821.0346	555.8458	65535	64675
821.1789	557.987	65535	64675.45
821.3233	560.1276	65535	64672.25
821.4677	562.2675	65535	64676.9
821.6121	564.4069	65535	64673.75
821.7565	566.5456	65535	64677.5
821.9009	568.6837	65535	64675.65
822.0453	570.8212	65535	64674.65
822.1897	572.958	65535	64675.95
822.3342	575.0942	65535	64675.2
822.4786	577.2299	65535	64674.2
822.6231	579.3648	65535	64678
822.7675	581.4992	65535	64676.25
822.912	583.6329	65535	64675.75
823.0565	585.766	65535	64677.5
823.201	587.8985	65535	64674.55
823.3454	590.0304	65535	64648.15
823.4899	592.1616	65535	64670.4
823.6345	594.2922	65535	64670
823.779	596.4222	65535	64670.7
823.9235	598.5515	65535	64669.35
824.068	600.6802	65535	64667.55
824.2126	602.8083	65535	64668.25
824.3571	604.9358	65535	64669.35
824.5017	607.0626	65535	64666.1
824.6462	609.1888	65535	64665.2
824.7908	611.3144	65535	64667.1
824.9354	613.4393	65535	64665.85
825.08	615.5636	65535	64668.25
825.2246	617.6873	65535	64666.9
825.3692	619.8103	65535	64661.5
825.5138	621.9327	65535	64662.75
825.6584	624.0544	65535	64665.15
825.803	626.1756	65535	64667.85
825.9477	628.2961	65535	64665
826.0923	630.4159	65535	64664.25
826.237	632.5351	65535	64661.8
826.3816	634.6537	65535	64662.3
826.5263	636.7716	65535	64659.85
826.6709	638.8889	65535	64662.65
826.8156	641.0056	65535	64659.35
826.9603	643.1216	65535	64660.05
827.105	645.237	65535	64659
827.2497	647.3518	65535	64659.1
827.3944	649.4659	65535	64664.25
827.5391	651.5793	65535	64661.3
827.6838	653.6922	65535	64662.95
827.8285	655.8043	65535	64662.2
827.9733	657.9159	65535	64661.3
828.118	660.0268	65535	64658.4
828.2627	662.137	65535	64660.9
828.4075	664.2466	65535	64657.25
828.5522	666.3556	65535	64660.5
828.697	668.4639	65535	64652.95
828.8418	670.5716	65535	64658.5
828.9865	672.6786	65535	64657.15
829.1313	674.785	65535	64656.85
829.2761	676.8907	65535	64655.65
829.4209	678.9958	65535	64663.65
829.5657	681.1002	65535	64656.9
829.7105	683.204	65535	64652.6
829.8553	685.3072	65535	64653.65
830.0001	687.4097	65535	64653.9
830.1449	689.5115	65535	64652.65
830.2898	691.6127	65535	64656.1
830.4346	693.7132	65535	64657.2
830.5794	695.8131	65535	64647.55
830.7243	697.9123	65535	64654.3
830.8691	700.0109	65535	64653.1
831.014	702.1089	65535	64656.4
831.1588	704.2061	65535	64653.65
831.3037	706.3028	65535	64651.75
831.4486	708.3987	65535	64653.7
831.5935	710.4941	65535	64653.35
831.7383	712.5887	65535	64650
831.8832	714.6827	65535	64648.4
832.0281	716.7761	65535	64653.15
832.173	718.8688	65535	64651.15
832.3179	720.9608	65535	64646.85
832.4628	723.0522	65535	64645.3
832.6077	725.1429	65535	64651.2
832.7527	727.233	65535	64649.1
832.8976	729.3224	65535	64653
833.0425	731.4112	65535	64650
833.1874	733.4993	65535	64648.7
833.3324	735.5867	65535	64647.7
833.4773	737.6735	65535	64647.75
833.6222	739.7596	65535	64648.95
833.7672	741.845	65535	64645.15
833.9122	743.9298	65535	64646.95
834.0571	746.014	65535	64651.95
834.2021	748.0974	65535	64649.15
834.347	750.1802	65535	64645.85
834.492	752.2624	65535	64648.25
834.637	754.3439	65535	64646.95
834.782	756.4247	65535	64637.95
834.9269	758.5048	65535	64645.25
835.0719	760.5843	65535	64648.15
835.2169	762.6631	65535	64649.35
835.3619	764.7413	65535	64648.9
835.5069	766.8188	65535	64643.5
835.6519	768.8956	65535	64646.9
835.7969	770.9718	65535	64649.7
835.9419	773.0473	65535	64647.05
836.0869	775.1221	65535	64646.55
836.232	777.1962	65535	64646.6
836.377	779.2697	65535	64648.05
836.522	781.3426	65535	64624.45
836.667	783.4147	65535	64643.8
836.8121	785.4862	65535	64645.9
836.9571	787.557	65535	64645.1
837.1021	789.6271	65535	64646.9
837.2472	791.6966	65535	64644
837.3922	793.7654	65535	64642.95
837.5373	795.8335	65535	64646.85
837.6823	797.901	65535	64645.25
837.8274	799.9678	65535	64643.8
837.9724	802.0339	65535	64645.9
838.1175	804.0993	65535	64634.1
838.2626	806.1641	65535	64642.3
838.4076	808.2282	65535	64646.4
838.5527	810.2916	65535	64642.7
838.6978	812.3544	65535	64648.05
838.8428	814.4164	65535	64646.45
838.9879	816.4778	65535	64643.35
839.133	818.5385	65535	64646.35
839.2781	820.5986	65535	64642.35
839.4232	822.658	65535	64642.3
839.5682	824.7166	65535	64641.8
839.7133	826.7747	65535	64644.85
839.8584	828.832	65535	64643.8
840.0035	830.8886	65535	64639.85
840.1486	832.9446	65535	64642.4
840.2937	834.9999	65535	64647.05
840.4388	837.0545	65535	64643.35
840.5839	839.1085	65535	64644
840.729	841.1618	65535	64635.85
840.8741	843.2143	65535	64642.25
841.0192	845.2662	65535	64643.1
841.1643	847.3175	65535	64641.55
841.3095	849.368	65535	64642.25
841.4546	851.4179	65535	64643.1
841.5997	853.467	65535	64644.2
841.7448	855.5155	65535	64640.95
841.8899	857.5633	65535	64642.4
842.0351	859.6105	65535	64642.5
842.1802	861.6569	65535	64641.15
842.3253	863.7027	65535	64641.55
842.4704	865.7478	65535	64643.35
842.6156	867.7922	65535	64642.95
842.7607	869.8359	65535	64639.5
842.9058	871.8789	65535	64640.1
843.0509	873.9212	65535	64612.85
843.1961	875.9629	65535	64642.25
843.3412	878.0039	65535	64643.5
843.4863	880.0441	65535	64640.5
843.6315	882.0837	65535	64639.3
843.7766	884.1226	65535	64639.55
843.9218	886.1609	65535	64640.8
844.0669	888.1984	65535	64641.25
844.212	890.2352	65535	64641.7
844.3572	892.2714	65535	64635.15
844.5023	894.3069	65535	64636.3
844.6475	896.3416	65535	64636.6
844.7926	898.3757	65535	64641.55
844.9377	900.4091	65535	64640.05
845.0829	902.4418	65535	64633.45
845.228	904.4739	65535	64638.5
845.3732	906.5052	65535	64638.55
845.5183	908.5358	65535	64640.4
845.6635	910.5658	65535	64636.35
845.8086	912.595	65535	64638.95
845.9538	914.6236	65535	64639.3
846.0989	916.6515	65535	64640.95
846.2441	918.6786	65535	64635.1
846.3892	920.7051	65535	64636.8
846.5344	922.7309	65535	64639.45
846.6795	924.756	65535	64636.05
846.8246	926.7804	65535	64635.65
846.9698	928.8041	65535	64636.45
847.1149	930.8272	65535	64638.85
847.2601	932.8495	65535	64635.2
847.4052	934.8711	65535	64636.3
847.5504	936.892	65535	64639.6
847.6955	938.9123	65535	64638.15
847.8407	940.9318	65535	64637.15
847.9858	942.9506	65535	64635
848.131	944.9688	65535	64637.7
848.2761	946.9862	65535	64638.2
848.4213	949.003	65535	64637.2
848.5664	951.019	65535	64635.9
848.7115	953.0344	65535	64635.75
848.8567	955.0491	65535	64637.2
849.0018	957.063	65535	64637.65
849.147	959.0763	65535	64638
849.2921	961.0888	65535	64634.45
849.4373	963.1007	65535	64637.3
849.5824	965.1119	65535	64637.15
849.7275	967.1223	65535	64639.2
849.8727	969.1321	65535	64639.3
850.0178	971.1412	65535	64639.85
850.1629	973.1495	65535	64638.25
850.3081	975.1572	65535	64602.75
850.4532	977.1641	65535	64636.05
850.5983	979.1704	65535	64633.9
850.7435	981.1759	65535	64634
850.8886	983.1808	65535	64636.75
851.0337	985.1849	65535	64625.55
851.1788	987.1884	65535	64634.85
851.324	989.1911	65535	64632.25
851.4691	991.1932	65535	64635.45
851.6142	993.1945	65535	64635.9
851.7593	995.1951	65535	64638.35
851.9045	997.1951	65535	64629.85
852.0496	999.1943	65535	64638.7
852.1947	1001.1928	65535	64636.1
852.3398	1003.1906	65535	64636
852.4849	1005.1877	65535	64634.15
852.63	1007.1841	65535	64634.95
852.7751	1009.1798	65535	64637.1
852.9202	1011.1748	65535	64637.4
853.0653	1013.1691	65535	64636.95
853.2104	1015.1627	65535	64636.8
853.3555	1017.1556	65535	64637.3
853.5006	1019.1477	65535	64636.45
853.6457	1021.1392	65535	64639.45
853.7908	1023.1299	65535	64638.05
853.9359	1025.12	65535	64635.1
854.081	1027.1093	65535	64640.1
854.2261	1029.0979	65535	64640.8
854.3712	1031.0859	65535	64638.3
854.5163	1033.0731	65535	64636.5
854.6613	1035.0596	65535	64639.25
854.8064	1037.0454	65535	64636.4
854.9515	1039.0304	65535	64637.85
855.0965	1041.0148	65535	64636.1
855.2416	1042.9985	65535	64636.3
855.3867	1044.9814	65535	64635.15
855.5317	1046.9636	65535	64635.45
855.6768	1048.9452	65535	64638.1
855.8219	1050.926	65535	64637.95
855.9669	1052.9061	65535	64636.4
856.112	1054.8855	65535	64634.85
856.257	1056.8642	65535	64636.2
856.4021	1058.8421	65535	64631.55
856.5471	1060.8194	65535	64635.4
856.6921	1062.7959	65535	64637
856.8372	1064.7717	65535	64635.75
856.9822	1066.7469	65535	64633.35
857.1272	1068.7213	65535	64634.25
857.2723	1070.695	65535	64637.9
857.4173	1072.6679	65535	64636.35
857.5623	1074.6402	65535	64635.85
857.7073	1076.6117	65535	64630.65
857.8523	1078.5826	65535	64635.4
857.9973	1080.5527	65535	64634.35
858.1423	1082.5221	65535	64635.2
858.2873	1084.4908	65535	64635.55
858.4323	1086.4587	65535	64633.75
858.5773	1088.426	65535	64632.35
858.7223	1090.3925	65535	64630.1
858.8673	1092.3584	65535	64636.65
859.0123	1094.3235	65535	64636.1
859.1573	1096.2879	65535	64635.45
859.3022	1098.2515	65535	64635.45
859.4472	1100.2145	65535	64638.3
859.5922	1102.1767	65535	64631.6
859.7371	1104.1382	65535	64636.35
859.8821	1106.099	65535	64633.95
860.027	1108.0591	65535	64636.9
860.172	1110.0185	65535	64633.9
860.3169	1111.9771	65535	64634.4
860.4619	1113.9351	65535	64635.35
860.6068	1115.8923	65535	64633.35
860.7517	1117.8488	65535	64634.95
860.8967	1119.8045	65535	64636.55
861.0416	1121.7596	65535	64633.95
861.1865	1123.7139	65535	64634.95
861.3314	1125.6675	65535	64635.25
861.4763	1127.6204	65535	64638.6
861.6212	1129.5726	65535	64635.1
861.7661	1131.524	65535	64636.7
861.911	1133.4748	65535	64634.1
862.0559	1135.4248	65535	64632.8
862.2008	1137.3741	65535	64636.05
862.3457	1139.3226	65535	64633.9
862.4905	1141.2705	65535	64633.85
862.6354	1143.2176	65535	64628.9
862.7803	1145.164	65535	64630.75
862.9251	1147.1097	65535	64636.45
863.07	1149.0546	65535	64634.55
863.2148	1150.9989	65535	64636.15
863.3597	1152.9424	65535	64636
863.5045	1154.8852	65535	64635.3
863.6493	1156.8272	65535	64637.2
863.7942	1158.7686	65535	64629.5
863.939	1160.7092	65535	64633
864.0838	1162.6491	65535	64634.65
864.2286	1164.5883	65535	64636.7
864.3734	1166.5267	65535	64633.55
864.5182	1168.4644	65535	64633.55
864.663	1170.4014	65535	64632
864.8078	1172.3377	65535	64637.8
864.9526	1174.2732	65535	64638.25
865.0974	1176.2081	65535	64635.4
865.2421	1178.1421	65535	64632.15
865.3869	1180.0755	65535	64635.3
865.5317	1182.0082	65535	64634.55
865.6764	1183.9401	65535	64634.25
865.8212	1185.8713	65535	64636
865.9659	1187.8017	65535	64639.1
866.1106	1189.7315	65535	64636
866.2554	1191.6605	65535	64607.6
866.4001	1193.5888	65535	64635.15
866.5448	1195.5163	65535	64636.85
866.6895	1197.4432	65535	64636.65
866.8342	1199.3693	65535	64634.35
866.9789	1201.2947	65535	64633.3
867.1236	1203.2193	65535	64635.15
867.2683	1205.1432	65535	64633.4
867.413	1207.0664	65535	64637.2
867.5576	1208.9889	65535	64629.45
867.7023	1210.9106	65535	64634.6
867.847	1212.8316	65535	64635.05
867.9916	1214.7519	65535	64624.45
868.1363	1216.6715	65535	64635.75
868.2809	1218.5903	65535	64638.1
868.4255	1220.5084	65535	64636.6
868.5701	1222.4257	65535	64635.65
868.7148	1224.3424	65535	64636.1
868.8594	1226.2583	65535	64629.85
869.004	1228.1735	65535	64632.75
869.1486	1230.0879	65535	64634.3
869.2932	1232.0016	65535	64635.7
869.4377	1233.9146	65535	64633.95
869.5823	1235.8269	65535	64638.8
869.7269	1237.7384	65535	64634.25
869.8715	1239.6492	65535	64636.7
870.016	1241.5592	65535	64631.95
870.1606	1243.4686	65535	64634.1
870.3051	1245.3772	65535	64636.7
870.4496	1247.285	65535	64635.8
870.5941	1249.1922	65535	64633.6
870.7387	1251.0986	65535	64635.8
870.8832	1253.0042	65535	64635.3
871.0277	1254.9092	65535	64634
871.1722	1256.8134	65535	64636.1
871.3167	1258.7169	65535	64634.65
871.4611	1260.6196	65535	64634.45
871.6056	1262.5216	65535	64631.2
871.7501	1264.4229	65535	64635.55
871.8945	1266.3234	65535	64634.8
872.039	1268.2232	65535	64634
872.1834	1270.1223	65535	64636.2
872.3278	1272.0207	65535	64635.65
872.4723	1273.9183	65535	64630.6
872.6167	1275.8151	65535	64634.75
872.7611	1277.7113	65535	64633.65
872.9055	1279.6067	65535	64636.75
873.0499	1281.5014	65535	64633.85
873.1943	1283.3953	65535	64633
873.3386	1285.2885	65535	64635.6
873.483	1287.181	65535	64633
873.6274	1289.0727	65535	64636.65
873.7717	1290.9637	65535	64635.05
873.9161	1292.854	65535	64636.4
874.0604	1294.7435	65535	64635.2
874.2047	1296.6323	65535	64633.75
874.349	1298.5204	65535	64631.2
874.4933	1300.4077	65535	64635.05
874.6376	1302.2943	65535	64636.25
874.7819	1304.1802	65535	64635.9
874.9262	1306.0653	65535	64633.25
875.0705	1307.9497	65535	64636.15
875.2147	1309.8333	65535	64637.3
875.359	1311.7162	65535	64637.15
875.5032	1313.5984	65535	64633.5
875.6475	1315.4798	65535	64617.55
875.7917	1317.3605	65535	64618.9
875.9359	1319.2405	65535	64633.1
876.0801	1321.1197	65535	64635.15
876.2243	1322.9982	65535	64632.95
876.3685	1324.876	65535	64635.95
876.5127	1326.753	65535	64635.05
876.6569	1328.6293	65535	64631.1
876.801	1330.5048	65535	64633.8
876.9452	1332.3796	65535	64635.85
877.0893	1334.2537	65535	64610.35
877.2335	1336.127	65535	64635.75
877.3776	1337.9996	65535	64638.05
877.5217	1339.8714	65535	64633.2
877.6658	1341.7426	65535	64589.9
877.8099	1343.6129	65535	64633.25
877.954	1345.4826	65535	64635.15
878.0981	1347.3515	65535	64632.2
878.2422	1349.2196	65535	64634.7
878.3862	1351.087	65535	64638.4
878.5303	1352.9537	65535	64632.55
878.6743	1354.8197	65535	64635.65
878.8184	1356.6849	65535	64635.4
878.9624	1358.5493	65535	64635.1
879.1064	1360.4131	65535	64634.3
879.2504	1362.276	65535	64635.65
879.3944	1364.1383	65535	64635.75
879.5384	1365.9998	65535	64629.7
879.6823	1367.8606	65535	64634.35
879.8263	1369.7206	65535	64634.65
879.9702	1371.5799	65535	64631.8
880.1142	1373.4384	65535	64634.25
880.2581	1375.2962	65535	64635.3
880.402	1377.1533	65535	64635.4
880.5459	1379.0096	65535	64634.55
880.6898	1380.8652	65535	64635.85
880.8337	1382.7201	65535	64636.15
880.9776	1384.5742	65535	64633
881.1215	1386.4275	65535	64634.25
881.2653	1388.2802	65535	64636.45
881.4092	1390.132	65535	64634.45
881.553	1391.9832	65535	64636.05
881.6968	1393.8336	65535	64633.55
881.8406	1395.6832	65535	64633.25
881.9844	1397.5322	65535	64635.75
882.1282	1399.3803	65535	64629.55
882.272	1401.2278	65535	64634.55
882.4158	1403.0745	65535	64634.65
882.5595	1404.9204	65535	64636.25
882.7033	1406.7656	65535	64635.05
882.847	1408.6101	65535	64634.4
882.9908	1410.4538	65535	64634.9
883.1345	1412.2968	65535	64635.35
883.2782	1414.139	65535	64636.3
883.4219	1415.9805	65535	64638.5
883.5656	1417.8213	65535	64630.65
883.7092	1419.6613	65535	64634.15
883.8529	1421.5006	65535	64633.85
883.9965	1423.3391	65535	64634.3
884.1402	1425.1769	65535	64632.1
884.2838	1427.0139	65535	64634.85
884.4274	1428.8502	65535	64634.75
884.571	1430.6858	65535	64637.3
884.7146	1432.5206	65535	64635.95
884.8582	1434.3547	65535	64635.5
885.0018	1436.188	65535	64635.9
885.1453	1438.0206	65535	64633.15
885.2889	1439.8524	65535	64635.55
885.4324	1441.6835	65535	64635.95
885.5759	1443.5139	65535	64631
885.7194	1445.3435	65535	64634.75
885.8629	1447.1724	65535	64638.05
886.0064	1449.0005	65535	64636.3
886.1499	1450.8279	65535	64634.95
886.2933	1452.6545	65535	64637.55
886.4368	1454.4804	65535	64636.95
886.5802	1456.3056	65535	64627.15
886.7237	1458.13	65535	64635
886.8671	1459.9536	65535	64633.95
887.0105	1461.7766	65535	64636.15
887.1539	1463.5987	65535	64636.4
887.2972	1465.4202	65535	64634.45
887.4406	1467.2409	65535	64637.3
887.584	1469.0608	65535	64636.5
887.7273	1470.88	65535	64635.6
887.8706	1472.6984	65535	64636.8
888.0139	1474.5161	65535	64632.55
888.1572	1476.3331	65535	64638
888.3005	1478.1493	65535	64636.05
888.4438	1479.9648	65535	64636.15
888.5871	1481.7795	65535	64635.6
888.7303	1483.5935	65535	64634.55
888.8736	1485.4067	65535	64635
889.0168	1487.2192	65535	64633.4
889.16	1489.031	65535	64633
889.3032	1490.842	65535	64636.75
889.4464	1492.6522	65535	64635.45
889.5896	1494.4618	65535	64635.45
889.7327	1496.2705	65535	64636.5
889.8759	1498.0785	65535	64633.9
890.019	1499.8858	65535	64634.75
890.1622	1501.6924	65535	64637.1
890.3053	1503.4981	65535	64635.3
890.4484	1505.3032	65535	64637.15
890.5914	1507.1075	65535	64635.7
890.7345	1508.911	65535	64636.6
890.8776	1510.7138	65535	64635.65
891.0206	1512.5159	65535	64635.9
891.1637	1514.3172	65535	64638.25
891.3067	1516.1178	65535	64636.35
891.4497	1517.9176	65535	64634.6
891.5927	1519.7166	65535	64637.65
891.7357	1521.515	65535	64630.5
891.8786	1523.3126	65535	64636.1
892.0216	1525.1094	65535	64633.4
892.1645	1526.9055	65535	64637.65
892.3074	1528.7008	65535	64637.45
892.4503	1530.4954	65535	64630
892.5932	1532.2893	65535	64637.5
892.7361	1534.0824	65535	64633.4
892.879	1535.8747	65535	64637.75
893.0218	1537.6663	65535	64636.55
893.1647	1539.4572	65535	64637.05
893.3075	1541.2473	65535	64635.8
893.4503	1543.0367	65535	64638.7
893.5931	1544.8253	65535	64633.55
893.7359	1546.6132	65535	64634.65
893.8787	1548.4003	65535	64628
894.0214	1550.1867	65535	64627.6
894.1642	1551.9723	65535	64632.05
894.3069	1553.7572	65535	64637.1
894.4496	1555.5414	65535	64635.6
894.5923	1557.3247	65506.6	64608.3
894.735	1559.1074	65535	64640.8
894.8777	1560.8893	65533.7	64636.55
895.0204	1562.6705	65535	64637.15
895.163	1564.4509	65520	64620.6
895.3056	1566.2305	65529.9	64634
895.4482	1568.0094	65535	64638.05
895.5908	1569.7876	65530.65	64632.9
895.7334	1571.565	65514.2	64618.05
895.876	1573.3417	65527.65	64630
896.0186	1575.1176	65524.65	64627.75
896.1611	1576.8928	65516.3	64621.35
896.3036	1578.6672	65427.8	64531.45
896.4461	1580.4409	65498.25	64605.35
896.5886	1582.2138	65314.8	64416.5
896.7311	1583.986	65390.55	64493.6
896.8736	1585.7575	65174.1	64276.85
897.0161	1587.5282	65288.3	64394.6
897.1585	1589.2981	65230.25	64336.6
897.3009	1591.0673	64912.25	64017.55
897.4433	1592.8358	64610.2	63715.65
897.5857	1594.6035	64978.15	64080.1
897.7281	1596.3704	64971.45	64074.9
897.8705	1598.1366	64371.4	63475.2
898.0128	1599.9021	64052.55	63157.25
898.1551	1601.6668	64569.95	63670.55
898.2975	1603.4308	64243.8	63347.3
898.4398	1605.194	64303.5	63401.4
898.5821	1606.9564	63468.5	62571.75
898.7243	1608.7182	63938.2	63038.15
898.8666	1610.4791	63464.55	62570.25
899.0088	1612.2394	63974.8	63081.75
899.1511	1613.9988	63327.7	62433.2
899.2933	1615.7576	64024.9	63129.5
899.4355	1617.5156	63978.3	63076.7
899.5776	1619.2728	64571.75	63675.45
899.7198	1621.0293	63599.7	62705.15
899.862	1622.785	63594.55	62695.35
900.0041	1624.54	63935.1	63037.6
900.1462	1626.2942	63286.9	62389.45
900.2883	1628.0477	62329	61431.55
900.4304	1629.8005	61535.75	60637.45
900.5725	1631.5525	62336.75	61443.4
900.7145	1633.3037	61080.45	60185.3
900.8566	1635.0542	60908.2	60013.2
900.9986	1636.804	61384.45	60487.9
901.1406	1638.553	60275.15	59270
901.2826	1640.3013	60625.3	59729.7
901.4245	1642.0488	59898.95	59001
901.5665	1643.7955	60426.3	59532.1
901.7085	1645.5416	59882.3	58987.3
901.8504	1647.2868	59418.95	58526.55
901.9923	1649.0313	60131.2	59238.65
902.1342	1650.7751	59685.05	58789.15
902.2761	1652.5181	59330.05	58435.75
902.4179	1654.2604	59401.5	58506.85
902.5598	1656.0019	59896.45	59002.1
902.7016	1657.7427	59618.35	58725.4
902.8434	1659.4828	60253.4	59359.95
902.9852	1661.222	59849.35	58954.55
903.127	1662.9606	60281.6	59387.3
903.2687	1664.6984	59462.8	58567.65
903.4105	1666.4354	59560.35	58665.95
903.5522	1668.1717	58410.7	57517
903.6939	1669.9072	57579.15	56685.15
903.8356	1671.642	57340.2	56441.95
903.9773	1673.3761	57007.2	56112.85
904.119	1675.1094	56724.8	55829.65
904.2606	1676.8419	56168.6	55273.1
904.4022	1678.5737	55969.65	55076.1
904.5439	1680.3048	55642.4	54747.8
904.6855	1682.0351	55370.3	54476.3
904.827	1683.7646	55058.4	54159.95
904.9686	1685.4934	55127.65	54233.05
905.1101	1687.2215	54191.05	53296.95
905.2517	1688.9488	54656.4	53762.75
905.3932	1690.6754	53484.75	52591.2
905.5347	1692.4012	53830.85	52938.3
905.6761	1694.1263	53686.55	52793
905.8176	1695.8506	53392.75	52500.05
905.9591	1697.5742	53175.4	52283.5
906.1005	1699.297	52973.9	52080.4
906.2419	1701.0191	52837.4	51945.15
906.3833	1702.7404	52359.45	51466.65
906.5246	1704.461	52114.9	51219.7
906.666	1706.1808	52019.5	51123.85
906.8073	1707.8999	51923.1	51025.3
906.9487	1709.6182	51660.35	50767.8
907.09	1711.3358	51486.3	50593.3
907.2313	1713.0527	51295.5	50402.7
907.3725	1714.7688	51226.75	50327.75
907.5138	1716.4841	50763.85	49867.9
907.655	1718.1987	50838.25	49938.95
907.7962	1719.9126	50509.9	49617.5
907.9374	1721.6257	50349.4	49455.2
908.0786	1723.338	50401.3	49510
908.2198	1725.0496	49880.6	48986.3
908.3609	1726.7605	49742.35	48849.3
908.502	1728.4706	49565.1	48671.8
908.6431	1730.18	49322.85	48428
908.7842	1731.8886	49259.2	48366.05
908.9253	1733.5964	49036.85	48123.45
909.0664	1735.3036	48995.4	48100.6
909.2074	1737.0099	48824.85	47931.4
909.3484	1738.7156	48614	47721.6
909.4894	1740.4204	48391.85	47496.8
909.6304	1742.1246	48301.15	47407.45
909.7714	1743.8279	48213.5	47321.6
909.9123	1745.5306	48133.35	47239.55
910.0532	1747.2325	47818.15	46925.95
910.1941	1748.9336	47648.65	46754.1
910.335	1750.634	47419.25	46523.55
910.4759	1752.3336	47401.4	46508.65
910.6168	1754.0325	47231.35	46339.4
910.7576	1755.7307	47203.55	46312.75
910.8984	1757.4281	47015.35	46121.95
911.0392	1759.1247	46973.95	46072.75
911.18	1760.8206	46748.25	45851
911.3208	1762.5158	46690	45794.75
911.4615	1764.2102	46517.4	45625.1
911.6022	1765.9039	46265.2	45372.35
911.7429	1767.5968	46184.1	45292.3
911.8836	1769.289	46075.15	45181.1
912.0243	1770.9804	45940.95	45045.85
912.1649	1772.6711	45870.65	44977.95
912.3056	1774.361	45672.3	44778.25
912.4462	1776.0502	45598.6	44706.65
912.5868	1777.7386	45439.1	44545.35
912.7274	1779.4263	45235.25	44341.05
912.8679	1781.1132	45230.65	44339.2
913.0084	1782.7994	45038.7	44144.3
913.149	1784.4849	44913.15	44020.45
913.2895	1786.1696	44755.15	43856.7
913.4299	1787.8535	44609.75	43717.45
913.5704	1789.5367	44509.85	43616.85
913.7108	1791.2192	44419.05	43526.65
913.8513	1792.9009	44204.85	43284.3
913.9917	1794.5818	44032.3	43135.2
914.132	1796.2621	43927.8	43036
914.2724	1797.9415	43823.45	42929.35
914.4128	1799.6202	43692.85	42800.5
914.5531	1801.2982	43624.9	42731.6
914.6934	1802.9755	43484.25	42591
914.8337	1804.6519	43363.9	42472.15
914.9739	1806.3277	43165	42273.7
915.1142	1808.0027	42953.05	42061.45
915.2544	1809.6769	42978.55	42086.15
915.3946	1811.3504	42843.05	41949.6
915.5348	1813.0231	42662.2	41767.75
915.675	1814.6951	42586.05	41692.2
915.8151	1816.3664	42551.4	41655.2
915.9553	1818.0369	42391.65	41498
916.0954	1819.7067	42246.85	41355.3
916.2355	1821.3757	42130.9	41237.2
916.3755	1823.044	42069.15	41177.15
916.5156	1824.7115	41936.3	41043.9
916.6556	1826.3783	41759.1	40865.5
916.7956	1828.0443	41592.8	40702.2
916.9356	1829.7096	41510.25	40617.05
917.0756	1831.3741	41401.2	40505.95
917.2155	1833.0379	41323.15	40429.7
917.3555	1834.701	41207.6	40314.7
917.4954	1836.3633	41096.2	40201.7
917.6353	1838.0248	40967.8	40072.85
917.7751	1839.6856	40843.75	39952.4
917.915	1841.3457	40798.3	39905.75
918.0548	1843.005	40684.45	39793.2
918.1946	1844.6636	40603.15	39712.65
918.3344	1846.3214	40423.3	39530.7
918.4742	1847.9785	40332.65	39440.3
918.6139	1849.6349	40223.75	39330.5
918.7537	1851.2904	40116.5	39215.5
918.8934	1852.9453	39950.65	39058.8
919.0331	1854.5994	39810.6	38915.05
919.1727	1856.2528	39869	38972
919.3124	1857.9054	39765.75	38873
919.452	1859.5572	39695	38803.75
919.5916	1861.2083	39580.2	38688.15
919.7312	1862.8587	39535.3	38643.45
919.8708	1864.5084	39371.1	38477.1
920.0103	1866.1572	39226.75	38335.7
920.1498	1867.8054	39023.7	38129.85
920.2893	1869.4528	38961.05	38067.75
920.4288	1871.0994	38852.55	37958.75
920.5683	1872.7453	38804.1	37909.4
920.7077	1874.3905	38636.2	37737.4
920.8471	1876.0349	38513.35	37620.65
920.9865	1877.6786	38528.7	37633.65
921.1259	1879.3215	38449.65	37558.75
921.2653	1880.9637	38330.2	37437.9
921.4046	1882.6051	38241.2	37350.65
921.5439	1884.2458	38147.85	37253.7
921.6832	1885.8858	37986.75	37094
921.8225	1887.525	37841.25	36948
921.9617	1889.1634	37655.05	36761.5
922.101	1890.8011	37521.4	36630.5
922.2402	1892.4381	37450.5	36559.7
922.3794	1894.0743	37386.9	36495.05
922.5185	1895.7098	37281.8	36391.25
922.6577	1897.3446	37187.3	36294.35
922.7968	1898.9786	37046	36148.7
922.9359	1900.6118	36966.45	36074.6
923.075	1902.2443	36728.5	35834.9
923.214	1903.8761	36647	35754.15
923.3531	1905.5071	36428.3	35532.7
923.4921	1907.1374	36296.55	35403.35
923.6311	1908.7669	36295.4	35401.85
923.77	1910.3957	36233.95	35341.7
923.909	1912.0237	35952.6	35059.8
924.0479	1913.651	35889.45	34998.8
924.1868	1915.2776	35782.05	34891.15
924.3257	1916.9034	35662.8	34772.3
924.4646	1918.5285	35442.95	34553.1
924.6034	1920.1528	35280.2	34385.85
924.7422	1921.7764	35224.95	34331.8
924.881	1923.3992	35121.7	34230.1
925.0198	1925.0213	34841.35	33950
925.1586	1926.6427	34675.2	33784
925.2973	1928.2633	34685.2	33683.5
925.436	1929.8832	34475.15	33581.75
925.5747	1931.5023	34299.1	33406.55
925.7134	1933.1207	34249.45	33357.65
925.852	1934.7383	34153.45	33259.9
925.9906	1936.3552	34077.75	33186.8
926.1292	1937.9714	33918.5	33025.85
926.2678	1939.5868	33770.9	32877.4
926.4064	1941.2015	33542.85	32649.4
926.5449	1942.8154	33439.5	32546.45
926.6834	1944.4286	33331.75	32439.85
926.8219	1946.041	33191.2	32280.65
926.9604	1947.6528	32944.45	32048.65
927.0988	1949.2637	32908.6	32015.6
927.2372	1950.8739	32769.45	31878.4
927.3756	1952.4834	32691.95	31801.3
927.514	1954.0921	32634.9	31743.4
927.6523	1955.7001	32482.75	31587.3
927.7907	1957.3074	32371.75	31479.65
927.929	1958.9139	32243.25	31351.2
928.0673	1960.5197	32164.3	31270.4
928.2055	1962.1247	31975.4	31082.1
928.3438	1963.729	31804	30913.3
928.482	1965.3325	31702.35	30786.35
928.6202	1966.9353	31562.65	30670.5
928.7584	1968.5374	31414.65	30522.25
928.8965	1970.1387	31345.05	30452.55
929.0346	1971.7393	31243.5	30352
929.1727	1973.3392	31159.6	30269.1
929.3108	1974.9383	31044.05	30153.95
929.4489	1976.5366	30872.95	29981.5
929.5869	1978.1342	30826.75	29932.55
929.7249	1979.7311	30774.6	29880.65
929.8629	1981.3273	30644.95	29751.65
930.0009	1982.9227	30529.2	29636.3
930.1388	1984.5173	30375.75	29484.85
930.2767	1986.1112	30268.5	29377.75
930.4146	1987.7044	30210	29320.95
930.5525	1989.2968	30080.9	29188.75
930.6904	1990.8885	30024.1	29126.75
930.8282	1992.4795	29916.1	29021
930.966	1994.0697	29792.85	28901.9
931.1038	1995.6592	29656.45	28764.9
931.2415	1997.2479	29546.85	28656.85
931.3793	1998.8359	29518.65	28628.4
931.517	2000.4232	29364.85	28473.95
931.6547	2002.0097	29226.4	28335.1
931.7923	2003.5955	29092.8	28200.55
931.93	2005.1805	29053.8	28161.65
932.0676	2006.7648	28984.2	28093.9
932.2052	2008.3484	28824.25	27932.4
932.3427	2009.9312	28814.3	27921.15
932.4803	2011.5133	28731	27840.95
932.6178	2013.0946	28627.15	27737.9
932.7553	2014.6752	28544.25	27655.05
932.8928	2016.2551	28444.95	27552.95
933.0302	2017.8342	28307.15	27416.35
933.1676	2019.4126	28228.45	27336.25
933.305	2020.9902	28078.75	27188.95
933.4424	2022.5672	28027.4	27136.1
933.5798	2024.1433	27908	27010.55
933.7171	2025.7188	27803.55	26913.25
933.8544	2027.2935	27733.3	26842.85
933.9917	2028.8674	27630.3	26740.7
934.129	2030.4406	27556.95	26667.65
934.2662	2032.0131	27425.3	26534.85
934.4034	2033.5849	27297.6	26400.4
934.5406	2035.1559	27263.05	26372.85
934.6778	2036.7261	27205.9	26315.55
934.8149	2038.2957	27120.7	26231.2
934.952	2039.8645	27027.4	26136.8
935.0891	2041.4325	26995	26100
935.2262	2042.9998	26841.55	25953.2
935.3632	2044.5664	26817.85	25924.45
935.5002	2046.1323	26727.4	25835.1
935.6372	2047.6974	26619.8	25729.3
935.7742	2049.2617	26541.8	25651.05
935.9111	2050.8254	26524.55	25610.75
936.048	2052.3883	26452.8	25560.8
936.1849	2053.9504	26328.05	25436.5
936.3218	2055.5118	26205.3	25313.6
936.4586	2057.0725	26070.05	25176.2
936.5955	2058.6325	26028.65	25135.85
936.7323	2060.1917	25917.85	25027.7
936.869	2061.7502	25887.3	24993.85
937.0058	2063.3079	25705.75	24815.25
937.1425	2064.8649	25637.95	24742.75
937.2792	2066.4212	25643.5	24752.4
937.4159	2067.9767	25558.55	24667.1
937.5525	2069.5315	25427.7	24539.1
937.6891	2071.0856	25297.6	24405.9
937.8257	2072.6389	25185.1	24292.85
937.9623	2074.1915	25077.55	24189.25
938.0989	2075.7433	24921	24027.1
938.2354	2077.2945	24884.45	23995.2
938.3719	2078.8448	24829.35	23939.45
938.5084	2080.3945	24707.25	23815.3
938.6448	2081.9434	24685.7	23794.4
938.7812	2083.4916	24595.2	23704.95
938.9176	2085.039	24486.1	23593.25
939.054	2086.5857	24480.65	23587.3
939.1903	2088.1317	24386.8	23495.4
939.3267	2089.677	24299.95	23409.35
939.463	2091.2215	24219.7	23328.7
939.5992	2092.7652	24155.3	23261.45
939.7355	2094.3083	24083.9	23190.3
939.8717	2095.8506	24034.45	23144.5
940.0079	2097.3921	23996.65	23103.75
940.1441	2098.933	23899.45	23008.85
940.2802	2100.4731	23817.65	22926.6
940.4163	2102.0124	23800.6	22899.6
940.5524	2103.5511	23707.55	22814.75
940.6885	2105.089	23625.75	22733.95
940.8245	2106.6261	23529	22636.05
940.9606	2108.1626	23503.3	22611
941.0965	2109.6983	23434.95	22514.55
941.2325	2111.2332	23314.65	22421.9
941.3684	2112.7675	23250.95	22356.1
941.5044	2114.301	23233.5	22341.05
941.6403	2115.8337	23199.4	22307.15
941.7761	2117.3657	23080.1	22191.1
941.912	2118.897	23007.8	22116.2
942.0478	2120.4276	22902.1	22004.4
942.1835	2121.9575	22828.9	21935.5
942.3193	2123.4866	22852.75	21946.5
942.455	2125.0149	22750.8	21855.75
942.5907	2126.5426	22603.8	21715.45
942.7264	2128.0695	22506.95	21611
942.8621	2129.5956	22485.45	21594.15
942.9977	2131.1211	22451.9	21555
943.1333	2132.6458	22429.95	21537.95
943.2689	2134.1698	22322.3	21432.2
943.4044	2135.693	22209.35	21315.95
943.54	2137.2155	22190.9	21298.9
943.6755	2138.7373	22130.15	21237.55
943.8109	2140.2584	22039.15	21147.95
943.9464	2141.7787	21960.4	21064.05
944.0818	2143.2983	21817.1	20926.5
944.2172	2144.8171	21719.45	20828.25
944.3526	2146.3353	21674.95	20781.7
944.4879	2147.8527	21587.4	20696.45
944.6232	2149.3693	21599.9	20708.05
944.7585	2150.8853	21485.4	20592.65
944.8938	2152.4005	21373.5	20481.5
945.029	2153.9149	21361.85	20471.05
945.1642	2155.4287	21284.8	20393.15
945.2994	2156.9417	21189.75	20297.75
945.4346	2158.454	21165.65	20272.1
945.5697	2159.9655	21045.75	20154.25
945.7048	2161.4764	21014.65	20121.45
945.8399	2162.9865	20965.25	20071.95
945.9749	2164.4958	20905.65	20014.5
946.1099	2166.0045	20848.45	19955
946.2449	2167.5124	20827.8	19935.15
946.3799	2169.0195	20737.7	19847
946.5148	2170.526	20683.1	19791.95
946.6498	2172.0317	20587.75	19694.25
946.7846	2173.5367	20543.8	19652.55
946.9195	2175.0409	20465.95	19573.6
947.0543	2176.5445	20504.95	19614.05
947.1891	2178.0473	20413.35	19522.3
947.3239	2179.5494	20266.65	19371.8
947.4587	2181.0507	20194.95	19304.2
947.5934	2182.5513	20138.1	19246.3
947.7281	2184.0512	20068.75	19176.65
947.8628	2185.5504	20022.2	19131.65
947.9974	2187.0488	19902.4	19009.4
948.132	2188.5465	19838.85	18947.7
948.2666	2190.0435	19758.4	18864.8
948.4012	2191.5397	19703.45	18812.5
948.5357	2193.0353	19618.35	18726.35
948.6702	2194.5301	19522.05	18629.65
948.8047	2196.0241	19446.15	18552.9
948.9392	2197.5175	19420.4	18528.85
949.0736	2199.0101	19334.05	18435.55
949.208	2200.502	19230.35	18339.85
949.3424	2201.9931	19162.1	18271.35
949.4767	2203.4835	19100.55	18208.9
949.611	2204.9733	19002.4	18106.3
949.7453	2206.4622	18936.15	18046.3
949.8796	2207.9505	18887.8	17995.1
950.0138	2209.438	18779	17889.3
950.148	2210.9248	18711.3	17818.75
950.2822	2212.4109	18666	17776.4
950.4164	2213.8962	18568	17673.45
950.5505	2215.3809	18529.25	17635.7
950.6846	2216.8648	18486.75	17593.25
950.8186	2218.3479	18454.1	17556
950.9527	2219.8304	18363.4	17468.3
951.0867	2221.3121	18272.1	17378.7
951.2207	2222.7931	18203.3	17313.9
951.3546	2224.2733	18165.2	17273.3
951.4886	2225.7529	18077.95	17185.35
951.6225	2227.2317	17997.85	17101.9
951.7563	2228.7098	18014.5	17122.85
951.8902	2230.1872	17896.55	17004.15
952.024	2231.6638	17871.4	16979.25
952.1578	2233.1397	17785.35	16890.05
952.2916	2234.6149	17748.2	16858.4
952.4253	2236.0894	17626.05	16733.8
952.559	2237.5632	17597.5	16695.75
952.6927	2239.0362	17522.15	16629.75
952.8263	2240.5085	17501.95	16610.2
952.9599	2241.9801	17410.45	16519.3
953.0935	2243.4509	17362.9	16470.45
953.2271	2244.921	17302	16409.1
953.3606	2246.3904	17199.7	16307.4
953.4941	2247.8591	17139.1	16248.05
953.6276	2249.3271	17119.8	16229.35
953.7611	2250.7943	17035.4	16143.55
953.8945	2252.2608	16972.7	16080.8
954.0279	2253.7266	16961.3	16070.55
954.1612	2255.1917	16881.8	15989.85
954.2946	2256.656	16797.6	15904.5
954.4279	2258.1197	16749.05	15855.8
954.5612	2259.5826	16709.9	15817.25
954.6944	2261.0447	16666.25	15773.15
954.8276	2262.5062	16573.6	15680.25
954.9608	2263.9669	16569.5	15675.2
955.094	2265.4269	16507.4	15616
955.2271	2266.8862	16436.85	15543.2
955.3602	2268.3448	16422.15	15530.65
955.4933	2269.8026	16371	15477.2
955.6264	2271.2598	16330.55	15438
955.7594	2272.7162	16220.95	15331.05
955.8924	2274.1719	16203.2	15310.25
956.0253	2275.6268	16175.9	15284.1
956.1583	2277.0811	16136.3	15242.7
956.2912	2278.5346	16065	15175.65
956.4241	2279.9874	16005.85	15114.4
956.5569	2281.4395	15986.05	15094.3
956.6897	2282.8908	15897.55	15002.55
956.8225	2284.3414	15863	14968.85
956.9553	2285.7914	15784.4	14895.35
957.088	2287.2406	15736.85	14845.75
957.2207	2288.689	15731.4	14838.45
957.3534	2290.1368	15654.4	14761.25
957.486	2291.5838	15592.05	14696.6
957.6186	2293.0302	15531.3	14637.9
957.7512	2294.4758	15478.8	14586.1
957.8838	2295.9206	15423.8	14530.65
958.0163	2297.3648	15386	14494.2
958.1488	2298.8082	15344.85	14451.8
958.2813	2300.251	15289.65	14398.45
958.4137	2301.693	15230.05	14337.4
958.5461	2303.1343	15236.85	14344.2
958.6785	2304.5748	15169.8	14278.3
958.8108	2306.0147	15114.55	14222.55
958.9432	2307.4538	15083.95	14187.25
959.0754	2308.8922	15025.05	14135
959.2077	2310.3299	15009.65	14117.65
959.3399	2311.7669	14900.55	14008.9
959.4721	2313.2031	14843.5	13951.2
959.6043	2314.6387	14802.1	13910.6
959.7365	2316.0735	14779.4	13887.35
959.8686	2317.5076	14687.65	13794
960.0006	2318.941	14675.35	13783
960.1327	2320.3737	14620.55	13726.55
960.2647	2321.8056	14571.35	13676.25
960.3967	2323.2369	14550.15	13658.35
960.5287	2324.6674	14481.85	13588.6
960.6606	2326.0972	14416.9	13523.35
960.7925	2327.5263	14349.1	13457.85
960.9244	2328.9547	14334	13441.65
961.0562	2330.3823	14267.1	13373.35
961.1881	2331.8092	14255.55	13359.65
961.3198	2333.2355	14153.7	13263.25
961.4516	2334.661	14183	13290.1
961.5833	2336.0858	14111.3	13218.3
961.715	2337.5098	14068.1	13176.95
961.8467	2338.9332	14067.5	13173.65
961.9783	2340.3558	13982.55	13086.45
962.1099	2341.7778	13944.8	13052.5
962.2415	2343.199	13866.9	12971.05
962.373	2344.6195	13831.4	12940.3
962.5045	2346.0393	13797.8	12907.1
962.636	2347.4583	13770.75	12878.3
962.7675	2348.8767	13708.85	12816.65
962.8989	2350.2943	13684.75	12791.85
963.0303	2351.7113	13662.2	12768.9
963.1617	2353.1275	13623.8	12730.85
963.293	2354.543	13540.65	12626.2
963.4243	2355.9578	13509.2	12617.4
963.5556	2357.3718	13404	12512.7
963.6868	2358.7852	13335.1	12440.95
963.818	2360.1978	13303.9	12411.1
963.9492	2361.6098	13237.45	12345.3
964.0803	2363.021	13226.85	12332.25
964.2114	2364.4315	13201.6	12309.4
964.3425	2365.8413	13132.25	12238.7
964.4736	2367.2504	13073.15	12182.55
964.6046	2368.6587	13005.15	12114.45
964.7356	2370.0664	12947.05	12056.85
964.8666	2371.4733	12924.7	12033.5
964.9975	2372.8795	12888.8	11996.15
965.1284	2374.285	12815.55	11921.7
965.2593	2375.6899	12776	11886.15
965.3901	2377.0939	12676.05	11783.7
965.5209	2378.4973	12648.15	11758
965.6517	2379.9	12600.55	11709.15
965.7825	2381.3019	12515.4	11624.25
965.9132	2382.7032	12493.75	11600.75
966.0439	2384.1037	12481.1	11592.05
966.1745	2385.5035	12449.3	11558.55
966.3051	2386.9027	12400.4	11508.35
966.4357	2388.3011	12341.2	11448.25
966.5663	2389.6987	12294.05	11401.6
966.6968	2391.0957	12288.35	11397.45
966.8273	2392.492	12194.05	11303.25
966.9578	2393.8876	12155.75	11263.05
967.0882	2395.2824	12087.6	11197.15
967.2186	2396.6765	12039.15	11148.7
967.349	2398.07	11984.7	11094.8
967.4793	2399.4627	11979.05	11085.9
967.6097	2400.8547	11919.55	11028.05
967.7399	2402.246	11877.85	10981.65
967.8702	2403.6366	11814.85	10922.35
968.0004	2405.0265	11751.9	10860.95
968.1306	2406.4156	11708.95	10812.45
968.2607	2407.8041	11677.7	10784.45
968.3909	2409.1918	11621.5	10727.55
968.521	2410.5789	11585.85	10696.85
968.651	2411.9652	11539.4	10644
968.781	2413.3508	11490.55	10598.7
968.911	2414.7358	11460.8	10568.1
969.041	2416.12	11417.7	10527.2
969.1709	2417.5035	11391.4	10502.7
969.3008	2418.8863	11306.95	10413.95
969.4307	2420.2684	11297	10405.5
969.5606	2421.6497	11242.25	10349.85
969.6904	2423.0304	11165.6	10276.6
969.8201	2424.4104	11141.25	10250.8
969.9499	2425.7896	11106.9	10209.05
970.0796	2427.1682	11069	10176.05
970.2093	2428.546	11054.8	10161.35
970.3389	2429.9232	11025.1	10133.4
970.4685	2431.2996	10983.6	10092.25
970.5981	2432.6753	10960.15	10066.75
970.7277	2434.0503	10912.35	10019.65
970.8572	2435.4246	10871.9	9981.25
970.9867	2436.7982	10825.95	9933.1
971.1161	2438.1711	10811.65	9921.7
971.2456	2439.5433	10761.2	9868.05
971.375	2440.9148	10721.3	9829.3
971.5043	2442.2856	10667.4	9774.8
971.6336	2443.6557	10637.75	9743.4
971.7629	2445.025	10607.15	9716.25
971.8922	2446.3937	10564.65	9673.4
972.0214	2447.7617	10525.5	9633.15
972.1506	2449.1289	10512.6	9621.25
972.2798	2450.4955	10488.45	9595.75
972.4089	2451.8613	10464.2	9575
972.538	2453.2265	10401.75	9508.05
972.6671	2454.5909	10384.9	9494.4
972.7961	2455.9546	10353.1	9462.6
972.9251	2457.3177	10307.9	9418.55
973.0541	2458.68	10290.8	9396.25
973.1831	2460.0416	10260	9370.65
973.312	2461.4025	10253.2	9361.15
973.4408	2462.7627	10233.7	9328.55
973.5697	2464.1222	10195.35	9304.2
973.6985	2465.4811	10124.75	9232.75
973.8273	2466.8392	10124.35	9233.7
973.956	2468.1966	10056.15	9164.05
974.0847	2469.5533	10072.4	9179.2
974.2134	2470.9093	10045.65	9153.95
974.3421	2472.2645	10001.35	9109.45
974.4707	2473.6191	9965.6	9074.05
974.5993	2474.973	9906.9	9017.5
974.7278	2476.3262	9902.25	9008.4
974.8563	2477.6787	9845.8	8954.4
974.9848	2479.0305	9799.1	8908
975.1132	2480.3816	9769.3	8876.05
975.2417	2481.7319	9750.15	8858.85
975.37	2483.0816	9727.6	8834.65
975.4984	2484.4306	9657.2	8764
975.6267	2485.7789	9626.55	8736.3
975.755	2487.1264	9570.35	8678.3
975.8833	2488.4733	9534.35	8644.05
976.0115	2489.8195	9511.3	8613.45
976.1397	2491.165	9479	8583.2
976.2678	2492.5097	9452.6	8559.25
976.3959	2493.8538	9402.15	8512.75
976.524	2495.1972	9336	8445.6
976.6521	2496.5398	9303.95	8412.05
976.7801	2497.8818	9292.15	8399.95
976.9081	2499.2231	9259.8	8368.5
977.036	2500.5637	9228.6	8333.2
977.164	2501.9035	9188	8295.75
977.2918	2503.2427	9159.65	8264.5
977.4197	2504.5812	9142.4	8251.6
977.5475	2505.919	9118.4	8225.85
977.6753	2507.256	9087.8	8196.3
977.8031	2508.5924	9049.4	8158.7
977.9308	2509.9281	9031.05	8134.3
978.0585	2511.2631	8978.2	8085.3
978.1861	2512.5974	8972.15	8080.4
978.3137	2513.9309	8925.9	8032.8
978.4413	2515.2638	8909.25	7983.6
978.5689	2516.596	8874.75	7983.7
978.6964	2517.9275	8805.45	7911.6
978.8239	2519.2583	8762.4	7870.5
978.9513	2520.5884	8743.8	7851.5
979.0788	2521.9178	8698.1	7805.1
979.2062	2523.2465	8656.65	7765.75
979.3335	2524.5745	8650.85	7761.9
979.4608	2525.9018	8630.2	7739
979.5881	2527.2284	8597.8	7707.45
979.7154	2528.5543	8567.6	7677.05
979.8426	2529.8796	8541.7	7648.45
979.9698	2531.2041	8523.65	7630.4
980.0969	2532.5279	8521.35	7631.3
980.224	2533.851	8509.55	7616.65
980.3511	2535.1735	8478.05	7586.7
980.4781	2536.4952	8443.15	7551.25
980.6052	2537.8163	8415.05	7524.9
980.7321	2539.1366	8383.2	7492.55
980.8591	2540.4562	8373.95	7480.75
980.986	2541.7752	8331.7	7439.8
981.1129	2543.0935	8330.2	7438.55
981.2397	2544.411	8310.25	7417.75
981.3665	2545.7279	8296.25	7404.25
981.4933	2547.0441	8273.85	7382.1
981.62	2548.3596	8262	7367.05
981.7467	2549.6744	8206.35	7313
981.8734	2550.9885	8208.2	7314
982.0001	2552.3019	8181.6	7290.25
982.1267	2553.6146	8152.3	7261.05
982.2532	2554.9266	8127.5	7236.3
982.3798	2556.2379	8075	7180.7
982.5063	2557.5485	8078.05	7187
982.6327	2558.8585	8026.1	7127.35
982.7592	2560.1677	8032.25	7134.75
982.8856	2561.4762	8019.65	7128.95
983.0119	2562.7841	8010.25	7114.55
983.1383	2564.0913	7956.3	7066.75
983.2646	2565.3977	7955.5	7065.4
983.3908	2566.7035	7921.55	7029.1
983.517	2568.0086	7921.8	7029.05
983.6432	2569.313	7899.4	7005.95
983.7694	2570.6167	7884.45	6990.8
983.8955	2571.9197	7852.85	6960.9
984.0216	2573.222	7843.1	6949.3
984.1476	2574.5236	7835.85	6943.35
984.2737	2575.8246	7798.15	6904.7
984.3996	2577.1248	7808.4	6914.45
984.5256	2578.4244	7797.15	6904.1
984.6515	2579.7232	7749	6855.75
984.7774	2581.0214	7750	6834.2
984.9032	2582.3189	7723.45	6832.35
985.029	2583.6157	7691.2	6796
985.1548	2584.9118	7705.2	6814.55
985.2806	2586.2072	7665.55	6774.25
985.4063	2587.5019	7641	6747.55
985.5319	2588.7959	7610.35	6717.3
985.6576	2590.0893	7610.3	6716
985.7832	2591.3819	7602.35	6712.75
985.9087	2592.6739	7562.9	6671.2
986.0343	2593.9652	7522.4	6629.3
986.1597	2595.2557	7520.15	6629.7
986.2852	2596.5456	7472.75	6578
986.4106	2597.8348	7472.85	6583
986.536	2599.1234	7433.4	6539.55
986.6614	2600.4112	7399.45	6505.5
986.7867	2601.6983	7377.4	6483.45
986.912	2602.9848	7358.95	6465.7
987.0372	2604.2705	7316.8	6417.5
987.1624	2605.5556	7314.3	6424.75
987.2876	2606.84	7282.05	6392
987.4128	2608.1237	7255.3	6364.85
987.5379	2609.4067	7208.5	6317.35
987.6629	2610.689	7186.8	6286.3
987.788	2611.9707	7170.5	6275.1
987.913	2613.2516	7155.75	6258.7
988.0379	2614.5319	7131.5	6241.5
988.1629	2615.8115	7096.25	6204.75
988.2878	2617.0903	7057.1	6164.65
988.4126	2618.3685	7041.9	6152.5
988.5375	2619.6461	7014.5	6121.7
988.6622	2620.9229	6985.75	6094.9
988.787	2622.199	6981.7	6089.2
988.9117	2623.4745	6961	6067
989.0364	2624.7493	6946.8	6055.1
989.161	2626.0234	6909.4	6019.7
989.2857	2627.2968	6875.6	5982.85
989.4102	2628.5695	6860.05	5966.5
989.5348	2629.8415	6818.95	5928.6
989.6593	2631.1128	6789.35	5894.55
989.7837	2632.3835	6773.55	5882.4
989.9082	2633.6535	6753	5863.2
990.0326	2634.9228	6738.15	5847.45
990.1569	2636.1914	6698.8	5806.4
990.2812	2637.4593	6690.85	5792.1
990.4055	2638.7265	6669.7	5777.2
990.5298	2639.9931	6639.85	5750.2
990.654	2641.259	6638.05	5746.2
990.7782	2642.5242	6602.15	5708.9
990.9023	2643.7887	6572.65	5680.65
991.0264	2645.0525	6572.35	5681.35
991.1505	2646.3156	6549.4	5656.55
991.2745	2647.5781	6529.65	5637.85
991.3985	2648.8398	6508.1	5617.2
991.5225	2650.1009	6486.05	5585.55
991.6464	2651.3613	6475.9	5583.8
991.7703	2652.6211	6416.7	5524.05
991.8942	2653.8801	6393.95	5503.65
992.018	2655.1385	6389.95	5493.55
992.1418	2656.3961	6372.9	5482.25
992.2655	2657.6531	6345.15	5453.25
992.3892	2658.9094	6333.15	5440.4
992.5129	2660.1651	6335.2	5445.05
992.6366	2661.42	6315.7	5422.6
992.7602	2662.6743	6287.1	5393.95
992.8837	2663.9279	6300.05	5409.25
993.0073	2665.1808	6256.7	5363.7
993.1307	2666.433	6234.7	5341.9
993.2542	2667.6846	6244.85	5354.15
993.3776	2668.9354	6221.7	5328.1
993.501	2670.1856	6203.8	5311.6
993.6244	2671.4351	6201.9	5310.95
993.7477	2672.6839	6179.7	5287.15
993.8709	2673.9321	6146.75	5253.6
993.9942	2675.1795	6141.5	5248.65
994.1174	2676.4263	6121.85	5231.05
994.2405	2677.6724	6092.7	5202.05
994.3637	2678.9179	6084.7	5192.85
994.4868	2680.1626	6081.3	5189.45
994.6098	2681.4067	6053	5161.45
994.7328	2682.6501	6044.25	5152.7
994.8558	2683.8928	6004.2	5112.65
994.9788	2685.1348	5980.4	5088.6
995.1017	2686.3761	5962.3	5070.35
995.2245	2687.6168	5940.5	5047.6
995.3474	2688.8568	5913.6	5021.6
995.4702	2690.0961	5904.35	5014.9
995.5929	2691.3348	5898.9	5005.55
995.7156	2692.5727	5863.05	4969.7
995.8383	2693.81	5832.2	4940.25
995.961	2695.0466	5828.55	4937.95
996.0836	2696.2826	5821.2	4927
996.2062	2697.5178	5807.95	4911.85
996.3287	2698.7524	5768.7	4876.45
996.4512	2699.9863	5775.05	4882.9
996.5737	2701.2195	5757.8	4868.45
996.6961	2702.452	5751.45	4858.5
996.8185	2703.6839	5724.95	4832.8
996.9408	2704.9151	5710.9	4819.05
997.0631	2706.1456	5677.75	4785.5
997.1854	2707.3755	5662.75	4771.4
997.3077	2708.6046	5679.9	4785.9
997.4299	2709.8331	5658	4764.75
997.552	2711.0609	5626.9	4733.65
997.6742	2712.2881	5636.55	4744.1
997.7963	2713.5145	5625.5	4731.05
997.9183	2714.7403	5629.6	4738.25
998.0403	2715.9654	5600.3	4707.15
998.1623	2717.1899	5611.2	4702.8
998.2842	2718.4136	5580.9	4688.8
998.4062	2719.6367	5580.55	4690.25
998.528	2720.8591	5574	4677.05
998.6498	2722.0809	5552.9	4660.85
998.7716	2723.3019	5559	4663.3
998.8934	2724.5223	5533.7	4639.25
999.0151	2725.7421	5532.5	4639.65
999.1368	2726.9611	5510.2	4616.75
999.2584	2728.1795	5488.25	4591.35
999.38	2729.3972	5471.2	4577.6
999.5016	2730.6142	5439.25	4539
999.6231	2731.8306	5400	4506.15
999.7446	2733.0462	5366.4	4473.35
999.8661	2734.2612	5321.55	4426.35
999.9875	2735.4756	5302.1	4408.4
1000.1089	2736.6892	5259.1	4367.2
1000.2302	2737.9022	5229.4	4340.25
1000.3515	2739.1145	5222.2	4330.65
1000.4728	2740.3262	5209.15	4310.75
1000.594	2741.5372	5152.25	4261.9
1000.7152	2742.7475	5114.95	4222.85
1000.8363	2743.9571	5122.25	4228.3
1000.9575	2745.1661	5091.2	4194.05
1001.0785	2746.3744	5060.35	4166.35
1001.1996	2747.582	5029.65	4138.5
1001.3206	2748.7889	5030.2	4138.85
1001.4415	2749.9952	5008.35	4116.8
1001.5625	2751.2008	4995.6	4103.45
1001.6833	2752.4057	4971.85	4075.2
1001.8042	2753.61	4943.5	4051.1
1001.925	2754.8136	4937.35	4042.55
1002.0458	2756.0165	4898.85	4006.7
1002.1665	2757.2188	4889.4	3999.55
1002.2872	2758.4204	4876.4	3986.35
1002.4078	2759.6213	4878.05	3983.15
1002.5285	2760.8215	4869.2	3971.85
1002.649	2762.0211	4841.15	3949.85
1002.7696	2763.22	4826.4	3930.05
1002.8901	2764.4182	4800.85	3906.9
1003.0106	2765.6158	4787.05	3894.45
1003.131	2766.8127	4771.1	3877.9
1003.2514	2768.009	4748.35	3856.65
1003.3717	2769.2045	4741.4	3847.8
1003.492	2770.3994	4727	3834.05
1003.6123	2771.5936	4704.55	3812.4
1003.7325	2772.7872	4686.35	3796.55
1003.8527	2773.9801	4665.75	3773.95
1003.9729	2775.1723	4675.8	3767
1004.093	2776.3639	4643.85	3752.75
1004.2131	2777.5548	4629.9	3739.15
1004.3331	2778.745	4625.75	3734.2
1004.4531	2779.9346	4611.6	3720.5
1004.5731	2781.1235	4605.25	3712.7
1004.693	2782.3117	4589.95	3699.8
1004.8129	2783.4992	4581.1	3689.9
1004.9328	2784.6861	4566.25	3674.1
1005.0526	2785.8723	4563.9	3669.8
1005.1723	2787.0579	4550.35	3656.85
1005.2921	2788.2428	4550.65	3659.95
1005.4118	2789.427	4535.3	3643.85
1005.5314	2790.6106	4531.6	3641.25
1005.651	2791.7935	4514.05	3620.95
1005.7706	2792.9757	4512.8	3620.25
1005.8902	2794.1573	4523.05	3630.55
1006.0097	2795.3382	4491.8	3600.2
1006.1291	2796.5184	4517.35	3627.2
1006.2485	2797.698	4507.55	3612.95
1006.3679	2798.8769	4531.05	3638.5
1006.4873	2800.0551	4537.5	3644.25
1006.6066	2801.2327	4532.35	3638.7
1006.7258	2802.4096	4541.45	3649.8
1006.8451	2803.5859	4534.05	3643.85
1006.9642	2804.7615	4543.75	3652.55
1007.0834	2805.9364	4556.15	3666.65
1007.2025	2807.1106	4569.35	3678.6
1007.3216	2808.2842	4608.65	3716.7
1007.4406	2809.4572	4618.65	3727.2
1007.5596	2810.6294	4638.8	3745.3
1007.6785	2811.801	4653.8	3761.5
1007.7975	2812.972	4687.95	3798.15
1007.9163	2814.1423	4721.05	3829.95
1008.0352	2815.3119	4756.1	3863.6
1008.154	2816.4808	4796.9	3908.05
1008.2727	2817.6491	4829.8	3937.35
1008.3914	2818.8167	4870.65	3979.4
1008.5101	2819.9837	4909.85	4015
1008.6288	2821.15	4934.1	4044
1008.7474	2822.3157	4988.65	4097.95
1008.8659	2823.4807	5009.7	4117.7
1008.9844	2824.645	5061.2	4169.4
1009.1029	2825.8086	5073.2	4182.3
1009.2214	2826.9716	5098.15	4208.05
1009.3398	2828.134	5159.2	4267.95
1009.4581	2829.2957	5166.7	4275.95
1009.5764	2830.4567	5189.75	4299.7
1009.6947	2831.617	5198.75	4309.2
1009.813	2832.7767	5216.4	4325.6
1009.9312	2833.9358	5194	4302.4
1010.0493	2835.0941	5190.25	4295.4
1010.1675	2836.2519	5166	4273.8
1010.2855	2837.4089	5160.45	4267.05
1010.4036	2838.5653	5123.55	4232.9
1010.5216	2839.7211	5120.55	4231.6
1010.6396	2840.8761	5132.45	4239.9
1010.7575	2842.0306	5133.1	4244.15
1010.8754	2843.1843	5158.3	4265.1
1010.9932	2844.3374	5191.4	4302.1
1011.111	2845.4899	5240.4	4347.95
1011.2288	2846.6417	5303.4	4412.45
1011.3465	2847.7928	5388.95	4497.2
1011.4642	2848.9433	5463	4572.85
1011.5818	2850.0931	5528.1	4637.35
1011.6995	2851.2422	5602	4706.55
1011.817	2852.3907	5660.4	4770.45
1011.9345	2853.5385	5720.65	4828.15
1012.052	2854.6857	5796.75	4879.45
1012.1695	2855.8323	5820.05	4929.05
1012.2869	2856.9781	5846.2	4956.75
1012.4042	2858.1233	5888.1	4997.35
1012.5216	2859.2679	5930.15	5037.5
1012.6389	2860.4118	5955.35	5064.3
1012.7561	2861.555	5980.45	5082.55
1012.8733	2862.6976	6022.75	5130.25
1012.9905	2863.8395	6030.2	5140
1013.1076	2864.9808	6050.65	5160.1
1013.2247	2866.1214	6042.35	5151.6
1013.3417	2867.2614	6057.7	5168.1
1013.4587	2868.4007	6052.3	5160.35
1013.5757	2869.5393	6045.55	5153
1013.6926	2870.6773	6059.15	5163.9
1013.8095	2871.8146	6076.75	5182.35
1013.9263	2872.9513	6054.4	5160.95
1014.0431	2874.0874	6022.95	5131.85
1014.1599	2875.2227	6030.25	5139.45
1014.2766	2876.3574	5993.65	5103.5
1014.3933	2877.4915	5954.9	5063.2
1014.51	2878.6249	5914.65	5025.25
1014.6266	2879.7577	5896.65	5004.5
1014.7431	2880.8898	5873.55	4972.65
1014.8596	2882.0212	5822.25	4931.3
1014.9761	2883.152	5803.4	4910.7
1015.0925	2884.2821	5788.6	4897.9
1015.2089	2885.4116	5774.6	4886.45
1015.3253	2886.5405	5757.25	4866.1
1015.4416	2887.6686	5729.7	4834.9
1015.5579	2888.7962	5740.45	4848.8
1015.6741	2889.923	5752.45	4861.15
1015.7903	2891.0493	5732.3	4842.85
1015.9065	2892.1748	5726.4	4835.75
1016.0226	2893.2997	5753.6	4864.2
1016.1387	2894.424	5743.9	4853.6
1016.2547	2895.5476	5788.05	4895.6
1016.3707	2896.6706	5781.1	4888.35
1016.4866	2897.7929	5789.8	4896.55
1016.6025	2898.9145	5800.15	4907.9
1016.7184	2900.0355	5829.65	4938.95
1016.8342	2901.1559	5851.4	4960.55
1016.95	2902.2756	5873.8	4983.3
1017.0658	2903.3946	5891.2	5001.35
1017.1815	2904.513	5909.85	5015.05
1017.2971	2905.6308	5932.25	5040.45
1017.4127	2906.7479	5928.95	5037.95
1017.5283	2907.8643	5957.65	5066.35
1017.6439	2908.9801	5947.15	5057.7
1017.7594	2910.0953	5959.7	5069.1
1017.8748	2911.2098	5941.35	5047.75
1017.9902	2912.3236	5929.6	5029.65
1018.1056	2913.4368	5922.9	5026.85
1018.2209	2914.5494	5868.45	4977.15
1018.3362	2915.6613	5858.6	4963.3
1018.4515	2916.7725	5817.75	4923.95
1018.5667	2917.8831	5772.95	4880
1018.6819	2918.9931	5751	4856.4
1018.797	2920.1024	5699.85	4808
1018.9121	2921.211	5693.6	4802.9
1019.0271	2922.319	5636.6	4745.5
1019.1421	2923.4264	5630.8	4739.2
1019.2571	2924.5331	5615.7	4726.75
1019.372	2925.6391	5591.65	4702.95
1019.4869	2926.7445	5565.2	4675.8
1019.6017	2927.8493	5546.3	4655.3
1019.7165	2928.9534	5533.9	4641.95
1019.8313	2930.0569	5521	4628.05
1019.946	2931.1597	5507	4613.4
1020.0606	2932.2619	5487.05	4595.2
1020.1753	2933.3634	5483.7	4595.1
1020.2899	2934.4643	5456.3	4560.8
1020.4044	2935.5645	5439.95	4544.05
1020.5189	2936.6641	5403	4508.95
1020.6334	2937.763	5329.9	4440.2
1020.7478	2938.8613	5272.75	4381.3
1020.8622	2939.959	5187.75	4290.05
1020.9765	2941.056	5113.65	4223.25
1021.0908	2942.1523	5043.55	4153.7
1021.2051	2943.248	4933.85	4042.05
1021.3193	2944.3431	4836.7	3945.25
1021.4334	2945.4375	4717.2	3826.45
1021.5476	2946.5313	4613.2	3726.05
1021.6617	2947.6244	4496.4	3603.55
1021.7757	2948.7169	4395.3	3503.85
1021.8897	2949.8087	4302.45	3410.95
1022.0037	2950.8999	4184.85	3293.8
1022.1176	2951.9904	4103.25	3212.1
1022.2315	2953.0803	4006.35	3113.1
1022.3453	2954.1696	3938.7	3047.45
1022.4591	2955.2582	3876.8	2987.65
1022.5728	2956.3462	3821.45	2929.45
1022.6865	2957.4335	3786.95	2896.05
1022.8002	2958.5202	3735.8	2842.65
1022.9138	2959.6062	3701.5	2810.1
1023.0274	2960.6916	3675.1	2783.95
1023.141	2961.7764	3637.8	2746.3
1023.2545	2962.8605	3626.75	2735.6
1023.3679	2963.9439	3609.85	2720.5
1023.4813	2965.0267	3581.05	2689.15
1023.5947	2966.1089	3601.65	2687.15
1023.708	2967.1905	3549.25	2658.85
1023.8213	2968.2714	3551.8	2663.25
1023.9346	2969.3516	3526.05	2635.6
1024.0478	2970.4312	3528.95	2631.2
1024.1609	2971.5102	3525	2632.05
1024.274	2972.5885	3504.6	2615.3
1024.3871	2973.6662	3509.55	2612.05
1024.5002	2974.7432	3496.9	2606.1
1024.6132	2975.8196	3467.1	2575.9
1024.7261	2976.8954	3449.2	2561.15
1024.839	2977.9705	3451.5	2561.8
1024.9519	2979.045	3417.55	2526.85
1025.0647	2980.1188	3396.65	2506.15
1025.1775	2981.192	3374.8	2483.75
1025.2902	2982.2645	3338.15	2445.1
1025.4029	2983.3364	3320.3	2428
1025.5156	2984.4077	3281.2	2390.7
1025.6282	2985.4783	3263.35	2369.45
1025.7407	2986.5483	3204	2315
1025.8532	2987.6177	3176.65	2287.55
1025.9657	2988.6864	3138	2247.4
1026.0782	2989.7545	3078.2	2184.1
1026.1906	2990.8219	3046.6	2154.6
1026.3029	2991.8887	3008	2114.55
1026.4152	2992.9548	2982.55	2090.7
1026.5275	2994.0204	2926.85	2034.35
1026.6397	2995.0852	2899.45	2009.9
1026.7519	2996.1495	2880.2	1990.8
1026.864	2997.2131	2847.75	1958.1
1026.9761	2998.276	2819.45	1928.75
1027.0882	2999.3383	2804.1	1912.45
1027.2002	3000.4	2774.45	1882.85
1027.3122	3001.4611	2733.1	1842.2
1027.4241	3002.5215	2731.85	1838.6
1027.536	3003.5812	2710.1	1820
1027.6478	3004.6404	2701.6	1809.6
1027.7596	3005.6989	2682.5	1788.15
1027.8714	3006.7567	2677.15	1788.05
1027.9831	3007.8139	2671.95	1758.95
1028.0947	3008.8705	2637.4	1745.95
1028.2064	3009.9264	2630.8	1737.15
1028.3179	3010.9818	2623.15	1732.8
1028.4295	3012.0364	2611.4	1721.5
1028.541	3013.0905	2600.95	1709.85
1028.6524	3014.1439	2605.85	1715
1028.7638	3015.1966	2600	1709.3
1028.8752	3016.2487	2583.15	1694.15
1028.9865	3017.3002	2584.35	1687.6
1029.0978	3018.3511	2575.35	1687.2
1029.209	3019.4013	2577.55	1686.2
1029.3202	3020.4509	2568.15	1679.3
1029.4314	3021.4998	2566.1	1674.8
1029.5425	3022.5481	2548.65	1658.55
1029.6535	3023.5958	2548.5	1657.75
1029.7645	3024.6428	2543.1	1651.7
1029.8755	3025.6892	2551.35	1661.95
1029.9864	3026.735	2545.15	1655.4
1030.0973	3027.7802	2530.5	1641.35
1030.2082	3028.8247	2536.15	1644.55
1030.319	3029.8685	2515.05	1624.55
1030.4297	3030.9118	2513.15	1620.4
1030.5404	3031.9544	2519.6	1630.95
1030.6511	3032.9963	2519.35	1629.3
1030.7617	3034.0376	2524.05	1632.85
1030.8723	3035.0783	2524.6	1630.35
1030.9829	3036.1184	2517.45	1625.7
1031.0934	3037.1578	2524.75	1633.8
1031.2038	3038.1966	2524	1632.05
1031.3142	3039.2348	2510.9	1619.65
1031.4246	3040.2723	2508.75	1610.8
1031.5349	3041.3092	2504.3	1613.95
1031.6452	3042.3455	2500.2	1609.15
1031.7554	3043.3811	2484.25	1593.35
1031.8656	3044.4161	2471.65	1578.5
1031.9758	3045.4505	2461.65	1570.9
1032.0859	3046.4842	2450.9	1561.5
1032.1959	3047.5173	2437.7	1548.4
1032.3059	3048.5498	2426.15	1536.25
1032.4159	3049.5816	2432.3	1541.95
1032.5258	3050.6128	2417.95	1528
1032.6357	3051.6434	2400.35	1509.9
1032.7455	3052.6734	2391.2	1498.15
1032.8553	3053.7027	2388.2	1496.4
1032.9651	3054.7314	2374.9	1485.6
1033.0748	3055.7594	2353.55	1462.5
1033.1845	3056.7868	2344.15	1452.8
1033.2941	3057.8136	2331.2	1440.45
1033.4037	3058.8398	2326.2	1437.6
1033.5132	3059.8653	2332.15	1441.95
1033.6227	3060.8902	2304.05	1414.45
1033.7321	3061.9145	2297.1	1406.85
1033.8415	3062.9381	2294.05	1403.5
1033.9509	3063.9612	2295.3	1390.75
1034.0602	3064.9835	2271.95	1381.35
1034.1694	3066.0053	2259.9	1367.15
1034.2787	3067.0264	2254.9	1364.5
1034.3878	3068.0469	2239.75	1347.15
1034.497	3069.0668	2233.4	1340.65
1034.6061	3070.086	2215.65	1326.45
1034.7151	3071.1046	2210.65	1320.25
1034.8241	3072.1226	2190	1298.15
1034.9331	3073.1399	2183.4	1292.65
1035.042	3074.1567	2167.75	1277.5
1035.1508	3075.1727	2143.05	1252.35
1035.2597	3076.1882	2131.75	1243.55
1035.3684	3077.203	2122.55	1233.6
1035.4772	3078.2173	2108.3	1216.05
1035.5859	3079.2308	2108.35	1216.1
1035.6945	3080.2438	2097.45	1202.3
1035.8031	3081.2561	2069.4	1180.6
1035.9117	3082.2678	2060.8	1170.15
1036.0202	3083.2789	2054.6	1164.75
1036.1286	3084.2893	2050.95	1161.65
1036.2371	3085.2991	2038.6	1147.9
1036.3454	3086.3083	2046.1	1151.05
1036.4538	3087.3169	2020.15	1129
1036.562	3088.3248	2014	1120.75
1036.6703	3089.3321	1999.85	1105.1
1036.7785	3090.3388	1993.3	1104.15
1036.8866	3091.3449	1980.9	1090.1
1036.9948	3092.3503	1987.35	1095.85
1037.1028	3093.3551	1970	1081.3
1037.2108	3094.3593	1962.05	1073.95
1037.3188	3095.3629	1962.5	1073.1
1037.4267	3096.3658	1962.95	1072.2
1037.5346	3097.3681	1943.2	1053.05
1037.6425	3098.3698	1939.85	1046.45
1037.7503	3099.3708	1942.25	1043.95
1037.858	3100.3713	1921.4	1031.45
1037.9657	3101.3711	1914.85	1023.85
1038.0734	3102.3702	2017.7	1012.35
1038.181	3103.3688	1914	1022.8
1038.2886	3104.3667	1903.1	1012.6
1038.3961	3105.364	1881.1	991.35
1038.5036	3106.3607	1875.85	985.55
1038.611	3107.3568	1872.65	979.85
1038.7184	3108.3522	1867.75	977.8
1038.8257	3109.347	1868.1	976.5
1038.933	3110.3412	1870.25	974.6
1039.0403	3111.3348	1854.95	965.45
1039.1475	3112.3277	1853.05	963.5
1039.2547	3113.32	1837.2	948.1
1039.3618	3114.3117	1839.75	948.85
1039.4689	3115.3028	1820.55	929.3
1039.5759	3116.2932	1829.8	938.6
1039.6829	3117.2831	1825.1	927.8
1039.7898	3118.2723	1813.95	923.15
1039.8967	3119.2608	1812.2	923.5
1040.0035	3120.2488	1797.1	906.55
1040.1103	3121.2361	1794.4	903.05
1040.2171	3122.2229	1776.9	886.85
1040.3238	3123.209	1783.95	894.1
1040.4305	3124.1944	1781.9	892.35
1040.5371	3125.1793	1774.4	883.8
1040.6437	3126.1635	1776.95	888.25
1040.7502	3127.1471	1764.1	874
1040.8567	3128.1301	1761	870.45
1040.9631	3129.1125	1759	868.65
1041.0695	3130.0942	1761.75	869.5
1041.1759	3131.0753	1756.35	857.95
1041.2822	3132.0558	1746.75	854.2
1041.3884	3133.0357	1744.6	854.1
1041.4946	3134.015	1731.15	839.55
1041.6008	3134.9936	1734.95	844.4
1041.7069	3135.9716	1743.95	833.6
1041.813	3136.949	1729.15	839.85
1041.919	3137.9258	1728	831.5
1042.025	3138.902	1709.8	814.1
1042.1309	3139.8775	1706	815.9
1042.2368	3140.8524	1708.4	818.65
1042.3427	3141.8267	1702.4	808.8
1042.4485	3142.8004	1700.95	809.65
1042.5542	3143.7735	1700.4	804.55
1042.6599	3144.7459	1699.1	807.15
1042.7656	3145.7178	1689.85	799.1
1042.8712	3146.689	1687.85	800.75
1042.9768	3147.6596	1685.25	795.25
1043.0823	3148.6295	1675	786.35
1043.1878	3149.5989	1674.2	783.3
1043.2932	3150.5676	1671	781.05
1043.3986	3151.5357	1660.85	771.5
1043.5039	3152.5032	1658.4	768.9
1043.6092	3153.4701	1648.65	758.75
1043.7145	3154.4364	1646.8	751.6
1043.8197	3155.402	1644.65	755.6
1043.9248	3156.367	1639.45	750.1
1044.03	3157.3315	1669.8	738.15
1044.135	3158.2952	1633.8	743.7
1044.24	3159.2584	1623.7	735.9
1044.345	3160.221	1619.95	729.5
1044.4499	3161.1829	1621.35	733.05
1044.5548	3162.1442	1610.9	719.2
1044.6596	3163.105	1597.15	707.6
1044.7644	3164.065	1605.75	716.15
1044.8692	3165.0245	1596.1	701
1044.9739	3165.9834	1587.5	698.55
1045.0785	3166.9416	1588.95	699.7
1045.1831	3167.8993	1586.3	696.2
1045.2877	3168.8563	1577.35	686.45
1045.3922	3169.8127	1584.9	694.05
1045.4966	3170.7684	1576.7	685.65
1045.6011	3171.7236	1578.1	688.05
1045.7054	3172.6782	1564.65	674.35
1045.8098	3173.6321	1560.5	668.4
1045.914	3174.5854	1558.95	663.2
1046.0183	3175.5381	1563.7	671.95
1046.1224	3176.4902	1553.4	663.55
1046.2266	3177.4417	1550.65	661.9
1046.3307	3178.3926	1545.75	657.45
1046.4347	3179.3428	1541.55	651.65
1046.5387	3180.2924	1537.1	649.25
1046.6427	3181.2415	1534.1	643.55
1046.7466	3182.1899	1536.35	646.15
1046.8504	3183.1377	1532.35	642.9
1046.9542	3184.0848	1531.6	638.55
1047.058	3185.0314	1517.5	627.4
1047.1617	3185.9773	1517	627.75
1047.2654	3186.9227	1507.75	618.3
1047.369	3187.8674	1506.95	617.25
1047.4726	3188.8115	1510.15	616.2
1047.5761	3189.755	1510.9	620.3
1047.6796	3190.6979	1497.6	609.05
1047.783	3191.6402	1501.7	614.85
1047.8864	3192.5818	1493.5	604.9
1047.9898	3193.5229	1521	607.2
1048.0931	3194.4633	1490.55	599.25
1048.1963	3195.4031	1484.2	594.5
1048.2995	3196.3423	1485.6	595.7
1048.4027	3197.2809	1475	585.45
1048.5058	3198.2189	1476.8	586.55
1048.6089	3199.1563	1481.2	585.1
1048.7119	3200.0931	1471	580.75
1048.8148	3201.0292	1472.15	584.05
1048.9178	3201.9648	1461.5	573.3
1049.0206	3202.8997	1464.15	572.7
1049.1235	3203.834	1454.55	563.25
1049.2262	3204.7677	1454.25	564.9
1049.329	3205.7008	1461.9	570.65
1049.4317	3206.6333	1444.85	557.05
1049.5343	3207.5652	1452.9	561.55
1049.6369	3208.4964	1444.15	551.65
1049.7394	3209.4271	1447.85	559.95
1049.8419	3210.3571	1444.35	555
1049.9444	3211.2865	1447.7	553.9
1050.0468	3212.2154	1427.15	536.05
1050.1491	3213.1436	1425.85	532.25
1050.2514	3214.0712	1434.9	536.8
1050.3537	3214.9982	1428.7	539.7
1050.4559	3215.9246	1420.35	531.2
1050.5581	3216.8503	1418.05	531
1050.6602	3217.7755	1423.7	533.3
1050.7623	3218.7001	1421.75	533.7
1050.8643	3219.624	1418.15	527.35
1050.9663	3220.5473	1410.2	517.6
1051.0682	3221.4701	1408.6	518.2
1051.1701	3222.3922	1405.85	515.25
1051.2719	3223.3137	1400.75	511.35
1051.3737	3224.2346	1402.2	512.85
1051.4754	3225.1549	1392.95	505.2
1051.5771	3226.0746	1392.55	503.45
1051.6788	3226.9937	1395.95	504.45
1051.7804	3227.9121	1386	497.6
1051.8819	3228.83	1387.6	497.95
1051.9834	3229.7473	1379.55	489
1052.0849	3230.6639	1379.35	488.9
1052.1863	3231.5799	1378	488.7
1052.2876	3232.4954	1375.4	484.05
1052.3889	3233.4102	1371.65	484.1
1052.4902	3234.3244	1368.6	478.6
1052.5914	3235.238	1364.55	476.05
1052.6926	3236.151	1387.85	474.05
1052.7937	3237.0634	1364.4	476.75
1052.8948	3237.9752	1358.2	470.55
1052.9958	3238.8864	1359.6	467.6
1053.0968	3239.797	1355	467.1
1053.1977	3240.7069	1354.8	465.2
1053.2986	3241.6163	1345.75	454.65
1053.3994	3242.5251	1344.55	454.6
1053.5002	3243.4332	1344.95	454.35
1053.6009	3244.3408	1340.85	451.6
1053.7016	3245.2477	1336.55	447.9
1053.8022	3246.154	1331.1	439.45
1053.9028	3247.0598	1333.75	442.8
1054.0034	3247.9649	1330.45	441.7
1054.1039	3248.8694	1329.55	441.9
1054.2043	3249.7733	1322.9	434.1
1054.3047	3250.6766	1325.25	435.2
1054.4051	3251.5793	1315.1	424.15
1054.5054	3252.4814	1312.4	423.1
1054.6056	3253.3829	1319.35	431.65
1054.7058	3254.2838	1312.9	422.9
1054.806	3255.1841	1307.15	418.65
1054.9061	3256.0838	1300.95	411.4
1055.0061	3256.9829	1291.8	403.9
1055.1062	3257.8814	1298.1	406.2
1055.2061	3258.7792	1298.25	406.25
1055.306	3259.6765	1297.3	406.9
1055.4059	3260.5731	1284.15	395.45
1055.5057	3261.4692	1276.15	386.15
1055.6055	3262.3647	1273.05	383.5
1055.7052	3263.2595	1268.65	380.4
1055.8049	3264.1538	1269.05	379.95
1055.9045	3265.0474	1265	376.15
1056.0041	3265.9404	1253.55	364.95
1056.1036	3266.8329	1249.55	361.7
1056.2031	3267.7247	1249.95	350.65
1056.3025	3268.616	1233.25	344.6
1056.4019	3269.5066	1218.75	329
1056.5013	3270.3966	1213.7	322.7
1056.6005	3271.286	1199.85	312.55
