Software Version:	3.9.2.0
Unit SN:	10000200
Spectrometer SN:	6960
Date:	3/6/2024 10:54:15 AM
Data Line Index:	25
Spectral Points:	2048
Integration time (ms):	125
Averages:	20
Delay (ms):	30
Sequence Number:	1
Processing:	dark subtract
Laser Power (mW):	300
Laser Current (mA):	822
Laser Diode Temp (C):	25.1
Laser Case Temp (C):	27.8
System Temp (C):	27.7
Spectrometer Temp (C):	25.2
CCD Temp (C):	0.004
Secondary Temp (C):	20.001
Heatsink Temp (C):	23.503
CCDPCB Temp (C):	37.007
SecondaryPCB Temp (C):	34.284

Wavelength	RamanShift	Raw Counts	Dark Subtracted
787.061	30.1047	1108.3	694.75
787.2016	32.3739	1140.45	729.15
787.3422	34.6426	1185.95	771.15
787.4828	36.9109	1238.8	824.6
787.6235	39.1787	1288.7	870.15
787.7642	41.4461	1352.15	928
787.9049	43.7131	1404.3	977.85
788.0456	45.9796	1477.8	1048.55
788.1863	48.2456	1529.9	1094.4
788.3271	50.5112	1603.05	1166.2
788.4679	52.7764	1669.95	1231.2
788.6087	55.0411	1754.65	1310.35
788.7496	57.3054	1823.6	1373.2
788.8904	59.5692	1926.25	1474.6
789.0313	61.8326	2014.7	1559.05
789.1722	64.0955	2125.85	1665.65
789.3132	66.3579	2246.55	1782.85
789.4541	68.6199	2391.9	1924.75
789.5951	70.8815	2650.75	2180
789.7361	73.1426	3143	2668
789.8771	75.4032	4384.5	3906.6
790.0181	77.6634	7598.9	7115.3
790.1592	79.9231	15850.65	15361.1
790.3003	82.1824	51759.4	51261.25
790.4414	84.4412	65535	65019.65
790.5825	86.6995	65535	64995.4
790.7237	88.9574	65535	64974.6
790.8648	91.2148	65535	64956.5
791.006	93.4717	65535	64944.3
791.1472	95.7282	65535	64939.45
791.2885	97.9842	65535	64938.9
791.4297	100.2398	65535	64933.9
791.571	102.4949	65535	64932.95
791.7123	104.7495	65535	64929.15
791.8536	107.0036	65535	64928.45
791.9949	109.2573	65535	64928.4
792.1363	111.5105	65535	64926.45
792.2777	113.7632	65535	64925
792.4191	116.0154	65535	64913.85
792.5605	118.2672	65535	64919.85
792.7019	120.5185	65535	64920.9
792.8434	122.7693	65535	64918.2
792.9849	125.0197	65535	64913.25
793.1264	127.2696	65535	64911.6
793.2679	129.519	65535	64909.75
793.4094	131.7679	65535	64902
793.551	134.0163	65535	64901.15
793.6926	136.2642	65535	64893.9
793.8342	138.5117	65535	64887.7
793.9758	140.7587	65535	64891.1
794.1175	143.0052	65535	64891.2
794.2591	145.2512	65535	64889.35
794.4008	147.4967	65535	64888.4
794.5425	149.7417	65535	64886
794.6842	151.9863	65535	64881.85
794.826	154.2304	65535	64878.65
794.9677	156.4739	65535	64869.85
795.1095	158.717	65535	64873.7
795.2513	160.9596	65535	64871.3
795.3931	163.2017	65535	64868.4
795.535	165.4433	65535	64863
795.6768	167.6844	65535	64862.3
795.8187	169.925	65535	64860.9
795.9606	172.1651	65535	64857.85
796.1025	174.4047	65535	64854.8
796.2445	176.6439	65535	64852.6
796.3864	178.8825	65535	64853.15
796.5284	181.1206	65535	64845.1
796.6704	183.3582	65535	64844.75
796.8124	185.5954	65535	64842.35
796.9544	187.832	65535	64834.8
797.0965	190.0681	65535	64841.3
797.2386	192.3037	65535	64831.55
797.3806	194.5388	65535	64827.55
797.5228	196.7734	65535	64825.9
797.6649	199.0075	65535	64822.25
797.807	201.2411	65535	64820.8
797.9492	203.4742	65535	64824.65
798.0914	205.7068	65535	64816.35
798.2336	207.9389	65535	64817.95
798.3758	210.1704	65535	64812.25
798.518	212.4015	65535	64812.8
798.6603	214.632	65535	64817.9
798.8025	216.862	65535	64827.15
798.9448	219.0915	65535	64833.2
799.0871	221.3205	65535	64830.3
799.2294	223.549	65535	64838.45
799.3718	225.777	65535	64837
799.5141	228.0044	65535	64833.8
799.6565	230.2314	65535	64834.7
799.7989	232.4578	65535	64832.15
799.9413	234.6837	65535	64827.7
800.0837	236.909	65535	64825.2
800.2262	239.1339	65535	64799.5
800.3687	241.3582	65535	64813.65
800.5111	243.582	65535	64778.45
800.6536	245.8053	65535	64794.05
800.7961	248.0281	65535	64797.25
800.9387	250.2503	65535	64790.95
801.0812	252.472	65535	64789.1
801.2238	254.6932	65535	64786.35
801.3664	256.9139	65535	64785.05
801.509	259.134	65535	64785.55
801.6516	261.3536	65535	64784.25
801.7942	263.5727	65535	64783.35
801.9369	265.7912	65535	64786.4
802.0795	268.0092	65535	64781.8
802.2222	270.2267	65535	64781.95
802.3649	272.4436	65535	64778.9
802.5076	274.6601	65535	64775.25
802.6504	276.8759	65535	64777.4
802.7931	279.0913	65535	64776.45
802.9359	281.3061	65535	64771.3
803.0787	283.5204	65535	64770.5
803.2215	285.7341	65535	64770.5
803.3643	287.9473	65535	64753.85
803.5071	290.16	65535	64758.7
803.6499	292.3721	65535	64769.85
803.7928	294.5837	65535	64766.4
803.9357	296.7947	65535	64766.9
804.0786	299.0052	65535	64765.05
804.2215	301.2152	65535	64763.25
804.3644	303.4246	65535	64765.15
804.5074	305.6334	65535	64764.75
804.6503	307.8418	65535	64764.2
804.7933	310.0495	65535	64760.45
804.9363	312.2568	65535	64760.55
805.0793	314.4635	65535	64759.6
805.2223	316.6696	65535	64761.8
805.3653	318.8752	65535	64752.9
805.5084	321.0802	65535	64760.25
805.6514	323.2847	65535	64754.4
805.7945	325.4887	65535	64758.5
805.9376	327.692	65535	64754.55
806.0807	329.8949	65535	64753.85
806.2238	332.0972	65535	64751.6
806.367	334.2989	65535	64747.25
806.5101	336.5001	65535	64747.25
806.6533	338.7007	65535	64749.4
806.7965	340.9008	65535	64746.8
806.9397	343.1003	65535	64742.95
807.0829	345.2992	65535	64742.05
807.2261	347.4976	65535	64740.5
807.3693	349.6955	65535	64737.65
807.5126	351.8927	65535	64733.75
807.6559	354.0895	65535	64727.95
807.7991	356.2856	65535	64737.15
807.9424	358.4812	65535	64738.2
808.0857	360.6763	65535	64734.35
808.2291	362.8707	65535	64734.1
808.3724	365.0646	65535	64730.1
808.5158	367.258	65535	64731.45
808.6591	369.4508	65535	64725.45
808.8025	371.643	65535	64723.6
808.9459	373.8346	65535	64721.9
809.0893	376.0257	65535	64723.6
809.2327	378.2162	65535	64720.9
809.3762	380.4062	65535	64715.3
809.5196	382.5956	65535	64716.35
809.6631	384.7844	65535	64716.15
809.8066	386.9726	65535	64716.25
809.9501	389.1603	65535	64717.35
810.0936	391.3474	65535	64678.4
810.2371	393.5339	65535	64720.85
810.3806	395.7199	65535	64726.15
810.5241	397.9052	65535	64727.15
810.6677	400.09	65535	64726
810.8113	402.2743	65535	64726.6
810.9548	404.4579	65535	64728.05
811.0984	406.641	65535	64725.85
811.2421	408.8235	65535	64725.85
811.3857	411.0054	65535	64721.15
811.5293	413.1868	65535	64720.45
811.673	415.3675	65535	64718.45
811.8166	417.5477	65535	64718.25
811.9603	419.7273	65535	64713.55
812.104	421.9064	65535	64707.85
812.2477	424.0848	65535	64708.55
812.3914	426.2627	65535	64705.85
812.5351	428.4399	65535	64707.95
812.6788	430.6166	65535	64705.25
812.8226	432.7928	65535	64703.4
812.9663	434.9683	65535	64702.4
813.1101	437.1432	65535	64703
813.2539	439.3176	65535	64700.25
813.3977	441.4914	65535	64698.35
813.5415	443.6645	65535	64702.5
813.6853	445.8371	65535	64698.4
813.8291	448.0091	65535	64701.8
813.973	450.1806	65535	64701.85
814.1168	452.3514	65535	64698.25
814.2607	454.5216	65535	64691.15
814.4046	456.6913	65535	64701.1
814.5485	458.8603	65535	64700.95
814.6924	461.0288	65535	64697.7
814.8363	463.1967	65535	64698.55
814.9802	465.3639	65535	64696.95
815.1241	467.5306	65535	64694.5
815.2681	469.6967	65535	64696
815.412	471.8622	65535	64696.1
815.556	474.0271	65535	64696.6
815.7	476.1914	65535	64693
815.844	478.3551	65535	64693.85
815.988	480.5182	65535	64692.55
816.132	482.6807	65535	64695.15
816.276	484.8426	65535	64693.3
816.4201	487.0039	65535	64694.05
816.5641	489.1647	65535	64690
816.7082	491.3248	65535	64692.35
816.8522	493.4843	65535	64690.65
816.9963	495.6432	65535	64692.85
817.1404	497.8015	65535	64687.75
817.2845	499.9592	65535	64686.75
817.4286	502.1163	65535	64690.25
817.5727	504.2728	65535	64689.15
817.7168	506.4287	65535	64688.95
817.861	508.5839	65535	64689.6
818.0051	510.7386	65535	64688.15
818.1493	512.8927	65535	64682.9
818.2935	515.0461	65535	64685.4
818.4377	517.199	65535	64685.9
818.5818	519.3512	65535	64685.55
818.726	521.5029	65535	64676.8
818.8703	523.6539	65535	64683.35
819.0145	525.8043	65535	64680.9
819.1587	527.9541	65535	64681.5
819.303	530.1033	65535	64681.55
819.4472	532.2519	65535	64682.25
819.5915	534.3999	65535	64678.6
819.7357	536.5472	65535	64676.9
819.88	538.694	65535	64681.3
820.0243	540.8401	65535	64677.3
820.1686	542.9856	65535	64678.75
820.3129	545.1305	65535	64679.1
820.4572	547.2748	65535	64675.1
820.6016	549.4185	65535	64672.25
820.7459	551.5615	65535	64673.05
820.8902	553.704	65535	64672.9
821.0346	555.8458	65535	64675.9
821.1789	557.987	65535	64678.4
821.3233	560.1276	65535	64675.15
821.4677	562.2675	65535	64677.6
821.6121	564.4069	65535	64678.4
821.7565	566.5456	65535	64675.85
821.9009	568.6837	65535	64677.2
822.0453	570.8212	65535	64677.5
822.1897	572.958	65535	64674.05
822.3342	575.0942	65535	64677.85
822.4786	577.2299	65535	64673.05
822.6231	579.3648	65535	64675.2
822.7675	581.4992	65535	64675.35
822.912	583.6329	65535	64676.15
823.0565	585.766	65535	64675.75
823.201	587.8985	65535	64674.85
823.3454	590.0304	65535	64648.5
823.4899	592.1616	65535	64670.25
823.6345	594.2922	65535	64671.85
823.779	596.4222	65535	64670.2
823.9235	598.5515	65535	64669.2
824.068	600.6802	65535	64671.2
824.2126	602.8083	65535	64669.85
824.3571	604.9358	65535	64668.85
824.5017	607.0626	65535	64668.15
824.6462	609.1888	65535	64666.55
824.7908	611.3144	65535	64667.05
824.9354	613.4393	65535	64670.25
825.08	615.5636	65535	64664.95
825.2246	617.6873	65535	64668.55
825.3692	619.8103	65535	64665.7
825.5138	621.9327	65535	64664.8
825.6584	624.0544	65535	64665.35
825.803	626.1756	65535	64667.95
825.9477	628.2961	65535	64666.4
826.0923	630.4159	65535	64666.2
826.237	632.5351	65535	64665.55
826.3816	634.6537	65535	64662.35
826.5263	636.7716	65535	64663.7
826.6709	638.8889	65535	64661.85
826.8156	641.0056	65535	64661.2
826.9603	643.1216	65535	64661.85
827.105	645.237	65535	64655.1
827.2497	647.3518	65535	64661.8
827.3944	649.4659	65535	64664.25
827.5391	651.5793	65535	64664.45
827.6838	653.6922	65535	64662.45
827.8285	655.8043	65535	64662.25
827.9733	657.9159	65535	64660.55
828.118	660.0268	65535	64660.3
828.2627	662.137	65535	64659
828.4075	664.2466	65535	64657.85
828.5522	666.3556	65535	64658.35
828.697	668.4639	65535	64655.15
828.8418	670.5716	65535	64659.5
828.9865	672.6786	65535	64656.05
829.1313	674.785	65535	64658.05
829.2761	676.8907	65535	64656.2
829.4209	678.9958	65535	64657.85
829.5657	681.1002	65535	64656.85
829.7105	683.204	65535	64655.45
829.8553	685.3072	65535	64654.3
830.0001	687.4097	65535	64656.1
830.1449	689.5115	65535	64655.7
830.2898	691.6127	65535	64658.6
830.4346	693.7132	65535	64656.2
830.5794	695.8131	65535	64639.1
830.7243	697.9123	65535	64653
830.8691	700.0109	65535	64651.75
831.014	702.1089	65535	64653.05
831.1588	704.2061	65535	64651.55
831.3037	706.3028	65535	64652.9
831.4486	708.3987	65535	64652.85
831.5935	710.4941	65535	64654.3
831.7383	712.5887	65535	64652.55
831.8832	714.6827	65535	64650.35
832.0281	716.7761	65535	64655.55
832.173	718.8688	65535	64652.95
832.3179	720.9608	65535	64647.5
832.4628	723.0522	65535	64647.55
832.6077	725.1429	65535	64652.4
832.7527	727.233	65535	64650.75
832.8976	729.3224	65535	64652.95
833.0425	731.4112	65535	64650.85
833.1874	733.4993	65535	64646.85
833.3324	735.5867	65535	64649.25
833.4773	737.6735	65535	64649.45
833.6222	739.7596	65535	64649.65
833.7672	741.845	65535	64651.1
833.9122	743.9298	65535	64647.45
834.0571	746.014	65535	64648.95
834.2021	748.0974	65535	64649.1
834.347	750.1802	65535	64650.25
834.492	752.2624	65535	64648.95
834.637	754.3439	65535	64648.2
834.782	756.4247	65535	64638.5
834.9269	758.5048	65535	64646.65
835.0719	760.5843	65535	64647.15
835.2169	762.6631	65535	64650.35
835.3619	764.7413	65535	64647.1
835.5069	766.8188	65535	64644.45
835.6519	768.8956	65535	64647.3
835.7969	770.9718	65535	64648.45
835.9419	773.0473	65535	64648.7
836.0869	775.1221	65535	64647.55
836.232	777.1962	65535	64647.4
836.377	779.2697	65535	64643.9
836.522	781.3426	65535	64625.75
836.667	783.4147	65535	64646.6
836.8121	785.4862	65535	64649
836.9571	787.557	65535	64648.1
837.1021	789.6271	65535	64649.7
837.2472	791.6966	65535	64644.95
837.3922	793.7654	65535	64642.95
837.5373	795.8335	65535	64646.15
837.6823	797.901	65535	64646.1
837.8274	799.9678	65535	64640.4
837.9724	802.0339	65535	64647.15
838.1175	804.0993	65535	64634.7
838.2626	806.1641	65535	64645.15
838.4076	808.2282	65535	64645.6
838.5527	810.2916	65535	64640.55
838.6978	812.3544	65535	64648.2
838.8428	814.4164	65535	64648.45
838.9879	816.4778	65535	64645.2
839.133	818.5385	65535	64645.55
839.2781	820.5986	65535	64645.95
839.4232	822.658	65535	64643.4
839.5682	824.7166	65535	64644.1
839.7133	826.7747	65535	64646.75
839.8584	828.832	65535	64644.15
840.0035	830.8886	65535	64643.2
840.1486	832.9446	65535	64645.3
840.2937	834.9999	65535	64648.25
840.4388	837.0545	65535	64644
840.5839	839.1085	65535	64641.2
840.729	841.1618	65535	64638.75
840.8741	843.2143	65535	64645.1
841.0192	845.2662	65535	64644.3
841.1643	847.3175	65535	64645.1
841.3095	849.368	65535	64641.9
841.4546	851.4179	65535	64643.65
841.5997	853.467	65535	64645.75
841.7448	855.5155	65535	64642.55
841.8899	857.5633	65535	64643.55
842.0351	859.6105	65535	64642.95
842.1802	861.6569	65535	64641.4
842.3253	863.7027	65535	64641.25
842.4704	865.7478	65535	64641.2
842.6156	867.7922	65535	64643.85
842.7607	869.8359	65535	64641.95
842.9058	871.8789	65535	64641.45
843.0509	873.9212	65535	64608.7
843.1961	875.9629	65535	64640.45
843.3412	878.0039	65535	64640.1
843.4863	880.0441	65535	64641.6
843.6315	882.0837	65535	64641.65
843.7766	884.1226	65535	64641.65
843.9218	886.1609	65535	64641.55
844.0669	888.1984	65535	64642.2
844.212	890.2352	65535	64643.35
844.3572	892.2714	65535	64637.9
844.5023	894.3069	65535	64641.3
844.6475	896.3416	65535	64638.6
844.7926	898.3757	65535	64638.7
844.9377	900.4091	65535	64638.1
845.0829	902.4418	65535	64637.2
845.228	904.4739	65535	64635.5
845.3732	906.5052	65535	64640.7
845.5183	908.5358	65535	64640.6
845.6635	910.5658	65535	64639.05
845.8086	912.595	65535	64635.55
845.9538	914.6236	65535	64639.8
846.0989	916.6515	65535	64640.85
846.2441	918.6786	65535	64637.65
846.3892	920.7051	65535	64637.75
846.5344	922.7309	65535	64636.15
846.6795	924.756	65535	64640.05
846.8246	926.7804	65535	64636
846.9698	928.8041	65535	64633.95
847.1149	930.8272	65535	64639.55
847.2601	932.8495	65535	64635.6
847.4052	934.8711	65535	64635.3
847.5504	936.892	65535	64638.25
847.6955	938.9123	65535	64637.55
847.8407	940.9318	65535	64638.7
847.9858	942.9506	65535	64638.35
848.131	944.9688	65535	64639.3
848.2761	946.9862	65535	64641.35
848.4213	949.003	65535	64638.6
848.5664	951.019	65535	64639.25
848.7115	953.0344	65535	64636.45
848.8567	955.0491	65535	64638.45
849.0018	957.063	65535	64639.05
849.147	959.0763	65535	64638.05
849.2921	961.0888	65535	64635.65
849.4373	963.1007	65535	64636.05
849.5824	965.1119	65535	64638.45
849.7275	967.1223	65535	64639.45
849.8727	969.1321	65535	64639.8
850.0178	971.1412	65535	64641.35
850.1629	973.1495	65535	64638.55
850.3081	975.1572	65535	64602.3
850.4532	977.1641	65535	64635.25
850.5983	979.1704	65535	64635.7
850.7435	981.1759	65535	64634.45
850.8886	983.1808	65535	64637.6
851.0337	985.1849	65535	64627.6
851.1788	987.1884	65535	64634.05
851.324	989.1911	65535	64634.6
851.4691	991.1932	65535	64636.35
851.6142	993.1945	65535	64637.05
851.7593	995.1951	65535	64636.55
851.9045	997.1951	65535	64628.95
852.0496	999.1943	65535	64637.95
852.1947	1001.1928	65535	64637.6
852.3398	1003.1906	65535	64639.4
852.4849	1005.1877	65535	64637.5
852.63	1007.1841	65535	64638.95
852.7751	1009.1798	65535	64637.3
852.9202	1011.1748	65535	64636.2
853.0653	1013.1691	65535	64638.6
853.2104	1015.1627	65535	64635.75
853.3555	1017.1556	65535	64638.8
853.5006	1019.1477	65535	64636.7
853.6457	1021.1392	65535	64639.05
853.7908	1023.1299	65535	64635.35
853.9359	1025.12	65535	64636.4
854.081	1027.1093	65535	64640.55
854.2261	1029.0979	65535	64641.7
854.3712	1031.0859	65535	64639.6
854.5163	1033.0731	65535	64638.1
854.6613	1035.0596	65535	64639
854.8064	1037.0454	65535	64636.45
854.9515	1039.0304	65535	64637.85
855.0965	1041.0148	65535	64636.5
855.2416	1042.9985	65535	64635.95
855.3867	1044.9814	65535	64638.6
855.5317	1046.9636	65535	64633.4
855.6768	1048.9452	65535	64638.9
855.8219	1050.926	65535	64639.35
855.9669	1052.9061	65535	64640.65
856.112	1054.8855	65535	64636.15
856.257	1056.8642	65535	64635.85
856.4021	1058.8421	65535	64631.65
856.5471	1060.8194	65535	64635.55
856.6921	1062.7959	65535	64637
856.8372	1064.7717	65535	64635.6
856.9822	1066.7469	65535	64635.05
857.1272	1068.7213	65535	64635
857.2723	1070.695	65535	64637.8
857.4173	1072.6679	65535	64637.45
857.5623	1074.6402	65535	64636.9
857.7073	1076.6117	65535	64633
857.8523	1078.5826	65535	64636.55
857.9973	1080.5527	65535	64631.4
858.1423	1082.5221	65535	64636.65
858.2873	1084.4908	65535	64635.15
858.4323	1086.4587	65535	64635.35
858.5773	1088.426	65535	64637.45
858.7223	1090.3925	65535	64630.65
858.8673	1092.3584	65535	64636.2
859.0123	1094.3235	65535	64639.2
859.1573	1096.2879	65535	64636.2
859.3022	1098.2515	65535	64634.3
859.4472	1100.2145	65535	64635.45
859.5922	1102.1767	65535	64635.5
859.7371	1104.1382	65535	64635.55
859.8821	1106.099	65535	64634.6
860.027	1108.0591	65535	64635.45
860.172	1110.0185	65535	64634.85
860.3169	1111.9771	65535	64635.15
860.4619	1113.9351	65535	64635.85
860.6068	1115.8923	65535	64635.8
860.7517	1117.8488	65535	64636.3
860.8967	1119.8045	65535	64635.05
861.0416	1121.7596	65535	64634.45
861.1865	1123.7139	65535	64636.4
861.3314	1125.6675	65535	64636.8
861.4763	1127.6204	65535	64637.75
861.6212	1129.5726	65535	64633.85
861.7661	1131.524	65535	64636.15
861.911	1133.4748	65535	64635.95
862.0559	1135.4248	65535	64635.8
862.2008	1137.3741	65535	64634.75
862.3457	1139.3226	65535	64636.05
862.4905	1141.2705	65535	64638
862.6354	1143.2176	65535	64631.2
862.7803	1145.164	65535	64635.15
862.9251	1147.1097	65535	64636.3
863.07	1149.0546	65535	64635.25
863.2148	1150.9989	65535	64637.4
863.3597	1152.9424	65535	64634.3
863.5045	1154.8852	65535	64632.95
863.6493	1156.8272	65535	64636.65
863.7942	1158.7686	65535	64627.35
863.939	1160.7092	65535	64636.45
864.0838	1162.6491	65535	64630.55
864.2286	1164.5883	65535	64636.95
864.3734	1166.5267	65535	64635.45
864.5182	1168.4644	65535	64634.55
864.663	1170.4014	65535	64631.7
864.8078	1172.3377	65535	64636.85
864.9526	1174.2732	65535	64638.55
865.0974	1176.2081	65535	64636.3
865.2421	1178.1421	65535	64633.35
865.3869	1180.0755	65535	64637.45
865.5317	1182.0082	65535	64637.5
865.6764	1183.9401	65535	64635.8
865.8212	1185.8713	65535	64637.3
865.9659	1187.8017	65535	64636.6
866.1106	1189.7315	65535	64636.9
866.2554	1191.6605	65535	64610.2
866.4001	1193.5888	65535	64638.1
866.5448	1195.5163	65535	64638.4
866.6895	1197.4432	65535	64635.45
866.8342	1199.3693	65535	64636.5
866.9789	1201.2947	65535	64634.85
867.1236	1203.2193	65535	64631.4
867.2683	1205.1432	65535	64635.35
867.413	1207.0664	65535	64636.35
867.5576	1208.9889	65535	64632.7
867.7023	1210.9106	65535	64635.2
867.847	1212.8316	65535	64638.5
867.9916	1214.7519	65535	64628.85
868.1363	1216.6715	65535	64635.55
868.2809	1218.5903	65535	64637.55
868.4255	1220.5084	65535	64636.85
868.5701	1222.4257	65535	64638.2
868.7148	1224.3424	65535	64637.4
868.8594	1226.2583	65535	64630.95
869.004	1228.1735	65535	64634.9
869.1486	1230.0879	65535	64633.9
869.2932	1232.0016	65535	64638.55
869.4377	1233.9146	65535	64634.5
869.5823	1235.8269	65535	64636.15
869.7269	1237.7384	65535	64635.55
869.8715	1239.6492	65535	64637.1
870.016	1241.5592	65535	64632.9
870.1606	1243.4686	65535	64636.7
870.3051	1245.3772	65535	64634.7
870.4496	1247.285	65535	64636.9
870.5941	1249.1922	65535	64637.6
870.7387	1251.0986	65535	64637.85
870.8832	1253.0042	65535	64636.1
871.0277	1254.9092	65535	64634.4
871.1722	1256.8134	65535	64638.6
871.3167	1258.7169	65535	64636.5
871.4611	1260.6196	65535	64638.85
871.6056	1262.5216	65535	64633.55
871.7501	1264.4229	65535	64634.2
871.8945	1266.3234	65535	64637.85
872.039	1268.2232	65535	64635.15
872.1834	1270.1223	65535	64634.85
872.3278	1272.0207	65535	64635.95
872.4723	1273.9183	65535	64630.1
872.6167	1275.8151	65535	64635.45
872.7611	1277.7113	65535	64635.35
872.9055	1279.6067	65535	64636.85
873.0499	1281.5014	65535	64634.15
873.1943	1283.3953	65535	64634.75
873.3386	1285.2885	65535	64635.85
873.483	1287.181	65535	64634.4
873.6274	1289.0727	65535	64636.45
873.7717	1290.9637	65535	64635.95
873.9161	1292.854	65535	64638.05
874.0604	1294.7435	65535	64635.85
874.2047	1296.6323	65535	64636.55
874.349	1298.5204	65535	64631.8
874.4933	1300.4077	65535	64635.3
874.6376	1302.2943	65535	64635.4
874.7819	1304.1802	65535	64637.05
874.9262	1306.0653	65535	64636.05
875.0705	1307.9497	65535	64634.6
875.2147	1309.8333	65535	64637.45
875.359	1311.7162	65535	64635.55
875.5032	1313.5984	65535	64634.45
875.6475	1315.4798	65535	64626.9
875.7917	1317.3605	65535	64620.25
875.9359	1319.2405	65535	64633.8
876.0801	1321.1197	65535	64633.25
876.2243	1322.9982	65535	64630.7
876.3685	1324.876	65535	64636.6
876.5127	1326.753	65535	64636.4
876.6569	1328.6293	65535	64633.25
876.801	1330.5048	65535	64634.5
876.9452	1332.3796	65535	64639.05
877.0893	1334.2537	65535	64611.85
877.2335	1336.127	65535	64634.35
877.3776	1337.9996	65535	64634.85
877.5217	1339.8714	65535	64636.1
877.6658	1341.7426	65535	64590.65
877.8099	1343.6129	65535	64634.65
877.954	1345.4826	65535	64638.3
878.0981	1347.3515	65535	64631.9
878.2422	1349.2196	65535	64634.95
878.3862	1351.087	65535	64635.5
878.5303	1352.9537	65535	64635.2
878.6743	1354.8197	65535	64635.6
878.8184	1356.6849	65535	64633.4
878.9624	1358.5493	65535	64636.35
879.1064	1360.4131	65535	64635.7
879.2504	1362.276	65535	64635.2
879.3944	1364.1383	65535	64635.9
879.5384	1365.9998	65535	64630.4
879.6823	1367.8606	65535	64634.1
879.8263	1369.7206	65535	64635.95
879.9702	1371.5799	65535	64634.85
880.1142	1373.4384	65535	64635.5
880.2581	1375.2962	65535	64633.3
880.402	1377.1533	65535	64636.1
880.5459	1379.0096	65535	64635.7
880.6898	1380.8652	65535	64636.55
880.8337	1382.7201	65535	64635.75
880.9776	1384.5742	65535	64633.3
881.1215	1386.4275	65535	64632.3
881.2653	1388.2802	65535	64636.2
881.4092	1390.132	65535	64635.35
881.553	1391.9832	65535	64634.4
881.6968	1393.8336	65535	64635.85
881.8406	1395.6832	65535	64631.5
881.9844	1397.5322	65535	64635.3
882.1282	1399.3803	65535	64632
882.272	1401.2278	65535	64635.5
882.4158	1403.0745	65535	64636.55
882.5595	1404.9204	65535	64638.95
882.7033	1406.7656	65535	64634.6
882.847	1408.6101	65535	64634.85
882.9908	1410.4538	65535	64636.5
883.1345	1412.2968	65535	64634.45
883.2782	1414.139	65535	64635.35
883.4219	1415.9805	65535	64635.25
883.5656	1417.8213	65535	64630.15
883.7092	1419.6613	65535	64638.8
883.8529	1421.5006	65535	64635.95
883.9965	1423.3391	65535	64634.95
884.1402	1425.1769	65535	64636.15
884.2838	1427.0139	65535	64636.65
884.4274	1428.8502	65535	64633.1
884.571	1430.6858	65535	64636.4
884.7146	1432.5206	65535	64637.2
884.8582	1434.3547	65535	64635.35
885.0018	1436.188	65535	64635.5
885.1453	1438.0206	65535	64635.5
885.2889	1439.8524	65535	64637.75
885.4324	1441.6835	65535	64635.5
885.5759	1443.5139	65535	64635.65
885.7194	1445.3435	65535	64638.05
885.8629	1447.1724	65535	64636.95
886.0064	1449.0005	65535	64637.85
886.1499	1450.8279	65535	64633.8
886.2933	1452.6545	65535	64635.7
886.4368	1454.4804	65535	64638.2
886.5802	1456.3056	65535	64631.7
886.7237	1458.13	65535	64636.1
886.8671	1459.9536	65535	64635.75
887.0105	1461.7766	65535	64637.15
887.1539	1463.5987	65535	64634.7
887.2972	1465.4202	65535	64636.75
887.4406	1467.2409	65535	64633.45
887.584	1469.0608	65535	64637.35
887.7273	1470.88	65535	64635.7
887.8706	1472.6984	65535	64636.75
888.0139	1474.5161	65535	64634.35
888.1572	1476.3331	65535	64636.65
888.3005	1478.1493	65535	64636.95
888.4438	1479.9648	65535	64635.55
888.5871	1481.7795	65535	64637.1
888.7303	1483.5935	65535	64639.05
888.8736	1485.4067	65535	64636.35
889.0168	1487.2192	65535	64637.4
889.16	1489.031	65535	64631.7
889.3032	1490.842	65535	64636.15
889.4464	1492.6522	65535	64636.75
889.5896	1494.4618	65535	64633.75
889.7327	1496.2705	65535	64637.1
889.8759	1498.0785	65535	64635.25
890.019	1499.8858	65535	64635.7
890.1622	1501.6924	65535	64637.9
890.3053	1503.4981	65535	64636.6
890.4484	1505.3032	65535	64636.55
890.5914	1507.1075	65535	64636.3
890.7345	1508.911	65535	64634.7
890.8776	1510.7138	65535	64633.8
891.0206	1512.5159	65535	64634.05
891.1637	1514.3172	65535	64636.5
891.3067	1516.1178	65535	64637.55
891.4497	1517.9176	65535	64633.75
891.5927	1519.7166	65535	64637.3
891.7357	1521.515	65535	64632.9
891.8786	1523.3126	65535	64637.9
892.0216	1525.1094	65535	64637.05
892.1645	1526.9055	65535	64638
892.3074	1528.7008	65535	64638.75
892.4503	1530.4954	65535	64630.5
892.5932	1532.2893	65535	64637.3
892.7361	1534.0824	65535	64631.1
892.879	1535.8747	65535	64638.1
893.0218	1537.6663	65535	64636.7
893.1647	1539.4572	65524.45	64624.5
893.3075	1541.2473	65535	64636.65
893.4503	1543.0367	65535	64637.05
893.5931	1544.8253	65533.75	64633.2
893.7359	1546.6132	65535	64633.3
893.8787	1548.4003	65528.9	64622.2
894.0214	1550.1867	65519.65	64612.35
894.1642	1551.9723	65506.2	64603.3
894.3069	1553.7572	65515.3	64617.05
894.4496	1555.5414	65534.3	64637.8
894.5923	1557.3247	65237.35	64340.25
894.735	1559.1074	65516.35	64621
894.8777	1560.8893	65445.15	64548.3
895.0204	1562.6705	65485.25	64587.6
895.163	1564.4509	65257.1	64360.95
895.3056	1566.2305	65398.2	64502.45
895.4482	1568.0094	65495.55	64601.6
895.5908	1569.7876	65411.05	64517
895.7334	1571.565	65240.25	64343.6
895.876	1573.3417	65338.75	64443.05
896.0186	1575.1176	65316.45	64420.4
896.1611	1576.8928	65225	64328.7
896.3036	1578.6672	64890.7	63997.55
896.4461	1580.4409	65071.65	64175.8
896.5886	1582.2138	64632.05	63731.85
896.7311	1583.986	64769.1	63871.85
896.8736	1585.7575	64283.7	63388.75
897.0161	1587.5282	64462.65	63568.85
897.1585	1589.2981	64475.7	63581.45
897.3009	1591.0673	63909.35	63012.85
897.4433	1592.8358	63527.25	62631.75
897.5857	1594.6035	63988.75	63088.8
897.7281	1596.3704	64028.95	63134.15
897.8705	1598.1366	63131.05	62235.25
898.0128	1599.9021	62654.7	61761.5
898.1551	1601.6668	63410.6	62512.65
898.2975	1603.4308	62990.7	62092.85
898.4398	1605.194	63048.1	62147.45
898.5821	1606.9564	61994.9	61101.35
898.7243	1608.7182	62598.4	61699.7
898.8666	1610.4791	62063.6	61169.2
899.0088	1612.2394	62558.55	61666.75
899.1511	1613.9988	61898.25	61004.5
899.2933	1615.7576	62623.25	61728.05
899.4355	1617.5156	62610.75	61710.45
899.5776	1619.2728	63397.35	62502.55
899.7198	1621.0293	62202.7	61308.95
899.862	1622.785	62225.85	61326.55
900.0041	1624.54	62618.5	61721.15
900.1462	1626.2942	61954.55	61059.05
900.2883	1628.0477	60947.1	60047
900.4304	1629.8005	60328.75	59430.95
900.5725	1631.5525	60927	60032.45
900.7145	1633.3037	59769.25	58873.65
900.8566	1635.0542	59691.7	58796.65
900.9986	1636.804	60032.7	59138.15
901.1406	1638.553	59124.9	58122.1
901.2826	1640.3013	59308.2	58413.2
901.4245	1642.0488	58670.85	57774.35
901.5665	1643.7955	59026.05	58131.55
901.7085	1645.5416	58471.9	57578.7
901.8504	1647.2868	58154.7	57261.7
901.9923	1649.0313	58814.75	57921.95
902.1342	1650.7751	58427.6	57529.45
902.2761	1652.5181	58116.6	57221.05
902.4179	1654.2604	58202	57307.6
902.5598	1656.0019	58656.45	57761.75
902.7016	1657.7427	58429.4	57534.45
902.8434	1659.4828	58946.6	58051.95
902.9852	1661.222	58605.3	57709.6
903.127	1662.9606	58943.6	58051.3
903.2687	1664.6984	58277.45	57384.35
903.4105	1666.4354	58349.65	57454.05
903.5522	1668.1717	57255.3	56362
903.6939	1669.9072	56537.4	55643.3
903.8356	1671.642	56236.15	55339.5
903.9773	1673.3761	55899.05	55006.1
904.119	1675.1094	55510	54616.15
904.2606	1676.8419	55001.85	54108.65
904.4022	1678.5737	54798.75	53905.65
904.5439	1680.3048	54472.55	53579.9
904.6855	1682.0351	54202.85	53309.15
904.827	1683.7646	53855.05	52959.35
904.9686	1685.4934	53853.95	52960.15
905.1101	1687.2215	53110.35	52214.5
905.2517	1688.9488	53382.9	52487.7
905.3932	1690.6754	52412.1	51519.45
905.5347	1692.4012	52673.85	51779.85
905.6761	1694.1263	52506.1	51611.6
905.8176	1695.8506	52268.95	51376.05
905.9591	1697.5742	52087.15	51194
906.1005	1699.297	51849.15	50955.7
906.2419	1701.0191	51638.3	50745.7
906.3833	1702.7404	51313.85	50422.1
906.5246	1704.461	51075.75	50181.35
906.666	1706.1808	50892.25	49996.8
906.8073	1707.8999	50716.8	49821.95
906.9487	1709.6182	50491.25	49596.05
907.09	1711.3358	50447.35	49555.45
907.2313	1713.0527	50236.6	49344.2
907.3725	1714.7688	50095.1	49198
907.5138	1716.4841	49653.3	48758.45
907.655	1718.1987	49704.3	48805.9
907.7962	1719.9126	49481	48588.35
907.9374	1721.6257	49299.1	48403.75
908.0786	1723.338	49285.7	48391.05
908.2198	1725.0496	48789.65	47896.15
908.3609	1726.7605	48719.55	47827.95
908.502	1728.4706	48583.3	47687.8
908.6431	1730.18	48317.1	47420.05
908.7842	1731.8886	48172.45	47279.1
908.9253	1733.5964	48094.55	47182.55
909.0664	1735.3036	47948.1	47052.8
909.2074	1737.0099	47794.85	46902.4
909.3484	1738.7156	47626.6	46737.05
909.4894	1740.4204	47323.55	46429.85
909.6304	1742.1246	47260.4	46364.7
909.7714	1743.8279	47141.95	46249.8
909.9123	1745.5306	47078.3	46186.65
910.0532	1747.2325	46776	45883.85
910.1941	1748.9336	46655.25	45762.3
910.335	1750.634	46453.95	45558.7
910.4759	1752.3336	46392.55	45500.55
910.6168	1754.0325	46204.25	45312.45
910.7576	1755.7307	46112.6	45220.75
910.8984	1757.4281	46037.65	45144.9
911.0392	1759.1247	45977.25	45076.95
911.18	1760.8206	45821.4	44923.85
911.3208	1762.5158	45825.65	44928.8
911.4615	1764.2102	45520.75	44629.5
911.6022	1765.9039	45334.85	44443.35
911.7429	1767.5968	45225.4	44333.95
911.8836	1769.289	45059.45	44166.65
912.0243	1770.9804	44948.8	44053.8
912.1649	1772.6711	44891.7	43998.95
912.3056	1774.361	44721.6	43826.35
912.4462	1776.0502	44636.95	43743.15
912.5868	1777.7386	44479.4	43584.1
912.7274	1779.4263	44321.85	43428.15
912.8679	1781.1132	44304.15	43411.55
913.0084	1782.7994	44107.95	43214.15
913.149	1784.4849	43978.4	43086.8
913.2895	1786.1696	43827.2	42926.9
913.4299	1787.8535	43722.5	42831.4
913.5704	1789.5367	43589.95	42697.4
913.7108	1791.2192	43530.9	42639.1
913.8513	1792.9009	43265.7	42346
913.9917	1794.5818	43183.05	42289.75
914.132	1796.2621	43054.35	42161.3
914.2724	1797.9415	42939.15	42046.25
914.4128	1799.6202	42817.2	41921.5
914.5531	1801.2982	42674.3	41781.85
914.6934	1802.9755	42527.5	41633.4
914.8337	1804.6519	42478.55	41585.1
914.9739	1806.3277	42243.7	41352.25
915.1142	1808.0027	42090.3	41198.45
915.2544	1809.6769	42017.25	41127.1
915.3946	1811.3504	41871.75	40976.45
915.5348	1813.0231	41788.6	40894.5
915.675	1814.6951	41697.95	40805.3
915.8151	1816.3664	41635.05	40739.7
915.9553	1818.0369	41468.9	40574.75
916.0954	1819.7067	41365.2	40472.55
916.2355	1821.3757	41258.4	40362.75
916.3755	1823.044	41181.35	40291.4
916.5156	1824.7115	41073	40180.05
916.6556	1826.3783	40809.55	39918.25
916.7956	1828.0443	40700.35	39810.2
916.9356	1829.7096	40632.85	39739.25
917.0756	1831.3741	40553.8	39658.75
917.2155	1833.0379	40451.15	39558.7
917.3555	1834.701	40312.35	39416.3
917.4954	1836.3633	40181.15	39287.95
917.6353	1838.0248	40054.85	39162.15
917.7751	1839.6856	39972.55	39080
917.915	1841.3457	39969.4	39076.25
918.0548	1843.005	39785	38892.85
918.1946	1844.6636	39713.1	38823.2
918.3344	1846.3214	39541.4	38648.8
918.4742	1847.9785	39510.45	38618.6
918.6139	1849.6349	39340.7	38446.1
918.7537	1851.2904	39246.8	38344.15
918.8934	1852.9453	39145.95	38254.45
919.0331	1854.5994	39028.7	38134.25
919.1727	1856.2528	39072.45	38175.75
919.3124	1857.9054	38901.7	38008.4
919.452	1859.5572	38852.9	37961.05
919.5916	1861.2083	38730.8	37838
919.7312	1862.8587	38687.7	37797.1
919.8708	1864.5084	38515.45	37621.2
920.0103	1866.1572	38407.85	37517.25
920.1498	1867.8054	38238.05	37344.3
920.2893	1869.4528	38187.15	37294.7
920.4288	1871.0994	38042.7	37150.25
920.5683	1872.7453	37987.7	37093.5
920.7077	1874.3905	37858.8	36960.75
920.8471	1876.0349	37731.65	36839.55
920.9865	1877.6786	37679.9	36786.6
921.1259	1879.3215	37652.9	36761.6
921.2653	1880.9637	37513.45	36622.3
921.4046	1882.6051	37429.55	36537.15
921.5439	1884.2458	37316.15	36422.4
921.6832	1885.8858	37134.3	36240.95
921.8225	1887.525	37071.65	36179
921.9617	1889.1634	36860.95	35967.85
922.101	1890.8011	36742.7	35851.4
922.2402	1892.4381	36638.2	35747.85
922.3794	1894.0743	36576.85	35686.55
922.5185	1895.7098	36481.8	35589.15
922.6577	1897.3446	36387.05	35494.6
922.7968	1898.9786	36259.85	35360.5
922.9359	1900.6118	36164.8	35272.5
923.075	1902.2443	35950.35	35055.65
923.214	1903.8761	35905.2	35013.5
923.3531	1905.5071	35705.5	34813.25
923.4921	1907.1374	35633.25	34739.6
923.6311	1908.7669	35564.6	34674.1
923.77	1910.3957	35430	34537.75
923.909	1912.0237	35253.55	34361.55
924.0479	1913.651	35148.4	34254.2
924.1868	1915.2776	35074.5	34182.25
924.3257	1916.9034	34857.7	33966.35
924.4646	1918.5285	34699.8	33809.4
924.6034	1920.1528	34511.85	33620.6
924.7422	1921.7764	34471.25	33580.5
924.881	1923.3992	34344.55	33452.25
925.0198	1925.0213	34104.9	33212.85
925.1586	1926.6427	33917	33024.15
925.2973	1928.2633	33934.4	32934.85
925.436	1929.8832	33742.25	32845.15
925.5747	1931.5023	33596.85	32704.6
925.7134	1933.1207	33535.15	32641.8
925.852	1934.7383	33459.85	32567.45
925.9906	1936.3552	33322.6	32432.3
926.1292	1937.9714	33179.25	32288.15
926.2678	1939.5868	33046.95	32151.8
926.4064	1941.2015	32853.25	31960.4
926.5449	1942.8154	32746.4	31854.5
926.6834	1944.4286	32592.55	31700.7
926.8219	1946.041	32506.15	31594.3
926.9604	1947.6528	32341.2	31445
927.0988	1949.2637	32216.15	31322.85
927.2372	1950.8739	32066.65	31175.55
927.3756	1952.4834	32054.65	31163.6
927.514	1954.0921	31981.3	31087.05
927.6523	1955.7001	31838.65	30943
927.7907	1957.3074	31676.55	30784.55
927.929	1958.9139	31557.65	30670.6
928.0673	1960.5197	31450.5	30558.35
928.2055	1962.1247	31277.25	30385.65
928.3438	1963.729	31129.8	30239.2
928.482	1965.3325	31047.25	30132.65
928.6202	1966.9353	30911.3	30020.4
928.7584	1968.5374	30824.4	29931.9
928.8965	1970.1387	30710.05	29818.85
929.0346	1971.7393	30561.65	29670.8
929.1727	1973.3392	30530.55	29637.8
929.3108	1974.9383	30348.2	29457.1
929.4489	1976.5366	30195.8	29305.45
929.5869	1978.1342	30224.5	29333.15
929.7249	1979.7311	30121.35	29227.75
929.8629	1981.3273	29992.85	29097.45
930.0009	1982.9227	29890.95	28996.9
930.1388	1984.5173	29794.6	28902.6
930.2767	1986.1112	29611.8	28721.85
930.4146	1987.7044	29538.4	28648.5
930.5525	1989.2968	29455.7	28563.75
930.6904	1990.8885	29370.05	28476.85
930.8282	1992.4795	29265.9	28373.8
930.966	1994.0697	29139.65	28248.5
931.1038	1995.6592	29033	28141.45
931.2415	1997.2479	28912.8	28021.4
931.3793	1998.8359	28867.35	27974.45
931.517	2000.4232	28696.95	27805.1
931.6547	2002.0097	28603.85	27715.25
931.7923	2003.5955	28438.45	27547.75
931.93	2005.1805	28403.2	27509.95
932.0676	2006.7648	28317.55	27426.55
932.2052	2008.3484	28220.8	27329.75
932.3427	2009.9312	28281.9	27387.45
932.4803	2011.5133	28087.15	27197.45
932.6178	2013.0946	28047.65	27155.4
932.7553	2014.6752	27921.2	27031.35
932.8928	2016.2551	27847.4	26954.3
933.0302	2017.8342	27704.8	26812.95
933.1676	2019.4126	27600.9	26708.45
933.305	2020.9902	27487.4	26594.85
933.4424	2022.5672	27440.8	26548.4
933.5798	2024.1433	27387.05	26490.55
933.7171	2025.7188	27235.6	26344.35
933.8544	2027.2935	27178.05	26286.3
933.9917	2028.8674	27077.35	26185.85
934.129	2030.4406	26991.15	26101.05
934.2662	2032.0131	26828.25	25938.8
934.4034	2033.5849	26723.25	25825.95
934.5406	2035.1559	26707.7	25816.9
934.6778	2036.7261	26662	25772.25
934.8149	2038.2957	26532.35	25641.15
934.952	2039.8645	26502.5	25612.35
935.0891	2041.4325	26476.65	25582.65
935.2262	2042.9998	26301.65	25412.75
935.3632	2044.5664	26247.8	25355.65
935.5002	2046.1323	26142.6	25251.7
935.6372	2047.6974	26050.4	25160.85
935.7742	2049.2617	25956.8	25065.75
935.9111	2050.8254	25925.6	25014.35
936.048	2052.3883	25898.1	25006.65
936.1849	2053.9504	25807.25	24916.35
936.3218	2055.5118	25678.85	24787.35
936.4586	2057.0725	25559.1	24664.5
936.5955	2058.6325	25518.15	24626.3
936.7323	2060.1917	25414.3	24523
936.869	2061.7502	25340.1	24444.2
937.0058	2063.3079	25223.35	24334.2
937.1425	2064.8649	25170.65	24277.2
937.2792	2066.4212	25103.1	24210.1
937.4159	2067.9767	25021.2	24131.55
937.5525	2069.5315	24890.55	23999.95
937.6891	2071.0856	24751.45	23861.15
937.8257	2072.6389	24664.85	23772.95
937.9623	2074.1915	24587.6	23697.25
938.0989	2075.7433	24468.35	23576.65
938.2354	2077.2945	24376.8	23487.25
938.3719	2078.8448	24311.15	23420.8
938.5084	2080.3945	24216.7	23325.55
938.6448	2081.9434	24186.65	23296.05
938.7812	2083.4916	24112.7	23221.65
938.9176	2085.039	23991.2	23097.95
939.054	2086.5857	23902.95	23010.85
939.1903	2088.1317	23894.75	23002.6
939.3267	2089.677	23783.85	22891.65
939.463	2091.2215	23684.25	22791.85
939.5992	2092.7652	23672.45	22776.7
939.7355	2094.3083	23564.3	22670.65
939.8717	2095.8506	23527.7	22636.35
940.0079	2097.3921	23464.9	22575.25
940.1441	2098.933	23387.75	22496.55
940.2802	2100.4731	23327.45	22434.9
940.4163	2102.0124	23292	22393.05
940.5524	2103.5511	23244.5	22352
940.6885	2105.089	23148.3	22255.05
940.8245	2106.6261	23105	22213.9
940.9606	2108.1626	22986.25	22092.8
941.0965	2109.6983	22997.35	22076.25
941.2325	2111.2332	22864	21971.6
941.3684	2112.7675	22830.2	21936.25
941.5044	2114.301	22744.05	21851.35
941.6403	2115.8337	22705.3	21812.55
941.7761	2117.3657	22616.4	21724.8
941.912	2118.897	22590.8	21700.9
942.0478	2120.4276	22510.45	21612.9
942.1835	2121.9575	22362.6	21470.35
942.3193	2123.4866	22369.55	21463.35
942.455	2125.0149	22301.05	21407.35
942.5907	2126.5426	22140.9	21249.45
942.7264	2128.0695	22117.25	21221.8
942.8621	2129.5956	22041.1	21152.9
942.9977	2131.1211	22005.65	21110
943.1333	2132.6458	21900.5	21008.3
943.2689	2134.1698	21867.4	20974.15
943.4044	2135.693	21819.7	20924.65
943.54	2137.2155	21719.35	20822.3
943.6755	2138.7373	21680.65	20786.45
943.8109	2140.2584	21596.15	20704.1
943.9464	2141.7787	21510.6	20613.45
944.0818	2143.2983	21398.25	20507.8
944.2172	2144.8171	21313.3	20425.4
944.3526	2146.3353	21240	20347.85
944.4879	2147.8527	21171.5	20278.3
944.6232	2149.3693	21159.65	20268.75
944.7585	2150.8853	21038.6	20145.85
944.8938	2152.4005	20938.1	20046.75
945.029	2153.9149	20912.8	20019.55
945.1642	2155.4287	20866.4	19973.55
945.2994	2156.9417	20781.7	19890.6
945.4346	2158.454	20723.3	19829.2
945.5697	2159.9655	20653	19760.65
945.7048	2161.4764	20643.4	19753
945.8399	2162.9865	20555.7	19662.65
945.9749	2164.4958	20493	19600.85
946.1099	2166.0045	20436.5	19540.9
946.2449	2167.5124	20395.4	19503.2
946.3799	2169.0195	20346.9	19453.7
946.5148	2170.526	20290.25	19398.5
946.6498	2172.0317	20236.2	19343.25
946.7846	2173.5367	20143.75	19252.8
946.9195	2175.0409	20090.1	19197.55
947.0543	2176.5445	20044.3	19153.05
947.1891	2178.0473	19971.8	19079.9
947.3239	2179.5494	19874.4	18979.1
947.4587	2181.0507	19794.35	18902.85
947.5934	2182.5513	19724.8	18830.35
947.7281	2184.0512	19706.75	18815.95
947.8628	2185.5504	19665.4	18774.5
947.9974	2187.0488	19488.95	18597.4
948.132	2188.5465	19440.55	18550.3
948.2666	2190.0435	19348.1	18455.1
948.4012	2191.5397	19281.05	18387.65
948.5357	2193.0353	19210.05	18317.65
948.6702	2194.5301	19069	18176.65
948.8047	2196.0241	19053.25	18160.6
948.9392	2197.5175	19036.95	18145.5
949.0736	2199.0101	18942.4	18046.65
949.208	2200.502	18828.8	17940
949.3424	2201.9931	18759.1	17868.7
949.4767	2203.4835	18705.05	17812.2
949.611	2204.9733	18638.55	17739.7
949.7453	2206.4622	18610.9	17721.7
949.8796	2207.9505	18518.2	17622.65
950.0138	2209.438	18388.55	17497.9
950.148	2210.9248	18382.45	17488.55
950.2822	2212.4109	18275.75	17384.35
950.4164	2213.8962	18253.7	17359.5
950.5505	2215.3809	18216.55	17322.1
950.6846	2216.8648	18129.05	17237.55
950.8186	2218.3479	18041.65	17145.9
950.9527	2219.8304	17975.95	17079.85
951.0867	2221.3121	17942.5	17049.65
951.2207	2222.7931	17876	16985.25
951.3546	2224.2733	17774.05	16880.4
951.4886	2225.7529	17745.9	16855.1
951.6225	2227.2317	17669.4	16774.3
951.7563	2228.7098	17653.9	16762.3
951.8902	2230.1872	17549.05	16656.85
952.024	2231.6638	17543.85	16653.8
952.1578	2233.1397	17446.6	16549.35
952.2916	2234.6149	17389.5	16497.25
952.4253	2236.0894	17307.1	16414.2
952.559	2237.5632	17294.55	16393.45
952.6927	2239.0362	17175.7	16285.2
952.8263	2240.5085	17144.05	16251.4
952.9599	2241.9801	17072.3	16179.35
953.0935	2243.4509	17026.2	16136
953.2271	2244.921	16946.25	16054.85
953.3606	2246.3904	16883.7	15991
953.4941	2247.8591	16845.3	15953.7
953.6276	2249.3271	16774.75	15884.4
953.7611	2250.7943	16689.8	15796.15
953.8945	2252.2608	16622.75	15730.75
954.0279	2253.7266	16572.65	15680.5
954.1612	2255.1917	16531.95	15640.55
954.2946	2256.656	16452.8	15560.45
954.4279	2258.1197	16414.1	15523
954.5612	2259.5826	16373.7	15479.05
954.6944	2261.0447	16354.1	15461.55
954.8276	2262.5062	16269.9	15375.9
954.9608	2263.9669	16243.1	15349.65
955.094	2265.4269	16192.55	15301.65
955.2271	2266.8862	16139.35	15247.65
955.3602	2268.3448	16096.1	15204.4
955.4933	2269.8026	16067.75	15175.3
955.6264	2271.2598	16015.65	15124.6
955.7594	2272.7162	15917.25	15024
955.8924	2274.1719	15906.45	15016.45
956.0253	2275.6268	15826.45	14934.3
956.1583	2277.0811	15791.9	14899.55
956.2912	2278.5346	15752.35	14861.6
956.4241	2279.9874	15703.1	14811.15
956.5569	2281.4395	15697.95	14805.3
956.6897	2282.8908	15582.2	14684.95
956.8225	2284.3414	15554.2	14661.4
956.9553	2285.7914	15494.55	14604.6
957.088	2287.2406	15455.7	14561.6
957.2207	2288.689	15399.85	14508.85
957.3534	2290.1368	15319.05	14428.3
957.486	2291.5838	15276.15	14381.6
957.6186	2293.0302	15252.85	14360
957.7512	2294.4758	15170.65	14278.45
957.8838	2295.9206	15126.45	14231.85
958.0163	2297.3648	15106.3	14214.35
958.1488	2298.8082	15045.45	14151.55
958.2813	2300.251	15014.6	14123.85
958.4137	2301.693	14935.65	14040.7
958.5461	2303.1343	14919.1	14025.2
958.6785	2304.5748	14865.55	13973.8
958.8108	2306.0147	14817.1	13923.8
958.9432	2307.4538	14798.25	13903.9
959.0754	2308.8922	14710.95	13819.5
959.2077	2310.3299	14641.6	13752.3
959.3399	2311.7669	14618.15	13728
959.4721	2313.2031	14551.5	13659.6
959.6043	2314.6387	14487.85	13595.75
959.7365	2316.0735	14439.65	13547.4
959.8686	2317.5076	14431.7	13539.95
960.0006	2318.941	14354.65	13462.9
960.1327	2320.3737	14308.4	13416.75
960.2647	2321.8056	14277.75	13384.15
960.3967	2323.2369	14234.95	13341.8
960.5287	2324.6674	14188.75	13293.55
960.6606	2326.0972	14148.9	13255.25
960.7925	2327.5263	14081.75	13191.7
960.9244	2328.9547	14059.85	13168.15
961.0562	2330.3823	14009.5	13116.15
961.1881	2331.8092	13984.95	13088.65
961.3198	2333.2355	13911.35	13018.9
961.4516	2334.661	13874.2	12981.6
961.5833	2336.0858	13823.65	12929.45
961.715	2337.5098	13812.8	12919.65
961.8467	2338.9332	13791.85	12899.65
961.9783	2340.3558	13708.25	12813.65
962.1099	2341.7778	13645.55	12753.25
962.2415	2343.199	13611.95	12718.45
962.373	2344.6195	13550	12658.75
962.5045	2346.0393	13532.35	12643.15
962.636	2347.4583	13535.2	12643.5
962.7675	2348.8767	13447.45	12553.7
962.8989	2350.2943	13414.05	12518.8
963.0303	2351.7113	13406.85	12511.7
963.1617	2353.1275	13317.5	12424.85
963.293	2354.543	13332.85	12417.45
963.4243	2355.9578	13263.25	12369.85
963.5556	2357.3718	13156.75	12267.65
963.6868	2358.7852	13102.4	12208.95
963.818	2360.1978	13067	12175.2
963.9492	2361.6098	13027.7	12137.15
964.0803	2363.021	12968.35	12072.35
964.2114	2364.4315	12927.45	12035.4
964.3425	2365.8413	12891.4	11997.3
964.4736	2367.2504	12827.55	11936.8
964.6046	2368.6587	12756.25	11865.8
964.7356	2370.0664	12698.85	11808.3
964.8666	2371.4733	12652.05	11758.1
964.9975	2372.8795	12648.3	11757.55
965.1284	2374.285	12578.7	11685.7
965.2593	2375.6899	12493.75	11603.1
965.3901	2377.0939	12440	11548.3
965.5209	2378.4973	12381.65	11492.4
965.6517	2379.9	12362.65	11470.1
965.7825	2381.3019	12315.4	11424.45
965.9132	2382.7032	12261.4	11372.15
966.0439	2384.1037	12245.5	11356.5
966.1745	2385.5035	12186.75	11297.1
966.3051	2386.9027	12151	11261.3
966.4357	2388.3011	12130.85	11236.15
966.5663	2389.6987	12076.6	11184.2
966.6968	2391.0957	12074.65	11183.75
966.8273	2392.492	11994.85	11103.45
966.9578	2393.8876	11901.45	11009.4
967.0882	2395.2824	11883	10992.7
967.2186	2396.6765	11810.55	10919.6
967.349	2398.07	11749.2	10859.7
967.4793	2399.4627	11724.55	10833.1
967.6097	2400.8547	11690.9	10799.5
967.7399	2402.246	11663.55	10765.8
967.8702	2403.6366	11587	10697.8
968.0004	2405.0265	11530.35	10639.15
968.1306	2406.4156	11487.6	10593.65
968.2607	2407.8041	11473.75	10579.45
968.3909	2409.1918	11394.25	10500.05
968.521	2410.5789	11348.8	10456.7
968.651	2411.9652	11295.2	10402.45
968.781	2413.3508	11258.7	10368.1
968.911	2414.7358	11234.75	10342.2
969.041	2416.12	11185.3	10296.85
969.1709	2417.5035	11135.9	10246.35
969.3008	2418.8863	11083.8	10191.8
969.4307	2420.2684	11049.85	10159.4
969.5606	2421.6497	11026.15	10133.65
969.6904	2423.0304	10969.85	10080.4
969.8201	2424.4104	10954.35	10063.1
969.9499	2425.7896	10888.85	9988.8
970.0796	2427.1682	10852.35	9958.5
970.2093	2428.546	10843.8	9951.9
970.3389	2429.9232	10820.2	9929.35
970.4685	2431.2996	10771.45	9882.15
970.5981	2432.6753	10764	9874.5
970.7277	2434.0503	10720.15	9828.55
970.8572	2435.4246	10641.4	9752.15
970.9867	2436.7982	10641.85	9748.1
971.1161	2438.1711	10591.8	9699.55
971.2456	2439.5433	10551.4	9659.85
971.375	2440.9148	10482.55	9589.55
971.5043	2442.2856	10436.7	9545.95
971.6336	2443.6557	10441.9	9549.35
971.7629	2445.025	10402.35	9513.1
971.8922	2446.3937	10395.2	9501.95
972.0214	2447.7617	10326.65	9435.5
972.1506	2449.1289	10307.2	9415.9
972.2798	2450.4955	10271.65	9377.25
972.4089	2451.8613	10233.35	9342.85
972.538	2453.2265	10214.15	9322.5
972.6671	2454.5909	10206.3	9313.05
972.7961	2455.9546	10139.95	9248.1
972.9251	2457.3177	10114.5	9221.55
973.0541	2458.68	10091.25	9199.2
973.1831	2460.0416	10068.95	9176.9
973.312	2461.4025	10053.15	9160.15
973.4408	2462.7627	10019.2	9117.35
973.5697	2464.1222	9959.5	9069.9
973.6985	2465.4811	9952.45	9058.4
973.8273	2466.8392	9895.05	9002.65
973.956	2468.1966	9898.1	9001.8
974.0847	2469.5533	9873.55	8980.7
974.2134	2470.9093	9840.1	8947.3
974.3421	2472.2645	9802.6	8908.45
974.4707	2473.6191	9785.45	8895.75
974.5993	2474.973	9745.65	8852.85
974.7278	2476.3262	9699.8	8808.5
974.8563	2477.6787	9674.9	8783.45
974.9848	2479.0305	9611.8	8721.8
975.1132	2480.3816	9607.5	8715.65
975.2417	2481.7319	9564.2	8672.6
975.37	2483.0816	9497.45	8604.75
975.4984	2484.4306	9471.7	8580.15
975.6267	2485.7789	9422.5	8530.7
975.755	2487.1264	9400.3	8506.85
975.8833	2488.4733	9367.6	8476.7
976.0115	2489.8195	9330.3	8431.65
976.1397	2491.165	9308.25	8413.85
976.2678	2492.5097	9255.15	8361.9
976.3959	2493.8538	9226.15	8333.6
976.524	2495.1972	9182.2	8290.15
976.6521	2496.5398	9142.85	8250.05
976.7801	2497.8818	9135.75	8240.9
976.9081	2499.2231	9077.55	8185.95
977.036	2500.5637	9036	8144.5
977.164	2501.9035	9019.75	8125.55
977.2918	2503.2427	8983.05	8088.45
977.4197	2504.5812	8986.75	8094.05
977.5475	2505.919	8957.7	8064.65
977.6753	2507.256	8932.65	8041.5
977.8031	2508.5924	8862.85	7971.45
977.9308	2509.9281	8835.5	7936.7
978.0585	2511.2631	8806.6	7913.65
978.1861	2512.5974	8797.4	7906.35
978.3137	2513.9309	8754.65	7862.65
978.4413	2515.2638	8753.3	7827.85
978.5689	2516.596	8695.3	7803.85
978.6964	2517.9275	8661.25	7769.05
978.8239	2519.2583	8634.8	7743.7
978.9513	2520.5884	8585	7691.7
979.0788	2521.9178	8561.55	7669.4
979.2062	2523.2465	8530.35	7639.95
979.3335	2524.5745	8491.15	7600.75
979.4608	2525.9018	8476.15	7588.6
979.5881	2527.2284	8454.85	7564.05
979.7154	2528.5543	8441.55	7551.65
979.8426	2529.8796	8404.25	7513.7
979.9698	2531.2041	8371.15	7478.95
980.0969	2532.5279	8373.4	7481.65
980.224	2533.851	8314.35	7423.3
980.3511	2535.1735	8320.95	7430.45
980.4781	2536.4952	8261.4	7369.2
980.6052	2537.8163	8264.15	7373.65
980.7321	2539.1366	8232.05	7342.85
980.8591	2540.4562	8205.85	7314.2
980.986	2541.7752	8191.45	7299.7
981.1129	2543.0935	8167.65	7275
981.2397	2544.411	8156.7	7263.25
981.3665	2545.7279	8134.75	7243.95
981.4933	2547.0441	8116.25	7224.7
981.62	2548.3596	8092.5	7197.35
981.7467	2549.6744	8074.7	7184.25
981.8734	2550.9885	8057.25	7164.35
982.0001	2552.3019	8020.65	7130.2
982.1267	2553.6146	7994.45	7103
982.2532	2554.9266	7976.95	7085.1
982.3798	2556.2379	7942.3	7048.45
982.5063	2557.5485	7933.3	7041.2
982.6327	2558.8585	7930.6	7029.75
982.7592	2560.1677	7900	7002.45
982.8856	2561.4762	7879.85	6988.45
983.0119	2562.7841	7857.5	6964
983.1383	2564.0913	7844.15	6953.8
983.2646	2565.3977	7823.45	6934.55
983.3908	2566.7035	7784.8	6892.7
983.517	2568.0086	7797.9	6903.9
983.6432	2569.313	7757.9	6864.65
983.7694	2570.6167	7770.7	6873.85
983.8955	2571.9197	7724	6833
984.0216	2573.222	7699.95	6805.45
984.1476	2574.5236	7668.65	6776.05
984.2737	2575.8246	7647.75	6753.1
984.3996	2577.1248	7636.15	6740.15
984.5256	2578.4244	7633.65	6741.65
984.6515	2579.7232	7627.65	6736.05
984.7774	2581.0214	7633.7	6703.1
984.9032	2582.3189	7598.05	6706.65
985.029	2583.6157	7580.3	6684.8
985.1548	2584.9118	7545.55	6651.95
985.2806	2586.2072	7536.05	6644.95
985.4063	2587.5019	7494.6	6601.95
985.5319	2588.7959	7489.35	6596.65
985.6576	2590.0893	7497.35	6602.55
985.7832	2591.3819	7474.55	6581.7
985.9087	2592.6739	7415.6	6526.2
986.0343	2593.9652	7401.15	6507.5
986.1597	2595.2557	7391.55	6499.2
986.2852	2596.5456	7358.75	6464.8
986.4106	2597.8348	7332.35	6441.9
986.536	2599.1234	7291.85	6401
986.6614	2600.4112	7287.2	6395.65
986.7867	2601.6983	7260.45	6363.5
986.912	2602.9848	7204.95	6311.9
987.0372	2604.2705	7206.75	6309.2
987.1624	2605.5556	7178.3	6285.6
987.2876	2606.84	7136.85	6245.3
987.4128	2608.1237	7134.25	6240.25
987.5379	2609.4067	7100.5	6207.9
987.6629	2610.689	7094.85	6192.9
987.788	2611.9707	7069.4	6173.5
987.913	2613.2516	7028.6	6130.7
988.0379	2614.5319	7003.4	6111.9
988.1629	2615.8115	6974.1	6083.05
988.2878	2617.0903	6943.35	6048.9
988.4126	2618.3685	6911.6	6019.6
988.5375	2619.6461	6893.55	6002.05
988.6622	2620.9229	6862.7	5968.6
988.787	2622.199	6846.45	5953.55
988.9117	2623.4745	6841.35	5947.7
989.0364	2624.7493	6791.45	5899.35
989.161	2626.0234	6785.8	5894.7
989.2857	2627.2968	6763.45	5870.4
989.4102	2628.5695	6746.7	5853.85
989.5348	2629.8415	6709.9	5819.8
989.6593	2631.1128	6656.35	5762.7
989.7837	2632.3835	6663.8	5773.3
989.9082	2633.6535	6630.65	5738.55
990.0326	2634.9228	6589.75	5698.6
990.1569	2636.1914	6578.9	5686.4
990.2812	2637.4593	6568	5671.25
990.4055	2638.7265	6541	5647.9
990.5298	2639.9931	6518	5625.05
990.654	2641.259	6522.3	5629.5
990.7782	2642.5242	6493.4	5601.5
990.9023	2643.7887	6436.85	5543.9
991.0264	2645.0525	6462.3	5571.65
991.1505	2646.3156	6405.9	5514.5
991.2745	2647.5781	6391.95	5500.95
991.3985	2648.8398	6379.4	5487.85
991.5225	2650.1009	6349.2	5447.95
991.6464	2651.3613	6323.25	5431.3
991.7703	2652.6211	6316.2	5425.85
991.8942	2653.8801	6283.95	5394.55
992.018	2655.1385	6297.45	5402.8
992.1418	2656.3961	6277.5	5385.1
992.2655	2657.6531	6263.6	5370.85
992.3892	2658.9094	6252.35	5357.9
992.5129	2660.1651	6239.7	5347.75
992.6366	2661.42	6219.75	5327.5
992.7602	2662.6743	6183.65	5291.45
992.8837	2663.9279	6192.35	5301.3
993.0073	2665.1808	6156.1	5263.9
993.1307	2666.433	6151.2	5257.5
993.2542	2667.6846	6139.1	5248.5
993.3776	2668.9354	6109.9	5212.95
993.501	2670.1856	6100.1	5208.05
993.6244	2671.4351	6085.9	5193.8
993.7477	2672.6839	6055.35	5162.85
993.8709	2673.9321	6041.2	5149.35
993.9942	2675.1795	6045.95	5155.15
994.1174	2676.4263	6018.2	5126.55
994.2405	2677.6724	5993.1	5103.9
994.3637	2678.9179	5978.85	5087.3
994.4868	2680.1626	5980.15	5088.35
994.6098	2681.4067	5964.8	5073.1
994.7328	2682.6501	5923.95	5032.85
994.8558	2683.8928	5916.65	5024.4
994.9788	2685.1348	5885.85	4994.7
995.1017	2686.3761	5877.05	4987.5
995.2245	2687.6168	5851.65	4959.2
995.3474	2688.8568	5839.55	4949.4
995.4702	2690.0961	5806.25	4914.55
995.5929	2691.3348	5800.1	4907.3
995.7156	2692.5727	5782.55	4891.9
995.8383	2693.81	5755.05	4863.35
995.961	2695.0466	5745.85	4856.25
996.0836	2696.2826	5733.7	4841.8
996.2062	2697.5178	5726.9	4834.8
996.3287	2698.7524	5678.05	4785.7
996.4512	2699.9863	5677.95	4783
996.5737	2701.2195	5648.7	4759
996.6961	2702.452	5663.4	4770.8
996.8185	2703.6839	5626.55	4733.7
996.9408	2704.9151	5617.7	4729.05
997.0631	2706.1456	5606.4	4712.75
997.1854	2707.3755	5591.65	4699.2
997.3077	2708.6046	5576.65	4683.15
997.4299	2709.8331	5571.25	4677.65
997.552	2711.0609	5541.9	4648.45
997.6742	2712.2881	5537	4643.55
997.7963	2713.5145	5522.35	4629.05
997.9183	2714.7403	5531.2	4639.65
998.0403	2715.9654	5488.55	4596.5
998.1623	2717.1899	5490.5	4584.45
998.2842	2718.4136	5490.7	4598.6
998.4062	2719.6367	5473.35	4582.05
998.528	2720.8591	5468.35	4570.9
998.6498	2722.0809	5493.25	4600.95
998.7716	2723.3019	5463.65	4566.3
998.8934	2724.5223	5451.95	4560.45
999.0151	2725.7421	5441.6	4547.45
999.1368	2726.9611	5441.55	4546.95
999.2584	2728.1795	5412.3	4516.65
999.38	2729.3972	5380.15	4489.75
999.5016	2730.6142	5360.8	4462.75
999.6231	2731.8306	5323.4	4429.85
999.7446	2733.0462	5285.7	4390.6
999.8661	2734.2612	5249.7	4355.5
999.9875	2735.4756	5218.85	4325.4
1000.1089	2736.6892	5183.45	4290.45
1000.2302	2737.9022	5170.35	4279.2
1000.3515	2739.1145	5128.95	4237.6
1000.4728	2740.3262	5106.4	4206.8
1000.594	2741.5372	5079.9	4188.7
1000.7152	2742.7475	5041.3	4151.4
1000.8363	2743.9571	5010.5	4119.2
1000.9575	2745.1661	5020.35	4125.9
1001.0785	2746.3744	4984.9	4092.95
1001.1996	2747.582	4956.75	4064.7
1001.3206	2748.7889	4948.9	4055.8
1001.4415	2749.9952	4922	4030
1001.5625	2751.2008	4885.45	3992.3
1001.6833	2752.4057	4871.85	3977.85
1001.8042	2753.61	4873.4	3981.35
1001.925	2754.8136	4847.55	3954.75
1002.0458	2756.0165	4829.85	3937.6
1002.1665	2757.2188	4811.8	3919.4
1002.2872	2758.4204	4791	3899.5
1002.4078	2759.6213	4782.35	3888.05
1002.5285	2760.8215	4792.05	3898.7
1002.649	2762.0211	4767.45	3874.15
1002.7696	2763.22	4742.8	3847.9
1002.8901	2764.4182	4736.6	3843.65
1003.0106	2765.6158	4729.7	3838.3
1003.131	2766.8127	4716.45	3825.45
1003.2514	2768.009	4691.25	3799.75
1003.3717	2769.2045	4672.15	3779.55
1003.492	2770.3994	4669	3773.85
1003.6123	2771.5936	4646.8	3753.45
1003.7325	2772.7872	4618.7	3728.7
1003.8527	2773.9801	4593.4	3700.3
1003.9729	2775.1723	4610.8	3701.45
1004.093	2776.3639	4576.1	3685.2
1004.2131	2777.5548	4548.7	3656.15
1004.3331	2778.745	4537.1	3645.6
1004.4531	2779.9346	4531.25	3641.25
1004.5731	2781.1235	4540.75	3648
1004.693	2782.3117	4531.75	3641.1
1004.8129	2783.4992	4483.75	3591
1004.9328	2784.6861	4491.05	3598.85
1005.0526	2785.8723	4484.85	3592.6
1005.1723	2787.0579	4471.45	3578.25
1005.2921	2788.2428	4466.4	3575.35
1005.4118	2789.427	4465.5	3575.4
1005.5314	2790.6106	4469.8	3580
1005.651	2791.7935	4455.4	3563.25
1005.7706	2792.9757	4455.6	3565.25
1005.8902	2794.1573	4452.9	3559.55
1006.0097	2795.3382	4466.25	3573.2
1006.1291	2796.5184	4454.5	3563.7
1006.2485	2797.698	4451.8	3560.6
1006.3679	2798.8769	4468.85	3578.55
1006.4873	2800.0551	4470.85	3579.8
1006.6066	2801.2327	4459.15	3564
1006.7258	2802.4096	4457.9	3568.35
1006.8451	2803.5859	4465.25	3573.6
1006.9642	2804.7615	4463.15	3569.7
1007.0834	2805.9364	4501.25	3608.6
1007.2025	2807.1106	4521.65	3629.2
1007.3216	2808.2842	4530.25	3637.75
1007.4406	2809.4572	4555.8	3663.9
1007.5596	2810.6294	4564.8	3672.15
1007.6785	2811.801	4596	3706.8
1007.7975	2812.972	4626.25	3733.95
1007.9163	2814.1423	4665.05	3772.75
1008.0352	2815.3119	4690.25	3799.05
1008.154	2816.4808	4732.6	3840.65
1008.2727	2817.6491	4780.25	3885.45
1008.3914	2818.8167	4808.2	3914.85
1008.5101	2819.9837	4815.65	3919.95
1008.6288	2821.15	4881	3987.9
1008.7474	2822.3157	4913.95	4020.95
1008.8659	2823.4807	4942.15	4049.2
1008.9844	2824.645	4977.85	4085.65
1009.1029	2825.8086	4999.75	4110.25
1009.2214	2826.9716	5051.5	4160.05
1009.3398	2828.134	5082	4190.05
1009.4581	2829.2957	5102.15	4210.1
1009.5764	2830.4567	5135.55	4247.25
1009.6947	2831.617	5126.45	4236.45
1009.813	2832.7767	5125.05	4235.8
1009.9312	2833.9358	5120.3	4230.55
1010.0493	2835.0941	5127.1	4234.9
1010.1675	2836.2519	5107	4214.65
1010.2855	2837.4089	5085.95	4191.9
1010.4036	2838.5653	5062.9	4169.5
1010.5216	2839.7211	5050.75	4159.75
1010.6396	2840.8761	5070.6	4175.9
1010.7575	2842.0306	5069.7	4180.2
1010.8754	2843.1843	5101.4	4212
1010.9932	2844.3374	5138.5	4249.4
1011.111	2845.4899	5193.9	4301.95
1011.2288	2846.6417	5254.15	4361.1
1011.3465	2847.7928	5306.1	4415.45
1011.4642	2848.9433	5386.1	4496.95
1011.5818	2850.0931	5456.05	4564.95
1011.6995	2851.2422	5550.95	4655.95
1011.817	2852.3907	5610.6	4717.9
1011.9345	2853.5385	5673	4779.7
1012.052	2854.6857	5744.05	4824.75
1012.1695	2855.8323	5763.4	4874.95
1012.2869	2856.9781	5791.55	4902.4
1012.4042	2858.1233	5831.9	4942.3
1012.5216	2859.2679	5869.6	4979.25
1012.6389	2860.4118	5906.05	5015.2
1012.7561	2861.555	5931.8	5033.7
1012.8733	2862.6976	5955.6	5063.9
1012.9905	2863.8395	5969.05	5076.85
1013.1076	2864.9808	5986.75	5094.5
1013.2247	2866.1214	5993.85	5104.7
1013.3417	2867.2614	6002	5111.15
1013.4587	2868.4007	5993.95	5101.85
1013.5757	2869.5393	5984.05	5091.6
1013.6926	2870.6773	5999.5	5106.25
1013.8095	2871.8146	6011.5	5116.7
1013.9263	2872.9513	5984.9	5091.6
1014.0431	2874.0874	5978.55	5087.95
1014.1599	2875.2227	5954.8	5064.25
1014.2766	2876.3574	5930.6	5038.7
1014.3933	2877.4915	5910.15	5019.65
1014.51	2878.6249	5850.4	4960.05
1014.6266	2879.7577	5840.1	4948.6
1014.7431	2880.8898	5822.2	4920.15
1014.8596	2882.0212	5777.8	4886.9
1014.9761	2883.152	5750.35	4858.65
1015.0925	2884.2821	5716	4826.3
1015.2089	2885.4116	5711.1	4820.15
1015.3253	2886.5405	5697.45	4806.95
1015.4416	2887.6686	5687.9	4791.8
1015.5579	2888.7962	5696.6	4805.35
1015.6741	2889.923	5693.25	4803.2
1015.7903	2891.0493	5697.9	4807.9
1015.9065	2892.1748	5687.25	4795.1
1016.0226	2893.2997	5672.7	4781.5
1016.1387	2894.424	5674.55	4784.05
1016.2547	2895.5476	5693.9	4803.15
1016.3707	2896.6706	5716.05	4825.5
1016.4866	2897.7929	5747.05	4855.3
1016.6025	2898.9145	5755.2	4864
1016.7184	2900.0355	5770.45	4878.85
1016.8342	2901.1559	5807.95	4916.1
1016.95	2902.2756	5832.9	4943.5
1017.0658	2903.3946	5859.9	4968.75
1017.1815	2904.513	5859.3	4966.3
1017.2971	2905.6308	5882.55	4993.05
1017.4127	2906.7479	5886.1	4995.05
1017.5283	2907.8643	5904.1	5011.7
1017.6439	2908.9801	5902.75	5010.4
1017.7594	2910.0953	5907.95	5017.55
1017.8748	2911.2098	5899.9	5004.45
1017.9902	2912.3236	5903.35	5004.05
1018.1056	2913.4368	5867.85	4974.05
1018.2209	2914.5494	5835.4	4944.2
1018.3362	2915.6613	5808.05	4910.4
1018.4515	2916.7725	5788.5	4894.05
1018.5667	2917.8831	5735.8	4844
1018.6819	2918.9931	5683.15	4790.65
1018.797	2920.1024	5662.75	4770.2
1018.9121	2921.211	5636.65	4746.25
1019.0271	2922.319	5593.45	4703.3
1019.1421	2923.4264	5587.35	4697.65
1019.2571	2924.5331	5572.95	4682.7
1019.372	2925.6391	5520.05	4627.6
1019.4869	2926.7445	5530.2	4638.4
1019.6017	2927.8493	5526.05	4635.45
1019.7165	2928.9534	5519.8	4627.6
1019.8313	2930.0569	5469.4	4574.5
1019.946	2931.1597	5462.7	4570.2
1020.0606	2932.2619	5456.95	4565.7
1020.1753	2933.3634	5423.05	4532.75
1020.2899	2934.4643	5422.05	4525.05
1020.4044	2935.5645	5401.45	4502.85
1020.5189	2936.6641	5350.65	4456.35
1020.6334	2937.763	5276.9	4388.15
1020.7478	2938.8613	5230.45	4338.05
1020.8622	2939.959	5171	4272.95
1020.9765	2941.056	5087.15	4194.85
1021.0908	2942.1523	5004.6	4110.65
1021.2051	2943.248	4899.45	4007.95
1021.3193	2944.3431	4804.4	3913.8
1021.4334	2945.4375	4683.45	3790.9
1021.5476	2946.5313	4573.7	3684.4
1021.6617	2947.6244	4472.05	3581.7
1021.7757	2948.7169	4350.35	3458.15
1021.8897	2949.8087	4258.65	3367.3
1022.0037	2950.8999	4157.65	3266.05
1022.1176	2951.9904	4070.25	3182.3
1022.2315	2953.0803	3979.65	3089.45
1022.3453	2954.1696	3908.45	3017.6
1022.4591	2955.2582	3835.05	2945.25
1022.5728	2956.3462	3792.9	2902.8
1022.6865	2957.4335	3729.5	2838.2
1022.8002	2958.5202	3701.2	2805.7
1022.9138	2959.6062	3669.35	2777.65
1023.0274	2960.6916	3623.95	2733.85
1023.141	2961.7764	3608.8	2716.8
1023.2545	2962.8605	3579.95	2688.65
1023.3679	2963.9439	3550.85	2660.9
1023.4813	2965.0267	3528.85	2638.45
1023.5947	2966.1089	3552.95	2639.05
1023.708	2967.1905	3506.75	2615.15
1023.8213	2968.2714	3499.45	2608.95
1023.9346	2969.3516	3498.1	2608.55
1024.0478	2970.4312	3489.4	2592.8
1024.1609	2971.5102	3493.25	2601.2
1024.274	2972.5885	3467.7	2577.25
1024.3871	2973.6662	3475.25	2578
1024.5002	2974.7432	3459.2	2569.45
1024.6132	2975.8196	3430.8	2540.25
1024.7261	2976.8954	3438.5	2548.55
1024.839	2977.9705	3395.2	2505.1
1024.9519	2979.045	3382.85	2494.5
1025.0647	2980.1188	3359.35	2468.35
1025.1775	2981.192	3338.75	2448.85
1025.2902	2982.2645	3315	2422.5
1025.4029	2983.3364	3276.95	2385.2
1025.5156	2984.4077	3241.95	2352.35
1025.6282	2985.4783	3221.6	2326.1
1025.7407	2986.5483	3171.25	2281.15
1025.8532	2987.6177	3133.05	2244.35
1025.9657	2988.6864	3088	2197.8
1026.0782	2989.7545	3054.15	2161.2
1026.1906	2990.8219	3024.75	2132.2
1026.3029	2991.8887	2981.5	2086.9
1026.4152	2992.9548	2954	2061.95
1026.5275	2994.0204	2905.65	2016.15
1026.6397	2995.0852	2877.55	1989.65
1026.7519	2996.1495	2844.35	1953.85
1026.864	2997.2131	2813.8	1922.8
1026.9761	2998.276	2792.6	1901.15
1027.0882	2999.3383	2763.25	1870.2
1027.2002	3000.4	2738.25	1847.85
1027.3122	3001.4611	2719.25	1829.3
1027.4241	3002.5215	2699.3	1808.5
1027.536	3003.5812	2677.5	1787.05
1027.6478	3004.6404	2662.75	1770.45
1027.7596	3005.6989	2661.9	1770.55
1027.8714	3006.7567	2637.3	1747.05
1027.9831	3007.8139	2649.25	1738.05
1028.0947	3008.8705	2620.95	1730.6
1028.2064	3009.9264	2615.65	1723.4
1028.3179	3010.9818	2599.3	1708.1
1028.4295	3012.0364	2592.05	1702.65
1028.541	3013.0905	2568.7	1677.3
1028.6524	3014.1439	2561.7	1671.85
1028.7638	3015.1966	2560.4	1670.2
1028.8752	3016.2487	2549.05	1659.45
1028.9865	3017.3002	2554.7	1657.95
1029.0978	3018.3511	2539.75	1648.6
1029.209	3019.4013	2534.65	1643.5
1029.3202	3020.4509	2537.3	1646.85
1029.4314	3021.4998	2541.2	1651
1029.5425	3022.5481	2535.35	1646.05
1029.6535	3023.5958	2521.9	1629.3
1029.7645	3024.6428	2525.6	1634.55
1029.8755	3025.6892	2513.1	1621.75
1029.9864	3026.735	2513.65	1623.45
1030.0973	3027.7802	2499.1	1607.55
1030.2082	3028.8247	2498.4	1605.85
1030.319	3029.8685	2498.1	1605.1
1030.4297	3030.9118	2502.25	1609.3
1030.5404	3031.9544	2491.25	1601.85
1030.6511	3032.9963	2495.65	1607.35
1030.7617	3034.0376	2498.8	1609.65
1030.8723	3035.0783	2491	1600.35
1030.9829	3036.1184	2496.5	1602.05
1031.0934	3037.1578	2490.8	1601.25
1031.2038	3038.1966	2489.75	1598
1031.3142	3039.2348	2488.5	1599.45
1031.4246	3040.2723	2493	1593.4
1031.5349	3041.3092	2477.05	1587
1031.6452	3042.3455	2470.65	1580
1031.7554	3043.3811	2461.6	1568.1
1031.8656	3044.4161	2457.65	1567.2
1031.9758	3045.4505	2447.7	1558.1
1032.0859	3046.4842	2429.1	1537.8
1032.1959	3047.5173	2429.45	1540.5
1032.3059	3048.5498	2403.75	1512
1032.4159	3049.5816	2387.45	1498
1032.5258	3050.6128	2389.5	1500.45
1032.6357	3051.6434	2375.65	1483.4
1032.7455	3052.6734	2366.35	1473.65
1032.8553	3053.7027	2366.05	1475.35
1032.9651	3054.7314	2338.9	1448.65
1033.0748	3055.7594	2328.6	1438.85
1033.1845	3056.7868	2320.85	1428.65
1033.2941	3057.8136	2314.85	1426
1033.4037	3058.8398	2300.1	1409.65
1033.5132	3059.8653	2298.2	1408.15
1033.6227	3060.8902	2283.55	1393.55
1033.7321	3061.9145	2273.3	1381.25
1033.8415	3062.9381	2283.25	1393.05
1033.9509	3063.9612	2272.2	1367.9
1034.0602	3064.9835	2243.4	1351.35
1034.1694	3066.0053	2233.55	1340.5
1034.2787	3067.0264	2230.75	1340.3
1034.3878	3068.0469	2209.95	1318.5
1034.497	3069.0668	2209.6	1317.1
1034.6061	3070.086	2193.25	1304.1
1034.7151	3071.1046	2180.6	1290.05
1034.8241	3072.1226	2168.5	1277.1
1034.9331	3073.1399	2145.3	1255.55
1035.042	3074.1567	2141.2	1250.85
1035.1508	3075.1727	2126.15	1233.9
1035.2597	3076.1882	2123.3	1231.4
1035.3684	3077.203	2106.6	1217.9
1035.4772	3078.2173	2094.05	1202.75
1035.5859	3079.2308	2084.15	1192
1035.6945	3080.2438	2074.9	1181.3
1035.8031	3081.2561	2054.4	1162.25
1035.9117	3082.2678	2044.1	1153.85
1036.0202	3083.2789	2032.5	1141.3
1036.1286	3084.2893	2027.2	1137.4
1036.2371	3085.2991	2014.8	1122.65
1036.3454	3086.3083	2008.1	1114.25
1036.4538	3087.3169	2000.7	1107.65
1036.562	3088.3248	1992.5	1100
1036.6703	3089.3321	1975.8	1083.4
1036.7785	3090.3388	1971.5	1079.1
1036.8866	3091.3449	1966.65	1074.9
1036.9948	3092.3503	1962.9	1071.25
1037.1028	3093.3551	1943.8	1054.4
1037.2108	3094.3593	1949.8	1061.6
1037.3188	3095.3629	1933.2	1044.3
1037.4267	3096.3658	1929.9	1039.35
1037.5346	3097.3681	1911.4	1021.05
1037.6425	3098.3698	1916.3	1024.65
1037.7503	3099.3708	1906.25	1009.8
1037.858	3100.3713	1895.85	1006.65
1037.9657	3101.3711	1896.2	1005.2
1038.0734	3102.3702	1993	986.45
1038.181	3103.3688	1893.85	1001.15
1038.2886	3104.3667	1877.05	987.2
1038.3961	3105.364	1862.55	973.5
1038.5036	3106.3607	1862.05	968.95
1038.611	3107.3568	1857.85	965.45
1038.7184	3108.3522	1849.85	958.85
1038.8257	3109.347	1846.5	955.8
1038.933	3110.3412	1844.35	949.2
1039.0403	3111.3348	1832.85	942.3
1039.1475	3112.3277	1820.1	930.65
1039.2547	3113.32	1826.45	936.75
1039.3618	3114.3117	1817.35	927.2
1039.4689	3115.3028	1820.05	929.2
1039.5759	3116.2932	1812.55	919.85
1039.6829	3117.2831	1809.55	914.75
1039.7898	3118.2723	1795.2	904.65
1039.8967	3119.2608	1789.85	900.55
1040.0035	3120.2488	1782.95	891.2
1040.1103	3121.2361	1763.9	874.6
1040.2171	3122.2229	1772.6	880.8
1040.3238	3123.209	1770.55	878.4
1040.4305	3124.1944	1754.7	864.55
1040.5371	3125.1793	1763.2	871.85
1040.6437	3126.1635	1749.6	859.55
1040.7502	3127.1471	1741.65	852.7
1040.8567	3128.1301	1750.6	861.7
1040.9631	3129.1125	1733.45	843.3
1041.0695	3130.0942	1738.4	848.6
1041.1759	3131.0753	1740.85	841.2
1041.2822	3132.0558	1727.5	833.9
1041.3884	3133.0357	1718.85	826.5
1041.4946	3134.015	1728.2	839.4
1041.6008	3134.9936	1717.9	827
1041.7069	3135.9716	1733.6	821.65
1041.813	3136.949	1706.95	815.05
1041.919	3137.9258	1703.4	808.35
1042.025	3138.902	1704.25	806.8
1042.1309	3139.8775	1696.3	806.7
1042.2368	3140.8524	1693.05	804
1042.3427	3141.8267	1695.7	804.9
1042.4485	3142.8004	1687.8	796.55
1042.5542	3143.7735	1691.65	796.6
1042.6599	3144.7459	1685.35	792.85
1042.7656	3145.7178	1676.4	784.6
1042.8712	3146.689	1668.15	780.25
1042.9768	3147.6596	1663.3	773.55
1043.0823	3148.6295	1654.8	763.3
1043.1878	3149.5989	1657.85	767.45
1043.2932	3150.5676	1652.7	763.45
1043.3986	3151.5357	1648.05	758.4
1043.5039	3152.5032	1641.3	752
1043.6092	3153.4701	1637.25	747.9
1043.7145	3154.4364	1622.85	731.8
1043.8197	3155.402	1625.4	736.65
1043.9248	3156.367	1617.15	726.9
1044.03	3157.3315	1652.65	718.2
1044.135	3158.2952	1616.8	726.1
1044.24	3159.2584	1618.3	730.15
1044.345	3160.221	1608.25	716.55
1044.4499	3161.1829	1596.75	705.2
1044.5548	3162.1442	1594.5	703.45
1044.6596	3163.105	1591.2	700.85
1044.7644	3164.065	1588.5	698.25
1044.8692	3165.0245	1592.55	698.45
1044.9739	3165.9834	1584.65	696.75
1045.0785	3166.9416	1578.8	690.65
1045.1831	3167.8993	1578.85	690.25
1045.2877	3168.8563	1564.55	673.75
1045.3922	3169.8127	1564.05	673.8
1045.4966	3170.7684	1568.45	677.65
1045.6011	3171.7236	1563	670.5
1045.7054	3172.6782	1551.1	660.75
1045.8098	3173.6321	1555.3	664.35
1045.914	3174.5854	1553.75	656.35
1046.0183	3175.5381	1544.7	655.15
1046.1224	3176.4902	1545.4	658.5
1046.2266	3177.4417	1543.6	653.9
1046.3307	3178.3926	1518.65	629.65
1046.4347	3179.3428	1530.25	643.25
1046.5387	3180.2924	1528.35	639.65
1046.6427	3181.2415	1520.55	630
1046.7466	3182.1899	1515.55	623.4
1046.8504	3183.1377	1520.25	630.6
1046.9542	3184.0848	1510.05	615.45
1047.058	3185.0314	1511.15	621.9
1047.1617	3185.9773	1508.55	617.9
1047.2654	3186.9227	1498.5	609.55
1047.369	3187.8674	1500.75	610.75
1047.4726	3188.8115	1505.1	609.85
1047.5761	3189.755	1493.3	602.65
1047.6796	3190.6979	1495.45	606.15
1047.783	3191.6402	1480.75	591.1
1047.8864	3192.5818	1480.1	591.1
1047.9898	3193.5229	1506.1	594.55
1048.0931	3194.4633	1480.55	590.4
1048.1963	3195.4031	1474.7	585.6
1048.2995	3196.3423	1469.85	579.4
1048.4027	3197.2809	1464.75	575.6
1048.5058	3198.2189	1468.65	578.55
1048.6089	3199.1563	1475.55	579.8
1048.7119	3200.0931	1464.45	577.3
1048.8148	3201.0292	1455.1	566.25
1048.9178	3201.9648	1446.45	557.5
1049.0206	3202.8997	1447.25	553.75
1049.1235	3203.834	1454.7	564.75
1049.2262	3204.7677	1442.9	552.85
1049.329	3205.7008	1444.3	553.7
1049.4317	3206.6333	1431.7	543.15
1049.5343	3207.5652	1443.05	552.55
1049.6369	3208.4964	1432.65	540.35
1049.7394	3209.4271	1427.15	538.7
1049.8419	3210.3571	1428.5	538.25
1049.9444	3211.2865	1424.6	534.9
1050.0468	3212.2154	1420.1	529.25
1050.1491	3213.1436	1427.9	537.15
1050.2514	3214.0712	1426.9	531.1
1050.3537	3214.9982	1415.05	525
1050.4559	3215.9246	1414.75	524.05
1050.5581	3216.8503	1411.2	521.1
1050.6602	3217.7755	1402.1	511.1
1050.7623	3218.7001	1407.65	519.05
1050.8643	3219.624	1404.6	514.6
1050.9663	3220.5473	1403.95	512.4
1051.0682	3221.4701	1400.8	509.15
1051.1701	3222.3922	1403.05	510.85
1051.2719	3223.3137	1387.45	499.6
1051.3737	3224.2346	1389.1	499.95
1051.4754	3225.1549	1385.1	495.55
1051.5771	3226.0746	1383.65	494.05
1051.6788	3226.9937	1379.8	488.75
1051.7804	3227.9121	1376.6	487.4
1051.8819	3228.83	1370.8	482.1
1051.9834	3229.7473	1375	484.7
1052.0849	3230.6639	1376.3	486.2
1052.1863	3231.5799	1370.75	481.4
1052.2876	3232.4954	1362.6	471.9
1052.3889	3233.4102	1360.35	470.2
1052.4902	3234.3244	1361.1	472.35
1052.5914	3235.238	1358.35	468.65
1052.6926	3236.151	1380.65	466.35
1052.7937	3237.0634	1350.8	462.05
1052.8948	3237.9752	1353.6	465.95
1052.9958	3238.8864	1346.5	457
1053.0968	3239.797	1350.15	460.3
1053.1977	3240.7069	1341.95	451.6
1053.2986	3241.6163	1334.2	443.1
1053.3994	3242.5251	1336.05	447.25
1053.5002	3243.4332	1336.85	448.8
1053.6009	3244.3408	1332.75	442.75
1053.7016	3245.2477	1322.6	433.05
1053.8022	3246.154	1325.65	435.45
1053.9028	3247.0598	1323.3	432.6
1054.0034	3247.9649	1317.1	429
1054.1039	3248.8694	1312.3	422.15
1054.2043	3249.7733	1315.85	426.05
1054.3047	3250.6766	1311.75	422.55
1054.4051	3251.5793	1309.7	420.05
1054.5054	3252.4814	1302.4	413.45
1054.6056	3253.3829	1300.8	411.8
1054.7058	3254.2838	1299.05	409.1
1054.806	3255.1841	1295.5	406.65
1054.9061	3256.0838	1296.2	407.6
1055.0061	3256.9829	1286.1	397.7
1055.1062	3257.8814	1289.6	397.95
1055.2061	3258.7792	1281.5	387.8
1055.306	3259.6765	1276.8	386.1
1055.4059	3260.5731	1273.8	385.45
1055.5057	3261.4692	1271.95	381.8
1055.6055	3262.3647	1268	379.4
1055.7052	3263.2595	1259.75	369.95
1055.8049	3264.1538	1255.5	366.45
1055.9045	3265.0474	1255.3	366.85
1056.0041	3265.9404	1240.65	351.6
1056.1036	3266.8329	1240.7	352.35
1056.2031	3267.7247	1238	338.55
1056.3025	3268.616	1219.75	329.75
1056.4019	3269.5066	1223.5	334
1056.5013	3270.3966	1214.4	323.35
1056.6005	3271.286	1201.15	313.9
