Software Version:	3.9.2.0
Unit SN:	10000200
Spectrometer SN:	6960
Date:	3/6/2024 9:59:48 AM
Data Line Index:	25
Spectral Points:	2048
Integration time (ms):	125
Averages:	20
Delay (ms):	30
Sequence Number:	1
Processing:	dark subtract
Laser Power (mW):	305
Laser Current (mA):	826
Laser Diode Temp (C):	25.1
Laser Case Temp (C):	24.6
System Temp (C):	24.4
Spectrometer Temp (C):	22.1
CCD Temp (C):	0.001
Secondary Temp (C):	20.008
Heatsink Temp (C):	18.346
CCDPCB Temp (C):	31.038
SecondaryPCB Temp (C):	26.203

Wavelength	RamanShift	Raw Counts	Dark Subtracted
787.061	30.1047	665.75	257.95
787.2016	32.3739	680.4	275.65
787.3422	34.6426	691.15	284.55
787.4828	36.9109	713	303.75
787.6235	39.1787	730.2	318.35
787.7642	41.4461	755.95	337.55
787.9049	43.7131	778.7	359.25
788.0456	45.9796	805.4	381.15
788.1863	48.2456	829.85	402.4
788.3271	50.5112	853.6	423.1
788.4679	52.7764	882.8	449.2
788.6087	55.0411	919.25	482.3
788.7496	57.3054	954.35	508.2
788.8904	59.5692	982	536.95
789.0313	61.8326	1015.4	568.3
789.1722	64.0955	1059.6	607.05
789.3132	66.3579	1116.4	661.3
789.4541	68.6199	1175.35	714.55
789.5951	70.8815	1275.2	811.05
789.7361	73.1426	1504.05	1035.15
789.8771	75.4032	2109.45	1636.75
790.0181	77.6634	3599.3	3123.8
790.1592	79.9231	7316.95	6837.25
790.3003	82.1824	16929.3	16438.95
790.4414	84.4412	34355.95	33850.9
790.5825	86.6995	50181.55	49654.85
790.7237	88.9574	56860.95	56315.8
790.8648	91.2148	59869.95	59313.05
791.006	93.4717	60656.7	60094.6
791.1472	95.7282	60968.85	60403.95
791.2885	97.9842	61105.7	60538.05
791.4297	100.2398	61147.55	60579.95
791.571	102.4949	61127.5	60556.1
791.7123	104.7495	61142.4	60560.85
791.8536	107.0036	61059.5	60481.3
791.9949	109.2573	61179.35	60603.15
792.1363	111.5105	61103.2	60524.4
792.2777	113.7632	61151.3	60567.05
792.4191	116.0154	61194	60604.35
792.5605	118.2672	61300.35	60714.9
792.7019	120.5185	61299.35	60710.45
792.8434	122.7693	61302.4	60708.3
792.9849	125.0197	61209.65	60613.85
793.1264	127.2696	61472.65	60872.55
793.2679	129.519	61434.55	60833.45
793.4094	131.7679	61530.45	60925.5
793.551	134.0163	61284.4	60678.35
793.6926	136.2642	61389.6	60779.8
793.8342	138.5117	61535.6	60919.3
793.9758	140.7587	61473.2	60858
794.1175	143.0052	61475.3	60855.1
794.2591	145.2512	61364.85	60746.9
794.4008	147.4967	61515.25	60893.7
794.5425	149.7417	61472.45	60847.15
794.6842	151.9863	61470.75	60845.15
794.826	154.2304	61383.6	60752.55
794.9677	156.4739	61452	60814
795.1095	158.717	61550.45	60914.5
795.2513	160.9596	61462	60817.5
795.3931	163.2017	61351.7	60707.45
795.535	165.4433	61505.2	60861.95
795.6768	167.6844	61415.85	60768.95
795.8187	169.925	61488.2	60837.05
795.9606	172.1651	61398.2	60745
796.1025	174.4047	61485.85	60831.3
796.2445	176.6439	61485.05	60825.8
796.3864	178.8825	61428.1	60766.2
796.5284	181.1206	61550.6	60880.2
796.6704	183.3582	61523.55	60850.9
796.8124	185.5954	61490.25	60817.35
796.9544	187.832	61505.8	60830.15
797.0965	190.0681	61422.85	60743.3
797.2386	192.3037	61559.1	60877.15
797.3806	194.5388	61731.8	61048.55
797.5228	196.7734	61359.95	60673.5
797.6649	199.0075	61708.4	61020.2
797.807	201.2411	61600.7	60910.6
797.9492	203.4742	61796.95	61104.6
798.0914	205.7068	61765.55	61070
798.2336	207.9389	61761.85	61066.9
798.3758	210.1704	61739.15	61053.5
798.518	212.4015	61855.4	61178.6
798.6603	214.632	61720.55	61043.6
798.8025	216.862	61910.25	61238.2
798.9448	219.0915	61787.5	61110.05
799.0871	221.3205	61794.9	61119.55
799.2294	223.549	61951.3	61277.4
799.3718	225.777	61919.6	61245
799.5141	228.0044	61996.15	61312.8
799.6565	230.2314	61934.25	61252
799.7989	232.4578	61931.85	61245.55
799.9413	234.6837	61954	61259.7
800.0837	236.909	62220.9	61521.75
800.2262	239.1339	61857.85	61133.2
800.3687	241.3582	62041.15	61331.4
800.5111	243.582	62035.4	61294.5
800.6536	245.8053	62016.85	61291.55
800.7961	248.0281	62064.3	61343.9
800.9387	250.2503	62122.1	61396.1
801.0812	252.472	61995.25	61271
801.2238	254.6932	62096.25	61369.9
801.3664	256.9139	62027.9	61299.5
801.509	259.134	62250.15	61520.3
801.6516	261.3536	62024.6	61298.5
801.7942	263.5727	62163.05	61432.1
801.9369	265.7912	62080.6	61351.45
802.0795	268.0092	62135.5	61405.85
802.2222	270.2267	62152.9	61422.3
802.3649	272.4436	62026.5	61292.2
802.5076	274.6601	62133.4	61390.6
802.6504	276.8759	62183.65	61445.3
802.7931	279.0913	62130.7	61390.45
802.9359	281.3061	62157.25	61416.25
803.0787	283.5204	62168.65	61423.85
803.2215	285.7341	62159.15	61413.25
803.3643	287.9473	62259.1	61499.9
803.5071	290.16	62167.7	61417.4
803.6499	292.3721	62216.05	61470.15
803.7928	294.5837	62152.05	61404.25
803.9357	296.7947	62064.75	61317.4
804.0786	299.0052	62232.4	61485.95
804.2215	301.2152	62151.25	61398.95
804.3644	303.4246	62230.3	61480.95
804.5074	305.6334	62228.15	61482.55
804.6503	307.8418	62113.75	61359.05
804.7933	310.0495	62137.65	61382.1
804.9363	312.2568	62118.15	61364.35
805.0793	314.4635	62111.7	61353
805.2223	316.6696	62155.95	61396.05
805.3653	318.8752	62207.8	61437
805.5084	321.0802	61949.9	61190.35
805.6514	323.2847	62094.6	61331.55
805.7945	325.4887	62083.6	61319.7
805.9376	327.692	62049.9	61285.3
806.0807	329.8949	62115.3	61347.5
806.2238	332.0972	62036.3	61270.8
806.367	334.2989	62096	61323.85
806.5101	336.5001	62168.3	61394.65
806.6533	338.7007	61980.8	61210.75
806.7965	340.9008	62086.65	61310.95
806.9397	343.1003	62108.8	61332.75
807.0829	345.2992	62150.55	61376.7
807.2261	347.4976	62073.9	61297.2
807.3693	349.6955	62110.4	61332.3
807.5126	351.8927	62066.35	61279.75
807.6559	354.0895	62129.6	61334.35
807.7991	356.2856	62103	61317.3
807.9424	358.4812	62158.45	61374.35
808.0857	360.6763	62037.2	61250.8
808.2291	362.8707	62177.3	61389.15
808.3724	365.0646	62103.85	61311.35
808.5158	367.258	62101.3	61307.35
808.6591	369.4508	62008.9	61212.9
808.8025	371.643	62159.3	61362.75
808.9459	373.8346	62086.85	61285.55
809.0893	376.0257	62078	61275.55
809.2327	378.2162	62059.4	61260.3
809.3762	380.4062	61936.8	61136.3
809.5196	382.5956	62041.4	61248.15
809.6631	384.7844	62055.85	61262.4
809.8066	386.9726	62084.2	61290.35
809.9501	389.1603	62060.8	61266.7
810.0936	391.3474	61961.85	61134.55
810.2371	393.5339	62050.3	61253.85
810.3806	395.7199	61917.15	61126.95
810.5241	397.9052	61936	61144.65
810.6677	400.09	61963.45	61172
810.8113	402.2743	62056.85	61261.65
810.9548	404.4579	61919.45	61126.8
811.0984	406.641	61925.4	61128.85
811.2421	408.8235	61985	61186.65
811.3857	411.0054	61980.8	61180.4
811.5293	413.1868	62015.35	61208.5
811.673	415.3675	61965.8	61161.6
811.8166	417.5477	61962.05	61153.15
811.9603	419.7273	61980.65	61169.05
812.104	421.9064	61952.1	61134.7
812.2477	424.0848	61952.95	61139
812.3914	426.2627	62016.3	61206.25
812.5351	428.4399	61877.5	61064.2
812.6788	430.6166	61745.65	60930.6
812.8226	432.7928	61916.85	61095.9
812.9663	434.9683	61791.95	60972.05
813.1101	437.1432	61783.6	60963.85
813.2539	439.3176	61887.15	61068.9
813.3977	441.4914	61698	60882.8
813.5415	443.6645	61711.95	60896.25
813.6853	445.8371	61722.65	60902.4
813.8291	448.0091	61632.05	60813.35
813.973	450.1806	61588.75	60769.6
814.1168	452.3514	61612.7	60790.25
814.2607	454.5216	61528.2	60699
814.4046	456.6913	61607.9	60786.5
814.5485	458.8603	61607.8	60787.55
814.6924	461.0288	61490.3	60674.7
814.8363	463.1967	61607.1	60790.35
814.9802	465.3639	61580	60756.8
815.1241	467.5306	61382	60559.8
815.2681	469.6967	61478.45	60658.3
815.412	471.8622	61572.3	60750.75
815.556	474.0271	61494.1	60670.7
815.7	476.1914	61496.95	60671.85
815.844	478.3551	61477.35	60651.15
815.988	480.5182	61629.25	60805.3
816.132	482.6807	61457.5	60635.15
816.276	484.8426	61469.6	60650.2
816.4201	487.0039	61626.65	60804.15
816.5641	489.1647	61598.4	60772.3
816.7082	491.3248	61460.35	60632.7
816.8522	493.4843	61641.3	60817.9
816.9963	495.6432	61630	60804.2
817.1404	497.8015	61421.9	60589.3
817.2845	499.9592	61565.3	60729.95
817.4286	502.1163	61539.4	60705.9
817.5727	504.2728	61531.95	60697.55
817.7168	506.4287	61530.45	60702
817.861	508.5839	61410.65	60583.45
818.0051	510.7386	61478.25	60647.35
818.1493	512.8927	61510.25	60670.65
818.2935	515.0461	61476.15	60638.85
818.4377	517.199	61558.4	60719.1
818.5818	519.3512	61487.3	60649.15
818.726	521.5029	61457.75	60615.7
818.8703	523.6539	61450.9	60611.65
819.0145	525.8043	61330.35	60488.95
819.1587	527.9541	61468.8	60626.25
819.303	530.1033	61444.65	60603.95
819.4472	532.2519	61372.8	60529.65
819.5915	534.3999	61466.1	60619.9
819.7357	536.5472	61520	60677.1
819.88	538.694	61335.35	60493.7
820.0243	540.8401	61438.35	60597.2
820.1686	542.9856	61435.1	60586.6
820.3129	545.1305	61513.4	60663.35
820.4572	547.2748	61407.55	60555.6
820.6016	549.4185	61399.05	60542.7
820.7459	551.5615	61460.4	60609.6
820.8902	553.704	61443.85	60593.05
821.0346	555.8458	61358.7	60509.4
821.1789	557.987	61379.65	60532.5
821.3233	560.1276	61427.2	60576.15
821.4677	562.2675	61373.55	60524.35
821.6121	564.4069	61378.35	60528.4
821.7565	566.5456	61438.9	60592.65
821.9009	568.6837	61327.55	60483.1
822.0453	570.8212	61370.45	60521.55
822.1897	572.958	61188.65	60338.35
822.3342	575.0942	61322.95	60476.95
822.4786	577.2299	61233.65	60386.95
822.6231	579.3648	61205.1	60365.1
822.7675	581.4992	61162.55	60322.35
822.912	583.6329	61117.8	60281.6
823.0565	585.766	61126.65	60284.05
823.201	587.8985	61131.85	60287.45
823.3454	590.0304	60991.3	60131.7
823.4899	592.1616	61098.9	60242.85
823.6345	594.2922	61012.6	60156.95
823.779	596.4222	60969	60112.6
823.9235	598.5515	60985	60126.15
824.068	600.6802	61022.35	60165.9
824.2126	602.8083	60889.45	60033.25
824.3571	604.9358	60874.55	60018.4
824.5017	607.0626	60952.65	60095.5
824.6462	609.1888	60821.8	59961
824.7908	611.3144	60887.7	60025.7
824.9354	613.4393	60835.85	59976.95
825.08	615.5636	60796.3	59935.35
825.2246	617.6873	60818.6	59957.85
825.3692	619.8103	60775.45	59910.55
825.5138	621.9327	60832.5	59969.1
825.6584	624.0544	60819.55	59961.35
825.803	626.1756	60786.55	59927.45
825.9477	628.2961	60769.95	59906.1
826.0923	630.4159	60748.35	59888.55
826.237	632.5351	60695.75	59836.85
826.3816	634.6537	60804.55	59940.2
826.5263	636.7716	60685.05	59815.1
826.6709	638.8889	60749.45	59885.7
826.8156	641.0056	60717.5	59847.55
826.9603	643.1216	60730.5	59860.15
827.105	645.237	60766.2	59902
827.2497	647.3518	60664.75	59801.05
827.3944	649.4659	60690.5	59831.45
827.5391	651.5793	60654.55	59792.55
827.6838	653.6922	60694.2	59833.7
827.8285	655.8043	60627.1	59764.85
827.9733	657.9159	60724.7	59859.55
828.118	660.0268	60510.5	59646
828.2627	662.137	60600.55	59732.1
828.4075	664.2466	60627.25	59756.55
828.5522	666.3556	60562.8	59692.8
828.697	668.4639	60559.55	59688.9
828.8418	670.5716	60541.55	59675.8
828.9865	672.6786	60563.85	59693.4
829.1313	674.785	60472.6	59600.25
829.2761	676.8907	60479.95	59609.7
829.4209	678.9958	60488.85	59623.25
829.5657	681.1002	60507.05	59638.45
829.7105	683.204	60430.3	59553
829.8553	685.3072	60393.2	59519.5
830.0001	687.4097	60382.15	59509.35
830.1449	689.5115	60398.5	59525.3
830.2898	691.6127	60419.1	59548.55
830.4346	693.7132	60355.5	59484.5
830.5794	695.8131	60391.8	59495.05
830.7243	697.9123	60398.4	59522.65
830.8691	700.0109	60394.65	59518.6
831.014	702.1089	60303.95	59429.9
831.1588	704.2061	60321.4	59445.55
831.3037	706.3028	60315.65	59438.8
831.4486	708.3987	60332.25	59456.4
831.5935	710.4941	60263.25	59387.5
831.7383	712.5887	60300.9	59426.55
831.8832	714.6827	60279	59400.05
832.0281	716.7761	60298.95	59424.1
832.173	718.8688	60302.75	59425.9
832.3179	720.9608	60244.3	59363.4
832.4628	723.0522	60271.15	59389.15
832.6077	725.1429	60209.6	59334.45
832.7527	727.233	60288.8	59408.85
832.8976	729.3224	60166.65	59288.85
833.0425	731.4112	60186.2	59305.6
833.1874	733.4993	60150.35	59270.75
833.3324	735.5867	60143.35	59265.05
833.4773	737.6735	60103.7	59226.1
833.6222	739.7596	60066.5	59186.15
833.7672	741.845	60054.4	59172.35
833.9122	743.9298	60043.65	59159
834.0571	746.014	60026.45	59145.4
834.2021	748.0974	59970.6	59085.05
834.347	750.1802	60015.45	59131.25
834.492	752.2624	59886.6	59002.55
834.637	754.3439	59884.65	58999.05
834.782	756.4247	59891.3	58998.45
834.9269	758.5048	59816.95	58931.55
835.0719	760.5843	59848.55	58961.75
835.2169	762.6631	59814.3	58929.45
835.3619	764.7413	59795.95	58912.1
835.5069	766.8188	59831.8	58946.45
835.6519	768.8956	59794.65	58907.9
835.7969	770.9718	59812.85	58929.4
835.9419	773.0473	59743.6	58857.85
836.0869	775.1221	59703.95	58822.5
836.232	777.1962	59658.2	58774.95
836.377	779.2697	59560.2	58673.35
836.522	781.3426	59615.15	58712.15
836.667	783.4147	59568.65	58681.8
836.8121	785.4862	59571.45	58687.9
836.9571	787.557	59478.4	58593.35
837.1021	789.6271	59551.35	58664.75
837.2472	791.6966	59484.2	58596
837.3922	793.7654	59343.6	58454.9
837.5373	795.8335	59367.8	58483
837.6823	797.901	59371.2	58485.6
837.8274	799.9678	59327.9	58437.95
837.9724	802.0339	59266.8	58378.2
838.1175	804.0993	59277.75	58379.1
838.2626	806.1641	59212.75	58325.75
838.4076	808.2282	59154.75	58266.5
838.5527	810.2916	59143	58248.35
838.6978	812.3544	59223.2	58336
838.8428	814.4164	59039.8	58151.45
838.9879	816.4778	59083.3	58193.35
839.133	818.5385	59070.65	58180
839.2781	820.5986	59041.65	58149.6
839.4232	822.658	59047	58156.85
839.5682	824.7166	59049.7	58158.55
839.7133	826.7747	58966.25	58075.15
839.8584	828.832	58960.55	58070.2
840.0035	830.8886	59004.7	58113.05
840.1486	832.9446	58995.9	58103.65
840.2937	834.9999	58698.8	57806.45
840.4388	837.0545	58817.4	57919.9
840.5839	839.1085	58882.15	57989.55
840.729	841.1618	58838.3	57942.3
840.8741	843.2143	58626.05	57736
841.0192	845.2662	58593.55	57703.2
841.1643	847.3175	58649.3	57758.45
841.3095	849.368	58419.75	57528.7
841.4546	851.4179	58562.15	57669.4
841.5997	853.467	58399.85	57507.15
841.7448	855.5155	58497.8	57605.9
841.8899	857.5633	58375.4	57481.25
842.0351	859.6105	58283.65	57389.55
842.1802	861.6569	58346.5	57453.9
842.3253	863.7027	58193.85	57298.55
842.4704	865.7478	58216.4	57323.25
842.6156	867.7922	58207.55	57313.95
842.7607	869.8359	58267.25	57370.9
842.9058	871.8789	58062.7	57168.55
843.0509	873.9212	58138.5	57214.35
843.1961	875.9629	58111.75	57214.95
843.3412	878.0039	58073.95	57181.8
843.4863	880.0441	58027.3	57134.4
843.6315	882.0837	58023.65	57131.25
843.7766	884.1226	58029.05	57132.65
843.9218	886.1609	57993.15	57098.3
844.0669	888.1984	57956.3	57061.55
844.212	890.2352	58087.5	57194.2
844.3572	892.2714	57894.1	56993.05
844.5023	894.3069	57998.65	57102.6
844.6475	896.3416	57874.9	56978.8
844.7926	898.3757	57831.8	56934.65
844.9377	900.4091	57647	56751.15
845.0829	902.4418	57843.85	56941.05
845.228	904.4739	57682.95	56783.95
845.3732	906.5052	57727.15	56830.7
845.5183	908.5358	57611.2	56715.2
845.6635	910.5658	57567.9	56667.5
845.8086	912.595	57560.75	56662.7
845.9538	914.6236	57346.15	56448.4
846.0989	916.6515	57604.4	56708.15
846.2441	918.6786	57277.9	56379.3
846.3892	920.7051	57367.05	56467
846.5344	922.7309	57328.9	56433.2
846.6795	924.756	57318.35	56421.85
846.8246	926.7804	57229.15	56329.25
846.9698	928.8041	56951.2	56054.1
847.1149	930.8272	57096.35	56197.9
847.2601	932.8495	57081.95	56182.65
847.4052	934.8711	56912.45	56013.35
847.5504	936.892	56781.6	55884.6
847.6955	938.9123	56854.4	55956.2
847.8407	940.9318	56761.75	55860.5
847.9858	942.9506	56727.1	55831.05
848.131	944.9688	56691.05	55793.95
848.2761	946.9862	56481.8	55584.85
848.4213	949.003	56529.8	55631.65
848.5664	951.019	56272.6	55375.75
848.7115	953.0344	56284.9	55386.05
848.8567	955.0491	56245.05	55345.35
849.0018	957.063	56340.2	55442.6
849.147	959.0763	56330.2	55432.7
849.2921	961.0888	56122.7	55218.3
849.4373	963.1007	56244.15	55345.7
849.5824	965.1119	56191.05	55295.45
849.7275	967.1223	56074.75	55180.55
849.8727	969.1321	56202.55	55308.9
850.0178	971.1412	55999.7	55104.5
850.1629	973.1495	55877.4	54980.05
850.3081	975.1572	55971.45	55032.05
850.4532	977.1641	55899.7	55001.1
850.5983	979.1704	55798.55	54899.9
850.7435	981.1759	55783.55	54880.6
850.8886	983.1808	55667.8	54765.1
851.0337	985.1849	55624.1	54711.65
851.1788	987.1884	55619.85	54717.3
851.324	989.1911	55678.75	54780.2
851.4691	991.1932	55405	54504.15
851.6142	993.1945	55410.95	54510.4
851.7593	995.1951	55419.85	54520.85
851.9045	997.1951	55288.45	54382.6
852.0496	999.1943	55157.25	54257.25
852.1947	1001.1928	55091.1	54193.45
852.3398	1003.1906	55080.2	54178.55
852.4849	1005.1877	54930.35	54028.25
852.63	1007.1841	54809.25	53909.95
852.7751	1009.1798	54791.65	53890.3
852.9202	1011.1748	54758.65	53859.35
853.0653	1013.1691	54710.15	53810.45
853.2104	1015.1627	54276.9	53374.2
853.3555	1017.1556	54346.8	53446.95
853.5006	1019.1477	54402.75	53501.7
853.6457	1021.1392	54166.95	53271.75
853.7908	1023.1299	53904.35	53006.9
853.9359	1025.12	53987.6	53089.65
854.081	1027.1093	53803.6	52914.05
854.2261	1029.0979	53768.15	52877.85
854.3712	1031.0859	53678.1	52783.95
854.5163	1033.0731	53428.3	52532.25
854.6613	1035.0596	53512.8	52618.15
854.8064	1037.0454	53394.4	52496.05
854.9515	1039.0304	53311.1	52412.75
855.0965	1041.0148	52992.4	52093.15
855.2416	1042.9985	52992.35	52092.7
855.3867	1044.9814	53146.6	52246.75
855.5317	1046.9636	52815.65	51910.45
855.6768	1048.9452	52830.35	51931.25
855.8219	1050.926	52746.8	51849.55
855.9669	1052.9061	52689.25	51789.7
856.112	1054.8855	52690.55	51788.15
856.257	1056.8642	52519.1	51617.15
856.4021	1058.8421	52381.6	51477
856.5471	1060.8194	52405.05	51504.65
856.6921	1062.7959	52265.45	51363.8
856.8372	1064.7717	52398.65	51497
856.9822	1066.7469	52300.2	51397.65
857.1272	1068.7213	52282.65	51377.65
857.2723	1070.695	52155.3	51253.7
857.4173	1072.6679	51973.7	51071.45
857.5623	1074.6402	52046.85	51144.9
857.7073	1076.6117	51882.45	50977.25
857.8523	1078.5826	51907.2	51003.95
857.9973	1080.5527	51871.65	50965.7
858.1423	1082.5221	51647.6	50745.7
858.2873	1084.4908	51686.7	50786.3
858.4323	1086.4587	51556.2	50655.4
858.5773	1088.426	51519.95	50617.9
858.7223	1090.3925	51454.85	50549.2
858.8673	1092.3584	51462.05	50559.45
859.0123	1094.3235	51223.7	50323.45
859.1573	1096.2879	51167.9	50267.4
859.3022	1098.2515	51209.5	50308.65
859.4472	1100.2145	51131.3	50233.25
859.5922	1102.1767	51073.55	50169.5
859.7371	1104.1382	51092.8	50190.45
859.8821	1106.099	50994.8	50090.1
860.027	1108.0591	50919.6	50019.5
860.172	1110.0185	50697.35	49795.4
860.3169	1111.9771	50882.85	49981.4
860.4619	1113.9351	50731.1	49828.6
860.6068	1115.8923	50585.25	49682.55
860.7517	1117.8488	50469.45	49564.45
860.8967	1119.8045	50267	49366
861.0416	1121.7596	50311.45	49407
861.1865	1123.7139	50217.1	49316.35
861.3314	1125.6675	50170.05	49268.45
861.4763	1127.6204	50109.5	49209.4
861.6212	1129.5726	49970.45	49066.15
861.7661	1131.524	50023.45	49124.25
861.911	1133.4748	49977	49073
862.0559	1135.4248	49826.95	48925.1
862.2008	1137.3741	49766.25	48863.9
862.3457	1139.3226	49668.3	48762.85
862.4905	1141.2705	49665.2	48763.15
862.6354	1143.2176	49575.95	48667.35
862.7803	1145.164	49425.4	48521.2
862.9251	1147.1097	49454.7	48551.5
863.07	1149.0546	49415.1	48511.05
863.2148	1150.9989	49414.85	48511.85
863.3597	1152.9424	49234.15	48329.75
863.5045	1154.8852	49299.95	48395.95
863.6493	1156.8272	49157.8	48257.75
863.7942	1158.7686	49266	48355.35
863.939	1160.7092	48941.25	48038.7
864.0838	1162.6491	48924.75	48021.05
864.2286	1164.5883	48993.35	48091.1
864.3734	1166.5267	48824.85	47922.65
864.5182	1168.4644	48945.05	48043.6
864.663	1170.4014	48855.85	47947.9
864.8078	1172.3377	48891.45	47990.4
864.9526	1174.2732	48958.75	48056.9
865.0974	1176.2081	48883	47980.55
865.2421	1178.1421	48820.65	47915.35
865.3869	1180.0755	48936.9	48034.3
865.5317	1182.0082	48828.2	47927.5
865.6764	1183.9401	48824.25	47920
865.8212	1185.8713	48608.2	47708.8
865.9659	1187.8017	48557.55	47662.4
866.1106	1189.7315	48505.75	47612.95
866.2554	1191.6605	48334.5	47439.1
866.4001	1193.5888	48149.4	47252.6
866.5448	1195.5163	47928.4	47030.2
866.6895	1197.4432	47880.8	46979.2
866.8342	1199.3693	47852.95	46951.3
866.9789	1201.2947	47668.35	46760.4
867.1236	1203.2193	47662.75	46759.4
867.2683	1205.1432	47462.3	46557.9
867.413	1207.0664	47384.4	46483.65
867.5576	1208.9889	47313	46407.6
867.7023	1210.9106	47233.65	46330.25
867.847	1212.8316	47093.55	46192.35
867.9916	1214.7519	47072.05	46164.15
868.1363	1216.6715	46921.55	46018.75
868.2809	1218.5903	46915.35	46013.15
868.4255	1220.5084	46795.25	45892.25
868.5701	1222.4257	46844.85	45944.7
868.7148	1224.3424	46743.15	45845.75
868.8594	1226.2583	46611.65	45707.4
869.004	1228.1735	46651.9	45751.5
869.1486	1230.0879	46440.8	45540.25
869.2932	1232.0016	46472.7	45572.85
869.4377	1233.9146	46360.35	45458.9
869.5823	1235.8269	46307.1	45405.7
869.7269	1237.7384	46250.95	45348.4
869.8715	1239.6492	46115.75	45216.5
870.016	1241.5592	46023.15	45119.8
870.1606	1243.4686	46039.4	45138.35
870.3051	1245.3772	45925.2	45024.55
870.4496	1247.285	45946.6	45045.95
870.5941	1249.1922	45807.1	44907.15
870.7387	1251.0986	45861.55	44964.65
870.8832	1253.0042	45681.7	44778.8
871.0277	1254.9092	45703.3	44804.55
871.1722	1256.8134	45494.3	44592.55
871.3167	1258.7169	45654.6	44753.2
871.4611	1260.6196	45501.9	44602.55
871.6056	1262.5216	45527.6	44625.75
871.7501	1264.4229	45489.05	44588.55
871.8945	1266.3234	45531.9	44631.1
872.039	1268.2232	45510.05	44608.9
872.1834	1270.1223	45361.45	44460.1
872.3278	1272.0207	45341.25	44439.35
872.4723	1273.9183	45271.8	44366.6
872.6167	1275.8151	45223.85	44322.2
872.7611	1277.7113	45186.05	44284.25
872.9055	1279.6067	45056.4	44156
873.0499	1281.5014	45013.05	44110
873.1943	1283.3953	45112.4	44210.1
873.3386	1285.2885	45122.05	44220.3
873.483	1287.181	45153.95	44252.25
873.6274	1289.0727	45209.25	44309.3
873.7717	1290.9637	45065.45	44163.75
873.9161	1292.854	45279.6	44380.15
874.0604	1294.7435	45157.5	44256.25
874.2047	1296.6323	45090.45	44190.55
874.349	1298.5204	45014.3	44108.05
874.4933	1300.4077	44982.05	44078.55
874.6376	1302.2943	44843.4	43943.85
874.7819	1304.1802	44785.05	43885.1
874.9262	1306.0653	44616.5	43711.35
875.0705	1307.9497	44496.6	43596.55
875.2147	1309.8333	44431.05	43531.2
875.359	1311.7162	44316.4	43415.65
875.5032	1313.5984	44316.4	43413.55
875.6475	1315.4798	44141.2	43235.65
875.7917	1317.3605	44097.65	43180.4
875.9359	1319.2405	44068.4	43163.95
876.0801	1321.1197	43869.4	42967.1
876.2243	1322.9982	43805.5	42900.4
876.3685	1324.876	43731.3	42828.25
876.5127	1326.753	43584.2	42682.8
876.6569	1328.6293	43692.45	42788.7
876.801	1330.5048	43548.75	42644.35
876.9452	1332.3796	43379.05	42479.05
877.0893	1334.2537	43371.7	42445.7
877.2335	1336.127	43351.5	42451.55
877.3776	1337.9996	43235.65	42334.35
877.5217	1339.8714	43258.85	42358.6
877.6658	1341.7426	43004.85	42059.8
877.8099	1343.6129	43094.3	42191.25
877.954	1345.4826	43026.95	42124.4
878.0981	1347.3515	42873.1	41968.35
878.2422	1349.2196	42920.65	42018.75
878.3862	1351.087	42921.25	42018.65
878.5303	1352.9537	42846.55	41943.8
878.6743	1354.8197	42868.55	41968.25
878.8184	1356.6849	42895.55	41996.3
878.9624	1358.5493	42867.85	41962.9
879.1064	1360.4131	42735.35	41834.65
879.2504	1362.276	42801.65	41897.85
879.3944	1364.1383	42601.35	41701.05
879.5384	1365.9998	42463.3	41556.95
879.6823	1367.8606	42394.3	41492.25
879.8263	1369.7206	42258.3	41358.4
879.9702	1371.5799	42084.45	41180.4
880.1142	1373.4384	41898.9	40998.65
880.2581	1375.2962	41922.15	41018.65
880.402	1377.1533	41562.3	40662.6
880.5459	1379.0096	41343.2	40441.7
880.6898	1380.8652	41301.25	40402.4
880.8337	1382.7201	41088.9	40186.95
880.9776	1384.5742	40970.25	40069.2
881.1215	1386.4275	40708.95	39806.85
881.2653	1388.2802	40691.9	39792.25
881.4092	1390.132	40639.9	39739.25
881.553	1391.9832	40437.4	39534.2
881.6968	1393.8336	40198.2	39294.5
881.8406	1395.6832	40235.05	39329.7
881.9844	1397.5322	40147.1	39244.65
882.1282	1399.3803	39965.3	39058.7
882.272	1401.2278	39833.95	38934.15
882.4158	1403.0745	39775.35	38875.85
882.5595	1404.9204	39643.6	38744.2
882.7033	1406.7656	39643.1	38740.25
882.847	1408.6101	39443.25	38540.55
882.9908	1410.4538	39372.85	38474
883.1345	1412.2968	39356.9	38457.7
883.2782	1414.139	39204.3	38305
883.4219	1415.9805	39207.5	38306.1
883.5656	1417.8213	39028.85	38123.55
883.7092	1419.6613	39045.15	38145.2
883.8529	1421.5006	38979.9	38079.6
883.9965	1423.3391	38953.5	38051.55
884.1402	1425.1769	38888.35	37985.6
884.2838	1427.0139	38999.2	38095.5
884.4274	1428.8502	39041.85	38142.6
884.571	1430.6858	39098.8	38196.25
884.7146	1432.5206	39134.3	38234.95
884.8582	1434.3547	39109.6	38210.15
885.0018	1436.188	39015	38114.05
885.1453	1438.0206	39034.05	38133.35
885.2889	1439.8524	38865.9	37965
885.4324	1441.6835	38797.8	37896.45
885.5759	1443.5139	38746.95	37842.2
885.7194	1445.3435	38624.95	37723.85
885.8629	1447.1724	38664.25	37765.4
886.0064	1449.0005	38524.2	37624.65
886.1499	1450.8279	38490.95	37590
886.2933	1452.6545	38423.2	37523.4
886.4368	1454.4804	38407.9	37509.65
886.5802	1456.3056	38360.4	37456.15
886.7237	1458.13	38297.85	37400.35
886.8671	1459.9536	38321.25	37419.35
887.0105	1461.7766	38127.2	37226.35
887.1539	1463.5987	37986.15	37083.35
887.2972	1465.4202	37865.7	36964.9
887.4406	1467.2409	37693.85	36793.8
887.584	1469.0608	37635.35	36735.95
887.7273	1470.88	37512.6	36612.2
887.8706	1472.6984	37462.5	36564.25
888.0139	1474.5161	37281.65	36380.05
888.1572	1476.3331	37185.05	36285.25
888.3005	1478.1493	37103.45	36204.35
888.4438	1479.9648	37076.8	36176.2
888.5871	1481.7795	37011.2	36110.65
888.7303	1483.5935	36971.35	36070.1
888.8736	1485.4067	36892.3	35992.9
889.0168	1487.2192	36871	35971.5
889.16	1489.031	36782	35882.4
889.3032	1490.842	36762.85	35863.7
889.4464	1492.6522	36709.15	35808.95
889.5896	1494.4618	36604.9	35703.5
889.7327	1496.2705	36587.6	35686.65
889.8759	1498.0785	36465.8	35565.8
890.019	1499.8858	36420.35	35522.1
890.1622	1501.6924	36377.75	35479.25
890.3053	1503.4981	36304.8	35404.15
890.4484	1505.3032	36287.65	35387.65
890.5914	1507.1075	36196.55	35298.3
890.7345	1508.911	36138.55	35238.85
890.8776	1510.7138	36068.45	35167.65
891.0206	1512.5159	36026.65	35127.95
891.1637	1514.3172	35877.65	34979.15
891.3067	1516.1178	35809	34908.85
891.4497	1517.9176	35788.55	34889.35
891.5927	1519.7166	35702.95	34806.3
891.7357	1521.515	35601.6	34698.8
891.8786	1523.3126	35544.3	34642.8
892.0216	1525.1094	35516.4	34615.4
892.1645	1526.9055	35417.35	34520.85
892.3074	1528.7008	35309.75	34412.95
892.4503	1530.4954	35099.15	34200.1
892.5932	1532.2893	35124.3	34227.55
892.7361	1534.0824	34963.9	34064.75
892.879	1535.8747	34917.65	34023.55
893.0218	1537.6663	34927.6	34030.8
893.1647	1539.4572	34667.5	33771.6
893.3075	1541.2473	34701.4	33804.05
893.4503	1543.0367	34609.65	33714.5
893.5931	1544.8253	34491.2	33589.3
893.7359	1546.6132	34504.15	33605.65
893.8787	1548.4003	34353.25	33446.95
894.0214	1550.1867	34339	33431.35
894.1642	1551.9723	34274.45	33374.95
894.3069	1553.7572	34281.55	33386.8
894.4496	1555.5414	34274.7	33379.95
894.5923	1557.3247	34133.5	33239.15
894.735	1559.1074	34209.05	33314.7
894.8777	1560.8893	34086.15	33190.1
895.0204	1562.6705	34052.5	33158.6
895.163	1564.4509	33990.6	33096.1
895.3056	1566.2305	33922.35	33032.9
895.4482	1568.0094	34000.65	33108.5
895.5908	1569.7876	33954.3	33062.5
895.7334	1571.565	33819.9	32924.85
895.876	1573.3417	33851.65	32961.75
896.0186	1575.1176	33787.6	32896.8
896.1611	1576.8928	33665.7	32775.9
896.3036	1578.6672	33592.95	32703.65
896.4461	1580.4409	33529.45	32642.95
896.5886	1582.2138	33347.5	32454.2
896.7311	1583.986	33334.15	32442.3
896.8736	1585.7575	33274.8	32385.05
897.0161	1587.5282	33221	32332.1
897.1585	1589.2981	33238.7	32351.55
897.3009	1591.0673	33139.1	32252.1
897.4433	1592.8358	33072.1	32183.15
897.5857	1594.6035	33123.15	32227.65
897.7281	1596.3704	33003.8	32111.65
897.8705	1598.1366	32956.25	32065.25
898.0128	1599.9021	32875.15	31984.25
898.1551	1601.6668	32877.1	31985.75
898.2975	1603.4308	32752	31858.75
898.4398	1605.194	32815.9	31920.8
898.5821	1606.9564	32707.8	31817.65
898.7243	1608.7182	32759.6	31869.6
898.8666	1610.4791	32763.2	31880.2
899.0088	1612.2394	32749.9	31864.55
899.1511	1613.9988	32731.8	31845.2
899.2933	1615.7576	32839.15	31951.15
899.4355	1617.5156	32832.1	31935.8
899.5776	1619.2728	32857.05	31965.95
899.7198	1621.0293	32721.35	31832.7
899.862	1622.785	32649.65	31756.65
900.0041	1624.54	32498.15	31609.85
900.1462	1626.2942	32348.5	31458.35
900.2883	1628.0477	32110.45	31220.75
900.4304	1629.8005	31963.75	31071.45
900.5725	1631.5525	31871.2	30981
900.7145	1633.3037	31660.85	30772.9
900.8566	1635.0542	31597.3	30710.25
900.9986	1636.804	31473.35	30583.65
901.1406	1638.553	31429.3	30497.35
901.2826	1640.3013	31326.6	30437.55
901.4245	1642.0488	31213.7	30326
901.5665	1643.7955	31257.2	30369.4
901.7085	1645.5416	31136.2	30249.6
901.8504	1647.2868	31172.6	30285.35
901.9923	1649.0313	31123.35	30234.35
902.1342	1650.7751	31100.5	30208.65
902.2761	1652.5181	31045.9	30161.45
902.4179	1654.2604	31017.85	30130.65
902.5598	1656.0019	31031.55	30144.85
902.7016	1657.7427	31028.7	30141.3
902.8434	1659.4828	31105.25	30217.4
902.9852	1661.222	31040.4	30150.8
903.127	1662.9606	30973.65	30084.3
903.2687	1664.6984	30860.25	29971.4
903.4105	1666.4354	30761.4	29869.6
903.5522	1668.1717	30505.35	29614.45
903.6939	1669.9072	30263	29373.85
903.8356	1671.642	30105	29212.7
903.9773	1673.3761	29953.4	29064.55
904.119	1675.1094	29814.75	28927.35
904.2606	1676.8419	29709.8	28825
904.4022	1678.5737	29550.3	28662.75
904.5439	1680.3048	29437.55	28548.3
904.6855	1682.0351	29328.65	28440.1
904.827	1683.7646	29201.3	28309.3
904.9686	1685.4934	29128.95	28240.95
905.1101	1687.2215	28933.1	28044.8
905.2517	1688.9488	28877.95	27990.1
905.3932	1690.6754	28560.2	27671.65
905.5347	1692.4012	28694.8	27806.35
905.6761	1694.1263	28649.8	27760.55
905.8176	1695.8506	28450.7	27561.4
905.9591	1697.5742	28439.4	27552.65
906.1005	1699.297	28298.35	27413.95
906.2419	1701.0191	28224.95	27339.15
906.3833	1702.7404	28020.55	27132.4
906.5246	1704.461	27882.1	26993.15
906.666	1706.1808	27919.25	27032.25
906.8073	1707.8999	27756.25	26869.3
906.9487	1709.6182	27722.8	26836.9
907.09	1711.3358	27628.45	26744.05
907.2313	1713.0527	27541.15	26656.5
907.3725	1714.7688	27476.05	26582.8
907.5138	1716.4841	27213.15	26323.5
907.655	1718.1987	27282.3	26390.6
907.7962	1719.9126	27176.15	26290.95
907.9374	1721.6257	27150.8	26263.8
908.0786	1723.338	27102.8	26216.3
908.2198	1725.0496	26873.3	25987.6
908.3609	1726.7605	26850.8	25964.1
908.502	1728.4706	26730.9	25845.65
908.6431	1730.18	26687.35	25800.95
908.7842	1731.8886	26559.45	25674.45
908.9253	1733.5964	26472.7	25582.9
909.0664	1735.3036	26483.15	25595.05
909.2074	1737.0099	26374.95	25489.35
909.3484	1738.7156	26300.7	25416.5
909.4894	1740.4204	26195.6	25307.9
909.6304	1742.1246	26169.7	25283.45
909.7714	1743.8279	26180.05	25294.5
909.9123	1745.5306	26155.95	25269.1
910.0532	1747.2325	25945.9	25061.7
910.1941	1748.9336	25854.65	24969.55
910.335	1750.634	25828.4	24940.25
910.4759	1752.3336	25853.45	24967.6
910.6168	1754.0325	25719.15	24835.8
910.7576	1755.7307	25732.7	24847.8
910.8984	1757.4281	25622.5	24734.1
911.0392	1759.1247	25657.65	24763.1
911.18	1760.8206	25497.9	24606.95
911.3208	1762.5158	25483.2	24593.25
911.4615	1764.2102	25394.65	24510.85
911.6022	1765.9039	25313.9	24429.55
911.7429	1767.5968	25272.45	24388
911.8836	1769.289	25190.6	24305.5
912.0243	1770.9804	25149.05	24264.25
912.1649	1772.6711	25163.3	24277.5
912.3056	1774.361	25051.5	24166.65
912.4462	1776.0502	25040.65	24153.95
912.5868	1777.7386	24893.8	24005.3
912.7274	1779.4263	24835.1	23947.7
912.8679	1781.1132	24880.9	23998
913.0084	1782.7994	24702.8	23818.35
913.149	1784.4849	24704.5	23821.7
913.2895	1786.1696	24556.45	23652.4
913.4299	1787.8535	24564.45	23680.25
913.5704	1789.5367	24524.95	23641.55
913.7108	1791.2192	24490.6	23606.95
913.8513	1792.9009	24357.3	23441.95
913.9917	1794.5818	24325.3	23437.8
914.132	1796.2621	24214.15	23331.4
914.2724	1797.9415	24202.05	23317.65
914.4128	1799.6202	24148.2	23261.3
914.5531	1801.2982	24103.8	23217.25
914.6934	1802.9755	24007.05	23119.9
914.8337	1804.6519	24001.65	23115.7
914.9739	1806.3277	23951.05	23067.4
915.1142	1808.0027	23781.75	22899.1
915.2544	1809.6769	23818.95	22937.7
915.3946	1811.3504	23765.7	22879.85
915.5348	1813.0231	23653.2	22769.8
915.675	1814.6951	23682	22797.8
915.8151	1816.3664	23663.55	22776
915.9553	1818.0369	23614.2	22728
916.0954	1819.7067	23526.75	22645.3
916.2355	1821.3757	23492.75	22604.75
916.3755	1823.044	23359	22473.9
916.5156	1824.7115	23332.55	22450.45
916.6556	1826.3783	23257.8	22372.95
916.7956	1828.0443	23213.1	22331.05
916.9356	1829.7096	23158.2	22271.2
917.0756	1831.3741	23086.35	22200.05
917.2155	1833.0379	23060.75	22179.15
917.3555	1834.701	23009.5	22122.8
917.4954	1836.3633	22967.5	22084.05
917.6353	1838.0248	22920.25	22032.7
917.7751	1839.6856	22863.45	21976.65
917.915	1841.3457	22838.05	21951.6
918.0548	1843.005	22833.45	21947.25
918.1946	1844.6636	22782.25	21898.5
918.3344	1846.3214	22667.8	21781.15
918.4742	1847.9785	22663.9	21781.65
918.6139	1849.6349	22607.2	21720.05
918.7537	1851.2904	22545.35	21650.3
918.8934	1852.9453	22492.45	21605.6
919.0331	1854.5994	22439.7	21553.25
919.1727	1856.2528	22437.45	21546.8
919.3124	1857.9054	22326	21439.85
919.452	1859.5572	22306.15	21420.4
919.5916	1861.2083	22268	21382.8
919.7312	1862.8587	22288	21401.65
919.8708	1864.5084	22198.85	21312.35
920.0103	1866.1572	22142.35	21258.35
920.1498	1867.8054	22049.05	21162.05
920.2893	1869.4528	22031.15	21145.5
920.4288	1871.0994	21971.6	21085.75
920.5683	1872.7453	21920.6	21034.55
920.7077	1874.3905	21883.05	20990
920.8471	1876.0349	21796.45	20907.85
920.9865	1877.6786	21809.25	20923.55
921.1259	1879.3215	21796.1	20909.85
921.2653	1880.9637	21751.2	20865.2
921.4046	1882.6051	21678.6	20794.3
921.5439	1884.2458	21596.55	20710.35
921.6832	1885.8858	21530.05	20645.65
921.8225	1887.525	21503.35	20617.55
921.9617	1889.1634	21438.55	20552.75
922.101	1890.8011	21377.85	20492.95
922.2402	1892.4381	21316.65	20429.45
922.3794	1894.0743	21301.5	20417.15
922.5185	1895.7098	21245.25	20360.4
922.6577	1897.3446	21219.1	20333.15
922.7968	1898.9786	21112.25	20224
922.9359	1900.6118	21060.5	20176.6
923.075	1902.2443	20981.7	20091.65
923.214	1903.8761	20940.35	20055
923.3531	1905.5071	20848.55	19964.5
923.4921	1907.1374	20789.9	19903.65
923.6311	1908.7669	20750.95	19866.7
923.77	1910.3957	20702.15	19818.4
923.909	1912.0237	20577.15	19692.2
924.0479	1913.651	20551.75	19666.75
924.1868	1915.2776	20535.6	19650.3
924.3257	1916.9034	20432.2	19549.55
924.4646	1918.5285	20360.75	19478.05
924.6034	1920.1528	20277.5	19392.55
924.7422	1921.7764	20266.3	19381.8
924.881	1923.3992	20200.4	19317.15
925.0198	1925.0213	20043.75	19160
925.1586	1926.6427	19956.05	19073.95
925.2973	1928.2633	20154.05	19028.85
925.436	1929.8832	19934.05	19045.15
925.5747	1931.5023	19795.2	18910.3
925.7134	1933.1207	19741.05	18857.5
925.852	1934.7383	19733.35	18849
925.9906	1936.3552	19639.15	18756.3
926.1292	1937.9714	19591.9	18707.3
926.2678	1939.5868	19523	18636.05
926.4064	1941.2015	19443.65	18556.7
926.5449	1942.8154	19356.95	18472.55
926.6834	1944.4286	19304.1	18418.3
926.8219	1946.041	19211.85	18301.35
926.9604	1947.6528	19110.4	18219.5
927.0988	1949.2637	19064.45	18181.05
927.2372	1950.8739	19012.3	18128.2
927.3756	1952.4834	18992.8	18106.9
927.514	1954.0921	18938.55	18053.35
927.6523	1955.7001	18890.95	18001.75
927.7907	1957.3074	18849.95	17967.3
927.929	1958.9139	18747.75	17866.5
928.0673	1960.5197	18718.4	17834.3
928.2055	1962.1247	18636.65	17754.35
928.3438	1963.729	18501.75	17621.4
928.482	1965.3325	18495	17587.5
928.6202	1966.9353	18398.5	17517.2
928.7584	1968.5374	18368.65	17484.5
928.8965	1970.1387	18319.75	17435.65
929.0346	1971.7393	18261.55	17377.15
929.1727	1973.3392	18187.35	17303.95
929.3108	1974.9383	18111.5	17228.05
929.4489	1976.5366	18030.8	17148.65
929.5869	1978.1342	17972.75	17087.5
929.7249	1979.7311	17959.35	17077.2
929.8629	1981.3273	17940.45	17060.3
930.0009	1982.9227	17856.45	16973.15
930.1388	1984.5173	17795.85	16915
930.2767	1986.1112	17717.2	16836.05
930.4146	1987.7044	17713.15	16833.05
930.5525	1989.2968	17667.7	16783.5
930.6904	1990.8885	17600.8	16716.75
930.8282	1992.4795	17570.1	16685.95
930.966	1994.0697	17520	16638.2
931.1038	1995.6592	17451.65	16568.2
931.2415	1997.2479	17418.2	16537.2
931.3793	1998.8359	17344.5	16460.85
931.517	2000.4232	17281.65	16399.8
931.6547	2002.0097	17235.2	16355.95
931.7923	2003.5955	17129.5	16249.4
931.93	2005.1805	17137.85	16257.7
932.0676	2006.7648	17094	16213.4
932.2052	2008.3484	17060.95	16179.75
932.3427	2009.9312	17074.5	16193.1
932.4803	2011.5133	16972.75	16093.6
932.6178	2013.0946	16880.65	15999.8
932.7553	2014.6752	16871.1	15991.15
932.8928	2016.2551	16850.7	15967.95
933.0302	2017.8342	16743.4	15864.35
933.1676	2019.4126	16699.55	15818.4
933.305	2020.9902	16642.7	15764.35
933.4424	2022.5672	16623.4	15742.15
933.5798	2024.1433	16587.3	15702.1
933.7171	2025.7188	16509.85	15632.1
933.8544	2027.2935	16462.25	15581.8
933.9917	2028.8674	16434.45	15555.55
934.129	2030.4406	16358.6	15478.25
934.2662	2032.0131	16269.25	15389.7
934.4034	2033.5849	16254.65	15368.2
934.5406	2035.1559	16209.85	15331.85
934.6778	2036.7261	16182.7	15303.5
934.8149	2038.2957	16125	15243.9
934.952	2039.8645	16091.55	15210.35
935.0891	2041.4325	16097.85	15212.3
935.2262	2042.9998	16027.9	15148.5
935.3632	2044.5664	15992.25	15110.05
935.5002	2046.1323	15947.9	15066.3
935.6372	2047.6974	15885.4	15003.3
935.7742	2049.2617	15854.45	14977
935.9111	2050.8254	15853.7	14967.85
936.048	2052.3883	15820.9	14939.65
936.1849	2053.9504	15714.45	14831.1
936.3218	2055.5118	15683.7	14801.75
936.4586	2057.0725	15620.75	14734.55
936.5955	2058.6325	15583.45	14703.3
936.7323	2060.1917	15542.9	14662.1
936.869	2061.7502	15523.05	14641.75
937.0058	2063.3079	15465.8	14588.05
937.1425	2064.8649	15416.75	14532.5
937.2792	2066.4212	15344.7	14462.9
937.4159	2067.9767	15354.15	14473.35
937.5525	2069.5315	15288.95	14409.1
937.6891	2071.0856	15191.7	14311.4
937.8257	2072.6389	15168.6	14287.2
937.9623	2074.1915	15085.7	14207.25
938.0989	2075.7433	15030	14149.35
938.2354	2077.2945	14998.9	14118.95
938.3719	2078.8448	14974	14094.35
938.5084	2080.3945	14939.45	14057.3
938.6448	2081.9434	14899.65	14019.45
938.7812	2083.4916	14836.3	13953.55
938.9176	2085.039	14814.6	13929.65
939.054	2086.5857	14790.1	13906.7
939.1903	2088.1317	14738.3	13855.05
939.3267	2089.677	14695	13811.2
939.463	2091.2215	14687.1	13804.35
939.5992	2092.7652	14593.3	13708.2
939.7355	2094.3083	14573.8	13691
939.8717	2095.8506	14553.95	13675.5
940.0079	2097.3921	14558.9	13678.45
940.1441	2098.933	14501.6	13621.75
940.2802	2100.4731	14482.3	13599.8
940.4163	2102.0124	14478.95	13580.4
940.5524	2103.5511	14394.55	13511.65
940.6885	2105.089	14374.1	13489.25
940.8245	2106.6261	14304.9	13423.95
940.9606	2108.1626	14283.75	13402.6
941.0965	2109.6983	14264.95	13354.2
941.2325	2111.2332	14259.2	13377.45
941.3684	2112.7675	14167.75	13284.2
941.5044	2114.301	14160.25	13277.55
941.6403	2115.8337	14172.3	13290.25
941.7761	2117.3657	14095.7	13211.25
941.912	2118.897	14063.2	13179.05
942.0478	2120.4276	14046	13156.25
942.1835	2121.9575	13960.2	13077.1
942.3193	2123.4866	13957	13059.65
942.455	2125.0149	13919.7	13034.3
942.5907	2126.5426	13850.6	12969.4
942.7264	2128.0695	13816.8	12932.1
942.8621	2129.5956	13793.3	12913.9
942.9977	2131.1211	13742.6	12856.7
943.1333	2132.6458	13697.4	12816.75
943.2689	2134.1698	13682.4	12799.3
943.4044	2135.693	13626.4	12740.25
943.54	2137.2155	13579.35	12694.45
943.6755	2138.7373	13564.95	12683.15
943.8109	2140.2584	13552.45	12671.8
943.9464	2141.7787	13487.3	12598.35
944.0818	2143.2983	13418.5	12539.95
944.2172	2144.8171	13349.55	12469.65
944.3526	2146.3353	13369.9	12488.55
944.4879	2147.8527	13269.45	12389.8
944.6232	2149.3693	13287.2	12405.35
944.7585	2150.8853	13253.5	12370.85
944.8938	2152.4005	13179.4	12294.7
945.029	2153.9149	13170	12288.2
945.1642	2155.4287	13128.9	12247.85
945.2994	2156.9417	13083	12198.6
945.4346	2158.454	13050.05	12164.15
945.5697	2159.9655	13046.85	12165.65
945.7048	2161.4764	12990.5	12106.7
945.8399	2162.9865	12970.1	12089.15
945.9749	2164.4958	12899.7	12018
946.1099	2166.0045	12875.5	11990.85
946.2449	2167.5124	12836.8	11955.85
946.3799	2169.0195	12829.95	11951.25
946.5148	2170.526	12798.75	11916.4
946.6498	2172.0317	12757.1	11874.95
946.7846	2173.5367	12749.2	11867.4
946.9195	2175.0409	12713.25	11830.45
947.0543	2176.5445	12703	11821.35
947.1891	2178.0473	12627.95	11744.1
947.3239	2179.5494	12584.6	11699.7
947.4587	2181.0507	12506.7	11624
947.5934	2182.5513	12501.5	11617.75
947.7281	2184.0512	12440.7	11557.85
947.8628	2185.5504	12417.65	11534.75
947.9974	2187.0488	12355.65	11473.25
948.132	2188.5465	12329.1	11450.35
948.2666	2190.0435	12292.2	11410.25
948.4012	2191.5397	12234.05	11353.85
948.5357	2193.0353	12207.25	11325.85
948.6702	2194.5301	12134.6	11250.15
948.8047	2196.0241	12109.25	11228.1
948.9392	2197.5175	12100.2	11216.85
949.0736	2199.0101	12042.65	11155.75
949.208	2200.502	11993.9	11112.8
949.3424	2201.9931	11929.85	11047.6
949.4767	2203.4835	11908.6	11028
949.611	2204.9733	11900.4	11014.1
949.7453	2206.4622	11861.3	10981.45
949.8796	2207.9505	11808.75	10925.8
950.0138	2209.438	11763.35	10883.85
950.148	2210.9248	11733.6	10850.4
950.2822	2212.4109	11701.05	10819.05
950.4164	2213.8962	11659.25	10772.55
950.5505	2215.3809	11620.6	10735
950.6846	2216.8648	11593.45	10708.15
950.8186	2218.3479	11547.9	10659.35
950.9527	2219.8304	11527.2	10639.75
951.0867	2221.3121	11483.85	10598.45
951.2207	2222.7931	11448.1	10567.2
951.3546	2224.2733	11397.35	10513.95
951.4886	2225.7529	11358.7	10475.05
951.6225	2227.2317	11323.5	10437.1
951.7563	2228.7098	11331.5	10451.9
951.8902	2230.1872	11265.9	10386.45
952.024	2231.6638	11263.75	10382.2
952.1578	2233.1397	11228.7	10343.7
952.2916	2234.6149	11186.55	10306.55
952.4253	2236.0894	11141.9	10259.4
952.559	2237.5632	11120.6	10229.25
952.6927	2239.0362	11062.25	10181.25
952.8263	2240.5085	11050.8	10169.3
952.9599	2241.9801	11001.75	10118.8
953.0935	2243.4509	10953.75	10069.15
953.2271	2244.921	10902.3	10019.15
953.3606	2246.3904	10895.5	10010.5
953.4941	2247.8591	10853.65	9971.85
953.6276	2249.3271	10805.3	9922.65
953.7611	2250.7943	10766.3	9884.05
953.8945	2252.2608	10746.8	9862.8
954.0279	2253.7266	10713.9	9833
954.1612	2255.1917	10686.1	9803
954.2946	2256.656	10644	9760.35
954.4279	2258.1197	10628.5	9746.95
954.5612	2259.5826	10592.95	9710.25
954.6944	2261.0447	10565.55	9684.35
954.8276	2262.5062	10520.45	9636.4
954.9608	2263.9669	10499.85	9614.5
955.094	2265.4269	10485.65	9604.55
955.2271	2266.8862	10468.35	9586.1
955.3602	2268.3448	10455.65	9573.85
955.4933	2269.8026	10447.05	9565.7
955.6264	2271.2598	10378.9	9497.45
955.7594	2272.7162	10369.7	9487.55
955.8924	2274.1719	10315.8	9434.7
956.0253	2275.6268	10271.4	9387.75
956.1583	2277.0811	10264.15	9380.8
956.2912	2278.5346	10239.8	9357.4
956.4241	2279.9874	10206.8	9325.75
956.5569	2281.4395	10184.9	9303.9
956.6897	2282.8908	10135.7	9248.5
956.8225	2284.3414	10171.25	9286.5
956.9553	2285.7914	10120	9238.7
957.088	2287.2406	10079.2	9193.6
957.2207	2288.689	10057.65	9176.45
957.3534	2290.1368	10015.8	9130.55
957.486	2291.5838	9986.9	9099.2
957.6186	2293.0302	9949.65	9064.9
957.7512	2294.4758	9921.7	9037.25
957.8838	2295.9206	9890.8	9004.6
958.0163	2297.3648	9886.45	9002.05
958.1488	2298.8082	9855.35	8974.5
958.2813	2300.251	9813.95	8931.3
958.4137	2301.693	9790.1	8904.95
958.5461	2303.1343	9774.3	8889.5
958.6785	2304.5748	9729.6	8848.7
958.8108	2306.0147	9678	8795.95
958.9432	2307.4538	9681.4	8798.8
959.0754	2308.8922	9645.7	8764.3
959.2077	2310.3299	9635.4	8756.05
959.3399	2311.7669	9571.15	8690.2
959.4721	2313.2031	9563.25	8681.2
959.6043	2314.6387	9514.15	8629.55
959.7365	2316.0735	9505.9	8624.8
959.8686	2317.5076	9476.6	8594.85
960.0006	2318.941	9458.4	8576.6
960.1327	2320.3737	9454.05	8571.7
960.2647	2321.8056	9419.35	8533.6
960.3967	2323.2369	9400.75	8517.5
960.5287	2324.6674	9361	8477.3
960.6606	2326.0972	9343.25	8458.55
960.7925	2327.5263	9292.7	8409.75
960.9244	2328.9547	9263.1	8378.85
961.0562	2330.3823	9205.8	8322.4
961.1881	2331.8092	9224.75	8338.25
961.3198	2333.2355	9177.65	8293.85
961.4516	2334.661	9156.35	8271.75
961.5833	2336.0858	9122.65	8236.5
961.715	2337.5098	9117.15	8234
961.8467	2338.9332	9099.65	8215.4
961.9783	2340.3558	9066.65	8180.45
962.1099	2341.7778	9026.65	8145.7
962.2415	2343.199	8993.15	8109.05
962.373	2344.6195	8977.35	8095.15
962.5045	2346.0393	8938.35	8057.7
962.636	2347.4583	8950.5	8066.65
962.7675	2348.8767	8890.55	8005.65
962.8989	2350.2943	8882.85	7998.8
963.0303	2351.7113	8839.05	7953.1
963.1617	2353.1275	8825.4	7940.6
963.293	2354.543	8818.7	7926.75
963.4243	2355.9578	8786.85	7902.25
963.5556	2357.3718	8734.45	7852.5
963.6868	2358.7852	8722.7	7838.65
963.818	2360.1978	8673.65	7791.65
963.9492	2361.6098	8669.6	7786.75
964.0803	2363.021	8631.05	7744.45
964.2114	2364.4315	8602.65	7719.6
964.3425	2365.8413	8579.65	7696.55
964.4736	2367.2504	8524.9	7642.65
964.6046	2368.6587	8507.65	7624.05
964.7356	2370.0664	8482.9	7599.85
964.8666	2371.4733	8472.35	7588.4
964.9975	2372.8795	8411.75	7528.85
965.1284	2374.285	8395.25	7510.05
965.2593	2375.6899	8339.5	7458.05
965.3901	2377.0939	8322.3	7439.95
965.5209	2378.4973	8281.4	7400.5
965.6517	2379.9	8271.95	7388.2
965.7825	2381.3019	8251	7367.8
965.9132	2382.7032	8215.2	7334.85
966.0439	2384.1037	8206.1	7324.35
966.1745	2385.5035	8164.05	7279.8
966.3051	2386.9027	8144.55	7263.1
966.4357	2388.3011	8127.7	7242.35
966.5663	2389.6987	8096.4	7215.25
966.6968	2391.0957	8075.3	7194.1
966.8273	2392.492	8012.25	7130.8
966.9578	2393.8876	7975.55	7093.5
967.0882	2395.2824	7978.85	7098.4
967.2186	2396.6765	7940.05	7057.75
967.349	2398.07	7922.6	7038.85
967.4793	2399.4627	7922.4	7037.5
967.6097	2400.8547	7873.55	6991.95
967.7399	2402.246	7834.95	6944.25
967.8702	2403.6366	7818.65	6937.6
968.0004	2405.0265	7778.65	6895.9
968.1306	2406.4156	7748.75	6861
968.2607	2407.8041	7718.2	6832.45
968.3909	2409.1918	7679.25	6793.65
968.521	2410.5789	7682.15	6801.05
968.651	2411.9652	7638.3	6749.1
968.781	2413.3508	7620.1	6736.6
968.911	2414.7358	7584.45	6699
969.041	2416.12	7579.8	6697.1
969.1709	2417.5035	7553.85	6672.4
969.3008	2418.8863	7510.95	6625.05
969.4307	2420.2684	7512	6630.4
969.5606	2421.6497	7461.25	6576.6
969.6904	2423.0304	7411	6526.95
969.8201	2424.4104	7386.7	6502.8
969.9499	2425.7896	7391.5	6507.55
970.0796	2427.1682	7371.35	6487.5
970.2093	2428.546	7363.85	6481.6
970.3389	2429.9232	7329.3	6444.6
970.4685	2431.2996	7314.15	6432.15
970.5981	2432.6753	7305.4	6423.55
970.7277	2434.0503	7295	6411.3
970.8572	2435.4246	7260.1	6377.6
970.9867	2436.7982	7235.95	6348.95
971.1161	2438.1711	7205.75	6324.85
971.2456	2439.5433	7178.3	6294.2
971.375	2440.9148	7159.25	6270.1
971.5043	2442.2856	7111.95	6228.8
971.6336	2443.6557	7118	6233.95
971.7629	2445.025	7089.2	6206.65
971.8922	2446.3937	7078.65	6195.1
972.0214	2447.7617	7064.9	6181.55
972.1506	2449.1289	7024.1	6142.2
972.2798	2450.4955	7012	6125.75
972.4089	2451.8613	7001	6119.55
972.538	2453.2265	6963.8	6082.55
972.6671	2454.5909	6961.65	6077.4
972.7961	2455.9546	6965.75	6084.6
972.9251	2457.3177	6910.4	6027.55
973.0541	2458.68	6892.95	6009.8
973.1831	2460.0416	6879.15	5997.1
973.312	2461.4025	6882.3	5998.95
973.4408	2462.7627	6838.75	5945.1
973.5697	2464.1222	6825.4	5942.4
973.6985	2465.4811	6788.5	5904.9
973.8273	2466.8392	6793.15	5909.4
973.956	2468.1966	6783.75	5898.9
974.0847	2469.5533	6763.95	5879.55
974.2134	2470.9093	6744.05	5861.35
974.3421	2472.2645	6723.6	5839.65
974.4707	2473.6191	6706.4	5824.9
974.5993	2474.973	6660.45	5778.2
974.7278	2476.3262	6656.65	5771.15
974.8563	2477.6787	6630.5	5750.8
974.9848	2479.0305	6577.15	5694.4
975.1132	2480.3816	6585.6	5701.1
975.2417	2481.7319	6550.95	5667.95
975.37	2483.0816	6521.4	5637
975.4984	2484.4306	6518.1	5634.95
975.6267	2485.7789	6491.55	5611.95
975.755	2487.1264	6464.3	5582
975.8833	2488.4733	6449.5	5568.55
976.0115	2489.8195	6410.6	5520.65
976.1397	2491.165	6417.5	5530.8
976.2678	2492.5097	6378.2	5493.45
976.3959	2493.8538	6340.9	5456.85
976.524	2495.1972	6316.1	5432.5
976.6521	2496.5398	6320.5	5433.3
976.7801	2497.8818	6301.75	5417.85
976.9081	2499.2231	6270.9	5389.45
977.036	2500.5637	6254.05	5368.75
977.164	2501.9035	6231.05	5347.4
977.2918	2503.2427	6188.8	5300.7
977.4197	2504.5812	6198.15	5317.75
977.5475	2505.919	6188.6	5303.8
977.6753	2507.256	6190.25	5308.05
977.8031	2508.5924	6146.45	5265.35
977.9308	2509.9281	6138.85	5251.1
978.0585	2511.2631	6104.65	5223.4
978.1861	2512.5974	6073.1	5191.55
978.3137	2513.9309	6057.05	5173.5
978.4413	2515.2638	6079.55	5166.9
978.5689	2516.596	6046.1	5163.55
978.6964	2517.9275	6022.15	5140.2
978.8239	2519.2583	6002.1	5116.8
978.9513	2520.5884	5959.8	5076.7
979.0788	2521.9178	5942.3	5058.1
979.2062	2523.2465	5935.25	5053.45
979.3335	2524.5745	5909.9	5028.1
979.4608	2525.9018	5899.6	5018.45
979.5881	2527.2284	5868.35	4988.6
979.7154	2528.5543	5883.9	5003.45
979.8426	2529.8796	5867.75	4982
979.9698	2531.2041	5835.2	4953.7
980.0969	2532.5279	5815.25	4934.85
980.224	2533.851	5805.45	4921.05
980.3511	2535.1735	5801.1	4918.6
980.4781	2536.4952	5786	4902.65
980.6052	2537.8163	5759.2	4875.5
980.7321	2539.1366	5750.7	4866.05
980.8591	2540.4562	5720	4834.85
980.986	2541.7752	5706.4	4821.4
981.1129	2543.0935	5723.6	4841.1
981.2397	2544.411	5694.95	4810.7
981.3665	2545.7279	5679.2	4796
981.4933	2547.0441	5674.35	4789.3
981.62	2548.3596	5669.4	4783.5
981.7467	2549.6744	5666.8	4783.95
981.8734	2550.9885	5646.35	4754.95
982.0001	2552.3019	5614.8	4732.5
982.1267	2553.6146	5608.35	4725.45
982.2532	2554.9266	5589	4707.35
982.3798	2556.2379	5576.45	4691.05
982.5063	2557.5485	5586.8	4704.7
982.6327	2558.8585	5548.35	4658.6
982.7592	2560.1677	5548.9	4661.85
982.8856	2561.4762	5532.75	4649.75
983.0119	2562.7841	5531.05	4643.55
983.1383	2564.0913	5511.6	4628.1
983.2646	2565.3977	5508.25	4625.55
983.3908	2566.7035	5479.75	4595.65
983.517	2568.0086	5469.75	4584.05
983.6432	2569.313	5468.75	4584.75
983.7694	2570.6167	5452.45	4566.85
983.8955	2571.9197	5430.65	4546.7
984.0216	2573.222	5427.35	4540.7
984.1476	2574.5236	5432.1	4549.25
984.2737	2575.8246	5423.75	4534.55
984.3996	2577.1248	5416.45	4531.35
984.5256	2578.4244	5370.6	4488.9
984.6515	2579.7232	5376.5	4492.7
984.7774	2581.0214	5387.35	4480.8
984.9032	2582.3189	5351.45	4468.5
985.029	2583.6157	5352.45	4464.2
985.1548	2584.9118	5323.75	4440.8
985.2806	2586.2072	5315.45	4431.7
985.4063	2587.5019	5310.8	4427.5
985.5319	2588.7959	5273.4	4389.8
985.6576	2590.0893	5283.05	4398.4
985.7832	2591.3819	5271.8	4391.05
985.9087	2592.6739	5240.5	4359.7
986.0343	2593.9652	5210.35	4328.1
986.1597	2595.2557	5205.45	4321.2
986.2852	2596.5456	5202.4	4316.65
986.4106	2597.8348	5183.05	4300.9
986.536	2599.1234	5159.05	4277.25
986.6614	2600.4112	5143.3	4258.6
986.7867	2601.6983	5136.75	4250.35
986.912	2602.9848	5123.2	4237.35
987.0372	2604.2705	5088.05	4196.8
987.1624	2605.5556	5080.9	4199.25
987.2876	2606.84	5063.1	4181.45
987.4128	2608.1237	5048.45	4164.55
987.5379	2609.4067	5040.05	4155.85
987.6629	2610.689	5024.7	4134.7
987.788	2611.9707	4996.3	4109.25
987.913	2613.2516	4967.3	4079.5
988.0379	2614.5319	4945.1	4064.55
988.1629	2615.8115	4932.85	4047.15
988.2878	2617.0903	4915.6	4031.7
988.4126	2618.3685	4918.3	4035.15
988.5375	2619.6461	4889.95	4005.9
988.6622	2620.9229	4871.15	3989.3
988.787	2622.199	4842.05	3957.45
988.9117	2623.4745	4855.2	3972.55
989.0364	2624.7493	4827.3	3944.65
989.161	2626.0234	4810.3	3927.7
989.2857	2627.2968	4799.2	3915.45
989.4102	2628.5695	4786.95	3904.8
989.5348	2629.8415	4764.35	3883.4
989.6593	2631.1128	4761.8	3878.2
989.7837	2632.3835	4731.8	3850.15
989.9082	2633.6535	4703.1	3820.25
990.0326	2634.9228	4694.3	3812.1
990.1569	2636.1914	4683.3	3800.8
990.2812	2637.4593	4675.05	3788.4
990.4055	2638.7265	4652.85	3771.25
990.5298	2639.9931	4652.7	3771.05
990.654	2641.259	4642.9	3760.35
990.7782	2642.5242	4622.6	3738.2
990.9023	2643.7887	4604.85	3723.4
991.0264	2645.0525	4607.3	3724.1
991.1505	2646.3156	4594.85	3710.85
991.2745	2647.5781	4566.6	3685.5
991.3985	2648.8398	4546	3664.5
991.5225	2650.1009	4534.65	3644.55
991.6464	2651.3613	4530.3	3646.05
991.7703	2652.6211	4518.6	3637.95
991.8942	2653.8801	4513.85	3633.2
992.018	2655.1385	4495.55	3610.15
992.1418	2656.3961	4492.45	3610.3
992.2655	2657.6531	4487.95	3604.75
992.3892	2658.9094	4460.1	3579.2
992.5129	2660.1651	4449.7	3567.2
992.6366	2661.42	4455.95	3572.65
992.7602	2662.6743	4429.15	3546.45
992.8837	2663.9279	4430.4	3546.6
993.0073	2665.1808	4412	3529.95
993.1307	2666.433	4389.25	3504.85
993.2542	2667.6846	4386.1	3504.95
993.3776	2668.9354	4381.35	3494.6
993.501	2670.1856	4365	3481.15
993.6244	2671.4351	4359.9	3478.45
993.7477	2672.6839	4355.4	3472.45
993.8709	2673.9321	4330.35	3448.2
993.9942	2675.1795	4321.25	3439
994.1174	2676.4263	4302.25	3419.65
994.2405	2677.6724	4295.85	3415.1
994.3637	2678.9179	4286	3403.4
994.4868	2680.1626	4277.65	3395.85
994.6098	2681.4067	4265.15	3383
994.7328	2682.6501	4259.15	3377.95
994.8558	2683.8928	4246.7	3365.1
994.9788	2685.1348	4238.5	3357.75
995.1017	2686.3761	4197.85	3316.85
995.2245	2687.6168	4214.5	3333
995.3474	2688.8568	4189.85	3306.35
995.4702	2690.0961	4158.9	3279.3
995.5929	2691.3348	4171.1	3288.25
995.7156	2692.5727	4151	3268.2
995.8383	2693.81	4142.5	3260.95
995.961	2695.0466	4126.85	3245.2
996.0836	2696.2826	4124.75	3242.7
996.2062	2697.5178	4124.6	3223.1
996.3287	2698.7524	4086.4	3203.35
996.4512	2699.9863	4093.45	3211.25
996.5737	2701.2195	4076.4	3194.85
996.6961	2702.452	4091.7	3208.4
996.8185	2703.6839	4067.35	3184.3
996.9408	2704.9151	4041.2	3160
997.0631	2706.1456	4030.85	3146.55
997.1854	2707.3755	4019.5	3138.1
997.3077	2708.6046	4012.7	3127.7
997.4299	2709.8331	3999.8	3118.9
997.552	2711.0609	3990.95	3108.45
997.6742	2712.2881	3995.65	3113.8
997.7963	2713.5145	3971.2	3086.3
997.9183	2714.7403	3968.9	3087.35
998.0403	2715.9654	3963.4	3081.2
998.1623	2717.1899	3957.55	3060.5
998.2842	2718.4136	3950.5	3069.9
998.4062	2719.6367	3928.2	3046.65
998.528	2720.8591	3922.15	3032.35
998.6498	2722.0809	3891.65	3008.95
998.7716	2723.3019	3903.4	3018.15
998.8934	2724.5223	3884.2	3001.65
999.0151	2725.7421	3875.55	2991.7
999.1368	2726.9611	3864.25	2980.9
999.2584	2728.1795	3860.8	2973.8
999.38	2729.3972	3847.05	2966.35
999.5016	2730.6142	3851.05	2958.5
999.6231	2731.8306	3802.7	2920.9
999.7446	2733.0462	3809.35	2923.6
999.8661	2734.2612	3784.2	2896.85
999.9875	2735.4756	3760.7	2877.1
1000.1089	2736.6892	3758.05	2875.05
1000.2302	2737.9022	3732.1	2853.35
1000.3515	2739.1145	3699.5	2817.7
1000.4728	2740.3262	3692.35	2803.2
1000.594	2741.5372	3689.55	2808.2
1000.7152	2742.7475	3662.25	2781.45
1000.8363	2743.9571	3660.95	2775.7
1000.9575	2745.1661	3661.05	2775.25
1001.0785	2746.3744	3652.3	2772.7
1001.1996	2747.582	3627.1	2746.85
1001.3206	2748.7889	3609.4	2724.75
1001.4415	2749.9952	3609.75	2729.7
1001.5625	2751.2008	3589.2	2704.3
1001.6833	2752.4057	3577.35	2693.35
1001.8042	2753.61	3559	2675.7
1001.925	2754.8136	3551.7	2668.4
1002.0458	2756.0165	3536.5	2655
1002.1665	2757.2188	3522.8	2641.3
1002.2872	2758.4204	3520.05	2637.75
1002.4078	2759.6213	3512.25	2629
1002.5285	2760.8215	3509.3	2624.05
1002.649	2762.0211	3492.2	2610.9
1002.7696	2763.22	3484.8	2600.45
1002.8901	2764.4182	3468.95	2585.7
1003.0106	2765.6158	3458.45	2574.85
1003.131	2766.8127	3452.25	2569.45
1003.2514	2768.009	3435.6	2554.95
1003.3717	2769.2045	3436	2553.45
1003.492	2770.3994	3429.35	2546.45
1003.6123	2771.5936	3419.35	2537.85
1003.7325	2772.7872	3411	2530.55
1003.8527	2773.9801	3391.55	2509
1003.9729	2775.1723	3405.05	2503.2
1004.093	2776.3639	3377.1	2496.4
1004.2131	2777.5548	3362.7	2479.45
1004.3331	2778.745	3362.55	2480.05
1004.4531	2779.9346	3348.55	2466.9
1004.5731	2781.1235	3338.45	2456.45
1004.693	2782.3117	3324.95	2445.3
1004.8129	2783.4992	3310.7	2431.3
1004.9328	2784.6861	3299.8	2417
1005.0526	2785.8723	3318.4	2436.15
1005.1723	2787.0579	3284.7	2402.1
1005.2921	2788.2428	3289.35	2408.3
1005.4118	2789.427	3260.5	2380.25
1005.5314	2790.6106	3273.9	2392.4
1005.651	2791.7935	3277.85	2395.95
1005.7706	2792.9757	3264.35	2384.1
1005.8902	2794.1573	3251.75	2365.7
1006.0097	2795.3382	3229.15	2348.65
1006.1291	2796.5184	3227.95	2347.7
1006.2485	2797.698	3231.65	2349.8
1006.3679	2798.8769	3231.55	2350.4
1006.4873	2800.0551	3229.95	2348.6
1006.6066	2801.2327	3202.85	2320.45
1006.7258	2802.4096	3207.85	2327.95
1006.8451	2803.5859	3208.6	2328.5
1006.9642	2804.7615	3190.05	2308.8
1007.0834	2805.9364	3197.5	2318.35
1007.2025	2807.1106	3183.95	2303.05
1007.3216	2808.2842	3187.4	2302.6
1007.4406	2809.4572	3189.75	2309.75
1007.5596	2810.6294	3201.85	2317.85
1007.6785	2811.801	3200.95	2323.3
1007.7975	2812.972	3208.65	2329.4
1007.9163	2814.1423	3212.8	2329.25
1008.0352	2815.3119	3228.75	2347.45
1008.154	2816.4808	3227.55	2347.9
1008.2727	2817.6491	3245.75	2365.4
1008.3914	2818.8167	3256.1	2374.75
1008.5101	2819.9837	3278.1	2391.15
1008.6288	2821.15	3271.35	2391.05
1008.7474	2822.3157	3286.35	2407.4
1008.8659	2823.4807	3295.9	2414.3
1008.9844	2824.645	3309.05	2428.55
1009.1029	2825.8086	3332.4	2451.65
1009.2214	2826.9716	3339.25	2460.05
1009.3398	2828.134	3357.3	2477.85
1009.4581	2829.2957	3377.7	2493.95
1009.5764	2830.4567	3371.15	2493.25
1009.6947	2831.617	3398.05	2515.25
1009.813	2832.7767	3387.1	2506.9
1009.9312	2833.9358	3372.55	2493.1
1010.0493	2835.0941	3359.65	2473.65
1010.1675	2836.2519	3365.1	2484.65
1010.2855	2837.4089	3342.85	2460.1
1010.4036	2838.5653	3341.35	2461.3
1010.5216	2839.7211	3322.4	2442.45
1010.6396	2840.8761	3309.55	2427.35
1010.7575	2842.0306	3308.95	2430.05
1010.8754	2843.1843	3320.25	2438.65
1010.9932	2844.3374	3322.15	2441.5
1011.111	2845.4899	3313.15	2431.4
1011.2288	2846.6417	3357.75	2476.95
1011.3465	2847.7928	3367.95	2489.05
1011.4642	2848.9433	3385	2503.9
1011.5818	2850.0931	3393.15	2513.75
1011.6995	2851.2422	3417.7	2533.9
1011.817	2852.3907	3432.75	2551.85
1011.9345	2853.5385	3465.55	2583.35
1012.052	2854.6857	3457.05	2565.4
1012.1695	2855.8323	3455.4	2576.75
1012.2869	2856.9781	3468.4	2587.7
1012.4042	2858.1233	3487.15	2606.15
1012.5216	2859.2679	3500.35	2620.3
1012.6389	2860.4118	3502	2623.1
1012.7561	2861.555	3522.6	2636.85
1012.8733	2862.6976	3513.25	2631.65
1012.9905	2863.8395	3523.85	2643.65
1013.1076	2864.9808	3533	2653.3
1013.2247	2866.1214	3531.65	2652.05
1013.3417	2867.2614	3529.95	2648.2
1013.4587	2868.4007	3524.45	2643.1
1013.5757	2869.5393	3531.15	2648.7
1013.6926	2870.6773	3523.3	2640.7
1013.8095	2871.8146	3518.1	2636.1
1013.9263	2872.9513	3509.1	2625.45
1014.0431	2874.0874	3496.9	2615.8
1014.1599	2875.2227	3484.6	2600.9
1014.2766	2876.3574	3469.15	2587.65
1014.3933	2877.4915	3446.05	2565.95
1014.51	2878.6249	3434.25	2553.7
1014.6266	2879.7577	3410.75	2528.55
1014.7431	2880.8898	3424.1	2533.95
1014.8596	2882.0212	3389.95	2511.6
1014.9761	2883.152	3370.75	2489.05
1015.0925	2884.2821	3363.5	2485.25
1015.2089	2885.4116	3345.15	2466.7
1015.3253	2886.5405	3335.3	2454.05
1015.4416	2887.6686	3361.05	2478.15
1015.5579	2888.7962	3334.9	2455.75
1015.6741	2889.923	3337.05	2457.65
1015.7903	2891.0493	3341.8	2465.6
1015.9065	2892.1748	3350.7	2470.75
1016.0226	2893.2997	3330.8	2451.8
1016.1387	2894.424	3331.9	2451.4
1016.2547	2895.5476	3328.3	2447.3
1016.3707	2896.6706	3333.35	2456.75
1016.4866	2897.7929	3322.65	2440.95
1016.6025	2898.9145	3317	2437.25
1016.7184	2900.0355	3331.45	2449.7
1016.8342	2901.1559	3331.65	2451.9
1016.95	2902.2756	3325.2	2445.8
1017.0658	2903.3946	3330.55	2449.4
1017.1815	2904.513	3345.85	2463.55
1017.2971	2905.6308	3332.05	2452.9
1017.4127	2906.7479	3339.05	2457.55
1017.5283	2907.8643	3345.5	2467.9
1017.6439	2908.9801	3354.45	2473.95
1017.7594	2910.0953	3357.55	2477.85
1017.8748	2911.2098	3325.95	2442
1017.9902	2912.3236	3317.45	2426.5
1018.1056	2913.4368	3314.15	2431.45
1018.2209	2914.5494	3299.6	2416.7
1018.3362	2915.6613	3284.6	2399.6
1018.4515	2916.7725	3263.7	2382.85
1018.5667	2917.8831	3257.55	2374.4
1018.6819	2918.9931	3230.3	2347.95
1018.797	2920.1024	3216.8	2336.6
1018.9121	2921.211	3198	2316.45
1019.0271	2922.319	3181.7	2301.25
1019.1421	2923.4264	3180.2	2301.1
1019.2571	2924.5331	3169.4	2289.45
1019.372	2925.6391	3159.95	2280.9
1019.4869	2926.7445	3165.6	2286.35
1019.6017	2927.8493	3146.8	2265.9
1019.7165	2928.9534	3138.8	2256.75
1019.8313	2930.0569	3149.05	2266.7
1019.946	2931.1597	3145.55	2265.3
1020.0606	2932.2619	3129	2250.55
1020.1753	2933.3634	3145.15	2266.7
1020.2899	2934.4643	3149.05	2261.05
1020.4044	2935.5645	3123.65	2235.85
1020.5189	2936.6641	3114.7	2230.9
1020.6334	2937.763	3083.5	2203.15
1020.7478	2938.8613	3057	2176.65
1020.8622	2939.959	3051.8	2167.45
1020.9765	2941.056	3007.4	2128.6
1021.0908	2942.1523	2984.3	2104.25
1021.2051	2943.248	2965.45	2084.25
1021.3193	2944.3431	2907.4	2030.3
1021.4334	2945.4375	2871.75	1988.65
1021.5476	2946.5313	2833.25	1954.65
1021.6617	2947.6244	2789.45	1908.3
1021.7757	2948.7169	2744.8	1865.2
1021.8897	2949.8087	2719.1	1840.1
1022.0037	2950.8999	2674.65	1794.05
1022.1176	2951.9904	2642.55	1761.4
1022.2315	2953.0803	2596.5	1717.45
1022.3453	2954.1696	2578.2	1697.1
1022.4591	2955.2582	2556.05	1676.35
1022.5728	2956.3462	2540.65	1659.95
1022.6865	2957.4335	2507	1625.9
1022.8002	2958.5202	2502.6	1622
1022.9138	2959.6062	2470.15	1589.85
1023.0274	2960.6916	2466.95	1588.5
1023.141	2961.7764	2455.15	1575.75
1023.2545	2962.8605	2436.95	1556.25
1023.3679	2963.9439	2428	1550.75
1023.4813	2965.0267	2423.5	1542.05
1023.5947	2966.1089	2433.85	1530.6
1023.708	2967.1905	2409	1529.25
1023.8213	2968.2714	2390.45	1510.9
1023.9346	2969.3516	2393.15	1514.15
1024.0478	2970.4312	2405.1	1515.85
1024.1609	2971.5102	2378.1	1499.2
1024.274	2972.5885	2384.25	1505.25
1024.3871	2973.6662	2376.6	1490.9
1024.5002	2974.7432	2357.6	1479.4
1024.6132	2975.8196	2366.25	1485.05
1024.7261	2976.8954	2363.9	1484.7
1024.839	2977.9705	2355.2	1477.05
1024.9519	2979.045	2340.75	1462.3
1025.0647	2980.1188	2328.05	1450.3
1025.1775	2981.192	2316	1436.4
1025.2902	2982.2645	2306.15	1423.2
1025.4029	2983.3364	2289.7	1410.05
1025.5156	2984.4077	2288.25	1408
1025.6282	2985.4783	2275.05	1388.8
1025.7407	2986.5483	2244.3	1365.25
1025.8532	2987.6177	2239.25	1360.8
1025.9657	2988.6864	2217.4	1336.5
1026.0782	2989.7545	2208.15	1325.85
1026.1906	2990.8219	2191.05	1311.95
1026.3029	2991.8887	2172.45	1291.75
1026.4152	2992.9548	2157.2	1276.65
1026.5275	2994.0204	2149.35	1270.3
1026.6397	2995.0852	2121.65	1242.25
1026.7519	2996.1495	2109.7	1228.85
1026.864	2997.2131	2090.7	1210.6
1026.9761	2998.276	2083.9	1203.55
1027.0882	2999.3383	2074.75	1194.15
1027.2002	3000.4	2057	1175.8
1027.3122	3001.4611	2054.7	1175.15
1027.4241	3002.5215	2045.6	1164.4
1027.536	3003.5812	2029.1	1150.5
1027.6478	3004.6404	2017.3	1139.55
1027.7596	3005.6989	2014.55	1131.05
1027.8714	3006.7567	2015	1135.3
1027.9831	3007.8139	2013.95	1113.15
1028.0947	3008.8705	1993.15	1115
1028.2064	3009.9264	1990.95	1106.65
1028.3179	3010.9818	1983.65	1104.65
1028.4295	3012.0364	1982.55	1101.6
1028.541	3013.0905	1971.3	1091.65
1028.6524	3014.1439	1971.65	1090
1028.7638	3015.1966	1956.5	1077.55
1028.8752	3016.2487	1947.7	1068.05
1028.9865	3017.3002	1953.35	1070.35
1029.0978	3018.3511	1929.55	1051.8
1029.209	3019.4013	1945.55	1064.1
1029.3202	3020.4509	1928.7	1048.35
1029.4314	3021.4998	1915.75	1037.4
1029.5425	3022.5481	1922.1	1042.4
1029.6535	3023.5958	1920.25	1040.85
1029.7645	3024.6428	1905.95	1024.6
1029.8755	3025.6892	1898.05	1020.7
1029.9864	3026.735	1908.8	1027.9
1030.0973	3027.7802	1904.25	1024
1030.2082	3028.8247	1894	1014.7
1030.319	3029.8685	1896.2	1016.5
1030.4297	3030.9118	1885.55	1006.3
1030.5404	3031.9544	1888.25	1009.05
1030.6511	3032.9963	1881.4	1001.55
1030.7617	3034.0376	1879.2	1001.65
1030.8723	3035.0783	1872.8	990.55
1030.9829	3036.1184	1873.7	993.05
1031.0934	3037.1578	1869.3	990.4
1031.2038	3038.1966	1868.65	987.5
1031.3142	3039.2348	1860.45	984.7
1031.4246	3040.2723	1861.45	972.3
1031.5349	3041.3092	1850.3	974.15
1031.6452	3042.3455	1847.6	966.95
1031.7554	3043.3811	1848.65	966.75
1031.8656	3044.4161	1835.1	957.45
1031.9758	3045.4505	1843.65	967.1
1032.0859	3046.4842	1837	956.7
1032.1959	3047.5173	1827.85	949.85
1032.3059	3048.5498	1824.2	943.75
1032.4159	3049.5816	1823.6	943.9
1032.5258	3050.6128	1826.8	946.6
1032.6357	3051.6434	1816.25	935.3
1032.7455	3052.6734	1815.55	935.6
1032.8553	3053.7027	1807.9	930.1
1032.9651	3054.7314	1796.15	919.8
1033.0748	3055.7594	1795.05	915.55
1033.1845	3056.7868	1794.45	913.6
1033.2941	3057.8136	1776.95	897.85
1033.4037	3058.8398	1781.25	901.85
1033.5132	3059.8653	1783	904.7
1033.6227	3060.8902	1770.95	891.7
1033.7321	3061.9145	1776.4	897.95
1033.8415	3062.9381	1768.35	888.9
1033.9509	3063.9612	1769.85	874.55
1034.0602	3064.9835	1759.4	880.3
1034.1694	3066.0053	1752.95	870
1034.2787	3067.0264	1736.4	857.2
1034.3878	3068.0469	1745.95	865.95
1034.497	3069.0668	1745.3	864.3
1034.6061	3070.086	1743.4	864.75
1034.7151	3071.1046	1728.3	849.35
1034.8241	3072.1226	1727.55	846.8
1034.9331	3073.1399	1719.55	840.4
1035.042	3074.1567	1709.95	831.3
1035.1508	3075.1727	1705.45	826.75
1035.2597	3076.1882	1701.95	825.8
1035.3684	3077.203	1700.8	822.1
1035.4772	3078.2173	1698.7	818.3
1035.5859	3079.2308	1690.3	807.15
1035.6945	3080.2438	1683.7	803.1
1035.8031	3081.2561	1673.7	794.55
1035.9117	3082.2678	1672.8	796.15
1036.0202	3083.2789	1664.1	783.65
1036.1286	3084.2893	1659.75	782.6
1036.2371	3085.2991	1657.5	777.25
1036.3454	3086.3083	1653.5	769.3
1036.4538	3087.3169	1640.3	760.45
1036.562	3088.3248	1637.25	757.05
1036.6703	3089.3321	1636.95	753.95
1036.7785	3090.3388	1635.2	758
1036.8866	3091.3449	1626.9	747.95
1036.9948	3092.3503	1623.25	742.75
1037.1028	3093.3551	1618.65	742.6
1037.2108	3094.3593	1614.75	734.5
1037.3188	3095.3629	1610.1	732.25
1037.4267	3096.3658	1612.05	732.2
1037.5346	3097.3681	1604.75	724.8
1037.6425	3098.3698	1599.4	719.6
1037.7503	3099.3708	1606.4	722.05
1037.858	3100.3713	1590.4	712.7
1037.9657	3101.3711	1581.55	701.9
1038.0734	3102.3702	1710.65	691.45
1038.181	3103.3688	1585.95	705.75
1038.2886	3104.3667	1566.35	687.4
1038.3961	3105.364	1566.1	687.15
1038.5036	3106.3607	1562.1	682
1038.611	3107.3568	1561.8	681.45
1038.7184	3108.3522	1549.35	672.35
1038.8257	3109.347	1556.65	676.65
1038.933	3110.3412	1557.05	674.7
1039.0403	3111.3348	1540.6	661.6
1039.1475	3112.3277	1539.4	662.15
1039.2547	3113.32	1533.1	656.6
1039.3618	3114.3117	1534.9	656
1039.4689	3115.3028	1522.85	643.55
1039.5759	3116.2932	1526.55	645.9
1039.6829	3117.2831	1527.6	643.4
1039.7898	3118.2723	1513.1	633.2
1039.8967	3119.2608	1512.4	632.3
1040.0035	3120.2488	1508.4	627.9
1040.1103	3121.2361	1503.25	625.75
1040.2171	3122.2229	1496.95	616.1
1040.3238	3123.209	1501.45	622.15
1040.4305	3124.1944	1499.6	620.5
1040.5371	3125.1793	1497.35	617.65
1040.6437	3126.1635	1489.9	611.05
1040.7502	3127.1471	1488.75	611.45
1040.8567	3128.1301	1482.9	603.8
1040.9631	3129.1125	1478.4	601.45
1041.0695	3130.0942	1481.75	602.6
1041.1759	3131.0753	1481.35	594
1041.2822	3132.0558	1476.1	594.3
1041.3884	3133.0357	1470.85	593.05
1041.4946	3134.015	1466.45	586.85
1041.6008	3134.9936	1461.75	581.1
1041.7069	3135.9716	1478.7	577.75
1041.813	3136.949	1458.75	578.9
1041.919	3137.9258	1456.6	574
1042.025	3138.902	1455.7	569.9
1042.1309	3139.8775	1449.75	571.15
1042.2368	3140.8524	1440.55	560.9
1042.3427	3141.8267	1442.6	562.4
1042.4485	3142.8004	1444.3	565.75
1042.5542	3143.7735	1443.35	558.1
1042.6599	3144.7459	1443.9	562.3
1042.7656	3145.7178	1435.3	556
1042.8712	3146.689	1431.1	553.35
1042.9768	3147.6596	1431.1	550.15
1043.0823	3148.6295	1417.5	540.05
1043.1878	3149.5989	1419.2	540.7
1043.2932	3150.5676	1417.25	539.25
1043.3986	3151.5357	1416.8	540.2
1043.5039	3152.5032	1418.45	539.45
1043.6092	3153.4701	1410.05	530.65
1043.7145	3154.4364	1408.65	526.4
1043.8197	3155.402	1404.65	527.55
1043.9248	3156.367	1402.15	521.8
1044.03	3157.3315	1436.15	517.7
1044.135	3158.2952	1393.3	515
1044.24	3159.2584	1391.8	511.3
1044.345	3160.221	1387.05	507.75
1044.4499	3161.1829	1393.65	514.65
1044.5548	3162.1442	1386.3	506.95
1044.6596	3163.105	1380.85	501.75
1044.7644	3164.065	1371.25	492
1044.8692	3165.0245	1368.5	488.65
1044.9739	3165.9834	1370.2	493.2
1045.0785	3166.9416	1370.5	491.6
1045.1831	3167.8993	1367.4	490.4
1045.2877	3168.8563	1362.4	482.9
1045.3922	3169.8127	1359.4	480.7
1045.4966	3170.7684	1355.15	476
1045.6011	3171.7236	1359.25	480.6
1045.7054	3172.6782	1349.35	472.8
1045.8098	3173.6321	1355.05	475.55
1045.914	3174.5854	1353.2	469.15
1046.0183	3175.5381	1343.55	464.45
1046.1224	3176.4902	1334.7	455.35
1046.2266	3177.4417	1336.8	459
1046.3307	3178.3926	1347.5	469.15
1046.4347	3179.3428	1330.5	454.3
1046.5387	3180.2924	1333.3	455.35
1046.6427	3181.2415	1330.15	451.1
1046.7466	3182.1899	1333.2	451.15
1046.8504	3183.1377	1327.25	448.65
1046.9542	3184.0848	1328.25	446.7
1047.058	3185.0314	1324.2	444.3
1047.1617	3185.9773	1317.55	438.7
1047.2654	3186.9227	1313.55	434.4
1047.369	3187.8674	1316.3	437.5
1047.4726	3188.8115	1313.45	431.1
1047.5761	3189.755	1309	432.6
1047.6796	3190.6979	1307.55	429.3
1047.783	3191.6402	1306.65	428
1047.8864	3192.5818	1300.45	420.65
1047.9898	3193.5229	1315.95	420.1
1048.0931	3194.4633	1298.6	421
1048.1963	3195.4031	1296.95	417.25
1048.2995	3196.3423	1306.25	429.3
1048.4027	3197.2809	1292.2	412.5
1048.5058	3198.2189	1292.3	412.65
1048.6089	3199.1563	1303.45	408.05
1048.7119	3200.0931	1286.15	409.45
1048.8148	3201.0292	1282.6	404.45
1048.9178	3201.9648	1278.55	399.95
1049.0206	3202.8997	1283.8	402.55
1049.1235	3203.834	1274.55	396.2
1049.2262	3204.7677	1276.85	400.15
1049.329	3205.7008	1276.85	397.3
1049.4317	3206.6333	1265.45	386.1
1049.5343	3207.5652	1275.05	392.8
1049.6369	3208.4964	1264.45	383.95
1049.7394	3209.4271	1269	391.2
1049.8419	3210.3571	1266.85	387.3
1049.9444	3211.2865	1263	382.7
1050.0468	3212.2154	1261.15	380.8
1050.1491	3213.1436	1263.5	381.75
1050.2514	3214.0712	1261.9	375.35
1050.3537	3214.9982	1257.55	378.95
1050.4559	3215.9246	1251.35	372.3
1050.5581	3216.8503	1250.7	372.55
1050.6602	3217.7755	1247.3	367.35
1050.7623	3218.7001	1243.7	363.75
1050.8643	3219.624	1243.3	365.45
1050.9663	3220.5473	1245.35	367.4
1051.0682	3221.4701	1237.3	357
1051.1701	3222.3922	1243.5	363.1
1051.2719	3223.3137	1239.25	361.4
1051.3737	3224.2346	1231.4	354.3
1051.4754	3225.1549	1229.5	349.25
1051.5771	3226.0746	1229.6	352.65
1051.6788	3226.9937	1230.55	353.7
1051.7804	3227.9121	1226.75	350.35
1051.8819	3228.83	1228.75	349.25
1051.9834	3229.7473	1221.25	341.7
1052.0849	3230.6639	1219	338.45
1052.1863	3231.5799	1221.5	343.25
1052.2876	3232.4954	1218.5	340.55
1052.3889	3233.4102	1218.6	341.7
1052.4902	3234.3244	1210.8	333.25
1052.5914	3235.238	1214.1	336.15
1052.6926	3236.151	1234.5	330.15
1052.7937	3237.0634	1207.65	330.95
1052.8948	3237.9752	1207.65	328.4
1052.9958	3238.8864	1208.55	329.05
1053.0968	3239.797	1200.15	322.05
1053.1977	3240.7069	1199.55	320.65
1053.2986	3241.6163	1197.9	318.55
1053.3994	3242.5251	1196.3	319.95
1053.5002	3243.4332	1194.25	315.05
1053.6009	3244.3408	1194.2	315.25
1053.7016	3245.2477	1192	313.75
1053.8022	3246.154	1191.65	312
1053.9028	3247.0598	1189.6	310.7
1054.0034	3247.9649	1184.25	305.7
1054.1039	3248.8694	1180.15	301.8
1054.2043	3249.7733	1183.15	305
1054.3047	3250.6766	1175.65	296.35
1054.4051	3251.5793	1175.9	294.9
1054.5054	3252.4814	1173.8	296.1
1054.6056	3253.3829	1175.5	298.85
1054.7058	3254.2838	1167.55	288.75
1054.806	3255.1841	1166.95	288.5
1054.9061	3256.0838	1170.95	291.95
1055.0061	3256.9829	1160.75	282.45
1055.1062	3257.8814	1165.75	285.25
1055.2061	3258.7792	1165.65	286.35
1055.306	3259.6765	1159.1	280.75
1055.4059	3260.5731	1155.05	275.65
1055.5057	3261.4692	1151.65	272.3
1055.6055	3262.3647	1145.5	265.85
1055.7052	3263.2595	1143.3	265.8
1055.8049	3264.1538	1137.2	260.55
1055.9045	3265.0474	1132.75	254.1
1056.0041	3265.9404	1124.55	245
1056.1036	3266.8329	1130.05	251.7
1056.2031	3267.7247	1133.8	244.85
1056.3025	3268.616	1119.7	241.5
1056.4019	3269.5066	1110.45	232.55
1056.5013	3270.3966	1104.85	224.95
1056.6005	3271.286	1101.3	222.85
