Software Version:	3.9.2.0
Unit SN:	10000200
Spectrometer SN:	6960
Date:	3/6/2024 10:20:41 AM
Data Line Index:	25
Spectral Points:	2048
Integration time (ms):	125
Averages:	20
Delay (ms):	30
Sequence Number:	1
Processing:	dark subtract
Laser Power (mW):	305
Laser Current (mA):	825
Laser Diode Temp (C):	25
Laser Case Temp (C):	25.4
System Temp (C):	25.2
Spectrometer Temp (C):	22.7
CCD Temp (C):	-0.003
Secondary Temp (C):	20.01
Heatsink Temp (C):	20.612
CCDPCB Temp (C):	33.95
SecondaryPCB Temp (C):	27.147

Wavelength	RamanShift	Raw Counts	Dark Subtracted
787.061	30.1047	1088.1	676.15
787.2016	32.3739	1119.1	711.5
787.3422	34.6426	1164.5	755.25
787.4828	36.9109	1206.7	794.35
787.6235	39.1787	1257.25	841.2
787.7642	41.4461	1309.9	887.3
787.9049	43.7131	1367.6	944.2
788.0456	45.9796	1438.6	1012.25
788.1863	48.2456	1494.3	1063.8
788.3271	50.5112	1561.35	1128.75
788.4679	52.7764	1628.1	1191.35
788.6087	55.0411	1698.7	1257.3
788.7496	57.3054	1772.15	1324.15
788.8904	59.5692	1855.1	1406.9
789.0313	61.8326	1947.4	1496.7
789.1722	64.0955	2032.3	1577.5
789.3132	66.3579	2160.7	1702
789.4541	68.6199	2301.9	1840.4
789.5951	70.8815	2561.9	2096.75
789.7361	73.1426	3087.35	2615.4
789.8771	75.4032	4426.1	3951.2
790.0181	77.6634	7883.65	7404.15
790.1592	79.9231	17140.6	16653.9
790.3003	82.1824	53491.25	52992.75
790.4414	84.4412	65535	65018.15
790.5825	86.6995	65535	64990.75
790.7237	88.9574	65535	64964.85
790.8648	91.2148	65535	64951.95
791.006	93.4717	65535	64937
791.1472	95.7282	65535	64932.35
791.2885	97.9842	65535	64928.75
791.4297	100.2398	65535	64928.25
791.571	102.4949	65535	64919.3
791.7123	104.7495	65535	64918.5
791.8536	107.0036	65535	64917.4
791.9949	109.2573	65535	64921.7
792.1363	111.5105	65535	64919.15
792.2777	113.7632	65535	64915.15
792.4191	116.0154	65535	64906.9
792.5605	118.2672	65535	64911
792.7019	120.5185	65535	64912.65
792.8434	122.7693	65535	64905.05
792.9849	125.0197	65535	64902.2
793.1264	127.2696	65535	64900.85
793.2679	129.519	65535	64894.4
793.4094	131.7679	65535	64895.1
793.551	134.0163	65535	64888.8
793.6926	136.2642	65535	64887.85
793.8342	138.5117	65535	64878.4
793.9758	140.7587	65535	64883.8
794.1175	143.0052	65535	64878.75
794.2591	145.2512	65535	64880.65
794.4008	147.4967	65535	64879.75
794.5425	149.7417	65535	64877.15
794.6842	151.9863	65535	64872.55
794.826	154.2304	65535	64871
794.9677	156.4739	65535	64866.3
795.1095	158.717	65535	64865.7
795.2513	160.9596	65535	64862.5
795.3931	163.2017	65535	64860.85
795.535	165.4433	65535	64855.55
795.6768	167.6844	65535	64855.4
795.8187	169.925	65535	64851.75
795.9606	172.1651	65535	64848.4
796.1025	174.4047	65535	64842.1
796.2445	176.6439	65535	64842.25
796.3864	178.8825	65535	64837.95
796.5284	181.1206	65535	64838.6
796.6704	183.3582	65535	64832.6
796.8124	185.5954	65535	64833.75
796.9544	187.832	65535	64827.35
797.0965	190.0681	65535	64820.55
797.2386	192.3037	65535	64823.85
797.3806	194.5388	65535	64817.75
797.5228	196.7734	65535	64817.4
797.6649	199.0075	65535	64815.9
797.807	201.2411	65535	64816.25
797.9492	203.4742	65535	64816.55
798.0914	205.7068	65535	64810.9
798.2336	207.9389	65535	64803
798.3758	210.1704	65535	64803.45
798.518	212.4015	65535	64810.85
798.6603	214.632	65535	64820.75
798.8025	216.862	65535	64827.45
798.9448	219.0915	65535	64824.25
799.0871	221.3205	65535	64823.2
799.2294	223.549	65535	64831.5
799.3718	225.777	65535	64830.3
799.5141	228.0044	65535	64822.95
799.6565	230.2314	65535	64824.35
799.7989	232.4578	65535	64816.6
799.9413	234.6837	65535	64810.45
800.0837	236.909	65535	64807.85
800.2262	239.1339	65535	64783.85
800.3687	241.3582	65535	64797.85
800.5111	243.582	65535	64765.6
800.6536	245.8053	65535	64778.05
800.7961	248.0281	65535	64788
800.9387	250.2503	65535	64781.3
801.0812	252.472	65535	64776.9
801.2238	254.6932	65535	64780.95
801.3664	256.9139	65535	64778.75
801.509	259.134	65535	64772.3
801.6516	261.3536	65535	64774
801.7942	263.5727	65535	64774.8
801.9369	265.7912	65535	64775.85
802.0795	268.0092	65535	64771.4
802.2222	270.2267	65535	64769.15
802.3649	272.4436	65535	64774.2
802.5076	274.6601	65535	64762.1
802.6504	276.8759	65535	64764.8
802.7931	279.0913	65535	64763.85
802.9359	281.3061	65535	64763.4
803.0787	283.5204	65535	64760.65
803.2215	285.7341	65535	64761.5
803.3643	287.9473	65535	64746.65
803.5071	290.16	65535	64752.65
803.6499	292.3721	65535	64759.3
803.7928	294.5837	65535	64758.85
803.9357	296.7947	65535	64757.5
804.0786	299.0052	65535	64759.8
804.2215	301.2152	65535	64754.7
804.3644	303.4246	65535	64761.05
804.5074	305.6334	65535	64757.45
804.6503	307.8418	65535	64755.1
804.7933	310.0495	65535	64752.7
804.9363	312.2568	65535	64753.9
805.0793	314.4635	65535	64749.5
805.2223	316.6696	65535	64752.05
805.3653	318.8752	65535	64744.4
805.5084	321.0802	65535	64748.8
805.6514	323.2847	65535	64748.15
805.7945	325.4887	65535	64745.05
805.9376	327.692	65535	64744.9
806.0807	329.8949	65535	64743.2
806.2238	332.0972	65535	64742.6
806.367	334.2989	65535	64736.8
806.5101	336.5001	65535	64736.6
806.6533	338.7007	65535	64737.85
806.7965	340.9008	65535	64736.1
806.9397	343.1003	65535	64735.25
807.0829	345.2992	65535	64734.55
807.2261	347.4976	65535	64732.4
807.3693	349.6955	65535	64730.1
807.5126	351.8927	65535	64728.3
807.6559	354.0895	65535	64718.75
807.7991	356.2856	65535	64726.7
807.9424	358.4812	65535	64726.15
808.0857	360.6763	65535	64724
808.2291	362.8707	65535	64723.9
808.3724	365.0646	65535	64717.8
808.5158	367.258	65535	64715.95
808.6591	369.4508	65535	64716.95
808.8025	371.643	65535	64712.65
808.9459	373.8346	65535	64709.65
809.0893	376.0257	65535	64708.5
809.2327	378.2162	65535	64710.55
809.3762	380.4062	65535	64708.05
809.5196	382.5956	65535	64706.35
809.6631	384.7844	65535	64716.4
809.8066	386.9726	65535	64714.25
809.9501	389.1603	65535	64717.95
810.0936	391.3474	65535	64679.45
810.2371	393.5339	65535	64716.35
810.3806	395.7199	65535	64721.55
810.5241	397.9052	65535	64717.65
810.6677	400.09	65535	64717.35
810.8113	402.2743	65535	64717.35
810.9548	404.4579	65535	64715.65
811.0984	406.641	65535	64714.7
811.2421	408.8235	65535	64714.85
811.3857	411.0054	65535	64709.2
811.5293	413.1868	65535	64708.6
811.673	415.3675	65535	64706.75
811.8166	417.5477	65535	64706.45
811.9603	419.7273	65535	64701.85
812.104	421.9064	65535	64692.65
812.2477	424.0848	65535	64696.95
812.3914	426.2627	65535	64701.55
812.5351	428.4399	65535	64700.45
812.6788	430.6166	65535	64696.65
812.8226	432.7928	65535	64694.65
812.9663	434.9683	65535	64692.15
813.1101	437.1432	65535	64693.05
813.2539	439.3176	65535	64695.6
813.3977	441.4914	65535	64692.35
813.5415	443.6645	65535	64691.2
813.6853	445.8371	65535	64692.05
813.8291	448.0091	65535	64696.15
813.973	450.1806	65535	64692.3
814.1168	452.3514	65535	64687.6
814.2607	454.5216	65535	64683.6
814.4046	456.6913	65535	64687.7
814.5485	458.8603	65535	64691.15
814.6924	461.0288	65535	64687.75
814.8363	463.1967	65535	64694.4
814.9802	465.3639	65535	64691.1
815.1241	467.5306	65535	64687.7
815.2681	469.6967	65535	64688.05
815.412	471.8622	65535	64687.5
815.556	474.0271	65535	64689.2
815.7	476.1914	65535	64685.25
815.844	478.3551	65535	64683.45
815.988	480.5182	65535	64684.95
816.132	482.6807	65535	64688.25
816.276	484.8426	65535	64689.2
816.4201	487.0039	65535	64686.1
816.5641	489.1647	65535	64684.55
816.7082	491.3248	65535	64682.6
816.8522	493.4843	65535	64685.9
816.9963	495.6432	65535	64683.65
817.1404	497.8015	65535	64680.45
817.2845	499.9592	65535	64679.7
817.4286	502.1163	65535	64678.4
817.5727	504.2728	65535	64680.15
817.7168	506.4287	65535	64681.3
817.861	508.5839	65535	64682.6
818.0051	510.7386	65535	64680.65
818.1493	512.8927	65535	64678.7
818.2935	515.0461	65535	64680.65
818.4377	517.199	65535	64678.65
818.5818	519.3512	65535	64676
818.726	521.5029	65535	64668.95
818.8703	523.6539	65535	64676.85
819.0145	525.8043	65535	64676.1
819.1587	527.9541	65535	64669.35
819.303	530.1033	65535	64674.65
819.4472	532.2519	65535	64673.3
819.5915	534.3999	65535	64670.15
819.7357	536.5472	65535	64671.85
819.88	538.694	65535	64669.45
820.0243	540.8401	65535	64673.9
820.1686	542.9856	65535	64667.25
820.3129	545.1305	65535	64672.25
820.4572	547.2748	65535	64669.25
820.6016	549.4185	65535	64667.7
820.7459	551.5615	65535	64666.5
820.8902	553.704	65535	64671.2
821.0346	555.8458	65535	64669.35
821.1789	557.987	65535	64669.9
821.3233	560.1276	65535	64665.9
821.4677	562.2675	65535	64670.3
821.6121	564.4069	65535	64667.65
821.7565	566.5456	65535	64667.75
821.9009	568.6837	65535	64669.05
822.0453	570.8212	65535	64666.6
822.1897	572.958	65535	64664.4
822.3342	575.0942	65535	64662.15
822.4786	577.2299	65535	64664.55
822.6231	579.3648	65535	64670.05
822.7675	581.4992	65535	64668.9
822.912	583.6329	65535	64668.45
823.0565	585.766	65535	64670.15
823.201	587.8985	65535	64668
823.3454	590.0304	65535	64641.95
823.4899	592.1616	65535	64664.5
823.6345	594.2922	65535	64662.25
823.779	596.4222	65535	64659.45
823.9235	598.5515	65535	64661.3
824.068	600.6802	65535	64665.35
824.2126	602.8083	65535	64662.6
824.3571	604.9358	65535	64661.55
824.5017	607.0626	65535	64660.95
824.6462	609.1888	65535	64657.55
824.7908	611.3144	65535	64659.55
824.9354	613.4393	65535	64660.5
825.08	615.5636	65535	64658.55
825.2246	617.6873	65535	64661.2
825.3692	619.8103	65535	64657.4
825.5138	621.9327	65535	64655.5
825.6584	624.0544	65535	64658.45
825.803	626.1756	65535	64658.25
825.9477	628.2961	65535	64658.35
826.0923	630.4159	65535	64657.5
826.237	632.5351	65535	64657.7
826.3816	634.6537	65535	64655.2
826.5263	636.7716	65535	64656.25
826.6709	638.8889	65535	64656.5
826.8156	641.0056	65535	64653.65
826.9603	643.1216	65535	64654.35
827.105	645.237	65535	64650.75
827.2497	647.3518	65535	64657.9
827.3944	649.4659	65535	64656.05
827.5391	651.5793	65535	64655.9
827.6838	653.6922	65535	64656.5
827.8285	655.8043	65535	64654.8
827.9733	657.9159	65535	64653.05
828.118	660.0268	65535	64653.2
828.2627	662.137	65535	64652.7
828.4075	664.2466	65535	64651.9
828.5522	666.3556	65535	64654.45
828.697	668.4639	65535	64648.25
828.8418	670.5716	65535	64654.3
828.9865	672.6786	65535	64649.95
829.1313	674.785	65535	64647.75
829.2761	676.8907	65535	64647.4
829.4209	678.9958	65535	64653.15
829.5657	681.1002	65535	64647.35
829.7105	683.204	65535	64643.15
829.8553	685.3072	65535	64647.45
830.0001	687.4097	65535	64648.85
830.1449	689.5115	65535	64647.35
830.2898	691.6127	65535	64651.25
830.4346	693.7132	65535	64647.1
830.5794	695.8131	65535	64626.45
830.7243	697.9123	65535	64649.95
830.8691	700.0109	65535	64645.65
831.014	702.1089	65535	64647.3
831.1588	704.2061	65535	64646.8
831.3037	706.3028	65535	64646.4
831.4486	708.3987	65535	64645.8
831.5935	710.4941	65535	64650.4
831.7383	712.5887	65535	64646.3
831.8832	714.6827	65535	64641.05
832.0281	716.7761	65535	64645.45
832.173	718.8688	65535	64644
832.3179	720.9608	65535	64641.9
832.4628	723.0522	65535	64639.9
832.6077	725.1429	65535	64645.35
832.7527	727.233	65535	64645.5
832.8976	729.3224	65535	64645.35
833.0425	731.4112	65535	64643.95
833.1874	733.4993	65535	64640.35
833.3324	735.5867	65535	64640.25
833.4773	737.6735	65535	64640.1
833.6222	739.7596	65535	64642.55
833.7672	741.845	65535	64644.8
833.9122	743.9298	65535	64642.8
834.0571	746.014	65535	64641.9
834.2021	748.0974	65535	64639.45
834.347	750.1802	65535	64641.85
834.492	752.2624	65535	64642.9
834.637	754.3439	65535	64642.45
834.782	756.4247	65535	64632.85
834.9269	758.5048	65535	64642.15
835.0719	760.5843	65535	64640.5
835.2169	762.6631	65535	64640.6
835.3619	764.7413	65535	64640.4
835.5069	766.8188	65535	64641.25
835.6519	768.8956	65535	64639.6
835.7969	770.9718	65535	64641.4
835.9419	773.0473	65535	64641.1
836.0869	775.1221	65535	64641.8
836.232	777.1962	65535	64639.45
836.377	779.2697	65535	64639.3
836.522	781.3426	65535	64619.7
836.667	783.4147	65535	64639.85
836.8121	785.4862	65535	64640.1
836.9571	787.557	65535	64641.85
837.1021	789.6271	65535	64639
837.2472	791.6966	65535	64641.55
837.3922	793.7654	65535	64639.35
837.5373	795.8335	65535	64639.95
837.6823	797.901	65535	64639.15
837.8274	799.9678	65535	64637.7
837.9724	802.0339	65535	64639
838.1175	804.0993	65535	64628.7
838.2626	806.1641	65535	64635.65
838.4076	808.2282	65535	64640.6
838.5527	810.2916	65535	64637.25
838.6978	812.3544	65535	64640.5
838.8428	814.4164	65535	64638.4
838.9879	816.4778	65535	64635.4
839.133	818.5385	65535	64639
839.2781	820.5986	65535	64639.05
839.4232	822.658	65535	64634.95
839.5682	824.7166	65535	64638.85
839.7133	826.7747	65535	64637.1
839.8584	828.832	65535	64634.65
840.0035	830.8886	65535	64637.75
840.1486	832.9446	65535	64633.25
840.2937	834.9999	65535	64640.45
840.4388	837.0545	65535	64633.25
840.5839	839.1085	65535	64636.55
840.729	841.1618	65535	64632.5
840.8741	843.2143	65535	64639.25
841.0192	845.2662	65535	64639
841.1643	847.3175	65535	64640.45
841.3095	849.368	65535	64634.85
841.4546	851.4179	65535	64639.9
841.5997	853.467	65535	64639.55
841.7448	855.5155	65535	64635.3
841.8899	857.5633	65535	64636.35
842.0351	859.6105	65535	64637.4
842.1802	861.6569	65535	64639.15
842.3253	863.7027	65535	64635.15
842.4704	865.7478	65535	64635.9
842.6156	867.7922	65535	64635.45
842.7607	869.8359	65535	64636.85
842.9058	871.8789	65535	64635.4
843.0509	873.9212	65535	64601.5
843.1961	875.9629	65535	64634.6
843.3412	878.0039	65535	64636.05
843.4863	880.0441	65535	64635.85
843.6315	882.0837	65535	64636.35
843.7766	884.1226	65535	64632.15
843.9218	886.1609	65535	64637.25
844.0669	888.1984	65535	64633.1
844.212	890.2352	65535	64638.9
844.3572	892.2714	65535	64630.55
844.5023	894.3069	65535	64633
844.6475	896.3416	65535	64633.25
844.7926	898.3757	65535	64633
844.9377	900.4091	65535	64631.85
845.0829	902.4418	65535	64632.3
845.228	904.4739	65535	64634.05
845.3732	906.5052	65535	64632.4
845.5183	908.5358	65535	64634.3
845.6635	910.5658	65535	64631.75
845.8086	912.595	65535	64635.2
845.9538	914.6236	65535	64634.1
846.0989	916.6515	65535	64633.8
846.2441	918.6786	65535	64632.95
846.3892	920.7051	65535	64632.5
846.5344	922.7309	65535	64632.8
846.6795	924.756	65535	64633.65
846.8246	926.7804	65535	64633.65
846.9698	928.8041	65535	64631.55
847.1149	930.8272	65535	64633.3
847.2601	932.8495	65535	64634.05
847.4052	934.8711	65535	64632.6
847.5504	936.892	65535	64634.25
847.6955	938.9123	65535	64630.5
847.8407	940.9318	65535	64632.65
847.9858	942.9506	65535	64632.65
848.131	944.9688	65535	64633.55
848.2761	946.9862	65535	64632.8
848.4213	949.003	65535	64633.1
848.5664	951.019	65535	64633.35
848.7115	953.0344	65535	64630.95
848.8567	955.0491	65535	64631.15
849.0018	957.063	65535	64631.15
849.147	959.0763	65535	64635.65
849.2921	961.0888	65535	64630.65
849.4373	963.1007	65535	64634.2
849.5824	965.1119	65535	64633.85
849.7275	967.1223	65535	64634.2
849.8727	969.1321	65535	64636.3
850.0178	971.1412	65535	64631.85
850.1629	973.1495	65535	64632.9
850.3081	975.1572	65535	64600.3
850.4532	977.1641	65535	64635.9
850.5983	979.1704	65535	64631.4
850.7435	981.1759	65535	64629.5
850.8886	983.1808	65535	64632.45
851.0337	985.1849	65535	64624.7
851.1788	987.1884	65535	64630.4
851.324	989.1911	65535	64629.45
851.4691	991.1932	65535	64629.55
851.6142	993.1945	65535	64632.9
851.7593	995.1951	65535	64630.6
851.9045	997.1951	65535	64625.7
852.0496	999.1943	65535	64634.25
852.1947	1001.1928	65535	64632
852.3398	1003.1906	65535	64633.4
852.4849	1005.1877	65535	64632.95
852.63	1007.1841	65535	64633.25
852.7751	1009.1798	65535	64631.55
852.9202	1011.1748	65535	64631.95
853.0653	1013.1691	65535	64631
853.2104	1015.1627	65535	64631.95
853.3555	1017.1556	65535	64633.8
853.5006	1019.1477	65535	64633.75
853.6457	1021.1392	65535	64638.25
853.7908	1023.1299	65535	64636.1
853.9359	1025.12	65535	64634.3
854.081	1027.1093	65535	64636.25
854.2261	1029.0979	65535	64639.4
854.3712	1031.0859	65535	64636.8
854.5163	1033.0731	65535	64633.5
854.6613	1035.0596	65535	64634.2
854.8064	1037.0454	65535	64633.4
854.9515	1039.0304	65535	64633.45
855.0965	1041.0148	65535	64633.55
855.2416	1042.9985	65535	64630.35
855.3867	1044.9814	65535	64634.55
855.5317	1046.9636	65535	64631.6
855.6768	1048.9452	65535	64635.25
855.8219	1050.926	65535	64634.85
855.9669	1052.9061	65535	64635.25
856.112	1054.8855	65535	64635
856.257	1056.8642	65535	64632.65
856.4021	1058.8421	65535	64628.7
856.5471	1060.8194	65535	64630.4
856.6921	1062.7959	65535	64630.9
856.8372	1064.7717	65535	64632.8
856.9822	1066.7469	65535	64630.9
857.1272	1068.7213	65535	64631.45
857.2723	1070.695	65535	64632.4
857.4173	1072.6679	65535	64633.1
857.5623	1074.6402	65535	64634
857.7073	1076.6117	65535	64626.75
857.8523	1078.5826	65535	64631.75
857.9973	1080.5527	65535	64632.2
858.1423	1082.5221	65535	64632.45
858.2873	1084.4908	65535	64631.5
858.4323	1086.4587	65535	64630
858.5773	1088.426	65535	64632
858.7223	1090.3925	65535	64629.2
858.8673	1092.3584	65535	64632.65
859.0123	1094.3235	65535	64634.5
859.1573	1096.2879	65535	64632.65
859.3022	1098.2515	65535	64633.35
859.4472	1100.2145	65535	64632.6
859.5922	1102.1767	65535	64630.95
859.7371	1104.1382	65535	64630.2
859.8821	1106.099	65535	64633.75
860.027	1108.0591	65535	64633.55
860.172	1110.0185	65535	64631.6
860.3169	1111.9771	65535	64631.05
860.4619	1113.9351	65535	64634.05
860.6068	1115.8923	65535	64632.95
860.7517	1117.8488	65535	64630.9
860.8967	1119.8045	65535	64632.35
861.0416	1121.7596	65535	64633.1
861.1865	1123.7139	65535	64634.25
861.3314	1125.6675	65535	64636.75
861.4763	1127.6204	65535	64633.4
861.6212	1129.5726	65535	64629.85
861.7661	1131.524	65535	64632.1
861.911	1133.4748	65535	64631.3
862.0559	1135.4248	65535	64631.55
862.2008	1137.3741	65535	64634.2
862.3457	1139.3226	65535	64631.15
862.4905	1141.2705	65535	64633.5
862.6354	1143.2176	65535	64627.25
862.7803	1145.164	65535	64631.65
862.9251	1147.1097	65535	64632.4
863.07	1149.0546	65535	64632.95
863.2148	1150.9989	65535	64632.45
863.3597	1152.9424	65535	64632.9
863.5045	1154.8852	65535	64630.4
863.6493	1156.8272	65535	64631.5
863.7942	1158.7686	65535	64626.15
863.939	1160.7092	65535	64630.6
864.0838	1162.6491	65535	64631.9
864.2286	1164.5883	65535	64634.05
864.3734	1166.5267	65535	64631.2
864.5182	1168.4644	65535	64631.4
864.663	1170.4014	65535	64626
864.8078	1172.3377	65535	64633.8
864.9526	1174.2732	65535	64632.7
865.0974	1176.2081	65535	64633.85
865.2421	1178.1421	65535	64629
865.3869	1180.0755	65535	64631.95
865.5317	1182.0082	65535	64632.3
865.6764	1183.9401	65535	64633.35
865.8212	1185.8713	65535	64635.7
865.9659	1187.8017	65535	64635.85
866.1106	1189.7315	65535	64637.55
866.2554	1191.6605	65535	64609.65
866.4001	1193.5888	65535	64635
866.5448	1195.5163	65535	64635.6
866.6895	1197.4432	65535	64632.05
866.8342	1199.3693	65535	64629.9
866.9789	1201.2947	65535	64631.6
867.1236	1203.2193	65535	64634.95
867.2683	1205.1432	65535	64632.6
867.413	1207.0664	65535	64634.1
867.5576	1208.9889	65535	64631.4
867.7023	1210.9106	65535	64632.8
867.847	1212.8316	65535	64634.8
867.9916	1214.7519	65535	64626.1
868.1363	1216.6715	65535	64633.7
868.2809	1218.5903	65535	64634
868.4255	1220.5084	65535	64630.65
868.5701	1222.4257	65535	64633.35
868.7148	1224.3424	65535	64633.9
868.8594	1226.2583	65535	64628.6
869.004	1228.1735	65535	64632.05
869.1486	1230.0879	65535	64633.8
869.2932	1232.0016	65535	64632.85
869.4377	1233.9146	65535	64632.2
869.5823	1235.8269	65535	64635.1
869.7269	1237.7384	65535	64633.15
869.8715	1239.6492	65535	64633.15
870.016	1241.5592	65535	64631.3
870.1606	1243.4686	65535	64632.2
870.3051	1245.3772	65535	64634.95
870.4496	1247.285	65535	64632.25
870.5941	1249.1922	65535	64634.15
870.7387	1251.0986	65535	64634.95
870.8832	1253.0042	65535	64632.35
871.0277	1254.9092	65535	64635.35
871.1722	1256.8134	65535	64636.3
871.3167	1258.7169	65535	64634.15
871.4611	1260.6196	65535	64632.1
871.6056	1262.5216	65535	64632.45
871.7501	1264.4229	65535	64636.4
871.8945	1266.3234	65535	64635.85
872.039	1268.2232	65535	64633.7
872.1834	1270.1223	65535	64633.9
872.3278	1272.0207	65535	64634.45
872.4723	1273.9183	65535	64629.1
872.6167	1275.8151	65535	64634.75
872.7611	1277.7113	65535	64630.7
872.9055	1279.6067	65535	64634.2
873.0499	1281.5014	65535	64628.8
873.1943	1283.3953	65535	64632.35
873.3386	1285.2885	65535	64634.9
873.483	1287.181	65535	64634.4
873.6274	1289.0727	65535	64634.9
873.7717	1290.9637	65535	64635
873.9161	1292.854	65535	64634.35
874.0604	1294.7435	65535	64632.65
874.2047	1296.6323	65535	64634.9
874.349	1298.5204	65535	64629.05
874.4933	1300.4077	65535	64632.5
874.6376	1302.2943	65535	64634.3
874.7819	1304.1802	65535	64636.6
874.9262	1306.0653	65535	64631.5
875.0705	1307.9497	65535	64636.35
875.2147	1309.8333	65535	64634.5
875.359	1311.7162	65535	64634.35
875.5032	1313.5984	65535	64631.5
875.6475	1315.4798	65535	64617.25
875.7917	1317.3605	65535	64619.8
875.9359	1319.2405	65535	64633.15
876.0801	1321.1197	65535	64631.4
876.2243	1322.9982	65535	64629.05
876.3685	1324.876	65535	64634.45
876.5127	1326.753	65535	64634
876.6569	1328.6293	65535	64632.5
876.801	1330.5048	65535	64632.55
876.9452	1332.3796	65535	64636.85
877.0893	1334.2537	65535	64608.25
877.2335	1336.127	65535	64632.5
877.3776	1337.9996	65535	64632
877.5217	1339.8714	65535	64633.6
877.6658	1341.7426	65535	64590.2
877.8099	1343.6129	65535	64632.15
877.954	1345.4826	65535	64632.3
878.0981	1347.3515	65535	64630.85
878.2422	1349.2196	65535	64632.95
878.3862	1351.087	65535	64636.05
878.5303	1352.9537	65535	64632
878.6743	1354.8197	65535	64634.1
878.8184	1356.6849	65535	64634.75
878.9624	1358.5493	65535	64633.45
879.1064	1360.4131	65535	64635.65
879.2504	1362.276	65535	64634.8
879.3944	1364.1383	65535	64633.9
879.5384	1365.9998	65535	64629.05
879.6823	1367.8606	65535	64635.2
879.8263	1369.7206	65535	64634.6
879.9702	1371.5799	65535	64631.85
880.1142	1373.4384	65535	64634.15
880.2581	1375.2962	65535	64634.05
880.402	1377.1533	65535	64631.85
880.5459	1379.0096	65535	64635.4
880.6898	1380.8652	65535	64633.6
880.8337	1382.7201	65535	64636.6
880.9776	1384.5742	65535	64635.35
881.1215	1386.4275	65535	64631.75
881.2653	1388.2802	65535	64635.7
881.4092	1390.132	65535	64634.5
881.553	1391.9832	65535	64633.25
881.6968	1393.8336	65535	64635.1
881.8406	1395.6832	65535	64634.6
881.9844	1397.5322	65535	64634.5
882.1282	1399.3803	65535	64632.5
882.272	1401.2278	65535	64633.6
882.4158	1403.0745	65535	64634.6
882.5595	1404.9204	65535	64637.5
882.7033	1406.7656	65535	64634.3
882.847	1408.6101	65535	64633.9
882.9908	1410.4538	65535	64634.65
883.1345	1412.2968	65535	64635.8
883.2782	1414.139	65535	64635.6
883.4219	1415.9805	65535	64635.8
883.5656	1417.8213	65535	64627.7
883.7092	1419.6613	65535	64633.55
883.8529	1421.5006	65535	64634.25
883.9965	1423.3391	65535	64634.95
884.1402	1425.1769	65535	64634.65
884.2838	1427.0139	65535	64635.7
884.4274	1428.8502	65535	64632.8
884.571	1430.6858	65535	64634.6
884.7146	1432.5206	65535	64635.6
884.8582	1434.3547	65535	64632.85
885.0018	1436.188	65535	64637.45
885.1453	1438.0206	65535	64634.9
885.2889	1439.8524	65535	64633.65
885.4324	1441.6835	65535	64634.6
885.5759	1443.5139	65535	64630.45
885.7194	1445.3435	65535	64636.8
885.8629	1447.1724	65535	64637.7
886.0064	1449.0005	65535	64634.4
886.1499	1450.8279	65535	64633.3
886.2933	1452.6545	65535	64634.15
886.4368	1454.4804	65535	64635.45
886.5802	1456.3056	65535	64628.65
886.7237	1458.13	65535	64635.15
886.8671	1459.9536	65535	64637.05
887.0105	1461.7766	65535	64636.75
887.1539	1463.5987	65535	64633.1
887.2972	1465.4202	65535	64635.35
887.4406	1467.2409	65535	64634.5
887.584	1469.0608	65535	64637.45
887.7273	1470.88	65535	64633.65
887.8706	1472.6984	65535	64634.5
888.0139	1474.5161	65535	64634
888.1572	1476.3331	65535	64635.9
888.3005	1478.1493	65535	64634.45
888.4438	1479.9648	65535	64633.5
888.5871	1481.7795	65535	64635.35
888.7303	1483.5935	65535	64633.65
888.8736	1485.4067	65535	64635.25
889.0168	1487.2192	65535	64634.2
889.16	1489.031	65535	64633.5
889.3032	1490.842	65535	64635.5
889.4464	1492.6522	65535	64635.95
889.5896	1494.4618	65535	64632.9
889.7327	1496.2705	65535	64635
889.8759	1498.0785	65535	64633.35
890.019	1499.8858	65535	64636.15
890.1622	1501.6924	65535	64638.5
890.3053	1503.4981	65535	64635.8
890.4484	1505.3032	65535	64635.4
890.5914	1507.1075	65535	64634.25
890.7345	1508.911	65535	64634.4
890.8776	1510.7138	65535	64635.4
891.0206	1512.5159	65535	64636.55
891.1637	1514.3172	65529.5	64633.3
891.3067	1516.1178	65535	64637.15
891.4497	1517.9176	65535	64633.1
891.5927	1519.7166	65535	64636.25
891.7357	1521.515	65534.1	64630.2
891.8786	1523.3126	65519.6	64620.1
892.0216	1525.1094	65534.8	64634.6
892.1645	1526.9055	65527.65	64631.55
892.3074	1528.7008	65530.45	64630.2
892.4503	1530.4954	65517.4	64619.7
892.5932	1532.2893	65532.05	64633.7
892.7361	1534.0824	65512.15	64607.05
892.879	1535.8747	65474.1	64575.5
893.0218	1537.6663	65531.55	64633.85
893.1647	1539.4572	65432.2	64533.8
893.3075	1541.2473	65468.25	64570.2
893.4503	1543.0367	65474.45	64577.7
893.5931	1544.8253	65460.75	64558.75
893.7359	1546.6132	65464.1	64563.4
893.8787	1548.4003	65434.55	64527.7
894.0214	1550.1867	65434	64527.95
894.1642	1551.9723	65427.15	64525.95
894.3069	1553.7572	65437.75	64538.1
894.4496	1555.5414	65464.6	64568
894.5923	1557.3247	65354.8	64454.85
894.735	1559.1074	65437.65	64540.9
894.8777	1560.8893	65405.85	64508.15
895.0204	1562.6705	65430	64534.25
895.163	1564.4509	65366.95	64470.1
895.3056	1566.2305	65386	64490.85
895.4482	1568.0094	65430	64535.2
895.5908	1569.7876	65398.15	64501.65
895.7334	1571.565	65345	64448.7
895.876	1573.3417	65364.7	64469.35
896.0186	1575.1176	65367.15	64471.15
896.1611	1576.8928	65355.65	64458.9
896.3036	1578.6672	65328.35	64432.45
896.4461	1580.4409	65346.4	64453.25
896.5886	1582.2138	65307.7	64408.65
896.7311	1583.986	65320.9	64424.3
896.8736	1585.7575	65290.35	64396.6
897.0161	1587.5282	65296	64403.7
897.1585	1589.2981	65308.95	64414.75
897.3009	1591.0673	65270.4	64374.45
897.4433	1592.8358	65260.7	64366.25
897.5857	1594.6035	65281.7	64384.3
897.7281	1596.3704	65284.8	64389.45
897.8705	1598.1366	65249.1	64353.25
898.0128	1599.9021	65221.95	64328.4
898.1551	1601.6668	65253.15	64356.2
898.2975	1603.4308	65230.05	64331.85
898.4398	1605.194	65249.05	64348.3
898.5821	1606.9564	65198.55	64303.75
898.7243	1608.7182	65215.55	64317.85
898.8666	1610.4791	65198.55	64304.95
899.0088	1612.2394	65232.25	64340.1
899.1511	1613.9988	65201.45	64307.1
899.2933	1615.7576	65217	64323.7
899.4355	1617.5156	65219.05	64317.7
899.5776	1619.2728	65261.35	64364.75
899.7198	1621.0293	65191.85	64298.55
899.862	1622.785	65180.2	64282.15
900.0041	1624.54	65201.55	64307.1
900.1462	1626.2942	65176.6	64280.3
900.2883	1628.0477	65142.8	64246.45
900.4304	1629.8005	65113.65	64215.55
900.5725	1631.5525	65143.65	64248.65
900.7145	1633.3037	65089.75	64195.2
900.8566	1635.0542	65099.75	64206.05
900.9986	1636.804	65116.45	64218.8
901.1406	1638.553	65077.65	64102.4
901.2826	1640.3013	65090.05	64195.25
901.4245	1642.0488	65054.3	64159.9
901.5665	1643.7955	65085.8	64192.4
901.7085	1645.5416	65065.55	64172.5
901.8504	1647.2868	65050.15	64158.7
901.9923	1649.0313	65055	64162.45
902.1342	1650.7751	65036.3	64140.5
902.2761	1652.5181	65021.45	64127.05
902.4179	1654.2604	65026.75	64131.25
902.5598	1656.0019	65041.65	64148.55
902.7016	1657.7427	65024.2	64129.4
902.8434	1659.4828	65048.55	64154.25
902.9852	1661.222	65029.05	64133.95
903.127	1662.9606	65023.2	64131.65
903.2687	1664.6984	65005.8	64114.4
903.4105	1666.4354	65016.4	64121.65
903.5522	1668.1717	64974.2	64080.6
903.6939	1669.9072	64902	64008.6
903.8356	1671.642	64910.1	64014.6
903.9773	1673.3761	64871.3	63978.55
904.119	1675.1094	64832.35	63939.75
904.2606	1676.8419	64766.55	63873.25
904.4022	1678.5737	64782	63890.1
904.5439	1680.3048	64758.1	63864.55
904.6855	1682.0351	64726.15	63832.15
904.827	1683.7646	64677.65	63781.65
904.9686	1685.4934	64725.45	63833.15
905.1101	1687.2215	64571.1	63679.1
905.2517	1688.9488	64683.5	63790.45
905.3932	1690.6754	64381.9	63490
905.5347	1692.4012	64555.35	63662.5
905.6761	1694.1263	64577.2	63684.45
905.8176	1695.8506	64415.8	63521.6
905.9591	1697.5742	64448.7	63556.85
906.1005	1699.297	64418.45	63526.3
906.2419	1701.0191	64447.65	63556.6
906.3833	1702.7404	64211.9	63319.95
906.5246	1704.461	64110.65	63216.45
906.666	1706.1808	64309.65	63413.1
906.8073	1707.8999	64216.3	63321.7
906.9487	1709.6182	64131.25	63239.95
907.09	1711.3358	64103.35	63210.45
907.2313	1713.0527	64072.4	63181.1
907.3725	1714.7688	64088.85	63190.1
907.5138	1716.4841	63809.25	62913.4
907.655	1718.1987	63909.75	63012.55
907.7962	1719.9126	63829.65	62937.5
907.9374	1721.6257	63917.7	63022.95
908.0786	1723.338	63921.8	63028.05
908.2198	1725.0496	63589.7	62695.75
908.3609	1726.7605	63656.5	62763.6
908.502	1728.4706	63554	62660.35
908.6431	1730.18	63633.3	62736.75
908.7842	1731.8886	63515.35	62622.45
908.9253	1733.5964	63447.65	62549.75
909.0664	1735.3036	63566.7	62671.25
909.2074	1737.0099	63454.3	62563.7
909.3484	1738.7156	63328.35	62438.95
909.4894	1740.4204	63294.1	62400.65
909.6304	1742.1246	63345.8	62452.65
909.7714	1743.8279	63354.55	62463.1
909.9123	1745.5306	63324.05	62431.65
910.0532	1747.2325	63038.15	62147.1
910.1941	1748.9336	63062.05	62172.55
910.335	1750.634	63094.6	62202
910.4759	1752.3336	63164.4	62272.85
910.6168	1754.0325	62966.35	62077.65
910.7576	1755.7307	63129.15	62237.8
910.8984	1757.4281	62914.1	62023.4
911.0392	1759.1247	63065.75	62166.35
911.18	1760.8206	62796.7	61900.5
911.3208	1762.5158	62834.25	61937.5
911.4615	1764.2102	62866.55	61976.35
911.6022	1765.9039	62802.2	61913.05
911.7429	1767.5968	62719.45	61826.75
911.8836	1769.289	62664.65	61775.4
912.0243	1770.9804	62705.45	61812.2
912.1649	1772.6711	62647.3	61753.6
912.3056	1774.361	62562.65	61668.35
912.4462	1776.0502	62567.25	61673.8
912.5868	1777.7386	62240.05	61344.9
912.7274	1779.4263	62447.7	61554.2
912.8679	1781.1132	62445.6	61554.85
913.0084	1782.7994	62347.65	61457.1
913.149	1784.4849	62358.75	61468.2
913.2895	1786.1696	61896.15	60998.4
913.4299	1787.8535	62186	61293.85
913.5704	1789.5367	62249.75	61359.55
913.7108	1791.2192	61943.75	61052.35
913.8513	1792.9009	61760.2	60839.25
913.9917	1794.5818	62000.75	61108.25
914.132	1796.2621	61754.35	60865.55
914.2724	1797.9415	61731.05	60839.15
914.4128	1799.6202	61719.55	60829.65
914.5531	1801.2982	61699.8	60805.4
914.6934	1802.9755	61405.75	60516.1
914.8337	1804.6519	61283.45	60391.55
914.9739	1806.3277	61689.2	60798.45
915.1142	1808.0027	61022.45	60133.15
915.2544	1809.6769	61265.1	60374.15
915.3946	1811.3504	61331.35	60439.4
915.5348	1813.0231	60770.25	59878.5
915.675	1814.6951	61120.9	60229.45
915.8151	1816.3664	60907.4	60014.95
915.9553	1818.0369	60899.4	60007.3
916.0954	1819.7067	60784.35	59893.75
916.2355	1821.3757	61095.55	60202.8
916.3755	1823.044	60602.3	59710.35
916.5156	1824.7115	60237.65	59346.6
916.6556	1826.3783	60432.95	59540.2
916.7956	1828.0443	60502.45	59610.9
916.9356	1829.7096	60271	59379.15
917.0756	1831.3741	59784.35	58890.3
917.2155	1833.0379	60078.85	59186.15
917.3555	1834.701	60038.2	59144.35
917.4954	1836.3633	59658.45	58765.95
917.6353	1838.0248	59902.75	59009.7
917.7751	1839.6856	59755.65	58862.8
917.915	1841.3457	59404.5	58514.65
918.0548	1843.005	59808	58917.8
918.1946	1844.6636	59517.45	58627.45
918.3344	1846.3214	59001.05	58109.1
918.4742	1847.9785	59108.3	58216.25
918.6139	1849.6349	59064.5	58172.3
918.7537	1851.2904	59505.5	58604.45
918.8934	1852.9453	58779.9	57888.45
919.0331	1854.5994	59074.15	58180.85
919.1727	1856.2528	59096	58200.75
919.3124	1857.9054	58658.2	57767.55
919.452	1859.5572	58446.3	57555.3
919.5916	1861.2083	58653	57761.3
919.7312	1862.8587	59019	58129.15
919.8708	1864.5084	57818.05	56925.9
920.0103	1866.1572	58417.85	57527.15
920.1498	1867.8054	57833.9	56943.75
920.2893	1869.4528	58149.7	57260.65
920.4288	1871.0994	57697.3	56808
920.5683	1872.7453	57596.75	56704.65
920.7077	1874.3905	57855.55	56958.65
920.8471	1876.0349	57315.2	56423.25
920.9865	1877.6786	57733.25	56841.7
921.1259	1879.3215	57198.1	56307.55
921.2653	1880.9637	57746.25	56852.3
921.4046	1882.6051	57182.3	56291.7
921.5439	1884.2458	56972.65	56078.65
921.6832	1885.8858	56633.3	55740.15
921.8225	1887.525	56893.6	56002.85
921.9617	1889.1634	56758.9	55867.05
922.101	1890.8011	56525.5	55633.85
922.2402	1892.4381	55820.2	54928.75
922.3794	1894.0743	56522.75	55634.15
922.5185	1895.7098	56073.65	55182.7
922.6577	1897.3446	55698.75	54807.35
922.7968	1898.9786	55825.65	54932.75
922.9359	1900.6118	55494.45	54606
923.075	1902.2443	55228.5	54335.4
923.214	1903.8761	55583.55	54693.8
923.3531	1905.5071	55147	54254.8
923.4921	1907.1374	54432.75	53540.4
923.6311	1908.7669	54781.4	53890.85
923.77	1910.3957	55087.4	54197.75
923.909	1912.0237	54422.65	53531.9
924.0479	1913.651	54107.8	53215.6
924.1868	1915.2776	53917.4	53027.55
924.3257	1916.9034	53956.2	53067.65
924.4646	1918.5285	53664.5	52775.75
924.6034	1920.1528	53723.05	52831.2
924.7422	1921.7764	53500.6	52612.15
924.881	1923.3992	53391.85	52501.8
925.0198	1925.0213	53012.45	52121.05
925.1586	1926.6427	52573.25	51684
925.2973	1928.2633	52810.1	51842.5
925.436	1929.8832	52629.1	51737.1
925.5747	1931.5023	52421.35	51530.95
925.7134	1933.1207	51977.4	51088.75
925.852	1934.7383	52204.45	51312.5
925.9906	1936.3552	51865.7	50976.95
926.1292	1937.9714	51887.3	50997.05
926.2678	1939.5868	51825.2	50933.55
926.4064	1941.2015	51304.55	50414.25
926.5449	1942.8154	50946.4	50055.7
926.6834	1944.4286	51020.3	50127.95
926.8219	1946.041	50953	50043.3
926.9604	1947.6528	50654.85	49758.55
927.0988	1949.2637	50485.25	49596.95
927.2372	1950.8739	50243.1	49353.15
927.3756	1952.4834	50368.8	49480.65
927.514	1954.0921	50161	49269.3
927.6523	1955.7001	49897	49002.2
927.7907	1957.3074	49933.65	49045.7
927.929	1958.9139	49481	48592
928.0673	1960.5197	49496.3	48603.95
928.2055	1962.1247	49314.45	48424.85
928.3438	1963.729	49037.35	48149.3
928.482	1965.3325	48878.85	47968.45
928.6202	1966.9353	48882.35	47993.3
928.7584	1968.5374	48465.35	47576
928.8965	1970.1387	48267.05	47375.95
929.0346	1971.7393	48361	47470.9
929.1727	1973.3392	48097.95	47209.9
929.3108	1974.9383	47846.65	46957.4
929.4489	1976.5366	47623.4	46732.6
929.5869	1978.1342	47617.35	46727.75
929.7249	1979.7311	47530.3	46639.05
929.8629	1981.3273	47468.45	46578.55
930.0009	1982.9227	47203.8	46312.45
930.1388	1984.5173	47230.3	46342.1
930.2767	1986.1112	46819.85	45932.45
930.4146	1987.7044	46920.1	46034.95
930.5525	1989.2968	46420	45529.9
930.6904	1990.8885	46543.25	45647.95
930.8282	1992.4795	46307.75	45415.9
930.966	1994.0697	46184.85	45294.75
931.1038	1995.6592	46068.65	45179.55
931.2415	1997.2479	45817.65	44928.7
931.3793	1998.8359	45793.65	44903.8
931.517	2000.4232	45550.1	44660.95
931.6547	2002.0097	45472.45	44584.6
931.7923	2003.5955	45225.15	44335.35
931.93	2005.1805	45088.95	44199.05
932.0676	2006.7648	45022.5	44134.3
932.2052	2008.3484	44883.45	43992.9
932.3427	2009.9312	44896.35	44005.35
932.4803	2011.5133	44735.1	43848.05
932.6178	2013.0946	44624	43734.1
932.7553	2014.6752	44423	43536.4
932.8928	2016.2551	44350.3	43461.45
933.0302	2017.8342	44185.5	43297.7
933.1676	2019.4126	43912	43022.85
933.305	2020.9902	43788	42900.25
933.4424	2022.5672	43661.05	42771.25
933.5798	2024.1433	43558.4	42664.25
933.7171	2025.7188	43503.7	42614.05
933.8544	2027.2935	43263.9	42374.05
933.9917	2028.8674	43134.75	42246.35
934.129	2030.4406	43019.4	42129.1
934.2662	2032.0131	42858.1	41970.9
934.4034	2033.5849	42630.2	41737.55
934.5406	2035.1559	42615.1	41726.25
934.6778	2036.7261	42537.8	41649.7
934.8149	2038.2957	42406.3	41517.2
934.952	2039.8645	42309.9	41421.5
935.0891	2041.4325	42363.25	41473.5
935.2262	2042.9998	42178.15	41290.05
935.3632	2044.5664	41874.1	40983.75
935.5002	2046.1323	41845.05	40955.55
935.6372	2047.6974	41721.75	40833.1
935.7742	2049.2617	41656.95	40768
935.9111	2050.8254	41653.85	40760.05
936.048	2052.3883	41452.6	40563.25
936.1849	2053.9504	41340.95	40451.35
936.3218	2055.5118	41160.1	40271.2
936.4586	2057.0725	41010.1	40119
936.5955	2058.6325	40920.9	40030.85
936.7323	2060.1917	40753.75	39864.25
936.869	2061.7502	40645.6	39755.65
937.0058	2063.3079	40452.5	39565.25
937.1425	2064.8649	40349.2	39458.6
937.2792	2066.4212	40293.4	39406.25
937.4159	2067.9767	40204.9	39317.9
937.5525	2069.5315	39980.75	39091.65
937.6891	2071.0856	39812.15	38924.15
937.8257	2072.6389	39680.3	38789.75
937.9623	2074.1915	39473.9	38586
938.0989	2075.7433	39301	38410.65
938.2354	2077.2945	39216.35	38329.45
938.3719	2078.8448	39065.75	38176.55
938.5084	2080.3945	38995.7	38107.75
938.6448	2081.9434	38935.5	38046.85
938.7812	2083.4916	38800.95	37911.7
938.9176	2085.039	38638.1	37747.75
939.054	2086.5857	38490.2	37597.05
939.1903	2088.1317	38477.2	37588.55
939.3267	2089.677	38425.3	37535.2
939.463	2091.2215	38223.4	37335.55
939.5992	2092.7652	38150.45	37259.95
939.7355	2094.3083	38085.35	37195.6
939.8717	2095.8506	37991.95	37102.75
940.0079	2097.3921	37933.95	37047.65
940.1441	2098.933	37765.4	36876.7
940.2802	2100.4731	37688.7	36800.6
940.4163	2102.0124	37622.7	36727.5
940.5524	2103.5511	37478.15	36588.4
940.6885	2105.089	37406.7	36517.05
940.8245	2106.6261	37323.85	36435.2
940.9606	2108.1626	37227.9	36340.85
941.0965	2109.6983	37153	36236.55
941.2325	2111.2332	37016.05	36124.5
941.3684	2112.7675	36907.5	36017.3
941.5044	2114.301	36798.2	35905.9
941.6403	2115.8337	36775.55	35885.75
941.7761	2117.3657	36646.3	35757.05
941.912	2118.897	36497.9	35609.15
942.0478	2120.4276	36390.9	35496.3
942.1835	2121.9575	36203.2	35313.9
942.3193	2123.4866	36235.45	35332.65
942.455	2125.0149	36137.95	35246.2
942.5907	2126.5426	35908.1	35019.25
942.7264	2128.0695	35845.35	34953.45
942.8621	2129.5956	35815.1	34926.25
942.9977	2131.1211	35705.3	34811.9
943.1333	2132.6458	35592.2	34706.45
943.2689	2134.1698	35514.7	34626.35
943.4044	2135.693	35370.4	34478.9
943.54	2137.2155	35318.25	34427.9
943.6755	2138.7373	35262.65	34371.8
943.8109	2140.2584	35102.05	34211.45
943.9464	2141.7787	34990.25	34097.35
944.0818	2143.2983	34807.25	33918.65
944.2172	2144.8171	34625.3	33738.7
944.3526	2146.3353	34571.05	33680.7
944.4879	2147.8527	34410.9	33524.6
944.6232	2149.3693	34355.7	33464.4
944.7585	2150.8853	34241.95	33351.6
944.8938	2152.4005	34064.6	33174.5
945.029	2153.9149	34097.05	33209.2
945.1642	2155.4287	33913.9	33024.1
945.2994	2156.9417	33900.55	33011.35
945.4346	2158.454	33764.4	32875
945.5697	2159.9655	33671	32781.2
945.7048	2161.4764	33616.4	32727.65
945.8399	2162.9865	33506.55	32617.1
945.9749	2164.4958	33442	32550.65
946.1099	2166.0045	33255.1	32364.3
946.2449	2167.5124	33222.35	32333.95
946.3799	2169.0195	33164	32274.25
946.5148	2170.526	33082.7	32193.1
946.6498	2172.0317	32990.8	32103.55
946.7846	2173.5367	32892	32002.15
946.9195	2175.0409	32754.55	31864.95
947.0543	2176.5445	32760.65	31872.95
947.1891	2178.0473	32612.5	31722.15
947.3239	2179.5494	32408.15	31516.9
947.4587	2181.0507	32325.9	31437.95
947.5934	2182.5513	32261.5	31374.25
947.7281	2184.0512	32208.1	31317.6
947.8628	2185.5504	32102.1	31213.6
947.9974	2187.0488	31878.85	30991.4
948.132	2188.5465	31730.65	30842.35
948.2666	2190.0435	31633.7	30743.65
948.4012	2191.5397	31527.15	30638
948.5357	2193.0353	31485.1	30596.4
948.6702	2194.5301	31281.45	30390.4
948.8047	2196.0241	31198.45	30308
948.9392	2197.5175	31140.5	30252.25
949.0736	2199.0101	30976.7	30083.2
949.208	2200.502	30791.95	29904.45
949.3424	2201.9931	30668.25	29777.7
949.4767	2203.4835	30626.5	29736.6
949.611	2204.9733	30555.9	29660.75
949.7453	2206.4622	30522.45	29633.9
949.8796	2207.9505	30340.75	29447.95
950.0138	2209.438	30194.75	29307.25
950.148	2210.9248	30125.5	29237.8
950.2822	2212.4109	30041.8	29155.7
950.4164	2213.8962	29917.7	29026.7
950.5505	2215.3809	29815.1	28926.55
950.6846	2216.8648	29764.55	28874.8
950.8186	2218.3479	29660.1	28765.4
950.9527	2219.8304	29564.65	28672.35
951.0867	2221.3121	29423.1	28528.75
951.2207	2222.7931	29352.6	28464.25
951.3546	2224.2733	29193.45	28303.35
951.4886	2225.7529	29149.3	28259.05
951.6225	2227.2317	29003.35	28110.85
951.7563	2228.7098	29005.85	28116.7
951.8902	2230.1872	28804.95	27917
952.024	2231.6638	28794.7	27903.55
952.1578	2233.1397	28658.55	27765.5
952.2916	2234.6149	28575.45	27687.85
952.4253	2236.0894	28477.1	27588.75
952.559	2237.5632	28404.95	27515.3
952.6927	2239.0362	28296.05	27406.3
952.8263	2240.5085	28210.3	27320.5
952.9599	2241.9801	28089.9	27199.85
953.0935	2243.4509	27999.8	27108.5
953.2271	2244.921	27940.55	27051.2
953.3606	2246.3904	27782.85	26890.45
953.4941	2247.8591	27673.2	26785.05
953.6276	2249.3271	27609.35	26720.6
953.7611	2250.7943	27517.8	26628.05
953.8945	2252.2608	27402.7	26514.45
954.0279	2253.7266	27336.95	26449.15
954.1612	2255.1917	27272.65	26385.6
954.2946	2256.656	27175.9	26287.6
954.4279	2258.1197	27071	26181.85
954.5612	2259.5826	27044.45	26153.75
954.6944	2261.0447	26972.25	26081.95
954.8276	2262.5062	26830.2	25939.45
954.9608	2263.9669	26786.7	25894.5
955.094	2265.4269	26718.8	25830.05
955.2271	2266.8862	26616.2	25726.65
955.3602	2268.3448	26570.25	25680.45
955.4933	2269.8026	26509.15	25619.2
955.6264	2271.2598	26412	25524.9
955.7594	2272.7162	26299.8	25413.6
955.8924	2274.1719	26225.1	25335.45
956.0253	2275.6268	26205.45	25316.9
956.1583	2277.0811	26111.9	25222.35
956.2912	2278.5346	25995.15	25106.75
956.4241	2279.9874	25985.25	25093.75
956.5569	2281.4395	25892.45	25007.1
956.6897	2282.8908	25775.85	24882.95
956.8225	2284.3414	25734.2	24843.45
956.9553	2285.7914	25628.85	24739.95
957.088	2287.2406	25532.85	24642.6
957.2207	2288.689	25492.6	24603.3
957.3534	2290.1368	25422.95	24533.65
957.486	2291.5838	25336.55	24445.5
957.6186	2293.0302	25248.3	24357.85
957.7512	2294.4758	25111.85	24222.7
957.8838	2295.9206	24990.55	24099.55
958.0163	2297.3648	24964.55	24075.25
958.1488	2298.8082	24922.6	24033.7
958.2813	2300.251	24846.5	23957.3
958.4137	2301.693	24734.55	23842.8
958.5461	2303.1343	24718.75	23828.95
958.6785	2304.5748	24629.45	23740.7
958.8108	2306.0147	24530.2	23640.3
958.9432	2307.4538	24473.8	23585.6
959.0754	2308.8922	24330.7	23442.95
959.2077	2310.3299	24334.5	23444.65
959.3399	2311.7669	24277.95	23389.3
959.4721	2313.2031	24150.4	23263.1
959.6043	2314.6387	24059.55	23170.25
959.7365	2316.0735	23997.85	23108.6
959.8686	2317.5076	23911.85	23023.05
960.0006	2318.941	23868.65	22981.35
960.1327	2320.3737	23796.5	22906.75
960.2647	2321.8056	23719.9	22827.7
960.3967	2323.2369	23650.75	22759.8
960.5287	2324.6674	23577.65	22689.6
960.6606	2326.0972	23494.65	22605.45
960.7925	2327.5263	23390.45	22502.1
960.9244	2328.9547	23305.45	22417.2
961.0562	2330.3823	23285.6	22396.15
961.1881	2331.8092	23302.35	22411.15
961.3198	2333.2355	23120	22231.8
961.4516	2334.661	23083.85	22193.05
961.5833	2336.0858	23013.25	22122.15
961.715	2337.5098	22966.8	22077.75
961.8467	2338.9332	22909.7	22018.6
961.9783	2340.3558	22818.4	21927.2
962.1099	2341.7778	22762.75	21874.05
962.2415	2343.199	22635.8	21746.45
962.373	2344.6195	22565.05	21678.55
962.5045	2346.0393	22550.15	21662.2
962.636	2347.4583	22453.9	21563.6
962.7675	2348.8767	22394.2	21504.8
962.8989	2350.2943	22295.75	21404.95
963.0303	2351.7113	22218.35	21327.05
963.1617	2353.1275	22169.65	21279.3
963.293	2354.543	22089.05	21191.25
963.4243	2355.9578	22006.1	21117.7
963.5556	2357.3718	21910.7	21022.95
963.6868	2358.7852	21825.85	20933.55
963.818	2360.1978	21734.4	20844.85
963.9492	2361.6098	21670.35	20782.55
964.0803	2363.021	21620.75	20727.65
964.2114	2364.4315	21564.15	20674.55
964.3425	2365.8413	21501.35	20610.75
964.4736	2367.2504	21432.9	20543.65
964.6046	2368.6587	21351.3	20464.1
964.7356	2370.0664	21211.25	20324.9
964.8666	2371.4733	21134.6	20245.65
964.9975	2372.8795	21104.05	20215.4
965.1284	2374.285	21017.45	20127.2
965.2593	2375.6899	20933.75	20045.2
965.3901	2377.0939	20825.8	19939.05
965.5209	2378.4973	20787.15	19898.25
965.6517	2379.9	20708.85	19820.95
965.7825	2381.3019	20601.6	19713.6
965.9132	2382.7032	20542.55	19654.05
966.0439	2384.1037	20549.9	19663.25
966.1745	2385.5035	20482.5	19593.25
966.3051	2386.9027	20398	19512.15
966.4357	2388.3011	20319.3	19427.75
966.5663	2389.6987	20251.3	19362.65
966.6968	2391.0957	20166.85	19279.35
966.8273	2392.492	20090	19202.7
966.9578	2393.8876	19969.2	19081.05
967.0882	2395.2824	19925	19035.9
967.2186	2396.6765	19847.8	18959.55
967.349	2398.07	19743.7	18854.4
967.4793	2399.4627	19725.35	18835.4
967.6097	2400.8547	19674.25	18784.95
967.7399	2402.246	19597.95	18702.75
967.8702	2403.6366	19451.1	18563.25
968.0004	2405.0265	19358.55	18471.1
968.1306	2406.4156	19312.1	18419.7
968.2607	2407.8041	19209.1	18317.45
968.3909	2409.1918	19135.7	18244.05
968.521	2410.5789	19079.1	18191.1
968.651	2411.9652	19000.95	18108.5
968.781	2413.3508	18908.65	18019.85
968.911	2414.7358	18837.95	17948.3
969.041	2416.12	18781.05	17893.25
969.1709	2417.5035	18746.5	17859
969.3008	2418.8863	18676.65	17785.55
969.4307	2420.2684	18611.5	17723.15
969.5606	2421.6497	18512.4	17622.8
969.6904	2423.0304	18411.35	17523.2
969.8201	2424.4104	18379.05	17487.9
969.9499	2425.7896	18325.55	17435.35
970.0796	2427.1682	18292.3	17402.65
970.2093	2428.546	18222.3	17331.7
970.3389	2429.9232	18165.1	17274.75
970.4685	2431.2996	18129.8	17242.65
970.5981	2432.6753	18059.2	17171.05
970.7277	2434.0503	17996.15	17107.35
970.8572	2435.4246	17938.4	17052.55
970.9867	2436.7982	17848.75	16957.3
971.1161	2438.1711	17809.75	16922.8
971.2456	2439.5433	17798.8	16910.2
971.375	2440.9148	17710.3	16816.85
971.5043	2442.2856	17608.55	16721.55
971.6336	2443.6557	17553.1	16661.5
971.7629	2445.025	17487.7	16598.9
971.8922	2446.3937	17461.45	16573.55
972.0214	2447.7617	17345.15	16457.75
972.1506	2449.1289	17350.75	16463.1
972.2798	2450.4955	17322.4	16429.95
972.4089	2451.8613	17231.05	16344.8
972.538	2453.2265	17179.65	16290
972.6671	2454.5909	17146	16257.85
972.7961	2455.9546	17072.65	16184.85
972.9251	2457.3177	16977.25	16088.45
973.0541	2458.68	16993.2	16102.55
973.1831	2460.0416	16957.6	16070.15
973.312	2461.4025	16901.7	16011.1
973.4408	2462.7627	16830.25	15929.5
973.5697	2464.1222	16774.35	15885.55
973.6985	2465.4811	16712.95	15822.55
973.8273	2466.8392	16658.65	15771.25
973.956	2468.1966	16641.25	15750.6
974.0847	2469.5533	16584.45	15692.4
974.2134	2470.9093	16515.45	15625.55
974.3421	2472.2645	16475.85	15585.35
974.4707	2473.6191	16422.8	15533.4
974.5993	2474.973	16360	15470.7
974.7278	2476.3262	16311.65	15422.95
974.8563	2477.6787	16255.25	15370.5
974.9848	2479.0305	16143.8	15254.7
975.1132	2480.3816	16077.8	15188.2
975.2417	2481.7319	16024.7	15137.75
975.37	2483.0816	15953.45	15064.45
975.4984	2484.4306	15901.85	15013.05
975.6267	2485.7789	15868.25	14978.35
975.755	2487.1264	15814.75	14924.35
975.8833	2488.4733	15727.75	14839.9
976.0115	2489.8195	15686.35	14790.85
976.1397	2491.165	15614.55	14723.7
976.2678	2492.5097	15554.4	14662.75
976.3959	2493.8538	15499.25	14611.65
976.524	2495.1972	15402.75	14513.4
976.6521	2496.5398	15333.45	14442.1
976.7801	2497.8818	15333.95	14444.05
976.9081	2499.2231	15277.15	14389.05
977.036	2500.5637	15214.7	14323.55
977.164	2501.9035	15142.8	14254.85
977.2918	2503.2427	15125.9	14232.6
977.4197	2504.5812	15050.05	14161.35
977.5475	2505.919	15041.95	14152.4
977.6753	2507.256	14988.2	14099.25
977.8031	2508.5924	14904.75	14016.35
977.9308	2509.9281	14871.65	13976.4
978.0585	2511.2631	14817.95	13930.2
978.1861	2512.5974	14796.05	13907.65
978.3137	2513.9309	14726.1	13836.75
978.4413	2515.2638	14668.75	13751.85
978.5689	2516.596	14627.75	13740.3
978.6964	2517.9275	14537.6	13648.55
978.8239	2519.2583	14496.9	13606.9
978.9513	2520.5884	14416.4	13526.95
979.0788	2521.9178	14417.3	13528.75
979.2062	2523.2465	14352.5	13465.5
979.3335	2524.5745	14279.9	13391.95
979.4608	2525.9018	14230.3	13342.65
979.5881	2527.2284	14212.45	13324.75
979.7154	2528.5543	14149.95	13262.2
979.8426	2529.8796	14114.45	13225.3
979.9698	2531.2041	14071.05	13183.3
980.0969	2532.5279	14055.05	13169.15
980.224	2533.851	14001.6	13112.95
980.3511	2535.1735	13941.25	13054.05
980.4781	2536.4952	13899.55	13011.3
980.6052	2537.8163	13895.15	13006.15
980.7321	2539.1366	13849.1	12962.45
980.8591	2540.4562	13787.5	12897.6
980.986	2541.7752	13777.45	12888.25
981.1129	2543.0935	13756.05	12867.95
981.2397	2544.411	13713.85	12825.15
981.3665	2545.7279	13672.8	12785.3
981.4933	2547.0441	13667.8	12779
981.62	2548.3596	13632.75	12742.05
981.7467	2549.6744	13580.95	12692.35
981.8734	2550.9885	13508.9	12612.55
982.0001	2552.3019	13477	12590.4
982.1267	2553.6146	13482.8	12594.3
982.2532	2554.9266	13432.35	12543.75
982.3798	2556.2379	13386.4	12495.25
982.5063	2557.5485	13371.7	12484.7
982.6327	2558.8585	13318.25	12421.9
982.7592	2560.1677	13274.85	12380.8
982.8856	2561.4762	13235.25	12345.3
983.0119	2562.7841	13222.05	12329.15
983.1383	2564.0913	13174.7	12287.25
983.2646	2565.3977	13141.2	12254.4
983.3908	2566.7035	13114	12223.65
983.517	2568.0086	13101.3	12210.05
983.6432	2569.313	13089.25	12199.7
983.7694	2570.6167	13058.1	12168.15
983.8955	2571.9197	13024.05	12134.95
984.0216	2573.222	12966.45	12075.2
984.1476	2574.5236	12948.5	12059.85
984.2737	2575.8246	12888.9	11997.55
984.3996	2577.1248	12891.9	12000.85
984.5256	2578.4244	12852.95	11966.85
984.6515	2579.7232	12860.75	11971.45
984.7774	2581.0214	12804.9	11892.95
984.9032	2582.3189	12767.7	11878.3
985.029	2583.6157	12740.75	11849.95
985.1548	2584.9118	12679.35	11792.6
985.2806	2586.2072	12661.85	11774.85
985.4063	2587.5019	12600	11710.8
985.5319	2588.7959	12547.25	11657.05
985.6576	2590.0893	12582.1	11690.35
985.7832	2591.3819	12542.3	11654.05
985.9087	2592.6739	12468	11580.6
986.0343	2593.9652	12430.3	11541.65
986.1597	2595.2557	12428	11541.25
986.2852	2596.5456	12345.8	11455.05
986.4106	2597.8348	12307.5	11419.05
986.536	2599.1234	12214.85	11327.85
986.6614	2600.4112	12225.95	11336.5
986.7867	2601.6983	12168.1	11275.4
986.912	2602.9848	12114.9	11226.2
987.0372	2604.2705	12054.5	11159.4
987.1624	2605.5556	12058.15	11171.25
987.2876	2606.84	11993	11105.4
987.4128	2608.1237	11974.3	11084.35
987.5379	2609.4067	11917.3	11030.3
987.6629	2610.689	11862.15	10963.2
987.788	2611.9707	11821	10928.35
987.913	2613.2516	11779.85	10887.7
988.0379	2614.5319	11697.7	10809.6
988.1629	2615.8115	11669	10780.35
988.2878	2617.0903	11638.2	10749.2
988.4126	2618.3685	11584	10695.1
988.5375	2619.6461	11543.8	10654.85
988.6622	2620.9229	11515.95	10628.6
988.787	2622.199	11473.65	10585.3
988.9117	2623.4745	11461.45	10572.7
989.0364	2624.7493	11415.15	10527.25
989.161	2626.0234	11338.95	10451.5
989.2857	2627.2968	11300.55	10413.3
989.4102	2628.5695	11267.35	10379.4
989.5348	2629.8415	11214.85	10327.35
989.6593	2631.1128	11184.45	10293.6
989.7837	2632.3835	11111.65	10223.45
989.9082	2633.6535	11072.5	10183.35
990.0326	2634.9228	11024	10135.7
990.1569	2636.1914	10994.95	10105.15
990.2812	2637.4593	10987.6	10093.8
990.4055	2638.7265	10930.45	10040.6
990.5298	2639.9931	10901.1	10013.2
990.654	2641.259	10859.75	9972.65
990.7782	2642.5242	10834.65	9946.1
990.9023	2643.7887	10778.7	9890.1
991.0264	2645.0525	10745.8	9857.6
991.1505	2646.3156	10713.95	9824.75
991.2745	2647.5781	10670.9	9784.85
991.3985	2648.8398	10628.8	9741.65
991.5225	2650.1009	10617.5	9692
991.6464	2651.3613	10578.9	9691.65
991.7703	2652.6211	10537.1	9649.65
991.8942	2653.8801	10511.25	9623.1
992.018	2655.1385	10498.55	9607.25
992.1418	2656.3961	10462.1	9573.8
992.2655	2657.6531	10443.7	9555.3
992.3892	2658.9094	10409.6	9520.85
992.5129	2660.1651	10360.55	9471.05
992.6366	2661.42	10323.65	9434.7
992.7602	2662.6743	10335.95	9446.35
992.8837	2663.9279	10314	9425.9
993.0073	2665.1808	10254.15	9364
993.1307	2666.433	10229.85	9341.55
993.2542	2667.6846	10178.45	9291
993.3776	2668.9354	10166.6	9275.75
993.501	2670.1856	10123.45	9235.45
993.6244	2671.4351	10119.4	9231.25
993.7477	2672.6839	10085.65	9196.7
993.8709	2673.9321	10055.85	9167.3
993.9942	2675.1795	10010.9	9123.65
994.1174	2676.4263	9982.25	9093.9
994.2405	2677.6724	9932.1	9042.8
994.3637	2678.9179	9904	9015.2
994.4868	2680.1626	9874.05	8985.7
994.6098	2681.4067	9840.95	8953.9
994.7328	2682.6501	9819.25	8931.85
994.8558	2683.8928	9797.6	8909
994.9788	2685.1348	9754.65	8868.5
995.1017	2686.3761	9711	8823.9
995.2245	2687.6168	9684.75	8796.5
995.3474	2688.8568	9667.45	8779
995.4702	2690.0961	9643.8	8755.15
995.5929	2691.3348	9582.55	8694.15
995.7156	2692.5727	9553.6	8665.55
995.8383	2693.81	9533.05	8645.65
995.961	2695.0466	9507.55	8620.75
996.0836	2696.2826	9464.35	8576.9
996.2062	2697.5178	9450.4	8559.75
996.3287	2698.7524	9417.8	8529.7
996.4512	2699.9863	9395.25	8505.8
996.5737	2701.2195	9354.8	8466.6
996.6961	2702.452	9346.8	8457.5
996.8185	2703.6839	9310.1	8418.95
996.9408	2704.9151	9281.65	8393.35
997.0631	2706.1456	9242.65	8354.55
997.1854	2707.3755	9198.9	8310.85
997.3077	2708.6046	9175.9	8285.8
997.4299	2709.8331	9148.6	8259
997.552	2711.0609	9102.5	8214.95
997.6742	2712.2881	9111.65	8224.2
997.7963	2713.5145	9072.1	8181.75
997.9183	2714.7403	9036.1	8149.45
998.0403	2715.9654	9009.4	8120.5
998.1623	2717.1899	8969.4	8079.1
998.2842	2718.4136	8969.7	8082.3
998.4062	2719.6367	8941.9	8055.8
998.528	2720.8591	8902.1	8007.3
998.6498	2722.0809	8891.75	8003.8
998.7716	2723.3019	8863.4	7972.75
998.8934	2724.5223	8841.7	7953.8
999.0151	2725.7421	8814.3	7924.95
999.1368	2726.9611	8786.8	7897.35
999.2584	2728.1795	8736.35	7844.2
999.38	2729.3972	8693.95	7805.45
999.5016	2730.6142	8647.05	7754.05
999.6231	2731.8306	8624.25	7734.9
999.7446	2733.0462	8581	7692.35
999.8661	2734.2612	8565.05	7673.25
999.9875	2735.4756	8489.9	7600.5
1000.1089	2736.6892	8460.4	7570.85
1000.2302	2737.9022	8408.6	7520.75
1000.3515	2739.1145	8361.55	7473.15
1000.4728	2740.3262	8351.75	7456.05
1000.594	2741.5372	8291.55	7402.15
1000.7152	2742.7475	8226.65	7338.7
1000.8363	2743.9571	8214.25	7323.7
1000.9575	2745.1661	8181.4	7288.7
1001.0785	2746.3744	8156.4	7266.95
1001.1996	2747.582	8117.9	7231.45
1001.3206	2748.7889	8122.1	7231.5
1001.4415	2749.9952	8070.95	7184.05
1001.5625	2751.2008	8039.05	7149.45
1001.6833	2752.4057	8006.3	7115.15
1001.8042	2753.61	7942.95	7053.9
1001.925	2754.8136	7948.45	7058.2
1002.0458	2756.0165	7914.85	7026.5
1002.1665	2757.2188	7902.25	7016.2
1002.2872	2758.4204	7857.9	6969.4
1002.4078	2759.6213	7826.9	6935.85
1002.5285	2760.8215	7817.85	6926.15
1002.649	2762.0211	7774.4	6884.2
1002.7696	2763.22	7739.4	6849.65
1002.8901	2764.4182	7715.75	6824.55
1003.0106	2765.6158	7700.65	6812.4
1003.131	2766.8127	7688.85	6800.2
1003.2514	2768.009	7662.5	6774.7
1003.3717	2769.2045	7618.15	6728.7
1003.492	2770.3994	7599.85	6711.3
1003.6123	2771.5936	7600.1	6711.95
1003.7325	2772.7872	7546.5	6658.5
1003.8527	2773.9801	7512.8	6622.85
1003.9729	2775.1723	7496.45	6594.25
1004.093	2776.3639	7453.8	6568.5
1004.2131	2777.5548	7439.85	6550.4
1004.3331	2778.745	7410.2	6520.3
1004.4531	2779.9346	7385.3	6497.8
1004.5731	2781.1235	7388.45	6498.85
1004.693	2782.3117	7351.3	6463.65
1004.8129	2783.4992	7321.05	6433
1004.9328	2784.6861	7284.3	6396.55
1005.0526	2785.8723	7281.9	6393.05
1005.1723	2787.0579	7253.25	6363.9
1005.2921	2788.2428	7241.5	6354.4
1005.4118	2789.427	7216.75	6328.3
1005.5314	2790.6106	7195	6306.65
1005.651	2791.7935	7170.05	6281.15
1005.7706	2792.9757	7158.9	6271.75
1005.8902	2794.1573	7127.2	6238.1
1006.0097	2795.3382	7079.9	6190.3
1006.1291	2796.5184	7069.45	6183.45
1006.2485	2797.698	7070.3	6181.55
1006.3679	2798.8769	7052.3	6165.85
1006.4873	2800.0551	7053.4	6167.2
1006.6066	2801.2327	7019.25	6127.6
1006.7258	2802.4096	6991.15	6105.1
1006.8451	2803.5859	6992.9	6105.35
1006.9642	2804.7615	6982.65	6094.2
1007.0834	2805.9364	6980.65	6094.1
1007.2025	2807.1106	6964.2	6078.15
1007.3216	2808.2842	6970.4	6081.6
1007.4406	2809.4572	6961	6072.95
1007.5596	2810.6294	6993.6	6104.9
1007.6785	2811.801	7020.2	6134.35
1007.7975	2812.972	7012.05	6126.55
1007.9163	2814.1423	7012.75	6123.4
1008.0352	2815.3119	7036.55	6149.2
1008.154	2816.4808	7041.15	6154
1008.2727	2817.6491	7090.4	6204.05
1008.3914	2818.8167	7111.75	6226.35
1008.5101	2819.9837	7153.1	6260.4
1008.6288	2821.15	7192.25	6305.15
1008.7474	2822.3157	7195.5	6308.6
1008.8659	2823.4807	7218.1	6329.35
1008.9844	2824.645	7264.9	6376.3
1009.1029	2825.8086	7275.85	6387.8
1009.2214	2826.9716	7293.55	6405.8
1009.3398	2828.134	7327.45	6440
1009.4581	2829.2957	7345.55	6458
1009.5764	2830.4567	7359.3	6472.1
1009.6947	2831.617	7362.9	6473.1
1009.813	2832.7767	7361.15	6475.35
1009.9312	2833.9358	7312.8	6427.35
1010.0493	2835.0941	7309.2	6421.75
1010.1675	2836.2519	7299.5	6412.25
1010.2855	2837.4089	7285.3	6395.15
1010.4036	2838.5653	7264.95	6377.95
1010.5216	2839.7211	7248.95	6361.9
1010.6396	2840.8761	7197.85	6309.15
1010.7575	2842.0306	7215.65	6329.2
1010.8754	2843.1843	7251.3	6366.3
1010.9932	2844.3374	7237.3	6349.95
1011.111	2845.4899	7238.6	6351.2
1011.2288	2846.6417	7285.05	6396.6
1011.3465	2847.7928	7303.9	6416.7
1011.4642	2848.9433	7382.55	6494.9
1011.5818	2850.0931	7415.4	6529.95
1011.6995	2851.2422	7462.05	6572.1
1011.817	2852.3907	7531.45	6641.85
1011.9345	2853.5385	7544.15	6655.7
1012.052	2854.6857	7583.65	6685.9
1012.1695	2855.8323	7581.75	6693.3
1012.2869	2856.9781	7607.3	6720.2
1012.4042	2858.1233	7619.2	6732.2
1012.5216	2859.2679	7643.65	6757.5
1012.6389	2860.4118	7669.7	6781.35
1012.7561	2861.555	7695.9	6803.15
1012.8733	2862.6976	7713.85	6825.05
1012.9905	2863.8395	7707.75	6821.25
1013.1076	2864.9808	7720.2	6834.4
1013.2247	2866.1214	7719.75	6833.3
1013.3417	2867.2614	7713.2	6823.7
1013.4587	2868.4007	7698.3	6808.15
1013.5757	2869.5393	7687.8	6799.45
1013.6926	2870.6773	7702.65	6813.1
1013.8095	2871.8146	7669.85	6778.65
1013.9263	2872.9513	7663.75	6774.25
1014.0431	2874.0874	7614.5	6728.55
1014.1599	2875.2227	7596.25	6707.75
1014.2766	2876.3574	7536.8	6650.2
1014.3933	2877.4915	7533.15	6647.15
1014.51	2878.6249	7466.85	6578.7
1014.6266	2879.7577	7431.3	6543.05
1014.7431	2880.8898	7399.95	6505.05
1014.8596	2882.0212	7353.95	6466.95
1014.9761	2883.152	7319.65	6431.6
1015.0925	2884.2821	7303.05	6417.6
1015.2089	2885.4116	7268.65	6382.4
1015.3253	2886.5405	7243.55	6355.95
1015.4416	2887.6686	7254.15	6362.7
1015.5579	2888.7962	7236.4	6352.2
1015.6741	2889.923	7206.95	6320.5
1015.7903	2891.0493	7205.45	6320.05
1015.9065	2892.1748	7186.2	6299.8
1016.0226	2893.2997	7190.85	6302
1016.1387	2894.424	7170.75	6285.1
1016.2547	2895.5476	7144.65	6253.8
1016.3707	2896.6706	7162.2	6277.7
1016.4866	2897.7929	7149.35	6261.6
1016.6025	2898.9145	7158.55	6272.85
1016.7184	2900.0355	7150.65	6262.1
1016.8342	2901.1559	7175.5	6286.2
1016.95	2902.2756	7178.15	6288.85
1017.0658	2903.3946	7191.8	6305.4
1017.1815	2904.513	7205.65	6313.9
1017.2971	2905.6308	7191.1	6305.35
1017.4127	2906.7479	7202.45	6315.75
1017.5283	2907.8643	7180.8	6294.5
1017.6439	2908.9801	7200.15	6313.45
1017.7594	2910.0953	7176.7	6290.75
1017.8748	2911.2098	7161.95	6271.25
1017.9902	2912.3236	7143.2	6247.45
1018.1056	2913.4368	7118.2	6228.05
1018.2209	2914.5494	7066.2	6178.55
1018.3362	2915.6613	7034.75	6141
1018.4515	2916.7725	7000.65	6110.85
1018.5667	2917.8831	6962.6	6073.55
1018.6819	2918.9931	6918.75	6028.95
1018.797	2920.1024	6881.7	5993.55
1018.9121	2921.211	6850	5962.35
1019.0271	2922.319	6838.05	5951
1019.1421	2923.4264	6794.7	5908.35
1019.2571	2924.5331	6767.8	5881.45
1019.372	2925.6391	6740.05	5853.65
1019.4869	2926.7445	6736.2	5849.15
1019.6017	2927.8493	6724.75	5837.7
1019.7165	2928.9534	6690.75	5802.95
1019.8313	2930.0569	6675.5	5786
1019.946	2931.1597	6665.35	5776.45
1020.0606	2932.2619	6650.5	5764.45
1020.1753	2933.3634	6644.95	5758.4
1020.2899	2934.4643	6652.85	5758.05
1020.4044	2935.5645	6619.45	5727.45
1020.5189	2936.6641	6592.1	5701.45
1020.6334	2937.763	6527.15	5640.9
1020.7478	2938.8613	6484.6	5597.85
1020.8622	2939.959	6427.8	5535.9
1020.9765	2941.056	6356.5	5469.05
1021.0908	2942.1523	6259.9	5372.05
1021.2051	2943.248	6189.45	5301.4
1021.3193	2944.3431	6094.15	5205.95
1021.4334	2945.4375	5992.7	5104.15
1021.5476	2946.5313	5879	4992.35
1021.6617	2947.6244	5782.3	4894.7
1021.7757	2948.7169	5688.25	4799.9
1021.8897	2949.8087	5595.7	4707.9
1022.0037	2950.8999	5487.75	4600.25
1022.1176	2951.9904	5399.95	4511.55
1022.2315	2953.0803	5330.1	4443.2
1022.3453	2954.1696	5244	4356.85
1022.4591	2955.2582	5199.5	4311.5
1022.5728	2956.3462	5141.75	4254.35
1022.6865	2957.4335	5094	4206.2
1022.8002	2958.5202	5052.05	4162.15
1022.9138	2959.6062	5018.35	4131.55
1023.0274	2960.6916	4971.05	4085
1023.141	2961.7764	4939.5	4050.3
1023.2545	2962.8605	4912.6	4023.25
1023.3679	2963.9439	4892.1	4005.9
1023.4813	2965.0267	4867.55	3979.55
1023.5947	2966.1089	4846.65	3935.2
1023.708	2967.1905	4812.45	3924.55
1023.8213	2968.2714	4784.1	3897.8
1023.9346	2969.3516	4770.25	3885.1
1024.0478	2970.4312	4783.6	3890.75
1024.1609	2971.5102	4748.05	3862.45
1024.274	2972.5885	4734.1	3847.6
1024.3871	2973.6662	4753.05	3861
1024.5002	2974.7432	4723.65	3837.05
1024.6132	2975.8196	4718.25	3832.2
1024.7261	2976.8954	4684.05	3797.15
1024.839	2977.9705	4652.8	3764.6
1024.9519	2979.045	4632.05	3746.2
1025.0647	2980.1188	4607.65	3721.05
1025.1775	2981.192	4591.5	3706.9
1025.2902	2982.2645	4549	3661.75
1025.4029	2983.3364	4519.45	3634.4
1025.5156	2984.4077	4489	3602.3
1025.6282	2985.4783	4477.8	3585.75
1025.7407	2986.5483	4429.6	3541.4
1025.8532	2987.6177	4376	3489.4
1025.9657	2988.6864	4339.4	3452.05
1026.0782	2989.7545	4305.1	3417.25
1026.1906	2990.8219	4266.2	3380.35
1026.3029	2991.8887	4220.45	3333.2
1026.4152	2992.9548	4192.95	3304.45
1026.5275	2994.0204	4139.35	3254.15
1026.6397	2995.0852	4096.7	3210.55
1026.7519	2996.1495	4071.35	3183.5
1026.864	2997.2131	4043.9	3157.75
1026.9761	2998.276	4009.6	3122.95
1027.0882	2999.3383	3982.95	3095.3
1027.2002	3000.4	3962.4	3074.2
1027.3122	3001.4611	3938	3048.95
1027.4241	3002.5215	3907.35	3021.5
1027.536	3003.5812	3877.6	2989.95
1027.6478	3004.6404	3842.6	2955.5
1027.7596	3005.6989	3837.7	2950.9
1027.8714	3006.7567	3829.3	2941.8
1027.9831	3007.8139	3816.4	2905.1
1028.0947	3008.8705	3788.45	2900.7
1028.2064	3009.9264	3768.25	2876.55
1028.3179	3010.9818	3752	2861.8
1028.4295	3012.0364	3739.85	2852.55
1028.541	3013.0905	3721.1	2832.75
1028.6524	3014.1439	3703.6	2817.1
1028.7638	3015.1966	3676.1	2789.9
1028.8752	3016.2487	3684.4	2796.8
1028.9865	3017.3002	3652	2762.9
1029.0978	3018.3511	3643	2756.25
1029.209	3019.4013	3630.85	2743.55
1029.3202	3020.4509	3635.3	2748.7
1029.4314	3021.4998	3626.6	2738.05
1029.5425	3022.5481	3619.5	2733.55
1029.6535	3023.5958	3611.05	2722.6
1029.7645	3024.6428	3587.4	2699.85
1029.8755	3025.6892	3573.15	2686.5
1029.9864	3026.735	3561.65	2674.1
1030.0973	3027.7802	3553.35	2665.3
1030.2082	3028.8247	3539.5	2655.3
1030.319	3029.8685	3524.85	2636.65
1030.4297	3030.9118	3521.4	2633.55
1030.5404	3031.9544	3510.7	2624.25
1030.6511	3032.9963	3507.65	2621.15
1030.7617	3034.0376	3501.3	2616.65
1030.8723	3035.0783	3488.65	2599.85
1030.9829	3036.1184	3491.75	2605.3
1031.0934	3037.1578	3478.85	2593
1031.2038	3038.1966	3473.8	2587.35
1031.3142	3039.2348	3452.7	2567.7
1031.4246	3040.2723	3465.8	2569.85
1031.5349	3041.3092	3448.4	2563.65
1031.6452	3042.3455	3413.75	2526.95
1031.7554	3043.3811	3410.45	2523.15
1031.8656	3044.4161	3395.2	2509.05
1031.9758	3045.4505	3391.5	2506.65
1032.0859	3046.4842	3373.8	2485.4
1032.1959	3047.5173	3369.25	2482.35
1032.3059	3048.5498	3348.85	2461.95
1032.4159	3049.5816	3349.25	2463.25
1032.5258	3050.6128	3333.35	2445.4
1032.6357	3051.6434	3326.4	2438.9
1032.7455	3052.6734	3315.95	2428.3
1032.8553	3053.7027	3309.6	2423.2
1032.9651	3054.7314	3292.55	2405.6
1033.0748	3055.7594	3287.75	2401.15
1033.1845	3056.7868	3268.05	2380.3
1033.2941	3057.8136	3254.6	2368.15
1033.4037	3058.8398	3246.45	2360.4
1033.5132	3059.8653	3224.35	2338.65
1033.6227	3060.8902	3214.25	2330.75
1033.7321	3061.9145	3194.55	2306.55
1033.8415	3062.9381	3189.7	2304.35
1033.9509	3063.9612	3185.3	2281.75
1034.0602	3064.9835	3166.95	2278.65
1034.1694	3066.0053	3159.5	2270.05
1034.2787	3067.0264	3140.45	2254.1
1034.3878	3068.0469	3126.25	2239.95
1034.497	3069.0668	3116.2	2226.1
1034.6061	3070.086	3097.1	2210.1
1034.7151	3071.1046	3090.7	2204.95
1034.8241	3072.1226	3074.5	2187.5
1034.9331	3073.1399	3075.25	2190.25
1035.042	3074.1567	3060.95	2172.9
1035.1508	3075.1727	3039.2	2149.7
1035.2597	3076.1882	3022.6	2136.1
1035.3684	3077.203	3019	2132.1
1035.4772	3078.2173	2987.15	2099.65
1035.5859	3079.2308	2981.45	2093.35
1035.6945	3080.2438	2972.55	2083.55
1035.8031	3081.2561	2950.15	2062.6
1035.9117	3082.2678	2942.1	2055.05
1036.0202	3083.2789	2937.7	2053.4
1036.1286	3084.2893	2935.45	2048.5
1036.2371	3085.2991	2909.3	2021.9
1036.3454	3086.3083	2892.3	2002.1
1036.4538	3087.3169	2894.75	2004.6
1036.562	3088.3248	2877.25	1988.85
1036.6703	3089.3321	2861.05	1973.05
1036.7785	3090.3388	2848.95	1965.4
1036.8866	3091.3449	2832.85	1947.05
1036.9948	3092.3503	2825.75	1936.25
1037.1028	3093.3551	2816.4	1930.45
1037.2108	3094.3593	2810.2	1925.65
1037.3188	3095.3629	2793.65	1908.3
1037.4267	3096.3658	2781.6	1895.3
1037.5346	3097.3681	2773.2	1885.75
1037.6425	3098.3698	2756.3	1867.85
1037.7503	3099.3708	2742.65	1848.3
1037.858	3100.3713	2737.8	1852.2
1037.9657	3101.3711	2723.7	1837.5
1038.0734	3102.3702	2829.65	1805.95
1038.181	3103.3688	2717.7	1829.95
1038.2886	3104.3667	2686.45	1802.05
1038.3961	3105.364	2688.5	1801.55
1038.5036	3106.3607	2671.3	1784.85
1038.611	3107.3568	2658.75	1771.95
1038.7184	3108.3522	2651.45	1765.75
1038.8257	3109.347	2641.5	1753.15
1038.933	3110.3412	2629.55	1740.5
1039.0403	3111.3348	2619.45	1732.5
1039.1475	3112.3277	2612	1724.1
1039.2547	3113.32	2592.6	1706.05
1039.3618	3114.3117	2591.25	1705.85
1039.4689	3115.3028	2585.15	1699.65
1039.5759	3116.2932	2564.55	1674.9
1039.6829	3117.2831	2566.05	1675.4
1039.7898	3118.2723	2542.05	1656.25
1039.8967	3119.2608	2534.55	1648.85
1040.0035	3120.2488	2542.7	1654.95
1040.1103	3121.2361	2520.15	1632.1
1040.2171	3122.2229	2514.65	1627.35
1040.3238	3123.209	2502.15	1613.7
1040.4305	3124.1944	2491.85	1603.8
1040.5371	3125.1793	2490.35	1601.6
1040.6437	3126.1635	2485.1	1600.8
1040.7502	3127.1471	2472.95	1586.2
1040.8567	3128.1301	2448.2	1563.05
1040.9631	3129.1125	2452.7	1567.7
1041.0695	3130.0942	2446.9	1560.1
1041.1759	3131.0753	2459.15	1564.15
1041.2822	3132.0558	2437.25	1548.15
1041.3884	3133.0357	2430	1542.75
1041.4946	3134.015	2412.9	1525.25
1041.6008	3134.9936	2412.35	1523.2
1041.7069	3135.9716	2419.9	1513.5
1041.813	3136.949	2396.8	1509.6
1041.919	3137.9258	2399.7	1506.95
1042.025	3138.902	2391	1499.7
1042.1309	3139.8775	2378.45	1493.25
1042.2368	3140.8524	2362.2	1476.05
1042.3427	3141.8267	2371.95	1483.85
1042.4485	3142.8004	2359.25	1471.2
1042.5542	3143.7735	2356.5	1465.35
1042.6599	3144.7459	2343.5	1454.35
1042.7656	3145.7178	2337.05	1450.45
1042.8712	3146.689	2324.65	1439.5
1042.9768	3147.6596	2315.5	1427.75
1043.0823	3148.6295	2310.9	1421.5
1043.1878	3149.5989	2300.65	1414.55
1043.2932	3150.5676	2299.95	1416.7
1043.3986	3151.5357	2284.75	1399.8
1043.5039	3152.5032	2288.15	1401
1043.6092	3153.4701	2284.65	1398.05
1043.7145	3154.4364	2276.2	1387.8
1043.8197	3155.402	2263.25	1377.35
1043.9248	3156.367	2259.45	1369.9
1044.03	3157.3315	2291.6	1361.35
1044.135	3158.2952	2243.15	1356.5
1044.24	3159.2584	2220.85	1335.2
1044.345	3160.221	2223.1	1336.1
1044.4499	3161.1829	2222.45	1334.95
1044.5548	3162.1442	2206.95	1322.15
1044.6596	3163.105	2192.05	1305.2
1044.7644	3164.065	2189.6	1302.95
1044.8692	3165.0245	2191.65	1302.5
1044.9739	3165.9834	2174.15	1290.55
1045.0785	3166.9416	2170.85	1282
1045.1831	3167.8993	2155.7	1269.25
1045.2877	3168.8563	2150.5	1261.6
1045.3922	3169.8127	2152.15	1263.85
1045.4966	3170.7684	2135.55	1248.85
1045.6011	3171.7236	2142.35	1255.85
1045.7054	3172.6782	2125.7	1241
1045.8098	3173.6321	2118.3	1230.2
1045.914	3174.5854	2114.2	1222.15
1046.0183	3175.5381	2107.35	1220.9
1046.1224	3176.4902	2098	1211.45
1046.2266	3177.4417	2082.1	1197.3
1046.3307	3178.3926	2083.3	1198.65
1046.4347	3179.3428	2071.25	1185.45
1046.5387	3180.2924	2072.45	1186.05
1046.6427	3181.2415	2064.65	1177.1
1046.7466	3182.1899	2051.25	1163.55
1046.8504	3183.1377	2046.45	1160.3
1046.9542	3184.0848	2045.15	1154.8
1047.058	3185.0314	2036.85	1149.45
1047.1617	3185.9773	2027.1	1140.85
1047.2654	3186.9227	2015.6	1128.3
1047.369	3187.8674	2006	1121.75
1047.4726	3188.8115	2019.1	1128.5
1047.5761	3189.755	2016.05	1129.7
1047.6796	3190.6979	1998.85	1112.55
1047.783	3191.6402	1999	1113.9
1047.8864	3192.5818	1996	1109.5
1047.9898	3193.5229	2001.85	1097.15
1048.0931	3194.4633	1983.2	1099.9
1048.1963	3195.4031	1978.35	1091.6
1048.2995	3196.3423	1968.85	1081.35
1048.4027	3197.2809	1969.3	1083.85
1048.5058	3198.2189	1961.55	1074.65
1048.6089	3199.1563	1966.45	1064.45
1048.7119	3200.0931	1944.4	1059.45
1048.8148	3201.0292	1942.7	1057.75
1048.9178	3201.9648	1931.5	1045.65
1049.0206	3202.8997	1942.2	1054.2
1049.1235	3203.834	1929.35	1041.65
1049.2262	3204.7677	1918.35	1030.3
1049.329	3205.7008	1915.55	1028.2
1049.4317	3206.6333	1900.8	1015.25
1049.5343	3207.5652	1910.8	1021.35
1049.6369	3208.4964	1914.15	1027.35
1049.7394	3209.4271	1891.85	1008
1049.8419	3210.3571	1895.5	1010.35
1049.9444	3211.2865	1883	997.1
1050.0468	3212.2154	1879.15	989.55
1050.1491	3213.1436	1881.9	992.8
1050.2514	3214.0712	1867.15	972.6
1050.3537	3214.9982	1868.1	980.3
1050.4559	3215.9246	1859.9	972.8
1050.5581	3216.8503	1857.65	972.45
1050.6602	3217.7755	1847.15	959.9
1050.7623	3218.7001	1848.15	961.95
1050.8643	3219.624	1846.35	961.8
1050.9663	3220.5473	1840.2	954.6
1051.0682	3221.4701	1827.1	939.6
1051.1701	3222.3922	1827.35	938.15
1051.2719	3223.3137	1822.25	936.1
1051.3737	3224.2346	1814.2	927.65
1051.4754	3225.1549	1816.3	931.05
1051.5771	3226.0746	1815.35	929.15
1051.6788	3226.9937	1802.3	916.4
1051.7804	3227.9121	1797.55	912.5
1051.8819	3228.83	1788.05	902.45
1051.9834	3229.7473	1787.15	900.05
1052.0849	3230.6639	1779.25	892.1
1052.1863	3231.5799	1774.6	888.25
1052.2876	3232.4954	1769.9	884.6
1052.3889	3233.4102	1763.6	877.65
1052.4902	3234.3244	1763.4	879.2
1052.5914	3235.238	1760.05	874.75
1052.6926	3236.151	1771.2	860.5
1052.7937	3237.0634	1749.4	864.3
1052.8948	3237.9752	1749.05	863.4
1052.9958	3238.8864	1728.5	843.6
1053.0968	3239.797	1731.95	845.8
1053.1977	3240.7069	1730.9	845.4
1053.2986	3241.6163	1713.4	826.05
1053.3994	3242.5251	1705.95	819.85
1053.5002	3243.4332	1709.95	824.3
1053.6009	3244.3408	1707.6	820
1053.7016	3245.2477	1700.85	816.4
1053.8022	3246.154	1696.9	809.1
1053.9028	3247.0598	1688.5	801.35
1054.0034	3247.9649	1677.9	791.6
1054.1039	3248.8694	1680.45	793.95
1054.2043	3249.7733	1679	794.05
1054.3047	3250.6766	1666.7	779.1
1054.4051	3251.5793	1653.35	764.55
1054.5054	3252.4814	1660.35	775.95
1054.6056	3253.3829	1660.85	775.6
1054.7058	3254.2838	1651	766
1054.806	3255.1841	1657.25	770.9
1054.9061	3256.0838	1637	750.6
1055.0061	3256.9829	1630	744.75
1055.1062	3257.8814	1630.2	739.65
1055.2061	3258.7792	1620.1	729.25
1055.306	3259.6765	1616.7	729.25
1055.4059	3260.5731	1604.65	719.3
1055.5057	3261.4692	1595.25	708.85
1055.6055	3262.3647	1584	695.5
1055.7052	3263.2595	1581.85	695.6
1055.8049	3264.1538	1568.4	682.85
1055.9045	3265.0474	1554.35	668.65
1056.0041	3265.9404	1549.8	664.1
1056.1036	3266.8329	1536.6	652.5
1056.2031	3267.7247	1541.65	646.35
1056.3025	3268.616	1512.45	628.65
1056.4019	3269.5066	1498.75	612.95
1056.5013	3270.3966	1477.3	587.8
1056.6005	3271.286	1460.3	576.2
