Software Version:	3.9.2.0
Unit SN:	10000200
Spectrometer SN:	6960
Date:	3/6/2024 10:21:00 AM
Data Line Index:	25
Spectral Points:	2048
Integration time (ms):	125
Averages:	20
Delay (ms):	30
Sequence Number:	1
Processing:	dark subtract
Laser Power (mW):	300
Laser Current (mA):	826
Laser Diode Temp (C):	25.1
Laser Case Temp (C):	25.5
System Temp (C):	25.2
Spectrometer Temp (C):	22.7
CCD Temp (C):	-0.01
Secondary Temp (C):	20.007
Heatsink Temp (C):	20.643
CCDPCB Temp (C):	33.939
SecondaryPCB Temp (C):	27.359

Wavelength	RamanShift	Raw Counts	Dark Subtracted
787.061	30.1047	1123.7	713.15
787.2016	32.3739	1149.05	739.5
787.3422	34.6426	1193.7	782.75
787.4828	36.9109	1231.6	819.3
787.6235	39.1787	1296.5	880.65
787.7642	41.4461	1355.5	935
787.9049	43.7131	1417.2	993.05
788.0456	45.9796	1476.75	1050.2
788.1863	48.2456	1545.7	1114.65
788.3271	50.5112	1612.4	1177.9
788.4679	52.7764	1671.4	1235.75
788.6087	55.0411	1746.35	1306.35
788.7496	57.3054	1840.15	1393.55
788.8904	59.5692	1923.3	1474.95
789.0313	61.8326	2020.55	1568.65
789.1722	64.0955	2121.2	1664.8
789.3132	66.3579	2247.2	1787.6
789.4541	68.6199	2399.45	1935.25
789.5951	70.8815	2656.25	2190.55
789.7361	73.1426	3209.25	2736.7
789.8771	75.4032	4624.7	4149.4
790.0181	77.6634	8243.5	7764
790.1592	79.9231	19058.95	18573.45
790.3003	82.1824	52931.15	52434.35
790.4414	84.4412	65535	65016.75
790.5825	86.6995	65535	64987.25
790.7237	88.9574	65535	64964.55
790.8648	91.2148	65535	64947.95
791.006	93.4717	65535	64938.95
791.1472	95.7282	65535	64932.7
791.2885	97.9842	65535	64932.6
791.4297	100.2398	65535	64928.7
791.571	102.4949	65535	64924.3
791.7123	104.7495	65535	64917.45
791.8536	107.0036	65535	64919.8
791.9949	109.2573	65535	64920.2
792.1363	111.5105	65535	64919.35
792.2777	113.7632	65535	64916.5
792.4191	116.0154	65535	64905.1
792.5605	118.2672	65535	64911.6
792.7019	120.5185	65535	64913.3
792.8434	122.7693	65535	64907.85
792.9849	125.0197	65535	64902.1
793.1264	127.2696	65535	64899.4
793.2679	129.519	65535	64899.15
793.4094	131.7679	65535	64892.85
793.551	134.0163	65535	64890
793.6926	136.2642	65535	64886.5
793.8342	138.5117	65535	64880.9
793.9758	140.7587	65535	64883.25
794.1175	143.0052	65535	64876.6
794.2591	145.2512	65535	64879.2
794.4008	147.4967	65535	64877.1
794.5425	149.7417	65535	64875.85
794.6842	151.9863	65535	64874.55
794.826	154.2304	65535	64872.45
794.9677	156.4739	65535	64863.6
795.1095	158.717	65535	64863.55
795.2513	160.9596	65535	64858.85
795.3931	163.2017	65535	64855.55
795.535	165.4433	65535	64857.75
795.6768	167.6844	65535	64855.85
795.8187	169.925	65535	64850.75
795.9606	172.1651	65535	64847.9
796.1025	174.4047	65535	64842.9
796.2445	176.6439	65535	64842.1
796.3864	178.8825	65535	64839.05
796.5284	181.1206	65535	64832.9
796.6704	183.3582	65535	64833
796.8124	185.5954	65535	64832.15
796.9544	187.832	65535	64828.4
797.0965	190.0681	65535	64827.45
797.2386	192.3037	65535	64821.1
797.3806	194.5388	65535	64814
797.5228	196.7734	65535	64818.2
797.6649	199.0075	65535	64817.6
797.807	201.2411	65535	64816.1
797.9492	203.4742	65535	64815.4
798.0914	205.7068	65535	64810.8
798.2336	207.9389	65535	64807.05
798.3758	210.1704	65535	64809.75
798.518	212.4015	65535	64811.2
798.6603	214.632	65535	64820.1
798.8025	216.862	65535	64829.85
798.9448	219.0915	65535	64826.15
799.0871	221.3205	65535	64825.45
799.2294	223.549	65535	64831.45
799.3718	225.777	65535	64829.35
799.5141	228.0044	65535	64822.65
799.6565	230.2314	65535	64820.55
799.7989	232.4578	65535	64816.2
799.9413	234.6837	65535	64811.25
800.0837	236.909	65535	64809
800.2262	239.1339	65535	64784.5
800.3687	241.3582	65535	64796.2
800.5111	243.582	65535	64767.15
800.6536	245.8053	65535	64778.85
800.7961	248.0281	65535	64787.25
800.9387	250.2503	65535	64780.2
801.0812	252.472	65535	64778.45
801.2238	254.6932	65535	64780.45
801.3664	256.9139	65535	64778.6
801.509	259.134	65535	64771.8
801.6516	261.3536	65535	64773.55
801.7942	263.5727	65535	64774.05
801.9369	265.7912	65535	64774.25
802.0795	268.0092	65535	64773.2
802.2222	270.2267	65535	64774.85
802.3649	272.4436	65535	64774.05
802.5076	274.6601	65535	64763.55
802.6504	276.8759	65535	64767.15
802.7931	279.0913	65535	64764.9
802.9359	281.3061	65535	64762.75
803.0787	283.5204	65535	64763.9
803.2215	285.7341	65535	64759.1
803.3643	287.9473	65535	64746.9
803.5071	290.16	65535	64754.1
803.6499	292.3721	65535	64762.45
803.7928	294.5837	65535	64757
803.9357	296.7947	65535	64756.65
804.0786	299.0052	65535	64756.2
804.2215	301.2152	65535	64754.2
804.3644	303.4246	65535	64759.1
804.5074	305.6334	65535	64758.6
804.6503	307.8418	65535	64755.05
804.7933	310.0495	65535	64751.8
804.9363	312.2568	65535	64751.5
805.0793	314.4635	65535	64751.25
805.2223	316.6696	65535	64749.6
805.3653	318.8752	65535	64742.1
805.5084	321.0802	65535	64747.75
805.6514	323.2847	65535	64744.55
805.7945	325.4887	65535	64746
805.9376	327.692	65535	64746.55
806.0807	329.8949	65535	64743.35
806.2238	332.0972	65535	64742.05
806.367	334.2989	65535	64738
806.5101	336.5001	65535	64737.55
806.6533	338.7007	65535	64738.9
806.7965	340.9008	65535	64738
806.9397	343.1003	65535	64731.6
807.0829	345.2992	65535	64735
807.2261	347.4976	65535	64729.65
807.3693	349.6955	65535	64730.1
807.5126	351.8927	65535	64727.3
807.6559	354.0895	65535	64714.3
807.7991	356.2856	65535	64725.95
807.9424	358.4812	65535	64724.2
808.0857	360.6763	65535	64723.3
808.2291	362.8707	65535	64720.5
808.3724	365.0646	65535	64718.2
808.5158	367.258	65535	64718.6
808.6591	369.4508	65535	64711.75
808.8025	371.643	65535	64716.65
808.9459	373.8346	65535	64715.25
809.0893	376.0257	65535	64708.4
809.2327	378.2162	65535	64708.35
809.3762	380.4062	65535	64710.15
809.5196	382.5956	65535	64710.05
809.6631	384.7844	65535	64713.85
809.8066	386.9726	65535	64712.45
809.9501	389.1603	65535	64715.8
810.0936	391.3474	65535	64677.8
810.2371	393.5339	65535	64714.55
810.3806	395.7199	65535	64719.9
810.5241	397.9052	65535	64715.8
810.6677	400.09	65535	64718.1
810.8113	402.2743	65535	64714.8
810.9548	404.4579	65535	64718.3
811.0984	406.641	65535	64716.85
811.2421	408.8235	65535	64711
811.3857	411.0054	65535	64711.05
811.5293	413.1868	65535	64705.9
811.673	415.3675	65535	64707.3
811.8166	417.5477	65535	64707.05
811.9603	419.7273	65535	64697.7
812.104	421.9064	65535	64694.9
812.2477	424.0848	65535	64699.95
812.3914	426.2627	65535	64702.25
812.5351	428.4399	65535	64697.45
812.6788	430.6166	65535	64694.85
812.8226	432.7928	65535	64692.55
812.9663	434.9683	65535	64691.9
813.1101	437.1432	65535	64687.55
813.2539	439.3176	65535	64692.45
813.3977	441.4914	65535	64693
813.5415	443.6645	65535	64692.7
813.6853	445.8371	65535	64691.85
813.8291	448.0091	65535	64695.95
813.973	450.1806	65535	64693.35
814.1168	452.3514	65535	64690.9
814.2607	454.5216	65535	64682.25
814.4046	456.6913	65535	64685.75
814.5485	458.8603	65535	64691
814.6924	461.0288	65535	64687.5
814.8363	463.1967	65535	64691.75
814.9802	465.3639	65535	64688.5
815.1241	467.5306	65535	64688.7
815.2681	469.6967	65535	64688.6
815.412	471.8622	65535	64688.1
815.556	474.0271	65535	64687.6
815.7	476.1914	65535	64684.65
815.844	478.3551	65535	64683.65
815.988	480.5182	65535	64687.8
816.132	482.6807	65535	64684.05
816.276	484.8426	65535	64686.2
816.4201	487.0039	65535	64687.85
816.5641	489.1647	65535	64683.3
816.7082	491.3248	65535	64684.7
816.8522	493.4843	65535	64683.4
816.9963	495.6432	65535	64683.45
817.1404	497.8015	65535	64678.3
817.2845	499.9592	65535	64679.75
817.4286	502.1163	65535	64681.85
817.5727	504.2728	65535	64677.4
817.7168	506.4287	65535	64680.25
817.861	508.5839	65535	64678.95
818.0051	510.7386	65535	64679.25
818.1493	512.8927	65535	64675.95
818.2935	515.0461	65535	64677.45
818.4377	517.199	65535	64678.35
818.5818	519.3512	65535	64676.75
818.726	521.5029	65535	64669.4
818.8703	523.6539	65535	64673.85
819.0145	525.8043	65535	64674.6
819.1587	527.9541	65535	64673.05
819.303	530.1033	65535	64673.35
819.4472	532.2519	65535	64673.8
819.5915	534.3999	65535	64672.75
819.7357	536.5472	65535	64674.05
819.88	538.694	65535	64671.55
820.0243	540.8401	65535	64670.55
820.1686	542.9856	65535	64665.15
820.3129	545.1305	65535	64669.1
820.4572	547.2748	65535	64670.95
820.6016	549.4185	65535	64664.75
820.7459	551.5615	65535	64669.6
820.8902	553.704	65535	64667.75
821.0346	555.8458	65535	64671.4
821.1789	557.987	65535	64669.2
821.3233	560.1276	65535	64666
821.4677	562.2675	65535	64670.05
821.6121	564.4069	65535	64668.6
821.7565	566.5456	65535	64670
821.9009	568.6837	65535	64664
822.0453	570.8212	65535	64668.45
822.1897	572.958	65535	64665.1
822.3342	575.0942	65535	64670.45
822.4786	577.2299	65535	64669.7
822.6231	579.3648	65535	64665.6
822.7675	581.4992	65535	64669.85
822.912	583.6329	65535	64668.75
823.0565	585.766	65535	64668.2
823.201	587.8985	65535	64667.25
823.3454	590.0304	65535	64641.45
823.4899	592.1616	65535	64662.5
823.6345	594.2922	65535	64664
823.779	596.4222	65535	64661.8
823.9235	598.5515	65535	64663.3
824.068	600.6802	65535	64662.3
824.2126	602.8083	65535	64662.6
824.3571	604.9358	65535	64662.2
824.5017	607.0626	65535	64663.55
824.6462	609.1888	65535	64658.45
824.7908	611.3144	65535	64657.3
824.9354	613.4393	65535	64662.35
825.08	615.5636	65535	64659.75
825.2246	617.6873	65535	64658.6
825.3692	619.8103	65535	64658.85
825.5138	621.9327	65535	64656.2
825.6584	624.0544	65535	64660.15
825.803	626.1756	65535	64662.05
825.9477	628.2961	65535	64656.5
826.0923	630.4159	65535	64657.05
826.237	632.5351	65535	64655.65
826.3816	634.6537	65535	64656.95
826.5263	636.7716	65535	64655.4
826.6709	638.8889	65535	64654.8
826.8156	641.0056	65535	64652.55
826.9603	643.1216	65535	64655.65
827.105	645.237	65535	64651
827.2497	647.3518	65535	64654.15
827.3944	649.4659	65535	64657.3
827.5391	651.5793	65535	64655.95
827.6838	653.6922	65535	64656.45
827.8285	655.8043	65535	64656.7
827.9733	657.9159	65535	64655.25
828.118	660.0268	65535	64649.6
828.2627	662.137	65535	64652.2
828.4075	664.2466	65535	64649.7
828.5522	666.3556	65535	64650.3
828.697	668.4639	65535	64649.55
828.8418	670.5716	65535	64652.25
828.9865	672.6786	65535	64650.55
829.1313	674.785	65535	64650.5
829.2761	676.8907	65535	64652.2
829.4209	678.9958	65535	64652.65
829.5657	681.1002	65535	64649.5
829.7105	683.204	65535	64646.5
829.8553	685.3072	65535	64649.75
830.0001	687.4097	65535	64647.15
830.1449	689.5115	65535	64648
830.2898	691.6127	65535	64649.3
830.4346	693.7132	65535	64648.05
830.5794	695.8131	65535	64625.2
830.7243	697.9123	65535	64646.5
830.8691	700.0109	65535	64648.5
831.014	702.1089	65535	64647
831.1588	704.2061	65535	64644.4
831.3037	706.3028	65535	64644.95
831.4486	708.3987	65535	64646.05
831.5935	710.4941	65535	64646.8
831.7383	712.5887	65535	64644.8
831.8832	714.6827	65535	64640.95
832.0281	716.7761	65535	64644.9
832.173	718.8688	65535	64644.95
832.3179	720.9608	65535	64639.55
832.4628	723.0522	65535	64637.8
832.6077	725.1429	65535	64645.9
832.7527	727.233	65535	64643.55
832.8976	729.3224	65535	64644.4
833.0425	731.4112	65535	64642.1
833.1874	733.4993	65535	64643.05
833.3324	735.5867	65535	64644.4
833.4773	737.6735	65535	64639.95
833.6222	739.7596	65535	64640.35
833.7672	741.845	65535	64641.4
833.9122	743.9298	65535	64638.15
834.0571	746.014	65535	64643.45
834.2021	748.0974	65535	64640.15
834.347	750.1802	65535	64640.75
834.492	752.2624	65535	64641.4
834.637	754.3439	65535	64640
834.782	756.4247	65535	64634.7
834.9269	758.5048	65535	64641.65
835.0719	760.5843	65535	64640.15
835.2169	762.6631	65535	64639.35
835.3619	764.7413	65535	64641.9
835.5069	766.8188	65535	64639.35
835.6519	768.8956	65535	64637.15
835.7969	770.9718	65535	64641.6
835.9419	773.0473	65535	64639.15
836.0869	775.1221	65535	64640.8
836.232	777.1962	65535	64641.45
836.377	779.2697	65535	64638.65
836.522	781.3426	65535	64621.9
836.667	783.4147	65535	64641.25
836.8121	785.4862	65535	64643.65
836.9571	787.557	65535	64640.05
837.1021	789.6271	65535	64638.05
837.2472	791.6966	65535	64639
837.3922	793.7654	65535	64639.2
837.5373	795.8335	65535	64639.8
837.6823	797.901	65535	64638.35
837.8274	799.9678	65535	64636.45
837.9724	802.0339	65535	64638.6
838.1175	804.0993	65535	64631
838.2626	806.1641	65535	64638.1
838.4076	808.2282	65535	64639.35
838.5527	810.2916	65535	64636.2
838.6978	812.3544	65535	64640.55
838.8428	814.4164	65535	64641.8
838.9879	816.4778	65535	64637.4
839.133	818.5385	65535	64638.95
839.2781	820.5986	65535	64638.1
839.4232	822.658	65535	64638.25
839.5682	824.7166	65535	64636.3
839.7133	826.7747	65535	64640.8
839.8584	828.832	65535	64636.9
840.0035	830.8886	65535	64635
840.1486	832.9446	65535	64639.35
840.2937	834.9999	65535	64639.15
840.4388	837.0545	65535	64633.95
840.5839	839.1085	65535	64635.6
840.729	841.1618	65535	64631.75
840.8741	843.2143	65535	64637.05
841.0192	845.2662	65535	64640.2
841.1643	847.3175	65535	64636.8
841.3095	849.368	65535	64638.1
841.4546	851.4179	65535	64635.95
841.5997	853.467	65535	64638.05
841.7448	855.5155	65535	64637.65
841.8899	857.5633	65535	64635.7
842.0351	859.6105	65535	64637
842.1802	861.6569	65535	64635.75
842.3253	863.7027	65535	64637.1
842.4704	865.7478	65535	64636.5
842.6156	867.7922	65535	64635.05
842.7607	869.8359	65535	64636.15
842.9058	871.8789	65535	64634.7
843.0509	873.9212	65535	64600.95
843.1961	875.9629	65535	64633.75
843.3412	878.0039	65535	64637.1
843.4863	880.0441	65535	64637.5
843.6315	882.0837	65535	64633.9
843.7766	884.1226	65535	64635.05
843.9218	886.1609	65535	64636.3
844.0669	888.1984	65535	64636.45
844.212	890.2352	65535	64635.75
844.3572	892.2714	65535	64631.65
844.5023	894.3069	65535	64635.15
844.6475	896.3416	65535	64634.2
844.7926	898.3757	65535	64634.15
844.9377	900.4091	65535	64634.75
845.0829	902.4418	65535	64631.05
845.228	904.4739	65535	64632.35
845.3732	906.5052	65535	64631.7
845.5183	908.5358	65535	64634.4
845.6635	910.5658	65535	64630.7
845.8086	912.595	65535	64634.75
845.9538	914.6236	65535	64634.45
846.0989	916.6515	65535	64635.4
846.2441	918.6786	65535	64631
846.3892	920.7051	65535	64632.45
846.5344	922.7309	65535	64631.05
846.6795	924.756	65535	64631.25
846.8246	926.7804	65535	64632
846.9698	928.8041	65535	64629.75
847.1149	930.8272	65535	64632.95
847.2601	932.8495	65535	64633.5
847.4052	934.8711	65535	64634.1
847.5504	936.892	65535	64634
847.6955	938.9123	65535	64630.95
847.8407	940.9318	65535	64633.95
847.9858	942.9506	65535	64630.85
848.131	944.9688	65535	64630.9
848.2761	946.9862	65535	64633.8
848.4213	949.003	65535	64638.45
848.5664	951.019	65535	64631.8
848.7115	953.0344	65535	64633.05
848.8567	955.0491	65535	64629.3
849.0018	957.063	65535	64631.75
849.147	959.0763	65535	64633.25
849.2921	961.0888	65535	64632.8
849.4373	963.1007	65535	64631.9
849.5824	965.1119	65535	64631.35
849.7275	967.1223	65535	64633.95
849.8727	969.1321	65535	64635.95
850.0178	971.1412	65535	64634.05
850.1629	973.1495	65535	64633.95
850.3081	975.1572	65535	64601.15
850.4532	977.1641	65535	64634.45
850.5983	979.1704	65535	64630.25
850.7435	981.1759	65535	64628.9
850.8886	983.1808	65535	64631.2
851.0337	985.1849	65535	64622.2
851.1788	987.1884	65535	64631.05
851.324	989.1911	65535	64632.35
851.4691	991.1932	65535	64630.85
851.6142	993.1945	65535	64632.6
851.7593	995.1951	65535	64631.5
851.9045	997.1951	65535	64627.05
852.0496	999.1943	65535	64632.35
852.1947	1001.1928	65535	64632.45
852.3398	1003.1906	65535	64630.9
852.4849	1005.1877	65535	64631.55
852.63	1007.1841	65535	64629.4
852.7751	1009.1798	65535	64634.1
852.9202	1011.1748	65535	64632.05
853.0653	1013.1691	65535	64630.9
853.2104	1015.1627	65535	64632.75
853.3555	1017.1556	65535	64630.85
853.5006	1019.1477	65535	64631
853.6457	1021.1392	65535	64636.45
853.7908	1023.1299	65535	64632.05
853.9359	1025.12	65535	64635.1
854.081	1027.1093	65535	64637.25
854.2261	1029.0979	65535	64635.95
854.3712	1031.0859	65535	64635.2
854.5163	1033.0731	65535	64633.4
854.6613	1035.0596	65535	64635.3
854.8064	1037.0454	65535	64630.55
854.9515	1039.0304	65535	64632.55
855.0965	1041.0148	65535	64633.3
855.2416	1042.9985	65535	64632
855.3867	1044.9814	65535	64633.6
855.5317	1046.9636	65535	64630.45
855.6768	1048.9452	65535	64633.05
855.8219	1050.926	65535	64634.3
855.9669	1052.9061	65535	64632.75
856.112	1054.8855	65535	64631.25
856.257	1056.8642	65535	64632.45
856.4021	1058.8421	65535	64629.25
856.5471	1060.8194	65535	64630
856.6921	1062.7959	65535	64633.75
856.8372	1064.7717	65535	64631.15
856.9822	1066.7469	65535	64632.15
857.1272	1068.7213	65535	64633.35
857.2723	1070.695	65535	64634.05
857.4173	1072.6679	65535	64631.7
857.5623	1074.6402	65535	64633.45
857.7073	1076.6117	65535	64628.1
857.8523	1078.5826	65535	64631.7
857.9973	1080.5527	65535	64630.15
858.1423	1082.5221	65535	64632.5
858.2873	1084.4908	65535	64634.25
858.4323	1086.4587	65535	64631
858.5773	1088.426	65535	64632.6
858.7223	1090.3925	65535	64627.25
858.8673	1092.3584	65535	64632.3
859.0123	1094.3235	65535	64634.4
859.1573	1096.2879	65535	64632.75
859.3022	1098.2515	65535	64632.15
859.4472	1100.2145	65535	64632.85
859.5922	1102.1767	65535	64629.1
859.7371	1104.1382	65535	64634.95
859.8821	1106.099	65535	64632
860.027	1108.0591	65535	64633.3
860.172	1110.0185	65535	64631.85
860.3169	1111.9771	65535	64634.1
860.4619	1113.9351	65535	64633.15
860.6068	1115.8923	65535	64630.6
860.7517	1117.8488	65535	64629.7
860.8967	1119.8045	65535	64629.75
861.0416	1121.7596	65535	64630.5
861.1865	1123.7139	65535	64634.4
861.3314	1125.6675	65535	64633
861.4763	1127.6204	65535	64633
861.6212	1129.5726	65535	64630.55
861.7661	1131.524	65535	64631.4
861.911	1133.4748	65535	64635.3
862.0559	1135.4248	65535	64631.65
862.2008	1137.3741	65535	64631.95
862.3457	1139.3226	65535	64631.45
862.4905	1141.2705	65535	64632.2
862.6354	1143.2176	65535	64628.95
862.7803	1145.164	65535	64631
862.9251	1147.1097	65535	64634.9
863.07	1149.0546	65535	64630.6
863.2148	1150.9989	65535	64632.15
863.3597	1152.9424	65535	64630.25
863.5045	1154.8852	65535	64631.15
863.6493	1156.8272	65535	64633
863.7942	1158.7686	65535	64624.35
863.939	1160.7092	65535	64632
864.0838	1162.6491	65535	64630.2
864.2286	1164.5883	65535	64634.65
864.3734	1166.5267	65535	64633.1
864.5182	1168.4644	65535	64630.15
864.663	1170.4014	65535	64631.3
864.8078	1172.3377	65535	64634.3
864.9526	1174.2732	65535	64636.35
865.0974	1176.2081	65535	64632.65
865.2421	1178.1421	65535	64628.5
865.3869	1180.0755	65535	64633.35
865.5317	1182.0082	65535	64633.4
865.6764	1183.9401	65535	64631.3
865.8212	1185.8713	65535	64634.8
865.9659	1187.8017	65535	64633.75
866.1106	1189.7315	65535	64636.35
866.2554	1191.6605	65535	64606.3
866.4001	1193.5888	65535	64633.8
866.5448	1195.5163	65535	64634.35
866.6895	1197.4432	65535	64632.15
866.8342	1199.3693	65535	64632.1
866.9789	1201.2947	65535	64630.2
867.1236	1203.2193	65535	64633.55
867.2683	1205.1432	65535	64632.95
867.413	1207.0664	65535	64633.7
867.5576	1208.9889	65535	64632.15
867.7023	1210.9106	65535	64635
867.847	1212.8316	65535	64633.6
867.9916	1214.7519	65535	64624.85
868.1363	1216.6715	65535	64633.65
868.2809	1218.5903	65535	64633.9
868.4255	1220.5084	65535	64633.3
868.5701	1222.4257	65535	64631.95
868.7148	1224.3424	65535	64633.45
868.8594	1226.2583	65535	64628.6
869.004	1228.1735	65535	64634.1
869.1486	1230.0879	65535	64631.9
869.2932	1232.0016	65535	64632.85
869.4377	1233.9146	65535	64630.55
869.5823	1235.8269	65535	64631.6
869.7269	1237.7384	65535	64635
869.8715	1239.6492	65535	64633.55
870.016	1241.5592	65535	64631.85
870.1606	1243.4686	65535	64633.75
870.3051	1245.3772	65535	64636.85
870.4496	1247.285	65535	64632.15
870.5941	1249.1922	65535	64634.45
870.7387	1251.0986	65535	64632.95
870.8832	1253.0042	65535	64633.2
871.0277	1254.9092	65535	64632.6
871.1722	1256.8134	65535	64633.65
871.3167	1258.7169	65535	64633.35
871.4611	1260.6196	65535	64634.65
871.6056	1262.5216	65535	64632.55
871.7501	1264.4229	65535	64636.3
871.8945	1266.3234	65535	64634.35
872.039	1268.2232	65535	64633.55
872.1834	1270.1223	65535	64631.9
872.3278	1272.0207	65535	64633.2
872.4723	1273.9183	65535	64628.15
872.6167	1275.8151	65535	64634.8
872.7611	1277.7113	65535	64633.9
872.9055	1279.6067	65535	64635.2
873.0499	1281.5014	65535	64632.75
873.1943	1283.3953	65535	64633
873.3386	1285.2885	65535	64634
873.483	1287.181	65535	64633.65
873.6274	1289.0727	65535	64636.35
873.7717	1290.9637	65535	64632.9
873.9161	1292.854	65535	64634.05
874.0604	1294.7435	65535	64634.9
874.2047	1296.6323	65535	64633.75
874.349	1298.5204	65535	64629.65
874.4933	1300.4077	65535	64634.15
874.6376	1302.2943	65535	64633.7
874.7819	1304.1802	65535	64635.05
874.9262	1306.0653	65535	64631.4
875.0705	1307.9497	65535	64634.45
875.2147	1309.8333	65535	64634.05
875.359	1311.7162	65535	64632.65
875.5032	1313.5984	65535	64630.35
875.6475	1315.4798	65535	64621.85
875.7917	1317.3605	65535	64618.35
875.9359	1319.2405	65535	64631.65
876.0801	1321.1197	65535	64633.85
876.2243	1322.9982	65535	64630.2
876.3685	1324.876	65535	64634
876.5127	1326.753	65535	64635
876.6569	1328.6293	65535	64633.15
876.801	1330.5048	65535	64632.25
876.9452	1332.3796	65535	64635.1
877.0893	1334.2537	65535	64609
877.2335	1336.127	65535	64634.45
877.3776	1337.9996	65535	64634.85
877.5217	1339.8714	65535	64634.1
877.6658	1341.7426	65535	64591.1
877.8099	1343.6129	65535	64635.6
877.954	1345.4826	65535	64633.9
878.0981	1347.3515	65535	64632.2
878.2422	1349.2196	65535	64631.85
878.3862	1351.087	65535	64635.8
878.5303	1352.9537	65535	64634.35
878.6743	1354.8197	65535	64632.75
878.8184	1356.6849	65535	64633.45
878.9624	1358.5493	65535	64632.85
879.1064	1360.4131	65535	64634.85
879.2504	1362.276	65535	64633.15
879.3944	1364.1383	65535	64633.95
879.5384	1365.9998	65535	64627.8
879.6823	1367.8606	65535	64633
879.8263	1369.7206	65535	64632.25
879.9702	1371.5799	65535	64633.45
880.1142	1373.4384	65535	64634.55
880.2581	1375.2962	65535	64631.2
880.402	1377.1533	65535	64633.15
880.5459	1379.0096	65535	64632.65
880.6898	1380.8652	65535	64632.2
880.8337	1382.7201	65535	64633
880.9776	1384.5742	65535	64636.4
881.1215	1386.4275	65535	64634.65
881.2653	1388.2802	65535	64637.4
881.4092	1390.132	65535	64632.05
881.553	1391.9832	65535	64635.75
881.6968	1393.8336	65535	64632.4
881.8406	1395.6832	65535	64630.55
881.9844	1397.5322	65535	64635.05
882.1282	1399.3803	65535	64631.6
882.272	1401.2278	65535	64633.4
882.4158	1403.0745	65535	64632.95
882.5595	1404.9204	65535	64634.7
882.7033	1406.7656	65535	64634.25
882.847	1408.6101	65535	64634.05
882.9908	1410.4538	65535	64633.35
883.1345	1412.2968	65535	64636.35
883.2782	1414.139	65535	64632.6
883.4219	1415.9805	65535	64638.3
883.5656	1417.8213	65535	64628.75
883.7092	1419.6613	65535	64634.75
883.8529	1421.5006	65535	64634.05
883.9965	1423.3391	65535	64635.4
884.1402	1425.1769	65535	64636.65
884.2838	1427.0139	65535	64631.65
884.4274	1428.8502	65535	64633.8
884.571	1430.6858	65535	64635.85
884.7146	1432.5206	65535	64634.9
884.8582	1434.3547	65535	64632.1
885.0018	1436.188	65535	64635.75
885.1453	1438.0206	65535	64632.95
885.2889	1439.8524	65535	64633.05
885.4324	1441.6835	65535	64632.35
885.5759	1443.5139	65535	64631.55
885.7194	1445.3435	65535	64632.9
885.8629	1447.1724	65535	64635.05
886.0064	1449.0005	65535	64634.6
886.1499	1450.8279	65535	64634.35
886.2933	1452.6545	65535	64636.95
886.4368	1454.4804	65535	64638.25
886.5802	1456.3056	65535	64628.2
886.7237	1458.13	65535	64637.55
886.8671	1459.9536	65535	64632.1
887.0105	1461.7766	65535	64635.7
887.1539	1463.5987	65535	64632.4
887.2972	1465.4202	65535	64635.95
887.4406	1467.2409	65535	64634.9
887.584	1469.0608	65535	64635.45
887.7273	1470.88	65535	64634.15
887.8706	1472.6984	65535	64637.15
888.0139	1474.5161	65535	64631.05
888.1572	1476.3331	65535	64636.35
888.3005	1478.1493	65535	64632.75
888.4438	1479.9648	65535	64636.4
888.5871	1481.7795	65535	64637.05
888.7303	1483.5935	65535	64634.75
888.8736	1485.4067	65535	64636.45
889.0168	1487.2192	65535	64633.2
889.16	1489.031	65535	64633.45
889.3032	1490.842	65535	64635.8
889.4464	1492.6522	65535	64634.05
889.5896	1494.4618	65535	64634.7
889.7327	1496.2705	65535	64637.45
889.8759	1498.0785	65535	64636.65
890.019	1499.8858	65535	64637.45
890.1622	1501.6924	65535	64635.85
890.3053	1503.4981	65535	64636.9
890.4484	1505.3032	65535	64635.8
890.5914	1507.1075	65535	64632.15
890.7345	1508.911	65535	64636.5
890.8776	1510.7138	65535	64638.5
891.0206	1512.5159	65535	64637.1
891.1637	1514.3172	65535	64637.7
891.3067	1516.1178	65535	64638.9
891.4497	1517.9176	65535	64633.25
891.5927	1519.7166	65535	64636.45
891.7357	1521.515	65535	64631.05
891.8786	1523.3126	65535	64634.4
892.0216	1525.1094	65535	64633.6
892.1645	1526.9055	65535	64635.95
892.3074	1528.7008	65535	64638.25
892.4503	1530.4954	65535	64635.2
892.5932	1532.2893	65535	64636.9
892.7361	1534.0824	65535	64631.5
892.879	1535.8747	65535	64636.75
893.0218	1537.6663	65535	64637
893.1647	1539.4572	65535	64634
893.3075	1541.2473	65535	64635.35
893.4503	1543.0367	65535	64637.05
893.5931	1544.8253	65535	64632.3
893.7359	1546.6132	65535	64636.15
893.8787	1548.4003	65535	64626.95
894.0214	1550.1867	65535	64629.4
894.1642	1551.9723	65535	64633.85
894.3069	1553.7572	65535	64635.9
894.4496	1555.5414	65535	64636.95
894.5923	1557.3247	65535	64636.2
894.735	1559.1074	65535	64640.35
894.8777	1560.8893	65535	64637.8
895.0204	1562.6705	65535	64638.25
895.163	1564.4509	65535	64638.2
895.3056	1566.2305	65535	64639.75
895.4482	1568.0094	65535	64638.45
895.5908	1569.7876	65535	64640.45
895.7334	1571.565	65535	64639.7
895.876	1573.3417	65535	64639.6
896.0186	1575.1176	65535	64637.95
896.1611	1576.8928	65535	64636.15
896.3036	1578.6672	65535	64641.4
896.4461	1580.4409	65535	64642.5
896.5886	1582.2138	65535	64638.1
896.7311	1583.986	65535	64638.3
896.8736	1585.7575	65535	64642.25
897.0161	1587.5282	65535	64642.3
897.1585	1589.2981	65535	64641.05
897.3009	1591.0673	65535	64639.45
897.4433	1592.8358	65535	64639
897.5857	1594.6035	65535	64637.55
897.7281	1596.3704	65535	64639.25
897.8705	1598.1366	65535	64638.45
898.0128	1599.9021	65535	64639.3
898.1551	1601.6668	65535	64637.35
898.2975	1603.4308	65535	64636.65
898.4398	1605.194	65535	64636.45
898.5821	1606.9564	65535	64641.3
898.7243	1608.7182	65535	64639.6
898.8666	1610.4791	65535	64642.85
899.0088	1612.2394	65535	64641.9
899.1511	1613.9988	65535	64643.55
899.2933	1615.7576	65535	64643.45
899.4355	1617.5156	65535	64634.5
899.5776	1619.2728	65535	64641.1
899.7198	1621.0293	65535	64642.2
899.862	1622.785	65535	64636.8
900.0041	1624.54	65535	64637.5
900.1462	1626.2942	65535	64641.05
900.2883	1628.0477	65535	64636.25
900.4304	1629.8005	65535	64637.2
900.5725	1631.5525	65535	64641.2
900.7145	1633.3037	65535	64642.45
900.8566	1635.0542	65535	64642.7
900.9986	1636.804	65535	64640.2
901.1406	1638.553	65535	64555.35
901.2826	1640.3013	65535	64640.45
901.4245	1642.0488	65535	64638.35
901.5665	1643.7955	65535	64644.25
901.7085	1645.5416	65535	64639
901.8504	1647.2868	65528.75	64633.9
901.9923	1649.0313	65535	64642.4
902.1342	1650.7751	65535	64638.5
902.2761	1652.5181	65532.75	64641.45
902.4179	1654.2604	65533.05	64638.4
902.5598	1656.0019	65531.1	64638.45
902.7016	1657.7427	65530.25	64639.95
902.8434	1659.4828	65535	64640.3
902.9852	1661.222	65521.8	64627.7
903.127	1662.9606	65535	64642.4
903.2687	1664.6984	65522.15	64628.9
903.4105	1666.4354	65530.2	64634.25
903.5522	1668.1717	65511.8	64618.35
903.6939	1669.9072	65432.6	64539.8
903.8356	1671.642	65453.4	64557.2
903.9773	1673.3761	65456.45	64562.55
904.119	1675.1094	65436.75	64544.15
904.2606	1676.8419	65369.05	64477.15
904.4022	1678.5737	65403.55	64509.2
904.5439	1680.3048	65369.7	64475.7
904.6855	1682.0351	65350.05	64455.65
904.827	1683.7646	65336.8	64440.5
904.9686	1685.4934	65363.3	64469.8
905.1101	1687.2215	65194.75	64300.9
905.2517	1688.9488	65330.35	64436.05
905.3932	1690.6754	65065.55	64174.05
905.5347	1692.4012	65230.3	64337.7
905.6761	1694.1263	65251.7	64357.45
905.8176	1695.8506	65096.7	64201.35
905.9591	1697.5742	65139.2	64245.1
906.1005	1699.297	65109.6	64215.9
906.2419	1701.0191	65134.25	64243.1
906.3833	1702.7404	64914.1	64021.1
906.5246	1704.461	64826.35	63931.9
906.666	1706.1808	65032.9	64137.85
906.8073	1707.8999	64915.7	64022.3
906.9487	1709.6182	64871.6	63979.4
907.09	1711.3358	64819.9	63928
907.2313	1713.0527	64802.25	63911.2
907.3725	1714.7688	64829.95	63932.15
907.5138	1716.4841	64468.4	63575.1
907.655	1718.1987	64638.65	63740.85
907.7962	1719.9126	64538.65	63646.85
907.9374	1721.6257	64671	63775.9
908.0786	1723.338	64669.4	63779.25
908.2198	1725.0496	64161.15	63270.7
908.3609	1726.7605	64242.25	63350.15
908.502	1728.4706	64059.85	63168.35
908.6431	1730.18	64323.6	63429.1
908.7842	1731.8886	64023	63130.5
908.9253	1733.5964	63858.75	62962.4
909.0664	1735.3036	64188.5	63291.95
909.2074	1737.0099	63940.6	63047.8
909.3484	1738.7156	63711.2	62823.25
909.4894	1740.4204	63675.25	62782.3
909.6304	1742.1246	63777.45	62884.25
909.7714	1743.8279	63830.1	62938
909.9123	1745.5306	63763.9	62872.05
910.0532	1747.2325	63064.95	62173
910.1941	1748.9336	63111.35	62218.8
910.335	1750.634	63294.7	62400.95
910.4759	1752.3336	63477.35	62586.65
910.6168	1754.0325	62952.4	62063
910.7576	1755.7307	63470.45	62580.85
910.8984	1757.4281	62789.75	61898.4
911.0392	1759.1247	63282.6	62381.1
911.18	1760.8206	62577.3	61680.4
911.3208	1762.5158	62672.45	61778.1
911.4615	1764.2102	62850	61959.85
911.6022	1765.9039	62663.1	61773.1
911.7429	1767.5968	62524.95	61633.85
911.8836	1769.289	62451.55	61560.2
912.0243	1770.9804	62582.4	61689.85
912.1649	1772.6711	62419.25	61526.7
912.3056	1774.361	62271.8	61378.25
912.4462	1776.0502	62303.55	61411.8
912.5868	1777.7386	61809.45	60913.5
912.7274	1779.4263	62070.8	61178.5
912.8679	1781.1132	62068.75	61177.2
913.0084	1782.7994	61937.1	61046.45
913.149	1784.4849	61976.55	61085.7
913.2895	1786.1696	61339.9	60442.85
913.4299	1787.8535	61668.8	60779.35
913.5704	1789.5367	61736.25	60845.3
913.7108	1791.2192	61342.5	60452.2
913.8513	1792.9009	61121.2	60199.7
913.9917	1794.5818	61382.55	60490.75
914.132	1796.2621	61073.7	60183.9
914.2724	1797.9415	61130.5	60241.35
914.4128	1799.6202	61044.85	60153.5
914.5531	1801.2982	61095.85	60203.5
914.6934	1802.9755	60745.5	59852.7
914.8337	1804.6519	60600.7	59709.7
914.9739	1806.3277	61106.5	60215.3
915.1142	1808.0027	60248.9	59359.9
915.2544	1809.6769	60537.15	59648.5
915.3946	1811.3504	60596.5	59705.5
915.5348	1813.0231	59942.3	59050.35
915.675	1814.6951	60377.9	59485.45
915.8151	1816.3664	60122.05	59228.1
915.9553	1818.0369	60102.55	59210.25
916.0954	1819.7067	59923.9	59034.3
916.2355	1821.3757	60240.2	59348.05
916.3755	1823.044	59675.85	58786.3
916.5156	1824.7115	59474.05	58583.3
916.6556	1826.3783	59641.85	58751.7
916.7956	1828.0443	59607.2	58716.1
916.9356	1829.7096	59440.5	58548.7
917.0756	1831.3741	59112.35	58216
917.2155	1833.0379	59298.7	58406.75
917.3555	1834.701	59277.1	58383.2
917.4954	1836.3633	58974.15	58083.45
917.6353	1838.0248	59058.7	58166.15
917.7751	1839.6856	58951.15	58060.35
917.915	1841.3457	58706.25	57816.3
918.0548	1843.005	59014.8	58125.25
918.1946	1844.6636	58728.1	57839.7
918.3344	1846.3214	58384.8	57495.25
918.4742	1847.9785	58508.65	57620.6
918.6139	1849.6349	58461.5	57570.4
918.7537	1851.2904	58608.15	57707.1
918.8934	1852.9453	58176.15	57283.1
919.0331	1854.5994	58311.75	57419.4
919.1727	1856.2528	58376.95	57481.1
919.3124	1857.9054	58046.3	57153.2
919.452	1859.5572	57865.4	56975.05
919.5916	1861.2083	58019.7	57127.95
919.7312	1862.8587	58281.75	57391.35
919.8708	1864.5084	57395.2	56503.25
920.0103	1866.1572	57748.85	56859.75
920.1498	1867.8054	57297.55	56405.4
920.2893	1869.4528	57521.3	56631.05
920.4288	1871.0994	57127	56235.1
920.5683	1872.7453	57062.2	56170.4
920.7077	1874.3905	57229.1	56330.25
920.8471	1876.0349	56832.7	55938.9
920.9865	1877.6786	57117.6	56225.25
921.1259	1879.3215	56666.45	55776.85
921.2653	1880.9637	57117.4	56227.2
921.4046	1882.6051	56625	55735.45
921.5439	1884.2458	56419.85	55527.25
921.6832	1885.8858	56079	55186.4
921.8225	1887.525	56353.45	55460.45
921.9617	1889.1634	56190.7	55301
922.101	1890.8011	55937.25	55045.15
922.2402	1892.4381	55361.9	54471.55
922.3794	1894.0743	55957	55065.85
922.5185	1895.7098	55608.75	54719.25
922.6577	1897.3446	55245.2	54351.55
922.7968	1898.9786	55310.35	54415.2
922.9359	1900.6118	55023.55	54132.35
923.075	1902.2443	54773.75	53880.35
923.214	1903.8761	55075.6	54185.8
923.3531	1905.5071	54664.5	53775
923.4921	1907.1374	53975.55	53085.35
923.6311	1908.7669	54265.45	53374.95
923.77	1910.3957	54459.15	53568.7
923.909	1912.0237	53901.25	53011.85
924.0479	1913.651	53633.1	52741.6
924.1868	1915.2776	53503.1	52614.15
924.3257	1916.9034	53433.65	52543.4
924.4646	1918.5285	53206.85	52317.25
924.6034	1920.1528	53160.55	52268.55
924.7422	1921.7764	52971.75	52080.5
924.881	1923.3992	52935.75	52048.15
925.0198	1925.0213	52583.9	51693.95
925.1586	1926.6427	52128.55	51241.2
925.2973	1928.2633	52307.6	51339.75
925.436	1929.8832	52142.2	51249.9
925.5747	1931.5023	51892	51002.35
925.7134	1933.1207	51548.65	50658.05
925.852	1934.7383	51724.3	50834.4
925.9906	1936.3552	51364.55	50474.85
926.1292	1937.9714	51278.3	50387.8
926.2678	1939.5868	51250.25	50355.65
926.4064	1941.2015	50873.4	49981.4
926.5449	1942.8154	50568.6	49678.3
926.6834	1944.4286	50596.85	49706.05
926.8219	1946.041	50468.4	49558
926.9604	1947.6528	50209.85	49316.15
927.0988	1949.2637	50001.2	49111.6
927.2372	1950.8739	49801.45	48911.95
927.3756	1952.4834	49870.9	48980.95
927.514	1954.0921	49717.75	48829
927.6523	1955.7001	49405.25	48509.9
927.7907	1957.3074	49490.95	48601.55
927.929	1958.9139	49099.9	48210.05
928.0673	1960.5197	49125.3	48235.1
928.2055	1962.1247	48844.8	47955.55
928.3438	1963.729	48658.4	47768.5
928.482	1965.3325	48496.7	47584.2
928.6202	1966.9353	48460.8	47571.3
928.7584	1968.5374	48139.05	47247.65
928.8965	1970.1387	48013.95	47123.75
929.0346	1971.7393	47974.9	47084.15
929.1727	1973.3392	47767.45	46878.1
929.3108	1974.9383	47531.95	46644.3
929.4489	1976.5366	47362.6	46473.35
929.5869	1978.1342	47341.7	46450.9
929.7249	1979.7311	47284.65	46394.9
929.8629	1981.3273	47124.6	46233.65
930.0009	1982.9227	46970.7	46077.6
930.1388	1984.5173	46879.55	45989.95
930.2767	1986.1112	46610.1	45720.75
930.4146	1987.7044	46585.15	45698.6
930.5525	1989.2968	46217.95	45328.05
930.6904	1990.8885	46286.4	45395.5
930.8282	1992.4795	46082.3	45193
930.966	1994.0697	45944	45054.65
931.1038	1995.6592	45868.35	44979.85
931.2415	1997.2479	45660.95	44773.55
931.3793	1998.8359	45583.15	44694.6
931.517	2000.4232	45332.95	44444.7
931.6547	2002.0097	45317.55	44429.85
931.7923	2003.5955	45117.6	44229.45
931.93	2005.1805	45066.8	44176.4
932.0676	2006.7648	44916.85	44028.8
932.2052	2008.3484	44770.55	43880
932.3427	2009.9312	44842.2	43950.55
932.4803	2011.5133	44600.05	43712.4
932.6178	2013.0946	44483.45	43595.2
932.7553	2014.6752	44344.05	43457.5
932.8928	2016.2551	44250.5	43360.65
933.0302	2017.8342	44118.1	43230.55
933.1676	2019.4126	43917	43028.45
933.305	2020.9902	43796.05	42909.2
933.4424	2022.5672	43687.6	42797.3
933.5798	2024.1433	43586.15	42693.35
933.7171	2025.7188	43452.3	42566.1
933.8544	2027.2935	43280.35	42390.5
933.9917	2028.8674	43133.5	42246.6
934.129	2030.4406	43083.95	42197.6
934.2662	2032.0131	42926	42039.05
934.4034	2033.5849	42726.55	41831.55
934.5406	2035.1559	42715.1	41826.7
934.6778	2036.7261	42654.35	41766.25
934.8149	2038.2957	42506	41617.95
934.952	2039.8645	42431.05	41543.35
935.0891	2041.4325	42428.2	41537.55
935.2262	2042.9998	42213.85	41325.5
935.3632	2044.5664	42046.25	41154.5
935.5002	2046.1323	41968.2	41077.45
935.6372	2047.6974	41837	40947.2
935.7742	2049.2617	41726.45	40839.2
935.9111	2050.8254	41775.05	40884.25
936.048	2052.3883	41603.95	40714.5
936.1849	2053.9504	41518.05	40629.85
936.3218	2055.5118	41354.7	40463.5
936.4586	2057.0725	41180.8	40288.9
936.5955	2058.6325	41137.6	40250.2
936.7323	2060.1917	40985.6	40097.2
936.869	2061.7502	40872.2	39982.7
937.0058	2063.3079	40745.9	39858.15
937.1425	2064.8649	40652.05	39760.25
937.2792	2066.4212	40556	39665.6
937.4159	2067.9767	40417	39529.5
937.5525	2069.5315	40308.65	39419.15
937.6891	2071.0856	40078.65	39190.3
937.8257	2072.6389	40016.45	39127.2
937.9623	2074.1915	39798.6	38910.75
938.0989	2075.7433	39622.2	38731.1
938.2354	2077.2945	39572.35	38683.85
938.3719	2078.8448	39462.3	38573.6
938.5084	2080.3945	39327.4	38439.75
938.6448	2081.9434	39245.55	38358.1
938.7812	2083.4916	39117.3	38229.45
938.9176	2085.039	38968.6	38077.8
939.054	2086.5857	38935.6	38045.1
939.1903	2088.1317	38818.2	37928.5
939.3267	2089.677	38731.95	37844.95
939.463	2091.2215	38582.55	37694.4
939.5992	2092.7652	38558.25	37669.2
939.7355	2094.3083	38448.3	37556.95
939.8717	2095.8506	38362.9	37472.35
940.0079	2097.3921	38319.9	37433.35
940.1441	2098.933	38169.15	37282.3
940.2802	2100.4731	38144.85	37256.8
940.4163	2102.0124	38068.95	37173.35
940.5524	2103.5511	37949.05	37060.5
940.6885	2105.089	37810.45	36922.1
940.8245	2106.6261	37712.05	36823.65
940.9606	2108.1626	37682.7	36792.7
941.0965	2109.6983	37557.2	36640
941.2325	2111.2332	37432.7	36542.75
941.3684	2112.7675	37264.2	36375.9
941.5044	2114.301	37190	36298.65
941.6403	2115.8337	37168.6	36280.75
941.7761	2117.3657	37086.6	36198.75
941.912	2118.897	36916.65	36027.2
942.0478	2120.4276	36856.6	35963.15
942.1835	2121.9575	36656.55	35769.25
942.3193	2123.4866	36641.7	35737.15
942.455	2125.0149	36536.4	35644.6
942.5907	2126.5426	36260.45	35371.7
942.7264	2128.0695	36243.15	35352
942.8621	2129.5956	36158	35270.8
942.9977	2131.1211	36093.55	35199.05
943.1333	2132.6458	35927.1	35040.25
943.2689	2134.1698	35874.1	34984.15
943.4044	2135.693	35800.6	34908.5
943.54	2137.2155	35719	34827.85
943.6755	2138.7373	35542.7	34653.85
943.8109	2140.2584	35474.15	34586.3
943.9464	2141.7787	35330.8	34436.75
944.0818	2143.2983	35134.65	34247.2
944.2172	2144.8171	34974.55	34087.5
944.3526	2146.3353	34903.85	34013.5
944.4879	2147.8527	34808.15	33922.55
944.6232	2149.3693	34748.95	33858.65
944.7585	2150.8853	34607.9	33719.35
944.8938	2152.4005	34448.4	33557.9
945.029	2153.9149	34413.95	33523.75
945.1642	2155.4287	34363.4	33475.75
945.2994	2156.9417	34223.25	33332.7
945.4346	2158.454	34154.35	33260.95
945.5697	2159.9655	34044.45	33157.8
945.7048	2161.4764	33921.3	33033.2
945.8399	2162.9865	33874.25	32984.85
945.9749	2164.4958	33701.8	32812.1
946.1099	2166.0045	33621.4	32729.1
946.2449	2167.5124	33611.25	32723.25
946.3799	2169.0195	33453.15	32565.15
946.5148	2170.526	33475.2	32585.6
946.6498	2172.0317	33328	32439.25
946.7846	2173.5367	33201.8	32312.5
946.9195	2175.0409	33183.75	32296.35
947.0543	2176.5445	33135	32247.1
947.1891	2178.0473	32969.4	32080.8
947.3239	2179.5494	32806.85	31914.7
947.4587	2181.0507	32688.65	31800.2
947.5934	2182.5513	32580.05	31691.75
947.7281	2184.0512	32502	31613.75
947.8628	2185.5504	32357.7	31468.75
947.9974	2187.0488	32203.15	31315.45
948.132	2188.5465	32123.35	31235.9
948.2666	2190.0435	31984.8	31095.8
948.4012	2191.5397	31861.25	30972.4
948.5357	2193.0353	31769.2	30882.6
948.6702	2194.5301	31575.25	30684.95
948.8047	2196.0241	31534.05	30643.45
948.9392	2197.5175	31430.6	30540.65
949.0736	2199.0101	31287.6	30394.35
949.208	2200.502	31128.45	30240.1
949.3424	2201.9931	31049.2	30161.7
949.4767	2203.4835	30908.5	30018.05
949.611	2204.9733	30872.15	29977.4
949.7453	2206.4622	30793.6	29904.2
949.8796	2207.9505	30644.75	29754.2
950.0138	2209.438	30471.65	29583.85
950.148	2210.9248	30448.6	29559.1
950.2822	2212.4109	30281.3	29395.1
950.4164	2213.8962	30210.1	29320.85
950.5505	2215.3809	30165.3	29275.2
950.6846	2216.8648	30018	29129.7
950.8186	2218.3479	29950.4	29056.7
950.9527	2219.8304	29863.4	28974.05
951.0867	2221.3121	29719.35	28827.65
951.2207	2222.7931	29586.15	28696.05
951.3546	2224.2733	29538.8	28648.85
951.4886	2225.7529	29430.35	28541.25
951.6225	2227.2317	29335.25	28442.2
951.7563	2228.7098	29256.25	28366.75
951.8902	2230.1872	29113.4	28224.05
952.024	2231.6638	29053.95	28165.95
952.1578	2233.1397	28900	28004.8
952.2916	2234.6149	28860.5	27970.55
952.4253	2236.0894	28778.15	27889.5
952.559	2237.5632	28671.55	27782.4
952.6927	2239.0362	28535.85	27646
952.8263	2240.5085	28472.85	27584.35
952.9599	2241.9801	28313.65	27424.35
953.0935	2243.4509	28258.9	27371.1
953.2271	2244.921	28173.8	27284
953.3606	2246.3904	28067.6	27177.75
953.4941	2247.8591	27971.35	27082.6
953.6276	2249.3271	27897.75	27009.25
953.7611	2250.7943	27764.8	26875.35
953.8945	2252.2608	27683	26793.9
954.0279	2253.7266	27625.9	26736.45
954.1612	2255.1917	27573.7	26685.3
954.2946	2256.656	27389.45	26499.05
954.4279	2258.1197	27355.95	26468
954.5612	2259.5826	27270.7	26379.15
954.6944	2261.0447	27232.85	26342.55
954.8276	2262.5062	27066.95	26175.05
954.9608	2263.9669	27041.95	26149.75
955.094	2265.4269	27014.55	26125.6
955.2271	2266.8862	26880.2	25994.4
955.3602	2268.3448	26849.6	25961.4
955.4933	2269.8026	26758.5	25869.8
955.6264	2271.2598	26646.95	25757.9
955.7594	2272.7162	26558.35	25670.35
955.8924	2274.1719	26489.5	25601.55
956.0253	2275.6268	26433.05	25542.85
956.1583	2277.0811	26356	25465.5
956.2912	2278.5346	26290.75	25401.7
956.4241	2279.9874	26214.9	25326.3
956.5569	2281.4395	26133.1	25243.9
956.6897	2282.8908	26023.45	25130.25
956.8225	2284.3414	25964	25072.55
956.9553	2285.7914	25870.4	24983.4
957.088	2287.2406	25824.75	24933.7
957.2207	2288.689	25756.05	24865.35
957.3534	2290.1368	25686.1	24794.55
957.486	2291.5838	25577.1	24685.2
957.6186	2293.0302	25434.55	24542.5
957.7512	2294.4758	25332.75	24444.2
957.8838	2295.9206	25235.85	24345.45
958.0163	2297.3648	25194.3	24305
958.1488	2298.8082	25176.25	24286.5
958.2813	2300.251	25080	24191.4
958.4137	2301.693	24992.65	24100.55
958.5461	2303.1343	24978.45	24088.7
958.6785	2304.5748	24831.9	23943.45
958.8108	2306.0147	24722.45	23832.6
958.9432	2307.4538	24709.2	23816.9
959.0754	2308.8922	24589.3	23703.5
959.2077	2310.3299	24529.85	23639.9
959.3399	2311.7669	24429.8	23542.2
959.4721	2313.2031	24361.65	23472.25
959.6043	2314.6387	24241.6	23351.6
959.7365	2316.0735	24161.8	23273.05
959.8686	2317.5076	24119.65	23230.95
960.0006	2318.941	24079.8	23191.8
960.1327	2320.3737	23998.6	23108.7
960.2647	2321.8056	23902.45	23011.55
960.3967	2323.2369	23838.4	22948.5
960.5287	2324.6674	23786.75	22895.25
960.6606	2326.0972	23665.7	22773.9
960.7925	2327.5263	23591.55	22705
960.9244	2328.9547	23529.4	22640.75
961.0562	2330.3823	23435	22545.9
961.1881	2331.8092	23454.75	22563.4
961.3198	2333.2355	23319.5	22429.45
961.4516	2334.661	23324.7	22434.35
961.5833	2336.0858	23235.3	22345.3
961.715	2337.5098	23163.3	22274.8
961.8467	2338.9332	23108.15	22219.3
961.9783	2340.3558	22999	22104.4
962.1099	2341.7778	22930.45	22041.25
962.2415	2343.199	22825.7	21934.5
962.373	2344.6195	22788.65	21901.1
962.5045	2346.0393	22730.25	21841.75
962.636	2347.4583	22699.3	21809.75
962.7675	2348.8767	22590.55	21700.35
962.8989	2350.2943	22546.3	21655.3
963.0303	2351.7113	22474.85	21585.3
963.1617	2353.1275	22359.1	21469.8
963.293	2354.543	22305.05	21407.35
963.4243	2355.9578	22236.95	21347.75
963.5556	2357.3718	22121.9	21232.85
963.6868	2358.7852	22001.25	21109.15
963.818	2360.1978	21942.3	21054.5
963.9492	2361.6098	21849.8	20962.45
964.0803	2363.021	21806.25	20916.5
964.2114	2364.4315	21726.35	20837.8
964.3425	2365.8413	21664.3	20773.1
964.4736	2367.2504	21605.35	20715.85
964.6046	2368.6587	21461.7	20572.45
964.7356	2370.0664	21400.4	20512.65
964.8666	2371.4733	21333.4	20443.25
964.9975	2372.8795	21278.85	20390.75
965.1284	2374.285	21197.3	20308.6
965.2593	2375.6899	21103.95	20216.95
965.3901	2377.0939	20982.25	20094.5
965.5209	2378.4973	20907.45	20019.45
965.6517	2379.9	20863.5	19977.1
965.7825	2381.3019	20772.4	19882.6
965.9132	2382.7032	20713.4	19825.65
966.0439	2384.1037	20639.55	19752.8
966.1745	2385.5035	20608.25	19720.3
966.3051	2386.9027	20515.45	19627.95
966.4357	2388.3011	20479.25	19590
966.5663	2389.6987	20409.25	19522.15
966.6968	2391.0957	20333.95	19445.8
966.8273	2392.492	20234.05	19346.65
966.9578	2393.8876	20086	19196.25
967.0882	2395.2824	20067.4	19177.4
967.2186	2396.6765	20002.9	19116.95
967.349	2398.07	19875.5	18986.65
967.4793	2399.4627	19877.3	18988.9
967.6097	2400.8547	19796.9	18907.25
967.7399	2402.246	19709.85	18816.35
967.8702	2403.6366	19604.8	18715.05
968.0004	2405.0265	19525.85	18637.3
968.1306	2406.4156	19448.9	18556.2
968.2607	2407.8041	19338	18446.55
968.3909	2409.1918	19312.45	18421.05
968.521	2410.5789	19247.9	18359.5
968.651	2411.9652	19160.85	18269.65
968.781	2413.3508	19107.95	18222.15
968.911	2414.7358	18994.4	18106
969.041	2416.12	18940.6	18054
969.1709	2417.5035	18877.3	17989.7
969.3008	2418.8863	18760.25	17869.35
969.4307	2420.2684	18733	17844.45
969.5606	2421.6497	18666.5	17776.65
969.6904	2423.0304	18545.85	17656.8
969.8201	2424.4104	18520.8	17632
969.9499	2425.7896	18459.75	17571
970.0796	2427.1682	18418.35	17531.7
970.2093	2428.546	18324	17434.05
970.3389	2429.9232	18281.65	17390.1
970.4685	2431.2996	18251.75	17363.55
970.5981	2432.6753	18245.7	17357.85
970.7277	2434.0503	18140.8	17252.1
970.8572	2435.4246	18035	17147.4
970.9867	2436.7982	17962	17071.85
971.1161	2438.1711	17923.95	17038.15
971.2456	2439.5433	17907.6	17018.9
971.375	2440.9148	17821.35	16926.5
971.5043	2442.2856	17716.85	16828.65
971.6336	2443.6557	17693.75	16803.5
971.7629	2445.025	17627.4	16738.85
971.8922	2446.3937	17607.55	16718.6
972.0214	2447.7617	17516.6	16626.3
972.1506	2449.1289	17473.25	16584.8
972.2798	2450.4955	17424.5	16532.65
972.4089	2451.8613	17387.8	16501.9
972.538	2453.2265	17290	16401.05
972.6671	2454.5909	17235.1	16346.25
972.7961	2455.9546	17217.35	16332.4
972.9251	2457.3177	17114.5	16224.45
973.0541	2458.68	17083.85	16194.35
973.1831	2460.0416	17034.7	16145.65
973.312	2461.4025	17031.35	16142.55
973.4408	2462.7627	16971.5	16072.45
973.5697	2464.1222	16915.75	16029.35
973.6985	2465.4811	16871.2	15982.35
973.8273	2466.8392	16807.65	15919.6
973.956	2468.1966	16749.75	15859.9
974.0847	2469.5533	16683.55	15791
974.2134	2470.9093	16671.85	15784
974.3421	2472.2645	16592.2	15701.35
974.4707	2473.6191	16555.45	15666.95
974.5993	2474.973	16466.55	15579.1
974.7278	2476.3262	16408.9	15519.55
974.8563	2477.6787	16342.8	15455.45
974.9848	2479.0305	16254.1	15364.7
975.1132	2480.3816	16197.4	15308.8
975.2417	2481.7319	16133.05	15244.85
975.37	2483.0816	16092.85	15203.6
975.4984	2484.4306	16053.65	15164.3
975.6267	2485.7789	15980.35	15091.8
975.755	2487.1264	15891.35	15001.15
975.8833	2488.4733	15790.3	14902.55
976.0115	2489.8195	15788.1	14893.4
976.1397	2491.165	15733.4	14840.55
976.2678	2492.5097	15677.7	14787.4
976.3959	2493.8538	15600.1	14713.5
976.524	2495.1972	15501.85	14614.9
976.6521	2496.5398	15454.75	14564.7
976.7801	2497.8818	15425.6	14536.7
976.9081	2499.2231	15369.6	14480.3
977.036	2500.5637	15298.45	14408.15
977.164	2501.9035	15252.65	14361.15
977.2918	2503.2427	15229.85	14336.35
977.4197	2504.5812	15174.55	14286.4
977.5475	2505.919	15135.3	14245
977.6753	2507.256	15081	14193
977.8031	2508.5924	15001.3	14113.4
977.9308	2509.9281	14982.1	14086.15
978.0585	2511.2631	14908.55	14018.95
978.1861	2512.5974	14898.75	14009.6
978.3137	2513.9309	14822.2	13933.7
978.4413	2515.2638	14756.1	13840.1
978.5689	2516.596	14705.25	13816.7
978.6964	2517.9275	14653.75	13764.05
978.8239	2519.2583	14596.75	13708.05
978.9513	2520.5884	14550.4	13661.25
979.0788	2521.9178	14479.45	13591
979.2062	2523.2465	14405.05	13517.6
979.3335	2524.5745	14380.65	13493.8
979.4608	2525.9018	14343.05	13456.3
979.5881	2527.2284	14298.65	13412.9
979.7154	2528.5543	14255.8	13368.2
979.8426	2529.8796	14196.8	13308.6
979.9698	2531.2041	14154.85	13268.7
980.0969	2532.5279	14116.75	13231
980.224	2533.851	14115.1	13226.7
980.3511	2535.1735	14057.3	13169.6
980.4781	2536.4952	13996.65	13107.9
980.6052	2537.8163	14006.85	13118.8
980.7321	2539.1366	13937	13049.6
980.8591	2540.4562	13895.8	13005.7
980.986	2541.7752	13878.3	12990.45
981.1129	2543.0935	13830	12942
981.2397	2544.411	13786.45	12895.6
981.3665	2545.7279	13770.95	12884.85
981.4933	2547.0441	13729.2	12840.4
981.62	2548.3596	13716.35	12825.05
981.7467	2549.6744	13675.3	12788.4
981.8734	2550.9885	13627.2	12731.55
982.0001	2552.3019	13569.5	12682
982.1267	2553.6146	13554.6	12667.75
982.2532	2554.9266	13498.15	12609.8
982.3798	2556.2379	13433.8	12542.95
982.5063	2557.5485	13418.15	12531
982.6327	2558.8585	13381.5	12485.95
982.7592	2560.1677	13361.5	12467.55
982.8856	2561.4762	13336.65	12447.45
983.0119	2562.7841	13315.9	12424.75
983.1383	2564.0913	13260.5	12373.05
983.2646	2565.3977	13219.55	12331.55
983.3908	2566.7035	13192	12304.35
983.517	2568.0086	13148.75	12259.4
983.6432	2569.313	13137.8	12248.55
983.7694	2570.6167	13149.55	12258.65
983.8955	2571.9197	13083.95	12196.35
984.0216	2573.222	13060.05	12168.6
984.1476	2574.5236	13028.9	12140.5
984.2737	2575.8246	12984.1	12091
984.3996	2577.1248	12969.3	12077.5
984.5256	2578.4244	12904.05	12018.1
984.6515	2579.7232	12927.4	12039.8
984.7774	2581.0214	12904.05	11991.2
984.9032	2582.3189	12843.9	11955.25
985.029	2583.6157	12820.25	11927.25
985.1548	2584.9118	12817.45	11927.9
985.2806	2586.2072	12720.95	11833.85
985.4063	2587.5019	12694.7	11806.7
985.5319	2588.7959	12648.35	11758.65
985.6576	2590.0893	12632.6	11741.7
985.7832	2591.3819	12602.8	11715.7
985.9087	2592.6739	12536.4	11650.65
986.0343	2593.9652	12524.45	11633.45
986.1597	2595.2557	12464	11576.35
986.2852	2596.5456	12415.6	11523.85
986.4106	2597.8348	12364.45	11475.95
986.536	2599.1234	12302.95	11415.45
986.6614	2600.4112	12268	11376.95
986.7867	2601.6983	12248.35	11357.45
986.912	2602.9848	12184.2	11296
987.0372	2604.2705	12129.55	11234.6
987.1624	2605.5556	12101.35	11212.4
987.2876	2606.84	12057.2	11169.2
987.4128	2608.1237	11997.95	11108.75
987.5379	2609.4067	11947.5	11057.45
987.6629	2610.689	11904.75	11007.75
987.788	2611.9707	11880.5	10988.5
987.913	2613.2516	11838.85	10945.15
988.0379	2614.5319	11753.15	10866.7
988.1629	2615.8115	11724.75	10835.8
988.2878	2617.0903	11703.5	10813.6
988.4126	2618.3685	11654.55	10766.65
988.5375	2619.6461	11618.8	10729.2
988.6622	2620.9229	11592.25	10703.35
988.787	2622.199	11547.9	10659.75
988.9117	2623.4745	11507.8	10619.55
989.0364	2624.7493	11481	10593.8
989.161	2626.0234	11439.55	10552.35
989.2857	2627.2968	11391.1	10502.2
989.4102	2628.5695	11311.8	10422.9
989.5348	2629.8415	11251.7	10363.4
989.6593	2631.1128	11214.85	10325.9
989.7837	2632.3835	11148.55	10259.65
989.9082	2633.6535	11113.35	10226.15
990.0326	2634.9228	11095.7	10208.9
990.1569	2636.1914	11028.6	10141.6
990.2812	2637.4593	11028.4	10134.35
990.4055	2638.7265	10969.25	10080.1
990.5298	2639.9931	10955.1	10067.2
990.654	2641.259	10909.2	10019.55
990.7782	2642.5242	10866.3	9977.9
990.9023	2643.7887	10863.15	9975.75
991.0264	2645.0525	10819.85	9933.45
991.1505	2646.3156	10767.8	9877.85
991.2745	2647.5781	10733.2	9845.15
991.3985	2648.8398	10681.75	9795.55
991.5225	2650.1009	10683.65	9759.8
991.6464	2651.3613	10646.8	9759.1
991.7703	2652.6211	10615.95	9726.25
991.8942	2653.8801	10571.45	9684.25
992.018	2655.1385	10528.15	9639.15
992.1418	2656.3961	10514.85	9626.8
992.2655	2657.6531	10489.65	9602.35
992.3892	2658.9094	10429.05	9539.85
992.5129	2660.1651	10411.8	9525.4
992.6366	2661.42	10399.7	9512.55
992.7602	2662.6743	10368.8	9479.9
992.8837	2663.9279	10356.25	9468.95
993.0073	2665.1808	10305.65	9416.65
993.1307	2666.433	10280.45	9390.35
993.2542	2667.6846	10231.85	9345
993.3776	2668.9354	10201.2	9309.6
993.501	2670.1856	10190.5	9303
993.6244	2671.4351	10156.25	9267.8
993.7477	2672.6839	10150.55	9261.55
993.8709	2673.9321	10102.1	9215.5
993.9942	2675.1795	10064.6	9175.9
994.1174	2676.4263	10008.65	9121.8
994.2405	2677.6724	9987.5	9099.85
994.3637	2678.9179	9969.75	9081.55
994.4868	2680.1626	9934.15	9047.55
994.6098	2681.4067	9916.25	9028.55
994.7328	2682.6501	9864.75	8976.95
994.8558	2683.8928	9866.6	8978.3
994.9788	2685.1348	9808.8	8921.9
995.1017	2686.3761	9751.25	8863.2
995.2245	2687.6168	9733.55	8847.8
995.3474	2688.8568	9706.05	8817.15
995.4702	2690.0961	9646.25	8759.4
995.5929	2691.3348	9639.15	8749.6
995.7156	2692.5727	9592.85	8703.25
995.8383	2693.81	9567.3	8678.7
995.961	2695.0466	9540.85	8655.1
996.0836	2696.2826	9543.6	8654.45
996.2062	2697.5178	9502.6	8613.35
996.3287	2698.7524	9440.6	8552.35
996.4512	2699.9863	9440.95	8550.35
996.5737	2701.2195	9384.6	8499.7
996.6961	2702.452	9366.9	8478.6
996.8185	2703.6839	9341.45	8454.05
996.9408	2704.9151	9332.55	8445.85
997.0631	2706.1456	9274.05	8385.8
997.1854	2707.3755	9226	8339
997.3077	2708.6046	9239.05	8349.6
997.4299	2709.8331	9198.25	8309.1
997.552	2711.0609	9158.55	8270.25
997.6742	2712.2881	9159.3	8272.65
997.7963	2713.5145	9106.85	8215.1
997.9183	2714.7403	9097.55	8211.75
998.0403	2715.9654	9030.4	8141.15
998.1623	2717.1899	9026.1	8138
998.2842	2718.4136	9010.85	8122.5
998.4062	2719.6367	8975.7	8088.6
998.528	2720.8591	8950.4	8057.2
998.6498	2722.0809	8914.9	8025.25
998.7716	2723.3019	8886.55	7992.35
998.8934	2724.5223	8889.9	8000.65
999.0151	2725.7421	8813.6	7925.35
999.1368	2726.9611	8803.4	7914.15
999.2584	2728.1795	8778.05	7887.4
999.38	2729.3972	8749.6	7860.55
999.5016	2730.6142	8709.2	7813.95
999.6231	2731.8306	8649.75	7757.85
999.7446	2733.0462	8626.65	7738.1
999.8661	2734.2612	8572.1	7677.65
999.9875	2735.4756	8532.5	7642.3
1000.1089	2736.6892	8487.65	7598.25
1000.2302	2737.9022	8455.3	7568.25
1000.3515	2739.1145	8414.8	7528.8
1000.4728	2740.3262	8360.2	7464.15
1000.594	2741.5372	8313.55	7426.75
1000.7152	2742.7475	8278.45	7391.45
1000.8363	2743.9571	8267.35	7379.65
1000.9575	2745.1661	8226.2	7333.65
1001.0785	2746.3744	8198.4	7309.95
1001.1996	2747.582	8163.25	7277.15
1001.3206	2748.7889	8140.35	7251.15
1001.4415	2749.9952	8107.35	7217.95
1001.5625	2751.2008	8067.85	7180.25
1001.6833	2752.4057	8053.25	7164.1
1001.8042	2753.61	8019.95	7131.7
1001.925	2754.8136	7982.85	7092.35
1002.0458	2756.0165	7957.7	7071.95
1002.1665	2757.2188	7919.3	7031.85
1002.2872	2758.4204	7892.05	7003.15
1002.4078	2759.6213	7874.45	6984.65
1002.5285	2760.8215	7838.7	6948
1002.649	2762.0211	7821.15	6931.5
1002.7696	2763.22	7782.55	6892.85
1002.8901	2764.4182	7742.25	6853.2
1003.0106	2765.6158	7743.45	6857.5
1003.131	2766.8127	7720.15	6830.65
1003.2514	2768.009	7698.6	6810.45
1003.3717	2769.2045	7658.1	6772.4
1003.492	2770.3994	7636	6745.35
1003.6123	2771.5936	7606.65	6718.1
1003.7325	2772.7872	7558	6669.8
1003.8527	2773.9801	7528.25	6638.35
1003.9729	2775.1723	7507.25	6603.15
1004.093	2776.3639	7509.1	6620.85
1004.2131	2777.5548	7456.15	6568.15
1004.3331	2778.745	7461.4	6573.05
1004.4531	2779.9346	7401.6	6514.75
1004.5731	2781.1235	7417.05	6528
1004.693	2782.3117	7381.75	6494.15
1004.8129	2783.4992	7365.1	6478.05
1004.9328	2784.6861	7330.5	6439.85
1005.0526	2785.8723	7315.3	6426.1
1005.1723	2787.0579	7261.75	6373.4
1005.2921	2788.2428	7254.85	6365.95
1005.4118	2789.427	7243.95	6359.25
1005.5314	2790.6106	7217.05	6328.85
1005.651	2791.7935	7202.4	6313.6
1005.7706	2792.9757	7182.65	6295.95
1005.8902	2794.1573	7158.8	6269.25
1006.0097	2795.3382	7132	6243.6
1006.1291	2796.5184	7121.55	6235.8
1006.2485	2797.698	7107.3	6217.1
1006.3679	2798.8769	7102.05	6215.7
1006.4873	2800.0551	7067.9	6180.8
1006.6066	2801.2327	7054.5	6163.9
1006.7258	2802.4096	7044.8	6158.25
1006.8451	2803.5859	7033.95	6145.85
1006.9642	2804.7615	7023.35	6134.5
1007.0834	2805.9364	7021.65	6136
1007.2025	2807.1106	7019.85	6135.3
1007.3216	2808.2842	6994.35	6104.25
1007.4406	2809.4572	7005.2	6120.1
1007.5596	2810.6294	7009.3	6119.65
1007.6785	2811.801	7044.35	6158.45
1007.7975	2812.972	7033.15	6144.7
1007.9163	2814.1423	7056	6167.2
1008.0352	2815.3119	7071.55	6182.1
1008.154	2816.4808	7085.6	6200.8
1008.2727	2817.6491	7111.9	6224.2
1008.3914	2818.8167	7144.25	6258.65
1008.5101	2819.9837	7162.6	6271.95
1008.6288	2821.15	7181.35	6292.35
1008.7474	2822.3157	7202.45	6317.1
1008.8659	2823.4807	7238.45	6350.95
1008.9844	2824.645	7281	6393.85
1009.1029	2825.8086	7295.85	6409.8
1009.2214	2826.9716	7320.85	6434
1009.3398	2828.134	7363.2	6476.8
1009.4581	2829.2957	7393.2	6504.8
1009.5764	2830.4567	7388.5	6500.25
1009.6947	2831.617	7380.85	6494.25
1009.813	2832.7767	7395.2	6506.85
1009.9312	2833.9358	7388.85	6502.35
1010.0493	2835.0941	7350.15	6461.9
1010.1675	2836.2519	7334.35	6447.75
1010.2855	2837.4089	7305.15	6417.75
1010.4036	2838.5653	7270.15	6383.75
1010.5216	2839.7211	7233.2	6347.7
1010.6396	2840.8761	7230	6340.4
1010.7575	2842.0306	7229.75	6344.45
1010.8754	2843.1843	7243.25	6354.65
1010.9932	2844.3374	7255	6368.5
1011.111	2845.4899	7273.5	6385.45
1011.2288	2846.6417	7316.55	6429.1
1011.3465	2847.7928	7363.15	6475.7
1011.4642	2848.9433	7404.95	6517.35
1011.5818	2850.0931	7440.45	6553.85
1011.6995	2851.2422	7489.05	6600.2
1011.817	2852.3907	7518	6629
1011.9345	2853.5385	7564.45	6674.8
1012.052	2854.6857	7586.45	6690.75
1012.1695	2855.8323	7602.95	6716.25
1012.2869	2856.9781	7607.85	6722.5
1012.4042	2858.1233	7650.6	6765.6
1012.5216	2859.2679	7677.55	6789.95
1012.6389	2860.4118	7691.85	6804.4
1012.7561	2861.555	7721.8	6828.8
1012.8733	2862.6976	7709.6	6819.5
1012.9905	2863.8395	7734.7	6846.4
1013.1076	2864.9808	7733.1	6846.05
1013.2247	2866.1214	7732.8	6847.9
1013.3417	2867.2614	7746.85	6857.8
1013.4587	2868.4007	7732.35	6845.3
1013.5757	2869.5393	7718.35	6829.95
1013.6926	2870.6773	7700.8	6810.15
1013.8095	2871.8146	7702.9	6811.35
1013.9263	2872.9513	7671	6779.5
1014.0431	2874.0874	7652.15	6765.1
1014.1599	2875.2227	7619.5	6731.85
1014.2766	2876.3574	7595.3	6707.35
1014.3933	2877.4915	7527.55	6642.35
1014.51	2878.6249	7493.9	6608.1
1014.6266	2879.7577	7453.75	6565.45
1014.7431	2880.8898	7420.7	6524
1014.8596	2882.0212	7392.55	6505.5
1014.9761	2883.152	7357.1	6470.7
1015.0925	2884.2821	7307.85	6421.3
1015.2089	2885.4116	7282.2	6395.5
1015.3253	2886.5405	7275.25	6388.15
1015.4416	2887.6686	7236.95	6346.5
1015.5579	2888.7962	7230.85	6343.45
1015.6741	2889.923	7237.8	6352.7
1015.7903	2891.0493	7224.8	6340.1
1015.9065	2892.1748	7199.35	6312.3
1016.0226	2893.2997	7191.6	6305.2
1016.1387	2894.424	7209.9	6322.5
1016.2547	2895.5476	7177.9	6290.4
1016.3707	2896.6706	7190.1	6304.35
1016.4866	2897.7929	7185.4	6298.35
1016.6025	2898.9145	7190.8	6302.05
1016.7184	2900.0355	7185.1	6296.4
1016.8342	2901.1559	7189.35	6298.9
1016.95	2902.2756	7190.45	6302.9
1017.0658	2903.3946	7219.2	6333.4
1017.1815	2904.513	7205.15	6315.35
1017.2971	2905.6308	7220.3	6334.1
1017.4127	2906.7479	7245.15	6357
1017.5283	2907.8643	7227.75	6337.75
1017.6439	2908.9801	7236.55	6348.6
1017.7594	2910.0953	7192.4	6305.25
1017.8748	2911.2098	7192.8	6302.1
1017.9902	2912.3236	7145.85	6251.8
1018.1056	2913.4368	7114.85	6224.55
1018.2209	2914.5494	7105	6215.7
1018.3362	2915.6613	7055.65	6164.1
1018.4515	2916.7725	7017.2	6125.45
1018.5667	2917.8831	6968.4	6082.3
1018.6819	2918.9931	6938.1	6048.85
1018.797	2920.1024	6887.95	5999.9
1018.9121	2921.211	6864.3	5977.4
1019.0271	2922.319	6831.8	5944.05
1019.1421	2923.4264	6813.7	5927.6
1019.2571	2924.5331	6794.55	5907.6
1019.372	2925.6391	6771.3	5886.8
1019.4869	2926.7445	6735.45	5849.65
1019.6017	2927.8493	6736.55	5850.25
1019.7165	2928.9534	6727.8	5838.55
1019.8313	2930.0569	6703.5	5813.6
1019.946	2931.1597	6709.25	5820.4
1020.0606	2932.2619	6690.85	5804.3
1020.1753	2933.3634	6678.55	5791.2
1020.2899	2934.4643	6676.2	5781
1020.4044	2935.5645	6648.05	5755.7
1020.5189	2936.6641	6592.3	5700.5
1020.6334	2937.763	6541.05	5656.05
1020.7478	2938.8613	6483.05	5595.75
1020.8622	2939.959	6440.45	5548.15
1020.9765	2941.056	6340.1	5452.6
1021.0908	2942.1523	6279.45	5391.6
1021.2051	2943.248	6209.95	5322
1021.3193	2944.3431	6080	5192.95
1021.4334	2945.4375	6000.25	5112.7
1021.5476	2946.5313	5895.65	5011.25
1021.6617	2947.6244	5797.85	4910.55
1021.7757	2948.7169	5707.55	4820.2
1021.8897	2949.8087	5608.8	4720.85
1022.0037	2950.8999	5507.05	4619.1
1022.1176	2951.9904	5421.1	4533.25
1022.2315	2953.0803	5344.25	4457.25
1022.3453	2954.1696	5273.55	4385.6
1022.4591	2955.2582	5227.45	4341.25
1022.5728	2956.3462	5155.2	4267.8
1022.6865	2957.4335	5103.15	4215.35
1022.8002	2958.5202	5067.15	4179.55
1022.9138	2959.6062	5023.15	4135.65
1023.0274	2960.6916	4985.2	4099.55
1023.141	2961.7764	4946.7	4059
1023.2545	2962.8605	4931.85	4043.15
1023.3679	2963.9439	4911.25	4024.55
1023.4813	2965.0267	4877.05	3988.5
1023.5947	2966.1089	4849.65	3940.45
1023.708	2967.1905	4822.15	3935
1023.8213	2968.2714	4815.35	3930.95
1023.9346	2969.3516	4780.9	3894.3
1024.0478	2970.4312	4790.85	3896.65
1024.1609	2971.5102	4775.65	3889.6
1024.274	2972.5885	4752.5	3863.65
1024.3871	2973.6662	4748.35	3854.55
1024.5002	2974.7432	4732.4	3845.7
1024.6132	2975.8196	4721.65	3835.75
1024.7261	2976.8954	4689.2	3802.5
1024.839	2977.9705	4670.25	3784.3
1024.9519	2979.045	4654.6	3767.95
1025.0647	2980.1188	4621.15	3735.9
1025.1775	2981.192	4594.9	3708.3
1025.2902	2982.2645	4574.55	3687.1
1025.4029	2983.3364	4526.95	3641.25
1025.5156	2984.4077	4480.05	3592.25
1025.6282	2985.4783	4467	3574.7
1025.7407	2986.5483	4407.95	3521
1025.8532	2987.6177	4393.1	3507.1
1025.9657	2988.6864	4341.9	3456.6
1026.0782	2989.7545	4304.65	3417.1
1026.1906	2990.8219	4263.15	3377
1026.3029	2991.8887	4239.05	3350.8
1026.4152	2992.9548	4185.9	3297.2
1026.5275	2994.0204	4146.3	3260.9
1026.6397	2995.0852	4115.55	3229
1026.7519	2996.1495	4086.65	3198.95
1026.864	2997.2131	4037.45	3150.1
1026.9761	2998.276	4016.55	3130.15
1027.0882	2999.3383	3988.35	3101.4
1027.2002	3000.4	3963.9	3076.7
1027.3122	3001.4611	3942.65	3054.8
1027.4241	3002.5215	3917.75	3031.4
1027.536	3003.5812	3889.05	3002.35
1027.6478	3004.6404	3879	2992
1027.7596	3005.6989	3856.15	2966.3
1027.8714	3006.7567	3838.95	2952.05
1027.9831	3007.8139	3834.1	2923.5
1028.0947	3008.8705	3797.4	2909.55
1028.2064	3009.9264	3781.45	2890.55
1028.3179	3010.9818	3762.25	2873.45
1028.4295	3012.0364	3754.25	2866.45
1028.541	3013.0905	3736.55	2851.25
1028.6524	3014.1439	3720.6	2834.7
1028.7638	3015.1966	3701.2	2815.05
1028.8752	3016.2487	3692.5	2807.3
1028.9865	3017.3002	3677.05	2786.85
1029.0978	3018.3511	3661.4	2774.65
1029.209	3019.4013	3654.1	2767.15
1029.3202	3020.4509	3644.1	2757
1029.4314	3021.4998	3638.45	2750.85
1029.5425	3022.5481	3627.4	2740.2
1029.6535	3023.5958	3615.4	2729.1
1029.7645	3024.6428	3611.15	2722.3
1029.8755	3025.6892	3581.8	2696.4
1029.9864	3026.735	3573.35	2685.1
1030.0973	3027.7802	3559	2673.15
1030.2082	3028.8247	3560.25	2672.85
1030.319	3029.8685	3538.45	2649.15
1030.4297	3030.9118	3530.1	2641.8
1030.5404	3031.9544	3534.9	2648.8
1030.6511	3032.9963	3514.55	2626.95
1030.7617	3034.0376	3509.65	2623.05
1030.8723	3035.0783	3496.7	2607.3
1030.9829	3036.1184	3496.7	2607.45
1031.0934	3037.1578	3479.45	2593.4
1031.2038	3038.1966	3481.7	2594.3
1031.3142	3039.2348	3476.45	2592.7
1031.4246	3040.2723	3470.35	2574.75
1031.5349	3041.3092	3450.6	2565.85
1031.6452	3042.3455	3448.05	2561.6
1031.7554	3043.3811	3439.6	2555
1031.8656	3044.4161	3417.75	2530.55
1031.9758	3045.4505	3407.3	2520.45
1032.0859	3046.4842	3399.3	2511.75
1032.1959	3047.5173	3367.3	2482.05
1032.3059	3048.5498	3362.2	2475.2
1032.4159	3049.5816	3350	2464.45
1032.5258	3050.6128	3347.65	2460.05
1032.6357	3051.6434	3335.5	2447.5
1032.7455	3052.6734	3324.3	2437.2
1032.8553	3053.7027	3315	2428.95
1032.9651	3054.7314	3293.7	2406.5
1033.0748	3055.7594	3279.85	2392.65
1033.1845	3056.7868	3264.6	2377.3
1033.2941	3057.8136	3247.15	2360.5
1033.4037	3058.8398	3240.2	2356.4
1033.5132	3059.8653	3242.3	2355.85
1033.6227	3060.8902	3219.2	2331.5
1033.7321	3061.9145	3213.9	2325.3
1033.8415	3062.9381	3205.15	2319.3
1033.9509	3063.9612	3205.95	2302.5
1034.0602	3064.9835	3182	2295.8
1034.1694	3066.0053	3162.95	2272.65
1034.2787	3067.0264	3162.3	2276.15
1034.3878	3068.0469	3144	2258.6
1034.497	3069.0668	3144.75	2255.1
1034.6061	3070.086	3119.3	2232.85
1034.7151	3071.1046	3108.4	2220.4
1034.8241	3072.1226	3094.2	2206.3
1034.9331	3073.1399	3073.6	2187.65
1035.042	3074.1567	3057.35	2169.9
1035.1508	3075.1727	3056.95	2167.15
1035.2597	3076.1882	3034.35	2148.1
1035.3684	3077.203	3036.05	2149.1
1035.4772	3078.2173	2999.8	2113.35
1035.5859	3079.2308	2989.1	2101.05
1035.6945	3080.2438	2990.85	2101.2
1035.8031	3081.2561	2952.3	2065
1035.9117	3082.2678	2940.65	2053.15
1036.0202	3083.2789	2934.7	2047.85
1036.1286	3084.2893	2924.5	2039.7
1036.2371	3085.2991	2899.8	2011.85
1036.3454	3086.3083	2900.95	2010.8
1036.4538	3087.3169	2893.8	2004.85
1036.562	3088.3248	2875.7	1985.05
1036.6703	3089.3321	2869.9	1981.2
1036.7785	3090.3388	2861.7	1976.55
1036.8866	3091.3449	2841.5	1954.65
1036.9948	3092.3503	2833.2	1944.45
1037.1028	3093.3551	2816.25	1931.1
1037.2108	3094.3593	2821.35	1936.15
1037.3188	3095.3629	2808.6	1921.95
1037.4267	3096.3658	2788.35	1899.25
1037.5346	3097.3681	2776.3	1890.6
1037.6425	3098.3698	2764.65	1878.35
1037.7503	3099.3708	2762.65	1868
1037.858	3100.3713	2733.35	1847.4
1037.9657	3101.3711	2734.1	1848.2
1038.0734	3102.3702	2845.15	1819.8
1038.181	3103.3688	2737.85	1851.65
1038.2886	3104.3667	2708.35	1824.1
1038.3961	3105.364	2687.05	1801.45
1038.5036	3106.3607	2671.25	1782.75
1038.611	3107.3568	2664.1	1775.5
1038.7184	3108.3522	2641.6	1757
1038.8257	3109.347	2633.95	1746.4
1038.933	3110.3412	2635.75	1744.05
1039.0403	3111.3348	2625.5	1741.1
1039.1475	3112.3277	2599.65	1713.2
1039.2547	3113.32	2608.15	1723
1039.3618	3114.3117	2588.7	1701.5
1039.4689	3115.3028	2583.25	1695.85
1039.5759	3116.2932	2571.85	1683.6
1039.6829	3117.2831	2566.35	1674.9
1039.7898	3118.2723	2551.1	1665.5
1039.8967	3119.2608	2549.2	1663.1
1040.0035	3120.2488	2542.95	1657
1040.1103	3121.2361	2520.35	1634
1040.2171	3122.2229	2508.05	1621.75
1040.3238	3123.209	2495.1	1609.25
1040.4305	3124.1944	2498	1612
1040.5371	3125.1793	2494.7	1606.55
1040.6437	3126.1635	2486.1	1600.9
1040.7502	3127.1471	2466.15	1580.8
1040.8567	3128.1301	2456.7	1571.9
1040.9631	3129.1125	2467.35	1581.4
1041.0695	3130.0942	2459.9	1572.95
1041.1759	3131.0753	2450.1	1556.95
1041.2822	3132.0558	2435.1	1546.15
1041.3884	3133.0357	2428.75	1541.25
1041.4946	3134.015	2423.35	1536.05
1041.6008	3134.9936	2413.9	1526
1041.7069	3135.9716	2426.6	1520.75
1041.813	3136.949	2391.45	1504.15
1041.919	3137.9258	2405.6	1513.35
1042.025	3138.902	2391.35	1499.45
1042.1309	3139.8775	2381.5	1495.65
1042.2368	3140.8524	2373.7	1489.8
1042.3427	3141.8267	2367.95	1480.85
1042.4485	3142.8004	2361.4	1475.15
1042.5542	3143.7735	2353.3	1460.45
1042.6599	3144.7459	2350.05	1461.1
1042.7656	3145.7178	2339	1451.9
1042.8712	3146.689	2345.25	1457.45
1042.9768	3147.6596	2320.55	1431.75
1043.0823	3148.6295	2319.95	1434.95
1043.1878	3149.5989	2301.8	1414.05
1043.2932	3150.5676	2296.9	1411.3
1043.3986	3151.5357	2292.7	1407.6
1043.5039	3152.5032	2279.75	1394.65
1043.6092	3153.4701	2267.8	1382.75
1043.7145	3154.4364	2276.05	1387
1043.8197	3155.402	2256.3	1371.1
1043.9248	3156.367	2253.35	1365.8
1044.03	3157.3315	2284.3	1355.75
1044.135	3158.2952	2238.8	1352.55
1044.24	3159.2584	2232.2	1346.1
1044.345	3160.221	2234.9	1349.05
1044.4499	3161.1829	2216.15	1330.35
1044.5548	3162.1442	2202.65	1316.3
1044.6596	3163.105	2200.05	1311.4
1044.7644	3164.065	2202.15	1314.2
1044.8692	3165.0245	2189.4	1300.1
1044.9739	3165.9834	2179.6	1295
1045.0785	3166.9416	2173.2	1287.65
1045.1831	3167.8993	2157.35	1270.45
1045.2877	3168.8563	2164.7	1278.8
1045.3922	3169.8127	2145.35	1259.8
1045.4966	3170.7684	2133.7	1248.6
1045.6011	3171.7236	2145.4	1256.1
1045.7054	3172.6782	2123.45	1237.4
1045.8098	3173.6321	2122.3	1236.25
1045.914	3174.5854	2115.8	1225
1046.0183	3175.5381	2108.5	1222.35
1046.1224	3176.4902	2099.9	1213.65
1046.2266	3177.4417	2094.85	1210.4
1046.3307	3178.3926	2088.95	1204.5
1046.4347	3179.3428	2078.55	1192.65
1046.5387	3180.2924	2066.5	1183.15
1046.6427	3181.2415	2083.75	1195.25
1046.7466	3182.1899	2066.6	1179.4
1046.8504	3183.1377	2051.3	1165.15
1046.9542	3184.0848	2053.45	1162.2
1047.058	3185.0314	2041.9	1156.5
1047.1617	3185.9773	2046.55	1160.15
1047.2654	3186.9227	2027.55	1139.85
1047.369	3187.8674	2034.4	1149
1047.4726	3188.8115	2016.55	1126
1047.5761	3189.755	2013	1127.35
1047.6796	3190.6979	2000.15	1113.7
1047.783	3191.6402	1989.55	1104.85
1047.8864	3192.5818	1987.7	1102.5
1047.9898	3193.5229	2005.7	1102.9
1048.0931	3194.4633	1982.8	1096.45
1048.1963	3195.4031	1976.35	1089.55
1048.2995	3196.3423	1969.05	1083.1
1048.4027	3197.2809	1962.6	1076.5
1048.5058	3198.2189	1960.65	1074.95
1048.6089	3199.1563	1968.75	1067.6
1048.7119	3200.0931	1944.85	1060.55
1048.8148	3201.0292	1942.7	1056.9
1048.9178	3201.9648	1932.8	1047.85
1049.0206	3202.8997	1939	1048.8
1049.1235	3203.834	1931.4	1045.75
1049.2262	3204.7677	1917.45	1031.2
1049.329	3205.7008	1916.15	1029.1
1049.4317	3206.6333	1907.2	1022.6
1049.5343	3207.5652	1914.2	1025.4
1049.6369	3208.4964	1909.65	1022.9
1049.7394	3209.4271	1902	1015.55
1049.8419	3210.3571	1888.45	1003.15
1049.9444	3211.2865	1893.6	1007.85
1050.0468	3212.2154	1880.35	991
1050.1491	3213.1436	1867.05	979.15
1050.2514	3214.0712	1881.2	988.35
1050.3537	3214.9982	1873.65	988.3
1050.4559	3215.9246	1857.05	970.5
1050.5581	3216.8503	1854.3	968.65
1050.6602	3217.7755	1849.7	963.8
1050.7623	3218.7001	1853.3	967.25
1050.8643	3219.624	1848.2	960.1
1050.9663	3220.5473	1840.75	954.75
1051.0682	3221.4701	1835.45	948.65
1051.1701	3222.3922	1830.55	942.2
1051.2719	3223.3137	1820.05	933.55
1051.3737	3224.2346	1821.25	934.65
1051.4754	3225.1549	1810.2	924.1
1051.5771	3226.0746	1808.45	921
1051.6788	3226.9937	1800.5	912.05
1051.7804	3227.9121	1808.6	924.4
1051.8819	3228.83	1797.55	913.45
1051.9834	3229.7473	1787.3	901.2
1052.0849	3230.6639	1784	896.65
1052.1863	3231.5799	1771.75	886.25
1052.2876	3232.4954	1777.5	891.15
1052.3889	3233.4102	1761.25	876.25
1052.4902	3234.3244	1753.8	868.2
1052.5914	3235.238	1763.9	874.15
1052.6926	3236.151	1781.1	872.55
1052.7937	3237.0634	1743.95	859.45
1052.8948	3237.9752	1744.65	859.35
1052.9958	3238.8864	1734.65	849.85
1053.0968	3239.797	1732.75	846
1053.1977	3240.7069	1726	840.7
1053.2986	3241.6163	1722.95	834.25
1053.3994	3242.5251	1714.75	828.6
1053.5002	3243.4332	1711.4	826.9
1053.6009	3244.3408	1707.25	819.85
1053.7016	3245.2477	1707.05	823.1
1053.8022	3246.154	1702.3	815.5
1053.9028	3247.0598	1690	802.85
1054.0034	3247.9649	1684.25	798.9
1054.1039	3248.8694	1683.7	798.2
1054.2043	3249.7733	1680.75	794.4
1054.3047	3250.6766	1675.25	789.4
1054.4051	3251.5793	1671.05	783.75
1054.5054	3252.4814	1663.8	778.25
1054.6056	3253.3829	1657.5	770.7
1054.7058	3254.2838	1651	763.5
1054.806	3255.1841	1648.2	761.9
1054.9061	3256.0838	1646	759.3
1055.0061	3256.9829	1627.45	742.55
1055.1062	3257.8814	1627.05	738.95
1055.2061	3258.7792	1622.05	732.75
1055.306	3259.6765	1617.15	730.35
1055.4059	3260.5731	1608.3	721.15
1055.5057	3261.4692	1596.05	710.35
1055.6055	3262.3647	1592	704.5
1055.7052	3263.2595	1571.25	684.1
1055.8049	3264.1538	1572.6	686.35
1055.9045	3265.0474	1560	675
1056.0041	3265.9404	1548.75	664.65
1056.1036	3266.8329	1541.6	656.35
1056.2031	3267.7247	1536.55	641.4
1056.3025	3268.616	1512.35	626.5
1056.4019	3269.5066	1494.15	608.8
1056.5013	3270.3966	1479.35	592.85
1056.6005	3271.286	1453.45	567.7
