Software Version:	3.9.2.0
Unit SN:	10000200
Spectrometer SN:	6960
Date:	3/6/2024 10:50:46 AM
Data Line Index:	25
Spectral Points:	2048
Integration time (ms):	125
Averages:	20
Delay (ms):	30
Sequence Number:	1
Processing:	dark subtract
Laser Power (mW):	295
Laser Current (mA):	823
Laser Diode Temp (C):	25.1
Laser Case Temp (C):	27.6
System Temp (C):	27.4
Spectrometer Temp (C):	24.9
CCD Temp (C):	0.007
Secondary Temp (C):	20.006
Heatsink Temp (C):	23.095
CCDPCB Temp (C):	36.563
SecondaryPCB Temp (C):	34.451

Wavelength	RamanShift	Raw Counts	Dark Subtracted
787.061	30.1047	1125.65	713.8
787.2016	32.3739	1160.7	748.8
787.3422	34.6426	1202.45	789.1
787.4828	36.9109	1263.9	848.8
787.6235	39.1787	1315.3	896.55
787.7642	41.4461	1377.45	953.55
787.9049	43.7131	1435.95	1010.05
788.0456	45.9796	1504.7	1074.6
788.1863	48.2456	1576.25	1142.15
788.3271	50.5112	1650.3	1211
788.4679	52.7764	1714.75	1274.55
788.6087	55.0411	1795	1350
788.7496	57.3054	1886.45	1436.55
788.8904	59.5692	1968.5	1516.35
789.0313	61.8326	2072.5	1616.75
789.1722	64.0955	2177.9	1718.25
789.3132	66.3579	2313.4	1848.35
789.4541	68.6199	2462.85	1996.4
789.5951	70.8815	2723.35	2253
789.7361	73.1426	3233.25	2759.1
789.8771	75.4032	4530.6	4051.1
790.0181	77.6634	7842.75	7358.7
790.1592	79.9231	16554.6	16066.55
790.3003	82.1824	54300.45	53803.3
790.4414	84.4412	65535	65021.1
790.5825	86.6995	65535	64993.35
790.7237	88.9574	65535	64974.75
790.8648	91.2148	65535	64957.75
791.006	93.4717	65535	64948.25
791.1472	95.7282	65535	64942.55
791.2885	97.9842	65535	64935.75
791.4297	100.2398	65535	64935.05
791.571	102.4949	65535	64932.5
791.7123	104.7495	65535	64927.4
791.8536	107.0036	65535	64928.55
791.9949	109.2573	65535	64932.85
792.1363	111.5105	65535	64925.9
792.2777	113.7632	65535	64924.75
792.4191	116.0154	65535	64915.35
792.5605	118.2672	65535	64919.25
792.7019	120.5185	65535	64919.45
792.8434	122.7693	65535	64916.45
792.9849	125.0197	65535	64913.65
793.1264	127.2696	65535	64911.8
793.2679	129.519	65535	64905.4
793.4094	131.7679	65535	64907.1
793.551	134.0163	65535	64901.5
793.6926	136.2642	65535	64895.65
793.8342	138.5117	65535	64887
793.9758	140.7587	65535	64893.7
794.1175	143.0052	65535	64888.05
794.2591	145.2512	65535	64889.55
794.4008	147.4967	65535	64888.5
794.5425	149.7417	65535	64886.1
794.6842	151.9863	65535	64883.4
794.826	154.2304	65535	64881.1
794.9677	156.4739	65535	64874.7
795.1095	158.717	65535	64874
795.2513	160.9596	65535	64869.85
795.3931	163.2017	65535	64867.1
795.535	165.4433	65535	64866.7
795.6768	167.6844	65535	64865.05
795.8187	169.925	65535	64860.5
795.9606	172.1651	65535	64859
796.1025	174.4047	65535	64854.7
796.2445	176.6439	65535	64853.15
796.3864	178.8825	65535	64847.85
796.5284	181.1206	65535	64846
796.6704	183.3582	65535	64839.25
796.8124	185.5954	65535	64840.45
796.9544	187.832	65535	64837.45
797.0965	190.0681	65535	64836.3
797.2386	192.3037	65535	64833.2
797.3806	194.5388	65535	64825.6
797.5228	196.7734	65535	64825.3
797.6649	199.0075	65535	64823.2
797.807	201.2411	65535	64819.95
797.9492	203.4742	65535	64820.3
798.0914	205.7068	65535	64818.6
798.2336	207.9389	65535	64817.2
798.3758	210.1704	65535	64814.7
798.518	212.4015	65535	64813.6
798.6603	214.632	65535	64817.4
798.8025	216.862	65535	64826.55
798.9448	219.0915	65535	64832
799.0871	221.3205	65535	64830.6
799.2294	223.549	65535	64834.75
799.3718	225.777	65535	64834.15
799.5141	228.0044	65535	64831.25
799.6565	230.2314	65535	64834.95
799.7989	232.4578	65535	64831.05
799.9413	234.6837	65535	64822.8
800.0837	236.909	65535	64823.05
800.2262	239.1339	65535	64798.1
800.3687	241.3582	65535	64811.3
800.5111	243.582	65535	64781.7
800.6536	245.8053	65535	64795
800.7961	248.0281	65535	64795.8
800.9387	250.2503	65535	64795.55
801.0812	252.472	65535	64791.75
801.2238	254.6932	65535	64788.95
801.3664	256.9139	65535	64786.8
801.509	259.134	65535	64784.45
801.6516	261.3536	65535	64786.45
801.7942	263.5727	65535	64782.7
801.9369	265.7912	65535	64786.5
802.0795	268.0092	65535	64784.05
802.2222	270.2267	65535	64778.1
802.3649	272.4436	65535	64780.75
802.5076	274.6601	65535	64775.25
802.6504	276.8759	65535	64778.65
802.7931	279.0913	65535	64775.25
802.9359	281.3061	65535	64775.4
803.0787	283.5204	65535	64770.65
803.2215	285.7341	65535	64767.75
803.3643	287.9473	65535	64753.8
803.5071	290.16	65535	64761.15
803.6499	292.3721	65535	64765.3
803.7928	294.5837	65535	64765.75
803.9357	296.7947	65535	64765.8
804.0786	299.0052	65535	64764.95
804.2215	301.2152	65535	64765.95
804.3644	303.4246	65535	64767.5
804.5074	305.6334	65535	64766.7
804.6503	307.8418	65535	64758.45
804.7933	310.0495	65535	64760.8
804.9363	312.2568	65535	64760.95
805.0793	314.4635	65535	64758.05
805.2223	316.6696	65535	64754.8
805.3653	318.8752	65535	64751.6
805.5084	321.0802	65535	64756.25
805.6514	323.2847	65535	64754.7
805.7945	325.4887	65535	64753.4
805.9376	327.692	65535	64754.55
806.0807	329.8949	65535	64753
806.2238	332.0972	65535	64750.9
806.367	334.2989	65535	64747.9
806.5101	336.5001	65535	64749.5
806.6533	338.7007	65535	64747.3
806.7965	340.9008	65535	64745.9
806.9397	343.1003	65535	64743.6
807.0829	345.2992	65535	64741.55
807.2261	347.4976	65535	64744.95
807.3693	349.6955	65535	64737.4
807.5126	351.8927	65535	64736.6
807.6559	354.0895	65535	64720.1
807.7991	356.2856	65535	64735.3
807.9424	358.4812	65535	64733.95
808.0857	360.6763	65535	64733.5
808.2291	362.8707	65535	64732.55
808.3724	365.0646	65535	64730.3
808.5158	367.258	65535	64729.35
808.6591	369.4508	65535	64725.9
808.8025	371.643	65535	64723.1
808.9459	373.8346	65535	64721.75
809.0893	376.0257	65535	64719.2
809.2327	378.2162	65535	64716.7
809.3762	380.4062	65535	64716.4
809.5196	382.5956	65535	64716.3
809.6631	384.7844	65535	64718.1
809.8066	386.9726	65535	64716.95
809.9501	389.1603	65535	64720.9
810.0936	391.3474	65535	64682.25
810.2371	393.5339	65535	64721.3
810.3806	395.7199	65535	64725.25
810.5241	397.9052	65535	64727.85
810.6677	400.09	65535	64727.2
810.8113	402.2743	65535	64728.05
810.9548	404.4579	65535	64727.25
811.0984	406.641	65535	64722.7
811.2421	408.8235	65535	64724.2
811.3857	411.0054	65535	64723.7
811.5293	413.1868	65535	64718.65
811.673	415.3675	65535	64717.2
811.8166	417.5477	65535	64715.25
811.9603	419.7273	65535	64714.1
812.104	421.9064	65535	64705.85
812.2477	424.0848	65535	64707.1
812.3914	426.2627	65535	64706.35
812.5351	428.4399	65535	64706.9
812.6788	430.6166	65535	64702.8
812.8226	432.7928	65535	64700.1
812.9663	434.9683	65535	64703.1
813.1101	437.1432	65535	64698.25
813.2539	439.3176	65535	64698.7
813.3977	441.4914	65535	64699
813.5415	443.6645	65535	64700.5
813.6853	445.8371	65535	64699.6
813.8291	448.0091	65535	64700.3
813.973	450.1806	65535	64698.15
814.1168	452.3514	65535	64698.95
814.2607	454.5216	65535	64688.4
814.4046	456.6913	65535	64695.5
814.5485	458.8603	65535	64697.65
814.6924	461.0288	65535	64696.5
814.8363	463.1967	65535	64696.15
814.9802	465.3639	65535	64694.5
815.1241	467.5306	65535	64691.5
815.2681	469.6967	65535	64696.35
815.412	471.8622	65535	64693.85
815.556	474.0271	65535	64694.6
815.7	476.1914	65535	64692.7
815.844	478.3551	65535	64696.65
815.988	480.5182	65535	64694.85
816.132	482.6807	65535	64696.15
816.276	484.8426	65535	64696.05
816.4201	487.0039	65535	64691.5
816.5641	489.1647	65535	64692.45
816.7082	491.3248	65535	64692.35
816.8522	493.4843	65535	64690.8
816.9963	495.6432	65535	64690.25
817.1404	497.8015	65535	64687
817.2845	499.9592	65535	64687.5
817.4286	502.1163	65535	64687.6
817.5727	504.2728	65535	64688.55
817.7168	506.4287	65535	64688.7
817.861	508.5839	65535	64688.7
818.0051	510.7386	65535	64686.9
818.1493	512.8927	65535	64682.4
818.2935	515.0461	65535	64683.5
818.4377	517.199	65535	64687.3
818.5818	519.3512	65535	64682.1
818.726	521.5029	65535	64678.9
818.8703	523.6539	65535	64681.7
819.0145	525.8043	65535	64679.85
819.1587	527.9541	65535	64678
819.303	530.1033	65535	64679.5
819.4472	532.2519	65535	64677.55
819.5915	534.3999	65535	64675.7
819.7357	536.5472	65535	64680.4
819.88	538.694	65535	64682.45
820.0243	540.8401	65535	64677.1
820.1686	542.9856	65535	64671.7
820.3129	545.1305	65535	64672.55
820.4572	547.2748	65535	64671.2
820.6016	549.4185	65535	64672.8
820.7459	551.5615	65535	64670.8
820.8902	553.704	65535	64672
821.0346	555.8458	65535	64676.9
821.1789	557.987	65535	64674.55
821.3233	560.1276	65535	64671.05
821.4677	562.2675	65535	64675.85
821.6121	564.4069	65535	64670.1
821.7565	566.5456	65535	64674.15
821.9009	568.6837	65535	64677.3
822.0453	570.8212	65535	64674.8
822.1897	572.958	65535	64675.3
822.3342	575.0942	65535	64676.35
822.4786	577.2299	65535	64674.75
822.6231	579.3648	65535	64674.75
822.7675	581.4992	65535	64677.45
822.912	583.6329	65535	64677.75
823.0565	585.766	65535	64676.25
823.201	587.8985	65535	64671
823.3454	590.0304	65535	64647.05
823.4899	592.1616	65535	64667.85
823.6345	594.2922	65535	64672.35
823.779	596.4222	65535	64670.2
823.9235	598.5515	65535	64664.05
824.068	600.6802	65535	64670.1
824.2126	602.8083	65535	64666.65
824.3571	604.9358	65535	64668.65
824.5017	607.0626	65535	64665.85
824.6462	609.1888	65535	64664.5
824.7908	611.3144	65535	64665.6
824.9354	613.4393	65535	64666.05
825.08	615.5636	65535	64664.65
825.2246	617.6873	65535	64665.1
825.3692	619.8103	65535	64663.65
825.5138	621.9327	65535	64663.35
825.6584	624.0544	65535	64664.95
825.803	626.1756	65535	64667.6
825.9477	628.2961	65535	64665.2
826.0923	630.4159	65535	64663.8
826.237	632.5351	65535	64662
826.3816	634.6537	65535	64663.15
826.5263	636.7716	65535	64662.25
826.6709	638.8889	65535	64661.25
826.8156	641.0056	65535	64660.7
826.9603	643.1216	65535	64659.1
827.105	645.237	65535	64660.05
827.2497	647.3518	65535	64662.4
827.3944	649.4659	65535	64660.5
827.5391	651.5793	65535	64661.1
827.6838	653.6922	65535	64659.45
827.8285	655.8043	65535	64661.2
827.9733	657.9159	65535	64660.65
828.118	660.0268	65535	64658.25
828.2627	662.137	65535	64660.4
828.4075	664.2466	65535	64656.8
828.5522	666.3556	65535	64657.45
828.697	668.4639	65535	64654.25
828.8418	670.5716	65535	64658.65
828.9865	672.6786	65535	64657.55
829.1313	674.785	65535	64656.05
829.2761	676.8907	65535	64655.7
829.4209	678.9958	65535	64657.95
829.5657	681.1002	65535	64658.6
829.7105	683.204	65535	64652.15
829.8553	685.3072	65535	64653.85
830.0001	687.4097	65535	64655
830.1449	689.5115	65535	64652.1
830.2898	691.6127	65535	64652.7
830.4346	693.7132	65535	64653.65
830.5794	695.8131	65535	64639.5
830.7243	697.9123	65535	64652.5
830.8691	700.0109	65535	64655.65
831.014	702.1089	65535	64652.4
831.1588	704.2061	65535	64653.45
831.3037	706.3028	65535	64650.75
831.4486	708.3987	65535	64654.9
831.5935	710.4941	65535	64652.85
831.7383	712.5887	65535	64654.7
831.8832	714.6827	65535	64649.3
832.0281	716.7761	65535	64654
832.173	718.8688	65535	64652.8
832.3179	720.9608	65535	64646.5
832.4628	723.0522	65535	64648.5
832.6077	725.1429	65535	64651.8
832.7527	727.233	65535	64648.15
832.8976	729.3224	65535	64648.95
833.0425	731.4112	65535	64648.5
833.1874	733.4993	65535	64646.95
833.3324	735.5867	65535	64645.85
833.4773	737.6735	65535	64648.25
833.6222	739.7596	65535	64646.8
833.7672	741.845	65535	64651.2
833.9122	743.9298	65535	64650.05
834.0571	746.014	65535	64648.5
834.2021	748.0974	65535	64646.75
834.347	750.1802	65535	64647.3
834.492	752.2624	65535	64649.25
834.637	754.3439	65535	64647
834.782	756.4247	65535	64638.55
834.9269	758.5048	65535	64648.35
835.0719	760.5843	65535	64648.5
835.2169	762.6631	65535	64645.85
835.3619	764.7413	65535	64650.9
835.5069	766.8188	65535	64645.4
835.6519	768.8956	65535	64647.9
835.7969	770.9718	65535	64647.3
835.9419	773.0473	65535	64645.6
836.0869	775.1221	65535	64644.9
836.232	777.1962	65535	64645.1
836.377	779.2697	65535	64644.75
836.522	781.3426	65535	64625.35
836.667	783.4147	65535	64644.5
836.8121	785.4862	65535	64648.65
836.9571	787.557	65535	64644.8
837.1021	789.6271	65535	64645.3
837.2472	791.6966	65535	64644.5
837.3922	793.7654	65535	64642.3
837.5373	795.8335	65535	64644.3
837.6823	797.901	65535	64644.9
837.8274	799.9678	65535	64643.2
837.9724	802.0339	65535	64646.75
838.1175	804.0993	65535	64632.65
838.2626	806.1641	65535	64644.1
838.4076	808.2282	65535	64642.95
838.5527	810.2916	65535	64642.35
838.6978	812.3544	65535	64648.5
838.8428	814.4164	65535	64646.2
838.9879	816.4778	65535	64641.65
839.133	818.5385	65535	64644.5
839.2781	820.5986	65535	64643.75
839.4232	822.658	65535	64642.1
839.5682	824.7166	65535	64644.8
839.7133	826.7747	65535	64644.85
839.8584	828.832	65535	64641.1
840.0035	830.8886	65535	64642.6
840.1486	832.9446	65535	64642.8
840.2937	834.9999	65535	64641.9
840.4388	837.0545	65535	64639.05
840.5839	839.1085	65535	64641.6
840.729	841.1618	65535	64640.3
840.8741	843.2143	65535	64641.85
841.0192	845.2662	65535	64643.9
841.1643	847.3175	65535	64643.55
841.3095	849.368	65535	64641.75
841.4546	851.4179	65535	64642.95
841.5997	853.467	65535	64641.45
841.7448	855.5155	65535	64643.55
841.8899	857.5633	65535	64641.95
842.0351	859.6105	65535	64642.1
842.1802	861.6569	65535	64642.9
842.3253	863.7027	65535	64642.8
842.4704	865.7478	65535	64639.3
842.6156	867.7922	65535	64642.05
842.7607	869.8359	65535	64640.15
842.9058	871.8789	65535	64638.05
843.0509	873.9212	65535	64608.15
843.1961	875.9629	65535	64639.65
843.3412	878.0039	65535	64640.85
843.4863	880.0441	65535	64641.15
843.6315	882.0837	65535	64638.7
843.7766	884.1226	65535	64641.7
843.9218	886.1609	65535	64639.35
844.0669	888.1984	65535	64640.1
844.212	890.2352	65535	64639.8
844.3572	892.2714	65535	64635.85
844.5023	894.3069	65535	64639.05
844.6475	896.3416	65535	64640.3
844.7926	898.3757	65535	64637.55
844.9377	900.4091	65535	64639
845.0829	902.4418	65535	64632.7
845.228	904.4739	65535	64635.1
845.3732	906.5052	65535	64638.25
845.5183	908.5358	65535	64640.35
845.6635	910.5658	65535	64638.65
845.8086	912.595	65535	64641.2
845.9538	914.6236	65535	64639.95
846.0989	916.6515	65535	64641.15
846.2441	918.6786	65535	64635.6
846.3892	920.7051	65535	64638.8
846.5344	922.7309	65535	64638.05
846.6795	924.756	65535	64640.25
846.8246	926.7804	65535	64638.35
846.9698	928.8041	65535	64635.15
847.1149	930.8272	65535	64637.55
847.2601	932.8495	65535	64635.95
847.4052	934.8711	65535	64636.55
847.5504	936.892	65535	64638.6
847.6955	938.9123	65535	64637.8
847.8407	940.9318	65535	64639
847.9858	942.9506	65535	64638.25
848.131	944.9688	65535	64637.25
848.2761	946.9862	65535	64638.4
848.4213	949.003	65535	64637.25
848.5664	951.019	65535	64637.75
848.7115	953.0344	65535	64635.05
848.8567	955.0491	65535	64636.75
849.0018	957.063	65535	64639.35
849.147	959.0763	65535	64638.5
849.2921	961.0888	65535	64635.55
849.4373	963.1007	65535	64636.75
849.5824	965.1119	65535	64639.2
849.7275	967.1223	65535	64638.1
849.8727	969.1321	65535	64638.7
850.0178	971.1412	65535	64640.15
850.1629	973.1495	65535	64634.9
850.3081	975.1572	65535	64603.2
850.4532	977.1641	65535	64636.15
850.5983	979.1704	65535	64635.3
850.7435	981.1759	65535	64635.4
850.8886	983.1808	65535	64634.55
851.0337	985.1849	65535	64626.35
851.1788	987.1884	65535	64634.2
851.324	989.1911	65535	64635.75
851.4691	991.1932	65535	64633.5
851.6142	993.1945	65535	64635.15
851.7593	995.1951	65535	64636.85
851.9045	997.1951	65535	64628
852.0496	999.1943	65535	64635.3
852.1947	1001.1928	65535	64636
852.3398	1003.1906	65535	64637.85
852.4849	1005.1877	65535	64634.35
852.63	1007.1841	65535	64638.75
852.7751	1009.1798	65535	64635
852.9202	1011.1748	65535	64637.15
853.0653	1013.1691	65535	64637.2
853.2104	1015.1627	65535	64636.8
853.3555	1017.1556	65535	64635.5
853.5006	1019.1477	65535	64635
853.6457	1021.1392	65535	64637.6
853.7908	1023.1299	65535	64636.8
853.9359	1025.12	65535	64637.25
854.081	1027.1093	65535	64639.95
854.2261	1029.0979	65535	64641.3
854.3712	1031.0859	65535	64637.45
854.5163	1033.0731	65535	64637.1
854.6613	1035.0596	65535	64636.9
854.8064	1037.0454	65535	64637.7
854.9515	1039.0304	65535	64635.65
855.0965	1041.0148	65535	64636.9
855.2416	1042.9985	65535	64637
855.3867	1044.9814	65535	64637.3
855.5317	1046.9636	65535	64634.5
855.6768	1048.9452	65535	64635.65
855.8219	1050.926	65535	64637.9
855.9669	1052.9061	65535	64637.05
856.112	1054.8855	65535	64633.7
856.257	1056.8642	65535	64637.55
856.4021	1058.8421	65535	64631.85
856.5471	1060.8194	65535	64633.45
856.6921	1062.7959	65535	64636.25
856.8372	1064.7717	65535	64633.4
856.9822	1066.7469	65535	64634.45
857.1272	1068.7213	65535	64633.55
857.2723	1070.695	65535	64637.7
857.4173	1072.6679	65535	64636.45
857.5623	1074.6402	65535	64635.3
857.7073	1076.6117	65535	64630.75
857.8523	1078.5826	65535	64635.8
857.9973	1080.5527	65535	64635.25
858.1423	1082.5221	65535	64635.75
858.2873	1084.4908	65535	64634.7
858.4323	1086.4587	65535	64634.25
858.5773	1088.426	65535	64635.05
858.7223	1090.3925	65535	64631.65
858.8673	1092.3584	65535	64634.9
859.0123	1094.3235	65535	64635.35
859.1573	1096.2879	65535	64633.55
859.3022	1098.2515	65535	64637.1
859.4472	1100.2145	65535	64635.8
859.5922	1102.1767	65535	64635.05
859.7371	1104.1382	65535	64635.95
859.8821	1106.099	65535	64634.45
860.027	1108.0591	65535	64636.7
860.172	1110.0185	65535	64633.55
860.3169	1111.9771	65535	64635.95
860.4619	1113.9351	65535	64636.7
860.6068	1115.8923	65535	64634.75
860.7517	1117.8488	65535	64632.45
860.8967	1119.8045	65535	64634
861.0416	1121.7596	65535	64634.25
861.1865	1123.7139	65535	64638.4
861.3314	1125.6675	65535	64636.1
861.4763	1127.6204	65535	64638.8
861.6212	1129.5726	65535	64631.8
861.7661	1131.524	65535	64636
861.911	1133.4748	65535	64636.45
862.0559	1135.4248	65535	64634.15
862.2008	1137.3741	65535	64634.05
862.3457	1139.3226	65535	64635.25
862.4905	1141.2705	65535	64634.45
862.6354	1143.2176	65535	64629
862.7803	1145.164	65535	64633.65
862.9251	1147.1097	65535	64634.5
863.07	1149.0546	65535	64632.85
863.2148	1150.9989	65535	64632.75
863.3597	1152.9424	65535	64635.35
863.5045	1154.8852	65535	64635.75
863.6493	1156.8272	65535	64633.8
863.7942	1158.7686	65535	64627.15
863.939	1160.7092	65535	64632.75
864.0838	1162.6491	65535	64635.7
864.2286	1164.5883	65535	64635.15
864.3734	1166.5267	65535	64634.8
864.5182	1168.4644	65535	64635.85
864.663	1170.4014	65535	64628.05
864.8078	1172.3377	65535	64635.05
864.9526	1174.2732	65535	64635.75
865.0974	1176.2081	65535	64635.7
865.2421	1178.1421	65535	64632.15
865.3869	1180.0755	65535	64634
865.5317	1182.0082	65535	64636.1
865.6764	1183.9401	65535	64632.9
865.8212	1185.8713	65535	64636.7
865.9659	1187.8017	65535	64632.9
866.1106	1189.7315	65535	64639.2
866.2554	1191.6605	65535	64607.9
866.4001	1193.5888	65535	64638.5
866.5448	1195.5163	65535	64637.5
866.6895	1197.4432	65535	64634.45
866.8342	1199.3693	65535	64638.9
866.9789	1201.2947	65535	64632.65
867.1236	1203.2193	65535	64633.55
867.2683	1205.1432	65535	64636.25
867.413	1207.0664	65535	64635.35
867.5576	1208.9889	65535	64633.55
867.7023	1210.9106	65535	64635.3
867.847	1212.8316	65535	64637.4
867.9916	1214.7519	65535	64627.45
868.1363	1216.6715	65535	64635.15
868.2809	1218.5903	65535	64635.35
868.4255	1220.5084	65535	64634.2
868.5701	1222.4257	65535	64634.7
868.7148	1224.3424	65535	64636.05
868.8594	1226.2583	65535	64630.2
869.004	1228.1735	65535	64635.25
869.1486	1230.0879	65535	64633.5
869.2932	1232.0016	65535	64635.4
869.4377	1233.9146	65535	64634.3
869.5823	1235.8269	65535	64637.15
869.7269	1237.7384	65535	64636.85
869.8715	1239.6492	65535	64635.2
870.016	1241.5592	65535	64634.25
870.1606	1243.4686	65535	64635.8
870.3051	1245.3772	65535	64636.55
870.4496	1247.285	65535	64632.85
870.5941	1249.1922	65535	64634.95
870.7387	1251.0986	65535	64639.4
870.8832	1253.0042	65535	64636
871.0277	1254.9092	65535	64636.15
871.1722	1256.8134	65535	64635.3
871.3167	1258.7169	65535	64632.9
871.4611	1260.6196	65535	64635.05
871.6056	1262.5216	65535	64634.95
871.7501	1264.4229	65535	64636.85
871.8945	1266.3234	65535	64635.35
872.039	1268.2232	65535	64633.15
872.1834	1270.1223	65535	64635.25
872.3278	1272.0207	65535	64634
872.4723	1273.9183	65535	64629.45
872.6167	1275.8151	65535	64637.05
872.7611	1277.7113	65535	64636.15
872.9055	1279.6067	65535	64636.2
873.0499	1281.5014	65535	64632.6
873.1943	1283.3953	65535	64633.7
873.3386	1285.2885	65535	64636.9
873.483	1287.181	65535	64633.3
873.6274	1289.0727	65535	64636.95
873.7717	1290.9637	65535	64635.75
873.9161	1292.854	65535	64634.15
874.0604	1294.7435	65535	64636.25
874.2047	1296.6323	65535	64636.3
874.349	1298.5204	65535	64630.7
874.4933	1300.4077	65535	64633.7
874.6376	1302.2943	65535	64635.4
874.7819	1304.1802	65535	64634.6
874.9262	1306.0653	65535	64630.6
875.0705	1307.9497	65535	64633.2
875.2147	1309.8333	65535	64637.35
875.359	1311.7162	65535	64635.05
875.5032	1313.5984	65535	64631.55
875.6475	1315.4798	65535	64617.4
875.7917	1317.3605	65535	64619.2
875.9359	1319.2405	65535	64633.55
876.0801	1321.1197	65535	64634.3
876.2243	1322.9982	65535	64629.35
876.3685	1324.876	65535	64635.55
876.5127	1326.753	65535	64633.6
876.6569	1328.6293	65535	64631.2
876.801	1330.5048	65535	64631.1
876.9452	1332.3796	65535	64638.55
877.0893	1334.2537	65535	64608.35
877.2335	1336.127	65535	64634.5
877.3776	1337.9996	65535	64634.15
877.5217	1339.8714	65535	64635.25
877.6658	1341.7426	65535	64592.2
877.8099	1343.6129	65535	64636.25
877.954	1345.4826	65535	64633.45
878.0981	1347.3515	65535	64630.65
878.2422	1349.2196	65535	64632.8
878.3862	1351.087	65535	64633
878.5303	1352.9537	65535	64632.95
878.6743	1354.8197	65535	64635.25
878.8184	1356.6849	65535	64635.05
878.9624	1358.5493	65535	64635.5
879.1064	1360.4131	65535	64637.6
879.2504	1362.276	65535	64635.45
879.3944	1364.1383	65535	64636.55
879.5384	1365.9998	65535	64628.05
879.6823	1367.8606	65535	64633.75
879.8263	1369.7206	65535	64635.6
879.9702	1371.5799	65535	64632.6
880.1142	1373.4384	65535	64633.3
880.2581	1375.2962	65535	64633.85
880.402	1377.1533	65535	64636.35
880.5459	1379.0096	65535	64634.15
880.6898	1380.8652	65535	64635.7
880.8337	1382.7201	65535	64635.05
880.9776	1384.5742	65535	64634.45
881.1215	1386.4275	65535	64635
881.2653	1388.2802	65535	64636.5
881.4092	1390.132	65535	64634.15
881.553	1391.9832	65535	64633.75
881.6968	1393.8336	65535	64633.85
881.8406	1395.6832	65535	64636.1
881.9844	1397.5322	65535	64636.1
882.1282	1399.3803	65535	64631.7
882.272	1401.2278	65535	64634.15
882.4158	1403.0745	65535	64634.6
882.5595	1404.9204	65535	64636.65
882.7033	1406.7656	65535	64634.85
882.847	1408.6101	65535	64636.3
882.9908	1410.4538	65535	64635.55
883.1345	1412.2968	65535	64638.6
883.2782	1414.139	65535	64637.5
883.4219	1415.9805	65535	64635.4
883.5656	1417.8213	65535	64629.15
883.7092	1419.6613	65535	64636.25
883.8529	1421.5006	65535	64637.55
883.9965	1423.3391	65535	64633.7
884.1402	1425.1769	65535	64634.55
884.2838	1427.0139	65535	64633.6
884.4274	1428.8502	65535	64633.75
884.571	1430.6858	65535	64636.65
884.7146	1432.5206	65535	64635.6
884.8582	1434.3547	65535	64636.2
885.0018	1436.188	65535	64635.3
885.1453	1438.0206	65535	64634.9
885.2889	1439.8524	65535	64632.6
885.4324	1441.6835	65535	64634.65
885.5759	1443.5139	65535	64633.3
885.7194	1445.3435	65535	64635.85
885.8629	1447.1724	65535	64636.3
886.0064	1449.0005	65535	64637.25
886.1499	1450.8279	65535	64633.25
886.2933	1452.6545	65535	64636.7
886.4368	1454.4804	65535	64635.65
886.5802	1456.3056	65535	64628.2
886.7237	1458.13	65535	64636.1
886.8671	1459.9536	65535	64634.35
887.0105	1461.7766	65535	64636.15
887.1539	1463.5987	65535	64634.9
887.2972	1465.4202	65535	64636.65
887.4406	1467.2409	65535	64635.6
887.584	1469.0608	65535	64634.3
887.7273	1470.88	65535	64635.85
887.8706	1472.6984	65535	64635.35
888.0139	1474.5161	65535	64633
888.1572	1476.3331	65535	64636.85
888.3005	1478.1493	65535	64634.95
888.4438	1479.9648	65535	64634.85
888.5871	1481.7795	65535	64635.15
888.7303	1483.5935	65535	64635.35
888.8736	1485.4067	65535	64636.6
889.0168	1487.2192	65535	64637.45
889.16	1489.031	65535	64633.75
889.3032	1490.842	65535	64636.65
889.4464	1492.6522	65535	64635.75
889.5896	1494.4618	65535	64635.65
889.7327	1496.2705	65535	64636.45
889.8759	1498.0785	65535	64635.25
890.019	1499.8858	65535	64633.85
890.1622	1501.6924	65535	64636.75
890.3053	1503.4981	65535	64635.5
890.4484	1505.3032	65535	64636.45
890.5914	1507.1075	65535	64636.4
890.7345	1508.911	65535	64637.25
890.8776	1510.7138	65535	64635.5
891.0206	1512.5159	65535	64635.2
891.1637	1514.3172	65535	64636.2
891.3067	1516.1178	65535	64637.85
891.4497	1517.9176	65535	64634.75
891.5927	1519.7166	65535	64635.9
891.7357	1521.515	65535	64628.8
891.8786	1523.3126	65535	64634.9
892.0216	1525.1094	65535	64634.1
892.1645	1526.9055	65535	64636.8
892.3074	1528.7008	65535	64635
892.4503	1530.4954	65535	64633.2
892.5932	1532.2893	65535	64637.6
892.7361	1534.0824	65535	64633.05
892.879	1535.8747	65535	64636.6
893.0218	1537.6663	65535	64636.45
893.1647	1539.4572	65535	64633.55
893.3075	1541.2473	65535	64636.15
893.4503	1543.0367	65535	64636.55
893.5931	1544.8253	65535	64632.4
893.7359	1546.6132	65535	64635.05
893.8787	1548.4003	65535	64629.15
894.0214	1550.1867	65535	64628
894.1642	1551.9723	65535	64632.3
894.3069	1553.7572	65535	64638.55
894.4496	1555.5414	65535	64637.2
894.5923	1557.3247	65518.2	64618.3
894.735	1559.1074	65535	64636.7
894.8777	1560.8893	65535	64638.4
895.0204	1562.6705	65535	64636.95
895.163	1564.4509	65525.9	64628.6
895.3056	1566.2305	65535	64639.1
895.4482	1568.0094	65535	64640
895.5908	1569.7876	65534.7	64636.75
895.7334	1571.565	65524.35	64626.15
895.876	1573.3417	65529.3	64633.65
896.0186	1575.1176	65528.55	64633.4
896.1611	1576.8928	65522.55	64624.95
896.3036	1578.6672	65488.05	64593.2
896.4461	1580.4409	65517	64623.7
896.5886	1582.2138	65436.4	64539
896.7311	1583.986	65473.05	64575.15
896.8736	1585.7575	65363.1	64467.95
897.0161	1587.5282	65405.75	64511.4
897.1585	1589.2981	65408.4	64513.05
897.3009	1591.0673	65255.75	64360.15
897.4433	1592.8358	65067.8	64172.1
897.5857	1594.6035	65279.7	64382.2
897.7281	1596.3704	65311.25	64412.75
897.8705	1598.1366	64890.2	63992.4
898.0128	1599.9021	64652	63756.5
898.1551	1601.6668	65069.3	64171.65
898.2975	1603.4308	64860.85	63962.4
898.4398	1605.194	64869	63968.05
898.5821	1606.9564	64173.9	63277.9
898.7243	1608.7182	64577.25	63677.8
898.8666	1610.4791	64193.95	63298.9
899.0088	1612.2394	64599.3	63706.1
899.1511	1613.9988	64042.8	63148.65
899.2933	1615.7576	64633.1	63738
899.4355	1617.5156	64580.15	63678.5
899.5776	1619.2728	65017.9	64121.5
899.7198	1621.0293	64266.75	63371.85
899.862	1622.785	64298.35	63400.85
900.0041	1624.54	64591.95	63695.55
900.1462	1626.2942	64030.35	63134.65
900.2883	1628.0477	63161.7	62264.7
900.4304	1629.8005	62381	61482.2
900.5725	1631.5525	63214.8	62320.8
900.7145	1633.3037	61932.5	61035.7
900.8566	1635.0542	61731.85	60837.4
900.9986	1636.804	62273.75	61376.95
901.1406	1638.553	61072.25	60066.5
901.2826	1640.3013	61465.75	60568.85
901.4245	1642.0488	60658.35	59762.85
901.5665	1643.7955	61226.45	60333.45
901.7085	1645.5416	60660.8	59765.2
901.8504	1647.2868	60162.65	59268.8
901.9923	1649.0313	61013.75	60117.4
902.1342	1650.7751	60487.2	59586.4
902.2761	1652.5181	60165.45	59272.9
902.4179	1654.2604	60259.65	59362.6
902.5598	1656.0019	60660.6	59765.4
902.7016	1657.7427	60392.85	59498.25
902.8434	1659.4828	61029.05	60133.35
902.9852	1661.222	60580.45	59684.45
903.127	1662.9606	61078.55	60183.05
903.2687	1664.6984	60214	59318.1
903.4105	1666.4354	60374.95	59480.35
903.5522	1668.1717	59243.4	58348.9
903.6939	1669.9072	58394.35	57501.45
903.8356	1671.642	58140.2	57241
903.9773	1673.3761	57815.85	56920.7
904.119	1675.1094	57527	56632.6
904.2606	1676.8419	56893.2	55995.7
904.4022	1678.5737	56751.25	55855.85
904.5439	1680.3048	56464.25	55569.5
904.6855	1682.0351	56189.8	55296.35
904.827	1683.7646	55802.75	54906.2
904.9686	1685.4934	55916.35	55021.05
905.1101	1687.2215	54947.3	54051.75
905.2517	1688.9488	55472.4	54578.1
905.3932	1690.6754	54121.65	53228.65
905.5347	1692.4012	54590.4	53695.15
905.6761	1694.1263	54487.45	53594.6
905.8176	1695.8506	54107.85	53212.35
905.9591	1697.5742	53967.65	53073.65
906.1005	1699.297	53665.15	52770.05
906.2419	1701.0191	53459.95	52567.6
906.3833	1702.7404	53043.65	52150.85
906.5246	1704.461	52827.85	51934.45
906.666	1706.1808	52742.5	51846.45
906.8073	1707.8999	52593.15	51697.85
906.9487	1709.6182	52306.95	51413.4
907.09	1711.3358	52227.45	51333.45
907.2313	1713.0527	52042.05	51148.95
907.3725	1714.7688	51927	51026.6
907.5138	1716.4841	51390.5	50495.5
907.655	1718.1987	51514.85	50616.4
907.7962	1719.9126	51256.8	50363.6
907.9374	1721.6257	51106.6	50210.05
908.0786	1723.338	51127.25	50233.3
908.2198	1725.0496	50526.5	49632.9
908.3609	1726.7605	50491.65	49596.75
908.502	1728.4706	50232.15	49337.55
908.6431	1730.18	50071.6	49176.85
908.7842	1731.8886	49883	48988.1
908.9253	1733.5964	49727	48813.7
909.0664	1735.3036	49688.05	48793.35
909.2074	1737.0099	49514.1	48620.65
909.3484	1738.7156	49235.85	48343.7
909.4894	1740.4204	48972.65	48075.45
909.6304	1742.1246	48956.5	48061.55
909.7714	1743.8279	48864.65	47971.05
909.9123	1745.5306	48748	47853.25
910.0532	1747.2325	48464.95	47570.85
910.1941	1748.9336	48304.55	47411.95
910.335	1750.634	48067.7	47175.15
910.4759	1752.3336	47997.65	47105.7
910.6168	1754.0325	47921.1	47029.1
910.7576	1755.7307	47794.45	46902.25
910.8984	1757.4281	47691.4	46798.9
911.0392	1759.1247	47626.25	46721.75
911.18	1760.8206	47429.35	46529.3
911.3208	1762.5158	47405.15	46506.3
911.4615	1764.2102	47105.15	46211.9
911.6022	1765.9039	46919.35	46027.75
911.7429	1767.5968	46898.35	46004.45
911.8836	1769.289	46681.4	45789.3
912.0243	1770.9804	46535.15	45641.4
912.1649	1772.6711	46467.75	45574.6
912.3056	1774.361	46309.25	45415.15
912.4462	1776.0502	46218.45	45324.7
912.5868	1777.7386	46070	45174.5
912.7274	1779.4263	45885.45	44992.6
912.8679	1781.1132	45867.45	44974.9
913.0084	1782.7994	45626.3	44732.85
913.149	1784.4849	45535.35	44642.9
913.2895	1786.1696	45332.45	44434.9
913.4299	1787.8535	45225.3	44331.8
913.5704	1789.5367	45073.35	44179.6
913.7108	1791.2192	44992.65	44100.7
913.8513	1792.9009	44800.5	43878.45
913.9917	1794.5818	44712.45	43819.5
914.132	1796.2621	44589.8	43700.3
914.2724	1797.9415	44460.7	43568.25
914.4128	1799.6202	44307.4	43414.05
914.5531	1801.2982	44173	43279.25
914.6934	1802.9755	44055.95	43161.65
914.8337	1804.6519	44014.2	43122
914.9739	1806.3277	43780.05	42886.9
915.1142	1808.0027	43476.85	42583.85
915.2544	1809.6769	43509.3	42616.15
915.3946	1811.3504	43346.95	42454.45
915.5348	1813.0231	43271.7	42378.55
915.675	1814.6951	43210.8	42316.3
915.8151	1816.3664	43160.75	42266.15
915.9553	1818.0369	42986.1	42092.8
916.0954	1819.7067	42815.1	41922.65
916.2355	1821.3757	42704.5	41810.35
916.3755	1823.044	42634.65	41739.3
916.5156	1824.7115	42496.95	41603.45
916.6556	1826.3783	42276.7	41383.05
916.7956	1828.0443	42128.15	41236.35
916.9356	1829.7096	42014.6	41121.75
917.0756	1831.3741	41993.5	41096.8
917.2155	1833.0379	41856.35	40965.8
917.3555	1834.701	41681.2	40788.85
917.4954	1836.3633	41625.8	40733.5
917.6353	1838.0248	41494.6	40601.05
917.7751	1839.6856	41416.85	40523.15
917.915	1841.3457	41279.4	40388.45
918.0548	1843.005	41190.65	40298.6
918.1946	1844.6636	41132.85	40241.25
918.3344	1846.3214	40900.55	40007.6
918.4742	1847.9785	40886.6	39995.7
918.6139	1849.6349	40748.75	39853.1
918.7537	1851.2904	40693.2	39788.55
918.8934	1852.9453	40516.5	39624.3
919.0331	1854.5994	40371.2	39476.9
919.1727	1856.2528	40401	39504.35
919.3124	1857.9054	40269.8	39375.35
919.452	1859.5572	40191.3	39297.75
919.5916	1861.2083	40062.2	39167.85
919.7312	1862.8587	40021.45	39129.5
919.8708	1864.5084	39849.85	38956.2
920.0103	1866.1572	39709.8	38819.25
920.1498	1867.8054	39556.35	38662.6
920.2893	1869.4528	39503.95	38609.4
920.4288	1871.0994	39334.6	38440.65
920.5683	1872.7453	39301.65	38409.65
920.7077	1874.3905	39190.3	38292.45
920.8471	1876.0349	39016.55	38122.5
920.9865	1877.6786	38981.6	38087.85
921.1259	1879.3215	38909.65	38017.6
921.2653	1880.9637	38787.5	37894.05
921.4046	1882.6051	38732.85	37840.7
921.5439	1884.2458	38583.85	37689.9
921.6832	1885.8858	38374.25	37480.35
921.8225	1887.525	38391.65	37500.4
921.9617	1889.1634	38161.25	37269.55
922.101	1890.8011	38032.35	37139.35
922.2402	1892.4381	37939.8	37047.45
922.3794	1894.0743	37917.6	37024
922.5185	1895.7098	37765.7	36872.05
922.6577	1897.3446	37654.55	36760.15
922.7968	1898.9786	37493.9	36598.7
922.9359	1900.6118	37437	36545
923.075	1902.2443	37220.9	36325.7
923.214	1903.8761	37156.45	36265.5
923.3531	1905.5071	36906.95	36014.15
923.4921	1907.1374	36837.8	35942.5
923.6311	1908.7669	36714.2	35824.15
923.77	1910.3957	36658.9	35765.25
923.909	1912.0237	36398.05	35504.95
924.0479	1913.651	36351.35	35457.1
924.1868	1915.2776	36239.1	35349.55
924.3257	1916.9034	36088.9	35197.35
924.4646	1918.5285	35892.1	35001
924.6034	1920.1528	35713.65	34822.25
924.7422	1921.7764	35735.15	34843.95
924.881	1923.3992	35545.25	34654.8
925.0198	1925.0213	35290.1	34398.4
925.1586	1926.6427	35143.05	34251.5
925.2973	1928.2633	35112.25	34114.45
925.436	1929.8832	34942.55	34048.45
925.5747	1931.5023	34806.05	33912.75
925.7134	1933.1207	34740.2	33848.8
925.852	1934.7383	34618	33725.4
925.9906	1936.3552	34445.05	33554.45
926.1292	1937.9714	34347.9	33457.25
926.2678	1939.5868	34183.1	33289.3
926.4064	1941.2015	34011.2	33115.45
926.5449	1942.8154	33884.6	32990.1
926.6834	1944.4286	33723.85	32830.45
926.8219	1946.041	33607.1	32694.5
926.9604	1947.6528	33408.05	32510.55
927.0988	1949.2637	33300.15	32407.9
927.2372	1950.8739	33199.1	32306.15
927.3756	1952.4834	33123.05	32230.25
927.514	1954.0921	33034.45	32142.4
927.6523	1955.7001	32905.45	32009.05
927.7907	1957.3074	32748.5	31856.6
927.929	1958.9139	32618.9	31726.4
928.0673	1960.5197	32541.55	31646.8
928.2055	1962.1247	32342.2	31450.15
928.3438	1963.729	32227.25	31336.75
928.482	1965.3325	32137.35	31224.35
928.6202	1966.9353	31968.95	31077.45
928.7584	1968.5374	31871.8	30979.25
928.8965	1970.1387	31737.4	30843.8
929.0346	1971.7393	31631.15	30736.6
929.1727	1973.3392	31517.05	30623.15
929.3108	1974.9383	31399.85	30510.05
929.4489	1976.5366	31255.5	30361.4
929.5869	1978.1342	31197.5	30304.9
929.7249	1979.7311	31151.55	30257.45
929.8629	1981.3273	31046.2	30154.2
930.0009	1982.9227	30889.8	29996.65
930.1388	1984.5173	30742.6	29851.05
930.2767	1986.1112	30570.45	29681.3
930.4146	1987.7044	30565.35	29673.7
930.5525	1989.2968	30409.25	29517.1
930.6904	1990.8885	30341.65	29447.05
930.8282	1992.4795	30300.5	29404.75
930.966	1994.0697	30131.55	29239.3
931.1038	1995.6592	29990.65	29098.95
931.2415	1997.2479	29928.55	29036.85
931.3793	1998.8359	29848.55	28958.7
931.517	2000.4232	29703.45	28814
931.6547	2002.0097	29581.95	28693.45
931.7923	2003.5955	29439.65	28546.75
931.93	2005.1805	29384.6	28492.2
932.0676	2006.7648	29292.8	28399.45
932.2052	2008.3484	29207.55	28314.2
932.3427	2009.9312	29192.95	28299
932.4803	2011.5133	29035.5	28143.9
932.6178	2013.0946	28949.3	28060.4
932.7553	2014.6752	28884.9	27996.25
932.8928	2016.2551	28759.5	27866.7
933.0302	2017.8342	28656.8	27766.4
933.1676	2019.4126	28528.55	27637.55
933.305	2020.9902	28416.85	27523.7
933.4424	2022.5672	28336.5	27443.2
933.5798	2024.1433	28254.25	27357.25
933.7171	2025.7188	28150.9	27261.6
933.8544	2027.2935	28084.7	27191.6
933.9917	2028.8674	27987.05	27096.2
934.129	2030.4406	27864.35	26975
934.2662	2032.0131	27718.8	26828.5
934.4034	2033.5849	27613.45	26718.3
934.5406	2035.1559	27605.05	26714.25
934.6778	2036.7261	27458.1	26568.2
934.8149	2038.2957	27402	26512.45
934.952	2039.8645	27342.9	26452
935.0891	2041.4325	27296.5	26403
935.2262	2042.9998	27197.7	26307.6
935.3632	2044.5664	27149.25	26254.85
935.5002	2046.1323	27024.65	26133.6
935.6372	2047.6974	26908.6	26017.1
935.7742	2049.2617	26832.7	25942.35
935.9111	2050.8254	26860.6	25947.1
936.048	2052.3883	26775.8	25883.25
936.1849	2053.9504	26666.8	25777.5
936.3218	2055.5118	26507.65	25614.15
936.4586	2057.0725	26388.15	25494.45
936.5955	2058.6325	26327.15	25434.8
936.7323	2060.1917	26270	25378.3
936.869	2061.7502	26209.55	25315.8
937.0058	2063.3079	26071.1	25179.75
937.1425	2064.8649	25964.55	25068.25
937.2792	2066.4212	25902.4	25010.15
937.4159	2067.9767	25855.7	24965
937.5525	2069.5315	25714.9	24826.1
937.6891	2071.0856	25604.1	24713.5
937.8257	2072.6389	25531.9	24640.75
937.9623	2074.1915	25402.95	24511.9
938.0989	2075.7433	25251.7	24357.1
938.2354	2077.2945	25206.75	24315.55
938.3719	2078.8448	25139.65	24247.35
938.5084	2080.3945	25014.6	24122.45
938.6448	2081.9434	25017.45	24126.15
938.7812	2083.4916	24877.9	23986.45
938.9176	2085.039	24760	23865.75
939.054	2086.5857	24732.5	23837.8
939.1903	2088.1317	24680.05	23788.15
939.3267	2089.677	24603.7	23711.15
939.463	2091.2215	24519.8	23627.9
939.5992	2092.7652	24435.3	23543.15
939.7355	2094.3083	24357.4	23464.95
939.8717	2095.8506	24300.8	23410.4
940.0079	2097.3921	24263.65	23372.2
940.1441	2098.933	24173.7	23280.1
940.2802	2100.4731	24087.15	23195.6
940.4163	2102.0124	24064.55	23164.85
940.5524	2103.5511	23997.4	23106.55
940.6885	2105.089	23912.7	23019.8
940.8245	2106.6261	23834.55	22942.25
940.9606	2108.1626	23782.15	22889.5
941.0965	2109.6983	23750	22831.05
941.2325	2111.2332	23665.7	22773.4
941.3684	2112.7675	23552.35	22660.25
941.5044	2114.301	23489.45	22595.05
941.6403	2115.8337	23443.05	22552.75
941.7761	2117.3657	23344.55	22454.6
941.912	2118.897	23290.45	22397.45
942.0478	2120.4276	23201	22303.5
942.1835	2121.9575	23118.6	22227
942.3193	2123.4866	23143.65	22237.1
942.455	2125.0149	23019.55	22125.05
942.5907	2126.5426	22897.75	22006.35
942.7264	2128.0695	22814.1	21919.2
942.8621	2129.5956	22761.9	21872.25
942.9977	2131.1211	22690.4	21794.25
943.1333	2132.6458	22622.5	21729.2
943.2689	2134.1698	22533.55	21640.85
943.4044	2135.693	22500.75	21606.5
943.54	2137.2155	22428.15	21533.45
943.6755	2138.7373	22388.5	21495.85
943.8109	2140.2584	22284.15	21392.8
943.9464	2141.7787	22208.25	21310.45
944.0818	2143.2983	22113.4	21222
944.2172	2144.8171	21976.4	21083.8
944.3526	2146.3353	21912.25	21018.4
944.4879	2147.8527	21841.95	20950.8
944.6232	2149.3693	21822.8	20930.6
944.7585	2150.8853	21739.8	20848.15
944.8938	2152.4005	21597.85	20705.45
945.029	2153.9149	21602.45	20710.6
945.1642	2155.4287	21519.5	20627.45
945.2994	2156.9417	21466.7	20572.45
945.4346	2158.454	21374.6	20479.85
945.5697	2159.9655	21302.45	20410.6
945.7048	2161.4764	21329.3	20438.15
945.8399	2162.9865	21185.85	20295.7
945.9749	2164.4958	21164.4	20272.6
946.1099	2166.0045	21082.7	20186.35
946.2449	2167.5124	21057.65	20163.9
946.3799	2169.0195	20977.95	20085.55
946.5148	2170.526	20949.1	20055.2
946.6498	2172.0317	20837.3	19944.9
946.7846	2173.5367	20784.1	19892.95
946.9195	2175.0409	20739.65	19849.1
947.0543	2176.5445	20739.8	19847.55
947.1891	2178.0473	20652.8	19761.45
947.3239	2179.5494	20518.4	19622
947.4587	2181.0507	20417.85	19525.65
947.5934	2182.5513	20366.1	19474.7
947.7281	2184.0512	20319.55	19428.35
947.8628	2185.5504	20233.75	19342.95
947.9974	2187.0488	20111.45	19218.2
948.132	2188.5465	20041.55	19149.1
948.2666	2190.0435	19993.1	19102.4
948.4012	2191.5397	19938	19045.1
948.5357	2193.0353	19836.85	18945.55
948.6702	2194.5301	19750.2	18855.85
948.8047	2196.0241	19665.7	18773.4
948.9392	2197.5175	19577.85	18684.7
949.0736	2199.0101	19525.55	18629.65
949.208	2200.502	19392.65	18502.95
949.3424	2201.9931	19327.65	18433.7
949.4767	2203.4835	19291.7	18399.85
949.611	2204.9733	19246.8	18348.75
949.7453	2206.4622	19159.85	18270.05
949.8796	2207.9505	19107.6	18213.9
950.0138	2209.438	18988.3	18096.65
950.148	2210.9248	18966.7	18073
950.2822	2212.4109	18845.45	17953.2
950.4164	2213.8962	18798.2	17901.95
950.5505	2215.3809	18802.45	17910
950.6846	2216.8648	18705.95	17812.25
950.8186	2218.3479	18675.25	17780.85
950.9527	2219.8304	18565.4	17671.7
951.0867	2221.3121	18492.65	17598.4
951.2207	2222.7931	18434.95	17544.05
951.3546	2224.2733	18367.6	17474.4
951.4886	2225.7529	18303.35	17411.5
951.6225	2227.2317	18203.35	17310.05
951.7563	2228.7098	18197.45	17305.65
951.8902	2230.1872	18069.65	17175.85
952.024	2231.6638	18027.9	17137.45
952.1578	2233.1397	17942.05	17044.55
952.2916	2234.6149	17939.25	17048.25
952.4253	2236.0894	17867.55	16976.3
952.559	2237.5632	17839.65	16938.3
952.6927	2239.0362	17739.65	16847.4
952.8263	2240.5085	17687.05	16795.15
952.9599	2241.9801	17593.6	16700.95
953.0935	2243.4509	17567.75	16675.55
953.2271	2244.921	17510.85	16620.55
953.3606	2246.3904	17395.55	16501.1
953.4941	2247.8591	17379.05	16487
953.6276	2249.3271	17318.75	16427.9
953.7611	2250.7943	17241.65	16352.1
953.8945	2252.2608	17146.9	16255.55
954.0279	2253.7266	17127.4	16235.45
954.1612	2255.1917	17041.85	16150.8
954.2946	2256.656	16987.5	16094.9
954.4279	2258.1197	16935.1	16044.2
954.5612	2259.5826	16866.15	15972.1
954.6944	2261.0447	16869.75	15977
954.8276	2262.5062	16757.8	15862.65
954.9608	2263.9669	16756.45	15864.05
955.094	2265.4269	16686.45	15796.45
955.2271	2266.8862	16656.35	15764.9
955.3602	2268.3448	16588.9	15696.35
955.4933	2269.8026	16574.9	15682.6
955.6264	2271.2598	16477.8	15585.85
955.7594	2272.7162	16420.05	15528.65
955.8924	2274.1719	16384.2	15491.05
956.0253	2275.6268	16357.85	15464.8
956.1583	2277.0811	16281.25	15391.2
956.2912	2278.5346	16249.5	15358.65
956.4241	2279.9874	16182.25	15291.3
956.5569	2281.4395	16171	15280.7
956.6897	2282.8908	16079.55	15182.25
956.8225	2284.3414	16056.85	15164.15
956.9553	2285.7914	15994.85	15103.9
957.088	2287.2406	15941.75	15046.8
957.2207	2288.689	15876.15	14984.05
957.3534	2290.1368	15832.95	14941.15
957.486	2291.5838	15761.95	14869.55
957.6186	2293.0302	15713	14819.05
957.7512	2294.4758	15595.95	14703.35
957.8838	2295.9206	15571.95	14677.9
958.0163	2297.3648	15539.55	14648.25
958.1488	2298.8082	15544.8	14651.9
958.2813	2300.251	15496.85	14603.75
958.4137	2301.693	15439.35	14542.5
958.5461	2303.1343	15417.65	14523.6
958.6785	2304.5748	15341.1	14449.45
958.8108	2306.0147	15274.95	14383.65
958.9432	2307.4538	15250.15	14356.85
959.0754	2308.8922	15180.4	14290.95
959.2077	2310.3299	15107.55	14217.05
959.3399	2311.7669	15059.8	14169.25
959.4721	2313.2031	14995.3	14102.2
959.6043	2314.6387	14955.7	14063.6
959.7365	2316.0735	14909.4	14014.45
959.8686	2317.5076	14852.15	13959.9
960.0006	2318.941	14824.3	13932.7
960.1327	2320.3737	14761.7	13868.65
960.2647	2321.8056	14709.85	13817.1
960.3967	2323.2369	14662.4	13768.45
960.5287	2324.6674	14628.05	13732.8
960.6606	2326.0972	14579.2	13687
960.7925	2327.5263	14510.65	13620
960.9244	2328.9547	14460.9	13569.5
961.0562	2330.3823	14444.8	13552.65
961.1881	2331.8092	14413.2	13518.05
961.3198	2333.2355	14341.6	13450.1
961.4516	2334.661	14302.45	13407.95
961.5833	2336.0858	14269.35	13376.15
961.715	2337.5098	14232.1	13340.55
961.8467	2338.9332	14184.35	13291.45
961.9783	2340.3558	14144.3	13247.9
962.1099	2341.7778	14091.15	13198.35
962.2415	2343.199	14031.2	13137.3
962.373	2344.6195	13968.95	13076.55
962.5045	2346.0393	13941.25	13050.8
962.636	2347.4583	13908.65	13014.05
962.7675	2348.8767	13852.5	12959.4
962.8989	2350.2943	13829.1	12938.55
963.0303	2351.7113	13798.5	12904.8
963.1617	2353.1275	13733.75	12841.15
963.293	2354.543	13701.15	12801.95
963.4243	2355.9578	13660.45	12767.9
963.5556	2357.3718	13574.55	12682.45
963.6868	2358.7852	13496	12601.85
963.818	2360.1978	13437.2	12543.85
963.9492	2361.6098	13433.6	12542.65
964.0803	2363.021	13369.25	12475.7
964.2114	2364.4315	13317.75	12426.05
964.3425	2365.8413	13273.9	12381.35
964.4736	2367.2504	13238.85	12349.25
964.6046	2368.6587	13158.85	12265.4
964.7356	2370.0664	13083.65	12191.95
964.8666	2371.4733	13061.5	12170.4
964.9975	2372.8795	13018.3	12129.25
965.1284	2374.285	12954.85	12063.45
965.2593	2375.6899	12861.1	11969.8
965.3901	2377.0939	12822.1	11931.55
965.5209	2378.4973	12776.65	11885.5
965.6517	2379.9	12738.65	11847.2
965.7825	2381.3019	12690.05	11797.7
965.9132	2382.7032	12669.95	11778.5
966.0439	2384.1037	12619.9	11729
966.1745	2385.5035	12580.45	11688.75
966.3051	2386.9027	12502.5	11612.8
966.4357	2388.3011	12479.9	11585.9
966.5663	2389.6987	12443.15	11552.1
966.6968	2391.0957	12382	11490.2
966.8273	2392.492	12324.8	11435.05
966.9578	2393.8876	12253.3	11363.6
967.0882	2395.2824	12231.85	11341.8
967.2186	2396.6765	12165.4	11276.5
967.349	2398.07	12092.45	11201.95
967.4793	2399.4627	12118.05	11225.05
967.6097	2400.8547	12023.65	11131.8
967.7399	2402.246	12020.5	11124.35
967.8702	2403.6366	11950.8	11057.8
968.0004	2405.0265	11881	10989.3
968.1306	2406.4156	11832.6	10934.25
968.2607	2407.8041	11787.95	10894.7
968.3909	2409.1918	11743.95	10851.05
968.521	2410.5789	11704.15	10813.35
968.651	2411.9652	11628.3	10735.8
968.781	2413.3508	11603.35	10710.35
968.911	2414.7358	11565.4	10674.6
969.041	2416.12	11505	10614.2
969.1709	2417.5035	11484.3	10594.85
969.3008	2418.8863	11433.85	10542.2
969.4307	2420.2684	11416.65	10526.8
969.5606	2421.6497	11337.15	10445.8
969.6904	2423.0304	11268.4	10378.7
969.8201	2424.4104	11252.75	10359.85
969.9499	2425.7896	11205	10306.9
970.0796	2427.1682	11191.85	10299.1
970.2093	2428.546	11147.05	10254.95
970.3389	2429.9232	11130.9	10239.3
970.4685	2431.2996	11111.1	10220.8
970.5981	2432.6753	11077.45	10186.2
970.7277	2434.0503	11005.75	10114.6
970.8572	2435.4246	10960.15	10068.7
970.9867	2436.7982	10931.4	10039.2
971.1161	2438.1711	10918	10026.05
971.2456	2439.5433	10875.4	9982.85
971.375	2440.9148	10827.05	9933.5
971.5043	2442.2856	10783.35	9892.45
971.6336	2443.6557	10749.55	9857.25
971.7629	2445.025	10735.15	9844.9
971.8922	2446.3937	10688.75	9797.7
972.0214	2447.7617	10634.8	9741.65
972.1506	2449.1289	10620.1	9730.1
972.2798	2450.4955	10577.95	9680.6
972.4089	2451.8613	10541.1	9650.25
972.538	2453.2265	10504.35	9612.8
972.6671	2454.5909	10475	9582.2
972.7961	2455.9546	10440.1	9550.55
972.9251	2457.3177	10385.8	9494.75
973.0541	2458.68	10377.8	9482.75
973.1831	2460.0416	10356.95	9465.9
973.312	2461.4025	10355.9	9462.75
973.4408	2462.7627	10313.25	9410.35
973.5697	2464.1222	10282.4	9391.3
973.6985	2465.4811	10245.15	9351.55
973.8273	2466.8392	10204.8	9313.1
973.956	2468.1966	10161.2	9267.15
974.0847	2469.5533	10149.1	9255.2
974.2134	2470.9093	10131.55	9240.3
974.3421	2472.2645	10092.7	9200
974.4707	2473.6191	10058	9166.15
974.5993	2474.973	9996.9	9103.8
974.7278	2476.3262	9968.9	9075.8
974.8563	2477.6787	9949.95	9060.3
974.9848	2479.0305	9899.35	9007.3
975.1132	2480.3816	9881.95	8987.75
975.2417	2481.7319	9852.45	8959.1
975.37	2483.0816	9780.95	8886.1
975.4984	2484.4306	9750	8857.65
975.6267	2485.7789	9711.35	8820
975.755	2487.1264	9679.3	8786.25
975.8833	2488.4733	9634.05	8744.35
976.0115	2489.8195	9587.15	8688.75
976.1397	2491.165	9541.25	8646.65
976.2678	2492.5097	9529.15	8636.65
976.3959	2493.8538	9503.7	8611.45
976.524	2495.1972	9429.55	8537.7
976.6521	2496.5398	9394.9	8501.3
976.7801	2497.8818	9380.25	8487.3
976.9081	2499.2231	9338.85	8445.9
977.036	2500.5637	9304.9	8410.95
977.164	2501.9035	9259.45	8367.1
977.2918	2503.2427	9227.25	8332.8
977.4197	2504.5812	9217.65	8324.55
977.5475	2505.919	9180.15	8287.6
977.6753	2507.256	9167	8274.8
977.8031	2508.5924	9127.6	8234.25
977.9308	2509.9281	9095.75	8199.85
978.0585	2511.2631	9051.8	8161.4
978.1861	2512.5974	9044.55	8153.2
978.3137	2513.9309	9011.1	8118
978.4413	2515.2638	9008	8082.2
978.5689	2516.596	8959.35	8067.4
978.6964	2517.9275	8920.35	8028.25
978.8239	2519.2583	8876.55	7983.15
978.9513	2520.5884	8817.9	7927.15
979.0788	2521.9178	8801.9	7907.85
979.2062	2523.2465	8779.05	7888.35
979.3335	2524.5745	8756.1	7865.75
979.4608	2525.9018	8701.25	7810.75
979.5881	2527.2284	8696.6	7805.85
979.7154	2528.5543	8676.05	7784.7
979.8426	2529.8796	8631.55	7738.75
979.9698	2531.2041	8615.3	7724.8
980.0969	2532.5279	8602.75	7710.5
980.224	2533.851	8574.9	7683.1
980.3511	2535.1735	8537.65	7645.75
980.4781	2536.4952	8525.2	7633.35
980.6052	2537.8163	8492.7	7601.25
980.7321	2539.1366	8467.65	7575
980.8591	2540.4562	8422.55	7529.35
980.986	2541.7752	8434.15	7542.25
981.1129	2543.0935	8406.35	7513
981.2397	2544.411	8387.5	7494.7
981.3665	2545.7279	8355.55	7464.2
981.4933	2547.0441	8334.35	7441.3
981.62	2548.3596	8320.5	7427.55
981.7467	2549.6744	8302.45	7411.2
981.8734	2550.9885	8274.55	7380.95
982.0001	2552.3019	8245.25	7353.55
982.1267	2553.6146	8221.2	7329.7
982.2532	2554.9266	8216.25	7323.45
982.3798	2556.2379	8164	7269.75
982.5063	2557.5485	8147.5	7256.25
982.6327	2558.8585	8128.95	7228.75
982.7592	2560.1677	8105.9	7211.35
982.8856	2561.4762	8095.05	7204.45
983.0119	2562.7841	8077.6	7180.7
983.1383	2564.0913	8036.55	7145.15
983.2646	2565.3977	8038.9	7147.95
983.3908	2566.7035	8016.1	7121.9
983.517	2568.0086	7993.7	7100.55
983.6432	2569.313	7992.85	7100.05
983.7694	2570.6167	7946.6	7052.55
983.8955	2571.9197	7936.45	7045.05
984.0216	2573.222	7935.55	7040.35
984.1476	2574.5236	7910.7	7019.25
984.2737	2575.8246	7855.2	6960.05
984.3996	2577.1248	7882.75	6988.95
984.5256	2578.4244	7852.3	6962.15
984.6515	2579.7232	7868.85	6978.45
984.7774	2581.0214	7825.15	6908.7
984.9032	2582.3189	7822.3	6930.75
985.029	2583.6157	7782.2	6886.15
985.1548	2584.9118	7767.5	6874.9
985.2806	2586.2072	7724.45	6830.45
985.4063	2587.5019	7703.8	6813.4
985.5319	2588.7959	7695.3	6803.6
985.6576	2590.0893	7670.8	6777.9
985.7832	2591.3819	7662.85	6770.2
985.9087	2592.6739	7608.95	6718
986.0343	2593.9652	7608.4	6715.25
986.1597	2595.2557	7568.6	6676.35
986.2852	2596.5456	7553.95	6659.95
986.4106	2597.8348	7510.1	6618.95
986.536	2599.1234	7490.9	6600.2
986.6614	2600.4112	7479.6	6588.05
986.7867	2601.6983	7457.15	6561.15
986.912	2602.9848	7418.95	6525.4
987.0372	2604.2705	7389.55	6491.5
987.1624	2605.5556	7367.45	6474.05
987.2876	2606.84	7348.05	6456.75
987.4128	2608.1237	7317.4	6425.1
987.5379	2609.4067	7283.8	6390.9
987.6629	2610.689	7265.6	6366.1
987.788	2611.9707	7254.9	6360.9
987.913	2613.2516	7230.4	6333.2
988.0379	2614.5319	7172.75	6280.75
988.1629	2615.8115	7155.15	6262.95
988.2878	2617.0903	7124.6	6231.8
988.4126	2618.3685	7098.65	6205.75
988.5375	2619.6461	7096.25	6203.55
988.6622	2620.9229	7074.55	6181.45
988.787	2622.199	7051.1	6158.4
988.9117	2623.4745	7019.45	6126.45
989.0364	2624.7493	6986	6092.75
989.161	2626.0234	6978.65	6087.85
989.2857	2627.2968	6931.55	6040.45
989.4102	2628.5695	6899.2	6005.1
989.5348	2629.8415	6892.25	5999.75
989.6593	2631.1128	6860.9	5965.8
989.7837	2632.3835	6818.55	5927.85
989.9082	2633.6535	6795.9	5903.7
990.0326	2634.9228	6775.55	5884.05
990.1569	2636.1914	6758.6	5866.7
990.2812	2637.4593	6745.7	5846.7
990.4055	2638.7265	6723.4	5828.4
990.5298	2639.9931	6694.95	5802.15
990.654	2641.259	6682.45	5788
990.7782	2642.5242	6660.85	5769.35
990.9023	2643.7887	6644.55	5753.25
991.0264	2645.0525	6627.65	5736.3
991.1505	2646.3156	6581.55	5688.35
991.2745	2647.5781	6557.05	5666.5
991.3985	2648.8398	6553.15	5661.8
991.5225	2650.1009	6533.95	5632.2
991.6464	2651.3613	6501.8	5608.65
991.7703	2652.6211	6483.05	5592.1
991.8942	2653.8801	6460.85	5570.7
992.018	2655.1385	6439.9	5545.55
992.1418	2656.3961	6442.5	5551.35
992.2655	2657.6531	6424.9	5532.7
992.3892	2658.9094	6417.7	5526
992.5129	2660.1651	6397.05	5505
992.6366	2661.42	6365.45	5474.15
992.7602	2662.6743	6346.15	5454.05
992.8837	2663.9279	6340.5	5448.8
993.0073	2665.1808	6307.3	5412.75
993.1307	2666.433	6301.65	5406.9
993.2542	2667.6846	6288.25	5397.3
993.3776	2668.9354	6274.8	5380.05
993.501	2670.1856	6257.4	5365.35
993.6244	2671.4351	6222.25	5330.75
993.7477	2672.6839	6224.25	5329.25
993.8709	2673.9321	6222.05	5332.8
993.9942	2675.1795	6201.9	5308.55
994.1174	2676.4263	6168.6	5276.6
994.2405	2677.6724	6159.2	5268.2
994.3637	2678.9179	6136.55	5244.05
994.4868	2680.1626	6112.25	5222.7
994.6098	2681.4067	6094.85	5202.9
994.7328	2682.6501	6087.4	5194.45
994.8558	2683.8928	6084	5192.6
994.9788	2685.1348	6040.4	5149.3
995.1017	2686.3761	6027.4	5136.15
995.2245	2687.6168	5996.7	5105.6
995.3474	2688.8568	5977.15	5082.25
995.4702	2690.0961	5944	5052.25
995.5929	2691.3348	5930.65	5038.3
995.7156	2692.5727	5912.5	5020.45
995.8383	2693.81	5910.95	5020.2
995.961	2695.0466	5885.3	4995
996.0836	2696.2826	5852.85	4959.5
996.2062	2697.5178	5840.7	4947.15
996.3287	2698.7524	5835.8	4943.25
996.4512	2699.9863	5828.3	4935.45
996.5737	2701.2195	5790.5	4898.9
996.6961	2702.452	5788.35	4894.1
996.8185	2703.6839	5778.4	4887.1
996.9408	2704.9151	5759.55	4869.1
997.0631	2706.1456	5732.9	4842.6
997.1854	2707.3755	5745.1	4851.3
997.3077	2708.6046	5711.95	4817.7
997.4299	2709.8331	5690.05	4796.85
997.552	2711.0609	5678.45	4785.1
997.6742	2712.2881	5679.7	4789
997.7963	2713.5145	5664.45	4771.15
997.9183	2714.7403	5650.05	4758.65
998.0403	2715.9654	5660.65	4767.35
998.1623	2717.1899	5637.15	4731.6
998.2842	2718.4136	5632.8	4741.1
998.4062	2719.6367	5625.25	4734.5
998.528	2720.8591	5606.3	4705.75
998.6498	2722.0809	5589.1	4695
998.7716	2723.3019	5580.85	4685.5
998.8934	2724.5223	5583.7	4690.85
999.0151	2725.7421	5551.95	4658.45
999.1368	2726.9611	5557.15	4663.65
999.2584	2728.1795	5530.8	4633.25
999.38	2729.3972	5507.05	4615.55
999.5016	2730.6142	5486.5	4587.15
999.6231	2731.8306	5450.2	4558.85
999.7446	2733.0462	5418.35	4523.2
999.8661	2734.2612	5374.35	4475.75
999.9875	2735.4756	5354.2	4459.15
1000.1089	2736.6892	5315.6	4423.25
1000.2302	2737.9022	5280	4390.3
1000.3515	2739.1145	5234.75	4344
1000.4728	2740.3262	5239.5	4340.15
1000.594	2741.5372	5179.7	4288.85
1000.7152	2742.7475	5166.3	4273.95
1000.8363	2743.9571	5161.65	4268.65
1000.9575	2745.1661	5137.95	4240.65
1001.0785	2746.3744	5108.95	4216.15
1001.1996	2747.582	5088.9	4197.4
1001.3206	2748.7889	5045.15	4153.5
1001.4415	2749.9952	5045.7	4154.15
1001.5625	2751.2008	5018	4125.25
1001.6833	2752.4057	5002.4	4108.7
1001.8042	2753.61	4981.65	4087.6
1001.925	2754.8136	4957.35	4064.3
1002.0458	2756.0165	4941.5	4048.7
1002.1665	2757.2188	4938.65	4045.6
1002.2872	2758.4204	4915.45	4023.7
1002.4078	2759.6213	4892.6	3997.45
1002.5285	2760.8215	4898.05	4001
1002.649	2762.0211	4883.4	3990.35
1002.7696	2763.22	4847.15	3951.35
1002.8901	2764.4182	4838.7	3944
1003.0106	2765.6158	4830.6	3939
1003.131	2766.8127	4803.25	3910
1003.2514	2768.009	4803.85	3912.5
1003.3717	2769.2045	4767.85	3875.3
1003.492	2770.3994	4778.05	3885.35
1003.6123	2771.5936	4740.65	3846.3
1003.7325	2772.7872	4726.75	3835.5
1003.8527	2773.9801	4705.65	3811.25
1003.9729	2775.1723	4706	3795.55
1004.093	2776.3639	4666.3	3775.95
1004.2131	2777.5548	4667.45	3774.1
1004.3331	2778.745	4661.7	3768.5
1004.4531	2779.9346	4650.65	3757.4
1004.5731	2781.1235	4631.1	3737
1004.693	2782.3117	4614.2	3723.6
1004.8129	2783.4992	4615.3	3724.4
1004.9328	2784.6861	4592.75	3700.25
1005.0526	2785.8723	4601.55	3708.5
1005.1723	2787.0579	4586.25	3693.4
1005.2921	2788.2428	4565.9	3674.15
1005.4118	2789.427	4561.85	3671.6
1005.5314	2790.6106	4555.55	3666
1005.651	2791.7935	4553.6	3662.65
1005.7706	2792.9757	4548.4	3654.95
1005.8902	2794.1573	4560.55	3667.6
1006.0097	2795.3382	4566.5	3674.55
1006.1291	2796.5184	4542	3652.35
1006.2485	2797.698	4560.35	3665.8
1006.3679	2798.8769	4564.9	3673.7
1006.4873	2800.0551	4573.5	3681.05
1006.6066	2801.2327	4572.3	3678.75
1006.7258	2802.4096	4561.85	3670.25
1006.8451	2803.5859	4563.6	3672.15
1006.9642	2804.7615	4567.7	3676.2
1007.0834	2805.9364	4602.3	3712.7
1007.2025	2807.1106	4610.4	3719.6
1007.3216	2808.2842	4608.5	3715.6
1007.4406	2809.4572	4629.75	3736.55
1007.5596	2810.6294	4650.35	3757.5
1007.6785	2811.801	4695.7	3804.05
1007.7975	2812.972	4729.3	3839.05
1007.9163	2814.1423	4728.6	3836.7
1008.0352	2815.3119	4793.35	3902.65
1008.154	2816.4808	4835.15	3944
1008.2727	2817.6491	4865.5	3975.35
1008.3914	2818.8167	4898.3	4008.6
1008.5101	2819.9837	4938.4	4041.9
1008.6288	2821.15	4956.9	4064.5
1008.7474	2822.3157	4989.55	4098.9
1008.8659	2823.4807	5029.6	4137.65
1008.9844	2824.645	5076.3	4183.9
1009.1029	2825.8086	5113.1	4222.7
1009.2214	2826.9716	5132.9	4243.5
1009.3398	2828.134	5175.85	4283.7
1009.4581	2829.2957	5221.5	4330
1009.5764	2830.4567	5232.85	4342.85
1009.6947	2831.617	5230	4337.25
1009.813	2832.7767	5259.3	4369.3
1009.9312	2833.9358	5236	4346.7
1010.0493	2835.0941	5214.8	4323.15
1010.1675	2836.2519	5190.45	4298.4
1010.2855	2837.4089	5189.2	4295.6
1010.4036	2838.5653	5170.75	4278.85
1010.5216	2839.7211	5167.85	4276.8
1010.6396	2840.8761	5158.95	4264.2
1010.7575	2842.0306	5176.85	4285.4
1010.8754	2843.1843	5205.5	4313.1
1010.9932	2844.3374	5240.2	4349.7
1011.111	2845.4899	5266.35	4373.1
1011.2288	2846.6417	5351.6	4459.45
1011.3465	2847.7928	5388.9	4496.65
1011.4642	2848.9433	5475.1	4583.7
1011.5818	2850.0931	5558.5	4666.9
1011.6995	2851.2422	5637.4	4743.35
1011.817	2852.3907	5689.1	4799.9
1011.9345	2853.5385	5758.95	4866.8
1012.052	2854.6857	5808.1	4886.7
1012.1695	2855.8323	5846.4	4955.1
1012.2869	2856.9781	5896.15	5004.8
1012.4042	2858.1233	5935.5	5043.25
1012.5216	2859.2679	5957.7	5066
1012.6389	2860.4118	5988.3	5095.6
1012.7561	2861.555	6026.9	5130.35
1012.8733	2862.6976	6048.3	5153.5
1012.9905	2863.8395	6056.5	5163.95
1013.1076	2864.9808	6073.9	5183.85
1013.2247	2866.1214	6079.5	5190.55
1013.3417	2867.2614	6096.5	5207.65
1013.4587	2868.4007	6078.2	5184.45
1013.5757	2869.5393	6087.85	5193.4
1013.6926	2870.6773	6088	5193.75
1013.8095	2871.8146	6084.2	5189.7
1013.9263	2872.9513	6072.8	5180.45
1014.0431	2874.0874	6052.95	5160.5
1014.1599	2875.2227	6046.8	5155.55
1014.2766	2876.3574	6030.55	5139.75
1014.3933	2877.4915	5987	5096.35
1014.51	2878.6249	5961.55	5070.95
1014.6266	2879.7577	5933.2	5040.25
1014.7431	2880.8898	5899.5	4997.45
1014.8596	2882.0212	5862.45	4971.6
1014.9761	2883.152	5835.8	4944
1015.0925	2884.2821	5794.05	4902.7
1015.2089	2885.4116	5767.45	4875.7
1015.3253	2886.5405	5776.85	4885
1015.4416	2887.6686	5795.3	4899.7
1015.5579	2888.7962	5758.65	4866.65
1015.6741	2889.923	5760.05	4868.95
1015.7903	2891.0493	5759	4868.1
1015.9065	2892.1748	5773.6	4882.45
1016.0226	2893.2997	5780.3	4888.75
1016.1387	2894.424	5780.7	4889.7
1016.2547	2895.5476	5788.3	4898.9
1016.3707	2896.6706	5783.6	4892.55
1016.4866	2897.7929	5801.15	4908.1
1016.6025	2898.9145	5836.05	4944.8
1016.7184	2900.0355	5860.8	4968.75
1016.8342	2901.1559	5879.1	4986.45
1016.95	2902.2756	5919.5	5029.1
1017.0658	2903.3946	5915	5022.8
1017.1815	2904.513	5949.75	5056.25
1017.2971	2905.6308	5957.05	5065.65
1017.4127	2906.7479	5972.6	5080.6
1017.5283	2907.8643	5996.25	5103.4
1017.6439	2908.9801	5985.6	5096.2
1017.7594	2910.0953	5987.9	5096.1
1017.8748	2911.2098	5968.75	5073.75
1017.9902	2912.3236	5976.3	5075.15
1018.1056	2913.4368	5917.5	5023.75
1018.2209	2914.5494	5900.9	5006.8
1018.3362	2915.6613	5901.8	5005.4
1018.4515	2916.7725	5871.7	4977.75
1018.5667	2917.8831	5827.3	4935.2
1018.6819	2918.9931	5785.95	4892.1
1018.797	2920.1024	5751.4	4858.85
1018.9121	2921.211	5702.8	4811.75
1019.0271	2922.319	5672.9	4782.1
1019.1421	2923.4264	5661	4771.55
1019.2571	2924.5331	5632.2	4740.55
1019.372	2925.6391	5603.9	4713.3
1019.4869	2926.7445	5602.85	4712.25
1019.6017	2927.8493	5572.45	4681.35
1019.7165	2928.9534	5560.25	4667
1019.8313	2930.0569	5547.55	4654.6
1019.946	2931.1597	5552.55	4659.4
1020.0606	2932.2619	5510.6	4619.2
1020.1753	2933.3634	5517.3	4626.1
1020.2899	2934.4643	5493.55	4592.95
1020.4044	2935.5645	5468.2	4569.15
1020.5189	2936.6641	5404.55	4508.1
1020.6334	2937.763	5364.4	4474.35
1020.7478	2938.8613	5296.15	4404.4
1020.8622	2939.959	5248.1	4350.2
1020.9765	2941.056	5169.2	4279.95
1021.0908	2942.1523	5063.4	4171
1021.2051	2943.248	4983.2	4090.7
1021.3193	2944.3431	4863	3972.9
1021.4334	2945.4375	4761.95	3869.9
1021.5476	2946.5313	4653.05	3763.9
1021.6617	2947.6244	4534.2	3642.35
1021.7757	2948.7169	4428.2	3535.8
1021.8897	2949.8087	4321.2	3431.05
1022.0037	2950.8999	4220.8	3328.35
1022.1176	2951.9904	4129.75	3237.65
1022.2315	2953.0803	4046.4	3155
1022.3453	2954.1696	3974.1	3082.8
1022.4591	2955.2582	3911.95	3021.95
1022.5728	2956.3462	3846.15	2955
1022.6865	2957.4335	3800.6	2908.55
1022.8002	2958.5202	3764.65	2871.45
1022.9138	2959.6062	3726	2834.1
1023.0274	2960.6916	3680.9	2790.45
1023.141	2961.7764	3668.45	2776.5
1023.2545	2962.8605	3637.95	2747.9
1023.3679	2963.9439	3607.95	2717.15
1023.4813	2965.0267	3598.5	2706
1023.5947	2966.1089	3606.65	2692.95
1023.708	2967.1905	3583.9	2692.45
1023.8213	2968.2714	3559.85	2669.9
1023.9346	2969.3516	3551.65	2661.45
1024.0478	2970.4312	3542.9	2645.95
1024.1609	2971.5102	3535.25	2643.95
1024.274	2972.5885	3533.35	2643.35
1024.3871	2973.6662	3527.15	2629.7
1024.5002	2974.7432	3515.05	2623.65
1024.6132	2975.8196	3494.05	2603.55
1024.7261	2976.8954	3460.65	2571.6
1024.839	2977.9705	3456.05	2564.95
1024.9519	2979.045	3439.35	2549.65
1025.0647	2980.1188	3424.85	2535.2
1025.1775	2981.192	3383	2491.8
1025.2902	2982.2645	3357.8	2464.9
1025.4029	2983.3364	3339.45	2450
1025.5156	2984.4077	3293.25	2401.55
1025.6282	2985.4783	3257.95	2363.45
1025.7407	2986.5483	3221.15	2330.85
1025.8532	2987.6177	3179.45	2288.95
1025.9657	2988.6864	3149.2	2259.35
1026.0782	2989.7545	3107.5	2216.5
1026.1906	2990.8219	3062.2	2172.35
1026.3029	2991.8887	3031.65	2139.25
1026.4152	2992.9548	2989.2	2096.85
1026.5275	2994.0204	2961.3	2070.75
1026.6397	2995.0852	2919	2026.6
1026.7519	2996.1495	2897.55	2006.55
1026.864	2997.2131	2882.9	1991.55
1026.9761	2998.276	2835.8	1945.35
1027.0882	2999.3383	2809.8	1918.45
1027.2002	3000.4	2774.3	1882.8
1027.3122	3001.4611	2758.05	1865.15
1027.4241	3002.5215	2746.5	1853.95
1027.536	3003.5812	2720.45	1831.1
1027.6478	3004.6404	2714.7	1822.6
1027.7596	3005.6989	2690.45	1798.95
1027.8714	3006.7567	2699.2	1809.05
1027.9831	3007.8139	2685.6	1769.65
1028.0947	3008.8705	2668.05	1776.7
1028.2064	3009.9264	2644.95	1749.85
1028.3179	3010.9818	2631.6	1740.4
1028.4295	3012.0364	2619.4	1727.95
1028.541	3013.0905	2613.4	1723.45
1028.6524	3014.1439	2616.75	1727.05
1028.7638	3015.1966	2595.5	1705.3
1028.8752	3016.2487	2593.5	1700.7
1028.9865	3017.3002	2598.65	1699.75
1029.0978	3018.3511	2583.6	1692.85
1029.209	3019.4013	2580.95	1690.25
1029.3202	3020.4509	2585.6	1695.65
1029.4314	3021.4998	2575.35	1685.15
1029.5425	3022.5481	2568.15	1677.35
1029.6535	3023.5958	2558.85	1667.2
1029.7645	3024.6428	2555.9	1665.85
1029.8755	3025.6892	2558.7	1668.7
1029.9864	3026.735	2559	1667.4
1030.0973	3027.7802	2551.5	1661.75
1030.2082	3028.8247	2546	1655.5
1030.319	3029.8685	2539.55	1647.75
1030.4297	3030.9118	2544.75	1652.55
1030.5404	3031.9544	2533.95	1644
1030.6511	3032.9963	2549.2	1658.85
1030.7617	3034.0376	2537.75	1647.85
1030.8723	3035.0783	2532.15	1638.65
1030.9829	3036.1184	2529.7	1639.9
1031.0934	3037.1578	2530.25	1641.15
1031.2038	3038.1966	2531.35	1639.05
1031.3142	3039.2348	2520.2	1630.7
1031.4246	3040.2723	2519.55	1618.7
1031.5349	3041.3092	2512.6	1621.9
1031.6452	3042.3455	2505.7	1612.95
1031.7554	3043.3811	2505.45	1613.15
1031.8656	3044.4161	2477.15	1584.6
1031.9758	3045.4505	2470.35	1581.15
1032.0859	3046.4842	2463.35	1571.3
1032.1959	3047.5173	2455.75	1566.95
1032.3059	3048.5498	2445.7	1556.65
1032.4159	3049.5816	2431.7	1542.5
1032.5258	3050.6128	2433.1	1540.9
1032.6357	3051.6434	2417.6	1525.15
1032.7455	3052.6734	2406.95	1513.4
1032.8553	3053.7027	2391	1499.25
1032.9651	3054.7314	2395.15	1504.6
1033.0748	3055.7594	2383.3	1492.4
1033.1845	3056.7868	2362.85	1471.45
1033.2941	3057.8136	2351.25	1461.25
1033.4037	3058.8398	2342.85	1453.05
1033.5132	3059.8653	2332.3	1442.85
1033.6227	3060.8902	2320.9	1431.1
1033.7321	3061.9145	2311.65	1420.5
1033.8415	3062.9381	2293.35	1402.6
1033.9509	3063.9612	2300.35	1392.6
1034.0602	3064.9835	2287.65	1394.05
1034.1694	3066.0053	2271.2	1377
1034.2787	3067.0264	2265.8	1376.35
1034.3878	3068.0469	2256.25	1364
1034.497	3069.0668	2237	1344.05
1034.6061	3070.086	2225.2	1336
1034.7151	3071.1046	2205.95	1316.65
1034.8241	3072.1226	2211	1319.45
1034.9331	3073.1399	2190.7	1300.35
1035.042	3074.1567	2177.3	1286
1035.1508	3075.1727	2167.6	1276.05
1035.2597	3076.1882	2145.35	1254.8
1035.3684	3077.203	2130.7	1240.7
1035.4772	3078.2173	2131.3	1238.75
1035.5859	3079.2308	2123.45	1229.65
1035.6945	3080.2438	2111.4	1217.65
1035.8031	3081.2561	2093.5	1203.4
1035.9117	3082.2678	2081.95	1192.35
1036.0202	3083.2789	2068.75	1179.1
1036.1286	3084.2893	2059.8	1168.85
1036.2371	3085.2991	2040.75	1149.5
1036.3454	3086.3083	2047	1154.25
1036.4538	3087.3169	2032.45	1141.65
1036.562	3088.3248	2030.5	1138.6
1036.6703	3089.3321	2016.1	1125.25
1036.7785	3090.3388	2003.05	1114.9
1036.8866	3091.3449	1993.6	1103.1
1036.9948	3092.3503	1988.75	1095.25
1037.1028	3093.3551	1976.6	1089.05
1037.2108	3094.3593	1969.8	1081.25
1037.3188	3095.3629	1967.1	1077.4
1037.4267	3096.3658	1955	1064.45
1037.5346	3097.3681	1951.45	1061.85
1037.6425	3098.3698	1946.1	1053
1037.7503	3099.3708	1946.3	1049.15
1037.858	3100.3713	1932.5	1043.95
1037.9657	3101.3711	1929.3	1036.35
1038.0734	3102.3702	2025.15	1018.5
1038.181	3103.3688	1913.8	1022.15
1038.2886	3104.3667	1898.7	1009.25
1038.3961	3105.364	1897.2	1008.8
1038.5036	3106.3607	1890.2	999
1038.611	3107.3568	1885.15	992.65
1038.7184	3108.3522	1872.75	984
1038.8257	3109.347	1872.9	979.85
1038.933	3110.3412	1866.55	973.8
1039.0403	3111.3348	1854.7	965.05
1039.1475	3112.3277	1854.25	964.7
1039.2547	3113.32	1843.85	953.4
1039.3618	3114.3117	1847.2	956.05
1039.4689	3115.3028	1835.5	945.1
1039.5759	3116.2932	1827.4	933.9
1039.6829	3117.2831	1829.8	931.75
1039.7898	3118.2723	1830.3	940.1
1039.8967	3119.2608	1815.7	926.6
1040.0035	3120.2488	1808.1	919
1040.1103	3121.2361	1809.25	918.3
1040.2171	3122.2229	1791.3	900.45
1040.3238	3123.209	1795.9	905.7
1040.4305	3124.1944	1785.05	895.55
1040.5371	3125.1793	1782.35	889.65
1040.6437	3126.1635	1776.85	887.15
1040.7502	3127.1471	1777.4	887.7
1040.8567	3128.1301	1762.35	873.2
1040.9631	3129.1125	1765	874.2
1041.0695	3130.0942	1766.9	877.55
1041.1759	3131.0753	1764.45	866.15
1041.2822	3132.0558	1755.9	863.05
1041.3884	3133.0357	1748.7	856.75
1041.4946	3134.015	1738.9	847.8
1041.6008	3134.9936	1747.1	854
1041.7069	3135.9716	1754.75	843.1
1041.813	3136.949	1724.15	832.2
1041.919	3137.9258	1736.8	843
1042.025	3138.902	1730.45	835.7
1042.1309	3139.8775	1720.85	829.95
1042.2368	3140.8524	1706.65	815.75
1042.3427	3141.8267	1713.3	820.35
1042.4485	3142.8004	1710.3	822.6
1042.5542	3143.7735	1713.1	817.75
1042.6599	3144.7459	1703.7	810.75
1042.7656	3145.7178	1693.1	802.2
1042.8712	3146.689	1687.6	798.05
1042.9768	3147.6596	1698.1	807
1043.0823	3148.6295	1683.7	793.05
1043.1878	3149.5989	1679.35	789.1
1043.2932	3150.5676	1678.3	789.5
1043.3986	3151.5357	1665.6	777.65
1043.5039	3152.5032	1660.45	771.6
1043.6092	3153.4701	1657	766.85
1043.7145	3154.4364	1658.1	767.25
1043.8197	3155.402	1652.5	763.2
1043.9248	3156.367	1647.35	755
1044.03	3157.3315	1681.9	749.55
1044.135	3158.2952	1642.05	749.85
1044.24	3159.2584	1632.9	742.4
1044.345	3160.221	1622.2	732.5
1044.4499	3161.1829	1615.8	724.3
1044.5548	3162.1442	1614.7	726.05
1044.6596	3163.105	1614	723.25
1044.7644	3164.065	1608.6	717.9
1044.8692	3165.0245	1603.3	709.5
1044.9739	3165.9834	1598.5	708.25
1045.0785	3166.9416	1598.9	709.35
1045.1831	3167.8993	1592.9	701.2
1045.2877	3168.8563	1593.7	702.7
1045.3922	3169.8127	1588.75	700.95
1045.4966	3170.7684	1582.2	694.75
1045.6011	3171.7236	1584.85	694.5
1045.7054	3172.6782	1567.5	677
1045.8098	3173.6321	1571.15	680.15
1045.914	3174.5854	1576.25	680.6
1046.0183	3175.5381	1559.15	668.8
1046.1224	3176.4902	1568.05	676.95
1046.2266	3177.4417	1553.95	666.25
1046.3307	3178.3926	1544.6	656.65
1046.4347	3179.3428	1551.95	664.35
1046.5387	3180.2924	1541.75	652.55
1046.6427	3181.2415	1540.7	650.7
1046.7466	3182.1899	1533.5	643.25
1046.8504	3183.1377	1531.6	639.25
1046.9542	3184.0848	1528.35	636.15
1047.058	3185.0314	1528.75	639.4
1047.1617	3185.9773	1525.9	634.4
1047.2654	3186.9227	1530.7	639.7
1047.369	3187.8674	1518.4	627.95
1047.4726	3188.8115	1516.05	623.05
1047.5761	3189.755	1514.4	624.65
1047.6796	3190.6979	1503.1	613.25
1047.783	3191.6402	1503.55	612.85
1047.8864	3192.5818	1504.1	613.85
1047.9898	3193.5229	1519.85	608.75
1048.0931	3194.4633	1502.2	611.85
1048.1963	3195.4031	1493.6	600.85
1048.2995	3196.3423	1485.45	596.25
1048.4027	3197.2809	1481.1	591.05
1048.5058	3198.2189	1486.5	595.05
1048.6089	3199.1563	1484.4	587.35
1048.7119	3200.0931	1471.4	582.65
1048.8148	3201.0292	1470.55	582.35
1048.9178	3201.9648	1471.55	580.8
1049.0206	3202.8997	1470.4	578.5
1049.1235	3203.834	1465.4	573.9
1049.2262	3204.7677	1463.9	572.75
1049.329	3205.7008	1454.05	562.2
1049.4317	3206.6333	1451.4	562.95
1049.5343	3207.5652	1453.7	561.95
1049.6369	3208.4964	1451.5	559.25
1049.7394	3209.4271	1444.05	556.6
1049.8419	3210.3571	1441.05	552.45
1049.9444	3211.2865	1435.8	548.3
1050.0468	3212.2154	1437.5	547.95
1050.1491	3213.1436	1439.25	546.35
1050.2514	3214.0712	1453.05	554.15
1050.3537	3214.9982	1435.95	546.8
1050.4559	3215.9246	1434.6	543.1
1050.5581	3216.8503	1428.7	539.2
1050.6602	3217.7755	1424.65	534.1
1050.7623	3218.7001	1424.7	534.8
1050.8643	3219.624	1422.3	533.2
1050.9663	3220.5473	1413.35	524.55
1051.0682	3221.4701	1414.55	523.15
1051.1701	3222.3922	1410.15	517.6
1051.2719	3223.3137	1412.3	520.3
1051.3737	3224.2346	1408.2	519.2
1051.4754	3225.1549	1405.7	517.9
1051.5771	3226.0746	1401.9	512.1
1051.6788	3226.9937	1397.45	509.8
1051.7804	3227.9121	1387.8	499.6
1051.8819	3228.83	1392.85	505.1
1051.9834	3229.7473	1390.85	502.3
1052.0849	3230.6639	1387.1	497.8
1052.1863	3231.5799	1382.3	491.5
1052.2876	3232.4954	1377.55	487.6
1052.3889	3233.4102	1381.5	490.7
1052.4902	3234.3244	1372.05	481
1052.5914	3235.238	1371.6	483.65
1052.6926	3236.151	1392.1	480.9
1052.7937	3237.0634	1364.35	475.5
1052.8948	3237.9752	1361.5	473
1052.9958	3238.8864	1354.95	464.9
1053.0968	3239.797	1360.15	470.6
1053.1977	3240.7069	1356.05	464.6
1053.2986	3241.6163	1354.35	461.05
1053.3994	3242.5251	1351.8	464.5
1053.5002	3243.4332	1346.7	458.65
1053.6009	3244.3408	1342.9	452.7
1053.7016	3245.2477	1344.85	456.7
1053.8022	3246.154	1340.2	449.65
1053.9028	3247.0598	1336.7	446.75
1054.0034	3247.9649	1336.35	446.5
1054.1039	3248.8694	1332.75	442.85
1054.2043	3249.7733	1327	437.45
1054.3047	3250.6766	1327.2	438.05
1054.4051	3251.5793	1321.1	431.2
1054.5054	3252.4814	1310.65	422.05
1054.6056	3253.3829	1313.65	425.4
1054.7058	3254.2838	1312.7	424
1054.806	3255.1841	1308.4	418.6
1054.9061	3256.0838	1303.25	413.55
1055.0061	3256.9829	1302.45	413.15
1055.1062	3257.8814	1297.65	407.2
1055.2061	3258.7792	1297.75	406.6
1055.306	3259.6765	1292.8	401.3
1055.4059	3260.5731	1286.5	397.75
1055.5057	3261.4692	1283	393.75
1055.6055	3262.3647	1280.2	389.5
1055.7052	3263.2595	1270.15	381.25
1055.8049	3264.1538	1262.35	373.4
1055.9045	3265.0474	1262.95	372.45
1056.0041	3265.9404	1249.15	360.75
1056.1036	3266.8329	1248.35	361.3
1056.2031	3267.7247	1256.2	356.6
1056.3025	3268.616	1234.05	345.3
1056.4019	3269.5066	1228.75	340.1
1056.5013	3270.3966	1218.15	325.9
1056.6005	3271.286	1206	320.05
