Software Version:	3.9.2.0
Unit SN:	10000200
Spectrometer SN:	6960
Date:	3/6/2024 10:33:32 AM
Data Line Index:	25
Spectral Points:	2048
Integration time (ms):	125
Averages:	20
Delay (ms):	30
Sequence Number:	1
Processing:	dark subtract
Laser Power (mW):	300
Laser Current (mA):	824
Laser Diode Temp (C):	25.1
Laser Case Temp (C):	26.4
System Temp (C):	26.2
Spectrometer Temp (C):	23.7
CCD Temp (C):	0.002
Secondary Temp (C):	20.008
Heatsink Temp (C):	21.803
CCDPCB Temp (C):	36.062
SecondaryPCB Temp (C):	30.204

Wavelength	RamanShift	Raw Counts	Dark Subtracted
787.061	30.1047	1144.55	733.7
787.2016	32.3739	1176.6	768.7
787.3422	34.6426	1211.8	800.8
787.4828	36.9109	1265.1	851.4
787.6235	39.1787	1322.65	906.25
787.7642	41.4461	1383.15	960.6
787.9049	43.7131	1443.35	1017.4
788.0456	45.9796	1510.8	1081.8
788.1863	48.2456	1576.35	1144.45
788.3271	50.5112	1643.95	1207.8
788.4679	52.7764	1721.6	1283.25
788.6087	55.0411	1801.2	1357.4
788.7496	57.3054	1888.65	1441.45
788.8904	59.5692	1971.05	1519.55
789.0313	61.8326	2073.6	1620.65
789.1722	64.0955	2191.65	1734.55
789.3132	66.3579	2309.25	1848
789.4541	68.6199	2456.85	1991.6
789.5951	70.8815	2717.95	2248.45
789.7361	73.1426	3241.35	2768.35
789.8771	75.4032	4604.05	4123.95
790.0181	77.6634	8076.7	7595.9
790.1592	79.9231	17358.3	16871.8
790.3003	82.1824	56229	55729.35
790.4414	84.4412	65535	65012.75
790.5825	86.6995	65535	64983.45
790.7237	88.9574	65535	64958.45
790.8648	91.2148	65535	64938.25
791.006	93.4717	65535	64930.3
791.1472	95.7282	65535	64921.45
791.2885	97.9842	65535	64920.3
791.4297	100.2398	65535	64909.75
791.571	102.4949	65535	64911.3
791.7123	104.7495	65535	64910.2
791.8536	107.0036	65535	64907.4
791.9949	109.2573	65535	64907.95
792.1363	111.5105	65535	64904.25
792.2777	113.7632	65535	64906.05
792.4191	116.0154	65535	64895.25
792.5605	118.2672	65535	64901.5
792.7019	120.5185	65535	64900.5
792.8434	122.7693	65535	64894.6
792.9849	125.0197	65535	64893.45
793.1264	127.2696	65535	64888.05
793.2679	129.519	65535	64884.2
793.4094	131.7679	65535	64882.1
793.551	134.0163	65535	64878.7
793.6926	136.2642	65535	64874.4
793.8342	138.5117	65535	64864.65
793.9758	140.7587	65535	64874.15
794.1175	143.0052	65535	64867.05
794.2591	145.2512	65535	64869.45
794.4008	147.4967	65535	64866.85
794.5425	149.7417	65535	64864.6
794.6842	151.9863	65535	64861.1
794.826	154.2304	65535	64859.45
794.9677	156.4739	65535	64850.45
795.1095	158.717	65535	64855.3
795.2513	160.9596	65535	64846.05
795.3931	163.2017	65535	64845.9
795.535	165.4433	65535	64844.35
795.6768	167.6844	65535	64843.35
795.8187	169.925	65535	64840.1
795.9606	172.1651	65535	64839.2
796.1025	174.4047	65535	64833.9
796.2445	176.6439	65535	64833.5
796.3864	178.8825	65535	64829.55
796.5284	181.1206	65535	64826.45
796.6704	183.3582	65535	64821.8
796.8124	185.5954	65535	64821.8
796.9544	187.832	65535	64818.1
797.0965	190.0681	65535	64815.55
797.2386	192.3037	65535	64812.65
797.3806	194.5388	65535	64805.35
797.5228	196.7734	65535	64807.6
797.6649	199.0075	65535	64805.4
797.807	201.2411	65535	64803
797.9492	203.4742	65535	64803.4
798.0914	205.7068	65535	64794.4
798.2336	207.9389	65535	64795.1
798.3758	210.1704	65535	64793.55
798.518	212.4015	65535	64798.3
798.6603	214.632	65535	64815
798.8025	216.862	65535	64818.55
798.9448	219.0915	65535	64816.2
799.0871	221.3205	65535	64811.9
799.2294	223.549	65535	64818.45
799.3718	225.777	65535	64817.8
799.5141	228.0044	65535	64813.3
799.6565	230.2314	65535	64812.35
799.7989	232.4578	65535	64805.05
799.9413	234.6837	65535	64800.9
800.0837	236.909	65535	64800.5
800.2262	239.1339	65535	64775.8
800.3687	241.3582	65535	64789.45
800.5111	243.582	65535	64756.1
800.6536	245.8053	65535	64772.45
800.7961	248.0281	65535	64780.55
800.9387	250.2503	65535	64771.55
801.0812	252.472	65535	64765.5
801.2238	254.6932	65535	64769.2
801.3664	256.9139	65535	64769.7
801.509	259.134	65535	64764.4
801.6516	261.3536	65535	64768.2
801.7942	263.5727	65535	64763.85
801.9369	265.7912	65535	64766.7
802.0795	268.0092	65535	64765.95
802.2222	270.2267	65535	64761.35
802.3649	272.4436	65535	64762.9
802.5076	274.6601	65535	64752.15
802.6504	276.8759	65535	64758.65
802.7931	279.0913	65535	64755.9
802.9359	281.3061	65535	64756.95
803.0787	283.5204	65535	64754.45
803.2215	285.7341	65535	64748.1
803.3643	287.9473	65535	64738.9
803.5071	290.16	65535	64744.55
803.6499	292.3721	65535	64749.4
803.7928	294.5837	65535	64752.35
803.9357	296.7947	65535	64745.8
804.0786	299.0052	65535	64748.1
804.2215	301.2152	65535	64747.9
804.3644	303.4246	65535	64750.4
804.5074	305.6334	65535	64747.55
804.6503	307.8418	65535	64747.3
804.7933	310.0495	65535	64743.3
804.9363	312.2568	65535	64744.5
805.0793	314.4635	65535	64742.75
805.2223	316.6696	65535	64740.2
805.3653	318.8752	65535	64732.65
805.5084	321.0802	65535	64739.7
805.6514	323.2847	65535	64739.75
805.7945	325.4887	65535	64737.5
805.9376	327.692	65535	64738.55
806.0807	329.8949	65535	64733.65
806.2238	332.0972	65535	64732.6
806.367	334.2989	65535	64728.9
806.5101	336.5001	65535	64727.45
806.6533	338.7007	65535	64727.65
806.7965	340.9008	65535	64727.5
806.9397	343.1003	65535	64729
807.0829	345.2992	65535	64726.8
807.2261	347.4976	65535	64722.65
807.3693	349.6955	65535	64716.55
807.5126	351.8927	65535	64719
807.6559	354.0895	65535	64707.65
807.7991	356.2856	65535	64718.55
807.9424	358.4812	65535	64717.8
808.0857	360.6763	65535	64714.85
808.2291	362.8707	65535	64714.8
808.3724	365.0646	65535	64710.8
808.5158	367.258	65535	64708
808.6591	369.4508	65535	64706.8
808.8025	371.643	65535	64708
808.9459	373.8346	65535	64702.05
809.0893	376.0257	65535	64701.1
809.2327	378.2162	65535	64699.1
809.3762	380.4062	65535	64698.7
809.5196	382.5956	65535	64698.9
809.6631	384.7844	65535	64701.55
809.8066	386.9726	65535	64702.85
809.9501	389.1603	65535	64709.25
810.0936	391.3474	65535	64667.35
810.2371	393.5339	65535	64711.15
810.3806	395.7199	65535	64710.9
810.5241	397.9052	65535	64713.3
810.6677	400.09	65535	64709.6
810.8113	402.2743	65535	64708.6
810.9548	404.4579	65535	64710.35
811.0984	406.641	65535	64710.7
811.2421	408.8235	65535	64707.5
811.3857	411.0054	65535	64704
811.5293	413.1868	65535	64701.25
811.673	415.3675	65535	64702.4
811.8166	417.5477	65535	64697.4
811.9603	419.7273	65535	64692.45
812.104	421.9064	65535	64688.75
812.2477	424.0848	65535	64694.4
812.3914	426.2627	65535	64693.95
812.5351	428.4399	65535	64692.5
812.6788	430.6166	65535	64686
812.8226	432.7928	65535	64686.95
812.9663	434.9683	65535	64690.25
813.1101	437.1432	65535	64683.5
813.2539	439.3176	65535	64685.65
813.3977	441.4914	65535	64689.7
813.5415	443.6645	65535	64683.75
813.6853	445.8371	65535	64685.95
813.8291	448.0091	65535	64691.6
813.973	450.1806	65535	64685.5
814.1168	452.3514	65535	64681.8
814.2607	454.5216	65535	64675.7
814.4046	456.6913	65535	64683.85
814.5485	458.8603	65535	64682.8
814.6924	461.0288	65535	64684.85
814.8363	463.1967	65535	64684.05
814.9802	465.3639	65535	64681.75
815.1241	467.5306	65535	64683.8
815.2681	469.6967	65535	64686.35
815.412	471.8622	65535	64684.1
815.556	474.0271	65535	64685.3
815.7	476.1914	65535	64679.85
815.844	478.3551	65535	64680.3
815.988	480.5182	65535	64680.25
816.132	482.6807	65535	64681.45
816.276	484.8426	65535	64681.2
816.4201	487.0039	65535	64681.2
816.5641	489.1647	65535	64676.4
816.7082	491.3248	65535	64678.1
816.8522	493.4843	65535	64676.3
816.9963	495.6432	65535	64678.4
817.1404	497.8015	65535	64672.75
817.2845	499.9592	65535	64674.55
817.4286	502.1163	65535	64675.2
817.5727	504.2728	65535	64671.95
817.7168	506.4287	65535	64672.9
817.861	508.5839	65535	64674.55
818.0051	510.7386	65535	64677.55
818.1493	512.8927	65535	64668.8
818.2935	515.0461	65535	64672.85
818.4377	517.199	65535	64670.7
818.5818	519.3512	65535	64672.55
818.726	521.5029	65535	64665.8
818.8703	523.6539	65535	64669.65
819.0145	525.8043	65535	64669
819.1587	527.9541	65535	64664.85
819.303	530.1033	65535	64665.35
819.4472	532.2519	65535	64666.85
819.5915	534.3999	65535	64666.75
819.7357	536.5472	65535	64666.45
819.88	538.694	65535	64667.2
820.0243	540.8401	65535	64664.15
820.1686	542.9856	65535	64661.55
820.3129	545.1305	65535	64661.1
820.4572	547.2748	65535	64660.55
820.6016	549.4185	65535	64659.85
820.7459	551.5615	65535	64662.75
820.8902	553.704	65535	64659.65
821.0346	555.8458	65535	64663.45
821.1789	557.987	65535	64664
821.3233	560.1276	65535	64664.3
821.4677	562.2675	65535	64665.9
821.6121	564.4069	65535	64663.9
821.7565	566.5456	65535	64664.1
821.9009	568.6837	65535	64661.75
822.0453	570.8212	65535	64664.65
822.1897	572.958	65535	64659.85
822.3342	575.0942	65535	64660.6
822.4786	577.2299	65535	64662.1
822.6231	579.3648	65535	64663.3
822.7675	581.4992	65535	64664.4
822.912	583.6329	65535	64664.85
823.0565	585.766	65535	64664.4
823.201	587.8985	65535	64664.5
823.3454	590.0304	65535	64634
823.4899	592.1616	65535	64657.2
823.6345	594.2922	65535	64655.4
823.779	596.4222	65535	64656.35
823.9235	598.5515	65535	64654.45
824.068	600.6802	65535	64654.5
824.2126	602.8083	65535	64655.2
824.3571	604.9358	65535	64655.3
824.5017	607.0626	65535	64654.2
824.6462	609.1888	65535	64652.7
824.7908	611.3144	65535	64657.8
824.9354	613.4393	65535	64653.75
825.08	615.5636	65535	64650.15
825.2246	617.6873	65535	64656.65
825.3692	619.8103	65535	64652
825.5138	621.9327	65535	64652.3
825.6584	624.0544	65535	64655.65
825.803	626.1756	65535	64654.3
825.9477	628.2961	65535	64653.05
826.0923	630.4159	65535	64652.5
826.237	632.5351	65535	64652.3
826.3816	634.6537	65535	64649.7
826.5263	636.7716	65535	64648.05
826.6709	638.8889	65535	64651.1
826.8156	641.0056	65535	64650.8
826.9603	643.1216	65535	64648.6
827.105	645.237	65535	64647.05
827.2497	647.3518	65535	64649.05
827.3944	649.4659	65535	64654.05
827.5391	651.5793	65535	64647.65
827.6838	653.6922	65535	64652.75
827.8285	655.8043	65535	64652
827.9733	657.9159	65535	64651.55
828.118	660.0268	65535	64646.35
828.2627	662.137	65535	64649.85
828.4075	664.2466	65535	64647.35
828.5522	666.3556	65535	64644.55
828.697	668.4639	65535	64645.95
828.8418	670.5716	65535	64646.1
828.9865	672.6786	65535	64647.25
829.1313	674.785	65535	64645.85
829.2761	676.8907	65535	64646.2
829.4209	678.9958	65535	64647.5
829.5657	681.1002	65535	64645.15
829.7105	683.204	65535	64642.85
829.8553	685.3072	65535	64646.5
830.0001	687.4097	65535	64645.8
830.1449	689.5115	65535	64642.25
830.2898	691.6127	65535	64646.8
830.4346	693.7132	65535	64647.25
830.5794	695.8131	65535	64636.85
830.7243	697.9123	65535	64641.2
830.8691	700.0109	65535	64644.85
831.014	702.1089	65535	64642.05
831.1588	704.2061	65535	64641.3
831.3037	706.3028	65535	64641.65
831.4486	708.3987	65535	64643
831.5935	710.4941	65535	64642.75
831.7383	712.5887	65535	64641.7
831.8832	714.6827	65535	64641.6
832.0281	716.7761	65535	64641.5
832.173	718.8688	65535	64640.75
832.3179	720.9608	65535	64635.35
832.4628	723.0522	65535	64634.7
832.6077	725.1429	65535	64642.05
832.7527	727.233	65535	64639.1
832.8976	729.3224	65535	64642.2
833.0425	731.4112	65535	64641.35
833.1874	733.4993	65535	64637.8
833.3324	735.5867	65535	64640.25
833.4773	737.6735	65535	64638
833.6222	739.7596	65535	64636
833.7672	741.845	65535	64641
833.9122	743.9298	65535	64638.85
834.0571	746.014	65535	64638.95
834.2021	748.0974	65535	64634.3
834.347	750.1802	65535	64636.7
834.492	752.2624	65535	64637.85
834.637	754.3439	65535	64637.85
834.782	756.4247	65535	64629.05
834.9269	758.5048	65535	64638.4
835.0719	760.5843	65535	64634.15
835.2169	762.6631	65535	64638.05
835.3619	764.7413	65535	64635.3
835.5069	766.8188	65535	64636
835.6519	768.8956	65535	64633.95
835.7969	770.9718	65535	64637.65
835.9419	773.0473	65535	64637.2
836.0869	775.1221	65535	64638.45
836.232	777.1962	65535	64637.2
836.377	779.2697	65535	64638.9
836.522	781.3426	65535	64618.4
836.667	783.4147	65535	64632.75
836.8121	785.4862	65535	64634.55
836.9571	787.557	65535	64633.95
837.1021	789.6271	65535	64634
837.2472	791.6966	65535	64633.45
837.3922	793.7654	65535	64635.45
837.5373	795.8335	65535	64637.45
837.6823	797.901	65535	64637.8
837.8274	799.9678	65535	64635.05
837.9724	802.0339	65535	64634.55
838.1175	804.0993	65535	64627.6
838.2626	806.1641	65535	64633.25
838.4076	808.2282	65535	64637.1
838.5527	810.2916	65535	64634.5
838.6978	812.3544	65535	64639
838.8428	814.4164	65535	64636.45
838.9879	816.4778	65535	64634.2
839.133	818.5385	65535	64635.15
839.2781	820.5986	65535	64632.55
839.4232	822.658	65535	64632
839.5682	824.7166	65535	64637.15
839.7133	826.7747	65535	64633.2
839.8584	828.832	65535	64636.25
840.0035	830.8886	65535	64632.1
840.1486	832.9446	65535	64632.4
840.2937	834.9999	65535	64632.95
840.4388	837.0545	65535	64628.05
840.5839	839.1085	65535	64634.65
840.729	841.1618	65535	64630.15
840.8741	843.2143	65535	64633.1
841.0192	845.2662	65535	64633.45
841.1643	847.3175	65535	64634.5
841.3095	849.368	65535	64634.5
841.4546	851.4179	65535	64632.25
841.5997	853.467	65535	64631.1
841.7448	855.5155	65535	64631.25
841.8899	857.5633	65535	64633
842.0351	859.6105	65535	64631.1
842.1802	861.6569	65535	64634
842.3253	863.7027	65535	64632.6
842.4704	865.7478	65535	64632.75
842.6156	867.7922	65535	64632
842.7607	869.8359	65535	64630.3
842.9058	871.8789	65535	64630.5
843.0509	873.9212	65535	64598.7
843.1961	875.9629	65535	64629.7
843.3412	878.0039	65535	64630.15
843.4863	880.0441	65535	64634
843.6315	882.0837	65535	64631.25
843.7766	884.1226	65535	64631.05
843.9218	886.1609	65535	64629.15
844.0669	888.1984	65535	64632.75
844.212	890.2352	65535	64635.05
844.3572	892.2714	65535	64627.45
844.5023	894.3069	65535	64631.3
844.6475	896.3416	65535	64628.95
844.7926	898.3757	65535	64629.15
844.9377	900.4091	65535	64632.4
845.0829	902.4418	65535	64628.85
845.228	904.4739	65535	64628.85
845.3732	906.5052	65535	64627.05
845.5183	908.5358	65535	64631
845.6635	910.5658	65535	64628.1
845.8086	912.595	65535	64630.1
845.9538	914.6236	65535	64630.2
846.0989	916.6515	65535	64628.95
846.2441	918.6786	65535	64629.25
846.3892	920.7051	65535	64628.55
846.5344	922.7309	65535	64630.55
846.6795	924.756	65535	64629.5
846.8246	926.7804	65535	64626.9
846.9698	928.8041	65535	64625.65
847.1149	930.8272	65535	64628.95
847.2601	932.8495	65535	64627.9
847.4052	934.8711	65535	64629.45
847.5504	936.892	65535	64630.05
847.6955	938.9123	65535	64629.45
847.8407	940.9318	65535	64631.15
847.9858	942.9506	65535	64628.8
848.131	944.9688	65535	64631.1
848.2761	946.9862	65535	64630.65
848.4213	949.003	65535	64628.3
848.5664	951.019	65535	64627.35
848.7115	953.0344	65535	64630.15
848.8567	955.0491	65535	64627.65
849.0018	957.063	65535	64630.6
849.147	959.0763	65535	64631.3
849.2921	961.0888	65535	64627.65
849.4373	963.1007	65535	64627.9
849.5824	965.1119	65535	64631.75
849.7275	967.1223	65535	64631.95
849.8727	969.1321	65535	64629.75
850.0178	971.1412	65535	64632.4
850.1629	973.1495	65535	64631.2
850.3081	975.1572	65535	64598.15
850.4532	977.1641	65535	64629.75
850.5983	979.1704	65535	64628.45
850.7435	981.1759	65535	64626.4
850.8886	983.1808	65535	64627.65
851.0337	985.1849	65535	64619.9
851.1788	987.1884	65535	64626.4
851.324	989.1911	65535	64626.9
851.4691	991.1932	65535	64626.2
851.6142	993.1945	65535	64628.45
851.7593	995.1951	65535	64630.95
851.9045	997.1951	65535	64622.2
852.0496	999.1943	65535	64629.2
852.1947	1001.1928	65535	64629.15
852.3398	1003.1906	65535	64629.25
852.4849	1005.1877	65535	64625.85
852.63	1007.1841	65535	64629.25
852.7751	1009.1798	65535	64630.7
852.9202	1011.1748	65535	64629.15
853.0653	1013.1691	65535	64627.65
853.2104	1015.1627	65535	64629.55
853.3555	1017.1556	65535	64631.75
853.5006	1019.1477	65535	64625.6
853.6457	1021.1392	65535	64632.15
853.7908	1023.1299	65535	64629.75
853.9359	1025.12	65535	64629.85
854.081	1027.1093	65535	64633.85
854.2261	1029.0979	65535	64635.6
854.3712	1031.0859	65535	64634.45
854.5163	1033.0731	65535	64632.95
854.6613	1035.0596	65535	64632.2
854.8064	1037.0454	65535	64632.55
854.9515	1039.0304	65535	64629.3
855.0965	1041.0148	65535	64631.35
855.2416	1042.9985	65535	64630.3
855.3867	1044.9814	65535	64631.8
855.5317	1046.9636	65535	64630.35
855.6768	1048.9452	65535	64630.65
855.8219	1050.926	65535	64632.25
855.9669	1052.9061	65535	64630.55
856.112	1054.8855	65535	64629.9
856.257	1056.8642	65535	64631.85
856.4021	1058.8421	65535	64624.95
856.5471	1060.8194	65535	64626.65
856.6921	1062.7959	65535	64627.4
856.8372	1064.7717	65535	64628.65
856.9822	1066.7469	65535	64630.2
857.1272	1068.7213	65535	64625.85
857.2723	1070.695	65535	64630.35
857.4173	1072.6679	65535	64630.35
857.5623	1074.6402	65535	64629.6
857.7073	1076.6117	65535	64625.5
857.8523	1078.5826	65535	64628.3
857.9973	1080.5527	65535	64626.2
858.1423	1082.5221	65535	64630.2
858.2873	1084.4908	65535	64629.4
858.4323	1086.4587	65535	64627.8
858.5773	1088.426	65535	64627.65
858.7223	1090.3925	65535	64623.5
858.8673	1092.3584	65535	64628.55
859.0123	1094.3235	65535	64631.5
859.1573	1096.2879	65535	64630.65
859.3022	1098.2515	65535	64628.95
859.4472	1100.2145	65535	64630.3
859.5922	1102.1767	65535	64627.8
859.7371	1104.1382	65535	64628.25
859.8821	1106.099	65535	64625.7
860.027	1108.0591	65535	64630.35
860.172	1110.0185	65535	64630.35
860.3169	1111.9771	65535	64629.3
860.4619	1113.9351	65535	64630.55
860.6068	1115.8923	65535	64627.8
860.7517	1117.8488	65535	64628.1
860.8967	1119.8045	65535	64629.75
861.0416	1121.7596	65535	64629
861.1865	1123.7139	65535	64629.45
861.3314	1125.6675	65535	64627.45
861.4763	1127.6204	65535	64631.1
861.6212	1129.5726	65535	64628.3
861.7661	1131.524	65535	64631.2
861.911	1133.4748	65535	64630.9
862.0559	1135.4248	65535	64630.15
862.2008	1137.3741	65535	64631.25
862.3457	1139.3226	65535	64627.7
862.4905	1141.2705	65535	64631.6
862.6354	1143.2176	65535	64625.05
862.7803	1145.164	65535	64627
862.9251	1147.1097	65535	64629.9
863.07	1149.0546	65535	64628.05
863.2148	1150.9989	65535	64629.75
863.3597	1152.9424	65535	64629
863.5045	1154.8852	65535	64629.1
863.6493	1156.8272	65535	64630.75
863.7942	1158.7686	65535	64621.7
863.939	1160.7092	65535	64630.2
864.0838	1162.6491	65535	64627.55
864.2286	1164.5883	65535	64628.95
864.3734	1166.5267	65535	64630.05
864.5182	1168.4644	65535	64630.7
864.663	1170.4014	65535	64628.5
864.8078	1172.3377	65535	64631.4
864.9526	1174.2732	65535	64631.9
865.0974	1176.2081	65535	64631.35
865.2421	1178.1421	65535	64628.7
865.3869	1180.0755	65535	64631.65
865.5317	1182.0082	65535	64633.65
865.6764	1183.9401	65535	64630.2
865.8212	1185.8713	65535	64630.5
865.9659	1187.8017	65535	64629.9
866.1106	1189.7315	65535	64633.45
866.2554	1191.6605	65535	64606.45
866.4001	1193.5888	65535	64631.35
866.5448	1195.5163	65535	64632.95
866.6895	1197.4432	65535	64629.4
866.8342	1199.3693	65535	64629.2
866.9789	1201.2947	65535	64632.1
867.1236	1203.2193	65535	64631.35
867.2683	1205.1432	65535	64630.7
867.413	1207.0664	65535	64631.1
867.5576	1208.9889	65535	64627.9
867.7023	1210.9106	65535	64633.15
867.847	1212.8316	65535	64631.1
867.9916	1214.7519	65535	64621.7
868.1363	1216.6715	65535	64630.3
868.2809	1218.5903	65535	64631.55
868.4255	1220.5084	65535	64629.35
868.5701	1222.4257	65535	64631.25
868.7148	1224.3424	65535	64631
868.8594	1226.2583	65535	64628.45
869.004	1228.1735	65535	64628.6
869.1486	1230.0879	65535	64630.95
869.2932	1232.0016	65535	64632.25
869.4377	1233.9146	65535	64627.55
869.5823	1235.8269	65535	64632.65
869.7269	1237.7384	65535	64633.35
869.8715	1239.6492	65535	64630.8
870.016	1241.5592	65535	64631.6
870.1606	1243.4686	65535	64632.1
870.3051	1245.3772	65535	64629.4
870.4496	1247.285	65535	64632.15
870.5941	1249.1922	65535	64633.5
870.7387	1251.0986	65535	64633.85
870.8832	1253.0042	65535	64630.1
871.0277	1254.9092	65535	64630.35
871.1722	1256.8134	65535	64634.15
871.3167	1258.7169	65535	64630.55
871.4611	1260.6196	65535	64632.3
871.6056	1262.5216	65535	64628.55
871.7501	1264.4229	65535	64632.15
871.8945	1266.3234	65535	64629.3
872.039	1268.2232	65535	64631.1
872.1834	1270.1223	65535	64630.7
872.3278	1272.0207	65535	64630.8
872.4723	1273.9183	65535	64624.95
872.6167	1275.8151	65535	64631
872.7611	1277.7113	65535	64628.35
872.9055	1279.6067	65535	64633.35
873.0499	1281.5014	65535	64629
873.1943	1283.3953	65535	64627.35
873.3386	1285.2885	65535	64633.7
873.483	1287.181	65535	64627.75
873.6274	1289.0727	65535	64634.55
873.7717	1290.9637	65535	64629.9
873.9161	1292.854	65535	64633.6
874.0604	1294.7435	65535	64631.65
874.2047	1296.6323	65535	64632.65
874.349	1298.5204	65535	64627.45
874.4933	1300.4077	65535	64630.9
874.6376	1302.2943	65535	64631.55
874.7819	1304.1802	65535	64634.65
874.9262	1306.0653	65535	64627.65
875.0705	1307.9497	65535	64631.75
875.2147	1309.8333	65535	64633.05
875.359	1311.7162	65535	64632.1
875.5032	1313.5984	65535	64630.75
875.6475	1315.4798	65535	64631.95
875.7917	1317.3605	65535	64615.55
875.9359	1319.2405	65535	64628.6
876.0801	1321.1197	65535	64629.6
876.2243	1322.9982	65535	64630.45
876.3685	1324.876	65535	64630.3
876.5127	1326.753	65535	64632.25
876.6569	1328.6293	65535	64629.7
876.801	1330.5048	65535	64630.1
876.9452	1332.3796	65535	64632.25
877.0893	1334.2537	65535	64607.35
877.2335	1336.127	65535	64631
877.3776	1337.9996	65535	64634.05
877.5217	1339.8714	65535	64632.1
877.6658	1341.7426	65535	64588.7
877.8099	1343.6129	65535	64631.1
877.954	1345.4826	65535	64630.1
878.0981	1347.3515	65535	64628
878.2422	1349.2196	65535	64630.75
878.3862	1351.087	65535	64630.9
878.5303	1352.9537	65535	64630.5
878.6743	1354.8197	65535	64631.1
878.8184	1356.6849	65535	64632.2
878.9624	1358.5493	65535	64629.6
879.1064	1360.4131	65535	64632.1
879.2504	1362.276	65535	64633.85
879.3944	1364.1383	65535	64631.6
879.5384	1365.9998	65535	64627.6
879.6823	1367.8606	65535	64629.6
879.8263	1369.7206	65535	64632.05
879.9702	1371.5799	65535	64629.75
880.1142	1373.4384	65535	64631.85
880.2581	1375.2962	65535	64629.6
880.402	1377.1533	65535	64634.4
880.5459	1379.0096	65535	64632.5
880.6898	1380.8652	65535	64630.85
880.8337	1382.7201	65535	64631.4
880.9776	1384.5742	65535	64631.4
881.1215	1386.4275	65535	64631.9
881.2653	1388.2802	65535	64631.5
881.4092	1390.132	65535	64631.7
881.553	1391.9832	65535	64628.05
881.6968	1393.8336	65535	64633.05
881.8406	1395.6832	65535	64629.3
881.9844	1397.5322	65535	64632.8
882.1282	1399.3803	65535	64627.95
882.272	1401.2278	65535	64629.45
882.4158	1403.0745	65535	64630.75
882.5595	1404.9204	65535	64633.75
882.7033	1406.7656	65535	64632.55
882.847	1408.6101	65535	64630.7
882.9908	1410.4538	65535	64631.4
883.1345	1412.2968	65535	64632.15
883.2782	1414.139	65535	64631.7
883.4219	1415.9805	65535	64632.65
883.5656	1417.8213	65535	64626.55
883.7092	1419.6613	65535	64633.45
883.8529	1421.5006	65535	64631.15
883.9965	1423.3391	65535	64633.95
884.1402	1425.1769	65535	64634.6
884.2838	1427.0139	65535	64631.35
884.4274	1428.8502	65535	64632.5
884.571	1430.6858	65535	64635.2
884.7146	1432.5206	65535	64633.9
884.8582	1434.3547	65535	64630.95
885.0018	1436.188	65535	64633.45
885.1453	1438.0206	65535	64630.75
885.2889	1439.8524	65535	64632.55
885.4324	1441.6835	65535	64632.6
885.5759	1443.5139	65535	64629
885.7194	1445.3435	65535	64634.45
885.8629	1447.1724	65535	64634.15
886.0064	1449.0005	65535	64633.55
886.1499	1450.8279	65535	64632.05
886.2933	1452.6545	65535	64631.35
886.4368	1454.4804	65535	64633.15
886.5802	1456.3056	65535	64626.05
886.7237	1458.13	65535	64631.7
886.8671	1459.9536	65535	64633.35
887.0105	1461.7766	65535	64633.7
887.1539	1463.5987	65535	64633.05
887.2972	1465.4202	65535	64632.15
887.4406	1467.2409	65535	64632.25
887.584	1469.0608	65535	64633.4
887.7273	1470.88	65535	64631.75
887.8706	1472.6984	65535	64634.1
888.0139	1474.5161	65535	64630.85
888.1572	1476.3331	65535	64633.5
888.3005	1478.1493	65535	64631.2
888.4438	1479.9648	65535	64632.9
888.5871	1481.7795	65535	64634.1
888.7303	1483.5935	65535	64634.65
888.8736	1485.4067	65535	64633
889.0168	1487.2192	65535	64633.65
889.16	1489.031	65535	64632.85
889.3032	1490.842	65535	64631.25
889.4464	1492.6522	65535	64635.45
889.5896	1494.4618	65535	64635.65
889.7327	1496.2705	65535	64634.45
889.8759	1498.0785	65535	64632.25
890.019	1499.8858	65535	64633.5
890.1622	1501.6924	65535	64635.95
890.3053	1503.4981	65535	64634.3
890.4484	1505.3032	65535	64633.35
890.5914	1507.1075	65535	64635.3
890.7345	1508.911	65535	64635.1
890.8776	1510.7138	65535	64633.25
891.0206	1512.5159	65535	64633
891.1637	1514.3172	65535	64634.15
891.3067	1516.1178	65535	64632.35
891.4497	1517.9176	65535	64630.2
891.5927	1519.7166	65535	64635.45
891.7357	1521.515	65535	64627.3
891.8786	1523.3126	65535	64631.4
892.0216	1525.1094	65535	64631.9
892.1645	1526.9055	65535	64635.35
892.3074	1528.7008	65535	64636.6
892.4503	1530.4954	65535	64629.3
892.5932	1532.2893	65535	64634.95
892.7361	1534.0824	65535	64629.85
892.879	1535.8747	65535	64634.25
893.0218	1537.6663	65535	64631.85
893.1647	1539.4572	65535	64635.85
893.3075	1541.2473	65535	64632.05
893.4503	1543.0367	65535	64636.7
893.5931	1544.8253	65535	64630.5
893.7359	1546.6132	65535	64632.25
893.8787	1548.4003	65535	64625.3
894.0214	1550.1867	65535	64626.75
894.1642	1551.9723	65535	64632.35
894.3069	1553.7572	65535	64635.85
894.4496	1555.5414	65535	64635.65
894.5923	1557.3247	65535	64636.3
894.735	1559.1074	65535	64636.95
894.8777	1560.8893	65535	64637.35
895.0204	1562.6705	65535	64637.15
895.163	1564.4509	65535	64636.75
895.3056	1566.2305	65535	64637.15
895.4482	1568.0094	65535	64639.55
895.5908	1569.7876	65535	64635.35
895.7334	1571.565	65535	64636.3
895.876	1573.3417	65535	64636.65
896.0186	1575.1176	65535	64638.3
896.1611	1576.8928	65535	64637.8
896.3036	1578.6672	65535	64638.45
896.4461	1580.4409	65535	64638.55
896.5886	1582.2138	65535	64636.3
896.7311	1583.986	65535	64636
896.8736	1585.7575	65535	64638.9
897.0161	1587.5282	65535	64640.15
897.1585	1589.2981	65535	64639.4
897.3009	1591.0673	65535	64636.85
897.4433	1592.8358	65535	64638.7
897.5857	1594.6035	65535	64636.8
897.7281	1596.3704	65535	64637.3
897.8705	1598.1366	65535	64640.15
898.0128	1599.9021	65535	64639.95
898.1551	1601.6668	65535	64637.35
898.2975	1603.4308	65535	64635.35
898.4398	1605.194	65535	64631.65
898.5821	1606.9564	65535	64637.65
898.7243	1608.7182	65535	64636.25
898.8666	1610.4791	65535	64639.75
899.0088	1612.2394	65535	64641.1
899.1511	1613.9988	65535	64638.8
899.2933	1615.7576	65535	64639.3
899.4355	1617.5156	65535	64631.75
899.5776	1619.2728	65535	64637.5
899.7198	1621.0293	65535	64641
899.862	1622.785	65535	64634.7
900.0041	1624.54	65535	64638.25
900.1462	1626.2942	65535	64637.45
900.2883	1628.0477	65535	64636
900.4304	1629.8005	65535	64634.15
900.5725	1631.5525	65535	64640.25
900.7145	1633.3037	65535	64638.25
900.8566	1635.0542	65535	64638.45
900.9986	1636.804	65535	64638.55
901.1406	1638.553	65535	64550.5
901.2826	1640.3013	65535	64637.65
901.4245	1642.0488	65535	64639.8
901.5665	1643.7955	65535	64642.5
901.7085	1645.5416	65535	64638.8
901.8504	1647.2868	65535	64640.45
901.9923	1649.0313	65535	64640
902.1342	1650.7751	65535	64635.3
902.2761	1652.5181	65535	64640.45
902.4179	1654.2604	65535	64639.1
902.5598	1656.0019	65535	64638.45
902.7016	1657.7427	65535	64638.35
902.8434	1659.4828	65535	64639.55
902.9852	1661.222	65535	64637.65
903.127	1662.9606	65535	64638.05
903.2687	1664.6984	65535	64640.65
903.4105	1666.4354	65535	64638.55
903.5522	1668.1717	65535	64640.8
903.6939	1669.9072	65535	64639.85
903.8356	1671.642	65535	64637.4
903.9773	1673.3761	65535	64638.7
904.119	1675.1094	65535	64642.2
904.2606	1676.8419	65535	64639.2
904.4022	1678.5737	65535	64639.55
904.5439	1680.3048	65535	64639.15
904.6855	1682.0351	65535	64638.6
904.827	1683.7646	65532.6	64634.25
904.9686	1685.4934	65535	64640.3
905.1101	1687.2215	65516.45	64621.55
905.2517	1688.9488	65535	64641.55
905.3932	1690.6754	65435.75	64541.55
905.5347	1692.4012	65510.55	64613.95
905.6761	1694.1263	65521	64626.9
905.8176	1695.8506	65454.95	64555.8
905.9591	1697.5742	65479.9	64585.1
906.1005	1699.297	65472.8	64580.5
906.2419	1701.0191	65476.25	64582.15
906.3833	1702.7404	65375	64480.95
906.5246	1704.461	65328.55	64433.65
906.666	1706.1808	65439.4	64545.65
906.8073	1707.8999	65385.2	64488.55
906.9487	1709.6182	65353.75	64460.55
907.09	1711.3358	65345.5	64451.15
907.2313	1713.0527	65315.55	64420.85
907.3725	1714.7688	65339.65	64440.4
907.5138	1716.4841	65106.25	64209.65
907.655	1718.1987	65201.55	64302.7
907.7962	1719.9126	65115.4	64223.1
907.9374	1721.6257	65206.75	64309.85
908.0786	1723.338	65207.05	64314.15
908.2198	1725.0496	64794.05	63900.35
908.3609	1726.7605	64867.2	63972.7
908.502	1728.4706	64705.6	63810.7
908.6431	1730.18	64941.6	64045.6
908.7842	1731.8886	64653	63762.2
908.9253	1733.5964	64524.45	63623.7
909.0664	1735.3036	64852.5	63955.9
909.2074	1737.0099	64598.3	63704.55
909.3484	1738.7156	64346	63454.4
909.4894	1740.4204	64249.35	63354.75
909.6304	1742.1246	64398.15	63501.95
909.7714	1743.8279	64491.6	63600.8
909.9123	1745.5306	64392.8	63499.3
910.0532	1747.2325	63402.5	62511.3
910.1941	1748.9336	63461.95	62571.15
910.335	1750.634	63805.5	62908.8
910.4759	1752.3336	64098.55	63206.4
910.6168	1754.0325	63349.75	62457.9
910.7576	1755.7307	64042.35	63148.05
910.8984	1757.4281	63025.9	62134.45
911.0392	1759.1247	63795.85	62892.3
911.18	1760.8206	62668	61769.7
911.3208	1762.5158	62826.9	61929.7
911.4615	1764.2102	63145.1	62251.75
911.6022	1765.9039	62909.15	62016.25
911.7429	1767.5968	62611.35	61719.4
911.8836	1769.289	62445.3	61550.95
912.0243	1770.9804	62733.5	61840.1
912.1649	1772.6711	62444.7	61550.85
912.3056	1774.361	62243.6	61348.8
912.4462	1776.0502	62272.75	61379.3
912.5868	1777.7386	61283.1	60386.35
912.7274	1779.4263	61884.2	60991
912.8679	1781.1132	61883.1	60988.8
913.0084	1782.7994	61658.1	60765.4
913.149	1784.4849	61680.15	60788.35
913.2895	1786.1696	60432.85	59534.85
913.4299	1787.8535	61231.6	60339
913.5704	1789.5367	61400.65	60506.95
913.7108	1791.2192	60577.75	59686.1
913.8513	1792.9009	60160.55	59241.1
913.9917	1794.5818	60724.25	59829.4
914.132	1796.2621	60114.6	59224.15
914.2724	1797.9415	60185.8	59291.05
914.4128	1799.6202	60005.45	59110.8
914.5531	1801.2982	60051.95	59159.55
914.6934	1802.9755	59334.1	58439.3
914.8337	1804.6519	59077.35	58184.9
914.9739	1806.3277	60102.25	59207.7
915.1142	1808.0027	58585	57691.9
915.2544	1809.6769	59067.45	58172.95
915.3946	1811.3504	59216.9	58323.85
915.5348	1813.0231	58071.45	57179.35
915.675	1814.6951	58767.75	57875.25
915.8151	1816.3664	58255.65	57359.45
915.9553	1818.0369	58355.2	57463
916.0954	1819.7067	58094.7	57200.9
916.2355	1821.3757	58659.5	57765.2
916.3755	1823.044	57645.9	56752.85
916.5156	1824.7115	57375.45	56481.7
916.6556	1826.3783	57603.5	56712.55
916.7956	1828.0443	57580.3	56688.85
916.9356	1829.7096	57255.5	56363.4
917.0756	1831.3741	56683.95	55786.25
917.2155	1833.0379	57012.05	56119.8
917.3555	1834.701	56916.65	56023.4
917.4954	1836.3633	56411.65	55519.55
917.6353	1838.0248	56660.9	55765.6
917.7751	1839.6856	56507.2	55615.75
917.915	1841.3457	55981.15	55090.9
918.0548	1843.005	56533.2	55641.4
918.1946	1844.6636	56164	55271.55
918.3344	1846.3214	55523.7	54631.6
918.4742	1847.9785	55667.3	54774.25
918.6139	1849.6349	55597.35	54702.9
918.7537	1851.2904	55925.75	55023.25
918.8934	1852.9453	55209.95	54315.05
919.0331	1854.5994	55387.7	54490.05
919.1727	1856.2528	55420.1	54523.6
919.3124	1857.9054	54948.25	54055.2
919.452	1859.5572	54785.7	53895
919.5916	1861.2083	54898.35	54005.75
919.7312	1862.8587	55338.65	54447.1
919.8708	1864.5084	54206.05	53312.35
920.0103	1866.1572	54590.7	53699.75
920.1498	1867.8054	53949.1	53056.15
920.2893	1869.4528	54386.45	53494.5
920.4288	1871.0994	53732.7	52840.2
920.5683	1872.7453	53721.95	52829.35
920.7077	1874.3905	53871.45	52971.65
920.8471	1876.0349	53432.1	52539.3
920.9865	1877.6786	53677.8	52784.85
921.1259	1879.3215	53345.2	52453
921.2653	1880.9637	53524.6	52632.45
921.4046	1882.6051	53179.55	52285.35
921.5439	1884.2458	52985	52090.2
921.6832	1885.8858	52712.4	51818.7
921.8225	1887.525	52781.4	51888.45
921.9617	1889.1634	52550.35	51659.05
922.101	1890.8011	52379.55	51485.4
922.2402	1892.4381	51950.95	51060.45
922.3794	1894.0743	52283.5	51391.3
922.5185	1895.7098	52026.85	51135.5
922.6577	1897.3446	51729.8	50838.8
922.7968	1898.9786	51812.65	50915.45
922.9359	1900.6118	51597.6	50702.4
923.075	1902.2443	51236.9	50344.7
923.214	1903.8761	51348.05	50454.95
923.3531	1905.5071	51001.3	50106.25
923.4921	1907.1374	50576.1	49681.35
923.6311	1908.7669	50690.7	49799.65
923.77	1910.3957	50812.2	49920.7
923.909	1912.0237	50213.75	49321.6
924.0479	1913.651	50116.6	49223.4
924.1868	1915.2776	49979	49088.8
924.3257	1916.9034	49795.5	48905
924.4646	1918.5285	49584.9	48694.4
924.6034	1920.1528	49450.6	48558.3
924.7422	1921.7764	49351.85	48460
924.881	1923.3992	49144.85	48252.8
925.0198	1925.0213	48816.05	47924.1
925.1586	1926.6427	48571.95	47680.55
925.2973	1928.2633	48628.65	47631.15
925.436	1929.8832	48392.7	47499.8
925.5747	1931.5023	48200	47309.5
925.7134	1933.1207	48001.15	47109.25
925.852	1934.7383	47997.95	47105.8
925.9906	1936.3552	47766.75	46876
926.1292	1937.9714	47657.45	46766.75
926.2678	1939.5868	47548.05	46654.7
926.4064	1941.2015	47150.5	46257.55
926.5449	1942.8154	46947	46054.85
926.6834	1944.4286	46816.45	45925.7
926.8219	1946.041	46659.05	45748.15
926.9604	1947.6528	46437.55	45540.25
927.0988	1949.2637	46322.75	45429.05
927.2372	1950.8739	46131.85	45240.75
927.3756	1952.4834	46100.25	45209
927.514	1954.0921	45970.45	45075.95
927.6523	1955.7001	45723.4	44828.5
927.7907	1957.3074	45664.35	44774.8
927.929	1958.9139	45448.2	44557.05
928.0673	1960.5197	45328.8	44434.5
928.2055	1962.1247	45091.35	44200.95
928.3438	1963.729	44899.55	44009.8
928.482	1965.3325	44724.85	43811.35
928.6202	1966.9353	44629.55	43738.15
928.7584	1968.5374	44515.1	43622.85
928.8965	1970.1387	44336.05	43444.75
929.0346	1971.7393	44181.9	43289.35
929.1727	1973.3392	43979.55	43088.4
929.3108	1974.9383	43793.2	42903.55
929.4489	1976.5366	43581.3	42688.95
929.5869	1978.1342	43576.9	42683.4
929.7249	1979.7311	43484.65	42592.1
929.8629	1981.3273	43330.1	42438.55
930.0009	1982.9227	43146.6	42254.15
930.1388	1984.5173	42996.45	42106.95
930.2767	1986.1112	42842	41954.25
930.4146	1987.7044	42793.8	41905.25
930.5525	1989.2968	42563.35	41671.4
930.6904	1990.8885	42470.25	41576.6
930.8282	1992.4795	42360.65	41468.7
930.966	1994.0697	42122.4	41231.7
931.1038	1995.6592	41974.9	41084.1
931.2415	1997.2479	41845.1	40953.6
931.3793	1998.8359	41772.9	40883.1
931.517	2000.4232	41564	40674.1
931.6547	2002.0097	41468.15	40578.7
931.7923	2003.5955	41282.6	40391.25
931.93	2005.1805	41228.2	40335.5
932.0676	2006.7648	41086.75	40197.2
932.2052	2008.3484	40967.2	40076.1
932.3427	2009.9312	40948.45	40056.8
932.4803	2011.5133	40743.4	39854.35
932.6178	2013.0946	40613.7	39724.55
932.7553	2014.6752	40490.65	39603.1
932.8928	2016.2551	40363.6	39471.85
933.0302	2017.8342	40190.5	39300.75
933.1676	2019.4126	40059.85	39169.15
933.305	2020.9902	39886.85	38996.5
933.4424	2022.5672	39859.8	38967.5
933.5798	2024.1433	39736.65	38840.85
933.7171	2025.7188	39579.35	38691.3
933.8544	2027.2935	39505.25	38615.05
933.9917	2028.8674	39387.9	38502
934.129	2030.4406	39277.85	38389.95
934.2662	2032.0131	39019.05	38130.8
934.4034	2033.5849	38906.5	38010.3
934.5406	2035.1559	38798.3	37909.7
934.6778	2036.7261	38736.9	37845.3
934.8149	2038.2957	38581.5	37691.95
934.952	2039.8645	38529.05	37639.55
935.0891	2041.4325	38503.8	37609.2
935.2262	2042.9998	38286.05	37397.35
935.3632	2044.5664	38195.55	37302.1
935.5002	2046.1323	38081.85	37192.6
935.6372	2047.6974	37962.55	37073.25
935.7742	2049.2617	37843	36956.5
935.9111	2050.8254	37829.25	36935.1
936.048	2052.3883	37778.35	36887.1
936.1849	2053.9504	37596.85	36709
936.3218	2055.5118	37484.15	36593.95
936.4586	2057.0725	37268.45	36375.95
936.5955	2058.6325	37214.3	36324.7
936.7323	2060.1917	37070.1	36181.3
936.869	2061.7502	37015.1	36123.8
937.0058	2063.3079	36857.9	35966.85
937.1425	2064.8649	36760.25	35867.45
937.2792	2066.4212	36624.7	35734.5
937.4159	2067.9767	36564.9	35672.45
937.5525	2069.5315	36393.35	35505.05
937.6891	2071.0856	36218.25	35328.05
937.8257	2072.6389	36080.3	35188.3
937.9623	2074.1915	35920.3	35033.65
938.0989	2075.7433	35732.95	34840.05
938.2354	2077.2945	35649.75	34761.6
938.3719	2078.8448	35507.3	34618.75
938.5084	2080.3945	35423.75	34535.55
938.6448	2081.9434	35356.75	34468.1
938.7812	2083.4916	35231.5	34339.85
938.9176	2085.039	35106.35	34214
939.054	2086.5857	35046.15	34153.85
939.1903	2088.1317	34955.35	34063.35
939.3267	2089.677	34844.85	33952.75
939.463	2091.2215	34735.95	33845.65
939.5992	2092.7652	34601.8	33708.6
939.7355	2094.3083	34545.6	33654.85
939.8717	2095.8506	34461	33570.75
940.0079	2097.3921	34449.45	33560.1
940.1441	2098.933	34287.15	33397.1
940.2802	2100.4731	34153.7	33263.15
940.4163	2102.0124	34173.35	33276.2
940.5524	2103.5511	34047.55	33156.6
940.6885	2105.089	33966	33076
940.8245	2106.6261	33878.4	32988.35
940.9606	2108.1626	33809.65	32917.75
941.0965	2109.6983	33696.25	32777.45
941.2325	2111.2332	33610.4	32719.65
941.3684	2112.7675	33467.3	32577.7
941.5044	2114.301	33389.6	32498.5
941.6403	2115.8337	33379.4	32489.4
941.7761	2117.3657	33250.25	32361.45
941.912	2118.897	33113.5	32223.05
942.0478	2120.4276	32998.25	32105.2
942.1835	2121.9575	32844.6	31953.75
942.3193	2123.4866	32884.25	31979.2
942.455	2125.0149	32720.3	31828
942.5907	2126.5426	32551.95	31661.85
942.7264	2128.0695	32461.05	31566.8
942.8621	2129.5956	32403.55	31515.4
942.9977	2131.1211	32345.6	31450.85
943.1333	2132.6458	32246.65	31356.5
943.2689	2134.1698	32119.5	31228.5
943.4044	2135.693	32086.8	31192.35
943.54	2137.2155	31988.95	31096.05
943.6755	2138.7373	31880.6	30988.95
943.8109	2140.2584	31832.1	30943.35
943.9464	2141.7787	31680.85	30785.3
944.0818	2143.2983	31556.25	30666.45
944.2172	2144.8171	31382.5	30495.65
944.3526	2146.3353	31311.65	30421.8
944.4879	2147.8527	31152.7	30264.2
944.6232	2149.3693	31158.85	30265.2
944.7585	2150.8853	31033	30142
944.8938	2152.4005	30898.7	30008.1
945.029	2153.9149	30837.15	29946.15
945.1642	2155.4287	30724.4	29833.5
945.2994	2156.9417	30661.45	29770.15
945.4346	2158.454	30553.5	29662.45
945.5697	2159.9655	30421.95	29534.1
945.7048	2161.4764	30415.6	29526.45
945.8399	2162.9865	30320.85	29430.9
945.9749	2164.4958	30200.55	29307.65
946.1099	2166.0045	30072.45	29179.75
946.2449	2167.5124	30067.55	29178.1
946.3799	2169.0195	29969.1	29079.9
946.5148	2170.526	29944.55	29052.35
946.6498	2172.0317	29845.65	28955.15
946.7846	2173.5367	29714.2	28820.75
946.9195	2175.0409	29675	28785.95
947.0543	2176.5445	29627.3	28737.55
947.1891	2178.0473	29503.15	28611.15
947.3239	2179.5494	29333.95	28439.85
947.4587	2181.0507	29266.25	28375.2
947.5934	2182.5513	29156.4	28265.65
947.7281	2184.0512	29102.95	28210.4
947.8628	2185.5504	28969.1	28079.6
947.9974	2187.0488	28833.9	27943.55
948.132	2188.5465	28745.9	27857
948.2666	2190.0435	28649	27758.05
948.4012	2191.5397	28547.85	27655.6
948.5357	2193.0353	28488.2	27596.9
948.6702	2194.5301	28329.1	27438.25
948.8047	2196.0241	28236.25	27345
948.9392	2197.5175	28139.6	27249.95
949.0736	2199.0101	28004.2	27110.25
949.208	2200.502	27859.5	26972.25
949.3424	2201.9931	27773.5	26885.25
949.4767	2203.4835	27696.6	26806.1
949.611	2204.9733	27604.6	26708.5
949.7453	2206.4622	27519.5	26629.5
949.8796	2207.9505	27423.55	26531.05
950.0138	2209.438	27271.95	26382
950.148	2210.9248	27213.6	26324.3
950.2822	2212.4109	27085.7	26197.05
950.4164	2213.8962	26966.1	26073.65
950.5505	2215.3809	26969.5	26077.85
950.6846	2216.8648	26898.95	26006.95
950.8186	2218.3479	26807.1	25910.05
950.9527	2219.8304	26689.35	25794.4
951.0867	2221.3121	26555.95	25661.65
951.2207	2222.7931	26467.9	25576.7
951.3546	2224.2733	26418.8	25528.6
951.4886	2225.7529	26318.05	25427
951.6225	2227.2317	26245.6	25353.1
951.7563	2228.7098	26164.75	25276.25
951.8902	2230.1872	26053.35	25161.7
952.024	2231.6638	25998.55	25110.35
952.1578	2233.1397	25863.7	24967.15
952.2916	2234.6149	25824.85	24933.5
952.4253	2236.0894	25698.35	24807
952.559	2237.5632	25684.4	24791.75
952.6927	2239.0362	25539.05	24649.8
952.8263	2240.5085	25490.2	24601.55
952.9599	2241.9801	25361.15	24472.9
953.0935	2243.4509	25268.8	24380.85
953.2271	2244.921	25195.75	24304.85
953.3606	2246.3904	25116.65	24224.75
953.4941	2247.8591	24991.55	24100.9
953.6276	2249.3271	24927.55	24038.05
953.7611	2250.7943	24843.95	23954.2
953.8945	2252.2608	24795.7	23907
954.0279	2253.7266	24686.65	23796.05
954.1612	2255.1917	24630.35	23738.85
954.2946	2256.656	24501.35	23609.05
954.4279	2258.1197	24428.4	23539
954.5612	2259.5826	24331.9	23439.5
954.6944	2261.0447	24331.4	23439.8
954.8276	2262.5062	24222.95	23329.25
954.9608	2263.9669	24185.3	23292.5
955.094	2265.4269	24072.25	23182.1
955.2271	2266.8862	24012.55	23121.95
955.3602	2268.3448	23979.95	23090.1
955.4933	2269.8026	23922.7	23033.1
955.6264	2271.2598	23813.05	22922.05
955.7594	2272.7162	23720.95	22831.2
955.8924	2274.1719	23664.8	22773.85
956.0253	2275.6268	23582.35	22690.8
956.1583	2277.0811	23516.3	22627.05
956.2912	2278.5346	23494.7	22604.5
956.4241	2279.9874	23398.1	22509.2
956.5569	2281.4395	23349.5	22459.35
956.6897	2282.8908	23233.4	22337.05
956.8225	2284.3414	23181.1	22288.35
956.9553	2285.7914	23123.45	22234.2
957.088	2287.2406	23047.4	22156.4
957.2207	2288.689	22999.05	22110.05
957.3534	2290.1368	22875.3	21983.9
957.486	2291.5838	22803.7	21909.8
957.6186	2293.0302	22730.6	21838.65
957.7512	2294.4758	22644.2	21755.35
957.8838	2295.9206	22515.65	21622.75
958.0163	2297.3648	22507.75	21617.25
958.1488	2298.8082	22480.65	21591.5
958.2813	2300.251	22367.95	21477.85
958.4137	2301.693	22298.35	21406.4
958.5461	2303.1343	22291.75	21399.85
958.6785	2304.5748	22221.9	21332.4
958.8108	2306.0147	22098	21207.55
958.9432	2307.4538	22042.4	21150
959.0754	2308.8922	21986.5	21097.5
959.2077	2310.3299	21935.25	21045.7
959.3399	2311.7669	21818.45	20929.8
959.4721	2313.2031	21794.1	20903.65
959.6043	2314.6387	21656.3	20766.55
959.7365	2316.0735	21599.35	20708.3
959.8686	2317.5076	21545.35	20655
960.0006	2318.941	21481.9	20592.8
960.1327	2320.3737	21433.3	20542.3
960.2647	2321.8056	21344.25	20452.3
960.3967	2323.2369	21282.15	20390.7
960.5287	2324.6674	21215.85	20323.5
960.6606	2326.0972	21147.2	20255.35
960.7925	2327.5263	21066.1	20178
960.9244	2328.9547	20998.6	20108.55
961.0562	2330.3823	20904.7	20014.7
961.1881	2331.8092	20893.05	19998.25
961.3198	2333.2355	20783	19890.5
961.4516	2334.661	20769.6	19878.95
961.5833	2336.0858	20703.45	19811.75
961.715	2337.5098	20645.65	19757.35
961.8467	2338.9332	20586.85	19695.25
961.9783	2340.3558	20489.65	19595.75
962.1099	2341.7778	20448.85	19559.4
962.2415	2343.199	20352.25	19462.55
962.373	2344.6195	20318.65	19428.45
962.5045	2346.0393	20263.6	19374.35
962.636	2347.4583	20211.45	19319
962.7675	2348.8767	20137.5	19244.15
962.8989	2350.2943	20064.5	19171.9
963.0303	2351.7113	20026.7	19134.3
963.1617	2353.1275	19907.05	19015.45
963.293	2354.543	19900.4	19000.8
963.4243	2355.9578	19793.45	18902.65
963.5556	2357.3718	19692.9	18802.85
963.6868	2358.7852	19620.95	18729.9
963.818	2360.1978	19520.35	18629.8
963.9492	2361.6098	19482	18592.2
964.0803	2363.021	19467.3	18573.15
964.2114	2364.4315	19379.75	18486.35
964.3425	2365.8413	19310.85	18420.2
964.4736	2367.2504	19219.9	18330.25
964.6046	2368.6587	19137.3	18247.9
964.7356	2370.0664	19068.75	18180.4
964.8666	2371.4733	18970.5	18079.95
964.9975	2372.8795	18964.05	18075.25
965.1284	2374.285	18836.15	17947.6
965.2593	2375.6899	18799.75	17909.5
965.3901	2377.0939	18655.4	17764.5
965.5209	2378.4973	18605.9	17716.3
965.6517	2379.9	18531.85	17641.25
965.7825	2381.3019	18489.7	17598.3
965.9132	2382.7032	18439.2	17549.05
966.0439	2384.1037	18395.25	17507.25
966.1745	2385.5035	18325.7	17437
966.3051	2386.9027	18240.5	17351.35
966.4357	2388.3011	18202	17308.8
966.5663	2389.6987	18145.45	17257.4
966.6968	2391.0957	18096.15	17205.95
966.8273	2392.492	17994.05	17105.65
966.9578	2393.8876	17869	16979.7
967.0882	2395.2824	17825.4	16935.55
967.2186	2396.6765	17709.6	16820.45
967.349	2398.07	17629.85	16740.9
967.4793	2399.4627	17619.9	16728.65
967.6097	2400.8547	17556.5	16665.2
967.7399	2402.246	17483.85	16587
967.8702	2403.6366	17394.5	16504.55
968.0004	2405.0265	17321.7	16433.75
968.1306	2406.4156	17246.9	16353.3
968.2607	2407.8041	17187.55	16293.6
968.3909	2409.1918	17119.65	16227.15
968.521	2410.5789	17071.2	16182.7
968.651	2411.9652	17019.5	16126.6
968.781	2413.3508	16960.65	16072.95
968.911	2414.7358	16852.7	15962.5
969.041	2416.12	16787.05	15899.7
969.1709	2417.5035	16763.35	15874.9
969.3008	2418.8863	16684.55	15794.65
969.4307	2420.2684	16646.8	15755.85
969.5606	2421.6497	16576.15	15686.05
969.6904	2423.0304	16481.15	15593.15
969.8201	2424.4104	16472.3	15582.2
969.9499	2425.7896	16376	15484
970.0796	2427.1682	16377.65	15488.15
970.2093	2428.546	16335.35	15446.55
970.3389	2429.9232	16243.75	15353.5
970.4685	2431.2996	16173.3	15283.95
970.5981	2432.6753	16175.45	15286.35
970.7277	2434.0503	16125.7	15236.4
970.8572	2435.4246	16055.3	15165.05
970.9867	2436.7982	15976.7	15085.55
971.1161	2438.1711	15939.25	15052.5
971.2456	2439.5433	15899.6	15009.65
971.375	2440.9148	15815.35	14920.1
971.5043	2442.2856	15724.7	14835.05
971.6336	2443.6557	15679.65	14789.15
971.7629	2445.025	15622.8	14733.95
971.8922	2446.3937	15598.25	14706.7
972.0214	2447.7617	15536.2	14645.25
972.1506	2449.1289	15485.65	14593.7
972.2798	2450.4955	15441.7	14548.1
972.4089	2451.8613	15363.95	14475.1
972.538	2453.2265	15379.7	14490.1
972.6671	2454.5909	15318.9	14431.55
972.7961	2455.9546	15316.4	14427.35
972.9251	2457.3177	15203.25	14312.2
973.0541	2458.68	15146.2	14255.5
973.1831	2460.0416	15109.9	14220.95
973.312	2461.4025	15107.9	14217.15
973.4408	2462.7627	15075.65	14173.8
973.5697	2464.1222	15010.8	14123.25
973.6985	2465.4811	14981.25	14090.75
973.8273	2466.8392	14898.7	14007.3
973.956	2468.1966	14868.15	13977.6
974.0847	2469.5533	14846.8	13954.1
974.2134	2470.9093	14821.05	13931.2
974.3421	2472.2645	14766.8	13875.3
974.4707	2473.6191	14700.35	13810.55
974.5993	2474.973	14595.7	13708.5
974.7278	2476.3262	14584.3	13693.1
974.8563	2477.6787	14517.8	13628.5
974.9848	2479.0305	14445.05	13555.05
975.1132	2480.3816	14411.85	13519.4
975.2417	2481.7319	14342.25	13452.65
975.37	2483.0816	14266.15	13372.7
975.4984	2484.4306	14241.75	13350.2
975.6267	2485.7789	14182.3	13296
975.755	2487.1264	14100.95	13208.35
975.8833	2488.4733	14073.45	13184.85
976.0115	2489.8195	14021.3	13114.15
976.1397	2491.165	13940.65	13047.3
976.2678	2492.5097	13919.1	13026.4
976.3959	2493.8538	13842.7	12951.35
976.524	2495.1972	13785.15	12894.55
976.6521	2496.5398	13747.6	12856.2
976.7801	2497.8818	13715.8	12823.25
976.9081	2499.2231	13637.1	12746.45
977.036	2500.5637	13600.4	12708.45
977.164	2501.9035	13554.2	12664.25
977.2918	2503.2427	13530.05	12636
977.4197	2504.5812	13468.3	12579.3
977.5475	2505.919	13438.15	12547
977.6753	2507.256	13391.9	12503.15
977.8031	2508.5924	13317.35	12428.65
977.9308	2509.9281	13317.85	12423.35
978.0585	2511.2631	13243.65	12354.4
978.1861	2512.5974	13203.1	12314.65
978.3137	2513.9309	13140.8	12250.8
978.4413	2515.2638	13131	12215.55
978.5689	2516.596	13072.65	12181.6
978.6964	2517.9275	13014.1	12121.7
978.8239	2519.2583	12970.05	12079.75
978.9513	2520.5884	12910.9	12019.95
979.0788	2521.9178	12851.65	11961.35
979.2062	2523.2465	12815.15	11927.45
979.3335	2524.5745	12747.1	11858.15
979.4608	2525.9018	12727.25	11838.25
979.5881	2527.2284	12705.05	11815.3
979.7154	2528.5543	12661.35	11772.5
979.8426	2529.8796	12625.85	11736.3
979.9698	2531.2041	12606.15	11715.85
980.0969	2532.5279	12519.25	11629.6
980.224	2533.851	12496.8	11604.9
980.3511	2535.1735	12495.8	11607.9
980.4781	2536.4952	12447.2	11559.85
980.6052	2537.8163	12424.85	11535.3
980.7321	2539.1366	12352.25	11464.15
980.8591	2540.4562	12350.25	11460.65
980.986	2541.7752	12301.8	11411.75
981.1129	2543.0935	12301.6	11413.65
981.2397	2544.411	12253.05	11361.3
981.3665	2545.7279	12202.5	11312.8
981.4933	2547.0441	12173.4	11284.85
981.62	2548.3596	12169.85	11277.1
981.7467	2549.6744	12170.45	11281.4
981.8734	2550.9885	12140.6	11242.85
982.0001	2552.3019	12067	11180.95
982.1267	2553.6146	12033.65	11143.75
982.2532	2554.9266	12009.55	11117.8
982.3798	2556.2379	11956.4	11063.65
982.5063	2557.5485	11895.55	11006.7
982.6327	2558.8585	11897.95	10999.8
982.7592	2560.1677	11882.15	10988.1
982.8856	2561.4762	11850.1	10960.1
983.0119	2562.7841	11813.4	10921.15
983.1383	2564.0913	11765.7	10877.85
983.2646	2565.3977	11771.4	10881.95
983.3908	2566.7035	11694.75	10802.95
983.517	2568.0086	11690.1	10797.55
983.6432	2569.313	11677.55	10786.5
983.7694	2570.6167	11658.7	10764.85
983.8955	2571.9197	11619.3	10729.95
984.0216	2573.222	11602.05	10709.25
984.1476	2574.5236	11581.55	10691
984.2737	2575.8246	11542.15	10650.15
984.3996	2577.1248	11522.3	10629.4
984.5256	2578.4244	11464	10572.25
984.6515	2579.7232	11483.4	10594.7
984.7774	2581.0214	11465.15	10552.35
984.9032	2582.3189	11408.3	10520.8
985.029	2583.6157	11376.05	10484.05
985.1548	2584.9118	11330.05	10439.75
985.2806	2586.2072	11311.95	10424.4
985.4063	2587.5019	11252.6	10360.75
985.5319	2588.7959	11228.1	10337.45
985.6576	2590.0893	11243.75	10351.25
985.7832	2591.3819	11165.4	10276.75
985.9087	2592.6739	11123.6	10234.45
986.0343	2593.9652	11109.75	10218.05
986.1597	2595.2557	11098.3	10209.95
986.2852	2596.5456	11038.65	10148.25
986.4106	2597.8348	11000.8	10110.45
986.536	2599.1234	10944.25	10055.85
986.6614	2600.4112	10939.6	10048.65
986.7867	2601.6983	10860.7	9967.35
986.912	2602.9848	10839.4	9947.85
987.0372	2604.2705	10794.1	9897.1
987.1624	2605.5556	10752.5	9863.3
987.2876	2606.84	10716.45	9828.15
987.4128	2608.1237	10669.1	9778.3
987.5379	2609.4067	10648	9760.4
987.6629	2610.689	10612.05	9714.2
987.788	2611.9707	10550.25	9657.35
987.913	2613.2516	10516.45	9622.05
988.0379	2614.5319	10462	9570.45
988.1629	2615.8115	10436.5	9546.95
988.2878	2617.0903	10390.75	9501
988.4126	2618.3685	10341.05	9452.55
988.5375	2619.6461	10317.15	9426.55
988.6622	2620.9229	10274.5	9384.35
988.787	2622.199	10249.2	9357.75
988.9117	2623.4745	10244.45	9352.75
989.0364	2624.7493	10185.4	9297.6
989.161	2626.0234	10154.4	9265.6
989.2857	2627.2968	10099.7	9210.2
989.4102	2628.5695	10074.95	9184.95
989.5348	2629.8415	10014	9124.9
989.6593	2631.1128	9992.2	9102.75
989.7837	2632.3835	9926.8	9035.65
989.9082	2633.6535	9904	9015
990.0326	2634.9228	9868.55	8977.3
990.1569	2636.1914	9845.05	8957.25
990.2812	2637.4593	9797.55	8906.85
990.4055	2638.7265	9745.25	8854.5
990.5298	2639.9931	9735.2	8845.7
990.654	2641.259	9714.3	8823.45
990.7782	2642.5242	9698.1	8807.25
990.9023	2643.7887	9655	8764.85
991.0264	2645.0525	9649.45	8759.6
991.1505	2646.3156	9588.75	8698.35
991.2745	2647.5781	9566	8677.8
991.3985	2648.8398	9511.7	8621.1
991.5225	2650.1009	9481.6	8582.25
991.6464	2651.3613	9471.25	8580.05
991.7703	2652.6211	9427	8537.35
991.8942	2653.8801	9402.25	8513.05
992.018	2655.1385	9385.15	8493.15
992.1418	2656.3961	9359.4	8469.1
992.2655	2657.6531	9317.65	8426.8
992.3892	2658.9094	9300	8408.45
992.5129	2660.1651	9267.65	8378.45
992.6366	2661.42	9249.35	8359.75
992.7602	2662.6743	9222.8	8333.4
992.8837	2663.9279	9221.65	8334.75
993.0073	2665.1808	9173.1	8282.75
993.1307	2666.433	9151.35	8260.6
993.2542	2667.6846	9114.75	8224.65
993.3776	2668.9354	9100.7	8207.75
993.501	2670.1856	9054.25	8163.9
993.6244	2671.4351	9038.45	8147.7
993.7477	2672.6839	9056.55	8167.8
993.8709	2673.9321	9009.15	8120.25
993.9942	2675.1795	8985.3	8096.65
994.1174	2676.4263	8934.4	8045.05
994.2405	2677.6724	8937.75	8048.45
994.3637	2678.9179	8872.3	7981.4
994.4868	2680.1626	8851.2	7961.3
994.6098	2681.4067	8824.1	7935.05
994.7328	2682.6501	8794.65	7904.65
994.8558	2683.8928	8773.2	7881.45
994.9788	2685.1348	8730.05	7842
995.1017	2686.3761	8708.7	7819.15
995.2245	2687.6168	8685.35	7794.95
995.3474	2688.8568	8661.9	7772.3
995.4702	2690.0961	8637.1	7747.2
995.5929	2691.3348	8591.6	7700.55
995.7156	2692.5727	8575.15	7685
995.8383	2693.81	8573.95	7684.25
995.961	2695.0466	8509.55	7621.65
996.0836	2696.2826	8477.6	7585.3
996.2062	2697.5178	8460.75	7569.55
996.3287	2698.7524	8426.05	7537.9
996.4512	2699.9863	8415.05	7521.45
996.5737	2701.2195	8371.35	7482.95
996.6961	2702.452	8361.7	7470.85
996.8185	2703.6839	8327.8	7438
996.9408	2704.9151	8333.4	7446.25
997.0631	2706.1456	8284.9	7396.9
997.1854	2707.3755	8230.65	7340.5
997.3077	2708.6046	8244.2	7350.1
997.4299	2709.8331	8209.5	7318.9
997.552	2711.0609	8178.55	7286.85
997.6742	2712.2881	8148.25	7257.75
997.7963	2713.5145	8136.35	7244.05
997.9183	2714.7403	8119	7231.35
998.0403	2715.9654	8078.3	7189.3
998.1623	2717.1899	8080.2	7177.55
998.2842	2718.4136	8067.55	7176.05
998.4062	2719.6367	8071.35	7183.4
998.528	2720.8591	8024.9	7128.75
998.6498	2722.0809	7990.3	7100.75
998.7716	2723.3019	7995.55	7103.8
998.8934	2724.5223	7969.1	7076.85
999.0151	2725.7421	7922.4	7032.05
999.1368	2726.9611	7893.6	7000.4
999.2584	2728.1795	7880.45	6987
999.38	2729.3972	7827.2	6938.2
999.5016	2730.6142	7801.3	6899.85
999.6231	2731.8306	7756.2	6866.25
999.7446	2733.0462	7723	6831.15
999.8661	2734.2612	7662	6767
999.9875	2735.4756	7634.55	6741.9
1000.1089	2736.6892	7581.65	6692.3
1000.2302	2737.9022	7543.4	6653.95
1000.3515	2739.1145	7545.15	6655.1
1000.4728	2740.3262	7478.15	6580.8
1000.594	2741.5372	7430.75	6541.45
1000.7152	2742.7475	7397.8	6508.5
1000.8363	2743.9571	7376.95	6487.35
1000.9575	2745.1661	7354.5	6461.6
1001.0785	2746.3744	7322.8	6433.7
1001.1996	2747.582	7286.55	6397.3
1001.3206	2748.7889	7263.7	6372.7
1001.4415	2749.9952	7243.5	6353.8
1001.5625	2751.2008	7194.95	6303.15
1001.6833	2752.4057	7183	6290.75
1001.8042	2753.61	7159.75	6269.85
1001.925	2754.8136	7137.3	6246.7
1002.0458	2756.0165	7111.7	6222.55
1002.1665	2757.2188	7080.8	6190.3
1002.2872	2758.4204	7047.55	6156.95
1002.4078	2759.6213	7026.85	6135.5
1002.5285	2760.8215	7025.5	6131.75
1002.649	2762.0211	7000.15	6110
1002.7696	2763.22	6970.3	6077.4
1002.8901	2764.4182	6937.95	6046.4
1003.0106	2765.6158	6927.95	6038.4
1003.131	2766.8127	6889.45	6000.6
1003.2514	2768.009	6858	5969.85
1003.3717	2769.2045	6855.3	5964.1
1003.492	2770.3994	6834.95	5943.45
1003.6123	2771.5936	6788.1	5897.45
1003.7325	2772.7872	6771.35	5881.75
1003.8527	2773.9801	6723.05	5832.3
1003.9729	2775.1723	6723.7	5817.45
1004.093	2776.3639	6713.25	5825.25
1004.2131	2777.5548	6674.05	5783.15
1004.3331	2778.745	6645.25	5753.65
1004.4531	2779.9346	6624.15	5734.05
1004.5731	2781.1235	6628.7	5739.1
1004.693	2782.3117	6601.35	5713.15
1004.8129	2783.4992	6577.3	5690.35
1004.9328	2784.6861	6557.25	5666.9
1005.0526	2785.8723	6549.05	5658.9
1005.1723	2787.0579	6522.4	5631.15
1005.2921	2788.2428	6524.5	5634.6
1005.4118	2789.427	6510.8	5621.55
1005.5314	2790.6106	6461.35	5573.25
1005.651	2791.7935	6462.75	5574.95
1005.7706	2792.9757	6454.25	5567.35
1005.8902	2794.1573	6441.75	5551.15
1006.0097	2795.3382	6434.6	5545.2
1006.1291	2796.5184	6423.3	5535.55
1006.2485	2797.698	6414.3	5525.5
1006.3679	2798.8769	6423.5	5535.4
1006.4873	2800.0551	6384.85	5495.6
1006.6066	2801.2327	6383.85	5492.1
1006.7258	2802.4096	6388.65	5498.6
1006.8451	2803.5859	6366.75	5475.15
1006.9642	2804.7615	6367.9	5477.65
1007.0834	2805.9364	6380.75	5493.15
1007.2025	2807.1106	6390.85	5503.7
1007.3216	2808.2842	6399	5509.35
1007.4406	2809.4572	6399.2	5510.4
1007.5596	2810.6294	6412.05	5520.75
1007.6785	2811.801	6452.1	5562.45
1007.7975	2812.972	6461.95	5574.15
1007.9163	2814.1423	6491.45	5599.6
1008.0352	2815.3119	6495	5606.2
1008.154	2816.4808	6523	5635.3
1008.2727	2817.6491	6568	5676.7
1008.3914	2818.8167	6596.65	5708.5
1008.5101	2819.9837	6628.75	5734.75
1008.6288	2821.15	6631.7	5742.05
1008.7474	2822.3157	6658.45	5771.1
1008.8659	2823.4807	6718.5	5828.75
1008.9844	2824.645	6730.3	5840.7
1009.1029	2825.8086	6746.75	5858.45
1009.2214	2826.9716	6792.45	5903.7
1009.3398	2828.134	6818.9	5930.05
1009.4581	2829.2957	6845.8	5955.65
1009.5764	2830.4567	6853.55	5966.8
1009.6947	2831.617	6848.15	5960.25
1009.813	2832.7767	6845.4	5955.85
1009.9312	2833.9358	6848.8	5960.1
1010.0493	2835.0941	6825.35	5935.2
1010.1675	2836.2519	6801.85	5912.4
1010.2855	2837.4089	6781.4	5891.3
1010.4036	2838.5653	6762.15	5873.8
1010.5216	2839.7211	6741	5854.35
1010.6396	2840.8761	6739.75	5850.2
1010.7575	2842.0306	6728.6	5841.65
1010.8754	2843.1843	6755.25	5866.75
1010.9932	2844.3374	6802.8	5914.05
1011.111	2845.4899	6850.7	5961.7
1011.2288	2846.6417	6875.9	5987.75
1011.3465	2847.7928	6958.75	6070.4
1011.4642	2848.9433	7019.6	6129.4
1011.5818	2850.0931	7072.5	6182.9
1011.6995	2851.2422	7120.95	6229.75
1011.817	2852.3907	7200.5	6310.35
1011.9345	2853.5385	7243.25	6352.35
1012.052	2854.6857	7307.3	6394.55
1012.1695	2855.8323	7289.35	6400.45
1012.2869	2856.9781	7325.7	6439.05
1012.4042	2858.1233	7361.65	6473.3
1012.5216	2859.2679	7384.55	6494.55
1012.6389	2860.4118	7387.95	6499.2
1012.7561	2861.555	7422.6	6527.7
1012.8733	2862.6976	7448.95	6556.1
1012.9905	2863.8395	7460.65	6572.35
1013.1076	2864.9808	7483.45	6594
1013.2247	2866.1214	7473.05	6588.25
1013.3417	2867.2614	7463.65	6574.55
1013.4587	2868.4007	7459.3	6568.9
1013.5757	2869.5393	7447	6556.8
1013.6926	2870.6773	7447.85	6554.5
1013.8095	2871.8146	7437.35	6545.7
1013.9263	2872.9513	7427.3	6537.45
1014.0431	2874.0874	7392.95	6503.9
1014.1599	2875.2227	7369.6	6481.5
1014.2766	2876.3574	7342	6453.45
1014.3933	2877.4915	7290.15	6402.25
1014.51	2878.6249	7243.2	6355.4
1014.6266	2879.7577	7225.55	6334.75
1014.7431	2880.8898	7175.9	6278.45
1014.8596	2882.0212	7126.8	6240.05
1014.9761	2883.152	7112.8	6222.95
1015.0925	2884.2821	7065.95	6178.4
1015.2089	2885.4116	7031.4	6142.8
1015.3253	2886.5405	7024.1	6137.3
1015.4416	2887.6686	7025.1	6133.1
1015.5579	2888.7962	7009.9	6120.35
1015.6741	2889.923	7010.9	6122.15
1015.7903	2891.0493	6980.8	6094.05
1015.9065	2892.1748	6993.6	6105.05
1016.0226	2893.2997	6994.35	6104.1
1016.1387	2894.424	6983.55	6093.55
1016.2547	2895.5476	6974.9	6084.8
1016.3707	2896.6706	6988.65	6102.85
1016.4866	2897.7929	7009.3	6122.55
1016.6025	2898.9145	7019.95	6132.5
1016.7184	2900.0355	7025.4	6134.55
1016.8342	2901.1559	7056.95	6168.8
1016.95	2902.2756	7058.75	6169.25
1017.0658	2903.3946	7073.15	6186.4
1017.1815	2904.513	7078.45	6186.5
1017.2971	2905.6308	7082.6	6194.2
1017.4127	2906.7479	7094.3	6206
1017.5283	2907.8643	7084.2	6194.6
1017.6439	2908.9801	7071	6182.8
1017.7594	2910.0953	7094.75	6205.45
1017.8748	2911.2098	7072.15	6180.4
1017.9902	2912.3236	7055.05	6157.55
1018.1056	2913.4368	7029.25	6136.5
1018.2209	2914.5494	6992.9	6103.3
1018.3362	2915.6613	6945.85	6052.25
1018.4515	2916.7725	6910.2	6016.2
1018.5667	2917.8831	6887.6	5998.8
1018.6819	2918.9931	6812.05	5921.8
1018.797	2920.1024	6788.65	5898.55
1018.9121	2921.211	6747.85	5859.35
1019.0271	2922.319	6730.55	5841.25
1019.1421	2923.4264	6692.85	5804.1
1019.2571	2924.5331	6687.25	5800.25
1019.372	2925.6391	6668.95	5779.8
1019.4869	2926.7445	6638.1	5751.65
1019.6017	2927.8493	6642	5751.65
1019.7165	2928.9534	6587.4	5698.8
1019.8313	2930.0569	6568.85	5677.15
1019.946	2931.1597	6552.2	5660.7
1020.0606	2932.2619	6524.6	5637.75
1020.1753	2933.3634	6514.55	5626.25
1020.2899	2934.4643	6500.25	5605.9
1020.4044	2935.5645	6480	5586.45
1020.5189	2936.6641	6432.6	5538.65
1020.6334	2937.763	6370.8	5482.9
1020.7478	2938.8613	6289.75	5400.1
1020.8622	2939.959	6240.6	5346.6
1020.9765	2941.056	6165.15	5277.6
1021.0908	2942.1523	6083.75	5194.6
1021.2051	2943.248	5997.8	5107.2
1021.3193	2944.3431	5876.7	4988.1
1021.4334	2945.4375	5761	4873.75
1021.5476	2946.5313	5667.65	4781.1
1021.6617	2947.6244	5554.75	4665.95
1021.7757	2948.7169	5428.6	4539.95
1021.8897	2949.8087	5338	4448.55
1022.0037	2950.8999	5218.4	4327.4
1022.1176	2951.9904	5135.05	4246.8
1022.2315	2953.0803	5059.6	4168.7
1022.3453	2954.1696	4986.4	4096.55
1022.4591	2955.2582	4921.85	4033.8
1022.5728	2956.3462	4855.85	3967.5
1022.6865	2957.4335	4809.25	3922.05
1022.8002	2958.5202	4762.65	3872.2
1022.9138	2959.6062	4718.25	3829.1
1023.0274	2960.6916	4679.2	3791.2
1023.141	2961.7764	4653.2	3764.9
1023.2545	2962.8605	4626.8	3738.1
1023.3679	2963.9439	4597.4	3710.5
1023.4813	2965.0267	4574.35	3685.15
1023.5947	2966.1089	4572.85	3662.95
1023.708	2967.1905	4519.35	3631.7
1023.8213	2968.2714	4511.1	3624.3
1023.9346	2969.3516	4490.5	3603.1
1024.0478	2970.4312	4490.35	3596.5
1024.1609	2971.5102	4471.4	3582.65
1024.274	2972.5885	4460.45	3572.65
1024.3871	2973.6662	4462.45	3570.4
1024.5002	2974.7432	4451.4	3562.4
1024.6132	2975.8196	4415.25	3527.85
1024.7261	2976.8954	4391.2	3503.35
1024.839	2977.9705	4381.25	3491.45
1024.9519	2979.045	4380	3492.85
1025.0647	2980.1188	4339.1	3450.7
1025.1775	2981.192	4314.15	3426.4
1025.2902	2982.2645	4271	3382.4
1025.4029	2983.3364	4230.65	3342.6
1025.5156	2984.4077	4186.25	3297.35
1025.6282	2985.4783	4177.95	3283.55
1025.7407	2986.5483	4129.8	3241.6
1025.8532	2987.6177	4072.1	3184.85
1025.9657	2988.6864	4026.2	3136.85
1026.0782	2989.7545	3986.4	3097.45
1026.1906	2990.8219	3957.9	3070.6
1026.3029	2991.8887	3920.4	3029.95
1026.4152	2992.9548	3872.9	2984.7
1026.5275	2994.0204	3833.2	2948.65
1026.6397	2995.0852	3812.9	2926.75
1026.7519	2996.1495	3765.45	2878.3
1026.864	2997.2131	3733.7	2845.3
1026.9761	2998.276	3704.3	2815.9
1027.0882	2999.3383	3675.5	2786.65
1027.2002	3000.4	3642.1	2750.8
1027.3122	3001.4611	3639.2	2752.6
1027.4241	3002.5215	3603.9	2714.8
1027.536	3003.5812	3581.3	2694.7
1027.6478	3004.6404	3556.8	2668.2
1027.7596	3005.6989	3541.55	2651.25
1027.8714	3006.7567	3520.25	2632.35
1027.9831	3007.8139	3523.9	2616.25
1028.0947	3008.8705	3479.4	2591.3
1028.2064	3009.9264	3460.55	2568.1
1028.3179	3010.9818	3465.4	2575
1028.4295	3012.0364	3465.65	2576.15
1028.541	3013.0905	3436.25	2547.6
1028.6524	3014.1439	3430.85	2543.7
1028.7638	3015.1966	3420.2	2533.85
1028.8752	3016.2487	3412.2	2522.55
1028.9865	3017.3002	3396.45	2500.75
1029.0978	3018.3511	3383.9	2496.2
1029.209	3019.4013	3379.7	2490.5
1029.3202	3020.4509	3358.45	2470.65
1029.4314	3021.4998	3352.7	2464.55
1029.5425	3022.5481	3353.1	2464.35
1029.6535	3023.5958	3344.4	2455.6
1029.7645	3024.6428	3343.15	2452.95
1029.8755	3025.6892	3324.55	2438.5
1029.9864	3026.735	3312.15	2424.2
1030.0973	3027.7802	3308.55	2421.8
1030.2082	3028.8247	3293.9	2404.65
1030.319	3029.8685	3291.05	2401.5
1030.4297	3030.9118	3294.1	2403.6
1030.5404	3031.9544	3288.75	2401.4
1030.6511	3032.9963	3273.15	2384.15
1030.7617	3034.0376	3279.3	2391.6
1030.8723	3035.0783	3264.6	2374.9
1030.9829	3036.1184	3254.35	2365.1
1031.0934	3037.1578	3263.9	2375.1
1031.2038	3038.1966	3257.9	2368.55
1031.3142	3039.2348	3238.05	2350.6
1031.4246	3040.2723	3247.3	2351.1
1031.5349	3041.3092	3219.1	2331.6
1031.6452	3042.3455	3228.65	2340.3
1031.7554	3043.3811	3202.8	2313.7
1031.8656	3044.4161	3196.55	2308.45
1031.9758	3045.4505	3170.65	2285.3
1032.0859	3046.4842	3163.55	2275.5
1032.1959	3047.5173	3152.05	2265.85
1032.3059	3048.5498	3140.5	2252.55
1032.4159	3049.5816	3121.35	2232.55
1032.5258	3050.6128	3112.95	2223.3
1032.6357	3051.6434	3107.85	2217.45
1032.7455	3052.6734	3090.35	2200.7
1032.8553	3053.7027	3081.55	2191.4
1032.9651	3054.7314	3060.4	2173.3
1033.0748	3055.7594	3038.65	2149.9
1033.1845	3056.7868	3046.45	2156.7
1033.2941	3057.8136	3040.25	2151.95
1033.4037	3058.8398	3025.65	2138.4
1033.5132	3059.8653	3011.3	2123.25
1033.6227	3060.8902	2983.1	2098.15
1033.7321	3061.9145	2983.25	2095.5
1033.8415	3062.9381	2960.5	2072.4
1033.9509	3063.9612	2976	2072.35
1034.0602	3064.9835	2934.85	2047.55
1034.1694	3066.0053	2937.7	2049
1034.2787	3067.0264	2912.65	2025.8
1034.3878	3068.0469	2902.45	2015.45
1034.497	3069.0668	2896.95	2005.6
1034.6061	3070.086	2880.5	1993.45
1034.7151	3071.1046	2866.15	1976.85
1034.8241	3072.1226	2852.6	1962.35
1034.9331	3073.1399	2827.95	1940.8
1035.042	3074.1567	2811.5	1924
1035.1508	3075.1727	2807.5	1917.4
1035.2597	3076.1882	2779.95	1891.2
1035.3684	3077.203	2775.55	1888
1035.4772	3078.2173	2757.6	1868.15
1035.5859	3079.2308	2756.05	1865.05
1035.6945	3080.2438	2738.05	1848.2
1035.8031	3081.2561	2712.75	1823.1
1035.9117	3082.2678	2694.6	1807.8
1036.0202	3083.2789	2690.1	1802.4
1036.1286	3084.2893	2682.25	1794.7
1036.2371	3085.2991	2671.15	1782.35
1036.3454	3086.3083	2655.55	1763.85
1036.4538	3087.3169	2638.95	1748.9
1036.562	3088.3248	2634.8	1745
1036.6703	3089.3321	2626.05	1736.1
1036.7785	3090.3388	2606.6	1719.05
1036.8866	3091.3449	2592.05	1705.95
1036.9948	3092.3503	2589.45	1700.15
1037.1028	3093.3551	2572.3	1686.35
1037.2108	3094.3593	2558.8	1671.85
1037.3188	3095.3629	2552.45	1665.7
1037.4267	3096.3658	2540.95	1653.05
1037.5346	3097.3681	2547.8	1659.95
1037.6425	3098.3698	2529.75	1639.4
1037.7503	3099.3708	2527.55	1632.75
1037.858	3100.3713	2515.95	1629.25
1037.9657	3101.3711	2494.45	1608
1038.0734	3102.3702	2610.65	1581.5
1038.181	3103.3688	2483.2	1593.9
1038.2886	3104.3667	2476.05	1589.6
1038.3961	3105.364	2465.6	1578.75
1038.5036	3106.3607	2446.8	1557.95
1038.611	3107.3568	2436.4	1544.7
1038.7184	3108.3522	2424.85	1539.25
1038.8257	3109.347	2412.4	1522.15
1038.933	3110.3412	2412.65	1521.2
1039.0403	3111.3348	2400.4	1512.15
1039.1475	3112.3277	2399.4	1511.45
1039.2547	3113.32	2382.3	1496.05
1039.3618	3114.3117	2380.8	1492.8
1039.4689	3115.3028	2374.95	1487
1039.5759	3116.2932	2358	1468.45
1039.6829	3117.2831	2353.35	1458.85
1039.7898	3118.2723	2345	1457.25
1039.8967	3119.2608	2342.35	1457.15
1040.0035	3120.2488	2322.05	1433.55
1040.1103	3121.2361	2310.9	1422.95
1040.2171	3122.2229	2302.55	1414.05
1040.3238	3123.209	2295.65	1407.5
1040.4305	3124.1944	2281.25	1395.4
1040.5371	3125.1793	2298.8	1409.45
1040.6437	3126.1635	2279.3	1391.25
1040.7502	3127.1471	2275.45	1387.85
1040.8567	3128.1301	2265.3	1376.15
1040.9631	3129.1125	2260.1	1373.25
1041.0695	3130.0942	2254.35	1365.5
1041.1759	3131.0753	2247.25	1351.85
1041.2822	3132.0558	2241.6	1351.85
1041.3884	3133.0357	2231.05	1342.2
1041.4946	3134.015	2218.9	1330.35
1041.6008	3134.9936	2214.55	1326.75
1041.7069	3135.9716	2226.95	1317.95
1041.813	3136.949	2211.15	1322.85
1041.919	3137.9258	2210.5	1318
1042.025	3138.902	2197.55	1304.65
1042.1309	3139.8775	2193.25	1304.6
1042.2368	3140.8524	2183.4	1297.1
1042.3427	3141.8267	2172	1283.55
1042.4485	3142.8004	2167	1278.65
1042.5542	3143.7735	2168.5	1274.7
1042.6599	3144.7459	2165.05	1273.7
1042.7656	3145.7178	2152.65	1264.6
1042.8712	3146.689	2149.15	1263.3
1042.9768	3147.6596	2148.5	1258.1
1043.0823	3148.6295	2139.4	1250.7
1043.1878	3149.5989	2123.5	1237.5
1043.2932	3150.5676	2117.3	1230.4
1043.3986	3151.5357	2107.5	1221.35
1043.5039	3152.5032	2108.05	1221.15
1043.6092	3153.4701	2109.7	1220.95
1043.7145	3154.4364	2092.5	1202.8
1043.8197	3155.402	2079.9	1191.95
1043.9248	3156.367	2091.7	1203.55
1044.03	3157.3315	2104.5	1173.1
1044.135	3158.2952	2076.05	1188.8
1044.24	3159.2584	2050.75	1164.55
1044.345	3160.221	2048.35	1160.35
1044.4499	3161.1829	2049.9	1163.2
1044.5548	3162.1442	2030.45	1142.95
1044.6596	3163.105	2030.15	1142
1044.7644	3164.065	2013.9	1127.4
1044.8692	3165.0245	2019.05	1127.7
1044.9739	3165.9834	2009.1	1121.8
1045.0785	3166.9416	2018.15	1129.3
1045.1831	3167.8993	2004.9	1116.4
1045.2877	3168.8563	1994.9	1107.5
1045.3922	3169.8127	1991.15	1103.8
1045.4966	3170.7684	1980.05	1093.05
1045.6011	3171.7236	1979.7	1091.25
1045.7054	3172.6782	1968.85	1079.5
1045.8098	3173.6321	1965.05	1076.5
1045.914	3174.5854	1960.6	1068
1046.0183	3175.5381	1959.9	1071.5
1046.1224	3176.4902	1948.25	1062.45
1046.2266	3177.4417	1941.6	1052.75
1046.3307	3178.3926	1934	1046.9
1046.4347	3179.3428	1928.4	1042.5
1046.5387	3180.2924	1925.95	1039.7
1046.6427	3181.2415	1910.6	1022.7
1046.7466	3182.1899	1914.2	1024.25
1046.8504	3183.1377	1902.1	1015.2
1046.9542	3184.0848	1909.65	1019.25
1047.058	3185.0314	1904.7	1016.65
1047.1617	3185.9773	1887.85	999.8
1047.2654	3186.9227	1884.25	995.1
1047.369	3187.8674	1878.55	992.7
1047.4726	3188.8115	1880.2	987.3
1047.5761	3189.755	1871.15	984
1047.6796	3190.6979	1867.15	980.65
1047.783	3191.6402	1858.95	972.05
1047.8864	3192.5818	1857.3	969.8
1047.9898	3193.5229	1871.8	960.1
1048.0931	3194.4633	1848.5	960.1
1048.1963	3195.4031	1842.35	952.75
1048.2995	3196.3423	1827.7	941.75
1048.4027	3197.2809	1828.6	940.7
1048.5058	3198.2189	1836.25	948.55
1048.6089	3199.1563	1823.1	929.45
1048.7119	3200.0931	1809.55	923.9
1048.8148	3201.0292	1807.25	920.5
1048.9178	3201.9648	1798.75	911.65
1049.0206	3202.8997	1802.55	911.3
1049.1235	3203.834	1800.35	911.55
1049.2262	3204.7677	1789.95	902.8
1049.329	3205.7008	1797.4	909.6
1049.4317	3206.6333	1788	902.55
1049.5343	3207.5652	1779.75	890.45
1049.6369	3208.4964	1775.35	886.95
1049.7394	3209.4271	1773	885.65
1049.8419	3210.3571	1769.35	882.15
1049.9444	3211.2865	1767.95	879.1
1050.0468	3212.2154	1762.85	876.3
1050.1491	3213.1436	1757.1	866.85
1050.2514	3214.0712	1757.95	863.75
1050.3537	3214.9982	1747.85	859.05
1050.4559	3215.9246	1744.35	857.4
1050.5581	3216.8503	1730.1	843.85
1050.6602	3217.7755	1733.5	844.25
1050.7623	3218.7001	1730.3	842.55
1050.8643	3219.624	1716.5	828.95
1050.9663	3220.5473	1720.05	830.5
1051.0682	3221.4701	1708.05	820.3
1051.1701	3222.3922	1712.55	824.45
1051.2719	3223.3137	1705.8	817.15
1051.3737	3224.2346	1694.45	807.7
1051.4754	3225.1549	1684.9	797.1
1051.5771	3226.0746	1692.75	805.1
1051.6788	3226.9937	1690.1	802.05
1051.7804	3227.9121	1680.05	793.4
1051.8819	3228.83	1672.65	785.95
1051.9834	3229.7473	1668.4	780.9
1052.0849	3230.6639	1678.5	791.45
1052.1863	3231.5799	1667.8	782.15
1052.2876	3232.4954	1661.4	772.85
1052.3889	3233.4102	1652.5	766.15
1052.4902	3234.3244	1656.6	767.1
1052.5914	3235.238	1650.7	763.25
1052.6926	3236.151	1661.35	748.1
1052.7937	3237.0634	1637.65	752.45
1052.8948	3237.9752	1637.65	749.3
1052.9958	3238.8864	1638.2	750.45
1053.0968	3239.797	1626.8	739.25
1053.1977	3240.7069	1625.15	735.5
1053.2986	3241.6163	1619.1	728.65
1053.3994	3242.5251	1615.3	728.9
1053.5002	3243.4332	1606.05	719.7
1053.6009	3244.3408	1605.8	716.75
1053.7016	3245.2477	1601.4	714.7
1053.8022	3246.154	1600.95	712.55
1053.9028	3247.0598	1594.75	705.55
1054.0034	3247.9649	1584.5	696.65
1054.1039	3248.8694	1581.8	694.65
1054.2043	3249.7733	1575.15	688.1
1054.3047	3250.6766	1568.45	680.85
1054.4051	3251.5793	1564.75	677
1054.5054	3252.4814	1563.45	675.3
1054.6056	3253.3829	1562.65	677.7
1054.7058	3254.2838	1549.6	661.9
1054.806	3255.1841	1554.1	668.6
1054.9061	3256.0838	1547.5	659.75
1055.0061	3256.9829	1542.05	656.05
1055.1062	3257.8814	1532.15	643.35
1055.2061	3258.7792	1531.2	642.3
1055.306	3259.6765	1525.75	635.75
1055.4059	3260.5731	1518.6	629.8
1055.5057	3261.4692	1506.1	619.5
1055.6055	3262.3647	1502.3	614.45
1055.7052	3263.2595	1499.65	612.45
1055.8049	3264.1538	1485.85	599.4
1055.9045	3265.0474	1486.3	598.75
1056.0041	3265.9404	1469.7	581.6
1056.1036	3266.8329	1450.35	564.05
1056.2031	3267.7247	1456.7	557.85
1056.3025	3268.616	1434.4	548.05
1056.4019	3269.5066	1424	536.85
1056.5013	3270.3966	1410.15	520.5
1056.6005	3271.286	1389.2	502.65
