Software Version:	3.9.2.0
Unit SN:	10000200
Spectrometer SN:	6960
Date:	3/6/2024 9:43:38 AM
Data Line Index:	25
Spectral Points:	2048
Integration time (ms):	125
Averages:	20
Delay (ms):	30
Sequence Number:	1
Processing:	dark subtract
Laser Power (mW):	300
Laser Current (mA):	824
Laser Diode Temp (C):	25.1
Laser Case Temp (C):	24
System Temp (C):	23.9
Spectrometer Temp (C):	21.5
CCD Temp (C):	-0.037
Secondary Temp (C):	20.008
Heatsink Temp (C):	17.82
CCDPCB Temp (C):	30.727
SecondaryPCB Temp (C):	25.558

Wavelength	RamanShift	Raw Counts	Dark Subtracted
787.061	30.1047	459	52.4
787.2016	32.3739	457.3	53
787.3422	34.6426	459.6	55.05
787.4828	36.9109	465.45	58.45
787.6235	39.1787	472.35	60.7
787.7642	41.4461	482.4	66.85
787.9049	43.7131	486.6	67.45
788.0456	45.9796	492.85	70.95
788.1863	48.2456	500.35	74.2
788.3271	50.5112	513.1	81.85
788.4679	52.7764	519.2	86.6
788.6087	55.0411	527.2	88.5
788.7496	57.3054	536.1	94.2
788.8904	59.5692	545.1	100.3
789.0313	61.8326	554.2	109.4
789.1722	64.0955	563.35	115
789.3132	66.3579	577.4	122.45
789.4541	68.6199	597.4	139.25
789.5951	70.8815	624.7	160.45
789.7361	73.1426	678.35	211.6
789.8771	75.4032	808.8	341.2
790.0181	77.6634	1149.85	675.8
790.1592	79.9231	1965.15	1491.05
790.3003	82.1824	3644.05	3163.9
790.4414	84.4412	6613.65	6122.5
790.5825	86.6995	10576.4	10074.35
790.7237	88.9574	14547.5	14035.2
790.8648	91.2148	17467.45	16949.85
791.006	93.4717	19060.15	18536.05
791.1472	95.7282	19752.45	19227.05
791.2885	97.9842	20121.7	19595.9
791.4297	100.2398	20260.2	19730.7
791.571	102.4949	20317.3	19783.9
791.7123	104.7495	20327.55	19792.15
791.8536	107.0036	20311.4	19771.2
791.9949	109.2573	20308.75	19771.5
792.1363	111.5105	20347.3	19806.45
792.2777	113.7632	20298.35	19755.85
792.4191	116.0154	20328.3	19773.85
792.5605	118.2672	20393.85	19848.75
792.7019	120.5185	20418.65	19871.1
792.8434	122.7693	20436.85	19887
792.9849	125.0197	20499.7	19944.9
793.1264	127.2696	20449.75	19890.9
793.2679	129.519	20583.2	20020.25
793.4094	131.7679	20604.3	20040.5
793.551	134.0163	20687.35	20120
793.6926	136.2642	20693.2	20124.7
793.8342	138.5117	20731.3	20157.55
793.9758	140.7587	20713.55	20137.45
794.1175	143.0052	20745.85	20169.6
794.2591	145.2512	20748.25	20170.5
794.4008	147.4967	20721.8	20142.4
794.5425	149.7417	20710.35	20128.05
794.6842	151.9863	20679.35	20091.45
794.826	154.2304	20714.3	20124.35
794.9677	156.4739	20682.75	20086.5
795.1095	158.717	20720.05	20125.95
795.2513	160.9596	20731	20131.45
795.3931	163.2017	20737.55	20136.2
795.535	165.4433	20761.45	20156.55
795.6768	167.6844	20792.25	20185.05
795.8187	169.925	20806.7	20193
795.9606	172.1651	20757.05	20144.25
796.1025	174.4047	20771.8	20154
796.2445	176.6439	20768.9	20150.65
796.3864	178.8825	20759.8	20138.85
796.5284	181.1206	20777.85	20153.6
796.6704	183.3582	20763.25	20134.85
796.8124	185.5954	20796.95	20165.25
796.9544	187.832	20832.4	20196.4
797.0965	190.0681	20894	20256.75
797.2386	192.3037	20950.2	20306.95
797.3806	194.5388	20963.7	20319.95
797.5228	196.7734	21023.05	20379.25
797.6649	199.0075	21051.7	20405.75
797.807	201.2411	21167	20520.9
797.9492	203.4742	21218.1	20567.55
798.0914	205.7068	21301.5	20649.1
798.2336	207.9389	21323.95	20667.25
798.3758	210.1704	21345.6	20696.75
798.518	212.4015	21335.9	20699.85
798.6603	214.632	21386.9	20755.6
798.8025	216.862	21415.1	20785.45
798.9448	219.0915	21427.05	20792.8
799.0871	221.3205	21491.7	20856.5
799.2294	223.549	21525.9	20893.35
799.3718	225.777	21566.15	20931.9
799.5141	228.0044	21578.6	20937.6
799.6565	230.2314	21646.3	21002.6
799.7989	232.4578	21604	20956.75
799.9413	234.6837	21681.05	21024.05
800.0837	236.909	21681.6	21023.65
800.2262	239.1339	21724.75	21044.6
800.3687	241.3582	21697.95	21031.95
800.5111	243.582	21775.55	21075.5
800.6536	245.8053	21777.3	21094.55
800.7961	248.0281	21804.8	21124.15
800.9387	250.2503	21778.4	21093.65
801.0812	252.472	21799.65	21117.1
801.2238	254.6932	21851.5	21170.2
801.3664	256.9139	21820.3	21135.25
801.509	259.134	21841.7	21149.9
801.6516	261.3536	21845.3	21158.55
801.7942	263.5727	21935.85	21244.35
801.9369	265.7912	21890.1	21199.6
802.0795	268.0092	22008.35	21317.5
802.2222	270.2267	21997.85	21306.45
802.3649	272.4436	22037.1	21343.65
802.5076	274.6601	22050.45	21347.15
802.6504	276.8759	22010.95	21310.4
802.7931	279.0913	22086.55	21386.8
802.9359	281.3061	22073	21373.75
803.0787	283.5204	22118.25	21417.2
803.2215	285.7341	22180.85	21477.6
803.3643	287.9473	22252.4	21534.8
803.5071	290.16	22184	21473.1
803.6499	292.3721	22184.7	21479.2
803.7928	294.5837	22165.85	21458.05
803.9357	296.7947	22113.15	21407.2
804.0786	299.0052	22118.05	21411.35
804.2215	301.2152	22099.8	21391.1
804.3644	303.4246	22112.45	21404.65
804.5074	305.6334	22075.25	21366.25
804.6503	307.8418	22068.6	21354.85
804.7933	310.0495	22043.25	21330.65
804.9363	312.2568	22049.15	21335.65
805.0793	314.4635	21984.5	21267.85
805.2223	316.6696	21951.3	21234.5
805.3653	318.8752	21835.6	21109.1
805.5084	321.0802	21819.05	21100.15
805.6514	323.2847	21821.85	21100.1
805.7945	325.4887	21795.1	21071.3
805.9376	327.692	21785.15	21060.95
806.0807	329.8949	21855.85	21130.95
806.2238	332.0972	21873.55	21146
806.367	334.2989	21917.3	21185.2
806.5101	336.5001	21897.9	21164.9
806.6533	338.7007	21872.35	21141.2
806.7965	340.9008	21899.6	21166.25
806.9397	343.1003	21833.4	21098.85
807.0829	345.2992	21845.5	21108.95
807.2261	347.4976	21804.7	21067.45
807.3693	349.6955	21784.35	21041.9
807.5126	351.8927	21791.45	21048.45
807.6559	354.0895	21774.3	21022.35
807.7991	356.2856	21771	21024.5
807.9424	358.4812	21721.05	20977.25
808.0857	360.6763	21774.95	21029.25
808.2291	362.8707	21713.25	20965.7
808.3724	365.0646	21780.5	21029.4
808.5158	367.258	21727.15	20973.75
808.6591	369.4508	21674.8	20918.85
808.8025	371.643	21693.5	20936.2
808.9459	373.8346	21650.55	20891.85
809.0893	376.0257	21649.1	20886.85
809.2327	378.2162	21629.35	20868.9
809.3762	380.4062	21660.9	20901.5
809.5196	382.5956	21599.6	20840.35
809.6631	384.7844	21552.8	20800.7
809.8066	386.9726	21523.65	20769.1
809.9501	389.1603	21456.2	20704.15
810.0936	391.3474	21436.4	20644.5
810.2371	393.5339	21423.5	20670.25
810.3806	395.7199	21350.05	20597.75
810.5241	397.9052	21387.1	20635.15
810.6677	400.09	21371.25	20614.25
810.8113	402.2743	21429.4	20672.55
810.9548	404.4579	21394.25	20636.75
811.0984	406.641	21453.65	20691.65
811.2421	408.8235	21477.7	20717.95
811.3857	411.0054	21492.75	20728.55
811.5293	413.1868	21604.1	20839.85
811.673	415.3675	21626.45	20858.6
811.8166	417.5477	21631.3	20859.05
811.9603	419.7273	21527.35	20753.2
812.104	421.9064	21398.75	20617.45
812.2477	424.0848	21326.35	20552.15
812.3914	426.2627	21251.35	20477.6
812.5351	428.4399	21188.3	20411.85
812.6788	430.6166	21120.85	20342.95
812.8226	432.7928	21049.45	20269.45
812.9663	434.9683	20973.2	20191.5
813.1101	437.1432	20971.8	20186.3
813.2539	439.3176	20870.65	20088.15
813.3977	441.4914	20787.7	20008.95
813.5415	443.6645	20791.85	20006.8
813.6853	445.8371	20711.95	19928.85
813.8291	448.0091	20641.8	19860.6
813.973	450.1806	20609.85	19827.9
814.1168	452.3514	20580.1	19794.95
814.2607	454.5216	20576.8	19782
814.4046	456.6913	20437.55	19647.85
814.5485	458.8603	20440.4	19653.25
814.6924	461.0288	20485.1	19700.35
814.8363	463.1967	20430.1	19643.4
814.9802	465.3639	20463.2	19675.15
815.1241	467.5306	20370.65	19578.1
815.2681	469.6967	20331.75	19544
815.412	471.8622	20272.75	19483
815.556	474.0271	20259.95	19471.1
815.7	476.1914	20260.65	19469.35
815.844	478.3551	20251.05	19461.5
815.988	480.5182	20263.35	19472
816.132	482.6807	20265.75	19473.3
816.276	484.8426	20325.35	19535.15
816.4201	487.0039	20310.9	19517.7
816.5641	489.1647	20348.35	19555.25
816.7082	491.3248	20386.65	19595.75
816.8522	493.4843	20334.25	19541.1
816.9963	495.6432	20348.15	19553.15
817.1404	497.8015	20328.2	19529.05
817.2845	499.9592	20287.1	19487.95
817.4286	502.1163	20238.15	19440.15
817.5727	504.2728	20161.85	19359.75
817.7168	506.4287	20211.7	19414.95
817.861	508.5839	20141.55	19344.35
818.0051	510.7386	20089.8	19292.2
818.1493	512.8927	20119.35	19316.6
818.2935	515.0461	20101.9	19300.4
818.4377	517.199	20111.25	19307
818.5818	519.3512	20117.5	19313.55
818.726	521.5029	20138.8	19331.2
818.8703	523.6539	20145.7	19340.95
819.0145	525.8043	20099.1	19294.75
819.1587	527.9541	20078.35	19268.75
819.303	530.1033	20031.75	19224.85
819.4472	532.2519	19980.95	19174
819.5915	534.3999	19952.05	19141.2
819.7357	536.5472	19902.65	19093.35
819.88	538.694	19948.85	19140.55
820.0243	540.8401	19951.2	19140.85
820.1686	542.9856	19949	19137.6
820.3129	545.1305	19895.65	19082.6
820.4572	547.2748	19930.4	19120.05
820.6016	549.4185	19912.35	19095.15
820.7459	551.5615	19896.2	19079.5
820.8902	553.704	19902.9	19088.05
821.0346	555.8458	19850.85	19038.15
821.1789	557.987	19845.8	19033.1
821.3233	560.1276	19809.75	18994.9
821.4677	562.2675	19904.2	19089.9
821.6121	564.4069	19880.85	19066.2
821.7565	566.5456	19842.75	19028.45
821.9009	568.6837	19845.05	19029.1
822.0453	570.8212	19748.5	18931.9
822.1897	572.958	19684.15	18863.6
822.3342	575.0942	19642.75	18826.85
822.4786	577.2299	19573.45	18757.35
822.6231	579.3648	19511.2	18695.35
822.7675	581.4992	19392.8	18577.45
822.912	583.6329	19317.25	18501.4
823.0565	585.766	19318.6	18504.1
823.201	587.8985	19294.2	18476.65
823.3454	590.0304	19269.85	18438.35
823.4899	592.1616	19271.85	18448.65
823.6345	594.2922	19230.05	18409
823.779	596.4222	19146.55	18321.95
823.9235	598.5515	19103.3	18278.5
824.068	600.6802	19039.15	18218.85
824.2126	602.8083	18964.35	18140.9
824.3571	604.9358	18906.85	18080.5
824.5017	607.0626	18865.1	18040.75
824.6462	609.1888	18843.5	18014.85
824.7908	611.3144	18834.85	18008.2
824.9354	613.4393	18850	18026.35
825.08	615.5636	18811.05	17984.35
825.2246	617.6873	18829.4	18003.45
825.3692	619.8103	18884.45	18055.6
825.5138	621.9327	18822.6	17991.65
825.6584	624.0544	18788.95	17961.25
825.803	626.1756	18764.85	17938.2
825.9477	628.2961	18708.25	17880
826.0923	630.4159	18650.9	17823.5
826.237	632.5351	18653.4	17824.95
826.3816	634.6537	18639.15	17807.95
826.5263	636.7716	18585.85	17752.05
826.6709	638.8889	18614.1	17780.6
826.8156	641.0056	18612.9	17780.4
826.9603	643.1216	18605.8	17771.05
827.105	645.237	18601.1	17764.3
827.2497	647.3518	18550.8	17718.1
827.3944	649.4659	18525.3	17694.05
827.5391	651.5793	18501.2	17668.75
827.6838	653.6922	18457.3	17625.45
827.8285	655.8043	18451.1	17618.8
827.9733	657.9159	18394.6	17561.65
828.118	660.0268	18338.45	17502.8
828.2627	662.137	18323.15	17487.6
828.4075	664.2466	18320.25	17483.6
828.5522	666.3556	18302.25	17467.8
828.697	668.4639	18250.7	17412.1
828.8418	670.5716	18261.95	17426.5
828.9865	672.6786	18241.95	17402.95
829.1313	674.785	18176.65	17337.4
829.2761	676.8907	18126.55	17288.3
829.4209	678.9958	18158.9	17322
829.5657	681.1002	18092.15	17253.25
829.7105	683.204	18041.55	17197.4
829.8553	685.3072	18048.35	17205.45
830.0001	687.4097	18001.75	17161.45
830.1449	689.5115	17968.3	17124.4
830.2898	691.6127	17981.55	17141.5
830.4346	693.7132	17945.25	17103.55
830.5794	695.8131	17987.45	17123.95
830.7243	697.9123	17960.75	17117.95
830.8691	700.0109	17904.7	17058.25
831.014	702.1089	17908.35	17064
831.1588	704.2061	17852.75	17008.25
831.3037	706.3028	17870.95	17026.8
831.4486	708.3987	17903.85	17057.9
831.5935	710.4941	17829.15	16985.6
831.7383	712.5887	17857.2	17013.25
831.8832	714.6827	17841.45	16994.35
832.0281	716.7761	17796.05	16952.05
832.173	718.8688	17801.2	16955.5
832.3179	720.9608	17752.1	16901.6
832.4628	723.0522	17782.25	16930.15
832.6077	725.1429	17725.2	16879.7
832.7527	727.233	17721.35	16875.5
832.8976	729.3224	17770.8	16924.9
833.0425	731.4112	17759.8	16911.05
833.1874	733.4993	17699.5	16848.8
833.3324	735.5867	17651.4	16801.85
833.4773	737.6735	17596.55	16747.05
833.6222	739.7596	17529.7	16680.35
833.7672	741.845	17465.6	16616.25
833.9122	743.9298	17476.75	16625.45
834.0571	746.014	17437.35	16590.45
834.2021	748.0974	17452.75	16600.6
834.347	750.1802	17394.65	16542.7
834.492	752.2624	17342.45	16492.3
834.637	754.3439	17266.6	16413.7
834.782	756.4247	17171.45	16311.2
834.9269	758.5048	17151.7	16302
835.0719	760.5843	17137.4	16285.25
835.2169	762.6631	17088.7	16237.05
835.3619	764.7413	17097.2	16246.4
835.5069	766.8188	17127	16273
835.6519	768.8956	17080.4	16226.6
835.7969	770.9718	17125.1	16271.75
835.9419	773.0473	17061.9	16209.9
836.0869	775.1221	17046.3	16192.8
836.232	777.1962	16935.6	16080.35
836.377	779.2697	16984.45	16128.25
836.522	781.3426	16973.05	16098.45
836.667	783.4147	16975.95	16117.35
836.8121	785.4862	16946.55	16094.2
836.9571	787.557	16908.25	16054.15
837.1021	789.6271	16795.6	15941.25
837.2472	791.6966	16713	15858.85
837.3922	793.7654	16576.6	15719.9
837.5373	795.8335	16607.4	15753.5
837.6823	797.901	16542.1	15689
837.8274	799.9678	16506.2	15647.55
837.9724	802.0339	16463.85	15606.1
838.1175	804.0993	16443.85	15576.45
838.2626	806.1641	16373.6	15513.9
838.4076	808.2282	16332.5	15474.95
838.5527	810.2916	16341.85	15482.8
838.6978	812.3544	16367	15514.25
838.8428	814.4164	16296.15	15441.8
838.9879	816.4778	16285.3	15426
839.133	818.5385	16280.85	15422.75
839.2781	820.5986	16273.8	15414.4
839.4232	822.658	16281.45	15423
839.5682	824.7166	16262.05	15406.55
839.7133	826.7747	16332.1	15474.6
839.8584	828.832	16323.2	15465.15
840.0035	830.8886	16299.1	15438.2
840.1486	832.9446	16295.3	15434.45
840.2937	834.9999	16249.4	15391.15
840.4388	837.0545	16194.05	15331.2
840.5839	839.1085	16135.3	15273.05
840.729	841.1618	16108.65	15242.9
840.8741	843.2143	16049.15	15188.5
841.0192	845.2662	15947.25	15087.15
841.1643	847.3175	15920.5	15060.05
841.3095	849.368	15875.45	15015.75
841.4546	851.4179	15882.95	15022.2
841.5997	853.467	15808.15	14948.5
841.7448	855.5155	15778.45	14916.9
841.8899	857.5633	15769.35	14906.5
842.0351	859.6105	15740.5	14879
842.1802	861.6569	15705.95	14843.55
842.3253	863.7027	15689.25	14823.85
842.4704	865.7478	15667.15	14803.15
842.6156	867.7922	15698.2	14835.05
842.7607	869.8359	15590.6	14724.85
842.9058	871.8789	15607.6	14743.35
843.0509	873.9212	15576.05	14683
843.1961	875.9629	15535.55	14674.8
843.3412	878.0039	15515.8	14650.5
843.4863	880.0441	15482.5	14618.25
843.6315	882.0837	15555.35	14690.9
843.7766	884.1226	15531.5	14666.2
843.9218	886.1609	15546.5	14684.2
844.0669	888.1984	15571.95	14708
844.212	890.2352	15617.95	14755.9
844.3572	892.2714	15589.7	14720.75
844.5023	894.3069	15550.35	14685.15
844.6475	896.3416	15446.15	14579.7
844.7926	898.3757	15414.1	14547.85
844.9377	900.4091	15383.9	14516.1
845.0829	902.4418	15373.7	14501.9
845.228	904.4739	15314.75	14445.15
845.3732	906.5052	15298.1	14430.95
845.5183	908.5358	15277.65	14411.55
845.6635	910.5658	15251.65	14382.85
845.8086	912.595	15204.05	14337.15
845.9538	914.6236	15142.15	14273.15
846.0989	916.6515	15130.9	14264.1
846.2441	918.6786	15077.2	14207.8
846.3892	920.7051	15081	14208.7
846.5344	922.7309	15110.9	14241
846.6795	924.756	15000.6	14131.35
846.8246	926.7804	15005.7	14138.15
846.9698	928.8041	14911.7	14042.55
847.1149	930.8272	14926.75	14059.2
847.2601	932.8495	14842.65	13973.05
847.4052	934.8711	14872.7	14001.5
847.5504	936.892	14800.7	13930.3
847.6955	938.9123	14791.75	13923.2
847.8407	940.9318	14765.45	13897.6
847.9858	942.9506	14706.15	13838.25
848.131	944.9688	14686.05	13818.85
848.2761	946.9862	14637.45	13769.25
848.4213	949.003	14538.25	13669.8
848.5664	951.019	14541.1	13671.85
848.7115	953.0344	14464.15	13592.15
848.8567	955.0491	14431.8	13561.05
849.0018	957.063	14436.85	13564.2
849.147	959.0763	14451.7	13579.25
849.2921	961.0888	14406.25	13534.05
849.4373	963.1007	14374.15	13506.2
849.5824	965.1119	14387.55	13520.65
849.7275	967.1223	14358.05	13488.2
849.8727	969.1321	14302.5	13435.35
850.0178	971.1412	14310.9	13440.8
850.1629	973.1495	14259.1	13389.9
850.3081	975.1572	14264.35	13346.45
850.4532	977.1641	14258.4	13385.3
850.5983	979.1704	14220.9	13350.3
850.7435	981.1759	14141.55	13268.75
850.8886	983.1808	14160.1	13287.05
851.0337	985.1849	14136	13254.1
851.1788	987.1884	14084.95	13211.45
851.324	989.1911	14059.7	13187.15
851.4691	991.1932	13986.05	13113.25
851.6142	993.1945	13946	13073.5
851.7593	995.1951	13882.1	13010.35
851.9045	997.1951	13913.5	13036.65
852.0496	999.1943	13839.35	12967.7
852.1947	1001.1928	13797.8	12926.3
852.3398	1003.1906	13726.2	12852.65
852.4849	1005.1877	13737.25	12864.65
852.63	1007.1841	13722.35	12849.85
852.7751	1009.1798	13656	12783.2
852.9202	1011.1748	13629.45	12756.4
853.0653	1013.1691	13577.55	12701.2
853.2104	1015.1627	13486.9	12611.65
853.3555	1017.1556	13390.25	12517.45
853.5006	1019.1477	13387.3	12513.7
853.6457	1021.1392	13300.45	12428.8
853.7908	1023.1299	13279.7	12406.5
853.9359	1025.12	13203.55	12331.1
854.081	1027.1093	13140.25	12272.05
854.2261	1029.0979	13141.4	12274
854.3712	1031.0859	13065.5	12196.1
854.5163	1033.0731	13062.55	12189.05
854.6613	1035.0596	13016.75	12141.9
854.8064	1037.0454	12976.7	12104.8
854.9515	1039.0304	12945.85	12069.8
855.0965	1041.0148	12849	11975.05
855.2416	1042.9985	12829.45	11954.8
855.3867	1044.9814	12821.5	11948.55
855.5317	1046.9636	12763.05	11886.5
855.6768	1048.9452	12689.8	11817.5
855.8219	1050.926	12710.35	11835.1
855.9669	1052.9061	12698.95	11824.95
856.112	1054.8855	12653.4	11778.9
856.257	1056.8642	12638	11761.95
856.4021	1058.8421	12640.1	11761.3
856.5471	1060.8194	12585.5	11711
856.6921	1062.7959	12551.4	11678.35
856.8372	1064.7717	12557.75	11680
856.9822	1066.7469	12503.7	11625.65
857.1272	1068.7213	12487.45	11608
857.2723	1070.695	12494.35	11621.65
857.4173	1072.6679	12435.2	11556
857.5623	1074.6402	12447.05	11571.35
857.7073	1076.6117	12437.75	11555.8
857.8523	1078.5826	12421.65	11545.1
857.9973	1080.5527	12353.55	11476
858.1423	1082.5221	12280.25	11403.85
858.2873	1084.4908	12267	11390.8
858.4323	1086.4587	12220.8	11342.1
858.5773	1088.426	12176.55	11301.6
858.7223	1090.3925	12113.65	11232.5
858.8673	1092.3584	12130.55	11255.35
859.0123	1094.3235	12099.55	11223.05
859.1573	1096.2879	12062.1	11184.7
859.3022	1098.2515	12052.4	11176.6
859.4472	1100.2145	12038.4	11160.65
859.5922	1102.1767	12077.2	11198.75
859.7371	1104.1382	12032.1	11154.05
859.8821	1106.099	12037.95	11159.35
860.027	1108.0591	12053	11177.05
860.172	1110.0185	12039.1	11160.35
860.3169	1111.9771	12073.05	11197.05
860.4619	1113.9351	12040.2	11163.95
860.6068	1115.8923	12032.5	11156.2
860.7517	1117.8488	12004.3	11124.65
860.8967	1119.8045	11953.55	11077.5
861.0416	1121.7596	11902.75	11026.45
861.1865	1123.7139	11798.5	10922.5
861.3314	1125.6675	11733.05	10856.05
861.4763	1127.6204	11740.65	10865.2
861.6212	1129.5726	11709.9	10829.2
861.7661	1131.524	11711.45	10835.2
861.911	1133.4748	11648.6	10770.75
862.0559	1135.4248	11590.6	10711.55
862.2008	1137.3741	11552.6	10673.6
862.3457	1139.3226	11490.1	10610.45
862.4905	1141.2705	11525.25	10649.5
862.6354	1143.2176	11421.75	10539.55
862.7803	1145.164	11439.5	10557.5
862.9251	1147.1097	11457.75	10580.7
863.07	1149.0546	11416.3	10538.2
863.2148	1150.9989	11411.1	10533
863.3597	1152.9424	11358.95	10477.95
863.5045	1154.8852	11330.45	10452.65
863.6493	1156.8272	11322.15	10442.5
863.7942	1158.7686	11326.7	10440.4
863.939	1160.7092	11266.2	10386.2
864.0838	1162.6491	11227.95	10348.85
864.2286	1164.5883	11244.2	10365.5
864.3734	1166.5267	11206	10325.95
864.5182	1168.4644	11232.75	10355.45
864.663	1170.4014	11214.2	10329.75
864.8078	1172.3377	11255.95	10380.25
864.9526	1174.2732	11256.75	10378.75
865.0974	1176.2081	11282.65	10404.6
865.2421	1178.1421	11324.6	10441.05
865.3869	1180.0755	11368.7	10489.1
865.5317	1182.0082	11377.8	10500.9
865.6764	1183.9401	11352.45	10470.8
865.8212	1185.8713	11242.6	10365.9
865.9659	1187.8017	11172.4	10294.3
866.1106	1189.7315	11119.05	10242.9
866.2554	1191.6605	11009.75	10131.8
866.4001	1193.5888	10937.55	10059.45
866.5448	1195.5163	10899.95	10022
866.6895	1197.4432	10852.4	9972.45
866.8342	1199.3693	10836.85	9961.5
866.9789	1201.2947	10769.5	9880.1
867.1236	1203.2193	10722.55	9843.05
867.2683	1205.1432	10721.15	9839.55
867.413	1207.0664	10694.2	9813.65
867.5576	1208.9889	10653.2	9767.5
867.7023	1210.9106	10605.85	9727.35
867.847	1212.8316	10569.15	9688.05
867.9916	1214.7519	10573.4	9683.95
868.1363	1216.6715	10531.4	9651.85
868.2809	1218.5903	10529.3	9650.8
868.4255	1220.5084	10485.55	9605.05
868.5701	1222.4257	10527.95	9649.65
868.7148	1224.3424	10458.6	9579
868.8594	1226.2583	10455.85	9574.4
869.004	1228.1735	10415.85	9534.5
869.1486	1230.0879	10420.05	9540
869.2932	1232.0016	10437.45	9558.6
869.4377	1233.9146	10432.25	9551.85
869.5823	1235.8269	10408.45	9527.2
869.7269	1237.7384	10425.85	9547.75
869.8715	1239.6492	10337.8	9456.65
870.016	1241.5592	10372.1	9490.4
870.1606	1243.4686	10330.95	9450.5
870.3051	1245.3772	10388.25	9508.95
870.4496	1247.285	10385.1	9503.25
870.5941	1249.1922	10414.55	9534.7
870.7387	1251.0986	10442.65	9564.25
870.8832	1253.0042	10467.65	9587.9
871.0277	1254.9092	10503.2	9623.6
871.1722	1256.8134	10534.15	9655.45
871.3167	1258.7169	10577.25	9694.4
871.4611	1260.6196	10580.85	9702.05
871.6056	1262.5216	10561	9677.35
871.7501	1264.4229	10529.65	9652.25
871.8945	1266.3234	10535.45	9653.65
872.039	1268.2232	10469.35	9588.3
872.1834	1270.1223	10449.4	9567.75
872.3278	1272.0207	10383.25	9501.8
872.4723	1273.9183	10378.15	9491.85
872.6167	1275.8151	10340	9458.4
872.7611	1277.7113	10357.25	9474.45
872.9055	1279.6067	10387.55	9505.7
873.0499	1281.5014	10441.65	9559.15
873.1943	1283.3953	10536.05	9653
873.3386	1285.2885	10602.25	9722.4
873.483	1287.181	10713.45	9831.75
873.6274	1289.0727	10745.5	9864.35
873.7717	1290.9637	10691.6	9808.45
873.9161	1292.854	10652.55	9772.3
874.0604	1294.7435	10554.85	9673
874.2047	1296.6323	10473.6	9591.5
874.349	1298.5204	10398.75	9515.3
874.4933	1300.4077	10354.9	9471.4
874.6376	1302.2943	10315.35	9433.25
874.7819	1304.1802	10313.65	9434.3
874.9262	1306.0653	10262.2	9377.4
875.0705	1307.9497	10242.75	9361.55
875.2147	1309.8333	10201.9	9321.95
875.359	1311.7162	10178.15	9294.85
875.5032	1313.5984	10133.95	9250.85
875.6475	1315.4798	10077.8	9180.05
875.7917	1317.3605	10076.35	9178.3
875.9359	1319.2405	10076.35	9192.55
876.0801	1321.1197	10047.2	9162.9
876.2243	1322.9982	9995.4	9110.2
876.3685	1324.876	9923.7	9043.1
876.5127	1326.753	9883.65	9002.75
876.6569	1328.6293	9849.05	8966.2
876.801	1330.5048	9800.15	8916.3
876.9452	1332.3796	9722.4	8842.25
877.0893	1334.2537	9677.95	8771.8
877.2335	1336.127	9632.2	8750
877.3776	1337.9996	9599.85	8718.4
877.5217	1339.8714	9579.65	8697.05
877.6658	1341.7426	9555.75	8630.05
877.8099	1343.6129	9517.3	8633.9
877.954	1345.4826	9467.75	8584.2
878.0981	1347.3515	9478.25	8593.15
878.2422	1349.2196	9433.2	8550.15
878.3862	1351.087	9458.4	8575.9
878.5303	1352.9537	9456.95	8575.6
878.6743	1354.8197	9447.95	8565.1
878.8184	1356.6849	9434.85	8553.05
878.9624	1358.5493	9400.5	8519.25
879.1064	1360.4131	9427.35	8544.95
879.2504	1362.276	9426.15	8544.05
879.3944	1364.1383	9392.9	8510.2
879.5384	1365.9998	9413.3	8526.45
879.6823	1367.8606	9372.75	8490.4
879.8263	1369.7206	9349.4	8467.75
879.9702	1371.5799	9313.15	8429.4
880.1142	1373.4384	9294.35	8410
880.2581	1375.2962	9290.35	8408.75
880.402	1377.1533	9201.05	8319.9
880.5459	1379.0096	9150.4	8266.9
880.6898	1380.8652	9106.35	8223.4
880.8337	1382.7201	9072	8188.95
880.9776	1384.5742	9001.6	8119.9
881.1215	1386.4275	8982.05	8098.3
881.2653	1388.2802	8948.25	8066.6
881.4092	1390.132	8891.4	8006.9
881.553	1391.9832	8876.35	7991.45
881.6968	1393.8336	8818	7935.6
881.8406	1395.6832	8797.75	7913.6
881.9844	1397.5322	8773.55	7890.9
882.1282	1399.3803	8758.1	7871.9
882.272	1401.2278	8697.45	7813.3
882.4158	1403.0745	8673.3	7790.95
882.5595	1404.9204	8627.3	7746.9
882.7033	1406.7656	8627.35	7745.95
882.847	1408.6101	8595.6	7712.7
882.9908	1410.4538	8570.45	7687.65
883.1345	1412.2968	8544.1	7660.05
883.2782	1414.139	8515.8	7634
883.4219	1415.9805	8518.75	7637.75
883.5656	1417.8213	8480.5	7577.25
883.7092	1419.6613	8446.6	7564.05
883.8529	1421.5006	8461.25	7577.85
883.9965	1423.3391	8455.35	7572.3
884.1402	1425.1769	8463.85	7580.35
884.2838	1427.0139	8497.4	7613.65
884.4274	1428.8502	8525.15	7640.7
884.571	1430.6858	8549.4	7667.05
884.7146	1432.5206	8542.05	7659.6
884.8582	1434.3547	8500.65	7616.75
885.0018	1436.188	8497.1	7615.15
885.1453	1438.0206	8493.65	7610.7
885.2889	1439.8524	8467.7	7584.2
885.4324	1441.6835	8461.45	7578.25
885.5759	1443.5139	8427.6	7542.25
885.7194	1445.3435	8399.55	7516.6
885.8629	1447.1724	8420.6	7537.85
886.0064	1449.0005	8414.7	7530.55
886.1499	1450.8279	8368.9	7485.3
886.2933	1452.6545	8357.65	7474.4
886.4368	1454.4804	8345.9	7464.75
886.5802	1456.3056	8342.25	7454.45
886.7237	1458.13	8281.6	7401.1
886.8671	1459.9536	8302.95	7420.9
887.0105	1461.7766	8246.6	7361.55
887.1539	1463.5987	8200.3	7316.9
887.2972	1465.4202	8149.5	7265.05
887.4406	1467.2409	8116.75	7233.3
887.584	1469.0608	8099.75	7216.75
887.7273	1470.88	8070.6	7186.9
887.8706	1472.6984	8023.25	7140.5
888.0139	1474.5161	7983.5	7096.05
888.1572	1476.3331	7934.2	7052.75
888.3005	1478.1493	7940.55	7056.65
888.4438	1479.9648	7938.95	7054.7
888.5871	1481.7795	7927.35	7043.05
888.7303	1483.5935	7904.35	7020.75
888.8736	1485.4067	7896.2	7011.55
889.0168	1487.2192	7895.75	7014.05
889.16	1489.031	7881.95	6996.1
889.3032	1490.842	7867	6984.65
889.4464	1492.6522	7874.25	6990.35
889.5896	1494.4618	7817.05	6931.65
889.7327	1496.2705	7808	6926.05
889.8759	1498.0785	7812.8	6929.1
890.019	1499.8858	7783.1	6898
890.1622	1501.6924	7743.55	6861.2
890.3053	1503.4981	7727.1	6844.95
890.4484	1505.3032	7706.7	6823.2
890.5914	1507.1075	7699.05	6815.7
890.7345	1508.911	7686.75	6804.25
890.8776	1510.7138	7655.05	6771.95
891.0206	1512.5159	7617.45	6734.7
891.1637	1514.3172	7583.55	6701.95
891.3067	1516.1178	7556.9	6673.7
891.4497	1517.9176	7554.5	6669.4
891.5927	1519.7166	7515.65	6634.35
891.7357	1521.515	7492.45	6603.55
891.8786	1523.3126	7478	6595.3
892.0216	1525.1094	7460.45	6575
892.1645	1526.9055	7423.55	6541.4
892.3074	1528.7008	7391.6	6509.65
892.4503	1530.4954	7352.2	6467.25
892.5932	1532.2893	7345.5	6463.45
892.7361	1534.0824	7297.55	6408.5
892.879	1535.8747	7299.4	6418.1
893.0218	1537.6663	7278.6	6392
893.1647	1539.4572	7237.6	6352
893.3075	1541.2473	7223.75	6339.7
893.4503	1543.0367	7181.7	6299.7
893.5931	1544.8253	7167.1	6282.05
893.7359	1546.6132	7176.85	6292.15
893.8787	1548.4003	7138.25	6245.8
894.0214	1550.1867	7118.6	6226.8
894.1642	1551.9723	7107.85	6220.2
894.3069	1553.7572	7086.7	6201.05
894.4496	1555.5414	7068.8	6184.9
894.5923	1557.3247	7063.55	6181.25
894.735	1559.1074	7081.9	6201.9
894.8777	1560.8893	7074.55	6192.85
895.0204	1562.6705	7077.05	6196.4
895.163	1564.4509	7074.65	6193.5
895.3056	1566.2305	7051.15	6172.1
895.4482	1568.0094	7055.85	6172.75
895.5908	1569.7876	7050.5	6167.75
895.7334	1571.565	7029.85	6147.55
895.876	1573.3417	7001.95	6120.15
896.0186	1575.1176	6979.8	6098.8
896.1611	1576.8928	6969.25	6088.25
896.3036	1578.6672	6950.35	6070.15
896.4461	1580.4409	6934.4	6057
896.5886	1582.2138	6944.1	6062.95
896.7311	1583.986	6951.75	6068.45
896.8736	1585.7575	6962.15	6082.65
897.0161	1587.5282	6940.35	6061.85
897.1585	1589.2981	6961.9	6082.9
897.3009	1591.0673	6926.7	6046.1
897.4433	1592.8358	6928.45	6049.25
897.5857	1594.6035	6907.85	6024.4
897.7281	1596.3704	6904.05	6023.75
897.8705	1598.1366	6864.65	5983.55
898.0128	1599.9021	6818.7	5938.2
898.1551	1601.6668	6784.15	5902.9
898.2975	1603.4308	6723	5840.9
898.4398	1605.194	6724.7	5839.2
898.5821	1606.9564	6727.4	5848.05
898.7243	1608.7182	6744.2	5860.4
898.8666	1610.4791	6754.05	5875.25
899.0088	1612.2394	6789.45	5911.65
899.1511	1613.9988	6845.2	5966.85
899.2933	1615.7576	6862.3	5982.85
899.4355	1617.5156	6904.95	6018
899.5776	1619.2728	6857.85	5977.7
899.7198	1621.0293	6795.65	5914
899.862	1622.785	6703.25	5817.55
900.0041	1624.54	6607.8	5724
900.1462	1626.2942	6520.65	5639.35
900.2883	1628.0477	6404.25	5520.7
900.4304	1629.8005	6341.6	5457.45
900.5725	1631.5525	6266.95	5386.7
900.7145	1633.3037	6233.95	5354.05
900.8566	1635.0542	6195	5316.7
900.9986	1636.804	6151.75	5271.5
901.1406	1638.553	6188.7	5220.15
901.2826	1640.3013	6092.9	5211.65
901.4245	1642.0488	6039.95	5158.05
901.5665	1643.7955	6027.25	5148.9
901.7085	1645.5416	6003	5120.8
901.8504	1647.2868	5978.25	5098.95
901.9923	1649.0313	5929.95	5048.25
902.1342	1650.7751	5929.9	5045.75
902.2761	1652.5181	5922.9	5044.5
902.4179	1654.2604	5907.85	5026.95
902.5598	1656.0019	5879.15	5001.2
902.7016	1657.7427	5861.35	4980.8
902.8434	1659.4828	5862.75	4983.4
902.9852	1661.222	5857.8	4974.75
903.127	1662.9606	5868.7	4987.55
903.2687	1664.6984	5872.75	4992.5
903.4105	1666.4354	5878.4	4996.45
903.5522	1668.1717	5847	4966.25
903.6939	1669.9072	5777.3	4895.35
903.8356	1671.642	5742.85	4861.25
903.9773	1673.3761	5702.25	4823.9
904.119	1675.1094	5665.05	4784.1
904.2606	1676.8419	5641.4	4759.6
904.4022	1678.5737	5588.15	4706.75
904.5439	1680.3048	5558.95	4676.7
904.6855	1682.0351	5553.2	4671.85
904.827	1683.7646	5528.35	4644.15
904.9686	1685.4934	5489.65	4610.75
905.1101	1687.2215	5475.1	4596.35
905.2517	1688.9488	5440.75	4559.55
905.3932	1690.6754	5413.6	4534.2
905.5347	1692.4012	5390.45	4510.5
905.6761	1694.1263	5371.2	4490.85
905.8176	1695.8506	5360.05	4478.6
905.9591	1697.5742	5351.8	4472.1
906.1005	1699.297	5332.75	4453.65
906.2419	1701.0191	5274.1	4395.35
906.3833	1702.7404	5286.1	4407.4
906.5246	1704.461	5245.95	4362.3
906.666	1706.1808	5242.05	4360.8
906.8073	1707.8999	5197.65	4316.15
906.9487	1709.6182	5201.95	4321.3
907.09	1711.3358	5180.55	4301.55
907.2313	1713.0527	5176.85	4297.5
907.3725	1714.7688	5160.7	4275.55
907.5138	1716.4841	5135.25	4253.05
907.655	1718.1987	5126.9	4242.75
907.7962	1719.9126	5107.7	4229.55
907.9374	1721.6257	5098	4214.25
908.0786	1723.338	5100.75	4221.65
908.2198	1725.0496	5072.05	4190.7
908.3609	1726.7605	5086	4204.25
908.502	1728.4706	5065.7	4185.2
908.6431	1730.18	5043.95	4162.1
908.7842	1731.8886	5022.25	4142.55
908.9253	1733.5964	5019	4135.05
909.0664	1735.3036	5010.85	4129.1
909.2074	1737.0099	5018.75	4137.8
909.3484	1738.7156	4991.1	4111.55
909.4894	1740.4204	4978.2	4096.6
909.6304	1742.1246	4991.8	4110.9
909.7714	1743.8279	4965	4084.75
909.9123	1745.5306	4970.75	4087.35
910.0532	1747.2325	4959.05	4081.85
910.1941	1748.9336	4947.5	4066.7
910.335	1750.634	4950.7	4068.45
910.4759	1752.3336	4944.1	4063.85
910.6168	1754.0325	4923.65	4045
910.7576	1755.7307	4925.25	4046.55
910.8984	1757.4281	4921.05	4039.5
911.0392	1759.1247	4908.95	4021
911.18	1760.8206	4917.05	4032.7
911.3208	1762.5158	4912.75	4030.1
911.4615	1764.2102	4884.2	4004.05
911.6022	1765.9039	4871.8	3990.8
911.7429	1767.5968	4866.75	3986.85
911.8836	1769.289	4856.25	3977.25
912.0243	1770.9804	4838.55	3959.1
912.1649	1772.6711	4830.7	3951.15
912.3056	1774.361	4831.75	3951.35
912.4462	1776.0502	4818.9	3937.5
912.5868	1777.7386	4807.5	3925.55
912.7274	1779.4263	4801.15	3920.25
912.8679	1781.1132	4797.75	3918.8
913.0084	1782.7994	4767.25	3887.3
913.149	1784.4849	4771.2	3892.35
913.2895	1786.1696	4750.7	3853.2
913.4299	1787.8535	4754.8	3876.65
913.5704	1789.5367	4733.5	3854.15
913.7108	1791.2192	4738.45	3857.2
913.8513	1792.9009	4740.1	3831.9
913.9917	1794.5818	4712.15	3829.4
914.132	1796.2621	4705.4	3825.75
914.2724	1797.9415	4693.5	3815
914.4128	1799.6202	4683.9	3804
914.5531	1801.2982	4651.8	3773.65
914.6934	1802.9755	4661.6	3780.8
914.8337	1804.6519	4652.3	3772.65
914.9739	1806.3277	4631.75	3754.5
915.1142	1808.0027	4621.45	3742.45
915.2544	1809.6769	4604.45	3726.4
915.3946	1811.3504	4589.9	3708.95
915.5348	1813.0231	4582.05	3701.75
915.675	1814.6951	4583.6	3703.9
915.8151	1816.3664	4593.75	3712
915.9553	1818.0369	4560.95	3680.2
916.0954	1819.7067	4560.7	3681.4
916.2355	1821.3757	4570.4	3686.35
916.3755	1823.044	4528.9	3649.2
916.5156	1824.7115	4540.25	3659.65
916.6556	1826.3783	4509.3	3631.05
916.7956	1828.0443	4505.05	3627.6
916.9356	1829.7096	4498.95	3619.85
917.0756	1831.3741	4492.8	3611.6
917.2155	1833.0379	4468.6	3588.7
917.3555	1834.701	4475.95	3594.45
917.4954	1836.3633	4461.2	3581.35
917.6353	1838.0248	4475.2	3592.9
917.7751	1839.6856	4448.45	3568.15
917.915	1841.3457	4444.3	3565.1
918.0548	1843.005	4427.9	3548.1
918.1946	1844.6636	4425.55	3548.85
918.3344	1846.3214	4417.35	3538.7
918.4742	1847.9785	4420.75	3541.8
918.6139	1849.6349	4406.6	3526.45
918.7537	1851.2904	4388.05	3498.55
918.8934	1852.9453	4384.65	3502.95
919.0331	1854.5994	4390.35	3506.55
919.1727	1856.2528	4379.65	3495.6
919.3124	1857.9054	4363.4	3483.2
919.452	1859.5572	4366.1	3488.55
919.5916	1861.2083	4358.35	3476.35
919.7312	1862.8587	4344.75	3464.85
919.8708	1864.5084	4339.6	3457.1
920.0103	1866.1572	4331.05	3452.15
920.1498	1867.8054	4310.25	3430.45
920.2893	1869.4528	4300.2	3418.4
920.4288	1871.0994	4299.4	3416.6
920.5683	1872.7453	4277.2	3396.45
920.7077	1874.3905	4290.35	3404.05
920.8471	1876.0349	4286.6	3405.55
920.9865	1877.6786	4263.8	3383.3
921.1259	1879.3215	4265.6	3387.25
921.2653	1880.9637	4258	3376.05
921.4046	1882.6051	4252	3371.9
921.5439	1884.2458	4247	3366
921.6832	1885.8858	4232.15	3349.8
921.8225	1887.525	4235.1	3355
921.9617	1889.1634	4212.2	3333.7
922.101	1890.8011	4201.05	3319.95
922.2402	1892.4381	4186.35	3306.25
922.3794	1894.0743	4197.5	3317.05
922.5185	1895.7098	4183.45	3302.3
922.6577	1897.3446	4182.3	3298.9
922.7968	1898.9786	4147.3	3263.4
922.9359	1900.6118	4157.2	3276.5
923.075	1902.2443	4151.2	3266.9
923.214	1903.8761	4124.15	3243.65
923.3531	1905.5071	4126.95	3246.65
923.4921	1907.1374	4103.05	3222.35
923.6311	1908.7669	4103.55	3222.7
923.77	1910.3957	4097.3	3218.8
923.909	1912.0237	4082.45	3203.25
924.0479	1913.651	4074.05	3192.25
924.1868	1915.2776	4064.2	3186.2
924.3257	1916.9034	4062.4	3184.95
924.4646	1918.5285	4051.2	3171.25
924.6034	1920.1528	4035.15	3156.2
924.7422	1921.7764	4051	3169.1
924.881	1923.3992	4021.8	3145.25
925.0198	1925.0213	3999.6	3118.45
925.1586	1926.6427	3992.7	3113.35
925.2973	1928.2633	4150.9	3057.8
925.436	1929.8832	3998.5	3114.55
925.5747	1931.5023	3954.5	3076.4
925.7134	1933.1207	3951.8	3070.9
925.852	1934.7383	3944.4	3064.6
925.9906	1936.3552	3942.25	3062.4
926.1292	1937.9714	3935.55	3055.6
926.2678	1939.5868	3912.85	3030.05
926.4064	1941.2015	3901.25	3018.05
926.5449	1942.8154	3889.55	3011.2
926.6834	1944.4286	3876.25	2995.25
926.8219	1946.041	3880.95	2978
926.9604	1947.6528	3854.8	2968.4
927.0988	1949.2637	3857	2977.55
927.2372	1950.8739	3849.95	2968.65
927.3756	1952.4834	3830.1	2951.3
927.514	1954.0921	3822.3	2940.1
927.6523	1955.7001	3825.4	2941.85
927.7907	1957.3074	3822.3	2942.75
927.929	1958.9139	3807.25	2927.7
928.0673	1960.5197	3798.55	2918.65
928.2055	1962.1247	3792.3	2913.3
928.3438	1963.729	3782.2	2903.85
928.482	1965.3325	3789.95	2885.6
928.6202	1966.9353	3755.15	2877.8
928.7584	1968.5374	3749	2868.3
928.8965	1970.1387	3736.9	2856.7
929.0346	1971.7393	3722.6	2842.5
929.1727	1973.3392	3718.95	2839.3
929.3108	1974.9383	3715.7	2838.15
929.4489	1976.5366	3704.35	2824.55
929.5869	1978.1342	3706.35	2827.75
929.7249	1979.7311	3695.05	2814.55
929.8629	1981.3273	3675.95	2795.65
930.0009	1982.9227	3682.45	2801.65
930.1388	1984.5173	3675.15	2797.35
930.2767	1986.1112	3672.05	2795.7
930.4146	1987.7044	3660.2	2782.75
930.5525	1989.2968	3646.25	2766.7
930.6904	1990.8885	3650.8	2769.35
930.8282	1992.4795	3659.95	2781.8
930.966	1994.0697	3644.05	2765.9
931.1038	1995.6592	3618.45	2739.65
931.2415	1997.2479	3609.6	2728.25
931.3793	1998.8359	3610	2731.6
931.517	2000.4232	3610.7	2731.3
931.6547	2002.0097	3579.8	2704.35
931.7923	2003.5955	3596.55	2719.2
931.93	2005.1805	3581.25	2702.4
932.0676	2006.7648	3580	2702.65
932.2052	2008.3484	3565.5	2686.9
932.3427	2009.9312	3570.55	2690.15
932.4803	2011.5133	3555.15	2677.9
932.6178	2013.0946	3550.65	2672.85
932.7553	2014.6752	3545.75	2669.4
932.8928	2016.2551	3544.35	2666
933.0302	2017.8342	3522	2643.05
933.1676	2019.4126	3533.1	2657.1
933.305	2020.9902	3512.2	2634.7
933.4424	2022.5672	3512.95	2633.75
933.5798	2024.1433	3507.45	2622.8
933.7171	2025.7188	3509.95	2634.7
933.8544	2027.2935	3512.65	2634.4
933.9917	2028.8674	3479.75	2603
934.129	2030.4406	3472.75	2597.15
934.2662	2032.0131	3457.1	2580.8
934.4034	2033.5849	3464.65	2583.65
934.5406	2035.1559	3468.45	2592.55
934.6778	2036.7261	3457.75	2579.25
934.8149	2038.2957	3448.4	2571.3
934.952	2039.8645	3447.55	2569.65
935.0891	2041.4325	3447.95	2567.8
935.2262	2042.9998	3438.15	2561.2
935.3632	2044.5664	3450.7	2570.3
935.5002	2046.1323	3429.2	2553.4
935.6372	2047.6974	3427.75	2552.7
935.7742	2049.2617	3425.5	2547.55
935.9111	2050.8254	3420.6	2540.8
936.048	2052.3883	3422	2542.65
936.1849	2053.9504	3408.3	2527.25
936.3218	2055.5118	3403.5	2524.95
936.4586	2057.0725	3389.75	2507.2
936.5955	2058.6325	3393.55	2518.1
936.7323	2060.1917	3385.15	2508.7
936.869	2061.7502	3383.6	2506.25
937.0058	2063.3079	3379.7	2502.95
937.1425	2064.8649	3375.65	2496.3
937.2792	2066.4212	3371.5	2492
937.4159	2067.9767	3372.85	2496.2
937.5525	2069.5315	3342.7	2465.9
937.6891	2071.0856	3330.4	2453.15
937.8257	2072.6389	3336.9	2460.2
937.9623	2074.1915	3326.7	2450.25
938.0989	2075.7433	3323.85	2444.2
938.2354	2077.2945	3302.75	2424.2
938.3719	2078.8448	3304.6	2425.45
938.5084	2080.3945	3298.85	2422.45
938.6448	2081.9434	3304.35	2428.15
938.7812	2083.4916	3307.25	2427.2
938.9176	2085.039	3295.55	2416
939.054	2086.5857	3298.6	2418.95
939.1903	2088.1317	3307.5	2426.85
939.3267	2089.677	3283	2403.5
939.463	2091.2215	3280.1	2402.55
939.5992	2092.7652	3277.6	2397.35
939.7355	2094.3083	3263.7	2384.9
939.8717	2095.8506	3261.05	2385.45
940.0079	2097.3921	3268.75	2390.75
940.1441	2098.933	3271.8	2393.05
940.2802	2100.4731	3254.4	2377.2
940.4163	2102.0124	3268.1	2372.65
940.5524	2103.5511	3251.05	2372.9
940.6885	2105.089	3249.5	2370.05
940.8245	2106.6261	3253.4	2373.8
940.9606	2108.1626	3242.75	2363.4
941.0965	2109.6983	3259.1	2351.45
941.2325	2111.2332	3223.65	2347
941.3684	2112.7675	3228.7	2349.65
941.5044	2114.301	3226.65	2347.05
941.6403	2115.8337	3219.05	2342.45
941.7761	2117.3657	3207.35	2328.85
941.912	2118.897	3215.85	2337.65
942.0478	2120.4276	3197.1	2312.75
942.1835	2121.9575	3187.95	2309.45
942.3193	2123.4866	3197.5	2316.4
942.455	2125.0149	3198.95	2319.75
942.5907	2126.5426	3176.8	2299.85
942.7264	2128.0695	3168.55	2287.2
942.8621	2129.5956	3175.05	2297.6
942.9977	2131.1211	3173.95	2294.35
943.1333	2132.6458	3167.3	2291.65
943.2689	2134.1698	3163.05	2283.2
943.4044	2135.693	3159.7	2280.55
943.54	2137.2155	3160.3	2279.5
943.6755	2138.7373	3153.55	2275.9
943.8109	2140.2584	3159.2	2280.95
943.9464	2141.7787	3146.35	2263.5
944.0818	2143.2983	3136.3	2259.45
944.2172	2144.8171	3116.65	2241.6
944.3526	2146.3353	3121.35	2242
944.4879	2147.8527	3117.95	2241.1
944.6232	2149.3693	3117.4	2239.5
944.7585	2150.8853	3099.8	2223.7
944.8938	2152.4005	3092.75	2214.5
945.029	2153.9149	3098.55	2221.1
945.1642	2155.4287	3084.35	2206.45
945.2994	2156.9417	3086.9	2206.8
945.4346	2158.454	3083.45	2203.15
945.5697	2159.9655	3076.05	2200.75
945.7048	2161.4764	3061.9	2182.9
945.8399	2162.9865	3067.7	2188.6
945.9749	2164.4958	3072.3	2195.3
946.1099	2166.0045	3047	2167.15
946.2449	2167.5124	3047.8	2170.3
946.3799	2169.0195	3046.3	2169.15
946.5148	2170.526	3042.65	2165.4
946.6498	2172.0317	3033.8	2154.1
946.7846	2173.5367	3040.25	2161.05
946.9195	2175.0409	3026.65	2149.6
947.0543	2176.5445	3020.5	2143
947.1891	2178.0473	3015.9	2137
947.3239	2179.5494	2997.75	2114.7
947.4587	2181.0507	3001	2121.55
947.5934	2182.5513	3008.45	2130.1
947.7281	2184.0512	2999.45	2123.4
947.8628	2185.5504	2987.5	2109.25
947.9974	2187.0488	2967.2	2090.35
948.132	2188.5465	2965.05	2086.95
948.2666	2190.0435	2962.7	2085.1
948.4012	2191.5397	2945.4	2067.45
948.5357	2193.0353	2960.3	2082.6
948.6702	2194.5301	2933	2051.5
948.8047	2196.0241	2942.1	2061.95
948.9392	2197.5175	2938.75	2058.9
949.0736	2199.0101	2925.7	2042.75
949.208	2200.502	2910.5	2032.5
949.3424	2201.9931	2913.05	2036.05
949.4767	2203.4835	2908.45	2030.8
949.611	2204.9733	2906.55	2022.35
949.7453	2206.4622	2898.8	2021.7
949.8796	2207.9505	2892.25	2010.8
950.0138	2209.438	2885.6	2009.6
950.148	2210.9248	2866.4	1987.35
950.2822	2212.4109	2862.95	1985.9
950.4164	2213.8962	2855.5	1974.1
950.5505	2215.3809	2860.5	1978.95
950.6846	2216.8648	2851.1	1974.2
950.8186	2218.3479	2837.5	1955.3
950.9527	2219.8304	2852.05	1969.4
951.0867	2221.3121	2838.5	1958.45
951.2207	2222.7931	2823.35	1944.35
951.3546	2224.2733	2832.55	1954.1
951.4886	2225.7529	2805.65	1926.65
951.6225	2227.2317	2806.6	1926.45
951.7563	2228.7098	2808.35	1930.05
951.8902	2230.1872	2778.05	1901.3
952.024	2231.6638	2791.35	1913.7
952.1578	2233.1397	2782.65	1898.25
952.2916	2234.6149	2777.3	1899.75
952.4253	2236.0894	2773.2	1894.5
952.559	2237.5632	2777.9	1891.55
952.6927	2239.0362	2764.8	1886.25
952.8263	2240.5085	2755.6	1879.45
952.9599	2241.9801	2750.95	1872.95
953.0935	2243.4509	2730.75	1852.5
953.2271	2244.921	2737.4	1860.3
953.3606	2246.3904	2725.3	1843.9
953.4941	2247.8591	2726.65	1848.7
953.6276	2249.3271	2721.6	1844.95
953.7611	2250.7943	2714.6	1838.45
953.8945	2252.2608	2698.85	1821.35
954.0279	2253.7266	2705	1828.25
954.1612	2255.1917	2695.55	1816.65
954.2946	2256.656	2696.35	1816.35
954.4279	2258.1197	2696.1	1818.7
954.5612	2259.5826	2667.7	1789.85
954.6944	2261.0447	2677.85	1798.45
954.8276	2262.5062	2672.65	1793
954.9608	2263.9669	2682.35	1802.15
955.094	2265.4269	2669.4	1793.45
955.2271	2266.8862	2654	1776.95
955.3602	2268.3448	2658.25	1780.05
955.4933	2269.8026	2651.2	1774.1
955.6264	2271.2598	2640.65	1763.35
955.7594	2272.7162	2640.35	1764.05
955.8924	2274.1719	2624.55	1746.95
956.0253	2275.6268	2634.35	1755.4
956.1583	2277.0811	2628.55	1750.15
956.2912	2278.5346	2616.7	1737.45
956.4241	2279.9874	2618.1	1741.95
956.5569	2281.4395	2608.55	1731.65
956.6897	2282.8908	2616.9	1734.75
956.8225	2284.3414	2602.05	1721.85
956.9553	2285.7914	2605.55	1727.95
957.088	2287.2406	2591.7	1711.25
957.2207	2288.689	2586.5	1708.4
957.3534	2290.1368	2587.6	1708.7
957.486	2291.5838	2585.4	1704.55
957.6186	2293.0302	2584.25	1703.05
957.7512	2294.4758	2570.8	1691.85
957.8838	2295.9206	2554.3	1674.05
958.0163	2297.3648	2559.55	1681.95
958.1488	2298.8082	2547.25	1667.7
958.2813	2300.251	2552.7	1673.45
958.4137	2301.693	2539.5	1658.1
958.5461	2303.1343	2531.1	1652.2
958.6785	2304.5748	2531.5	1653.55
958.8108	2306.0147	2522.5	1642.15
958.9432	2307.4538	2512.8	1632.45
959.0754	2308.8922	2514.1	1638
959.2077	2310.3299	2520.9	1643.3
959.3399	2311.7669	2505.3	1628.85
959.4721	2313.2031	2498.4	1619.55
959.6043	2314.6387	2489.3	1611.6
959.7365	2316.0735	2493.4	1614.45
959.8686	2317.5076	2497.5	1617.85
960.0006	2318.941	2487.9	1610.7
960.1327	2320.3737	2470.7	1592.4
960.2647	2321.8056	2472.1	1590.85
960.3967	2323.2369	2466.55	1586.8
960.5287	2324.6674	2466.6	1586.4
960.6606	2326.0972	2462.35	1582.7
960.7925	2327.5263	2454.95	1577.7
960.9244	2328.9547	2453.55	1573.7
961.0562	2330.3823	2449.3	1570.7
961.1881	2331.8092	2439.75	1556.7
961.3198	2333.2355	2425.6	1549.65
961.4516	2334.661	2436.15	1557.3
961.5833	2336.0858	2431.6	1550.85
961.715	2337.5098	2421.3	1543
961.8467	2338.9332	2415.95	1538.9
961.9783	2340.3558	2410.25	1528.45
962.1099	2341.7778	2405.5	1526.5
962.2415	2343.199	2394.8	1513.65
962.373	2344.6195	2392.15	1514.35
962.5045	2346.0393	2385.9	1509.45
962.636	2347.4583	2386.8	1507.55
962.7675	2348.8767	2383.55	1504.6
962.8989	2350.2943	2383.55	1502.95
963.0303	2351.7113	2383.35	1501.75
963.1617	2353.1275	2373.05	1494.7
963.293	2354.543	2368.8	1481.45
963.4243	2355.9578	2352.45	1473.35
963.5556	2357.3718	2347	1468
963.6868	2358.7852	2339.55	1456.75
963.818	2360.1978	2344.6	1464.1
963.9492	2361.6098	2328.7	1451.2
964.0803	2363.021	2324.45	1443.2
964.2114	2364.4315	2324.9	1445.75
964.3425	2365.8413	2315.2	1436.4
964.4736	2367.2504	2307.65	1431.55
964.6046	2368.6587	2307.75	1426.35
964.7356	2370.0664	2292.85	1416.05
964.8666	2371.4733	2295.4	1416.65
964.9975	2372.8795	2287.55	1408.8
965.1284	2374.285	2276.15	1395.75
965.2593	2375.6899	2278.2	1401.1
965.3901	2377.0939	2260.2	1381.65
965.5209	2378.4973	2264.2	1386.85
965.6517	2379.9	2255.5	1375.65
965.7825	2381.3019	2252	1373.25
965.9132	2382.7032	2242.55	1365.5
966.0439	2384.1037	2236	1359.3
966.1745	2385.5035	2231.7	1353.9
966.3051	2386.9027	2220.2	1342.2
966.4357	2388.3011	2233.4	1350.75
966.5663	2389.6987	2226	1345.35
966.6968	2391.0957	2222.2	1344.5
966.8273	2392.492	2217.4	1338.45
966.9578	2393.8876	2210.45	1331.3
967.0882	2395.2824	2205.55	1326.3
967.2186	2396.6765	2185.55	1305.8
967.349	2398.07	2193.2	1314
967.4793	2399.4627	2191.7	1311.1
967.6097	2400.8547	2182.45	1303.3
967.7399	2402.246	2173.8	1287
967.8702	2403.6366	2156.1	1274.85
968.0004	2405.0265	2165.15	1285.95
968.1306	2406.4156	2160.05	1276.05
968.2607	2407.8041	2144.7	1262.35
968.3909	2409.1918	2150.45	1269.25
968.521	2410.5789	2139.5	1258.6
968.651	2411.9652	2142	1261.45
968.781	2413.3508	2139.05	1257.9
968.911	2414.7358	2125.95	1244.5
969.041	2416.12	2120.35	1242.85
969.1709	2417.5035	2110.35	1231.25
969.3008	2418.8863	2104.05	1225.15
969.4307	2420.2684	2102.7	1222.5
969.5606	2421.6497	2094.2	1215.6
969.6904	2423.0304	2087.6	1208.7
969.8201	2424.4104	2087.05	1207
969.9499	2425.7896	2085.25	1202.4
970.0796	2427.1682	2085.85	1206.65
970.2093	2428.546	2070.4	1190.9
970.3389	2429.9232	2074.25	1195.5
970.4685	2431.2996	2072.55	1193.2
970.5981	2432.6753	2065.65	1187.65
970.7277	2434.0503	2065.6	1185.3
970.8572	2435.4246	2045.8	1165.2
970.9867	2436.7982	2047.7	1165.75
971.1161	2438.1711	2052.85	1175.1
971.2456	2439.5433	2052.15	1169.55
971.375	2440.9148	2053.35	1168.6
971.5043	2442.2856	2042.3	1163.95
971.6336	2443.6557	2030.85	1150.3
971.7629	2445.025	2027.15	1149.6
971.8922	2446.3937	2036.3	1157.35
972.0214	2447.7617	2023.15	1142.8
972.1506	2449.1289	2024.5	1144.55
972.2798	2450.4955	2021.25	1139.9
972.4089	2451.8613	2018.25	1139.7
972.538	2453.2265	2008.6	1128.35
972.6671	2454.5909	2001.75	1121.6
972.7961	2455.9546	2007.05	1130
972.9251	2457.3177	1997.85	1121.7
973.0541	2458.68	1993.7	1113.6
973.1831	2460.0416	1994.55	1115.6
973.312	2461.4025	1992.8	1112.15
973.4408	2462.7627	2003.35	1113.45
973.5697	2464.1222	1982.4	1105.6
973.6985	2465.4811	1983.75	1105.15
973.8273	2466.8392	1973.8	1095.1
973.956	2468.1966	1988.65	1106.85
974.0847	2469.5533	1975.25	1094
974.2134	2470.9093	1969.15	1089.75
974.3421	2472.2645	1960.25	1079.3
974.4707	2473.6191	1961.85	1083.65
974.5993	2474.973	1948.7	1070.2
974.7278	2476.3262	1949.55	1068.6
974.8563	2477.6787	1943.35	1064.7
974.9848	2479.0305	1944	1065.75
975.1132	2480.3816	1941.6	1063.1
975.2417	2481.7319	1937.05	1059.15
975.37	2483.0816	1928.55	1046.35
975.4984	2484.4306	1929	1050.1
975.6267	2485.7789	1922.3	1045.45
975.755	2487.1264	1918.85	1038.65
975.8833	2488.4733	1909.65	1031.95
976.0115	2489.8195	1915.15	1029.3
976.1397	2491.165	1913.5	1031.4
976.2678	2492.5097	1909.15	1030.6
976.3959	2493.8538	1890.9	1010.25
976.524	2495.1972	1883.45	1004.8
976.6521	2496.5398	1888.6	1005.7
976.7801	2497.8818	1889.8	1008.55
976.9081	2499.2231	1877.55	998.35
977.036	2500.5637	1884.45	1003
977.164	2501.9035	1865.9	985.55
977.2918	2503.2427	1863.35	980.9
977.4197	2504.5812	1866.25	988.4
977.5475	2505.919	1858.15	975
977.6753	2507.256	1862.45	982.3
977.8031	2508.5924	1845.2	967.85
977.9308	2509.9281	1859.5	977.05
978.0585	2511.2631	1841.65	963.9
978.1861	2512.5974	1843.5	965.35
978.3137	2513.9309	1841.7	963.15
978.4413	2515.2638	1863.45	954.2
978.5689	2516.596	1833.65	956.5
978.6964	2517.9275	1832.75	952.45
978.8239	2519.2583	1824.2	945.15
978.9513	2520.5884	1822.5	941.35
979.0788	2521.9178	1814.6	937.1
979.2062	2523.2465	1823.75	946
979.3335	2524.5745	1812.9	934.2
979.4608	2525.9018	1814.7	934.3
979.5881	2527.2284	1809.25	931.5
979.7154	2528.5543	1802.25	923.8
979.8426	2529.8796	1809.25	928.65
979.9698	2531.2041	1798.9	919.45
980.0969	2532.5279	1802.8	924.8
980.224	2533.851	1789.65	910
980.3511	2535.1735	1788	910.05
980.4781	2536.4952	1789.6	911.45
980.6052	2537.8163	1783.15	902.45
980.7321	2539.1366	1778.05	897.95
980.8591	2540.4562	1780.15	899.5
980.986	2541.7752	1772.9	894.35
981.1129	2543.0935	1777.45	897.4
981.2397	2544.411	1771.8	892.4
981.3665	2545.7279	1771.75	893.6
981.4933	2547.0441	1768.3	889.1
981.62	2548.3596	1770.95	889.6
981.7467	2549.6744	1762.65	884.75
981.8734	2550.9885	1765	879.35
982.0001	2552.3019	1757.3	880.95
982.1267	2553.6146	1748.65	870.55
982.2532	2554.9266	1750.1	870.95
982.3798	2556.2379	1748.45	868.1
982.5063	2557.5485	1747.85	869.65
982.6327	2558.8585	1741.3	855.45
982.7592	2560.1677	1743.9	862.05
982.8856	2561.4762	1729.4	850.7
983.0119	2562.7841	1734.1	853.75
983.1383	2564.0913	1729.6	851.75
983.2646	2565.3977	1739.9	859.4
983.3908	2566.7035	1725.25	845.05
983.517	2568.0086	1725.45	844.5
983.6432	2569.313	1730.05	849.5
983.7694	2570.6167	1727.35	844.8
983.8955	2571.9197	1721.2	841.75
984.0216	2573.222	1711.85	829.4
984.1476	2574.5236	1718.3	839.5
984.2737	2575.8246	1713.3	832.3
984.3996	2577.1248	1716.3	834.35
984.5256	2578.4244	1711.7	832.8
984.6515	2579.7232	1705.7	827.35
984.7774	2581.0214	1725.85	821.95
984.9032	2582.3189	1704.9	827.2
985.029	2583.6157	1710.45	826
985.1548	2584.9118	1699.5	821.55
985.2806	2586.2072	1686.1	806.3
985.4063	2587.5019	1688.15	810.7
985.5319	2588.7959	1687.75	806.8
985.6576	2590.0893	1686.3	805.15
985.7832	2591.3819	1683.2	805.7
985.9087	2592.6739	1679.3	801.2
986.0343	2593.9652	1679.05	798.1
986.1597	2595.2557	1681.85	804
986.2852	2596.5456	1667.7	785.15
986.4106	2597.8348	1668.25	790.8
986.536	2599.1234	1662.1	782.35
986.6614	2600.4112	1655.7	777.25
986.7867	2601.6983	1652	768.9
986.912	2602.9848	1649.15	771.55
987.0372	2604.2705	1659.45	773.1
987.1624	2605.5556	1638.75	759.35
987.2876	2606.84	1647.7	770
987.4128	2608.1237	1639.9	759.6
987.5379	2609.4067	1633.9	753.85
987.6629	2610.689	1648.5	759.65
987.788	2611.9707	1631.05	750.1
987.913	2613.2516	1623.55	740.4
988.0379	2614.5319	1620.65	743.5
988.1629	2615.8115	1620.8	739.8
988.2878	2617.0903	1617.7	734.95
988.4126	2618.3685	1616.05	735.9
988.5375	2619.6461	1613.35	736.1
988.6622	2620.9229	1610.2	731.2
988.787	2622.199	1602.3	723.35
988.9117	2623.4745	1606.3	726.6
989.0364	2624.7493	1591.75	713
989.161	2626.0234	1598.6	719.8
989.2857	2627.2968	1581.6	703.05
989.4102	2628.5695	1589.25	708.15
989.5348	2629.8415	1584.9	706.35
989.6593	2631.1128	1583.9	704.8
989.7837	2632.3835	1574.35	696.1
989.9082	2633.6535	1576.65	697.25
990.0326	2634.9228	1564.65	687.55
990.1569	2636.1914	1565.85	687.9
990.2812	2637.4593	1576.95	692
990.4055	2638.7265	1561.15	683
990.5298	2639.9931	1562.25	683.35
990.654	2641.259	1558.9	677
990.7782	2642.5242	1561.05	681.85
990.9023	2643.7887	1551.55	672.65
991.0264	2645.0525	1556.45	677.2
991.1505	2646.3156	1548.4	667.95
991.2745	2647.5781	1548.35	669.8
991.3985	2648.8398	1536.2	656.65
991.5225	2650.1009	1544.6	658.65
991.6464	2651.3613	1536.7	659.85
991.7703	2652.6211	1536.6	656.1
991.8942	2653.8801	1529.95	650.35
992.018	2655.1385	1534.9	652.75
992.1418	2656.3961	1526.75	647
992.2655	2657.6531	1526.4	648.75
992.3892	2658.9094	1525.25	648.2
992.5129	2660.1651	1520.75	642.8
992.6366	2661.42	1517.85	639.6
992.7602	2662.6743	1508.85	629.5
992.8837	2663.9279	1520.9	644.35
993.0073	2665.1808	1512.45	631.45
993.1307	2666.433	1519.3	639.5
993.2542	2667.6846	1505.95	629.8
993.3776	2668.9354	1508.95	628.55
993.501	2670.1856	1506.8	628.7
993.6244	2671.4351	1496.2	617.35
993.7477	2672.6839	1502.05	620.5
993.8709	2673.9321	1500.55	622.55
993.9942	2675.1795	1499.35	620.7
994.1174	2676.4263	1492.05	614.05
994.2405	2677.6724	1490.75	613.5
994.3637	2678.9179	1486.65	608.75
994.4868	2680.1626	1480.65	603.95
994.6098	2681.4067	1482	602.1
994.7328	2682.6501	1477.6	599.7
994.8558	2683.8928	1477.35	598.45
994.9788	2685.1348	1481.2	604.25
995.1017	2686.3761	1469.8	591.85
995.2245	2687.6168	1471.1	591.65
995.3474	2688.8568	1466.55	587.25
995.4702	2690.0961	1472.15	595.7
995.5929	2691.3348	1468.85	591.25
995.7156	2692.5727	1461.9	583.2
995.8383	2693.81	1452.65	575.85
995.961	2695.0466	1461.7	583.05
996.0836	2696.2826	1455.2	572.55
996.2062	2697.5178	1477.45	578.7
996.3287	2698.7524	1448.1	568.95
996.4512	2699.9863	1452.1	572
996.5737	2701.2195	1439.85	562.45
996.6961	2702.452	1452.95	572.5
996.8185	2703.6839	1444.6	566.25
996.9408	2704.9151	1439.2	561.75
997.0631	2706.1456	1442.85	564.85
997.1854	2707.3755	1437.25	559.7
997.3077	2708.6046	1433.9	551.35
997.4299	2709.8331	1439.9	561.7
997.552	2711.0609	1428.15	548.8
997.6742	2712.2881	1436.3	556.7
997.7963	2713.5145	1426.1	544.35
997.9183	2714.7403	1427	551.45
998.0403	2715.9654	1423.25	544.15
998.1623	2717.1899	1436.4	543.4
998.2842	2718.4136	1423.2	545.7
998.4062	2719.6367	1414.3	537.3
998.528	2720.8591	1417	534.6
998.6498	2722.0809	1416.45	540
998.7716	2723.3019	1414.85	532.9
998.8934	2724.5223	1402.65	522.15
999.0151	2725.7421	1408.85	528.45
999.1368	2726.9611	1398.25	514.85
999.2584	2728.1795	1421.75	537.75
999.38	2729.3972	1396.5	517.2
999.5016	2730.6142	1404.6	512.3
999.6231	2731.8306	1394.15	516
999.7446	2733.0462	1385.4	503.3
999.8661	2734.2612	1391.7	508.25
999.9875	2735.4756	1386.35	507.15
1000.1089	2736.6892	1382.15	502.9
1000.2302	2737.9022	1376.75	500.35
1000.3515	2739.1145	1372.45	493.95
1000.4728	2740.3262	1376.55	490.65
1000.594	2741.5372	1373.85	495.25
1000.7152	2742.7475	1368.95	491.4
1000.8363	2743.9571	1367.4	487.55
1000.9575	2745.1661	1365.4	481.15
1001.0785	2746.3744	1366.2	487.75
1001.1996	2747.582	1363.25	484.4
1001.3206	2748.7889	1359.8	479.1
1001.4415	2749.9952	1353.85	475.5
1001.5625	2751.2008	1353.2	473.2
1001.6833	2752.4057	1347.85	467.25
1001.8042	2753.61	1348.1	468.5
1001.925	2754.8136	1347.25	465.85
1002.0458	2756.0165	1339.55	459.25
1002.1665	2757.2188	1345.1	468
1002.2872	2758.4204	1343.45	463.9
1002.4078	2759.6213	1343.9	462.9
1002.5285	2760.8215	1347.25	466.55
1002.649	2762.0211	1335.2	455.55
1002.7696	2763.22	1331.3	448.7
1002.8901	2764.4182	1340.8	462.25
1003.0106	2765.6158	1324.4	444.8
1003.131	2766.8127	1327.85	449.1
1003.2514	2768.009	1329.5	449.8
1003.3717	2769.2045	1332.95	454.75
1003.492	2770.3994	1323.35	443.45
1003.6123	2771.5936	1323.15	442.7
1003.7325	2772.7872	1321.35	443.3
1003.8527	2773.9801	1315.15	437
1003.9729	2775.1723	1323.1	427.55
1004.093	2776.3639	1307.65	429.7
1004.2131	2777.5548	1316.25	437.95
1004.3331	2778.745	1311.35	429.85
1004.4531	2779.9346	1311.7	433.5
1004.5731	2781.1235	1307.45	428.2
1004.693	2782.3117	1306.1	428.3
1004.8129	2783.4992	1299.35	422.2
1004.9328	2784.6861	1298.15	420.6
1005.0526	2785.8723	1302.8	423.75
1005.1723	2787.0579	1294.6	415.05
1005.2921	2788.2428	1294.65	415.75
1005.4118	2789.427	1292.7	416.4
1005.5314	2790.6106	1288.8	409.45
1005.651	2791.7935	1287.45	407.7
1005.7706	2792.9757	1282.6	404.5
1005.8902	2794.1573	1291.1	410.1
1006.0097	2795.3382	1283	406
1006.1291	2796.5184	1284.65	408.15
1006.2485	2797.698	1284.1	403.6
1006.3679	2798.8769	1277.55	399.5
1006.4873	2800.0551	1282.7	403.95
1006.6066	2801.2327	1281.55	401.8
1006.7258	2802.4096	1276.3	398.15
1006.8451	2803.5859	1277.1	398.1
1006.9642	2804.7615	1270.35	391.2
1007.0834	2805.9364	1276.8	399.75
1007.2025	2807.1106	1273.9	397.7
1007.3216	2808.2842	1272.65	394.05
1007.4406	2809.4572	1268.15	391
1007.5596	2810.6294	1272.2	392.8
1007.6785	2811.801	1261.1	382.75
1007.7975	2812.972	1267.05	390.55
1007.9163	2814.1423	1264.85	386.75
1008.0352	2815.3119	1260.5	381.55
1008.154	2816.4808	1266.95	390.2
1008.2727	2817.6491	1265.45	385.3
1008.3914	2818.8167	1262.1	387.25
1008.5101	2819.9837	1271.05	388.85
1008.6288	2821.15	1270.75	393.25
1008.7474	2822.3157	1270.85	394.6
1008.8659	2823.4807	1282.1	404.15
1008.9844	2824.645	1283.7	404.5
1009.1029	2825.8086	1280.65	400.9
1009.2214	2826.9716	1294.3	416.8
1009.3398	2828.134	1290.3	412.2
1009.4581	2829.2957	1296.55	417.75
1009.5764	2830.4567	1296.4	418.95
1009.6947	2831.617	1295.35	416.75
1009.813	2832.7767	1299.85	422.55
1009.9312	2833.9358	1301.35	424.7
1010.0493	2835.0941	1299.1	420.1
1010.1675	2836.2519	1298.8	420.4
1010.2855	2837.4089	1296.05	416.7
1010.4036	2838.5653	1291.55	413.8
1010.5216	2839.7211	1283.25	406.95
1010.6396	2840.8761	1283.55	402.55
1010.7575	2842.0306	1281.4	406.45
1010.8754	2843.1843	1284.4	407
1010.9932	2844.3374	1281.45	405.7
1011.111	2845.4899	1277.85	399.5
1011.2288	2846.6417	1283.3	407.05
1011.3465	2847.7928	1286.55	409.95
1011.4642	2848.9433	1282.8	406.75
1011.5818	2850.0931	1273.75	396.25
1011.6995	2851.2422	1283.9	404.1
1011.817	2852.3907	1280.15	400.25
1011.9345	2853.5385	1280.15	401.7
1012.052	2854.6857	1284.5	397.75
1012.1695	2855.8323	1282	405.65
1012.2869	2856.9781	1283.1	405.35
1012.4042	2858.1233	1280.15	401.6
1012.5216	2859.2679	1280.7	403.05
1012.6389	2860.4118	1286.15	407.6
1012.7561	2861.555	1284.4	401.3
1012.8733	2862.6976	1285.15	404.7
1012.9905	2863.8395	1285.45	407.85
1013.1076	2864.9808	1285.2	406.15
1013.2247	2866.1214	1280	404.35
1013.3417	2867.2614	1287.3	409.9
1013.4587	2868.4007	1280.7	402.3
1013.5757	2869.5393	1283.75	403.6
1013.6926	2870.6773	1287.2	407.05
1013.8095	2871.8146	1290.6	410.45
1013.9263	2872.9513	1297.95	417.85
1014.0431	2874.0874	1278.35	400.6
1014.1599	2875.2227	1290.95	413.8
1014.2766	2876.3574	1278.25	400.2
1014.3933	2877.4915	1280.85	404.45
1014.51	2878.6249	1282.05	404.3
1014.6266	2879.7577	1286.85	408.1
1014.7431	2880.8898	1287.9	396.95
1014.8596	2882.0212	1277.6	401.25
1014.9761	2883.152	1286.05	406.55
1015.0925	2884.2821	1289.6	412.25
1015.2089	2885.4116	1281.1	403
1015.3253	2886.5405	1280.4	401.1
1015.4416	2887.6686	1285.05	404.35
1015.5579	2888.7962	1278	402.9
1015.6741	2889.923	1279.25	403.6
1015.7903	2891.0493	1279.8	404.9
1015.9065	2892.1748	1272.4	394.75
1016.0226	2893.2997	1275.8	398.65
1016.1387	2894.424	1270.85	393.45
1016.2547	2895.5476	1272.8	395.4
1016.3707	2896.6706	1267.75	392.05
1016.4866	2897.7929	1275.7	398.35
1016.6025	2898.9145	1268.1	388.85
1016.7184	2900.0355	1270	391.5
1016.8342	2901.1559	1269	389.1
1016.95	2902.2756	1260.95	383.7
1017.0658	2903.3946	1262.55	384.6
1017.1815	2904.513	1261.85	380.9
1017.2971	2905.6308	1257.5	381.5
1017.4127	2906.7479	1262.85	385.75
1017.5283	2907.8643	1260.9	381.9
1017.6439	2908.9801	1259.5	382.2
1017.7594	2910.0953	1253.2	378.55
1017.8748	2911.2098	1258.1	377.55
1017.9902	2912.3236	1254	368
1018.1056	2913.4368	1265.3	384.7
1018.2209	2914.5494	1247.1	370.15
1018.3362	2915.6613	1252.2	367.8
1018.4515	2916.7725	1248.1	367.6
1018.5667	2917.8831	1240.5	361.95
1018.6819	2918.9931	1243.5	361.5
1018.797	2920.1024	1243.25	364.35
1018.9121	2921.211	1229.5	351.55
1019.0271	2922.319	1230.05	353.45
1019.1421	2923.4264	1232.25	355.85
1019.2571	2924.5331	1227.1	350.35
1019.372	2925.6391	1231.3	354.95
1019.4869	2926.7445	1220.95	345.3
1019.6017	2927.8493	1224.5	346.7
1019.7165	2928.9534	1224.05	346.7
1019.8313	2930.0569	1226.6	345.95
1019.946	2931.1597	1223.7	344.05
1020.0606	2932.2619	1222.95	345.25
1020.1753	2933.3634	1224.9	348.85
1020.2899	2934.4643	1231.4	347.15
1020.4044	2935.5645	1234.45	349.25
1020.5189	2936.6641	1227.85	347.3
1020.6334	2937.763	1223.25	346.8
1020.7478	2938.8613	1224.45	347
1020.8622	2939.959	1226.2	343.9
1020.9765	2941.056	1217.95	343.4
1021.0908	2942.1523	1216.35	335.8
1021.2051	2943.248	1206.75	328.5
1021.3193	2944.3431	1201.45	324.15
1021.4334	2945.4375	1193.2	317
1021.5476	2946.5313	1183.6	307.1
1021.6617	2947.6244	1181.25	303.85
1021.7757	2948.7169	1173.3	294.7
1021.8897	2949.8087	1170.1	291.9
1022.0037	2950.8999	1167.8	290.75
1022.1176	2951.9904	1155	278.65
1022.2315	2953.0803	1155.9	277.8
1022.3453	2954.1696	1148.9	271.45
1022.4591	2955.2582	1148.2	272.8
1022.5728	2956.3462	1141.75	262.8
1022.6865	2957.4335	1142.25	263.5
1022.8002	2958.5202	1146.2	265.35
1022.9138	2959.6062	1130.35	252.1
1023.0274	2960.6916	1137.5	260.05
1023.141	2961.7764	1136.15	258.8
1023.2545	2962.8605	1136.45	259.65
1023.3679	2963.9439	1128.8	252.35
1023.4813	2965.0267	1130.3	251.7
1023.5947	2966.1089	1151.8	254.25
1023.708	2967.1905	1132.55	257.8
1023.8213	2968.2714	1126.3	248.3
1023.9346	2969.3516	1126.4	249.95
1024.0478	2970.4312	1135.25	250.35
1024.1609	2971.5102	1128.75	249.35
1024.274	2972.5885	1120.5	243
1024.3871	2973.6662	1124.95	242.7
1024.5002	2974.7432	1127.5	253
1024.6132	2975.8196	1121.35	245.55
1024.7261	2976.8954	1118.6	242.95
1024.839	2977.9705	1122.65	247.3
1024.9519	2979.045	1118.1	240.45
1025.0647	2980.1188	1119.4	243.2
1025.1775	2981.192	1112.9	236.55
1025.2902	2982.2645	1116.25	236.45
1025.4029	2983.3364	1111.75	233.15
1025.5156	2984.4077	1108.9	231.45
1025.6282	2985.4783	1114.35	230.6
1025.7407	2986.5483	1106.85	232.75
1025.8532	2987.6177	1101.05	224.4
1025.9657	2988.6864	1098.65	222.45
1026.0782	2989.7545	1102.75	223.8
1026.1906	2990.8219	1098.05	220.95
1026.3029	2991.8887	1095.45	217.45
1026.4152	2992.9548	1092.5	214.65
1026.5275	2994.0204	1088.25	212.25
1026.6397	2995.0852	1085	208.4
1026.7519	2996.1495	1084.85	206.15
1026.864	2997.2131	1078.25	202.3
1026.9761	2998.276	1079.3	199.85
1027.0882	2999.3383	1079.2	201.25
1027.2002	3000.4	1076.35	199.95
1027.3122	3001.4611	1074.85	196.65
1027.4241	3002.5215	1071.5	193.35
1027.536	3003.5812	1067.5	189.5
1027.6478	3004.6404	1065.45	188.7
1027.7596	3005.6989	1068.2	190.65
1027.8714	3006.7567	1068.9	190
1027.9831	3007.8139	1086	185.05
1028.0947	3008.8705	1063	186.4
1028.2064	3009.9264	1063.85	182.25
1028.3179	3010.9818	1061.75	186.4
1028.4295	3012.0364	1058.95	179.65
1028.541	3013.0905	1058.75	182.15
1028.6524	3014.1439	1052.55	173.8
1028.7638	3015.1966	1052.35	176.2
1028.8752	3016.2487	1055.85	178.55
1028.9865	3017.3002	1059.75	176.95
1029.0978	3018.3511	1052.2	176.95
1029.209	3019.4013	1055.55	180
1029.3202	3020.4509	1050.55	175.2
1029.4314	3021.4998	1049.9	172.55
1029.5425	3022.5481	1052.85	176.15
1029.6535	3023.5958	1048.55	172.55
1029.7645	3024.6428	1051.25	174.05
1029.8755	3025.6892	1051.5	174.75
1029.9864	3026.735	1045.1	167.35
1030.0973	3027.7802	1046.7	169.6
1030.2082	3028.8247	1046.2	168.2
1030.319	3029.8685	1042.8	165.15
1030.4297	3030.9118	1048.75	170.4
1030.5404	3031.9544	1041.2	165.85
1030.6511	3032.9963	1041.3	164.2
1030.7617	3034.0376	1044.25	169.55
1030.8723	3035.0783	1043.65	164.5
1030.9829	3036.1184	1038.75	159.95
1031.0934	3037.1578	1037.7	160.9
1031.2038	3038.1966	1044.35	164.85
1031.3142	3039.2348	1043.25	168.5
1031.4246	3040.2723	1045	160.65
1031.5349	3041.3092	1038.75	162.55
1031.6452	3042.3455	1035.8	159.25
1031.7554	3043.3811	1039	160.6
1031.8656	3044.4161	1038.05	160.3
1031.9758	3045.4505	1034.85	156.75
1032.0859	3046.4842	1035.65	158.35
1032.1959	3047.5173	1029.25	153.9
1032.3059	3048.5498	1035.6	159.9
1032.4159	3049.5816	1031.75	154.5
1032.5258	3050.6128	1034.1	155.75
1032.6357	3051.6434	1034.85	155.4
1032.7455	3052.6734	1033.3	156.15
1032.8553	3053.7027	1030.15	152.1
1032.9651	3054.7314	1030.55	153
1033.0748	3055.7594	1028.55	152.05
1033.1845	3056.7868	1030.1	152.9
1033.2941	3057.8136	1032.85	156.8
1033.4037	3058.8398	1028.15	151.5
1033.5132	3059.8653	1030.6	151.95
1033.6227	3060.8902	1024.6	148.15
1033.7321	3061.9145	1024.95	148.95
1033.8415	3062.9381	1027.45	150.65
1033.9509	3063.9612	1040.9	149.2
1034.0602	3064.9835	1026.6	152.25
1034.1694	3066.0053	1027	147.4
1034.2787	3067.0264	1023.65	148.1
1034.3878	3068.0469	1027.6	148.05
1034.497	3069.0668	1024.25	143.5
1034.6061	3070.086	1024.7	149.25
1034.7151	3071.1046	1025.85	150.4
1034.8241	3072.1226	1021.8	142.4
1034.9331	3073.1399	1015.35	137.9
1035.042	3074.1567	1021.8	142.85
1035.1508	3075.1727	1020.3	141.9
1035.2597	3076.1882	1017.95	141.8
1035.3684	3077.203	1020.1	143.85
1035.4772	3078.2173	1016.35	137.8
1035.5859	3079.2308	1017.7	138.9
1035.6945	3080.2438	1018.8	140.4
1035.8031	3081.2561	1014.95	137.4
1035.9117	3082.2678	1012.6	133.55
1036.0202	3083.2789	1008.65	130.9
1036.1286	3084.2893	1010.1	132.85
1036.2371	3085.2991	1010	132.85
1036.3454	3086.3083	1014.25	132.55
1036.4538	3087.3169	1010.75	133.7
1036.562	3088.3248	1012.35	134.55
1036.6703	3089.3321	1011.2	132.65
1036.7785	3090.3388	1006.15	129.95
1036.8866	3091.3449	1001.55	124.85
1036.9948	3092.3503	1007.6	126.25
1037.1028	3093.3551	1002.65	126.7
1037.2108	3094.3593	1003.05	129.15
1037.3188	3095.3629	999	120.6
1037.4267	3096.3658	1001.8	124.7
1037.5346	3097.3681	1002.25	125.3
1037.6425	3098.3698	1004.9	125.45
1037.7503	3099.3708	1008.75	125.95
1037.858	3100.3713	1002.15	124.45
1037.9657	3101.3711	1000.35	121.4
1038.0734	3102.3702	1130.45	115.8
1038.181	3103.3688	999.2	120.95
1038.2886	3104.3667	997	121.95
1038.3961	3105.364	996.8	117.9
1038.5036	3106.3607	995.5	116.9
1038.611	3107.3568	996.8	118.9
1038.7184	3108.3522	991.05	114.9
1038.8257	3109.347	992.6	115.8
1038.933	3110.3412	999.55	117.9
1039.0403	3111.3348	991.8	115.4
1039.1475	3112.3277	991.3	115.3
1039.2547	3113.32	988.7	111.4
1039.3618	3114.3117	985.3	106.95
1039.4689	3115.3028	988.4	109.7
1039.5759	3116.2932	994.05	116.25
1039.6829	3117.2831	995.95	114.85
1039.7898	3118.2723	986.35	111.3
1039.8967	3119.2608	984.6	108.3
1040.0035	3120.2488	983.6	106.9
1040.1103	3121.2361	985.25	107.05
1040.2171	3122.2229	984.5	107.55
1040.3238	3123.209	986.1	107
1040.4305	3124.1944	981.5	105.4
1040.5371	3125.1793	982.45	102.65
1040.6437	3126.1635	982.7	106.55
1040.7502	3127.1471	983.5	107.5
1040.8567	3128.1301	980.6	102.75
1040.9631	3129.1125	975.6	98.6
1041.0695	3130.0942	980.65	103.6
1041.1759	3131.0753	985.9	101
1041.2822	3132.0558	981.7	104
1041.3884	3133.0357	977.1	97.65
1041.4946	3134.015	978.3	100.6
1041.6008	3134.9936	979.35	98.85
1041.7069	3135.9716	999.2	102.65
1041.813	3136.949	980.2	103.9
1041.919	3137.9258	982.35	97.6
1042.025	3138.902	980.8	97.9
1042.1309	3139.8775	978.1	100.55
1042.2368	3140.8524	972.85	96.3
1042.3427	3141.8267	977.1	98.5
1042.4485	3142.8004	975.45	97.95
1042.5542	3143.7735	981.65	99.15
1042.6599	3144.7459	976.35	97.2
1042.7656	3145.7178	969.45	92.8
1042.8712	3146.689	970.95	96.65
1042.9768	3147.6596	972.7	95.3
1043.0823	3148.6295	969.95	93.25
1043.1878	3149.5989	970.1	92.55
1043.2932	3150.5676	967.3	89.9
1043.3986	3151.5357	966.55	90.7
1043.5039	3152.5032	970.6	94.8
1043.6092	3153.4701	973.2	97.8
1043.7145	3154.4364	971.45	92.9
1043.8197	3155.402	965.4	88.6
1043.9248	3156.367	968.6	90.25
1044.03	3157.3315	1004.15	87.55
1044.135	3158.2952	967.85	92.2
1044.24	3159.2584	964.75	88
1044.345	3160.221	967.95	89.7
1044.4499	3161.1829	964.5	87.1
1044.5548	3162.1442	964.5	86.35
1044.6596	3163.105	962.05	85.65
1044.7644	3164.065	961.55	84.3
1044.8692	3165.0245	964.9	84.7
1044.9739	3165.9834	959.4	83.2
1045.0785	3166.9416	959.75	82.55
1045.1831	3167.8993	964.2	87.1
1045.2877	3168.8563	962.4	86.9
1045.3922	3169.8127	958.7	82.95
1045.4966	3170.7684	961.3	84.55
1045.6011	3171.7236	961.55	83.15
1045.7054	3172.6782	960	83.1
1045.8098	3173.6321	958.65	80.5
1045.914	3174.5854	962.6	80.85
1046.0183	3175.5381	956.75	80.75
1046.1224	3176.4902	956.05	80.3
1046.2266	3177.4417	955.25	79.75
1046.3307	3178.3926	952.15	75.7
1046.4347	3179.3428	952.7	75.9
1046.5387	3180.2924	953.65	77.35
1046.6427	3181.2415	953.9	76.55
1046.7466	3182.1899	957.9	79.35
1046.8504	3183.1377	955.15	77.4
1046.9542	3184.0848	959.8	79.15
1047.058	3185.0314	954.7	79.05
1047.1617	3185.9773	955	77.5
1047.2654	3186.9227	953.1	75.55
1047.369	3187.8674	952.1	75.75
1047.4726	3188.8115	959.25	75.55
1047.5761	3189.755	951.25	73.45
1047.6796	3190.6979	953.2	75.55
1047.783	3191.6402	952.35	73.7
1047.8864	3192.5818	948.95	72.45
1047.9898	3193.5229	956.2	73.4
1048.0931	3194.4633	948.65	72.4
1048.1963	3195.4031	950.55	73.55
1048.2995	3196.3423	948.05	71.05
1048.4027	3197.2809	948.3	71.1
1048.5058	3198.2189	945.75	67.55
1048.6089	3199.1563	955.3	72.1
1048.7119	3200.0931	946.6	71.4
1048.8148	3201.0292	946.85	72.2
1048.9178	3201.9648	946.4	71.35
1049.0206	3202.8997	950.35	71.1
1049.1235	3203.834	946.05	70.15
1049.2262	3204.7677	945.9	70.15
1049.329	3205.7008	947.15	68.75
1049.4317	3206.6333	944.3	69.55
1049.5343	3207.5652	947.5	69.3
1049.6369	3208.4964	947.1	71.75
1049.7394	3209.4271	943.55	68.1
1049.8419	3210.3571	942.2	66.2
1049.9444	3211.2865	943.75	67.2
1050.0468	3212.2154	943.65	67.5
1050.1491	3213.1436	944.9	65.5
1050.2514	3214.0712	945.05	62.25
1050.3537	3214.9982	942.9	66.35
1050.4559	3215.9246	941.75	64.7
1050.5581	3216.8503	941.1	65.3
1050.6602	3217.7755	944	67.85
1050.7623	3218.7001	942.7	65.05
1050.8643	3219.624	941	63.2
1050.9663	3220.5473	938.85	62.5
1051.0682	3221.4701	944.45	66.15
1051.1701	3222.3922	941.55	62.75
1051.2719	3223.3137	939.5	64.4
1051.3737	3224.2346	940	61.95
1051.4754	3225.1549	936.9	63.3
1051.5771	3226.0746	940.1	65.3
1051.6788	3226.9937	937.25	59.3
1051.7804	3227.9121	932.95	55.35
1051.8819	3228.83	934.9	57.8
1051.9834	3229.7473	937.45	60.7
1052.0849	3230.6639	936.45	58.55
1052.1863	3231.5799	935.45	57.5
1052.2876	3232.4954	937.35	59.2
1052.3889	3233.4102	935.05	59.55
1052.4902	3234.3244	933.6	57
1052.5914	3235.238	934.6	57.3
1052.6926	3236.151	956.95	58.3
1052.7937	3237.0634	933.45	57.75
1052.8948	3237.9752	932	54.7
1052.9958	3238.8864	930.15	53.55
1053.0968	3239.797	931.25	54.6
1053.1977	3240.7069	933.4	55.8
1053.2986	3241.6163	933.25	56.8
1053.3994	3242.5251	928.6	53.15
1053.5002	3243.4332	931.35	56.05
1053.6009	3244.3408	929.75	50.55
1053.7016	3245.2477	931.3	54.55
1053.8022	3246.154	932.9	56.3
1053.9028	3247.0598	933.15	54.4
1054.0034	3247.9649	930.3	54.5
1054.1039	3248.8694	929.05	52.15
1054.2043	3249.7733	926.1	49.65
1054.3047	3250.6766	929.2	53.85
1054.4051	3251.5793	932.5	56.05
1054.5054	3252.4814	928.8	52.35
1054.6056	3253.3829	927.8	50.25
1054.7058	3254.2838	927.5	50.2
1054.806	3255.1841	926.75	51.25
1054.9061	3256.0838	923.9	46.15
1055.0061	3256.9829	926.45	51.75
1055.1062	3257.8814	926.2	45.95
1055.2061	3258.7792	929.2	51.25
1055.306	3259.6765	926.8	49.6
1055.4059	3260.5731	924.95	48.2
1055.5057	3261.4692	926.1	50.15
1055.6055	3262.3647	922.65	46.3
1055.7052	3263.2595	922.55	45.2
1055.8049	3264.1538	920.65	44
1055.9045	3265.0474	923.3	46.45
1056.0041	3265.9404	918.6	42.9
1056.1036	3266.8329	921.5	44.75
1056.2031	3267.7247	928.75	42
1056.3025	3268.616	918.1	44.2
1056.4019	3269.5066	916.45	40.35
1056.5013	3270.3966	918.85	41.85
1056.6005	3271.286	913.4	39.25
