Software Version:	3.9.2.0
Unit SN:	10000200
Spectrometer SN:	6960
Date:	3/6/2024 9:36:54 AM
Data Line Index:	25
Spectral Points:	2048
Integration time (ms):	125
Averages:	20
Delay (ms):	30
Sequence Number:	1
Processing:	dark subtract
Laser Power (mW):	300
Laser Current (mA):	823
Laser Diode Temp (C):	25.1
Laser Case Temp (C):	23.9
System Temp (C):	23.7
Spectrometer Temp (C):	21.3
CCD Temp (C):	-0.034
Secondary Temp (C):	20.006
Heatsink Temp (C):	17.258
CCDPCB Temp (C):	30.527
SecondaryPCB Temp (C):	25.669

Wavelength	RamanShift	Raw Counts	Dark Subtracted
787.061	30.1047	507.9	99.25
787.2016	32.3739	510.1	104.8
787.3422	34.6426	515.45	107.95
787.4828	36.9109	524.7	115.7
787.6235	39.1787	533.95	119.9
787.7642	41.4461	544.45	128.75
787.9049	43.7131	555.9	136.85
788.0456	45.9796	565.3	142.5
788.1863	48.2456	583.55	155.65
788.3271	50.5112	589.7	156.85
788.4679	52.7764	603.4	168
788.6087	55.0411	617.85	181.9
788.7496	57.3054	634.7	193.05
788.8904	59.5692	649.3	205.6
789.0313	61.8326	662.8	218.1
789.1722	64.0955	682.35	234.15
789.3132	66.3579	703.55	247
789.4541	68.6199	726.55	270.35
789.5951	70.8815	778.65	316.8
789.7361	73.1426	885	420.15
789.8771	75.4032	1129.15	660.95
790.0181	77.6634	1775.95	1304.1
790.1592	79.9231	3272.8	2799.5
790.3003	82.1824	6559.1	6079.7
790.4414	84.4412	12343.95	11857.15
790.5825	86.6995	20075.55	19582.35
790.7237	88.9574	27597.45	27094.95
790.8648	91.2148	32909.65	32403.75
791.006	93.4717	35695.1	35185.6
791.1472	95.7282	36929.35	36419.8
791.2885	97.9842	37593.85	37081.35
791.4297	100.2398	37850.95	37334.5
791.571	102.4949	37930	37412.45
791.7123	104.7495	38037.15	37513.25
791.8536	107.0036	38026.75	37504.4
791.9949	109.2573	38115.65	37592.15
792.1363	111.5105	38133.6	37607.6
792.2777	113.7632	38169.7	37643.6
792.4191	116.0154	38269.25	37729.75
792.5605	118.2672	38505.95	37973.4
792.7019	120.5185	38508.3	37973.65
792.8434	122.7693	38602.95	38062.15
792.9849	125.0197	38736.15	38193.8
793.1264	127.2696	38744.95	38198.7
793.2679	129.519	38899.2	38350.45
793.4094	131.7679	39140.15	38590.85
793.551	134.0163	39063.15	38510.25
793.6926	136.2642	39154.5	38599.65
793.8342	138.5117	39264.2	38705.7
793.9758	140.7587	39324.35	38764.6
794.1175	143.0052	39412.6	38849.15
794.2591	145.2512	39342.6	38778.05
794.4008	147.4967	39438.8	38872.9
794.5425	149.7417	39439.55	38869.7
794.6842	151.9863	39473.7	38899.75
794.826	154.2304	39459.55	38885.05
794.9677	156.4739	39406.8	38822.1
795.1095	158.717	39543.8	38965.45
795.2513	160.9596	39583.6	38995.1
795.3931	163.2017	39563.45	38975.35
795.535	165.4433	39669.55	39078.15
795.6768	167.6844	39640.15	39045.75
795.8187	169.925	39788.25	39192.1
795.9606	172.1651	39686.9	39085.9
796.1025	174.4047	39667.7	39060.85
796.2445	176.6439	39709	39099.75
796.3864	178.8825	39760.4	39151
796.5284	181.1206	39883.15	39269.4
796.6704	183.3582	39958.8	39342.1
796.8124	185.5954	39913.05	39294.9
796.9544	187.832	40031.5	39408.85
797.0965	190.0681	40097.55	39472.55
797.2386	192.3037	40237.9	39611.45
797.3806	194.5388	40352.6	39721.7
797.5228	196.7734	40268.25	39637.85
797.6649	199.0075	40532.15	39901.3
797.807	201.2411	40782.2	40148.35
797.9492	203.4742	40855.55	40217.6
798.0914	205.7068	41021.85	40379.05
798.2336	207.9389	41032.5	40390.35
798.3758	210.1704	41164.25	40534.55
798.518	212.4015	41196.7	40575.6
798.6603	214.632	41207.05	40591.3
798.8025	216.862	41369.5	40748.75
798.9448	219.0915	41401.3	40781.05
799.0871	221.3205	41485.55	40864.8
799.2294	223.549	41611.05	40992.95
799.3718	225.777	41722.05	41101.85
799.5141	228.0044	41751.7	41121.2
799.6565	230.2314	41892.3	41261.85
799.7989	232.4578	41894.35	41259.95
799.9413	234.6837	41929.45	41284.4
800.0837	236.909	42134.6	41488.65
800.2262	239.1339	41997.15	41325.65
800.3687	241.3582	42136.2	41482.2
800.5111	243.582	42162.8	41476.95
800.6536	245.8053	42257.8	41584.65
800.7961	248.0281	42282.45	41615.95
800.9387	250.2503	42344	41675.45
801.0812	252.472	42350.95	41681.25
801.2238	254.6932	42499.35	41828.65
801.3664	256.9139	42390.6	41716.05
801.509	259.134	42656	41979.75
801.6516	261.3536	42451.35	41777.55
801.7942	263.5727	42658.5	41980.4
801.9369	265.7912	42657.6	41979.3
802.0795	268.0092	42767.95	42091.9
802.2222	270.2267	42803.45	42125.6
802.3649	272.4436	42877.2	42198.7
802.5076	274.6601	42896	42204.75
802.6504	276.8759	42896.4	42208.25
802.7931	279.0913	42968.9	42281.45
802.9359	281.3061	42951.95	42263.95
803.0787	283.5204	43125.3	42434.95
803.2215	285.7341	43151.4	42457.25
803.3643	287.9473	43294.45	42591.65
803.5071	290.16	43226.5	42531.95
803.6499	292.3721	43422.25	42731.6
803.7928	294.5837	43140.5	42447.7
803.9357	296.7947	43095	42400.45
804.0786	299.0052	43202.35	42508.95
804.2215	301.2152	43086.95	42392
804.3644	303.4246	43265.8	42573.5
804.5074	305.6334	43175.05	42480.65
804.6503	307.8418	43118.6	42416.7
804.7933	310.0495	43173.9	42474.1
804.9363	312.2568	43172.7	42471.25
805.0793	314.4635	43000.85	42296.05
805.2223	316.6696	42944.8	42238.4
805.3653	318.8752	42871.85	42156.05
805.5084	321.0802	42699.4	41990.45
805.6514	323.2847	42811.15	42101.45
805.7945	325.4887	42748.1	42038.75
805.9376	327.692	42723.7	42013.45
806.0807	329.8949	42922.3	42208.2
806.2238	332.0972	42868.7	42153.75
806.367	334.2989	43001.85	42284.25
806.5101	336.5001	42974.95	42256.8
806.6533	338.7007	42940.45	42223.65
806.7965	340.9008	43001.25	42279.15
806.9397	343.1003	42936.55	42212
807.0829	345.2992	42992.8	42269.8
807.2261	347.4976	42901.95	42178.5
807.3693	349.6955	42888.4	42160.5
807.5126	351.8927	42931.55	42201.7
807.6559	354.0895	42873.8	42131.05
807.7991	356.2856	42950.1	42218.25
807.9424	358.4812	42869.1	42137.7
808.0857	360.6763	42946.05	42209.9
808.2291	362.8707	42779.4	42042.05
808.3724	365.0646	42901.05	42158.8
808.5158	367.258	42855	42113.95
808.6591	369.4508	42784.4	42038.95
808.8025	371.643	42868.95	42123.1
808.9459	373.8346	42766.85	42019.9
809.0893	376.0257	42751.85	42003.5
809.2327	378.2162	42676.05	41931.1
809.3762	380.4062	42714.85	41968
809.5196	382.5956	42606.6	41862.85
809.6631	384.7844	42633.25	41894.5
809.8066	386.9726	42527.25	41789.2
809.9501	389.1603	42474.75	41736.25
810.0936	391.3474	42445.5	41658.65
810.2371	393.5339	42496.95	41754.85
810.3806	395.7199	42333.9	41590.75
810.5241	397.9052	42374.25	41633.25
810.6677	400.09	42339.15	41594.3
810.8113	402.2743	42299.1	41553
810.9548	404.4579	42306.45	41560.05
811.0984	406.641	42384.4	41634.5
811.2421	408.8235	42466.4	41715.7
811.3857	411.0054	42467.75	41715.75
811.5293	413.1868	42605.05	41846.1
811.673	415.3675	42536.7	41775.65
811.8166	417.5477	42538.65	41777.3
811.9603	419.7273	42501.5	41738.5
812.104	421.9064	42269	41501.15
812.2477	424.0848	42224.7	41461.75
812.3914	426.2627	42140.2	41376.8
812.5351	428.4399	42045.1	41280.95
812.6788	430.6166	41884.35	41114.15
812.8226	432.7928	41757.15	40984.75
812.9663	434.9683	41661.15	40891.35
813.1101	437.1432	41549.45	40777.6
813.2539	439.3176	41461.7	40693.55
813.3977	441.4914	41312.55	40541.55
813.5415	443.6645	41319.75	40547.45
813.6853	445.8371	41126.45	40354.15
813.8291	448.0091	40958.1	40185.2
813.973	450.1806	40904.95	40131.2
814.1168	452.3514	40829.8	40050.4
814.2607	454.5216	40854.5	40071.2
814.4046	456.6913	40597.3	39820.15
814.5485	458.8603	40701.2	39924
814.6924	461.0288	40688.8	39914.1
814.8363	463.1967	40578.6	39802.35
814.9802	465.3639	40642.25	39863.2
815.1241	467.5306	40559.6	39779.8
815.2681	469.6967	40451.15	39671.65
815.412	471.8622	40367.8	39588.7
815.556	474.0271	40329.9	39551.5
815.7	476.1914	40289.3	39507.4
815.844	478.3551	40298.55	39516.8
815.988	480.5182	40331.9	39550.95
816.132	482.6807	40337.45	39555.25
816.276	484.8426	40371	39588.1
816.4201	487.0039	40401.5	39618
816.5641	489.1647	40477.55	39692.6
816.7082	491.3248	40494.9	39710.8
816.8522	493.4843	40485.6	39701.65
816.9963	495.6432	40449.1	39663.15
817.1404	497.8015	40328.6	39540.35
817.2845	499.9592	40337	39548.3
817.4286	502.1163	40205.8	39415.5
817.5727	504.2728	40108	39316.5
817.7168	506.4287	40195.9	39406.4
817.861	508.5839	40059.75	39269.2
818.0051	510.7386	40041.7	39249.05
818.1493	512.8927	40068.5	39267.3
818.2935	515.0461	40079.3	39285.25
818.4377	517.199	40086.95	39291.95
818.5818	519.3512	40041.75	39246.8
818.726	521.5029	40070.65	39272.95
818.8703	523.6539	40033.6	39236.25
819.0145	525.8043	40004.15	39208.45
819.1587	527.9541	39972.75	39172.9
819.303	530.1033	39832.65	39035.25
819.4472	532.2519	39812.65	39014.95
819.5915	534.3999	39712.85	38912.75
819.7357	536.5472	39669	38869.5
819.88	538.694	39636.45	38836.65
820.0243	540.8401	39653.5	38851.9
820.1686	542.9856	39693.8	38890.9
820.3129	545.1305	39631.35	38827.25
820.4572	547.2748	39652.35	38850.8
820.6016	549.4185	39667.25	38861.05
820.7459	551.5615	39576	38771.4
820.8902	553.704	39567.45	38761.75
821.0346	555.8458	39457.5	38653.1
821.1789	557.987	39502.35	38698.65
821.3233	560.1276	39468.9	38665.2
821.4677	562.2675	39604.05	38800.65
821.6121	564.4069	39507.5	38705.25
821.7565	566.5456	39446.25	38641.7
821.9009	568.6837	39473.75	38670.35
822.0453	570.8212	39243	38437.85
822.1897	572.958	39123	38314.55
822.3342	575.0942	39039.45	38234.55
822.4786	577.2299	38902.05	38094.65
822.6231	579.3648	38772.95	37966.45
822.7675	581.4992	38617.9	37810.95
822.912	583.6329	38547.5	37738.8
823.0565	585.766	38458.8	37650.75
823.201	587.8985	38441.2	37632.4
823.3454	590.0304	38355.9	37532.65
823.4899	592.1616	38373.95	37559.55
823.6345	594.2922	38265.25	37453.75
823.779	596.4222	38117.75	37304.95
823.9235	598.5515	38016.35	37199.45
824.068	600.6802	37852.95	37039.1
824.2126	602.8083	37702.15	36889.3
824.3571	604.9358	37686.3	36870.45
824.5017	607.0626	37550.6	36736.35
824.6462	609.1888	37488.9	36671.9
824.7908	611.3144	37465.45	36647.55
824.9354	613.4393	37423.9	36608.7
825.08	615.5636	37474.5	36657.1
825.2246	617.6873	37438.2	36620.7
825.3692	619.8103	37505.7	36686.5
825.5138	621.9327	37429	36609.4
825.6584	624.0544	37355.05	36537.45
825.803	626.1756	37335.6	36516
825.9477	628.2961	37194.7	36375.1
826.0923	630.4159	37124.2	36305.4
826.237	632.5351	37090.85	36269.95
826.3816	634.6537	37054.1	36232.35
826.5263	636.7716	36962.4	36139.15
826.6709	638.8889	36925.9	36103.9
826.8156	641.0056	36969.65	36146.35
826.9603	643.1216	36896.75	36073.05
827.105	645.237	36945.8	36121.75
827.2497	647.3518	36768.85	35945.7
827.3944	649.4659	36795.65	35971.7
827.5391	651.5793	36707.15	35880.85
827.6838	653.6922	36654.4	35829.2
827.8285	655.8043	36557.35	35733.4
827.9733	657.9159	36578.2	35754.05
828.118	660.0268	36481.05	35655.15
828.2627	662.137	36443.25	35618.25
828.4075	664.2466	36422.4	35595.3
828.5522	666.3556	36370	35541.7
828.697	668.4639	36270.05	35437.2
828.8418	670.5716	36305.6	35477.7
828.9865	672.6786	36267.95	35439.2
829.1313	674.785	36101.85	35271.6
829.2761	676.8907	36041	35211.95
829.4209	678.9958	35980.65	35153.95
829.5657	681.1002	35847.1	35017.9
829.7105	683.204	35797.15	34964.75
829.8553	685.3072	35731.35	34899.25
830.0001	687.4097	35632.35	34802.15
830.1449	689.5115	35682.9	34846.8
830.2898	691.6127	35696.75	34865.85
830.4346	693.7132	35572.85	34739.8
830.5794	695.8131	35630.35	34790.05
830.7243	697.9123	35587.6	34754.25
830.8691	700.0109	35495.05	34662.15
831.014	702.1089	35478.85	34647.45
831.1588	704.2061	35444.75	34613.15
831.3037	706.3028	35442.2	34605.45
831.4486	708.3987	35431.55	34595.8
831.5935	710.4941	35387.4	34551.7
831.7383	712.5887	35338.9	34500.25
831.8832	714.6827	35351.4	34510.9
832.0281	716.7761	35278.3	34440.8
832.173	718.8688	35247.55	34410.55
832.3179	720.9608	35137.95	34296.4
832.4628	723.0522	35187.7	34346.95
832.6077	725.1429	35106.85	34269.65
832.7527	727.233	35052	34212.65
832.8976	729.3224	35151.8	34312.05
833.0425	731.4112	35060.5	34219.85
833.1874	733.4993	34989.75	34148
833.3324	735.5867	34825.8	33985.6
833.4773	737.6735	34787.45	33946
833.6222	739.7596	34669.05	33829.2
833.7672	741.845	34592.6	33752.3
833.9122	743.9298	34478.95	33634
834.0571	746.014	34466.9	33626.05
834.2021	748.0974	34429.75	33587.35
834.347	750.1802	34324.55	33483.95
834.492	752.2624	34214.95	33374
834.637	754.3439	34080	33237.9
834.782	756.4247	33989.85	33140.25
834.9269	758.5048	33881.7	33040.25
835.0719	760.5843	33821.45	32979.15
835.2169	762.6631	33761.9	32917.9
835.3619	764.7413	33722.9	32878.75
835.5069	766.8188	33774.8	32927
835.6519	768.8956	33684.55	32837.1
835.7969	770.9718	33779	32935.15
835.9419	773.0473	33631.5	32786.8
836.0869	775.1221	33527.7	32682.15
836.232	777.1962	33359	32513.55
836.377	779.2697	33410.45	32564.65
836.522	781.3426	33371.3	32507.65
836.667	783.4147	33342.35	32496.35
836.8121	785.4862	33341.6	32497.55
836.9571	787.557	33224.65	32380.1
837.1021	789.6271	33100	32253.5
837.2472	791.6966	32954.4	32106.8
837.3922	793.7654	32729.6	31881
837.5373	795.8335	32719	31870.15
837.6823	797.901	32577.9	31732.7
837.8274	799.9678	32533.85	31684.95
837.9724	802.0339	32451.7	31604.35
838.1175	804.0993	32418.95	31560.9
838.2626	806.1641	32332.15	31484.65
838.4076	808.2282	32234.25	31387.25
838.5527	810.2916	32167.15	31316.45
838.6978	812.3544	32148.35	31299.15
838.8428	814.4164	32056.8	31208.2
838.9879	816.4778	32158.2	31307.4
839.133	818.5385	31988.45	31137.2
839.2781	820.5986	32054	31204.55
839.4232	822.658	32061.5	31208.65
839.5682	824.7166	31990.75	31142.45
839.7133	826.7747	32120.3	31269.55
839.8584	828.832	32118.4	31268.4
840.0035	830.8886	32011	31158.65
840.1486	832.9446	31959.1	31106.15
840.2937	834.9999	31897.25	31050.3
840.4388	837.0545	31844.95	30990.05
840.5839	839.1085	31719.1	30866.5
840.729	841.1618	31613.3	30756.55
840.8741	843.2143	31481.55	30630.5
841.0192	845.2662	31328.2	30477.35
841.1643	847.3175	31337.05	30484.9
841.3095	849.368	31244.35	30392.55
841.4546	851.4179	31182.65	30331
841.5997	853.467	31087.2	30233.9
841.7448	855.5155	31074.6	30223.65
841.8899	857.5633	30972.6	30116.95
842.0351	859.6105	30918.8	30064
842.1802	861.6569	30868.6	30016.65
842.3253	863.7027	30821.4	29966.75
842.4704	865.7478	30785.75	29931
842.6156	867.7922	30754.3	29899.8
842.7607	869.8359	30699	29845.7
842.9058	871.8789	30645.95	29790.25
843.0509	873.9212	30594.9	29709.2
843.1961	875.9629	30480	29626.2
843.3412	878.0039	30539.55	29680.5
843.4863	880.0441	30497.2	29643.2
843.6315	882.0837	30487.6	29633.05
843.7766	884.1226	30413.1	29555.25
843.9218	886.1609	30452.55	29598.9
844.0669	888.1984	30485.7	29631.65
844.212	890.2352	30574.75	29718.9
844.3572	892.2714	30475.05	29616.1
844.5023	894.3069	30484.7	29626.25
844.6475	896.3416	30276.7	29419.2
844.7926	898.3757	30235.85	29378.4
844.9377	900.4091	30215.6	29358.05
845.0829	902.4418	30134.4	29272.85
845.228	904.4739	30040.1	29179.65
845.3732	906.5052	30020.05	29160.65
845.5183	908.5358	29980.7	29123.5
845.6635	910.5658	29903.1	29043.7
845.8086	912.595	29825.85	28966.95
845.9538	914.6236	29709	28850.15
846.0989	916.6515	29659.4	28803.25
846.2441	918.6786	29600.5	28741.5
846.3892	920.7051	29567.25	28706.2
846.5344	922.7309	29594.35	28737.65
846.6795	924.756	29451.35	28589.8
846.8246	926.7804	29436.9	28576.2
846.9698	928.8041	29213.8	28351.2
847.1149	930.8272	29255.9	28396.2
847.2601	932.8495	29094.75	28234.4
847.4052	934.8711	29138.5	28275.3
847.5504	936.892	29032.65	28172.85
847.6955	938.9123	28960	28097.2
847.8407	940.9318	28927.25	28067.6
847.9858	942.9506	28843.15	27980.75
848.131	944.9688	28743.65	27882.25
848.2761	946.9862	28663.2	27802.95
848.4213	949.003	28528.25	27666.6
848.5664	951.019	28458.3	27596.75
848.7115	953.0344	28337.75	27477.75
848.8567	955.0491	28280.95	27416.65
849.0018	957.063	28281.45	27419.4
849.147	959.0763	28290.65	27431.55
849.2921	961.0888	28179.6	27315.6
849.4373	963.1007	28197.7	27335.05
849.5824	965.1119	28191.65	27331
849.7275	967.1223	28104.9	27244.7
849.8727	969.1321	28036.45	27178.45
850.0178	971.1412	27990.8	27128.8
850.1629	973.1495	27958.65	27095.85
850.3081	975.1572	27905.7	26996.9
850.4532	977.1641	27864.7	27001.3
850.5983	979.1704	27787	26923.45
850.7435	981.1759	27712.15	26844.75
850.8886	983.1808	27672.95	26809.55
851.0337	985.1849	27630.4	26761.55
851.1788	987.1884	27532.85	26667.4
851.324	989.1911	27491.1	26622.45
851.4691	991.1932	27436.45	26570.8
851.6142	993.1945	27310.05	26447.05
851.7593	995.1951	27193.35	26327.05
851.9045	997.1951	27200.95	26330.55
852.0496	999.1943	27104.05	26239
852.1947	1001.1928	26994.6	26127.65
852.3398	1003.1906	26903.3	26039.65
852.4849	1005.1877	26875.5	26010.5
852.63	1007.1841	26786.5	25921.65
852.7751	1009.1798	26718	25854.3
852.9202	1011.1748	26616.75	25752.75
853.0653	1013.1691	26523.85	25657.15
853.2104	1015.1627	26412.2	25546.95
853.3555	1017.1556	26248.3	25384.05
853.5006	1019.1477	26159.25	25292.25
853.6457	1021.1392	25974.4	25111.5
853.7908	1023.1299	25956.9	25091.15
853.9359	1025.12	25851.75	24983.65
854.081	1027.1093	25735.45	24874.1
854.2261	1029.0979	25728.9	24865.5
854.3712	1031.0859	25576.4	24710.6
854.5163	1033.0731	25587.15	24721.7
854.6613	1035.0596	25490.95	24625.2
854.8064	1037.0454	25347.55	24480.25
854.9515	1039.0304	25305.2	24438.75
855.0965	1041.0148	25153.55	24290.1
855.2416	1042.9985	25115.65	24249.15
855.3867	1044.9814	25121.25	24257.05
855.5317	1046.9636	25004.65	24136.1
855.6768	1048.9452	24897.75	24033
855.8219	1050.926	24886.8	24020.15
855.9669	1052.9061	24828.6	23964.5
856.112	1054.8855	24771.55	23905
856.257	1056.8642	24742.95	23874.55
856.4021	1058.8421	24698.9	23827.15
856.5471	1060.8194	24634.05	23766.6
856.6921	1062.7959	24577.8	23710.35
856.8372	1064.7717	24513	23643
856.9822	1066.7469	24520.75	23650.65
857.1272	1068.7213	24414.95	23544.9
857.2723	1070.695	24408.5	23541.4
857.4173	1072.6679	24363.95	23495.2
857.5623	1074.6402	24348.8	23479.45
857.7073	1076.6117	24354.9	23480.65
857.8523	1078.5826	24283.05	23414.8
857.9973	1080.5527	24180.05	23309.8
858.1423	1082.5221	24105.7	23235.95
858.2873	1084.4908	24065.4	23198
858.4323	1086.4587	23979.5	23111.75
858.5773	1088.426	23909.2	23039.25
858.7223	1090.3925	23857.5	22985.25
858.8673	1092.3584	23812	22943.2
859.0123	1094.3235	23719.1	22852.15
859.1573	1096.2879	23661.8	22791.35
859.3022	1098.2515	23630.25	22760.05
859.4472	1100.2145	23689	22820.65
859.5922	1102.1767	23626.45	22754.4
859.7371	1104.1382	23610.5	22739
859.8821	1106.099	23596.85	22723.85
860.027	1108.0591	23584.55	22715.6
860.172	1110.0185	23593.75	22723.35
860.3169	1111.9771	23556.65	22685.05
860.4619	1113.9351	23544.75	22675.7
860.6068	1115.8923	23543.35	22672.85
860.7517	1117.8488	23477.05	22606.35
860.8967	1119.8045	23342.6	22472.7
861.0416	1121.7596	23279.55	22409
861.1865	1123.7139	23104.3	22235.3
861.3314	1125.6675	23013.3	22143.5
861.4763	1127.6204	23033.1	22164.3
861.6212	1129.5726	22953.4	22081.75
861.7661	1131.524	22931.6	22062.4
861.911	1133.4748	22901	22031.4
862.0559	1135.4248	22770.55	21899.8
862.2008	1137.3741	22708.3	21837.85
862.3457	1139.3226	22627.3	21754.8
862.4905	1141.2705	22588.4	21715.05
862.6354	1143.2176	22475.45	21599
862.7803	1145.164	22511.5	21640.6
862.9251	1147.1097	22440.75	21571.25
863.07	1149.0546	22395	21523.65
863.2148	1150.9989	22388.9	21518.55
863.3597	1152.9424	22341.65	21469.6
863.5045	1154.8852	22294.2	21422.85
863.6493	1156.8272	22273.6	21403.4
863.7942	1158.7686	22223.95	21346.3
863.939	1160.7092	22156.85	21285.5
864.0838	1162.6491	22113.25	21239.35
864.2286	1164.5883	22077.85	21207.6
864.3734	1166.5267	22060.25	21186.45
864.5182	1168.4644	22064.35	21192.5
864.663	1170.4014	22071.85	21195.05
864.8078	1172.3377	22102.7	21231.3
864.9526	1174.2732	22073.8	21200.55
865.0974	1176.2081	22174.1	21301.9
865.2421	1178.1421	22238.9	21363.1
865.3869	1180.0755	22351.35	21479.9
865.5317	1182.0082	22308.25	21437.05
865.6764	1183.9401	22291.5	21416.65
865.8212	1185.8713	22145.45	21275.7
865.9659	1187.8017	22003.1	21130.3
866.1106	1189.7315	21897.75	21026.4
866.2554	1191.6605	21690.45	20818.45
866.4001	1193.5888	21513.1	20639.3
866.5448	1195.5163	21480.95	20609.85
866.6895	1197.4432	21394.9	20520.1
866.8342	1199.3693	21318.2	20444.25
866.9789	1201.2947	21203.5	20329
867.1236	1203.2193	21121.85	20248.95
867.2683	1205.1432	21116.35	20241.45
867.413	1207.0664	21070.05	20195.95
867.5576	1208.9889	20987.5	20110.85
867.7023	1210.9106	20916.9	20045.45
867.847	1212.8316	20876.7	20005.65
867.9916	1214.7519	20855.8	19973.7
868.1363	1216.6715	20756.5	19882.25
868.2809	1218.5903	20744.5	19870.45
868.4255	1220.5084	20731.6	19857.95
868.5701	1222.4257	20733.05	19858.2
868.7148	1224.3424	20652.95	19779.6
868.8594	1226.2583	20643	19765.8
869.004	1228.1735	20622.6	19749.55
869.1486	1230.0879	20505.15	19629.15
869.2932	1232.0016	20538.15	19664.5
869.4377	1233.9146	20541.3	19664.75
869.5823	1235.8269	20498.75	19624.5
869.7269	1237.7384	20475.2	19600.75
869.8715	1239.6492	20383.8	19510.4
870.016	1241.5592	20399.85	19524.8
870.1606	1243.4686	20360	19484.9
870.3051	1245.3772	20475.5	19603.6
870.4496	1247.285	20464.85	19591
870.5941	1249.1922	20459.25	19584.8
870.7387	1251.0986	20504.7	19630.7
870.8832	1253.0042	20493.5	19619.7
871.0277	1254.9092	20570.65	19695.2
871.1722	1256.8134	20611.85	19736.7
871.3167	1258.7169	20693.85	19815.3
871.4611	1260.6196	20707.85	19834.7
871.6056	1262.5216	20732.85	19857.8
871.7501	1264.4229	20654.55	19782.65
871.8945	1266.3234	20630.05	19753.45
872.039	1268.2232	20545.85	19667.45
872.1834	1270.1223	20477.4	19600
872.3278	1272.0207	20388.75	19512.95
872.4723	1273.9183	20346.3	19463.95
872.6167	1275.8151	20289.2	19412.45
872.7611	1277.7113	20300.25	19426.05
872.9055	1279.6067	20307.55	19433.8
873.0499	1281.5014	20405.05	19527.55
873.1943	1283.3953	20577.35	19699.25
873.3386	1285.2885	20718.45	19843.85
873.483	1287.181	20847.9	19970.6
873.6274	1289.0727	20949.8	20075.7
873.7717	1290.9637	20844.5	19968.7
873.9161	1292.854	20766	19891.35
874.0604	1294.7435	20568.6	19693.1
874.2047	1296.6323	20436.35	19561.2
874.349	1298.5204	20309.5	19431.45
874.4933	1300.4077	20221	19345.5
874.6376	1302.2943	20154.85	19280.45
874.7819	1304.1802	20171.3	19297.15
874.9262	1306.0653	20059.8	19183.8
875.0705	1307.9497	20008	19132.45
875.2147	1309.8333	19949.8	19074.6
875.359	1311.7162	19926.7	19049.8
875.5032	1313.5984	19893.85	19015.6
875.6475	1315.4798	19773.5	18897
875.7917	1317.3605	19765.35	18885.9
875.9359	1319.2405	19761.1	18884.35
876.0801	1321.1197	19692.1	18813.4
876.2243	1322.9982	19637.55	18755.5
876.3685	1324.876	19575.85	18700.5
876.5127	1326.753	19418.45	18542.15
876.6569	1328.6293	19366.1	18488.15
876.801	1330.5048	19261.9	18379.95
876.9452	1332.3796	19131.85	18255.45
877.0893	1334.2537	19100.3	18196.65
877.2335	1336.127	19005.8	18129.9
877.3776	1337.9996	18920.25	18044.75
877.5217	1339.8714	18904.35	18027.3
877.6658	1341.7426	18838.65	17920.2
877.8099	1343.6129	18761.9	17887.05
877.954	1345.4826	18725.9	17849.25
878.0981	1347.3515	18722.05	17843
878.2422	1349.2196	18697.3	17818.9
878.3862	1351.087	18661.25	17786.05
878.5303	1352.9537	18615.4	17737
878.6743	1354.8197	18656.75	17781.4
878.8184	1356.6849	18638.95	17760.7
878.9624	1358.5493	18590.85	17714.45
879.1064	1360.4131	18579.85	17705.15
879.2504	1362.276	18571.75	17695.85
879.3944	1364.1383	18607.55	17729.75
879.5384	1365.9998	18566.7	17684.9
879.6823	1367.8606	18490.2	17612.4
879.8263	1369.7206	18444.55	17568
879.9702	1371.5799	18418.75	17537.85
880.1142	1373.4384	18360.5	17483.95
880.2581	1375.2962	18359.4	17481.95
880.402	1377.1533	18213	17336.4
880.5459	1379.0096	18061.85	17183.2
880.6898	1380.8652	18035.8	17158.4
880.8337	1382.7201	17941	17065.2
880.9776	1384.5742	17857.4	16979.8
881.1215	1386.4275	17747.3	16869.4
881.2653	1388.2802	17682.35	16804.2
881.4092	1390.132	17591.65	16714.25
881.553	1391.9832	17592.65	16714.55
881.6968	1393.8336	17494.35	16615.95
881.8406	1395.6832	17458.4	16579.75
881.9844	1397.5322	17398.5	16521.45
882.1282	1399.3803	17343.3	16458.1
882.272	1401.2278	17222.55	16342.7
882.4158	1403.0745	17194.95	16316.6
882.5595	1404.9204	17110.95	16234
882.7033	1406.7656	17086.7	16209.1
882.847	1408.6101	17011.45	16134.6
882.9908	1410.4538	16940	16061.05
883.1345	1412.2968	16930.9	16053.55
883.2782	1414.139	16906.4	16028.55
883.4219	1415.9805	16897.2	16020.55
883.5656	1417.8213	16822.6	15924.6
883.7092	1419.6613	16783.95	15906.55
883.8529	1421.5006	16762.3	15883.05
883.9965	1423.3391	16747.45	15867.65
884.1402	1425.1769	16729.25	15848.8
884.2838	1427.0139	16789.05	15911.55
884.4274	1428.8502	16830.55	15953.65
884.571	1430.6858	16882.3	16003.25
884.7146	1432.5206	16840.35	15963.15
884.8582	1434.3547	16816	15937.8
885.0018	1436.188	16782.7	15906.75
885.1453	1438.0206	16774.6	15896.6
885.2889	1439.8524	16667.7	15789.95
885.4324	1441.6835	16677.95	15799.85
885.5759	1443.5139	16618.2	15738.25
885.7194	1445.3435	16571.25	15692.5
885.8629	1447.1724	16575.1	15697.6
886.0064	1449.0005	16578.05	15701.55
886.1499	1450.8279	16556.15	15676.65
886.2933	1452.6545	16503.6	15622.85
886.4368	1454.4804	16515.45	15638.55
886.5802	1456.3056	16451.25	15565.1
886.7237	1458.13	16386.05	15510.1
886.8671	1459.9536	16405.5	15528.3
887.0105	1461.7766	16344.65	15465.65
887.1539	1463.5987	16259.2	15379.35
887.2972	1465.4202	16189.7	15310.3
887.4406	1467.2409	16146.75	15267.85
887.584	1469.0608	16074.65	15196.9
887.7273	1470.88	16003.65	15124.65
887.8706	1472.6984	15969.85	15091.4
888.0139	1474.5161	15859.4	14977.15
888.1572	1476.3331	15830.6	14954.3
888.3005	1478.1493	15795.65	14915.4
888.4438	1479.9648	15761.9	14883.5
888.5871	1481.7795	15742.85	14863.6
888.7303	1483.5935	15746.5	14869.9
888.8736	1485.4067	15704.4	14826.35
889.0168	1487.2192	15710	14831.7
889.16	1489.031	15678.65	14797.8
889.3032	1490.842	15641.7	14763.3
889.4464	1492.6522	15606.45	14727.85
889.5896	1494.4618	15555.15	14676.6
889.7327	1496.2705	15560	14682.7
889.8759	1498.0785	15525.3	14648.3
890.019	1499.8858	15488.15	14610.85
890.1622	1501.6924	15453.7	14576.7
890.3053	1503.4981	15445.4	14565.35
890.4484	1505.3032	15396.2	14519.85
890.5914	1507.1075	15366.8	14488.6
890.7345	1508.911	15304.55	14424.25
890.8776	1510.7138	15239.85	14361.1
891.0206	1512.5159	15230.75	14350
891.1637	1514.3172	15192.6	14314.7
891.3067	1516.1178	15117.55	14240.1
891.4497	1517.9176	15115	14234
891.5927	1519.7166	15023.15	14147.1
891.7357	1521.515	14990.4	14106
891.8786	1523.3126	14983.5	14105.55
892.0216	1525.1094	14904.7	14023.6
892.1645	1526.9055	14827.95	13951.75
892.3074	1528.7008	14789.15	13910.15
892.4503	1530.4954	14670.75	13790.5
892.5932	1532.2893	14708.9	13833.1
892.7361	1534.0824	14618.05	13735.75
892.879	1535.8747	14585.2	13708.1
893.0218	1537.6663	14529.9	13650.8
893.1647	1539.4572	14513.9	13632.7
893.3075	1541.2473	14510.95	13632.9
893.4503	1543.0367	14450.85	13574.65
893.5931	1544.8253	14395.15	13510.85
893.7359	1546.6132	14371.15	13490.45
893.8787	1548.4003	14280.1	13392.35
894.0214	1550.1867	14306.8	13420.2
894.1642	1551.9723	14270.35	13387.45
894.3069	1553.7572	14237.5	13356.9
894.4496	1555.5414	14226.3	13347.2
894.5923	1557.3247	14189	13310.65
894.735	1559.1074	14153.15	13275
894.8777	1560.8893	14152.5	13275.35
895.0204	1562.6705	14130.6	13252.25
895.163	1564.4509	14143	13265.85
895.3056	1566.2305	14088.45	13210.1
895.4482	1568.0094	14135.1	13259
895.5908	1569.7876	14109.3	13229.2
895.7334	1571.565	14069.65	13191.75
895.876	1573.3417	14053.6	13174.5
896.0186	1575.1176	13998.85	13120.95
896.1611	1576.8928	13997.25	13120.05
896.3036	1578.6672	13967.9	13091.45
896.4461	1580.4409	13934.85	13057.8
896.5886	1582.2138	13928.1	13046.85
896.7311	1583.986	13913.3	13034.9
896.8736	1585.7575	13952.3	13074.55
897.0161	1587.5282	13941.9	13065.15
897.1585	1589.2981	13951.5	13074.7
897.3009	1591.0673	13918.3	13039.7
897.4433	1592.8358	13904.85	13027.5
897.5857	1594.6035	13877.6	12998.35
897.7281	1596.3704	13798.2	12921.45
897.8705	1598.1366	13766.9	12888.75
898.0128	1599.9021	13692.5	12814.6
898.1551	1601.6668	13578.35	12698.15
898.2975	1603.4308	13488.2	12607.1
898.4398	1605.194	13493.3	12608.95
898.5821	1606.9564	13492.05	12615.25
898.7243	1608.7182	13512.7	12631.2
898.8666	1610.4791	13536.7	12658.9
899.0088	1612.2394	13620.1	12744.75
899.1511	1613.9988	13679.35	12800.8
899.2933	1615.7576	13715.05	12838.3
899.4355	1617.5156	13735.9	12851.3
899.5776	1619.2728	13713.05	12837
899.7198	1621.0293	13604.1	12727.6
899.862	1622.785	13440.6	12560.2
900.0041	1624.54	13262.2	12379
900.1462	1626.2942	13085.05	12206.35
900.2883	1628.0477	12936.05	12055.8
900.4304	1629.8005	12817.3	11933.85
900.5725	1631.5525	12700.85	11822.6
900.7145	1633.3037	12612.5	11734.1
900.8566	1635.0542	12547.7	11669.05
900.9986	1636.804	12490.1	11611.9
901.1406	1638.553	12484.8	11516.05
901.2826	1640.3013	12362.1	11483.85
901.4245	1642.0488	12282.8	11404.05
901.5665	1643.7955	12232.9	11353.9
901.7085	1645.5416	12188.5	11308.25
901.8504	1647.2868	12154.55	11276.75
901.9923	1649.0313	12105.35	11227.4
902.1342	1650.7751	12099.25	11217.4
902.2761	1652.5181	12047.25	11168.4
902.4179	1654.2604	11993.55	11113.75
902.5598	1656.0019	11986.1	11109.05
902.7016	1657.7427	11936.4	11057.55
902.8434	1659.4828	11979.3	11101.75
902.9852	1661.222	11923.85	11042.7
903.127	1662.9606	11947.55	11068.95
903.2687	1664.6984	11943.7	11064.25
903.4105	1666.4354	11972.65	11093.35
903.5522	1668.1717	11900.7	11022.5
903.6939	1669.9072	11797.75	10920.25
903.8356	1671.642	11743.35	10861.9
903.9773	1673.3761	11635.1	10757.55
904.119	1675.1094	11568.15	10690.05
904.2606	1676.8419	11490.5	10612.2
904.4022	1678.5737	11451.05	10573.25
904.5439	1680.3048	11401.1	10521.25
904.6855	1682.0351	11354.7	10476.8
904.827	1683.7646	11266.6	10384.8
904.9686	1685.4934	11201.35	10322.65
905.1101	1687.2215	11203.65	10324.5
905.2517	1688.9488	11127.8	10249.8
905.3932	1690.6754	11068.1	10190.05
905.5347	1692.4012	11072	10196.1
905.6761	1694.1263	11017.3	10139.55
905.8176	1695.8506	10999.15	10118.4
905.9591	1697.5742	10978.6	10101.45
906.1005	1699.297	10881.35	10001.55
906.2419	1701.0191	10846.55	9967.55
906.3833	1702.7404	10826.05	9949.2
906.5246	1704.461	10764.75	9885.55
906.666	1706.1808	10713.3	9833.8
906.8073	1707.8999	10717.4	9838.2
906.9487	1709.6182	10680.65	9801.8
907.09	1711.3358	10638.9	9760.65
907.2313	1713.0527	10590.3	9712.45
907.3725	1714.7688	10568.3	9685.6
907.5138	1716.4841	10523.95	9645.75
907.655	1718.1987	10528.7	9646.2
907.7962	1719.9126	10480.4	9602.85
907.9374	1721.6257	10452.7	9572.35
908.0786	1723.338	10441	9562.5
908.2198	1725.0496	10384.35	9507.15
908.3609	1726.7605	10373.3	9495.25
908.502	1728.4706	10321.75	9442.75
908.6431	1730.18	10280.7	9400.55
908.7842	1731.8886	10271.45	9393
908.9253	1733.5964	10286.9	9387.3
909.0664	1735.3036	10258.15	9377.4
909.2074	1737.0099	10224.05	9346.15
909.3484	1738.7156	10196.9	9320.8
909.4894	1740.4204	10195.1	9311.5
909.6304	1742.1246	10162.2	9282.45
909.7714	1743.8279	10157.25	9280.85
909.9123	1745.5306	10134.7	9256.3
910.0532	1747.2325	10128.2	9251.3
910.1941	1748.9336	10097.25	9218.95
910.335	1750.634	10040.95	9160.75
910.4759	1752.3336	10010.65	9132.8
910.6168	1754.0325	10021	9142.25
910.7576	1755.7307	9987.45	9109.95
910.8984	1757.4281	9976.55	9098.15
911.0392	1759.1247	9976.75	9089.55
911.18	1760.8206	9969.2	9087.8
911.3208	1762.5158	9964.45	9082.4
911.4615	1764.2102	9925	9048.05
911.6022	1765.9039	9869.55	8991.05
911.7429	1767.5968	9872.15	8993.45
911.8836	1769.289	9829.1	8950.65
912.0243	1770.9804	9817.3	8940.6
912.1649	1772.6711	9809.95	8931.35
912.3056	1774.361	9756.9	8876.75
912.4462	1776.0502	9759.85	8882.65
912.5868	1777.7386	9752.7	8871.1
912.7274	1779.4263	9724.3	8846.5
912.8679	1781.1132	9719.85	8842.05
913.0084	1782.7994	9699.95	8821.2
913.149	1784.4849	9666.5	8788.6
913.2895	1786.1696	9648.2	8752.55
913.4299	1787.8535	9636.7	8759.15
913.5704	1789.5367	9574.35	8695.4
913.7108	1791.2192	9574.25	8697.15
913.8513	1792.9009	9566.85	8669.85
913.9917	1794.5818	9531.9	8651.65
914.132	1796.2621	9512.75	8635.05
914.2724	1797.9415	9487.85	8608.45
914.4128	1799.6202	9448.75	8569.9
914.5531	1801.2982	9420.75	8543.5
914.6934	1802.9755	9394.05	8512.4
914.8337	1804.6519	9388.95	8509.4
914.9739	1806.3277	9365.95	8488.55
915.1142	1808.0027	9324.65	8448.3
915.2544	1809.6769	9340.55	8462.05
915.3946	1811.3504	9301.1	8420.65
915.5348	1813.0231	9281.1	8400.85
915.675	1814.6951	9268.2	8390.8
915.8151	1816.3664	9289.95	8407.15
915.9553	1818.0369	9263.1	8385.2
916.0954	1819.7067	9185.55	8307.9
916.2355	1821.3757	9180.6	8299.95
916.3755	1823.044	9167.75	8288.95
916.5156	1824.7115	9145.15	8265.8
916.6556	1826.3783	9104.55	8225.95
916.7956	1828.0443	9084.5	8208.25
916.9356	1829.7096	9067.6	8186.2
917.0756	1831.3741	9097.25	8214.75
917.2155	1833.0379	9065.45	8187.4
917.3555	1834.701	9032.35	8151.6
917.4954	1836.3633	8998.85	8117.8
917.6353	1838.0248	8975.8	8099.15
917.7751	1839.6856	8956.65	8078.25
917.915	1841.3457	8961.05	8081.3
918.0548	1843.005	8932.85	8055.15
918.1946	1844.6636	8923.1	8046.05
918.3344	1846.3214	8893.05	8015.65
918.4742	1847.9785	8884.4	8007.45
918.6139	1849.6349	8863.8	7982.5
918.7537	1851.2904	8865.45	7976.1
918.8934	1852.9453	8829.5	7952.05
919.0331	1854.5994	8804	7923.65
919.1727	1856.2528	8816.9	7934.85
919.3124	1857.9054	8775.4	7895.45
919.452	1859.5572	8767.4	7889.1
919.5916	1861.2083	8740.3	7860.35
919.7312	1862.8587	8736.25	7856.15
919.8708	1864.5084	8724.9	7844.95
920.0103	1866.1572	8707.7	7830.05
920.1498	1867.8054	8673.1	7793.9
920.2893	1869.4528	8655.35	7777.1
920.4288	1871.0994	8619.4	7740.15
920.5683	1872.7453	8614.6	7732.6
920.7077	1874.3905	8610.05	7724.75
920.8471	1876.0349	8554.2	7676.1
920.9865	1877.6786	8584.7	7704.85
921.1259	1879.3215	8587.9	7708.05
921.2653	1880.9637	8533.8	7652.55
921.4046	1882.6051	8534.65	7657.8
921.5439	1884.2458	8503.15	7622.45
921.6832	1885.8858	8482.7	7601.55
921.8225	1887.525	8473.6	7592.5
921.9617	1889.1634	8420.85	7544.7
922.101	1890.8011	8399.25	7520.05
922.2402	1892.4381	8406.3	7527
922.3794	1894.0743	8380.5	7502.55
922.5185	1895.7098	8362.95	7483.8
922.6577	1897.3446	8367.05	7489.35
922.7968	1898.9786	8345.75	7463
922.9359	1900.6118	8332.3	7454.75
923.075	1902.2443	8303.2	7420.95
923.214	1903.8761	8275.4	7396.6
923.3531	1905.5071	8230.45	7349.7
923.4921	1907.1374	8209.35	7331.85
923.6311	1908.7669	8205.5	7325.25
923.77	1910.3957	8186.5	7306.9
923.909	1912.0237	8142.1	7263.65
924.0479	1913.651	8132	7252.95
924.1868	1915.2776	8120.5	7241.4
924.3257	1916.9034	8071.6	7193.7
924.4646	1918.5285	8058.65	7181.5
924.6034	1920.1528	8028.1	7148.15
924.7422	1921.7764	8010.4	7132.25
924.881	1923.3992	7964.9	7085.4
925.0198	1925.0213	7952.85	7073.75
925.1586	1926.6427	7920.3	7042.8
925.2973	1928.2633	8067.05	6980.25
925.436	1929.8832	7898.15	7018.3
925.5747	1931.5023	7858.25	6978.65
925.7134	1933.1207	7849.45	6969
925.852	1934.7383	7834.35	6955
925.9906	1936.3552	7817.5	6938.6
926.1292	1937.9714	7770.2	6891.55
926.2678	1939.5868	7778.45	6898.4
926.4064	1941.2015	7721.6	6841.15
926.5449	1942.8154	7700.9	6822.35
926.6834	1944.4286	7682	6802.9
926.8219	1946.041	7667.55	6766.25
926.9604	1947.6528	7622.25	6739.2
927.0988	1949.2637	7610.8	6730.9
927.2372	1950.8739	7589.4	6709.8
927.3756	1952.4834	7560.7	6679.25
927.514	1954.0921	7566.7	6687.3
927.6523	1955.7001	7543.6	6661.75
927.7907	1957.3074	7499.95	6621.5
927.929	1958.9139	7466.25	6588.75
928.0673	1960.5197	7472.8	6592.85
928.2055	1962.1247	7426.2	6547.9
928.3438	1963.729	7416	6537.15
928.482	1965.3325	7392.65	6491.85
928.6202	1966.9353	7379.1	6502.15
928.7584	1968.5374	7355.45	6474.8
928.8965	1970.1387	7343.6	6464.75
929.0346	1971.7393	7321.45	6441.65
929.1727	1973.3392	7287.2	6406.5
929.3108	1974.9383	7270.95	6393.3
929.4489	1976.5366	7248.5	6370.35
929.5869	1978.1342	7237.55	6360.15
929.7249	1979.7311	7228.9	6350.3
929.8629	1981.3273	7222.25	6343.2
930.0009	1982.9227	7195.45	6316.4
930.1388	1984.5173	7166.1	6289.25
930.2767	1986.1112	7126.55	6249.1
930.4146	1987.7044	7126.8	6248.85
930.5525	1989.2968	7114.3	6234
930.6904	1990.8885	7115.15	6232.65
930.8282	1992.4795	7091.25	6211.65
930.966	1994.0697	7090.55	6212.9
931.1038	1995.6592	7063.8	6185.45
931.2415	1997.2479	7035.55	6156.15
931.3793	1998.8359	7006.4	6129.15
931.517	2000.4232	6980.6	6104.15
931.6547	2002.0097	6987	6111.25
931.7923	2003.5955	6937.05	6057.45
931.93	2005.1805	6945.2	6063.35
932.0676	2006.7648	6928.8	6051.7
932.2052	2008.3484	6914.6	6035.4
932.3427	2009.9312	6917.7	6037.45
932.4803	2011.5133	6865.7	5989.15
932.6178	2013.0946	6866	5988.25
932.7553	2014.6752	6855.3	5977.95
932.8928	2016.2551	6845.05	5967.05
933.0302	2017.8342	6807.9	5929.95
933.1676	2019.4126	6786	5910.55
933.305	2020.9902	6774.05	5897.85
933.4424	2022.5672	6776.35	5897.15
933.5798	2024.1433	6760.8	5876.1
933.7171	2025.7188	6722.7	5845.55
933.8544	2027.2935	6724.55	5844.95
933.9917	2028.8674	6704.5	5827.2
934.129	2030.4406	6683.55	5807
934.2662	2032.0131	6656.15	5779.35
934.4034	2033.5849	6640.85	5753.9
934.5406	2035.1559	6625.15	5747.8
934.6778	2036.7261	6615	5737.15
934.8149	2038.2957	6591.7	5712.9
934.952	2039.8645	6582.6	5702.8
935.0891	2041.4325	6599.5	5717.9
935.2262	2042.9998	6574.7	5696.15
935.3632	2044.5664	6570.55	5690.95
935.5002	2046.1323	6562.1	5685.1
935.6372	2047.6974	6536.4	5658.05
935.7742	2049.2617	6527.65	5649.75
935.9111	2050.8254	6537.2	5637.75
936.048	2052.3883	6523.8	5644.85
936.1849	2053.9504	6511.75	5631.65
936.3218	2055.5118	6473.85	5593.9
936.4586	2057.0725	6441.6	5555.95
936.5955	2058.6325	6433.15	5553.75
936.7323	2060.1917	6444.6	5562.5
936.869	2061.7502	6445.05	5563
937.0058	2063.3079	6417.75	5539.05
937.1425	2064.8649	6394.35	5511.65
937.2792	2066.4212	6386.65	5506.2
937.4159	2067.9767	6366.95	5487.4
937.5525	2069.5315	6346.05	5467.35
937.6891	2071.0856	6323.2	5443.85
937.8257	2072.6389	6291.15	5412.35
937.9623	2074.1915	6299.65	5423.55
938.0989	2075.7433	6248.6	5367.85
938.2354	2077.2945	6252.4	5375.9
938.3719	2078.8448	6245.75	5368.9
938.5084	2080.3945	6224.75	5346.7
938.6448	2081.9434	6220.9	5342.4
938.7812	2083.4916	6191.1	5311.5
938.9176	2085.039	6171	5289.9
939.054	2086.5857	6176.1	5295.8
939.1903	2088.1317	6170.3	5288.75
939.3267	2089.677	6175.35	5294.25
939.463	2091.2215	6145.5	5264.15
939.5992	2092.7652	6146.05	5264
939.7355	2094.3083	6108.7	5228.55
939.8717	2095.8506	6114.25	5236.1
940.0079	2097.3921	6115.85	5238.2
940.1441	2098.933	6095.4	5218
940.2802	2100.4731	6102.15	5225.7
940.4163	2102.0124	6097.6	5200.85
940.5524	2103.5511	6067.3	5190.9
940.6885	2105.089	6062.6	5182
940.8245	2106.6261	6044.75	5167.1
940.9606	2108.1626	6030.75	5151.25
941.0965	2109.6983	6059.75	5153.6
941.2325	2111.2332	6022.7	5143.55
941.3684	2112.7675	6006.15	5128.4
941.5044	2114.301	5981.75	5102.5
941.6403	2115.8337	5977.5	5098.75
941.7761	2117.3657	5977.2	5097.25
941.912	2118.897	5970.4	5092.6
942.0478	2120.4276	5946.95	5062.15
942.1835	2121.9575	5937.45	5059.75
942.3193	2123.4866	5930.55	5049.95
942.455	2125.0149	5936.5	5057.15
942.5907	2126.5426	5902.1	5024.5
942.7264	2128.0695	5895.55	5012.35
942.8621	2129.5956	5863.85	4989.7
942.9977	2131.1211	5870.65	4988.2
943.1333	2132.6458	5837.2	4960.4
943.2689	2134.1698	5832.75	4954.05
943.4044	2135.693	5829.3	4948.35
943.54	2137.2155	5828.5	4947.15
943.6755	2138.7373	5814.35	4934.85
943.8109	2140.2584	5801.2	4924.75
943.9464	2141.7787	5773.3	4891.65
944.0818	2143.2983	5756.5	4879.2
944.2172	2144.8171	5729.25	4853.8
944.3526	2146.3353	5729.4	4851.05
944.4879	2147.8527	5709	4833.45
944.6232	2149.3693	5692.25	4813.85
944.7585	2150.8853	5688.9	4808.4
944.8938	2152.4005	5653.9	4774.2
945.029	2153.9149	5653.95	4776.9
945.1642	2155.4287	5648.6	4770.7
945.2994	2156.9417	5639.35	4760.4
945.4346	2158.454	5609.1	4729.05
945.5697	2159.9655	5590.05	4710.7
945.7048	2161.4764	5600.4	4721.2
945.8399	2162.9865	5565.6	4688.8
945.9749	2164.4958	5565.8	4686.45
946.1099	2166.0045	5566.55	4683.9
946.2449	2167.5124	5558.5	4680.8
946.3799	2169.0195	5545.6	4668.8
946.5148	2170.526	5527.8	4650.5
946.6498	2172.0317	5518.45	4639.9
946.7846	2173.5367	5496.3	4617.5
946.9195	2175.0409	5485	4608.8
947.0543	2176.5445	5499.6	4622.6
947.1891	2178.0473	5490.15	4611.95
947.3239	2179.5494	5444.65	4563.75
947.4587	2181.0507	5447.8	4569.55
947.5934	2182.5513	5427.15	4548.8
947.7281	2184.0512	5412.25	4535.1
947.8628	2185.5504	5395.9	4517.25
947.9974	2187.0488	5375.6	4496.55
948.132	2188.5465	5373.7	4496.2
948.2666	2190.0435	5351.15	4472.5
948.4012	2191.5397	5334.95	4457.8
948.5357	2193.0353	5327.35	4449.5
948.6702	2194.5301	5288.15	4409.15
948.8047	2196.0241	5313	4435.6
948.9392	2197.5175	5267.75	4389.45
949.0736	2199.0101	5256.6	4374.15
949.208	2200.502	5248.75	4372.8
949.3424	2201.9931	5234.2	4354.05
949.4767	2203.4835	5213.55	4334.7
949.611	2204.9733	5208.05	4326.35
949.7453	2206.4622	5194.95	4318.1
949.8796	2207.9505	5176.9	4294.95
950.0138	2209.438	5158.8	4283.15
950.148	2210.9248	5152.35	4274.6
950.2822	2212.4109	5141.1	4265.05
950.4164	2213.8962	5108.55	4227.35
950.5505	2215.3809	5114.25	4234.85
950.6846	2216.8648	5095.1	4216.8
950.8186	2218.3479	5077.2	4195.35
950.9527	2219.8304	5059.8	4179.15
951.0867	2221.3121	5059	4178.7
951.2207	2222.7931	5048.7	4169.8
951.3546	2224.2733	5015.2	4135.8
951.4886	2225.7529	5006.6	4127.05
951.6225	2227.2317	4988.75	4108.6
951.7563	2228.7098	4989.65	4113.45
951.8902	2230.1872	4966.35	4087.25
952.024	2231.6638	4953.6	4074.45
952.1578	2233.1397	4936.65	4053.05
952.2916	2234.6149	4929.95	4053.35
952.4253	2236.0894	4914.95	4037.5
952.559	2237.5632	4911.8	4032.35
952.6927	2239.0362	4906.2	4029.05
952.8263	2240.5085	4877.3	3998.55
952.9599	2241.9801	4841.3	3962.65
953.0935	2243.4509	4846.6	3971.5
953.2271	2244.921	4832.6	3955
953.3606	2246.3904	4835.65	3955.95
953.4941	2247.8591	4809.4	3933.35
953.6276	2249.3271	4807.95	3931.15
953.7611	2250.7943	4790.75	3912.95
953.8945	2252.2608	4769.95	3889.3
954.0279	2253.7266	4770.85	3893.85
954.1612	2255.1917	4753	3875.5
954.2946	2256.656	4747.9	3869.65
954.4279	2258.1197	4725.85	3850.85
954.5612	2259.5826	4725.45	3846.3
954.6944	2261.0447	4719.9	3842.6
954.8276	2262.5062	4681.6	3799.9
954.9608	2263.9669	4692.25	3813.25
955.094	2265.4269	4683.6	3805.95
955.2271	2266.8862	4657.6	3779.4
955.3602	2268.3448	4651.3	3773.45
955.4933	2269.8026	4636.25	3758.55
955.6264	2271.2598	4627.75	3749.2
955.7594	2272.7162	4624	3747.65
955.8924	2274.1719	4601.8	3722.95
956.0253	2275.6268	4609.05	3730.35
956.1583	2277.0811	4586.25	3709.25
956.2912	2278.5346	4581.1	3703.7
956.4241	2279.9874	4552.75	3676.1
956.5569	2281.4395	4562.45	3683.85
956.6897	2282.8908	4531.6	3648.35
956.8225	2284.3414	4530.8	3651.6
956.9553	2285.7914	4519.1	3641.8
957.088	2287.2406	4520.2	3638.8
957.2207	2288.689	4510.75	3634.15
957.3534	2290.1368	4495.85	3615.7
957.486	2291.5838	4467.8	3588
957.6186	2293.0302	4469.75	3591.65
957.7512	2294.4758	4454.2	3576.7
957.8838	2295.9206	4439.45	3559.55
958.0163	2297.3648	4426.1	3547.05
958.1488	2298.8082	4424.85	3546.2
958.2813	2300.251	4432.4	3554.45
958.4137	2301.693	4401.2	3523.25
958.5461	2303.1343	4394	3515.35
958.6785	2304.5748	4381.25	3504.95
958.8108	2306.0147	4360.1	3482
958.9432	2307.4538	4367.25	3486.75
959.0754	2308.8922	4350.2	3474.05
959.2077	2310.3299	4341.05	3463.95
959.3399	2311.7669	4313.35	3434.5
959.4721	2313.2031	4310.85	3431.9
959.6043	2314.6387	4311	3432.65
959.7365	2316.0735	4294.85	3416.8
959.8686	2317.5076	4295.3	3418.95
960.0006	2318.941	4288.3	3411.35
960.1327	2320.3737	4272.35	3394.45
960.2647	2321.8056	4254.8	3373.25
960.3967	2323.2369	4257.6	3379.5
960.5287	2324.6674	4242.5	3363.8
960.6606	2326.0972	4220.2	3340.15
960.7925	2327.5263	4210.1	3330.6
960.9244	2328.9547	4205.9	3324.75
961.0562	2330.3823	4185.1	3306.3
961.1881	2331.8092	4188.9	3308.35
961.3198	2333.2355	4171.45	3292.5
961.4516	2334.661	4162.45	3282.05
961.5833	2336.0858	4142.65	3262.5
961.715	2337.5098	4143.5	3266.3
961.8467	2338.9332	4129.45	3252.7
961.9783	2340.3558	4124.5	3240.5
962.1099	2341.7778	4095.55	3217.7
962.2415	2343.199	4096.1	3217.1
962.373	2344.6195	4099.9	3221.9
962.5045	2346.0393	4082.55	3205.2
962.636	2347.4583	4073.1	3193.75
962.7675	2348.8767	4057.65	3177.8
962.8989	2350.2943	4053.85	3173.75
963.0303	2351.7113	4055.2	3175.8
963.1617	2353.1275	4032.9	3153.55
963.293	2354.543	4034.1	3148.35
963.4243	2355.9578	4012.35	3134.4
963.5556	2357.3718	4000.6	3123.25
963.6868	2358.7852	3981.25	3099.7
963.818	2360.1978	3977.2	3097.95
963.9492	2361.6098	3949.2	3070.8
964.0803	2363.021	3953.7	3071.85
964.2114	2364.4315	3939.6	3062.3
964.3425	2365.8413	3938.15	3054.1
964.4736	2367.2504	3915.75	3039.55
964.6046	2368.6587	3897.8	3018.65
964.7356	2370.0664	3885.55	3007
964.8666	2371.4733	3875.05	2996.6
964.9975	2372.8795	3865.55	2989.3
965.1284	2374.285	3864.05	2985.4
965.2593	2375.6899	3852.7	2973.9
965.3901	2377.0939	3830.65	2952.85
965.5209	2378.4973	3822.1	2944.9
965.6517	2379.9	3810.85	2932.65
965.7825	2381.3019	3792.8	2913.9
965.9132	2382.7032	3792.4	2914.85
966.0439	2384.1037	3787.1	2909.15
966.1745	2385.5035	3775.1	2897.05
966.3051	2386.9027	3768.05	2890.2
966.4357	2388.3011	3765.75	2884.05
966.5663	2389.6987	3746	2867.7
966.6968	2391.0957	3727.45	2850.45
966.8273	2392.492	3713.15	2835.9
966.9578	2393.8876	3701.4	2821.9
967.0882	2395.2824	3693.55	2814.65
967.2186	2396.6765	3684.3	2806.55
967.349	2398.07	3659.55	2780.5
967.4793	2399.4627	3667.25	2788.1
967.6097	2400.8547	3651	2771.35
967.7399	2402.246	3648.2	2765.45
967.8702	2403.6366	3620.5	2741.25
968.0004	2405.0265	3594.65	2717.35
968.1306	2406.4156	3603.3	2720.65
968.2607	2407.8041	3585.65	2702.5
968.3909	2409.1918	3592.05	2710
968.521	2410.5789	3570.95	2691.1
968.651	2411.9652	3565.3	2683.85
968.781	2413.3508	3541.75	2663.4
968.911	2414.7358	3541.7	2663.25
969.041	2416.12	3515.85	2637.85
969.1709	2417.5035	3521.35	2642.8
969.3008	2418.8863	3500.6	2621.5
969.4307	2420.2684	3490.95	2613.5
969.5606	2421.6497	3481.35	2601.2
969.6904	2423.0304	3457.6	2578.75
969.8201	2424.4104	3463.6	2584.75
969.9499	2425.7896	3446.45	2566.1
970.0796	2427.1682	3428.05	2548.65
970.2093	2428.546	3441	2560.95
970.3389	2429.9232	3436.25	2554.1
970.4685	2431.2996	3425.3	2548.05
970.5981	2432.6753	3421.6	2543.4
970.7277	2434.0503	3422	2543
970.8572	2435.4246	3391.5	2512.8
970.9867	2436.7982	3387.15	2504.8
971.1161	2438.1711	3375	2497.75
971.2456	2439.5433	3363.55	2483.2
971.375	2440.9148	3353.8	2469.65
971.5043	2442.2856	3327.9	2448.7
971.6336	2443.6557	3339.2	2458.3
971.7629	2445.025	3328.5	2450.15
971.8922	2446.3937	3325	2445.15
972.0214	2447.7617	3309.75	2430.4
972.1506	2449.1289	3313.05	2435.05
972.2798	2450.4955	3310.8	2428.15
972.4089	2451.8613	3290.45	2413.9
972.538	2453.2265	3283.9	2404.45
972.6671	2454.5909	3279.9	2402.05
972.7961	2455.9546	3279.6	2400
972.9251	2457.3177	3275.05	2399.6
973.0541	2458.68	3254.5	2374.15
973.1831	2460.0416	3265.4	2387.6
973.312	2461.4025	3252.15	2372.7
973.4408	2462.7627	3246.5	2354.9
973.5697	2464.1222	3238.25	2362.9
973.6985	2465.4811	3225.55	2346.45
973.8273	2466.8392	3207.85	2328.8
973.956	2468.1966	3212.7	2332.6
974.0847	2469.5533	3196.75	2314.95
974.2134	2470.9093	3200	2319.8
974.3421	2472.2645	3182.15	2300.9
974.4707	2473.6191	3170.4	2290.75
974.5993	2474.973	3150.85	2273.05
974.7278	2476.3262	3158.15	2276.75
974.8563	2477.6787	3155.45	2277.95
974.9848	2479.0305	3129.95	2248.9
975.1132	2480.3816	3131.45	2249.65
975.2417	2481.7319	3109.05	2230.7
975.37	2483.0816	3111.05	2229.5
975.4984	2484.4306	3104.65	2224.9
975.6267	2485.7789	3106.05	2229.9
975.755	2487.1264	3094.3	2213.2
975.8833	2488.4733	3077.45	2202.2
976.0115	2489.8195	3076.1	2191.8
976.1397	2491.165	3058.85	2175.05
976.2678	2492.5097	3046.85	2165.65
976.3959	2493.8538	3054.25	2175.9
976.524	2495.1972	3039	2160.15
976.6521	2496.5398	3029.35	2148.7
976.7801	2497.8818	3023.9	2143.25
976.9081	2499.2231	3005.75	2127.65
977.036	2500.5637	2997.8	2116.15
977.164	2501.9035	3000.9	2121.85
977.2918	2503.2427	2984	2101.55
977.4197	2504.5812	2983.25	2104.55
977.5475	2505.919	2970.65	2090.8
977.6753	2507.256	2957.95	2078.45
977.8031	2508.5924	2951.7	2072.85
977.9308	2509.9281	2948.15	2063.35
978.0585	2511.2631	2943	2063.7
978.1861	2512.5974	2943.95	2064.2
978.3137	2513.9309	2936.75	2058.05
978.4413	2515.2638	2943.9	2036.85
978.5689	2516.596	2919.8	2042.35
978.6964	2517.9275	2907.05	2026.85
978.8239	2519.2583	2885.3	2006.5
978.9513	2520.5884	2885.45	2003.75
979.0788	2521.9178	2886.3	2006.65
979.2062	2523.2465	2874.85	1998.05
979.3335	2524.5745	2877.05	1998.65
979.4608	2525.9018	2849.9	1971.05
979.5881	2527.2284	2843.7	1965.6
979.7154	2528.5543	2839.7	1962.8
979.8426	2529.8796	2837.1	1959.75
979.9698	2531.2041	2838.6	1959.15
980.0969	2532.5279	2828.8	1951.75
980.224	2533.851	2827.2	1947.6
980.3511	2535.1735	2807.3	1930.35
980.4781	2536.4952	2811.15	1932.25
980.6052	2537.8163	2803	1923.55
980.7321	2539.1366	2789.9	1911.6
980.8591	2540.4562	2785.4	1905.35
980.986	2541.7752	2777.7	1899.3
981.1129	2543.0935	2775.65	1897.15
981.2397	2544.411	2785.15	1903.8
981.3665	2545.7279	2773.3	1895.05
981.4933	2547.0441	2763.6	1886.65
981.62	2548.3596	2777.15	1894.2
981.7467	2549.6744	2757.75	1880.5
981.8734	2550.9885	2758.3	1868.95
982.0001	2552.3019	2753.75	1876.8
982.1267	2553.6146	2740.2	1860.45
982.2532	2554.9266	2727.7	1847.75
982.3798	2556.2379	2711.35	1828.85
982.5063	2557.5485	2721.05	1842.45
982.6327	2558.8585	2711.55	1825.5
982.7592	2560.1677	2716.15	1834.05
982.8856	2561.4762	2714.3	1834.95
983.0119	2562.7841	2707.5	1825.6
983.1383	2564.0913	2707.45	1829.7
983.2646	2565.3977	2701.9	1822
983.3908	2566.7035	2679.9	1802.5
983.517	2568.0086	2682.95	1803.45
983.6432	2569.313	2676.9	1797.85
983.7694	2570.6167	2677.65	1795.4
983.8955	2571.9197	2666.6	1789.45
984.0216	2573.222	2668.6	1786.25
984.1476	2574.5236	2669	1789.45
984.2737	2575.8246	2649.3	1769.25
984.3996	2577.1248	2654.85	1773.7
984.5256	2578.4244	2646	1767.65
984.6515	2579.7232	2642.05	1765.25
984.7774	2581.0214	2663.3	1758.2
984.9032	2582.3189	2640.7	1765.1
985.029	2583.6157	2632.95	1747.6
985.1548	2584.9118	2624.25	1746.3
985.2806	2586.2072	2619.4	1740.5
985.4063	2587.5019	2610.55	1732.2
985.5319	2588.7959	2595.35	1717.1
985.6576	2590.0893	2587.55	1707.7
985.7832	2591.3819	2597	1719.75
985.9087	2592.6739	2577.45	1700.3
986.0343	2593.9652	2575.6	1695.05
986.1597	2595.2557	2578.25	1701.9
986.2852	2596.5456	2554.05	1674.25
986.4106	2597.8348	2565.8	1687.85
986.536	2599.1234	2543.75	1666.6
986.6614	2600.4112	2543.05	1663.65
986.7867	2601.6983	2541.65	1660.25
986.912	2602.9848	2529.85	1650.25
987.0372	2604.2705	2524.75	1639.05
987.1624	2605.5556	2515.5	1638.1
987.2876	2606.84	2508.8	1628.2
987.4128	2608.1237	2506.05	1626.3
987.5379	2609.4067	2506.75	1626.95
987.6629	2610.689	2497.75	1610.65
987.788	2611.9707	2500.3	1619.7
987.913	2613.2516	2486.55	1603.15
988.0379	2614.5319	2476.8	1599.95
988.1629	2615.8115	2465	1586.05
988.2878	2617.0903	2463	1581.8
988.4126	2618.3685	2457.7	1580.95
988.5375	2619.6461	2441.1	1561.15
988.6622	2620.9229	2443.65	1565.65
988.787	2622.199	2437.3	1557.75
988.9117	2623.4745	2428.15	1547.45
989.0364	2624.7493	2415.35	1539.2
989.161	2626.0234	2416.8	1537.4
989.2857	2627.2968	2409.15	1532.9
989.4102	2628.5695	2409.1	1529.15
989.5348	2629.8415	2401.35	1524.65
989.6593	2631.1128	2382.9	1504.45
989.7837	2632.3835	2374.2	1495.6
989.9082	2633.6535	2354.8	1475.5
990.0326	2634.9228	2368.3	1490.55
990.1569	2636.1914	2365.15	1487.9
990.2812	2637.4593	2365.75	1481.55
990.4055	2638.7265	2346.6	1467.35
990.5298	2639.9931	2335.45	1456.6
990.654	2641.259	2345.3	1463.75
990.7782	2642.5242	2345.25	1466.85
990.9023	2643.7887	2326.85	1447.55
991.0264	2645.0525	2320.7	1441.25
991.1505	2646.3156	2320.5	1440.15
991.2745	2647.5781	2306.35	1427.4
991.3985	2648.8398	2299.95	1420.7
991.5225	2650.1009	2299.05	1414.25
991.6464	2651.3613	2286.85	1408.95
991.7703	2652.6211	2285.25	1405.2
991.8942	2653.8801	2271.55	1392.3
992.018	2655.1385	2278.8	1396.1
992.1418	2656.3961	2280.35	1403.95
992.2655	2657.6531	2269.35	1391.2
992.3892	2658.9094	2273.05	1393.45
992.5129	2660.1651	2263.1	1384.55
992.6366	2661.42	2254.65	1375.45
992.7602	2662.6743	2245.85	1366.7
992.8837	2663.9279	2250.6	1371.65
993.0073	2665.1808	2243.85	1363.5
993.1307	2666.433	2230.15	1351.6
993.2542	2667.6846	2231.35	1353.2
993.3776	2668.9354	2231.7	1351.15
993.501	2670.1856	2229.85	1350.9
993.6244	2671.4351	2226.1	1346.45
993.7477	2672.6839	2224.15	1345.85
993.8709	2673.9321	2218.9	1340
993.9942	2675.1795	2207.5	1327.05
994.1174	2676.4263	2203.45	1324.45
994.2405	2677.6724	2197.95	1319
994.3637	2678.9179	2191.75	1312.3
994.4868	2680.1626	2183.3	1305
994.6098	2681.4067	2179	1299.15
994.7328	2682.6501	2170.9	1292.95
994.8558	2683.8928	2175.2	1297.1
994.9788	2685.1348	2166.25	1290.9
995.1017	2686.3761	2166.2	1288.15
995.2245	2687.6168	2155	1275.8
995.3474	2688.8568	2149.35	1270.55
995.4702	2690.0961	2145.05	1267.1
995.5929	2691.3348	2131.05	1251.6
995.7156	2692.5727	2145.95	1266.85
995.8383	2693.81	2128.05	1249.05
995.961	2695.0466	2134.65	1257.65
996.0836	2696.2826	2130.95	1250.85
996.2062	2697.5178	2134.4	1254.75
996.3287	2698.7524	2116.8	1239.75
996.4512	2699.9863	2113.45	1233.15
996.5737	2701.2195	2093.1	1217.05
996.6961	2702.452	2103.35	1223.3
996.8185	2703.6839	2099.35	1220.15
996.9408	2704.9151	2076.9	1198.25
997.0631	2706.1456	2086.8	1208.65
997.1854	2707.3755	2080.4	1202.9
997.3077	2708.6046	2087.65	1207.55
997.4299	2709.8331	2076.7	1198.3
997.552	2711.0609	2068.65	1190.1
997.6742	2712.2881	2060.1	1182.4
997.7963	2713.5145	2064.55	1183.8
997.9183	2714.7403	2056.6	1179.4
998.0403	2715.9654	2043.4	1162.7
998.1623	2717.1899	2057.8	1165.85
998.2842	2718.4136	2048.85	1171.75
998.4062	2719.6367	2034.75	1156.75
998.528	2720.8591	2044.2	1159.9
998.6498	2722.0809	2025.75	1148.8
998.7716	2723.3019	2021.75	1138.6
998.8934	2724.5223	2029.55	1151.2
999.0151	2725.7421	2013.65	1136.65
999.1368	2726.9611	2018.75	1138.1
999.2584	2728.1795	2009.45	1126.35
999.38	2729.3972	1996.95	1120.3
999.5016	2730.6142	2003.75	1114.6
999.6231	2731.8306	1984.4	1105.5
999.7446	2733.0462	1985.65	1104.55
999.8661	2734.2612	1994.7	1112.2
999.9875	2735.4756	1970.75	1089.25
1000.1089	2736.6892	1960.4	1080.4
1000.2302	2737.9022	1956.25	1078.85
1000.3515	2739.1145	1956.3	1075.5
1000.4728	2740.3262	1958.05	1071.95
1000.594	2741.5372	1945.8	1070.55
1000.7152	2742.7475	1938.1	1059.3
1000.8363	2743.9571	1938.35	1059.2
1000.9575	2745.1661	1941.8	1058.3
1001.0785	2746.3744	1925.05	1044.55
1001.1996	2747.582	1919.65	1042.65
1001.3206	2748.7889	1920.6	1040.4
1001.4415	2749.9952	1919.05	1040
1001.5625	2751.2008	1912.35	1031.5
1001.6833	2752.4057	1901.15	1022
1001.8042	2753.61	1904.85	1027.8
1001.925	2754.8136	1902.05	1022.25
1002.0458	2756.0165	1893.4	1015.25
1002.1665	2757.2188	1894.2	1015.85
1002.2872	2758.4204	1883.45	1004.7
1002.4078	2759.6213	1881.55	997.45
1002.5285	2760.8215	1880.75	998.5
1002.649	2762.0211	1870.3	989.85
1002.7696	2763.22	1875.2	994.2
1002.8901	2764.4182	1861.85	983.45
1003.0106	2765.6158	1858.6	980.05
1003.131	2766.8127	1859.85	979.55
1003.2514	2768.009	1854.65	976.05
1003.3717	2769.2045	1840.55	961.1
1003.492	2770.3994	1850.05	970
1003.6123	2771.5936	1838.2	959.45
1003.7325	2772.7872	1828.15	949.35
1003.8527	2773.9801	1830.35	951.7
1003.9729	2775.1723	1839.85	943.95
1004.093	2776.3639	1828.65	951.55
1004.2131	2777.5548	1824.3	944.8
1004.3331	2778.745	1809.05	926.8
1004.4531	2779.9346	1810.9	932.15
1004.5731	2781.1235	1805.8	928.55
1004.693	2782.3117	1802.7	925.6
1004.8129	2783.4992	1796.25	917.85
1004.9328	2784.6861	1795.25	917.5
1005.0526	2785.8723	1800.3	921.85
1005.1723	2787.0579	1788.85	909.1
1005.2921	2788.2428	1785.05	907.05
1005.4118	2789.427	1778.75	901.7
1005.5314	2790.6106	1766.75	888.2
1005.651	2791.7935	1775	896.4
1005.7706	2792.9757	1764.4	888.6
1005.8902	2794.1573	1763.5	884.35
1006.0097	2795.3382	1763.45	885.45
1006.1291	2796.5184	1748	872.2
1006.2485	2797.698	1756.15	877.15
1006.3679	2798.8769	1754.15	877.5
1006.4873	2800.0551	1741.65	861.2
1006.6066	2801.2327	1737.05	857.45
1006.7258	2802.4096	1744.65	867.2
1006.8451	2803.5859	1729.6	850.45
1006.9642	2804.7615	1731.1	851.6
1007.0834	2805.9364	1734.9	856.05
1007.2025	2807.1106	1713.8	835.4
1007.3216	2808.2842	1720.85	842.05
1007.4406	2809.4572	1726.1	846.5
1007.5596	2810.6294	1723.35	842.9
1007.6785	2811.801	1724.1	845.35
1007.7975	2812.972	1717.2	841.7
1007.9163	2814.1423	1716.7	839.45
1008.0352	2815.3119	1716.05	837.45
1008.154	2816.4808	1703.85	827.75
1008.2727	2817.6491	1717.55	837.6
1008.3914	2818.8167	1721.1	845.95
1008.5101	2819.9837	1722.45	840.55
1008.6288	2821.15	1722.3	844.1
1008.7474	2822.3157	1716.15	839.25
1008.8659	2823.4807	1736.5	858.25
1008.9844	2824.645	1742.65	863.15
1009.1029	2825.8086	1746.4	869.55
1009.2214	2826.9716	1741.4	863.95
1009.3398	2828.134	1752	877.15
1009.4581	2829.2957	1771.65	895.05
1009.5764	2830.4567	1768.45	892.05
1009.6947	2831.617	1773.05	895.3
1009.813	2832.7767	1764.6	886.35
1009.9312	2833.9358	1767.25	889.2
1010.0493	2835.0941	1765.8	884.5
1010.1675	2836.2519	1760.8	885.15
1010.2855	2837.4089	1759	880.5
1010.4036	2838.5653	1741.25	863
1010.5216	2839.7211	1733.9	857.4
1010.6396	2840.8761	1738.4	859.75
1010.7575	2842.0306	1735.55	858.1
1010.8754	2843.1843	1731.4	854.3
1010.9932	2844.3374	1729.25	847.9
1011.111	2845.4899	1730.25	852.1
1011.2288	2846.6417	1726.7	847.5
1011.3465	2847.7928	1734.3	857.85
1011.4642	2848.9433	1724.8	847.15
1011.5818	2850.0931	1730.85	852
1011.6995	2851.2422	1724	846.25
1011.817	2852.3907	1725.9	847.4
1011.9345	2853.5385	1720.8	841.15
1012.052	2854.6857	1727.65	840.65
1012.1695	2855.8323	1722.45	843.75
1012.2869	2856.9781	1722.55	842.7
1012.4042	2858.1233	1721	842.55
1012.5216	2859.2679	1718.35	840.6
1012.6389	2860.4118	1721.1	843.55
1012.7561	2861.555	1727.4	844.6
1012.8733	2862.6976	1730.95	852
1012.9905	2863.8395	1726.5	848.7
1013.1076	2864.9808	1725.35	847.3
1013.2247	2866.1214	1722.5	847.1
1013.3417	2867.2614	1724.05	846.05
1013.4587	2868.4007	1719.6	841.65
1013.5757	2869.5393	1718.1	839
1013.6926	2870.6773	1714.5	834.25
1013.8095	2871.8146	1720.7	838.95
1013.9263	2872.9513	1711	829.7
1014.0431	2874.0874	1721.4	844.3
1014.1599	2875.2227	1717.9	838.5
1014.2766	2876.3574	1713	834.15
1014.3933	2877.4915	1714.75	839.75
1014.51	2878.6249	1707.5	829.8
1014.6266	2879.7577	1713.95	834.65
1014.7431	2880.8898	1721.2	833.9
1014.8596	2882.0212	1709.9	833
1014.9761	2883.152	1716.6	838.1
1015.0925	2884.2821	1710.05	833.7
1015.2089	2885.4116	1712.95	834.7
1015.3253	2886.5405	1707.3	830.1
1015.4416	2887.6686	1714.3	832.5
1015.5579	2888.7962	1701.35	826.9
1015.6741	2889.923	1701	825.6
1015.7903	2891.0493	1691.9	815.7
1015.9065	2892.1748	1689.95	811.75
1016.0226	2893.2997	1702.1	822.15
1016.1387	2894.424	1694.15	819.4
1016.2547	2895.5476	1678.75	801.25
1016.3707	2896.6706	1682.7	807.6
1016.4866	2897.7929	1676.05	798.6
1016.6025	2898.9145	1676.55	797.25
1016.7184	2900.0355	1676.15	797.65
1016.8342	2901.1559	1675.05	796.75
1016.95	2902.2756	1666.5	787.8
1017.0658	2903.3946	1664.1	787.4
1017.1815	2904.513	1665.3	783.4
1017.2971	2905.6308	1652.45	775.5
1017.4127	2906.7479	1660.35	781.4
1017.5283	2907.8643	1656.55	777.45
1017.6439	2908.9801	1653.05	776.45
1017.7594	2910.0953	1639.55	759.75
1017.8748	2911.2098	1654	774
1017.9902	2912.3236	1648.95	762.25
1018.1056	2913.4368	1651.35	770.15
1018.2209	2914.5494	1638.65	760.4
1018.3362	2915.6613	1634.7	750.65
1018.4515	2916.7725	1640.9	759.55
1018.5667	2917.8831	1627.35	748.2
1018.6819	2918.9931	1617.45	738.4
1018.797	2920.1024	1614.5	736.55
1018.9121	2921.211	1609.85	730.85
1019.0271	2922.319	1606.4	728.85
1019.1421	2923.4264	1596.65	717.55
1019.2571	2924.5331	1592.1	713.6
1019.372	2925.6391	1582.2	702.3
1019.4869	2926.7445	1591.5	714.15
1019.6017	2927.8493	1598	718.9
1019.7165	2928.9534	1591.45	713.25
1019.8313	2930.0569	1592.65	709.7
1019.946	2931.1597	1589.3	710.95
1020.0606	2932.2619	1584.8	705.8
1020.1753	2933.3634	1581	703.25
1020.2899	2934.4643	1596.85	712.75
1020.4044	2935.5645	1596.85	711.5
1020.5189	2936.6641	1592.6	711
1020.6334	2937.763	1586.2	708.75
1020.7478	2938.8613	1573.85	694.45
1020.8622	2939.959	1585.35	704.1
1020.9765	2941.056	1561.2	683.1
1021.0908	2942.1523	1559.4	681.6
1021.2051	2943.248	1542.25	663.65
1021.3193	2944.3431	1529.75	654.1
1021.4334	2945.4375	1517.1	637.9
1021.5476	2946.5313	1517.25	639.75
1021.6617	2947.6244	1507.25	628.15
1021.7757	2948.7169	1495.25	615.5
1021.8897	2949.8087	1477.8	600.35
1022.0037	2950.8999	1468.8	591.7
1022.1176	2951.9904	1456.4	579.75
1022.2315	2953.0803	1463.4	584.4
1022.3453	2954.1696	1447.8	568.6
1022.4591	2955.2582	1437.1	560.6
1022.5728	2956.3462	1442.2	565.55
1022.6865	2957.4335	1435.55	555.7
1022.8002	2958.5202	1431.7	552.95
1022.9138	2959.6062	1427.55	549.3
1023.0274	2960.6916	1427.85	549.8
1023.141	2961.7764	1420.75	543.25
1023.2545	2962.8605	1421.7	541.4
1023.3679	2963.9439	1423.35	546.9
1023.4813	2965.0267	1415.55	537.2
1023.5947	2966.1089	1430.2	527.55
1023.708	2967.1905	1408.35	532.9
1023.8213	2968.2714	1401.3	524.05
1023.9346	2969.3516	1402.6	525.2
1024.0478	2970.4312	1404.65	520.6
1024.1609	2971.5102	1391.9	514.3
1024.274	2972.5885	1392.9	516.05
1024.3871	2973.6662	1400.65	518.65
1024.5002	2974.7432	1393	516.4
1024.6132	2975.8196	1390	511.25
1024.7261	2976.8954	1380.75	503.7
1024.839	2977.9705	1384.65	508.75
1024.9519	2979.045	1386.8	510.9
1025.0647	2980.1188	1377.2	499.2
1025.1775	2981.192	1382.3	505.5
1025.2902	2982.2645	1379.9	501.05
1025.4029	2983.3364	1374.65	497.8
1025.5156	2984.4077	1373.15	494.9
1025.6282	2985.4783	1369.1	485.35
1025.7407	2986.5483	1357.2	479.65
1025.8532	2987.6177	1357.9	480.95
1025.9657	2988.6864	1349.9	471.9
1026.0782	2989.7545	1345.2	465.5
1026.1906	2990.8219	1341.7	464
1026.3029	2991.8887	1339.35	458.65
1026.4152	2992.9548	1335.5	457.35
1026.5275	2994.0204	1335.85	460.35
1026.6397	2995.0852	1322.15	446.7
1026.7519	2996.1495	1324.6	445.3
1026.864	2997.2131	1311.4	434.75
1026.9761	2998.276	1305.25	427.5
1027.0882	2999.3383	1308.8	430.4
1027.2002	3000.4	1303.7	426.5
1027.3122	3001.4611	1302.1	422.9
1027.4241	3002.5215	1295.8	418.3
1027.536	3003.5812	1298.4	419.5
1027.6478	3004.6404	1294.2	417.15
1027.7596	3005.6989	1291.65	413.4
1027.8714	3006.7567	1281.2	402.15
1027.9831	3007.8139	1302.4	403.35
1028.0947	3008.8705	1277.05	400
1028.2064	3009.9264	1281.75	400.95
1028.3179	3010.9818	1278.7	400.55
1028.4295	3012.0364	1272.3	394.25
1028.541	3013.0905	1268.05	389.7
1028.6524	3014.1439	1268.1	387.6
1028.7638	3015.1966	1264.65	386.85
1028.8752	3016.2487	1261.75	384.55
1028.9865	3017.3002	1266.8	386.4
1029.0978	3018.3511	1260.35	384.85
1029.209	3019.4013	1261.35	382.2
1029.3202	3020.4509	1258.7	381.95
1029.4314	3021.4998	1257.8	378.15
1029.5425	3022.5481	1261.65	381.8
1029.6535	3023.5958	1249.35	371.75
1029.7645	3024.6428	1252.85	371.85
1029.8755	3025.6892	1248.95	372.9
1029.9864	3026.735	1246.9	368.9
1030.0973	3027.7802	1241.05	364.75
1030.2082	3028.8247	1239.4	363
1030.319	3029.8685	1241.75	362.1
1030.4297	3030.9118	1238	358.55
1030.5404	3031.9544	1239.3	362.5
1030.6511	3032.9963	1231.8	352.55
1030.7617	3034.0376	1237.6	361.15
1030.8723	3035.0783	1229.6	350
1030.9829	3036.1184	1235.65	356.15
1031.0934	3037.1578	1231.15	354.25
1031.2038	3038.1966	1229	350.1
1031.3142	3039.2348	1230.75	355.1
1031.4246	3040.2723	1236.45	349.1
1031.5349	3041.3092	1224.35	347.6
1031.6452	3042.3455	1226.35	349.15
1031.7554	3043.3811	1218.25	340.35
1031.8656	3044.4161	1222.5	343.3
1031.9758	3045.4505	1221.05	347.3
1032.0859	3046.4842	1221.35	342.15
1032.1959	3047.5173	1216.75	340.85
1032.3059	3048.5498	1214.6	334.65
1032.4159	3049.5816	1208.95	331.85
1032.5258	3050.6128	1215.45	336.25
1032.6357	3051.6434	1212.95	334.05
1032.7455	3052.6734	1213.65	334.55
1032.8553	3053.7027	1208.9	329.85
1032.9651	3054.7314	1213.35	336.3
1033.0748	3055.7594	1208.55	332.55
1033.1845	3056.7868	1211.75	332.65
1033.2941	3057.8136	1205.35	327.25
1033.4037	3058.8398	1203.3	326.35
1033.5132	3059.8653	1208.6	331.4
1033.6227	3060.8902	1195.8	319.8
1033.7321	3061.9145	1204.2	324.45
1033.8415	3062.9381	1201	324.3
1033.9509	3063.9612	1210.15	317.35
1034.0602	3064.9835	1200.1	322.45
1034.1694	3066.0053	1195.4	316.7
1034.2787	3067.0264	1197.65	319.65
1034.3878	3068.0469	1196.7	317.8
1034.497	3069.0668	1194.05	313.85
1034.6061	3070.086	1198.2	321.55
1034.7151	3071.1046	1188.85	311
1034.8241	3072.1226	1191.85	313.9
1034.9331	3073.1399	1189.35	311.45
1035.042	3074.1567	1187.9	310.9
1035.1508	3075.1727	1189.75	309.85
1035.2597	3076.1882	1181.35	303.4
1035.3684	3077.203	1180.45	302.1
1035.4772	3078.2173	1183.05	304.1
1035.5859	3079.2308	1181.25	301.5
1035.6945	3080.2438	1178.1	297.05
1035.8031	3081.2561	1172.45	295.5
1035.9117	3082.2678	1172.55	295.3
1036.0202	3083.2789	1173.15	296.5
1036.1286	3084.2893	1167.5	289.55
1036.2371	3085.2991	1166.95	288.75
1036.3454	3086.3083	1171.35	289.4
1036.4538	3087.3169	1167.4	288.65
1036.562	3088.3248	1161.7	283.3
1036.6703	3089.3321	1160.25	280.15
1036.7785	3090.3388	1156.5	278.2
1036.8866	3091.3449	1155.45	279.6
1036.9948	3092.3503	1159.85	282.75
1037.1028	3093.3551	1155.85	279.75
1037.2108	3094.3593	1155.2	277.25
1037.3188	3095.3629	1149.55	270.6
1037.4267	3096.3658	1154.1	275.95
1037.5346	3097.3681	1149.85	270.6
1037.6425	3098.3698	1147.55	269.75
1037.7503	3099.3708	1153.85	270.1
1037.858	3100.3713	1142.75	264.3
1037.9657	3101.3711	1141.75	263.2
1038.0734	3102.3702	1278.35	264.85
1038.181	3103.3688	1137.9	260.55
1038.2886	3104.3667	1138.05	261.75
1038.3961	3105.364	1136.1	259.5
1038.5036	3106.3607	1142	263.1
1038.611	3107.3568	1133.05	253.55
1038.7184	3108.3522	1136.1	259.45
1038.8257	3109.347	1135	256.8
1038.933	3110.3412	1133	250.1
1039.0403	3111.3348	1134.5	256.6
1039.1475	3112.3277	1125.6	247.55
1039.2547	3113.32	1122.7	246.3
1039.3618	3114.3117	1124.7	246.4
1039.4689	3115.3028	1118.2	239.3
1039.5759	3116.2932	1116.75	239.75
1039.6829	3117.2831	1127.35	243.75
1039.7898	3118.2723	1116.7	240.2
1039.8967	3119.2608	1115.25	238.5
1040.0035	3120.2488	1117.1	239.65
1040.1103	3121.2361	1112.1	234.35
1040.2171	3122.2229	1115.05	236.15
1040.3238	3123.209	1109.8	229.45
1040.4305	3124.1944	1103.9	226.95
1040.5371	3125.1793	1109.4	230.45
1040.6437	3126.1635	1104.5	226.3
1040.7502	3127.1471	1101.25	224.4
1040.8567	3128.1301	1104.1	227.6
1040.9631	3129.1125	1102.75	226.55
1041.0695	3130.0942	1102.1	226
1041.1759	3131.0753	1105.55	219.2
1041.2822	3132.0558	1104.95	224.6
1041.3884	3133.0357	1100.15	224.15
1041.4946	3134.015	1098.4	221.75
1041.6008	3134.9936	1097.65	217.5
1041.7069	3135.9716	1115.5	215.4
1041.813	3136.949	1093.85	217.7
1041.919	3137.9258	1100.45	217.5
1042.025	3138.902	1098.75	216.15
1042.1309	3139.8775	1092.3	212.9
1042.2368	3140.8524	1093.2	214.65
1042.3427	3141.8267	1095.2	216.3
1042.4485	3142.8004	1086.1	209.35
1042.5542	3143.7735	1096.45	212.7
1042.6599	3144.7459	1093.55	216.65
1042.7656	3145.7178	1088.15	208.8
1042.8712	3146.689	1083.4	206.1
1042.9768	3147.6596	1084.05	204.15
1043.0823	3148.6295	1089.15	210.55
1043.1878	3149.5989	1084.2	206.1
1043.2932	3150.5676	1081	204.35
1043.3986	3151.5357	1079.6	203.7
1043.5039	3152.5032	1077.65	201.2
1043.6092	3153.4701	1081.85	206
1043.7145	3154.4364	1076.9	197.8
1043.8197	3155.402	1071.35	194.15
1043.9248	3156.367	1078.35	199.95
1044.03	3157.3315	1111.7	196.65
1044.135	3158.2952	1071.15	193.65
1044.24	3159.2584	1070.7	192.5
1044.345	3160.221	1069.95	191.1
1044.4499	3161.1829	1071.9	193.35
1044.5548	3162.1442	1068.25	191.75
1044.6596	3163.105	1068.95	192.6
1044.7644	3164.065	1061.1	183.1
1044.8692	3165.0245	1066.4	185.35
1044.9739	3165.9834	1061.95	186.65
1045.0785	3166.9416	1063.1	186
1045.1831	3167.8993	1062.5	183.2
1045.2877	3168.8563	1058.6	182.95
1045.3922	3169.8127	1059.4	182.05
1045.4966	3170.7684	1061.95	185.45
1045.6011	3171.7236	1057.95	178.85
1045.7054	3172.6782	1059.05	180.2
1045.8098	3173.6321	1056.1	180.15
1045.914	3174.5854	1059.2	176.35
1046.0183	3175.5381	1055.5	178.3
1046.1224	3176.4902	1048.85	170.3
1046.2266	3177.4417	1047.9	171.35
1046.3307	3178.3926	1054.2	179.3
1046.4347	3179.3428	1047.8	171.95
1046.5387	3180.2924	1047.25	171.15
1046.6427	3181.2415	1048.9	170.45
1046.7466	3182.1899	1050.25	171.25
1046.8504	3183.1377	1046.75	169.25
1046.9542	3184.0848	1048.05	169.05
1047.058	3185.0314	1046.05	169.85
1047.1617	3185.9773	1044.9	165.5
1047.2654	3186.9227	1043.2	165.25
1047.369	3187.8674	1041.75	162.3
1047.4726	3188.8115	1041.95	158.15
1047.5761	3189.755	1039.9	164.2
1047.6796	3190.6979	1041.35	162.15
1047.783	3191.6402	1035.5	159.45
1047.8864	3192.5818	1035.45	159.1
1047.9898	3193.5229	1042.1	159.45
1048.0931	3194.4633	1035.45	157.85
1048.1963	3195.4031	1035.4	156.5
1048.2995	3196.3423	1036.65	158.45
1048.4027	3197.2809	1033.3	154.8
1048.5058	3198.2189	1031.15	151.6
1048.6089	3199.1563	1037.05	152.8
1048.7119	3200.0931	1031.6	156.7
1048.8148	3201.0292	1028.8	151.1
1048.9178	3201.9648	1027.1	150.05
1049.0206	3202.8997	1036.15	156.05
1049.1235	3203.834	1027.75	150
1049.2262	3204.7677	1026.35	148.6
1049.329	3205.7008	1027.75	147.7
1049.4317	3206.6333	1025.3	149.7
1049.5343	3207.5652	1024.4	145.2
1049.6369	3208.4964	1022.05	144.05
1049.7394	3209.4271	1021	144.25
1049.8419	3210.3571	1023.9	144.25
1049.9444	3211.2865	1021.7	144.05
1050.0468	3212.2154	1021.25	142.25
1050.1491	3213.1436	1026.55	146.05
1050.2514	3214.0712	1022.6	138.45
1050.3537	3214.9982	1017.25	139.7
1050.4559	3215.9246	1019.25	143.8
1050.5581	3216.8503	1017.1	140.7
1050.6602	3217.7755	1015.95	138.5
1050.7623	3218.7001	1011.2	132.2
1050.8643	3219.624	1016	139.65
1050.9663	3220.5473	1019.8	142.4
1051.0682	3221.4701	1014.55	134.55
1051.1701	3222.3922	1018.3	138.4
1051.2719	3223.3137	1013.8	133.45
1051.3737	3224.2346	1010.9	132.25
1051.4754	3225.1549	1012.45	137.9
1051.5771	3226.0746	1011.85	135.15
1051.6788	3226.9937	1011.45	133.55
1051.7804	3227.9121	1008.65	132.7
1051.8819	3228.83	1008.9	131.85
1051.9834	3229.7473	1009.95	132.65
1052.0849	3230.6639	1006.6	129.65
1052.1863	3231.5799	1009.35	131.45
1052.2876	3232.4954	1006.55	128.85
1052.3889	3233.4102	1004.55	127.05
1052.4902	3234.3244	1004.85	126.6
1052.5914	3235.238	1002.85	125.35
1052.6926	3236.151	1028.95	125.5
1052.7937	3237.0634	998.95	124.7
1052.8948	3237.9752	997.55	119.95
1052.9958	3238.8864	1000.6	121.5
1053.0968	3239.797	997.25	119
1053.1977	3240.7069	1000.55	121.85
1053.2986	3241.6163	998.15	120.65
1053.3994	3242.5251	999	123.1
1053.5002	3243.4332	996.05	120.55
1053.6009	3244.3408	996.4	118.2
1053.7016	3245.2477	999.45	122.95
1053.8022	3246.154	992.6	113.2
1053.9028	3247.0598	996.35	117.7
1054.0034	3247.9649	992.2	117.6
1054.1039	3248.8694	992.2	113.65
1054.2043	3249.7733	994.1	117.15
1054.3047	3250.6766	988.35	110.05
1054.4051	3251.5793	988.8	109.25
1054.5054	3252.4814	990.75	113.85
1054.6056	3253.3829	990.25	114.05
1054.7058	3254.2838	991.05	113.85
1054.806	3255.1841	987	110.4
1054.9061	3256.0838	985.05	109.2
1055.0061	3256.9829	983.3	106.75
1055.1062	3257.8814	984.6	104.95
1055.2061	3258.7792	989.3	109.55
1055.306	3259.6765	986.55	109
1055.4059	3260.5731	978.75	101.2
1055.5057	3261.4692	981.3	103.65
1055.6055	3262.3647	983.6	105.1
1055.7052	3263.2595	975.3	97.35
1055.8049	3264.1538	973.55	97.3
1055.9045	3265.0474	974.05	95.95
1056.0041	3265.9404	972.65	94.75
1056.1036	3266.8329	970.55	94.9
1056.2031	3267.7247	980.15	91.55
1056.3025	3268.616	963.75	87.95
1056.4019	3269.5066	965.05	85.9
1056.5013	3270.3966	968.4	89.6
1056.6005	3271.286	958	82.05
