Software Version:	3.9.2.0
Unit SN:	10000200
Spectrometer SN:	6960
Date:	3/6/2024 9:26:43 AM
Data Line Index:	25
Spectral Points:	2048
Integration time (ms):	125
Averages:	20
Delay (ms):	30
Sequence Number:	1
Processing:	dark subtract
Laser Power (mW):	300
Laser Current (mA):	815
Laser Diode Temp (C):	25
Laser Case Temp (C):	23
System Temp (C):	22.8
Spectrometer Temp (C):	20.7
CCD Temp (C):	-0.032
Secondary Temp (C):	20.001
Heatsink Temp (C):	17.549
CCDPCB Temp (C):	29.437
SecondaryPCB Temp (C):	25.113

Wavelength	RamanShift	Raw Counts	Dark Subtracted
787.061	30.1047	570.15	162.95
787.2016	32.3739	575.25	169.95
787.3422	34.6426	589.45	182.8
787.4828	36.9109	598.75	191.6
787.6235	39.1787	612.85	200
787.7642	41.4461	631.25	213.8
787.9049	43.7131	645.95	226.4
788.0456	45.9796	661	238.5
788.1863	48.2456	681.1	255.4
788.3271	50.5112	697.5	266.9
788.4679	52.7764	714.45	280.1
788.6087	55.0411	734.95	297.3
788.7496	57.3054	753.95	311.3
788.8904	59.5692	775.8	331.55
789.0313	61.8326	804.15	357.75
789.1722	64.0955	831.35	383.55
789.3132	66.3579	865.3	410.65
789.4541	68.6199	901.25	444.2
789.5951	70.8815	977.3	514.45
789.7361	73.1426	1132.1	664.25
789.8771	75.4032	1521.5	1053.7
790.0181	77.6634	2494	2021.4
790.1592	79.9231	4873.9	4400.45
790.3003	82.1824	10102.95	9623.65
790.4414	84.4412	19322.15	18835.9
790.5825	86.6995	32719.3	32226.45
790.7237	88.9574	44604.95	44106.7
790.8648	91.2148	53125.6	52623.45
791.006	93.4717	55390.9	54884.9
791.1472	95.7282	56667.8	56159.75
791.2885	97.9842	57464.3	56955.3
791.4297	100.2398	57482.1	56969.7
791.571	102.4949	57686.1	57171.35
791.7123	104.7495	57853.2	57333.35
791.8536	107.0036	57630.8	57109.5
791.9949	109.2573	58499.35	57980
792.1363	111.5105	58144	57622.85
792.2777	113.7632	58325.8	57802.45
792.4191	116.0154	58783.45	58251.45
792.5605	118.2672	59393.1	58865.85
792.7019	120.5185	59475.45	58946.6
792.8434	122.7693	59545.85	59014.15
792.9849	125.0197	58733.3	58197
793.1264	127.2696	60444.5	59904.1
793.2679	129.519	60066.1	59523
793.4094	131.7679	60902.95	60356.9
793.551	134.0163	59490.9	58943.1
793.6926	136.2642	60194.45	59641.9
793.8342	138.5117	61212.45	60656.65
793.9758	140.7587	60936.7	60382.25
794.1175	143.0052	60987.1	60427.85
794.2591	145.2512	60252.05	59692.8
794.4008	147.4967	61345.3	60784.15
794.5425	149.7417	61153.4	60589
794.6842	151.9863	61133	60564.1
794.826	154.2304	60808.75	60236.8
794.9677	156.4739	61080.55	60501.65
795.1095	158.717	62044.1	61466
795.2513	160.9596	61578.3	60996.75
795.3931	163.2017	60919.15	60334.9
795.535	165.4433	61904.25	61317.7
795.6768	167.6844	61498.5	60910.35
795.8187	169.925	62094.15	61499.4
795.9606	172.1651	61619.15	61022.4
796.1025	174.4047	62224.3	61624.9
796.2445	176.6439	62084.9	61483.9
796.3864	178.8825	61740.3	61136
796.5284	181.1206	62798.1	62188.75
796.6704	183.3582	62604.7	61992.7
796.8124	185.5954	62467.75	61855.05
796.9544	187.832	62519.45	61900.05
797.0965	190.0681	61989.9	61369.75
797.2386	192.3037	62948.9	62326.7
797.3806	194.5388	63901.2	63273.55
797.5228	196.7734	61704.65	61077.5
797.6649	199.0075	63924.3	63295.25
797.807	201.2411	63063.8	62435.1
797.9492	203.4742	64198.05	63566.25
798.0914	205.7068	63854.35	63218.4
798.2336	207.9389	63839.05	63201.3
798.3758	210.1704	63757.2	63127
798.518	212.4015	64440.55	63821.9
798.6603	214.632	63711.4	63096.2
798.8025	216.862	64561.75	63947.85
798.9448	219.0915	63931.85	63317
799.0871	221.3205	64008.5	63386.9
799.2294	223.549	64689.3	64076.5
799.3718	225.777	64553	63936.25
799.5141	228.0044	64976.95	64353.05
799.6565	230.2314	64601.25	63975.75
799.7989	232.4578	64599.6	63966.9
799.9413	234.6837	64729.35	64091.1
800.0837	236.909	65462.95	64823.4
800.2262	239.1339	64203.5	63539.85
800.3687	241.3582	64997.15	64348
800.5111	243.582	65094.4	64413.75
800.6536	245.8053	65009.05	64342.2
800.7961	248.0281	65192.05	64530.65
800.9387	250.2503	65295.05	64631.55
801.0812	252.472	64838.75	64173.8
801.2238	254.6932	65279.2	64612.4
801.3664	256.9139	65077.45	64409.35
801.509	259.134	65512.65	64839.7
801.6516	261.3536	65076.45	64407.55
801.7942	263.5727	65339.8	64667.95
801.9369	265.7912	65221.3	64550.45
802.0795	268.0092	65331.75	64658.05
802.2222	270.2267	65420.35	64747.7
802.3649	272.4436	65100.5	64425.7
802.5076	274.6601	65428.6	64743.95
802.6504	276.8759	65481.95	64797.5
802.7931	279.0913	65366.6	64683.95
802.9359	281.3061	65480.5	64797.95
803.0787	283.5204	65447.45	64761.65
803.2215	285.7341	65462.1	64772.35
803.3643	287.9473	65519.45	64819.85
803.5071	290.16	65465.95	64773.35
803.6499	292.3721	65464.4	64777.95
803.7928	294.5837	65417.15	64729.5
803.9357	296.7947	65235.75	64547.35
804.0786	299.0052	65514.15	64825.05
804.2215	301.2152	65468.45	64773.85
804.3644	303.4246	65501.3	64809.2
804.5074	305.6334	65521.55	64829.35
804.6503	307.8418	65439.5	64745.25
804.7933	310.0495	65394.25	64696.95
804.9363	312.2568	65438.3	64740.65
805.0793	314.4635	65439.7	64741.8
805.2223	316.6696	65512.65	64809.9
805.3653	318.8752	65528	64816.5
805.5084	321.0802	65156.4	64454.4
805.6514	323.2847	65453.15	64748.25
805.7945	325.4887	65391.2	64685.9
805.9376	327.692	65372.9	64666.65
806.0807	329.8949	65453.75	64744.1
806.2238	332.0972	65416.05	64704.6
806.367	334.2989	65477.85	64764.25
806.5101	336.5001	65518.35	64804.65
806.6533	338.7007	65277.7	64562.9
806.7965	340.9008	65472.6	64758.4
806.9397	343.1003	65491	64772.75
807.0829	345.2992	65518.8	64799.1
807.2261	347.4976	65437.5	64718.65
807.3693	349.6955	65490.7	64765.65
807.5126	351.8927	65396.25	64669.1
807.6559	354.0895	65484.55	64747.65
807.7991	356.2856	65489.1	64760.65
807.9424	358.4812	65528.65	64800.1
808.0857	360.6763	65343.45	64613.25
808.2291	362.8707	65534.05	64802.2
808.3724	365.0646	65450.9	64717.45
808.5158	367.258	65458.35	64721.05
808.6591	369.4508	65273.25	64530.95
808.8025	371.643	65525.75	64786.95
808.9459	373.8346	65437.95	64694.6
809.0893	376.0257	65475.7	64731.95
809.2327	378.2162	65461.15	64717.65
809.3762	380.4062	65128.85	64384.25
809.5196	382.5956	65460.65	64719.7
809.6631	384.7844	65405.55	64667.45
809.8066	386.9726	65492.85	64754
809.9501	389.1603	65458.45	64721
810.0936	391.3474	65367.45	64583.8
810.2371	393.5339	65459.35	64718.45
810.3806	395.7199	65137.8	64399.95
810.5241	397.9052	65247.7	64512.7
810.6677	400.09	65361.15	64621.45
810.8113	402.2743	65507.95	64767.4
810.9548	404.4579	65226	64485.6
811.0984	406.641	65307.2	64562.65
811.2421	408.8235	65390.95	64644.65
811.3857	411.0054	65427.05	64677.3
811.5293	413.1868	65452.25	64699.45
811.673	415.3675	65319	64564.15
811.8166	417.5477	65320.1	64564.5
811.9603	419.7273	65347.9	64588.2
812.104	421.9064	65291.25	64524.95
812.2477	424.0848	65291.2	64529.4
812.3914	426.2627	65478.5	64717.7
812.5351	428.4399	65240.2	64477.4
812.6788	430.6166	64633.2	63866.8
812.8226	432.7928	65298.65	64530.9
812.9663	434.9683	64951.7	64184.45
813.1101	437.1432	64846.75	64078.45
813.2539	439.3176	65288.35	64520.5
813.3977	441.4914	64591.05	63821.75
813.5415	443.6645	64746.3	63978.1
813.6853	445.8371	64920.35	64150.95
813.8291	448.0091	64582.5	63814.6
813.973	450.1806	64311.5	63543.5
814.1168	452.3514	64528.85	63755.2
814.2607	454.5216	63959.3	63178.75
814.4046	456.6913	64530.65	63754.95
814.5485	458.8603	64731.5	63956.65
814.6924	461.0288	63954.85	63180.9
814.8363	463.1967	64590.75	63818.1
814.9802	465.3639	64394.05	63621.95
815.1241	467.5306	63306.25	62530.7
815.2681	469.6967	64003.95	63228.2
815.412	471.8622	64388.25	63612.7
815.556	474.0271	63905.4	63128.9
815.7	476.1914	64044.95	63265.9
815.844	478.3551	64054.3	63273.85
815.988	480.5182	64758.85	63977.6
816.132	482.6807	63685.4	62905.45
816.276	484.8426	63714.35	62935.9
816.4201	487.0039	64510.05	63730.1
816.5641	489.1647	64438.5	63657.55
816.7082	491.3248	63387.85	62605.9
816.8522	493.4843	64486.8	63704.5
816.9963	495.6432	64478.15	63695.1
817.1404	497.8015	63372.75	62586.3
817.2845	499.9592	64070.95	63287.25
817.4286	502.1163	63965.8	63176.45
817.5727	504.2728	63927.5	63139.85
817.7168	506.4287	63828.6	63041.9
817.861	508.5839	63463.7	62674.3
818.0051	510.7386	63910.85	63122.2
818.1493	512.8927	63955.05	63159.6
818.2935	515.0461	63791.2	63002.25
818.4377	517.199	64208.25	63417.45
818.5818	519.3512	63588.85	62796.95
818.726	521.5029	63708.8	62910.95
818.8703	523.6539	63748.6	62954.55
819.0145	525.8043	62955.9	62159.85
819.1587	527.9541	63669.25	62872.5
819.303	530.1033	63610.4	62814.65
819.4472	532.2519	63209.9	62410.3
819.5915	534.3999	63858.8	63059.9
819.7357	536.5472	63985.4	63190.4
819.88	538.694	62779.4	61984.05
820.0243	540.8401	63258.55	62461.4
820.1686	542.9856	63363.55	62562.85
820.3129	545.1305	63800.45	63002.7
820.4572	547.2748	63007.45	62208.65
820.6016	549.4185	62960.7	62156.3
820.7459	551.5615	63667.95	62867.95
820.8902	553.704	63436.85	62633.6
821.0346	555.8458	62995	62195.45
821.1789	557.987	63086	62285.4
821.3233	560.1276	63285.2	62483
821.4677	562.2675	62966.35	62168.75
821.6121	564.4069	63107.1	62306.95
821.7565	566.5456	63470.7	62669
821.9009	568.6837	62561.25	61757.4
822.0453	570.8212	63011.4	62208
822.1897	572.958	61869.75	61063.45
822.3342	575.0942	62921.8	62118.55
822.4786	577.2299	62317.8	61510.6
822.6231	579.3648	62094.35	61289.8
822.7675	581.4992	61927.05	61119.95
822.912	583.6329	61785.75	60981.45
823.0565	585.766	61739.3	60932.3
823.201	587.8985	62068.65	61262
823.3454	590.0304	60861.85	60028.45
823.4899	592.1616	61862.1	61049.25
823.6345	594.2922	61375.1	60566.2
823.779	596.4222	60701.15	59888.5
823.9235	598.5515	60934.35	60122.25
824.068	600.6802	61473.35	60662.9
824.2126	602.8083	60451.8	59639.65
824.3571	604.9358	60403.75	59589.5
824.5017	607.0626	61244.2	60429.15
824.6462	609.1888	59865.5	59047.95
824.7908	611.3144	60624.8	59809.65
824.9354	613.4393	60206.75	59391.2
825.08	615.5636	59669.2	58853.3
825.2246	617.6873	60358	59544.85
825.3692	619.8103	59528.05	58711.65
825.5138	621.9327	60533.6	59712.9
825.6584	624.0544	60575.5	59759.3
825.803	626.1756	59998.3	59180.25
825.9477	628.2961	59968.4	59149.9
826.0923	630.4159	59503.3	58685.25
826.237	632.5351	59261.6	58445.15
826.3816	634.6537	60763.7	59944
826.5263	636.7716	59157.65	58333.95
826.6709	638.8889	59486.1	58665.45
826.8156	641.0056	59346.8	58526.55
826.9603	643.1216	59605	58783.8
827.105	645.237	59878.3	59054.5
827.2497	647.3518	58987.15	58162.6
827.3944	649.4659	59251.4	58428.9
827.5391	651.5793	59306.25	58483.6
827.6838	653.6922	59519.75	58699.25
827.8285	655.8043	58490.6	57668.1
827.9733	657.9159	59820.15	58995.6
828.118	660.0268	57606.6	56780.3
828.2627	662.137	58762.35	57937.9
828.4075	664.2466	58931.95	58105.15
828.5522	666.3556	58414.5	57588.45
828.697	668.4639	58719.35	57888.8
828.8418	670.5716	58238.35	57412.3
828.9865	672.6786	58596.95	57768.5
829.1313	674.785	57798.95	56968.75
829.2761	676.8907	57910.95	57079.75
829.4209	678.9958	58108.95	57283.1
829.5657	681.1002	58310.95	57479.1
829.7105	683.204	57593.75	56757.8
829.8553	685.3072	57309.05	56477.3
830.0001	687.4097	57520.85	56691.95
830.1449	689.5115	57362.75	56531.25
830.2898	691.6127	57826.2	56997.2
830.4346	693.7132	57223.1	56390.8
830.5794	695.8131	57403.75	56548.75
830.7243	697.9123	57389.8	56554
830.8691	700.0109	57588.9	56755.5
831.014	702.1089	56715.05	55884.3
831.1588	704.2061	57056.1	56221.95
831.3037	706.3028	57138.4	56304.8
831.4486	708.3987	57109	56275.9
831.5935	710.4941	56778.5	55943.95
831.7383	712.5887	57147.75	56314.25
831.8832	714.6827	56814.25	55976.95
832.0281	716.7761	57125.4	56291.3
832.173	718.8688	57024.2	56187.05
832.3179	720.9608	56471.35	55633.15
832.4628	723.0522	56571.3	55733
832.6077	725.1429	56051.25	55212.1
832.7527	727.233	57373	56533.3
832.8976	729.3224	55688.85	54850.7
833.0425	731.4112	56198.3	55359.85
833.1874	733.4993	56269.5	55430.05
833.3324	735.5867	56240.55	55400.15
833.4773	737.6735	55939.05	55099.35
833.6222	739.7596	55532.55	54692.7
833.7672	741.845	55493.35	54652.55
833.9122	743.9298	55794.85	54954.3
834.0571	746.014	55352.05	54511.4
834.2021	748.0974	55028.75	54187.15
834.347	750.1802	55609.35	54767.7
834.492	752.2624	54597.65	53757.3
834.637	754.3439	54719.65	53879.25
834.782	756.4247	54814.7	53962.75
834.9269	758.5048	54307.2	53465.55
835.0719	760.5843	54368.5	53525.85
835.2169	762.6631	54331.1	53485.4
835.3619	764.7413	54207.3	53366.35
835.5069	766.8188	54155.05	53309.65
835.6519	768.8956	54168.8	53324.1
835.7969	770.9718	54073.15	53230.15
835.9419	773.0473	53915.6	53070
836.0869	775.1221	53625.7	52783.75
836.232	777.1962	53508.65	52664.15
836.377	779.2697	53248.9	52403.6
836.522	781.3426	53356.95	52499
836.667	783.4147	53363.5	52515.4
836.8121	785.4862	53205.05	52361.2
836.9571	787.557	52991.4	52144.8
837.1021	789.6271	53147.5	52301.35
837.2472	791.6966	52755.6	51909.05
837.3922	793.7654	52471	51624.55
837.5373	795.8335	52516.75	51672.05
837.6823	797.901	52406.65	51560.8
837.8274	799.9678	52268.2	51420.25
837.9724	802.0339	52142.45	51295.15
838.1175	804.0993	52143.6	51285.55
838.2626	806.1641	51900.4	51051.15
838.4076	808.2282	51782.2	50933.95
838.5527	810.2916	51771.05	50919.3
838.6978	812.3544	51745.15	50898.9
838.8428	814.4164	51443.15	50596.2
838.9879	816.4778	51550	50699.4
839.133	818.5385	51350.75	50502
839.2781	820.5986	51335.05	50485.85
839.4232	822.658	51378.05	50526.75
839.5682	824.7166	51262	50412.5
839.7133	826.7747	51189.55	50339.35
839.8584	828.832	51238.25	50388.15
840.0035	830.8886	51187.3	50336.15
840.1486	832.9446	51171.45	50318.15
840.2937	834.9999	50741.5	49891.5
840.4388	837.0545	50847.2	49991.95
840.5839	839.1085	50741.1	49887
840.729	841.1618	50609.05	49753.75
840.8741	843.2143	50332.15	49480.35
841.0192	845.2662	50218.25	49367.05
841.1643	847.3175	50181.45	49331.25
841.3095	849.368	49938.5	49084.35
841.4546	851.4179	49960.95	49107.65
841.5997	853.467	49688.95	48836.6
841.7448	855.5155	49701.35	48848.85
841.8899	857.5633	49609.25	48755.25
842.0351	859.6105	49465.65	48613.1
842.1802	861.6569	49405.95	48553.6
842.3253	863.7027	49201.45	48346.8
842.4704	865.7478	49235.45	48381.55
842.6156	867.7922	49215.85	48363.85
842.7607	869.8359	49137.65	48282.95
842.9058	871.8789	48962.75	48107.65
843.0509	873.9212	48944.7	48056.4
843.1961	875.9629	48724.2	47869.65
843.3412	878.0039	48730.35	47874.85
843.4863	880.0441	48656.4	47801.7
843.6315	882.0837	48667.85	47810.4
843.7766	884.1226	48665.65	47808.05
843.9218	886.1609	48602.75	47744.9
844.0669	888.1984	48589.2	47735.3
844.212	890.2352	48744.15	47890.35
844.3572	892.2714	48451.85	47590.8
844.5023	894.3069	48465.55	47607.95
844.6475	896.3416	48236.95	47378.85
844.7926	898.3757	48192.15	47336.1
844.9377	900.4091	48059.55	47202
845.0829	902.4418	48002.6	47139.15
845.228	904.4739	47835.95	46976.5
845.3732	906.5052	47892	47032.55
845.5183	908.5358	47788.05	46933.4
845.6635	910.5658	47579	46718.5
845.8086	912.595	47554	46696.15
845.9538	914.6236	47316.4	46460.35
846.0989	916.6515	47426.5	46571.25
846.2441	918.6786	47114	46253.35
846.3892	920.7051	47097.55	46236.65
846.5344	922.7309	47106.2	46247.7
846.6795	924.756	46945.25	46086.75
846.8246	926.7804	46899.35	46038.65
846.9698	928.8041	46458.6	45596.45
847.1149	930.8272	46592.65	45733.85
847.2601	932.8495	46387.15	45525.75
847.4052	934.8711	46358.2	45498.05
847.5504	936.892	46151.55	45290.6
847.6955	938.9123	46001.85	45140.25
847.8407	940.9318	45894.7	45035.15
847.9858	942.9506	45788.25	44926.3
848.131	944.9688	45709.55	44847.65
848.2761	946.9862	45517.2	44655.05
848.4213	949.003	45329.2	44467.8
848.5664	951.019	45181.55	44321.2
848.7115	953.0344	45077.7	44217.2
848.8567	955.0491	44956.55	44092
849.0018	957.063	44931.55	44070.1
849.147	959.0763	44966.15	44103.95
849.2921	961.0888	44762.15	43897.6
849.4373	963.1007	44777.05	43914.4
849.5824	965.1119	44680	43817.85
849.7275	967.1223	44596.55	43734.9
849.8727	969.1321	44529.8	43668.1
850.0178	971.1412	44463.6	43601.75
850.1629	973.1495	44276.4	43413.1
850.3081	975.1572	44260	43348.3
850.4532	977.1641	44257.5	43395.4
850.5983	979.1704	44054.4	43188.5
850.7435	981.1759	43897.7	43030.4
850.8886	983.1808	43860.1	42994.4
851.0337	985.1849	43740.95	42870.35
851.1788	987.1884	43686.1	42820.4
851.324	989.1911	43549.15	42681.25
851.4691	991.1932	43444.4	42578.75
851.6142	993.1945	43303.75	42438.25
851.7593	995.1951	43073.35	42208.05
851.9045	997.1951	43068.8	42197.75
852.0496	999.1943	42857	41991.55
852.1947	1001.1928	42663.05	41798.9
852.3398	1003.1906	42497.2	41632
852.4849	1005.1877	42449.2	41580.85
852.63	1007.1841	42314.5	41449.05
852.7751	1009.1798	42220.6	41355.55
852.9202	1011.1748	42019.7	41154.65
853.0653	1013.1691	41912.1	41045.15
853.2104	1015.1627	41714.25	40847.95
853.3555	1017.1556	41456.6	40590.7
853.5006	1019.1477	41377.85	40512.45
853.6457	1021.1392	41092.95	40228.35
853.7908	1023.1299	40983.05	40115.8
853.9359	1025.12	40818.95	39951.65
854.081	1027.1093	40706.7	39840.15
854.2261	1029.0979	40595.8	39732.05
854.3712	1031.0859	40425.45	39559.2
854.5163	1033.0731	40355.4	39485.85
854.6613	1035.0596	40196.85	39329.9
854.8064	1037.0454	40003.6	39136.35
854.9515	1039.0304	39913.05	39044.8
855.0965	1041.0148	39708.15	38840.85
855.2416	1042.9985	39589.6	38722.35
855.3867	1044.9814	39557.55	38691.6
855.5317	1046.9636	39361.45	38492.55
855.6768	1048.9452	39200.2	38332.8
855.8219	1050.926	39204.5	38338.05
855.9669	1052.9061	39120.85	38254.45
856.112	1054.8855	39003.2	38135.2
856.257	1056.8642	38914.7	38047.45
856.4021	1058.8421	38914.5	38042.25
856.5471	1060.8194	38787.05	37917.55
856.6921	1062.7959	38696.5	37827.45
856.8372	1064.7717	38617	37746.95
856.9822	1066.7469	38496.95	37626.6
857.1272	1068.7213	38377.8	37506.45
857.2723	1070.695	38429.4	37559.65
857.4173	1072.6679	38213.95	37345.95
857.5623	1074.6402	38243.15	37371.8
857.7073	1076.6117	38221.6	37347.05
857.8523	1078.5826	38164.05	37292.35
857.9973	1080.5527	37979.5	37105.85
858.1423	1082.5221	37794.7	36924.55
858.2873	1084.4908	37724.7	36855.6
858.4323	1086.4587	37609.2	36738.85
858.5773	1088.426	37547.5	36675.2
858.7223	1090.3925	37380.1	36506.75
858.8673	1092.3584	37346.7	36477.65
859.0123	1094.3235	37178.25	36309.85
859.1573	1096.2879	37110.8	36240.75
859.3022	1098.2515	37113.9	36244.85
859.4472	1100.2145	37089.25	36221.25
859.5922	1102.1767	36965.9	36093.05
859.7371	1104.1382	36876.95	36006.2
859.8821	1106.099	36898.5	36027.45
860.027	1108.0591	36818.7	35947.9
860.172	1110.0185	36757.7	35883.8
860.3169	1111.9771	36713.55	35845.5
860.4619	1113.9351	36576.05	35706.5
860.6068	1115.8923	36577.1	35707.8
860.7517	1117.8488	36544.35	35673.4
860.8967	1119.8045	36401.4	35531.2
861.0416	1121.7596	36293.55	35420.8
861.1865	1123.7139	36065.6	35194.8
861.3314	1125.6675	35952.5	35081.1
861.4763	1127.6204	35932.8	35062.4
861.6212	1129.5726	35821.95	34949.1
861.7661	1131.524	35776.4	34904.2
861.911	1133.4748	35712.2	34841
862.0559	1135.4248	35514.15	34639.25
862.2008	1137.3741	35448.15	34577.65
862.3457	1139.3226	35309.9	34436.95
862.4905	1141.2705	35338	34466.9
862.6354	1143.2176	35150.8	34273.5
862.7803	1145.164	35113.7	34240.35
862.9251	1147.1097	35093.1	34221.35
863.07	1149.0546	35031.5	34158.65
863.2148	1150.9989	34985.95	34113.15
863.3597	1152.9424	34935.85	34061.9
863.5045	1154.8852	34830.45	33956.4
863.6493	1156.8272	34808.15	33935.75
863.7942	1158.7686	34791.45	33911.55
863.939	1160.7092	34667.05	33792.8
864.0838	1162.6491	34502.4	33626
864.2286	1164.5883	34523.35	33649.85
864.3734	1166.5267	34420.25	33545.35
864.5182	1168.4644	34424.15	33549.2
864.663	1170.4014	34348.25	33471.15
864.8078	1172.3377	34448.4	33576
864.9526	1174.2732	34371.35	33500.05
865.0974	1176.2081	34442	33569.35
865.2421	1178.1421	34446.9	33567.9
865.3869	1180.0755	34479.1	33605.05
865.5317	1182.0082	34402.75	33531.65
865.6764	1183.9401	34413.15	33537.4
865.8212	1185.8713	34221.85	33347.3
865.9659	1187.8017	34056.7	33182.1
866.1106	1189.7315	33934.25	33062.6
866.2554	1191.6605	33661.9	32788.2
866.4001	1193.5888	33548.2	32674.15
866.5448	1195.5163	33427.2	32555.85
866.6895	1197.4432	33327.7	32450.7
866.8342	1199.3693	33213.1	32340.75
866.9789	1201.2947	33082.85	32207
867.1236	1203.2193	32963.2	32086.7
867.2683	1205.1432	32942.6	32066.75
867.413	1207.0664	32813.1	31938.9
867.5576	1208.9889	32749.75	31872.65
867.7023	1210.9106	32547.45	31672.85
867.847	1212.8316	32392.5	31517.8
867.9916	1214.7519	32420.3	31537.3
868.1363	1216.6715	32289	31413.55
868.2809	1218.5903	32271.3	31395.65
868.4255	1220.5084	32228.6	31354.25
868.5701	1222.4257	32192.6	31317.05
868.7148	1224.3424	32076.25	31203.15
868.8594	1226.2583	31992.5	31112.3
869.004	1228.1735	31947.9	31071.35
869.1486	1230.0879	31876.9	31002.5
869.2932	1232.0016	31869.1	30995.15
869.4377	1233.9146	31783.4	30905.4
869.5823	1235.8269	31698.6	30824.25
869.7269	1237.7384	31675.35	30800.4
869.8715	1239.6492	31556.1	30679.8
870.016	1241.5592	31553.75	30677.75
870.1606	1243.4686	31443	30569
870.3051	1245.3772	31456.5	30582.25
870.4496	1247.285	31457.45	30581.65
870.5941	1249.1922	31389.95	30514.35
870.7387	1251.0986	31382	30504.75
870.8832	1253.0042	31318.15	30441.15
871.0277	1254.9092	31428.7	30553.45
871.1722	1256.8134	31441	30563.95
871.3167	1258.7169	31524.6	30646.4
871.4611	1260.6196	31469.85	30593.3
871.6056	1262.5216	31519.65	30641.55
871.7501	1264.4229	31452.5	30576.8
871.8945	1266.3234	31395.6	30520.25
872.039	1268.2232	31297.8	30422.25
872.1834	1270.1223	31193.3	30314.6
872.3278	1272.0207	31106.65	30229.8
872.4723	1273.9183	31030.2	30147.6
872.6167	1275.8151	30965.35	30090.3
872.7611	1277.7113	30996.65	30119.75
872.9055	1279.6067	30927.2	30050.5
873.0499	1281.5014	31023.7	30145.4
873.1943	1283.3953	31143.5	30265.75
873.3386	1285.2885	31316.15	30439.7
873.483	1287.181	31464.5	30586.35
873.6274	1289.0727	31534.5	30659.25
873.7717	1290.9637	31419.15	30542.1
873.9161	1292.854	31300.35	30421.25
874.0604	1294.7435	31027.8	30149.5
874.2047	1296.6323	30892.25	30014.1
874.349	1298.5204	30782	29900.1
874.4933	1300.4077	30642.7	29764.3
874.6376	1302.2943	30533.75	29657.5
874.7819	1304.1802	30532.25	29658.2
874.9262	1306.0653	30431.25	29552.85
875.0705	1307.9497	30366.65	29491.2
875.2147	1309.8333	30310.9	29432.55
875.359	1311.7162	30256.3	29377.3
875.5032	1313.5984	30216.05	29335.8
875.6475	1315.4798	30118	29227.8
875.7917	1317.3605	30078.85	29197.55
875.9359	1319.2405	30092.3	29213
876.0801	1321.1197	30067.4	29187.8
876.2243	1322.9982	29919.8	29036.55
876.3685	1324.876	29914.2	29036.65
876.5127	1326.753	29706.75	28829.45
876.6569	1328.6293	29649.25	28770.05
876.801	1330.5048	29573.15	28692.6
876.9452	1332.3796	29416.2	28537.45
877.0893	1334.2537	29354.6	28452.6
877.2335	1336.127	29199.8	28322.85
877.3776	1337.9996	29142.15	28264.8
877.5217	1339.8714	29004	28127
877.6658	1341.7426	28956.7	28034.2
877.8099	1343.6129	28961.4	28083.65
877.954	1345.4826	28835.55	27958.8
878.0981	1347.3515	28839.3	27958.8
878.2422	1349.2196	28772	27891.35
878.3862	1351.087	28801.4	27923.8
878.5303	1352.9537	28802.65	27922.75
878.6743	1354.8197	28775.6	27898.4
878.8184	1356.6849	28721.45	27842.95
878.9624	1358.5493	28669	27789.2
879.1064	1360.4131	28613.55	27736.65
879.2504	1362.276	28553.5	27675.85
879.3944	1364.1383	28526.35	27648.05
879.5384	1365.9998	28512.5	27629.7
879.6823	1367.8606	28459.4	27579.25
879.8263	1369.7206	28361.3	27482.3
879.9702	1371.5799	28311.15	27430.35
880.1142	1373.4384	28247.7	27368.25
880.2581	1375.2962	28218.1	27339.1
880.402	1377.1533	27969.3	27091.35
880.5459	1379.0096	27848.55	26968.95
880.6898	1380.8652	27792.25	26912.85
880.8337	1382.7201	27704.25	26825.2
880.9776	1384.5742	27528.8	26651.75
881.1215	1386.4275	27412.95	26534.35
881.2653	1388.2802	27318.2	26439.15
881.4092	1390.132	27236.05	26358.15
881.553	1391.9832	27228.4	26347.6
881.6968	1393.8336	27046.2	26166.6
881.8406	1395.6832	26992.5	26112.45
881.9844	1397.5322	26880	25999.85
882.1282	1399.3803	26805.9	25921.65
882.272	1401.2278	26571.25	25692.9
882.4158	1403.0745	26577.1	25698.95
882.5595	1404.9204	26472.65	25596.45
882.7033	1406.7656	26444.75	25565.15
882.847	1408.6101	26292.15	25412.25
882.9908	1410.4538	26260	25381.3
883.1345	1412.2968	26149.1	25270.5
883.2782	1414.139	26058.3	25177.85
883.4219	1415.9805	26059.25	25181.85
883.5656	1417.8213	25987.9	25087.4
883.7092	1419.6613	25868.3	24991.5
883.8529	1421.5006	25860.25	24980.55
883.9965	1423.3391	25824.1	24943.8
884.1402	1425.1769	25760.2	24879.75
884.2838	1427.0139	25797.6	24918.85
884.4274	1428.8502	25843.15	24962.55
884.571	1430.6858	25812.75	24932.9
884.7146	1432.5206	25742.15	24861.4
884.8582	1434.3547	25740.25	24857.9
885.0018	1436.188	25670.25	24790.35
885.1453	1438.0206	25636.3	24755.15
885.2889	1439.8524	25524.1	24643.9
885.4324	1441.6835	25512.95	24631.85
885.5759	1443.5139	25414.4	24532.3
885.7194	1445.3435	25361.8	24482.1
885.8629	1447.1724	25402.65	24522.75
886.0064	1449.0005	25320.6	24441.65
886.1499	1450.8279	25278.85	24398.05
886.2933	1452.6545	25285.4	24405.5
886.4368	1454.4804	25280.9	24400.05
886.5802	1456.3056	25227.1	24339.4
886.7237	1458.13	25122.6	24244.55
886.8671	1459.9536	25149.15	24269
887.0105	1461.7766	25056.15	24177.4
887.1539	1463.5987	24941.95	24061.7
887.2972	1465.4202	24885.75	24006.05
887.4406	1467.2409	24746.4	23864.55
887.584	1469.0608	24725	23846.15
887.7273	1470.88	24608.1	23726.15
887.8706	1472.6984	24591.95	23713.55
888.0139	1474.5161	24488.35	23604.4
888.1572	1476.3331	24420.35	23541.75
888.3005	1478.1493	24400.65	23519.45
888.4438	1479.9648	24375.65	23497.1
888.5871	1481.7795	24283	23402.25
888.7303	1483.5935	24279.25	23398.9
888.8736	1485.4067	24206.8	23325.7
889.0168	1487.2192	24215	23333.4
889.16	1489.031	24194.35	23312.3
889.3032	1490.842	24105.55	23225.2
889.4464	1492.6522	24090.55	23211.8
889.5896	1494.4618	24048.75	23167.6
889.7327	1496.2705	23997.65	23118
889.8759	1498.0785	23954.45	23074.25
890.019	1499.8858	23848.3	22967
890.1622	1501.6924	23857.2	22975.9
890.3053	1503.4981	23824.25	22944.45
890.4484	1505.3032	23736.05	22856.95
890.5914	1507.1075	23692.3	22811.4
890.7345	1508.911	23645.95	22766.75
890.8776	1510.7138	23602.7	22720.6
891.0206	1512.5159	23513.7	22632.35
891.1637	1514.3172	23462.9	22582.3
891.3067	1516.1178	23342.3	22461.7
891.4497	1517.9176	23334.85	22452.5
891.5927	1519.7166	23242.4	22363.55
891.7357	1521.515	23166.9	22280
891.8786	1523.3126	23094.95	22215.5
892.0216	1525.1094	23033.2	22150.4
892.1645	1526.9055	22964.6	22083.15
892.3074	1528.7008	22901.2	22020.65
892.4503	1530.4954	22780.9	21894.2
892.5932	1532.2893	22753.1	21874.65
892.7361	1534.0824	22646.95	21761.7
892.879	1535.8747	22642.45	21763
893.0218	1537.6663	22548.05	21666.7
893.1647	1539.4572	22476.65	21593.35
893.3075	1541.2473	22460.5	21580.95
893.4503	1543.0367	22329.35	21448.9
893.5931	1544.8253	22224.65	21340.45
893.7359	1546.6132	22217.15	21333.1
893.8787	1548.4003	22133.95	21244.35
894.0214	1550.1867	22101.3	21213.95
894.1642	1551.9723	22021.3	21135.7
894.3069	1553.7572	22017.25	21133.9
894.4496	1555.5414	21906.5	21027
894.5923	1557.3247	21897.8	21017.85
894.735	1559.1074	21833.15	20954.65
894.8777	1560.8893	21794.1	20912.05
895.0204	1562.6705	21769.9	20890.35
895.163	1564.4509	21737.3	20856.95
895.3056	1566.2305	21680.95	20801.2
895.4482	1568.0094	21685.05	20807.6
895.5908	1569.7876	21672.95	20792.45
895.7334	1571.565	21649.95	20768.5
895.876	1573.3417	21573.2	20693.05
896.0186	1575.1176	21462.8	20582.95
896.1611	1576.8928	21467.3	20587.55
896.3036	1578.6672	21398.2	20518.55
896.4461	1580.4409	21341	20463.05
896.5886	1582.2138	21273.05	20391.6
896.7311	1583.986	21263.5	20381.85
896.8736	1585.7575	21299.05	20418.35
897.0161	1587.5282	21288	20409.65
897.1585	1589.2981	21269.55	20390
897.3009	1591.0673	21203.15	20320.9
897.4433	1592.8358	21182.6	20304.15
897.5857	1594.6035	21100.35	20218.65
897.7281	1596.3704	21011.15	20130.2
897.8705	1598.1366	20906.65	20025.1
898.0128	1599.9021	20849.85	19968.3
898.1551	1601.6668	20730.5	19850.95
898.2975	1603.4308	20628.2	19746.75
898.4398	1605.194	20578.15	19692.7
898.5821	1606.9564	20493.9	19613
898.7243	1608.7182	20527.85	19643.05
898.8666	1610.4791	20544.2	19664.2
899.0088	1612.2394	20547.1	19670.6
899.1511	1613.9988	20575.95	19694.9
899.2933	1615.7576	20670.05	19791.75
899.4355	1617.5156	20660.6	19774.5
899.5776	1619.2728	20642.05	19762.6
899.7198	1621.0293	20547.65	19667.9
899.862	1622.785	20379.25	19494.8
900.0041	1624.54	20170	19285.35
900.1462	1626.2942	19978.95	19097.05
900.2883	1628.0477	19765.85	18883.5
900.4304	1629.8005	19661.7	18778.2
900.5725	1631.5525	19527.15	18646.5
900.7145	1633.3037	19410.7	18530.5
900.8566	1635.0542	19305.85	18424.9
900.9986	1636.804	19257.9	18376.05
901.1406	1638.553	19247.55	18277.3
901.2826	1640.3013	19066.85	18188.1
901.4245	1642.0488	18990.1	18109.9
901.5665	1643.7955	18926.9	18046.15
901.7085	1645.5416	18863.6	17981.15
901.8504	1647.2868	18805.8	17926.1
901.9923	1649.0313	18741.7	17862.9
902.1342	1650.7751	18719.5	17833.95
902.2761	1652.5181	18643.6	17764.9
902.4179	1654.2604	18559.5	17678.9
902.5598	1656.0019	18537.8	17656.4
902.7016	1657.7427	18482.25	17602.1
902.8434	1659.4828	18460.45	17578.45
902.9852	1661.222	18469.25	17588.7
903.127	1662.9606	18401.45	17520.3
903.2687	1664.6984	18424.05	17542.1
903.4105	1666.4354	18420.5	17536.3
903.5522	1668.1717	18337.1	17456.7
903.6939	1669.9072	18232	17351.55
903.8356	1671.642	18163	17278.8
903.9773	1673.3761	18072.1	17192.3
904.119	1675.1094	17950.85	17071
904.2606	1676.8419	17852.3	16972.1
904.4022	1678.5737	17758.8	16876.55
904.5439	1680.3048	17702.45	16822.55
904.6855	1682.0351	17615	16734.4
904.827	1683.7646	17555.4	16672.1
904.9686	1685.4934	17475.7	16595.85
905.1101	1687.2215	17409.8	16530.25
905.2517	1688.9488	17317.6	16436.45
905.3932	1690.6754	17216.3	16335.85
905.5347	1692.4012	17199.15	16318.7
905.6761	1694.1263	17168.4	16285.8
905.8176	1695.8506	17080.65	16199.1
905.9591	1697.5742	17027.65	16146.3
906.1005	1699.297	16963.3	16082.5
906.2419	1701.0191	16892.75	16012.15
906.3833	1702.7404	16815.05	15934.6
906.5246	1704.461	16711.4	15829.55
906.666	1706.1808	16672.2	15790.25
906.8073	1707.8999	16616.65	15734.95
906.9487	1709.6182	16560.55	15678.95
907.09	1711.3358	16522.05	15642.25
907.2313	1713.0527	16481.5	15604.3
907.3725	1714.7688	16403.05	15516
907.5138	1716.4841	16343.1	15459.55
907.655	1718.1987	16347.05	15463.4
907.7962	1719.9126	16282.15	15401.9
907.9374	1721.6257	16216.35	15331.35
908.0786	1723.338	16187.5	15306.2
908.2198	1725.0496	16096	15212.85
908.3609	1726.7605	16077.45	15196.4
908.502	1728.4706	16042.45	15161.3
908.6431	1730.18	15971.25	15087.85
908.7842	1731.8886	15936.3	15055.75
908.9253	1733.5964	15921.5	15021
909.0664	1735.3036	15890.1	15007.3
909.2074	1737.0099	15853.75	14973.5
909.3484	1738.7156	15816	14934.8
909.4894	1740.4204	15769.9	14888.55
909.6304	1742.1246	15728.8	14842.1
909.7714	1743.8279	15709.25	14828.85
909.9123	1745.5306	15666.8	14785.85
910.0532	1747.2325	15635.5	14755.95
910.1941	1748.9336	15589.05	14709.45
910.335	1750.634	15505.9	14621.55
910.4759	1752.3336	15510.65	14632.35
910.6168	1754.0325	15494.25	14614.3
910.7576	1755.7307	15473.65	14593.35
910.8984	1757.4281	15443.35	14561.55
911.0392	1759.1247	15429.25	14539.5
911.18	1760.8206	15389.2	14504.4
911.3208	1762.5158	15354.9	14473.15
911.4615	1764.2102	15292.75	14413.1
911.6022	1765.9039	15268.1	14388.45
911.7429	1767.5968	15228.1	14346.2
911.8836	1769.289	15182.75	14301.35
912.0243	1770.9804	15151.4	14270.2
912.1649	1772.6711	15146.45	14263.8
912.3056	1774.361	15105.7	14223.15
912.4462	1776.0502	15073.1	14189.65
912.5868	1777.7386	15023.2	14140
912.7274	1779.4263	14980.25	14097.85
912.8679	1781.1132	14981.55	14099.25
913.0084	1782.7994	14914.4	14033.9
913.149	1784.4849	14875.7	13995.2
913.2895	1786.1696	14853.3	13953.5
913.4299	1787.8535	14801.4	13922.4
913.5704	1789.5367	14722.35	13840
913.7108	1791.2192	14741.65	13862.05
913.8513	1792.9009	14685.85	13784.25
913.9917	1794.5818	14669.1	13788.15
914.132	1796.2621	14617.3	13739.1
914.2724	1797.9415	14569.25	13688.45
914.4128	1799.6202	14550.15	13668.55
914.5531	1801.2982	14520.4	13639.25
914.6934	1802.9755	14461.8	13580.4
914.8337	1804.6519	14479.65	13597.6
914.9739	1806.3277	14373.4	13492.6
915.1142	1808.0027	14316.85	13439.15
915.2544	1809.6769	14324.7	13444.6
915.3946	1811.3504	14273.4	13389.5
915.5348	1813.0231	14216	13335.25
915.675	1814.6951	14165.05	13283.7
915.8151	1816.3664	14231.55	13346.35
915.9553	1818.0369	14173.2	13291.4
916.0954	1819.7067	14136.15	13256.35
916.2355	1821.3757	14077.3	13193.25
916.3755	1823.044	14057.95	13176.65
916.5156	1824.7115	14022.4	13142.4
916.6556	1826.3783	13985.5	13104.05
916.7956	1828.0443	13922.45	13042.55
916.9356	1829.7096	13914.05	13033.05
917.0756	1831.3741	13927.6	13044
917.2155	1833.0379	13872.1	12992.7
917.3555	1834.701	13845.45	12962.15
917.4954	1836.3633	13846.85	12966
917.6353	1838.0248	13778.2	12895.6
917.7751	1839.6856	13754.4	12873.6
917.915	1841.3457	13729.2	12849.6
918.0548	1843.005	13680.6	12802.05
918.1946	1844.6636	13653.4	12774
918.3344	1846.3214	13633.85	12754.35
918.4742	1847.9785	13603.75	12724
918.6139	1849.6349	13565.35	12681.8
918.7537	1851.2904	13534.7	12646.45
918.8934	1852.9453	13505.75	12622.35
919.0331	1854.5994	13419.6	12537.6
919.1727	1856.2528	13461.7	12575.9
919.3124	1857.9054	13396.4	12513.45
919.452	1859.5572	13390.6	12511.2
919.5916	1861.2083	13371.75	12488.95
919.7312	1862.8587	13354.8	12476.1
919.8708	1864.5084	13310.7	12428.75
920.0103	1866.1572	13256.2	12377.2
920.1498	1867.8054	13215.05	12334.85
920.2893	1869.4528	13161.85	12279.9
920.4288	1871.0994	13146.35	12264.4
920.5683	1872.7453	13140.25	12257.7
920.7077	1874.3905	13125.45	12237.1
920.8471	1876.0349	13062.85	12181.8
920.9865	1877.6786	13069.9	12186.65
921.1259	1879.3215	13026.7	12146.85
921.2653	1880.9637	12995.65	12113.05
921.4046	1882.6051	12986.4	12106.6
921.5439	1884.2458	12968.5	12086.35
921.6832	1885.8858	12912.95	12032.2
921.8225	1887.525	12891.95	12009.45
921.9617	1889.1634	12829.65	11948.7
922.101	1890.8011	12798.2	11916.5
922.2402	1892.4381	12789.4	11908.65
922.3794	1894.0743	12754	11873.3
922.5185	1895.7098	12728.65	11849.7
922.6577	1897.3446	12672.8	11788.7
922.7968	1898.9786	12670	11785.8
922.9359	1900.6118	12633	11752.8
923.075	1902.2443	12584.65	11702.85
923.214	1903.8761	12549.8	11669
923.3531	1905.5071	12501.6	11618.8
923.4921	1907.1374	12454.4	11570.8
923.6311	1908.7669	12430.95	11549.75
923.77	1910.3957	12418.4	11533.85
923.909	1912.0237	12370.75	11489.65
924.0479	1913.651	12341.7	11459.05
924.1868	1915.2776	12302.15	11421.5
924.3257	1916.9034	12262.9	11382.9
924.4646	1918.5285	12213.45	11335.35
924.6034	1920.1528	12154.6	11273.45
924.7422	1921.7764	12122.6	11241.15
924.881	1923.3992	12088.3	11204.25
925.0198	1925.0213	12007.2	11127.3
925.1586	1926.6427	11985.95	11105
925.2973	1928.2633	12096.8	11005.25
925.436	1929.8832	11944.15	11059.45
925.5747	1931.5023	11882.65	11002.8
925.7134	1933.1207	11846.15	10966
925.852	1934.7383	11832.8	10951.05
925.9906	1936.3552	11788.2	10906.85
926.1292	1937.9714	11764.95	10883
926.2678	1939.5868	11685.1	10802.95
926.4064	1941.2015	11646.65	10764.6
926.5449	1942.8154	11608.8	10726.9
926.6834	1944.4286	11554.95	10673.8
926.8219	1946.041	11530.25	10627.6
926.9604	1947.6528	11490.3	10605.85
927.0988	1949.2637	11458.65	10578.6
927.2372	1950.8739	11398.2	10518
927.3756	1952.4834	11423.55	10541.6
927.514	1954.0921	11370.8	10490.3
927.6523	1955.7001	11328.75	10443.85
927.7907	1957.3074	11281.65	10401.45
927.929	1958.9139	11270.65	10390.45
928.0673	1960.5197	11217.7	10335.35
928.2055	1962.1247	11163.3	10282.95
928.3438	1963.729	11132.7	10252
928.482	1965.3325	11108.35	10205.45
928.6202	1966.9353	11089.15	10211.55
928.7584	1968.5374	11047.45	10164.9
928.8965	1970.1387	10983.65	10103.35
929.0346	1971.7393	10963.65	10080.7
929.1727	1973.3392	10939.1	10059.2
929.3108	1974.9383	10905.35	10025.35
929.4489	1976.5366	10835.9	9954.1
929.5869	1978.1342	10818.7	9937.2
929.7249	1979.7311	10816.65	9935.6
929.8629	1981.3273	10805.55	9924.2
930.0009	1982.9227	10780.85	9898.25
930.1388	1984.5173	10712.85	9831.7
930.2767	1986.1112	10669.4	9790.15
930.4146	1987.7044	10660.75	9781.45
930.5525	1989.2968	10645.9	9763.8
930.6904	1990.8885	10614.15	9728.8
930.8282	1992.4795	10587.5	9704.05
930.966	1994.0697	10551.05	9671.05
931.1038	1995.6592	10509.8	9628.65
931.2415	1997.2479	10493.5	9613.8
931.3793	1998.8359	10467.65	9587
931.517	2000.4232	10417	9535.75
931.6547	2002.0097	10389.75	9511.5
931.7923	2003.5955	10323.9	9443.1
931.93	2005.1805	10339.35	9456.55
932.0676	2006.7648	10304.8	9425.3
932.2052	2008.3484	10263.8	9381
932.3427	2009.9312	10266.6	9383.8
932.4803	2011.5133	10247.05	9366.05
932.6178	2013.0946	10205.35	9325.25
932.7553	2014.6752	10159.6	9281.1
932.8928	2016.2551	10133	9252.15
933.0302	2017.8342	10098.05	9217.95
933.1676	2019.4126	10064.1	9187.7
933.305	2020.9902	10002.7	9121.35
933.4424	2022.5672	10017.2	9135.8
933.5798	2024.1433	10020.4	9133.3
933.7171	2025.7188	9976.2	9098.25
933.8544	2027.2935	9951.3	9070.55
933.9917	2028.8674	9902.2	9021.65
934.129	2030.4406	9873	8994.55
934.2662	2032.0131	9857.15	8976.4
934.4034	2033.5849	9803.85	8919.4
934.5406	2035.1559	9794.85	8916.85
934.6778	2036.7261	9779.05	8899.1
934.8149	2038.2957	9740.65	8861.05
934.952	2039.8645	9734	8853
935.0891	2041.4325	9743.65	8860.75
935.2262	2042.9998	9685.05	8803
935.3632	2044.5664	9670.55	8789.45
935.5002	2046.1323	9642.9	8763.3
935.6372	2047.6974	9642.15	8761.2
935.7742	2049.2617	9612.9	8734.15
935.9111	2050.8254	9594.45	8692.05
936.048	2052.3883	9581	8699.55
936.1849	2053.9504	9557.6	8677.25
936.3218	2055.5118	9533	8651
936.4586	2057.0725	9476.75	8591.95
936.5955	2058.6325	9452.2	8571.75
936.7323	2060.1917	9425.7	8546.65
936.869	2061.7502	9444.6	8562.9
937.0058	2063.3079	9384.6	8505.3
937.1425	2064.8649	9375.05	8491.4
937.2792	2066.4212	9352.9	8472.35
937.4159	2067.9767	9302.05	8421.2
937.5525	2069.5315	9284.9	8404.05
937.6891	2071.0856	9251	8369.85
937.8257	2072.6389	9233.55	8352.65
937.9623	2074.1915	9192.35	8314.2
938.0989	2075.7433	9150.05	8266.95
938.2354	2077.2945	9142.4	8264.35
938.3719	2078.8448	9105.55	8224.4
938.5084	2080.3945	9068.9	8189.2
938.6448	2081.9434	9064.75	8184.05
938.7812	2083.4916	9067.75	8186.4
938.9176	2085.039	9035.3	8154.05
939.054	2086.5857	9009.05	8126.65
939.1903	2088.1317	8982.9	8103.1
939.3267	2089.677	8985.7	8104.6
939.463	2091.2215	8957.95	8075.7
939.5992	2092.7652	8948.6	8067.6
939.7355	2094.3083	8925.5	8042.8
939.8717	2095.8506	8908.15	8030.5
940.0079	2097.3921	8882.1	8003.55
940.1441	2098.933	8869.4	7987.95
940.2802	2100.4731	8857.5	7976.9
940.4163	2102.0124	8855.4	7956.6
940.5524	2103.5511	8817.4	7937.5
940.6885	2105.089	8804.65	7924.25
940.8245	2106.6261	8801.9	7918.7
940.9606	2108.1626	8769.55	7887.8
941.0965	2109.6983	8778.2	7872.1
941.2325	2111.2332	8728.05	7848.1
941.3684	2112.7675	8697.75	7815.75
941.5044	2114.301	8677.15	7798.8
941.6403	2115.8337	8662.7	7780.7
941.7761	2117.3657	8659.75	7779.4
941.912	2118.897	8624.3	7743.7
942.0478	2120.4276	8616	7731.45
942.1835	2121.9575	8575.6	7695.4
942.3193	2123.4866	8557.85	7675.9
942.455	2125.0149	8541.2	7659.45
942.5907	2126.5426	8494.55	7616
942.7264	2128.0695	8486.25	7604.1
942.8621	2129.5956	8468.55	7590.25
942.9977	2131.1211	8472.65	7588.3
943.1333	2132.6458	8418	7538.45
943.2689	2134.1698	8425.15	7543.4
943.4044	2135.693	8394.75	7513.5
943.54	2137.2155	8406	7521.25
943.6755	2138.7373	8361.6	7481.8
943.8109	2140.2584	8358.1	7479.35
943.9464	2141.7787	8329.55	7442.65
944.0818	2143.2983	8273.15	7394.35
944.2172	2144.8171	8256.25	7378.55
944.3526	2146.3353	8198.4	7316.7
944.4879	2147.8527	8189.9	7311.25
944.6232	2149.3693	8181.45	7299.8
944.7585	2150.8853	8151.05	7270.05
944.8938	2152.4005	8110.35	7228.9
945.029	2153.9149	8127	7246.2
945.1642	2155.4287	8078.9	7198.4
945.2994	2156.9417	8081.6	7199.95
945.4346	2158.454	8058.4	7177.55
945.5697	2159.9655	8030.3	7151.3
945.7048	2161.4764	8012.65	7131.7
945.8399	2162.9865	7973.35	7093.2
945.9749	2164.4958	7975.2	7092.15
946.1099	2166.0045	7936.2	7054.05
946.2449	2167.5124	7953.05	7072.65
946.3799	2169.0195	7906.6	7027.85
946.5148	2170.526	7911.85	7032.8
946.6498	2172.0317	7889.05	7008.5
946.7846	2173.5367	7858.85	6977.95
946.9195	2175.0409	7859.85	6978.75
947.0543	2176.5445	7838.3	6960.35
947.1891	2178.0473	7799.8	6920.7
947.3239	2179.5494	7767.9	6883
947.4587	2181.0507	7742.2	6862.45
947.5934	2182.5513	7724.05	6844.05
947.7281	2184.0512	7725.4	6843.7
947.8628	2185.5504	7678.35	6800.1
947.9974	2187.0488	7645	6764.2
948.132	2188.5465	7630.85	6752.55
948.2666	2190.0435	7592.25	6711.65
948.4012	2191.5397	7575.45	6693.6
948.5357	2193.0353	7578	6701.4
948.6702	2194.5301	7549.5	6668.2
948.8047	2196.0241	7517.15	6634.55
948.9392	2197.5175	7493.6	6615.15
949.0736	2199.0101	7462.75	6577.25
949.208	2200.502	7407	6527.75
949.3424	2201.9931	7407.4	6525.5
949.4767	2203.4835	7402.85	6520.95
949.611	2204.9733	7356.45	6468.75
949.7453	2206.4622	7347.85	6469.6
949.8796	2207.9505	7336.05	6452.55
950.0138	2209.438	7296.5	6417.2
950.148	2210.9248	7274.75	6392.45
950.2822	2212.4109	7256.3	6377.75
950.4164	2213.8962	7235.6	6353.3
950.5505	2215.3809	7225.15	6342.7
950.6846	2216.8648	7186.75	6305.6
950.8186	2218.3479	7170.1	6284.1
950.9527	2219.8304	7156.25	6275
951.0867	2221.3121	7137.25	6254.7
951.2207	2222.7931	7116.15	6238.05
951.3546	2224.2733	7109.95	6229.5
951.4886	2225.7529	7059.3	6177.1
951.6225	2227.2317	7042.4	6160.75
951.7563	2228.7098	7035.05	6156.25
951.8902	2230.1872	6999	6117.95
952.024	2231.6638	6988.95	6109
952.1578	2233.1397	6954.45	6069.4
952.2916	2234.6149	6940.6	6061.95
952.4253	2236.0894	6906.2	6025.15
952.559	2237.5632	6917.6	6036.25
952.6927	2239.0362	6876.75	5995.8
952.8263	2240.5085	6866.5	5984.95
952.9599	2241.9801	6853.65	5975.15
953.0935	2243.4509	6819.55	5939.05
953.2271	2244.921	6797.5	5916.15
953.3606	2246.3904	6776.05	5890.65
953.4941	2247.8591	6747.1	5868.25
953.6276	2249.3271	6724.65	5843.4
953.7611	2250.7943	6711.25	5829.4
953.8945	2252.2608	6701.9	5822
954.0279	2253.7266	6675.2	5796.25
954.1612	2255.1917	6658.35	5777.6
954.2946	2256.656	6624.7	5745.7
954.4279	2258.1197	6616.05	5735.65
954.5612	2259.5826	6600.3	5719.1
954.6944	2261.0447	6585.45	5703.7
954.8276	2262.5062	6554.45	5673.4
954.9608	2263.9669	6571.55	5689.75
955.094	2265.4269	6522.05	5641.85
955.2271	2266.8862	6532.75	5651.65
955.3602	2268.3448	6492.8	5611.9
955.4933	2269.8026	6492.7	5612.1
955.6264	2271.2598	6466.25	5586.6
955.7594	2272.7162	6442.4	5562.7
955.8924	2274.1719	6403.55	5523.25
956.0253	2275.6268	6403.45	5522.8
956.1583	2277.0811	6416.7	5536.2
956.2912	2278.5346	6389.5	5508.55
956.4241	2279.9874	6364.75	5484.85
956.5569	2281.4395	6350.7	5472.4
956.6897	2282.8908	6345.5	5461.95
956.8225	2284.3414	6318.95	5437.3
956.9553	2285.7914	6298.4	5421
957.088	2287.2406	6290.8	5408.95
957.2207	2288.689	6275.65	5396.75
957.3534	2290.1368	6248.55	5368.9
957.486	2291.5838	6229.5	5347.6
957.6186	2293.0302	6203.95	5322.2
957.7512	2294.4758	6171.4	5290.55
957.8838	2295.9206	6179.45	5296.35
958.0163	2297.3648	6145.2	5263.45
958.1488	2298.8082	6150.55	5268.7
958.2813	2300.251	6127.45	5247.05
958.4137	2301.693	6097.4	5213.3
958.5461	2303.1343	6081.6	5200.8
958.6785	2304.5748	6077.6	5198.75
958.8108	2306.0147	6066.25	5185.6
958.9432	2307.4538	6065.35	5183.1
959.0754	2308.8922	6029.55	5149.35
959.2077	2310.3299	6008.65	5128.3
959.3399	2311.7669	5981.55	5101.1
959.4721	2313.2031	5962.2	5080.05
959.6043	2314.6387	5957.1	5078
959.7365	2316.0735	5955.95	5073.8
959.8686	2317.5076	5931	5049.95
960.0006	2318.941	5928.8	5049.9
960.1327	2320.3737	5897.65	5017
960.2647	2321.8056	5883.85	5001.65
960.3967	2323.2369	5863.35	4985.75
960.5287	2324.6674	5846.45	4963.05
960.6606	2326.0972	5836.45	4955.65
960.7925	2327.5263	5795	4914.25
960.9244	2328.9547	5809.65	4929.2
961.0562	2330.3823	5778.15	4897.55
961.1881	2331.8092	5770.95	4886.6
961.3198	2333.2355	5745.55	4866.05
961.4516	2334.661	5735.05	4853.25
961.5833	2336.0858	5714.5	4834.05
961.715	2337.5098	5702.7	4820.5
961.8467	2338.9332	5712.25	4828.8
961.9783	2340.3558	5671.65	4788.05
962.1099	2341.7778	5643.25	4762.75
962.2415	2343.199	5638.75	4757.2
962.373	2344.6195	5627.45	4747.55
962.5045	2346.0393	5606.15	4726.6
962.636	2347.4583	5612.3	4730.15
962.7675	2348.8767	5589.2	4708.85
962.8989	2350.2943	5565.35	4683.45
963.0303	2351.7113	5554.7	4675.55
963.1617	2353.1275	5551.75	4669.75
963.293	2354.543	5525.4	4637.7
963.4243	2355.9578	5513.3	4634.15
963.5556	2357.3718	5481.05	4599.85
963.6868	2358.7852	5436.5	4553.45
963.818	2360.1978	5436.8	4554.85
963.9492	2361.6098	5428.95	4550.05
964.0803	2363.021	5414.25	4530.25
964.2114	2364.4315	5408.5	4526.95
964.3425	2365.8413	5394.7	4509.4
964.4736	2367.2504	5358.55	4480.3
964.6046	2368.6587	5346.65	4465.7
964.7356	2370.0664	5317.15	4435.8
964.8666	2371.4733	5317.5	4436.9
964.9975	2372.8795	5312.6	4432.4
965.1284	2374.285	5295.55	4411.25
965.2593	2375.6899	5271.15	4391.1
965.3901	2377.0939	5218.25	4336.25
965.5209	2378.4973	5215.3	4336.5
965.6517	2379.9	5218.85	4337.75
965.7825	2381.3019	5197.45	4317.2
965.9132	2382.7032	5175.6	4294.15
966.0439	2384.1037	5171.8	4294.45
966.1745	2385.5035	5161.5	4280.55
966.3051	2386.9027	5140.2	4260.65
966.4357	2388.3011	5146.95	4262.6
966.5663	2389.6987	5122.45	4241.4
966.6968	2391.0957	5099.7	4218.85
966.8273	2392.492	5098.95	4217.65
966.9578	2393.8876	5060.7	4177.7
967.0882	2395.2824	5031	4152.4
967.2186	2396.6765	5025.8	4146.6
967.349	2398.07	5017.25	4136.95
967.4793	2399.4627	5003.35	4122.6
967.6097	2400.8547	4981.6	4101.2
967.7399	2402.246	4965.4	4077.2
967.8702	2403.6366	4944.9	4063.7
968.0004	2405.0265	4912.05	4031.35
968.1306	2406.4156	4904.5	4018.35
968.2607	2407.8041	4884.9	3999.4
968.3909	2409.1918	4865.75	3980.5
968.521	2410.5789	4847.65	3964.7
968.651	2411.9652	4840.15	3956.35
968.781	2413.3508	4836.45	3955.3
968.911	2414.7358	4812.9	3931.5
969.041	2416.12	4798.95	3918.7
969.1709	2417.5035	4777.4	3895.25
969.3008	2418.8863	4774.8	3893.2
969.4307	2420.2684	4765.5	3882.8
969.5606	2421.6497	4730.15	3847.85
969.6904	2423.0304	4710.15	3828.65
969.8201	2424.4104	4694.35	3812.9
969.9499	2425.7896	4685.3	3800.65
970.0796	2427.1682	4668.8	3788.15
970.2093	2428.546	4657.85	3774.15
970.3389	2429.9232	4656	3773.55
970.4685	2431.2996	4633.05	3751.55
970.5981	2432.6753	4619.9	3737.5
970.7277	2434.0503	4610.15	3728.85
970.8572	2435.4246	4598.1	3716.95
970.9867	2436.7982	4594.8	3712.35
971.1161	2438.1711	4572.3	3691.1
971.2456	2439.5433	4568.95	3687.2
971.375	2440.9148	4525.95	3639.1
971.5043	2442.2856	4520.65	3641.05
971.6336	2443.6557	4513.65	3629.35
971.7629	2445.025	4498.35	3617.5
971.8922	2446.3937	4496	3615
972.0214	2447.7617	4480.9	3600.35
972.1506	2449.1289	4485.5	3604.95
972.2798	2450.4955	4472.2	3588.9
972.4089	2451.8613	4443.6	3561.7
972.538	2453.2265	4429.9	3549.6
972.6671	2454.5909	4437.35	3554.3
972.7961	2455.9546	4410.35	3528.75
972.9251	2457.3177	4396.1	3514.2
973.0541	2458.68	4386.6	3503.3
973.1831	2460.0416	4379.35	3498.4
973.312	2461.4025	4366.7	3485.05
973.4408	2462.7627	4352.6	3458.2
973.5697	2464.1222	4352.9	3473.8
973.6985	2465.4811	4322.25	3441.5
973.8273	2466.8392	4331.75	3453.25
973.956	2468.1966	4305.45	3421.5
974.0847	2469.5533	4299.4	3415.7
974.2134	2470.9093	4300.9	3419.05
974.3421	2472.2645	4278.8	3397.35
974.4707	2473.6191	4274.3	3391.95
974.5993	2474.973	4257	3375.65
974.7278	2476.3262	4236.7	3354.55
974.8563	2477.6787	4220.15	3339.9
974.9848	2479.0305	4212.3	3330.55
975.1132	2480.3816	4202	3320.05
975.2417	2481.7319	4187.7	3307.15
975.37	2483.0816	4161.95	3280.35
975.4984	2484.4306	4163.05	3283.55
975.6267	2485.7789	4137.75	3257.25
975.755	2487.1264	4132.35	3250.65
975.8833	2488.4733	4119.45	3240.3
976.0115	2489.8195	4106.7	3217.85
976.1397	2491.165	4096.25	3213.65
976.2678	2492.5097	4090.05	3208.15
976.3959	2493.8538	4077.8	3197.6
976.524	2495.1972	4046.85	3165
976.6521	2496.5398	4026.2	3143.4
976.7801	2497.8818	4027.5	3144.5
976.9081	2499.2231	3995.2	3115.05
977.036	2500.5637	3997.2	3114.95
977.164	2501.9035	3971.85	3090.2
977.2918	2503.2427	3976.45	3089.35
977.4197	2504.5812	3983.35	3101.2
977.5475	2505.919	3953.7	3069.7
977.6753	2507.256	3941.8	3061.75
977.8031	2508.5924	3922.55	3041.05
977.9308	2509.9281	3923.85	3036.2
978.0585	2511.2631	3903.85	3024
978.1861	2512.5974	3896.15	3015
978.3137	2513.9309	3864.2	2982.4
978.4413	2515.2638	3889.95	2981.5
978.5689	2516.596	3854.9	2972.95
978.6964	2517.9275	3841.7	2960.4
978.8239	2519.2583	3846.9	2966.6
978.9513	2520.5884	3820.6	2937.85
979.0788	2521.9178	3821.9	2941.35
979.2062	2523.2465	3798.8	2919.5
979.3335	2524.5745	3783.35	2901.4
979.4608	2525.9018	3779.25	2899.7
979.5881	2527.2284	3766.7	2886.9
979.7154	2528.5543	3753.9	2874.4
979.8426	2529.8796	3744.7	2863.25
979.9698	2531.2041	3737.4	2857
980.0969	2532.5279	3739.25	2857.95
980.224	2533.851	3723.2	2842
980.3511	2535.1735	3723.15	2842.5
980.4781	2536.4952	3718.9	2837
980.6052	2537.8163	3696.25	2815.5
980.7321	2539.1366	3684.25	2804.35
980.8591	2540.4562	3683.8	2802.95
980.986	2541.7752	3670.1	2789
981.1129	2543.0935	3659.25	2778.25
981.2397	2544.411	3651.8	2770.45
981.3665	2545.7279	3654.7	2774.4
981.4933	2547.0441	3644.9	2763.4
981.62	2548.3596	3646.55	2765
981.7467	2549.6744	3620.1	2738.55
981.8734	2550.9885	3628.35	2741.05
982.0001	2552.3019	3610.95	2729.95
982.1267	2553.6146	3618.4	2736.5
982.2532	2554.9266	3600.4	2717.3
982.3798	2556.2379	3576.4	2693.85
982.5063	2557.5485	3563.6	2683.45
982.6327	2558.8585	3575	2688.25
982.7592	2560.1677	3554.5	2669.1
982.8856	2561.4762	3577.05	2696.5
983.0119	2562.7841	3549.25	2664.3
983.1383	2564.0913	3539.2	2658.45
983.2646	2565.3977	3526.75	2645.95
983.3908	2566.7035	3530.2	2648.45
983.517	2568.0086	3525.2	2643.3
983.6432	2569.313	3523.6	2644.15
983.7694	2570.6167	3510.4	2627.25
983.8955	2571.9197	3489.55	2610.7
984.0216	2573.222	3499.5	2617.05
984.1476	2574.5236	3485.95	2604.8
984.2737	2575.8246	3464.3	2579.1
984.3996	2577.1248	3461.35	2578.05
984.5256	2578.4244	3463.85	2583.8
984.6515	2579.7232	3461.4	2579.95
984.7774	2581.0214	3468.1	2561.3
984.9032	2582.3189	3447.15	2567.95
985.029	2583.6157	3446	2559.4
985.1548	2584.9118	3438.9	2559.7
985.2806	2586.2072	3422.9	2542.45
985.4063	2587.5019	3409.2	2530.8
985.5319	2588.7959	3398.75	2516.9
985.6576	2590.0893	3401.55	2519.8
985.7832	2591.3819	3389.3	2509.3
985.9087	2592.6739	3371.05	2489.6
986.0343	2593.9652	3374.05	2494.05
986.1597	2595.2557	3346.05	2464.9
986.2852	2596.5456	3342.95	2459.9
986.4106	2597.8348	3337.3	2457.6
986.536	2599.1234	3323.85	2441.15
986.6614	2600.4112	3307.05	2426.75
986.7867	2601.6983	3298.45	2413.4
986.912	2602.9848	3297.45	2415.15
987.0372	2604.2705	3294.75	2408.95
987.1624	2605.5556	3276.15	2394.75
987.2876	2606.84	3290.75	2411.2
987.4128	2608.1237	3249.15	2366.35
987.5379	2609.4067	3247.95	2366.45
987.6629	2610.689	3235.35	2346.25
987.788	2611.9707	3231.6	2346.55
987.913	2613.2516	3229.4	2344.15
988.0379	2614.5319	3196.4	2317.75
988.1629	2615.8115	3185.6	2303.65
988.2878	2617.0903	3173.05	2292.45
988.4126	2618.3685	3179.5	2298.65
988.5375	2619.6461	3169.2	2290.15
988.6622	2620.9229	3150.2	2271.3
988.787	2622.199	3149.3	2267.25
988.9117	2623.4745	3146.3	2265.7
989.0364	2624.7493	3133.7	2252.65
989.161	2626.0234	3117.9	2237.45
989.2857	2627.2968	3101.4	2220.15
989.4102	2628.5695	3101.95	2219.05
989.5348	2629.8415	3099.5	2219
989.6593	2631.1128	3068.5	2185.2
989.7837	2632.3835	3067.15	2186.6
989.9082	2633.6535	3049.8	2170.1
990.0326	2634.9228	3055.95	2174.9
990.1569	2636.1914	3030.95	2149.25
990.2812	2637.4593	3049.95	2161.25
990.4055	2638.7265	3030.3	2147.3
990.5298	2639.9931	3021.85	2142.85
990.654	2641.259	3014.7	2132.65
990.7782	2642.5242	2997.65	2117.45
990.9023	2643.7887	2985	2102.45
991.0264	2645.0525	2971.8	2093.55
991.1505	2646.3156	2985.3	2105.05
991.2745	2647.5781	2973.8	2094.1
991.3985	2648.8398	2962.85	2080.75
991.5225	2650.1009	2995.15	2076.3
991.6464	2651.3613	2951.15	2069.35
991.7703	2652.6211	2934	2054.45
991.8942	2653.8801	2934	2053.8
992.018	2655.1385	2922	2039.35
992.1418	2656.3961	2910.8	2032.1
992.2655	2657.6531	2907.75	2026.95
992.3892	2658.9094	2896.35	2016.05
992.5129	2660.1651	2906.05	2024.6
992.6366	2661.42	2903.35	2021.4
992.7602	2662.6743	2883.9	2002.5
992.8837	2663.9279	2884	2002.25
993.0073	2665.1808	2862	1980.75
993.1307	2666.433	2868.75	1986.35
993.2542	2667.6846	2853.15	1972.05
993.3776	2668.9354	2854.15	1970.8
993.501	2670.1856	2848.65	1965.75
993.6244	2671.4351	2835.5	1955.05
993.7477	2672.6839	2834.5	1952.05
993.8709	2673.9321	2826.85	1947.05
993.9942	2675.1795	2820.95	1939.95
994.1174	2676.4263	2801.85	1919.5
994.2405	2677.6724	2791.45	1911.05
994.3637	2678.9179	2779	1895.75
994.4868	2680.1626	2774.55	1893.3
994.6098	2681.4067	2772.9	1892
994.7328	2682.6501	2781.4	1900.15
994.8558	2683.8928	2765.85	1886.55
994.9788	2685.1348	2763	1883.2
995.1017	2686.3761	2756.1	1874.35
995.2245	2687.6168	2737.15	1857
995.3474	2688.8568	2752.1	1870.85
995.4702	2690.0961	2735.1	1854.9
995.5929	2691.3348	2722.75	1842.2
995.7156	2692.5727	2716.6	1837.75
995.8383	2693.81	2696.5	1817.55
995.961	2695.0466	2702.05	1822.75
996.0836	2696.2826	2686.95	1804.8
996.2062	2697.5178	2708.35	1807.65
996.3287	2698.7524	2680.1	1800.25
996.4512	2699.9863	2680.25	1796.8
996.5737	2701.2195	2657.1	1776.45
996.6961	2702.452	2660.7	1777.55
996.8185	2703.6839	2656.15	1773.65
996.9408	2704.9151	2639.65	1759.45
997.0631	2706.1456	2636.95	1755.45
997.1854	2707.3755	2624.05	1742.4
997.3077	2708.6046	2622.3	1738.15
997.4299	2709.8331	2610.75	1730.45
997.552	2711.0609	2612.85	1730
997.6742	2712.2881	2606.2	1726.2
997.7963	2713.5145	2600	1716.85
997.9183	2714.7403	2584.75	1704.5
998.0403	2715.9654	2579.25	1697.25
998.1623	2717.1899	2575.25	1681.1
998.2842	2718.4136	2572.9	1694.05
998.4062	2719.6367	2559.4	1679.35
998.528	2720.8591	2560.1	1671.85
998.6498	2722.0809	2550.75	1667.3
998.7716	2723.3019	2542.65	1656.9
998.8934	2724.5223	2538.65	1656.1
999.0151	2725.7421	2531.45	1649.3
999.1368	2726.9611	2512.35	1628.45
999.2584	2728.1795	2518.3	1634.15
999.38	2729.3972	2497.8	1617
999.5016	2730.6142	2499.8	1610.25
999.6231	2731.8306	2488.2	1605.2
999.7446	2733.0462	2478.9	1595.65
999.8661	2734.2612	2482.45	1596.3
999.9875	2735.4756	2473.85	1590.35
1000.1089	2736.6892	2455.75	1575.3
1000.2302	2737.9022	2439.8	1560.45
1000.3515	2739.1145	2441.2	1560.25
1000.4728	2740.3262	2443.35	1554.4
1000.594	2741.5372	2438.3	1559.5
1000.7152	2742.7475	2429	1548.5
1000.8363	2743.9571	2419.9	1537.35
1000.9575	2745.1661	2407.55	1523.9
1001.0785	2746.3744	2409.2	1529.45
1001.1996	2747.582	2389.45	1506.65
1001.3206	2748.7889	2387.05	1505.15
1001.4415	2749.9952	2376.55	1495.6
1001.5625	2751.2008	2385.05	1501.95
1001.6833	2752.4057	2365.95	1483.4
1001.8042	2753.61	2364.9	1482.2
1001.925	2754.8136	2362.6	1478.35
1002.0458	2756.0165	2352.1	1470.75
1002.1665	2757.2188	2354.4	1474.05
1002.2872	2758.4204	2341.85	1460.35
1002.4078	2759.6213	2339.75	1457.35
1002.5285	2760.8215	2347.95	1463.5
1002.649	2762.0211	2329.7	1445.95
1002.7696	2763.22	2325.6	1441.35
1002.8901	2764.4182	2322.15	1440.45
1003.0106	2765.6158	2309.65	1426.8
1003.131	2766.8127	2295.2	1414.25
1003.2514	2768.009	2287.95	1406.15
1003.3717	2769.2045	2295.5	1414
1003.492	2770.3994	2286.5	1404.1
1003.6123	2771.5936	2275.75	1393.7
1003.7325	2772.7872	2271.6	1392
1003.8527	2773.9801	2264.65	1381.5
1003.9729	2775.1723	2272.95	1374.8
1004.093	2776.3639	2251.25	1372.55
1004.2131	2777.5548	2232.35	1349.6
1004.3331	2778.745	2240.8	1360.15
1004.4531	2779.9346	2238.1	1359.7
1004.5731	2781.1235	2238.1	1355.55
1004.693	2782.3117	2223.7	1344.55
1004.8129	2783.4992	2213	1332.75
1004.9328	2784.6861	2219	1339.75
1005.0526	2785.8723	2217.15	1336.05
1005.1723	2787.0579	2205.9	1324.3
1005.2921	2788.2428	2191.55	1312
1005.4118	2789.427	2191.8	1313.05
1005.5314	2790.6106	2196.3	1316.85
1005.651	2791.7935	2183.05	1300.45
1005.7706	2792.9757	2174.25	1294.65
1005.8902	2794.1573	2171.35	1286.75
1006.0097	2795.3382	2168.1	1285.4
1006.1291	2796.5184	2163.25	1285.25
1006.2485	2797.698	2157.7	1276.45
1006.3679	2798.8769	2153.25	1271.9
1006.4873	2800.0551	2142.7	1263.2
1006.6066	2801.2327	2138.75	1256.2
1006.7258	2802.4096	2129.95	1250.7
1006.8451	2803.5859	2118.6	1236.65
1006.9642	2804.7615	2124.9	1242.5
1007.0834	2805.9364	2110.4	1230.7
1007.2025	2807.1106	2108.8	1226.45
1007.3216	2808.2842	2101.45	1220.35
1007.4406	2809.4572	2103.3	1223.9
1007.5596	2810.6294	2108.3	1226.95
1007.6785	2811.801	2098.7	1219.45
1007.7975	2812.972	2087.4	1205.4
1007.9163	2814.1423	2095.8	1215.6
1008.0352	2815.3119	2089.45	1208.65
1008.154	2816.4808	2083.9	1205.05
1008.2727	2817.6491	2083.85	1201.95
1008.3914	2818.8167	2072.35	1193
1008.5101	2819.9837	2091.5	1206.65
1008.6288	2821.15	2078.15	1196.95
1008.7474	2822.3157	2090.6	1210.6
1008.8659	2823.4807	2096.5	1215.75
1008.9844	2824.645	2094	1213.15
1009.1029	2825.8086	2094.9	1213.45
1009.2214	2826.9716	2106.05	1226.7
1009.3398	2828.134	2109.05	1227.5
1009.4581	2829.2957	2112.45	1233.75
1009.5764	2830.4567	2124.85	1246.7
1009.6947	2831.617	2118.55	1239.35
1009.813	2832.7767	2121.95	1243.15
1009.9312	2833.9358	2106.1	1226.7
1010.0493	2835.0941	2103.6	1220.75
1010.1675	2836.2519	2105.25	1225.9
1010.2855	2837.4089	2092.7	1209.4
1010.4036	2838.5653	2091.95	1214.3
1010.5216	2839.7211	2082.6	1202.25
1010.6396	2840.8761	2083.45	1200.9
1010.7575	2842.0306	2073.25	1195.35
1010.8754	2843.1843	2069.25	1189.05
1010.9932	2844.3374	2069.1	1187.35
1011.111	2845.4899	2065.3	1182.75
1011.2288	2846.6417	2059.65	1181.1
1011.3465	2847.7928	2068.15	1187.75
1011.4642	2848.9433	2060.8	1180.4
1011.5818	2850.0931	2056	1175.95
1011.6995	2851.2422	2058.2	1177.3
1011.817	2852.3907	2042.35	1161.6
1011.9345	2853.5385	2052.05	1172.6
1012.052	2854.6857	2057.75	1167.4
1012.1695	2855.8323	2043.05	1163.85
1012.2869	2856.9781	2042.85	1162.4
1012.4042	2858.1233	2046.4	1165.4
1012.5216	2859.2679	2044.4	1164.5
1012.6389	2860.4118	2043.65	1163.15
1012.7561	2861.555	2035.45	1151.5
1012.8733	2862.6976	2040.3	1159
1012.9905	2863.8395	2032.25	1152.45
1013.1076	2864.9808	2030.95	1151.4
1013.2247	2866.1214	2037	1157.65
1013.3417	2867.2614	2029.7	1149.8
1013.4587	2868.4007	2029.5	1147.7
1013.5757	2869.5393	2037.3	1153.4
1013.6926	2870.6773	2036.05	1152.1
1013.8095	2871.8146	2030.1	1145.5
1013.9263	2872.9513	2012.9	1130.4
1014.0431	2874.0874	2015.3	1136.45
1014.1599	2875.2227	2009.2	1128.45
1014.2766	2876.3574	2009.7	1129.15
1014.3933	2877.4915	2010.2	1129.95
1014.51	2878.6249	1994.9	1116.8
1014.6266	2879.7577	2004.45	1123.5
1014.7431	2880.8898	2013.75	1123.95
1014.8596	2882.0212	2004.9	1126.5
1014.9761	2883.152	2007.4	1126.4
1015.0925	2884.2821	1991.15	1111.35
1015.2089	2885.4116	1981.9	1099.7
1015.3253	2886.5405	1991.05	1110.65
1015.4416	2887.6686	1991.35	1108
1015.5579	2888.7962	1978.65	1099.2
1015.6741	2889.923	1973.45	1092.6
1015.7903	2891.0493	1974.4	1094.45
1015.9065	2892.1748	1974.35	1093.65
1016.0226	2893.2997	1969.4	1087.6
1016.1387	2894.424	1958.05	1079.8
1016.2547	2895.5476	1944.7	1064.5
1016.3707	2896.6706	1953.2	1072.7
1016.4866	2897.7929	1949.05	1067.5
1016.6025	2898.9145	1947.65	1066.7
1016.7184	2900.0355	1942.3	1060.7
1016.8342	2901.1559	1933.75	1051.65
1016.95	2902.2756	1936.8	1055.85
1017.0658	2903.3946	1919.75	1041.25
1017.1815	2904.513	1917.7	1034.65
1017.2971	2905.6308	1910.9	1030.7
1017.4127	2906.7479	1916.4	1034.95
1017.5283	2907.8643	1903.6	1023.7
1017.6439	2908.9801	1895.35	1013.35
1017.7594	2910.0953	1901.75	1020.6
1017.8748	2911.2098	1892.7	1007.8
1017.9902	2912.3236	1889.9	1000.4
1018.1056	2913.4368	1891.4	1009.2
1018.2209	2914.5494	1875.35	995.2
1018.3362	2915.6613	1883.45	997.85
1018.4515	2916.7725	1867.8	984.5
1018.5667	2917.8831	1870.55	990.1
1018.6819	2918.9931	1855.3	971.25
1018.797	2920.1024	1849.45	967.4
1018.9121	2921.211	1859.55	981.7
1019.0271	2922.319	1841.85	962.75
1019.1421	2923.4264	1827.9	947.4
1019.2571	2924.5331	1835.85	956.85
1019.372	2925.6391	1826.35	947.6
1019.4869	2926.7445	1824.65	946.6
1019.6017	2927.8493	1833.2	953.5
1019.7165	2928.9534	1824.5	943.05
1019.8313	2930.0569	1820.4	937
1019.946	2931.1597	1816.25	935.5
1020.0606	2932.2619	1819.8	938.75
1020.1753	2933.3634	1818.75	938.55
1020.2899	2934.4643	1825.25	939.2
1020.4044	2935.5645	1819.9	933
1020.5189	2936.6641	1804.9	923.05
1020.6334	2937.763	1810.65	929.4
1020.7478	2938.8613	1809.55	930.8
1020.8622	2939.959	1803.65	918.45
1020.9765	2941.056	1791.85	912.9
1021.0908	2942.1523	1785.55	904.2
1021.2051	2943.248	1767.85	887.4
1021.3193	2944.3431	1760.85	880.35
1021.4334	2945.4375	1754.85	872.3
1021.5476	2946.5313	1738.2	859.6
1021.6617	2947.6244	1721.7	841.6
1021.7757	2948.7169	1718.15	836.4
1021.8897	2949.8087	1702.35	822.5
1022.0037	2950.8999	1694.25	812.4
1022.1176	2951.9904	1681.2	803.95
1022.2315	2953.0803	1685.55	805.85
1022.3453	2954.1696	1660.5	779.15
1022.4591	2955.2582	1655.15	774.9
1022.5728	2956.3462	1654.25	772.55
1022.6865	2957.4335	1650.75	770.85
1022.8002	2958.5202	1643.75	762.55
1022.9138	2959.6062	1627.25	747.4
1023.0274	2960.6916	1631.4	752.75
1023.141	2961.7764	1639.5	758.85
1023.2545	2962.8605	1626.35	744.65
1023.3679	2963.9439	1622.15	743.95
1023.4813	2965.0267	1620.4	736.75
1023.5947	2966.1089	1642.6	738.75
1023.708	2967.1905	1623.25	743.65
1023.8213	2968.2714	1609.2	731.7
1023.9346	2969.3516	1602.55	722.25
1024.0478	2970.4312	1606.35	718.9
1024.1609	2971.5102	1600.75	719.75
1024.274	2972.5885	1596.7	714.9
1024.3871	2973.6662	1603.3	717.9
1024.5002	2974.7432	1596	716.85
1024.6132	2975.8196	1593.85	713.1
1024.7261	2976.8954	1588.6	708.25
1024.839	2977.9705	1586.8	706.55
1024.9519	2979.045	1579.05	699.6
1025.0647	2980.1188	1579	698.9
1025.1775	2981.192	1577.05	698.55
1025.2902	2982.2645	1566.1	685.45
1025.4029	2983.3364	1558.5	677.6
1025.5156	2984.4077	1557.35	677.8
1025.6282	2985.4783	1555.45	670.2
1025.7407	2986.5483	1551.2	671.9
1025.8532	2987.6177	1545.25	667.65
1025.9657	2988.6864	1542.15	661.15
1026.0782	2989.7545	1538	657.1
1026.1906	2990.8219	1534.75	656.5
1026.3029	2991.8887	1528.05	645.7
1026.4152	2992.9548	1513.25	632.45
1026.5275	2994.0204	1516.35	635.85
1026.6397	2995.0852	1499.15	619.55
1026.7519	2996.1495	1504.1	623.35
1026.864	2997.2131	1493	612.05
1026.9761	2998.276	1486.6	607.55
1027.0882	2999.3383	1485.45	604.4
1027.2002	3000.4	1489.3	607.55
1027.3122	3001.4611	1487	606.35
1027.4241	3002.5215	1477.7	598.1
1027.536	3003.5812	1471	589.45
1027.6478	3004.6404	1468.6	588.9
1027.7596	3005.6989	1462.9	580
1027.8714	3006.7567	1462.35	582.55
1027.9831	3007.8139	1475.7	573.65
1028.0947	3008.8705	1457.1	577.05
1028.2064	3009.9264	1455.85	571.8
1028.3179	3010.9818	1448.1	566.3
1028.4295	3012.0364	1448.85	569.25
1028.541	3013.0905	1438.15	558
1028.6524	3014.1439	1446.95	567.9
1028.7638	3015.1966	1436.5	554.2
1028.8752	3016.2487	1436.9	556.3
1028.9865	3017.3002	1435.65	550.8
1029.0978	3018.3511	1426.35	547.15
1029.209	3019.4013	1421.55	541.1
1029.3202	3020.4509	1419.55	540.65
1029.4314	3021.4998	1423.15	542.15
1029.5425	3022.5481	1415.85	537.1
1029.6535	3023.5958	1416.2	537.45
1029.7645	3024.6428	1412.7	530.45
1029.8755	3025.6892	1412.25	535.4
1029.9864	3026.735	1412.05	529.5
1030.0973	3027.7802	1407	526.85
1030.2082	3028.8247	1400.35	519.65
1030.319	3029.8685	1405.95	525.05
1030.4297	3030.9118	1398.1	517.5
1030.5404	3031.9544	1395.15	516
1030.6511	3032.9963	1386	506.05
1030.7617	3034.0376	1395	515.1
1030.8723	3035.0783	1395.05	511.6
1030.9829	3036.1184	1391.2	509.2
1031.0934	3037.1578	1385.1	506.7
1031.2038	3038.1966	1387.2	505.2
1031.3142	3039.2348	1379.6	500.85
1031.4246	3040.2723	1384.4	495.25
1031.5349	3041.3092	1379.55	500.75
1031.6452	3042.3455	1375.25	493.85
1031.7554	3043.3811	1370.45	491.5
1031.8656	3044.4161	1371.15	490.65
1031.9758	3045.4505	1367.6	489.75
1032.0859	3046.4842	1364.7	484.1
1032.1959	3047.5173	1362.5	485.35
1032.3059	3048.5498	1360.6	480.85
1032.4159	3049.5816	1365.2	484.85
1032.5258	3050.6128	1357.3	475.65
1032.6357	3051.6434	1359.4	475.6
1032.7455	3052.6734	1358.45	477.75
1032.8553	3053.7027	1347.85	466.4
1032.9651	3054.7314	1351.35	472.5
1033.0748	3055.7594	1351.9	472.4
1033.1845	3056.7868	1350.15	470.15
1033.2941	3057.8136	1351.2	470.85
1033.4037	3058.8398	1341.95	462.45
1033.5132	3059.8653	1341.15	458.85
1033.6227	3060.8902	1340.55	460.55
1033.7321	3061.9145	1342.75	461.7
1033.8415	3062.9381	1335.5	455.55
1033.9509	3063.9612	1355.15	458.8
1034.0602	3064.9835	1331.65	451.65
1034.1694	3066.0053	1339.25	459.65
1034.2787	3067.0264	1337.55	457.1
1034.3878	3068.0469	1332.55	449.4
1034.497	3069.0668	1329.4	446.55
1034.6061	3070.086	1324.45	446.15
1034.7151	3071.1046	1324.25	444.45
1034.8241	3072.1226	1329.35	447.25
1034.9331	3073.1399	1327.1	446.7
1035.042	3074.1567	1321.9	440.4
1035.1508	3075.1727	1322.4	442.3
1035.2597	3076.1882	1310.2	430.5
1035.3684	3077.203	1308.1	427.75
1035.4772	3078.2173	1311.5	430.95
1035.5859	3079.2308	1307.4	423.2
1035.6945	3080.2438	1307.3	425.1
1035.8031	3081.2561	1307.65	425.95
1035.9117	3082.2678	1299.45	419.65
1036.0202	3083.2789	1299.6	418.85
1036.1286	3084.2893	1295.8	415
1036.2371	3085.2991	1290.9	411.65
1036.3454	3086.3083	1299.1	414.05
1036.4538	3087.3169	1295.2	415.7
1036.562	3088.3248	1290.8	407.15
1036.6703	3089.3321	1295.05	414.35
1036.7785	3090.3388	1281.65	400.95
1036.8866	3091.3449	1277	396.9
1036.9948	3092.3503	1282.2	398.75
1037.1028	3093.3551	1280.8	401.6
1037.2108	3094.3593	1282.3	403.25
1037.3188	3095.3629	1275	395.85
1037.4267	3096.3658	1277.15	394
1037.5346	3097.3681	1269.15	392.05
1037.6425	3098.3698	1265.95	384.7
1037.7503	3099.3708	1270.05	380.9
1037.858	3100.3713	1262.3	382.5
1037.9657	3101.3711	1257.95	374.8
1038.0734	3102.3702	1387.25	374.15
1038.181	3103.3688	1265.95	384.15
1038.2886	3104.3667	1256.2	378.05
1038.3961	3105.364	1254.4	374.55
1038.5036	3106.3607	1253.65	370.8
1038.611	3107.3568	1254.7	373.7
1038.7184	3108.3522	1240.25	361.75
1038.8257	3109.347	1246.4	366.35
1038.933	3110.3412	1246.35	362.25
1039.0403	3111.3348	1241.75	363.65
1039.1475	3112.3277	1236.05	357.65
1039.2547	3113.32	1233.3	354.05
1039.3618	3114.3117	1232.4	352.2
1039.4689	3115.3028	1231.9	351.5
1039.5759	3116.2932	1226.9	346.95
1039.6829	3117.2831	1229.85	345.3
1039.7898	3118.2723	1226.1	344.8
1039.8967	3119.2608	1221.55	343.3
1040.0035	3120.2488	1220.4	343
1040.1103	3121.2361	1217.2	337.65
1040.2171	3122.2229	1218.2	339.4
1040.3238	3123.209	1219.3	339.5
1040.4305	3124.1944	1213.4	335.4
1040.5371	3125.1793	1211.65	330.45
1040.6437	3126.1635	1207.75	327.95
1040.7502	3127.1471	1214.45	332.35
1040.8567	3128.1301	1206.85	328
1040.9631	3129.1125	1201.3	321.55
1041.0695	3130.0942	1202.75	323.4
1041.1759	3131.0753	1207.9	319.35
1041.2822	3132.0558	1204.65	320.6
1041.3884	3133.0357	1195.55	314
1041.4946	3134.015	1197.15	315.55
1041.6008	3134.9936	1197.2	316.5
1041.7069	3135.9716	1217.1	314.45
1041.813	3136.949	1191.1	311.15
1041.919	3137.9258	1194.25	307.95
1042.025	3138.902	1195.05	311.65
1042.1309	3139.8775	1190.55	312.85
1042.2368	3140.8524	1193.95	313.35
1042.3427	3141.8267	1196.05	314.85
1042.4485	3142.8004	1189.2	308.15
1042.5542	3143.7735	1193.25	308.9
1042.6599	3144.7459	1185.1	302.6
1042.7656	3145.7178	1184.65	303.15
1042.8712	3146.689	1182.85	303.45
1042.9768	3147.6596	1183.35	301.9
1043.0823	3148.6295	1179.4	299.6
1043.1878	3149.5989	1175.6	295.7
1043.2932	3150.5676	1173.95	294.05
1043.3986	3151.5357	1167.55	288
1043.5039	3152.5032	1171.05	292.5
1043.6092	3153.4701	1165.95	286.85
1043.7145	3154.4364	1172.35	290.65
1043.8197	3155.402	1162.8	285.8
1043.9248	3156.367	1162.05	281.15
1044.03	3157.3315	1195.75	278
1044.135	3158.2952	1158.45	276.75
1044.24	3159.2584	1156.85	279.2
1044.345	3160.221	1154.15	273.1
1044.4499	3161.1829	1157.4	277.2
1044.5548	3162.1442	1153.9	274.3
1044.6596	3163.105	1156.4	275.15
1044.7644	3164.065	1156.4	275.95
1044.8692	3165.0245	1155.05	272.45
1044.9739	3165.9834	1149.95	270.95
1045.0785	3166.9416	1151.45	271.65
1045.1831	3167.8993	1139.9	261.5
1045.2877	3168.8563	1144.9	264.05
1045.3922	3169.8127	1145.3	266.65
1045.4966	3170.7684	1140.6	259.8
1045.6011	3171.7236	1141	258.1
1045.7054	3172.6782	1136.9	256.7
1045.8098	3173.6321	1141.1	260.65
1045.914	3174.5854	1138.85	254.3
1046.0183	3175.5381	1133.1	252.9
1046.1224	3176.4902	1133.55	253.25
1046.2266	3177.4417	1130.95	253.9
1046.3307	3178.3926	1128.1	248.05
1046.4347	3179.3428	1126	248.15
1046.5387	3180.2924	1123.95	244.85
1046.6427	3181.2415	1124.7	246.25
1046.7466	3182.1899	1130.85	248.2
1046.8504	3183.1377	1120.4	240.95
1046.9542	3184.0848	1121.35	237.4
1047.058	3185.0314	1118.05	237.15
1047.1617	3185.9773	1118.25	236.4
1047.2654	3186.9227	1115.75	235.4
1047.369	3187.8674	1120.25	238.75
1047.4726	3188.8115	1119.15	234.4
1047.5761	3189.755	1111.05	232.4
1047.6796	3190.6979	1110.65	233.2
1047.783	3191.6402	1108.8	228.7
1047.8864	3192.5818	1111.1	231.85
1047.9898	3193.5229	1118.4	232.7
1048.0931	3194.4633	1109.95	230.45
1048.1963	3195.4031	1105.75	224.75
1048.2995	3196.3423	1105.95	226.3
1048.4027	3197.2809	1106.8	227.2
1048.5058	3198.2189	1102.2	223.4
1048.6089	3199.1563	1104.65	217.3
1048.7119	3200.0931	1098.9	220.55
1048.8148	3201.0292	1101.1	220.1
1048.9178	3201.9648	1096.35	217.1
1049.0206	3202.8997	1099.25	213.85
1049.1235	3203.834	1097.65	216.85
1049.2262	3204.7677	1093.85	214.95
1049.329	3205.7008	1094.65	212.55
1049.4317	3206.6333	1092.55	213.55
1049.5343	3207.5652	1092.4	209.9
1049.6369	3208.4964	1089.4	208.85
1049.7394	3209.4271	1082.65	202.8
1049.8419	3210.3571	1086.9	208.8
1049.9444	3211.2865	1086.1	206.5
1050.0468	3212.2154	1088.55	208.35
1050.1491	3213.1436	1090.5	207.4
1050.2514	3214.0712	1093	206.3
1050.3537	3214.9982	1085.7	205.6
1050.4559	3215.9246	1080.35	198.7
1050.5581	3216.8503	1082.05	202.45
1050.6602	3217.7755	1082.7	201.05
1050.7623	3218.7001	1078.15	198.65
1050.8643	3219.624	1080.35	199.45
1050.9663	3220.5473	1078.15	199.4
1051.0682	3221.4701	1081.25	198.85
1051.1701	3222.3922	1077.4	196.25
1051.2719	3223.3137	1074.65	194.85
1051.3737	3224.2346	1074	194.05
1051.4754	3225.1549	1069.25	189.6
1051.5771	3226.0746	1067.75	186.4
1051.6788	3226.9937	1067.75	187.75
1051.7804	3227.9121	1067.3	188.45
1051.8819	3228.83	1066.75	186.7
1051.9834	3229.7473	1066.65	186.45
1052.0849	3230.6639	1063.9	183.9
1052.1863	3231.5799	1063.4	185.8
1052.2876	3232.4954	1059.9	177.1
1052.3889	3233.4102	1061.95	183.5
1052.4902	3234.3244	1064.05	182.05
1052.5914	3235.238	1061.35	182.45
1052.6926	3236.151	1085.05	178.75
1052.7937	3237.0634	1055.9	177.3
1052.8948	3237.9752	1057.8	178.3
1052.9958	3238.8864	1055.25	175.4
1053.0968	3239.797	1054.4	175.25
1053.1977	3240.7069	1057.3	178.5
1053.2986	3241.6163	1056.2	173.6
1053.3994	3242.5251	1056.4	177
1053.5002	3243.4332	1050.15	171.35
1053.6009	3244.3408	1051.05	170.9
1053.7016	3245.2477	1053.05	173.1
1053.8022	3246.154	1053.2	172.45
1053.9028	3247.0598	1048.4	166.75
1054.0034	3247.9649	1043.8	163
1054.1039	3248.8694	1046.55	166.7
1054.2043	3249.7733	1044.05	163.95
1054.3047	3250.6766	1043.2	164.5
1054.4051	3251.5793	1042.45	160.3
1054.5054	3252.4814	1039.6	159.65
1054.6056	3253.3829	1040.15	162.6
1054.7058	3254.2838	1036.95	156.55
1054.806	3255.1841	1038.2	159.1
1054.9061	3256.0838	1036.5	157.8
1055.0061	3256.9829	1034.9	155.5
1055.1062	3257.8814	1035	153.55
1055.2061	3258.7792	1036.55	154.1
1055.306	3259.6765	1032.15	150.5
1055.4059	3260.5731	1027.25	146.55
1055.5057	3261.4692	1026.7	146.4
1055.6055	3262.3647	1025.35	144.7
1055.7052	3263.2595	1023.7	144.6
1055.8049	3264.1538	1025.9	146.65
1055.9045	3265.0474	1017.15	135.6
1056.0041	3265.9404	1017.45	137.75
1056.1036	3266.8329	1016.45	137.5
1056.2031	3267.7247	1023.55	132.8
1056.3025	3268.616	1007.95	131.45
1056.4019	3269.5066	1004.7	125
1056.5013	3270.3966	1003.25	119.85
1056.6005	3271.286	994.25	113.8
