Software Version:	3.9.2.0
Unit SN:	10000200
Spectrometer SN:	6960
Date:	3/6/2024 11:04:52 AM
Data Line Index:	25
Spectral Points:	2048
Integration time (ms):	125
Averages:	20
Delay (ms):	30
Sequence Number:	1
Processing:	dark subtract
Laser Power (mW):	300
Laser Current (mA):	821
Laser Diode Temp (C):	25
Laser Case Temp (C):	28.4
System Temp (C):	28.2
Spectrometer Temp (C):	25.7
CCD Temp (C):	0.002
Secondary Temp (C):	20.01
Heatsink Temp (C):	23.966
CCDPCB Temp (C):	37.352
SecondaryPCB Temp (C):	34.929

Wavelength	RamanShift	Raw Counts	Dark Subtracted
787.061	30.1047	1117	704.65
787.2016	32.3739	1150.6	741.5
787.3422	34.6426	1196.75	785.35
787.4828	36.9109	1243.05	829.8
787.6235	39.1787	1294	878.8
787.7642	41.4461	1352.5	930.1
787.9049	43.7131	1413.6	987.45
788.0456	45.9796	1486.65	1056.75
788.1863	48.2456	1549.85	1116.75
788.3271	50.5112	1629.5	1193.4
788.4679	52.7764	1693.55	1253.4
788.6087	55.0411	1775.75	1333.05
788.7496	57.3054	1848.55	1398.35
788.8904	59.5692	1940.5	1488.5
789.0313	61.8326	2050.25	1593.05
789.1722	64.0955	2158.8	1698.65
789.3132	66.3579	2278.35	1811.9
789.4541	68.6199	2426.7	1958.25
789.5951	70.8815	2671.5	2201.1
789.7361	73.1426	3180.15	2704.2
789.8771	75.4032	4440.05	3958.2
790.0181	77.6634	7655	7170.1
790.1592	79.9231	16018.35	15527.9
790.3003	82.1824	52594.25	52097.7
790.4414	84.4412	65535	65020.35
790.5825	86.6995	65535	64998.95
790.7237	88.9574	65535	64981.3
790.8648	91.2148	65535	64966.2
791.006	93.4717	65535	64959.7
791.1472	95.7282	65535	64954.4
791.2885	97.9842	65535	64950.7
791.4297	100.2398	65535	64947.55
791.571	102.4949	65535	64943.15
791.7123	104.7495	65535	64938
791.8536	107.0036	65535	64935.65
791.9949	109.2573	65535	64938.35
792.1363	111.5105	65535	64935.9
792.2777	113.7632	65535	64939.45
792.4191	116.0154	65535	64924.95
792.5605	118.2672	65535	64932.55
792.7019	120.5185	65535	64930.05
792.8434	122.7693	65535	64925.85
792.9849	125.0197	65535	64924.1
793.1264	127.2696	65535	64920.1
793.2679	129.519	65535	64917.65
793.4094	131.7679	65535	64916.25
793.551	134.0163	65535	64913.85
793.6926	136.2642	65535	64906.65
793.8342	138.5117	65535	64898.1
793.9758	140.7587	65535	64905.95
794.1175	143.0052	65535	64901.5
794.2591	145.2512	65535	64903.35
794.4008	147.4967	65535	64901.4
794.5425	149.7417	65535	64899.4
794.6842	151.9863	65535	64896.2
794.826	154.2304	65535	64891.85
794.9677	156.4739	65535	64883.05
795.1095	158.717	65535	64885.45
795.2513	160.9596	65535	64881.2
795.3931	163.2017	65535	64876
795.535	165.4433	65535	64877.55
795.6768	167.6844	65535	64874.7
795.8187	169.925	65535	64872.55
795.9606	172.1651	65535	64869.85
796.1025	174.4047	65535	64869.35
796.2445	176.6439	65535	64863.95
796.3864	178.8825	65535	64862.3
796.5284	181.1206	65535	64856.85
796.6704	183.3582	65535	64854.8
796.8124	185.5954	65535	64851.15
796.9544	187.832	65535	64848.65
797.0965	190.0681	65535	64845.45
797.2386	192.3037	65535	64841.8
797.3806	194.5388	65535	64837.95
797.5228	196.7734	65535	64840.6
797.6649	199.0075	65535	64836.25
797.807	201.2411	65535	64830.25
797.9492	203.4742	65535	64833.2
798.0914	205.7068	65535	64830.75
798.2336	207.9389	65535	64830.2
798.3758	210.1704	65535	64826.25
798.518	212.4015	65535	64821.65
798.6603	214.632	65535	64822.95
798.8025	216.862	65535	64831.35
798.9448	219.0915	65535	64839.3
799.0871	221.3205	65535	64843.4
799.2294	223.549	65535	64842.2
799.3718	225.777	65535	64847.7
799.5141	228.0044	65535	64842.4
799.6565	230.2314	65535	64846.7
799.7989	232.4578	65535	64845.85
799.9413	234.6837	65535	64836.55
800.0837	236.909	65535	64833.4
800.2262	239.1339	65535	64809.65
800.3687	241.3582	65535	64826.05
800.5111	243.582	65535	64793
800.6536	245.8053	65535	64805.8
800.7961	248.0281	65535	64811.8
800.9387	250.2503	65535	64806.3
801.0812	252.472	65535	64802.3
801.2238	254.6932	65535	64799.2
801.3664	256.9139	65535	64796.2
801.509	259.134	65535	64794.6
801.6516	261.3536	65535	64794.35
801.7942	263.5727	65535	64794.65
801.9369	265.7912	65535	64797.05
802.0795	268.0092	65535	64794.65
802.2222	270.2267	65535	64793.95
802.3649	272.4436	65535	64790.25
802.5076	274.6601	65535	64781.3
802.6504	276.8759	65535	64790.6
802.7931	279.0913	65535	64788.7
802.9359	281.3061	65535	64784.5
803.0787	283.5204	65535	64781.55
803.2215	285.7341	65535	64776.35
803.3643	287.9473	65535	64765.6
803.5071	290.16	65535	64770.1
803.6499	292.3721	65535	64778.4
803.7928	294.5837	65535	64780.35
803.9357	296.7947	65535	64777.05
804.0786	299.0052	65535	64777.45
804.2215	301.2152	65535	64776.35
804.3644	303.4246	65535	64778.9
804.5074	305.6334	65535	64777.05
804.6503	307.8418	65535	64773.9
804.7933	310.0495	65535	64770.3
804.9363	312.2568	65535	64773.2
805.0793	314.4635	65535	64770.7
805.2223	316.6696	65535	64768.95
805.3653	318.8752	65535	64760.1
805.5084	321.0802	65535	64765.75
805.6514	323.2847	65535	64766.3
805.7945	325.4887	65535	64764.35
805.9376	327.692	65535	64764.9
806.0807	329.8949	65535	64764.25
806.2238	332.0972	65535	64759.9
806.367	334.2989	65535	64757
806.5101	336.5001	65535	64759.6
806.6533	338.7007	65535	64757.95
806.7965	340.9008	65535	64755.75
806.9397	343.1003	65535	64756
807.0829	345.2992	65535	64755.15
807.2261	347.4976	65535	64753.1
807.3693	349.6955	65535	64750.35
807.5126	351.8927	65535	64746.25
807.6559	354.0895	65535	64738.9
807.7991	356.2856	65535	64749.4
807.9424	358.4812	65535	64747.45
808.0857	360.6763	65535	64748.65
808.2291	362.8707	65535	64744.7
808.3724	365.0646	65535	64740.3
808.5158	367.258	65535	64737.25
808.6591	369.4508	65535	64734.55
808.8025	371.643	65535	64738.2
808.9459	373.8346	65535	64734.1
809.0893	376.0257	65535	64733.4
809.2327	378.2162	65535	64733.5
809.3762	380.4062	65535	64728.75
809.5196	382.5956	65535	64725.7
809.6631	384.7844	65535	64725.1
809.8066	386.9726	65535	64727.35
809.9501	389.1603	65535	64726.85
810.0936	391.3474	65535	64696.8
810.2371	393.5339	65535	64729.9
810.3806	395.7199	65535	64734
810.5241	397.9052	65535	64736.15
810.6677	400.09	65535	64737.15
810.8113	402.2743	65535	64738.4
810.9548	404.4579	65535	64737.4
811.0984	406.641	65535	64736.75
811.2421	408.8235	65535	64734.35
811.3857	411.0054	65535	64729.1
811.5293	413.1868	65535	64729.95
811.673	415.3675	65535	64728.95
811.8166	417.5477	65535	64728.25
811.9603	419.7273	65535	64727.1
812.104	421.9064	65535	64715.85
812.2477	424.0848	65535	64719.6
812.3914	426.2627	65535	64718.55
812.5351	428.4399	65535	64715.5
812.6788	430.6166	65535	64711.15
812.8226	432.7928	65535	64711.95
812.9663	434.9683	65535	64714.65
813.1101	437.1432	65535	64712.25
813.2539	439.3176	65535	64711.3
813.3977	441.4914	65535	64710.65
813.5415	443.6645	65535	64706.85
813.6853	445.8371	65535	64706.95
813.8291	448.0091	65535	64710.45
813.973	450.1806	65535	64710.7
814.1168	452.3514	65535	64709.3
814.2607	454.5216	65535	64699.2
814.4046	456.6913	65535	64705.4
814.5485	458.8603	65535	64705.75
814.6924	461.0288	65535	64708.9
814.8363	463.1967	65535	64707.6
814.9802	465.3639	65535	64707.25
815.1241	467.5306	65535	64703.7
815.2681	469.6967	65535	64706.95
815.412	471.8622	65535	64701.9
815.556	474.0271	65535	64702.45
815.7	476.1914	65535	64700.3
815.844	478.3551	65535	64704
815.988	480.5182	65535	64705.95
816.132	482.6807	65535	64703.4
816.276	484.8426	65535	64703.25
816.4201	487.0039	65535	64698.45
816.5641	489.1647	65535	64699.15
816.7082	491.3248	65535	64705.25
816.8522	493.4843	65535	64697.35
816.9963	495.6432	65535	64698.1
817.1404	497.8015	65535	64693.5
817.2845	499.9592	65535	64699.9
817.4286	502.1163	65535	64698.1
817.5727	504.2728	65535	64694.6
817.7168	506.4287	65535	64699.45
817.861	508.5839	65535	64696.05
818.0051	510.7386	65535	64696.65
818.1493	512.8927	65535	64693.15
818.2935	515.0461	65535	64692.7
818.4377	517.199	65535	64692.65
818.5818	519.3512	65535	64695.05
818.726	521.5029	65535	64687.3
818.8703	523.6539	65535	64692.15
819.0145	525.8043	65535	64691.25
819.1587	527.9541	65535	64690.5
819.303	530.1033	65535	64687.7
819.4472	532.2519	65535	64688.2
819.5915	534.3999	65535	64687.05
819.7357	536.5472	65535	64686.15
819.88	538.694	65535	64685.55
820.0243	540.8401	65535	64684.05
820.1686	542.9856	65535	64685.85
820.3129	545.1305	65535	64686.4
820.4572	547.2748	65535	64685.95
820.6016	549.4185	65535	64683.55
820.7459	551.5615	65535	64684.6
820.8902	553.704	65535	64686.35
821.0346	555.8458	65535	64686.3
821.1789	557.987	65535	64684.5
821.3233	560.1276	65535	64684.9
821.4677	562.2675	65535	64684.35
821.6121	564.4069	65535	64684.35
821.7565	566.5456	65535	64684.8
821.9009	568.6837	65535	64684
822.0453	570.8212	65535	64685.1
822.1897	572.958	65535	64681.15
822.3342	575.0942	65535	64686.35
822.4786	577.2299	65535	64682.8
822.6231	579.3648	65535	64682.9
822.7675	581.4992	65535	64683.05
822.912	583.6329	65535	64685.1
823.0565	585.766	65535	64681.7
823.201	587.8985	65535	64685.4
823.3454	590.0304	65535	64670.15
823.4899	592.1616	65535	64678.15
823.6345	594.2922	65535	64678.25
823.779	596.4222	65535	64683.2
823.9235	598.5515	65535	64676.45
824.068	600.6802	65535	64676.55
824.2126	602.8083	65535	64676.65
824.3571	604.9358	65535	64677.05
824.5017	607.0626	65535	64678
824.6462	609.1888	65535	64673.7
824.7908	611.3144	65535	64678.25
824.9354	613.4393	65535	64678.05
825.08	615.5636	65535	64673.25
825.2246	617.6873	65535	64674.7
825.3692	619.8103	65535	64672.35
825.5138	621.9327	65535	64672.05
825.6584	624.0544	65535	64675.1
825.803	626.1756	65535	64675.15
825.9477	628.2961	65535	64676.7
826.0923	630.4159	65535	64672.75
826.237	632.5351	65535	64671.35
826.3816	634.6537	65535	64673.65
826.5263	636.7716	65535	64669.9
826.6709	638.8889	65535	64671.55
826.8156	641.0056	65535	64671.35
826.9603	643.1216	65535	64671.6
827.105	645.237	65535	64668.55
827.2497	647.3518	65535	64668.55
827.3944	649.4659	65535	64670.8
827.5391	651.5793	65535	64672.25
827.6838	653.6922	65535	64671.85
827.8285	655.8043	65535	64669.2
827.9733	657.9159	65535	64668.35
828.118	660.0268	65535	64666.75
828.2627	662.137	65535	64668.95
828.4075	664.2466	65535	64666.35
828.5522	666.3556	65535	64666.6
828.697	668.4639	65535	64666.4
828.8418	670.5716	65535	64667.35
828.9865	672.6786	65535	64665.5
829.1313	674.785	65535	64665.25
829.2761	676.8907	65535	64667.25
829.4209	678.9958	65535	64667.25
829.5657	681.1002	65535	64667.65
829.7105	683.204	65535	64659.35
829.8553	685.3072	65535	64662.8
830.0001	687.4097	65535	64663.35
830.1449	689.5115	65535	64661.25
830.2898	691.6127	65535	64664.35
830.4346	693.7132	65535	64663.3
830.5794	695.8131	65535	64652.45
830.7243	697.9123	65535	64658.9
830.8691	700.0109	65535	64663.2
831.014	702.1089	65535	64664.5
831.1588	704.2061	65535	64660.3
831.3037	706.3028	65535	64659.15
831.4486	708.3987	65535	64662.85
831.5935	710.4941	65535	64660.15
831.7383	712.5887	65535	64660.25
831.8832	714.6827	65535	64658
832.0281	716.7761	65535	64660.25
832.173	718.8688	65535	64659.1
832.3179	720.9608	65535	64655.95
832.4628	723.0522	65535	64654.2
832.6077	725.1429	65535	64661.75
832.7527	727.233	65535	64660.15
832.8976	729.3224	65535	64659.05
833.0425	731.4112	65535	64658.1
833.1874	733.4993	65535	64653.9
833.3324	735.5867	65535	64658.85
833.4773	737.6735	65535	64655.25
833.6222	739.7596	65535	64656.4
833.7672	741.845	65535	64654.3
833.9122	743.9298	65535	64655.1
834.0571	746.014	65535	64658.9
834.2021	748.0974	65535	64652.5
834.347	750.1802	65535	64654.45
834.492	752.2624	65535	64656.55
834.637	754.3439	65535	64656.95
834.782	756.4247	65535	64650.1
834.9269	758.5048	65535	64658.15
835.0719	760.5843	65535	64655.55
835.2169	762.6631	65535	64657.3
835.3619	764.7413	65535	64657.1
835.5069	766.8188	65535	64655.05
835.6519	768.8956	65535	64653.2
835.7969	770.9718	65535	64652.9
835.9419	773.0473	65535	64655.65
836.0869	775.1221	65535	64653.45
836.232	777.1962	65535	64656.8
836.377	779.2697	65535	64656.3
836.522	781.3426	65535	64634.75
836.667	783.4147	65535	64652.5
836.8121	785.4862	65535	64656.1
836.9571	787.557	65535	64654.05
837.1021	789.6271	65535	64654
837.2472	791.6966	65535	64652.4
837.3922	793.7654	65535	64653.8
837.5373	795.8335	65535	64653.1
837.6823	797.901	65535	64655.3
837.8274	799.9678	65535	64651.25
837.9724	802.0339	65535	64651.95
838.1175	804.0993	65535	64643.05
838.2626	806.1641	65535	64653.35
838.4076	808.2282	65535	64653.9
838.5527	810.2916	65535	64650.35
838.6978	812.3544	65535	64654.15
838.8428	814.4164	65535	64652.55
838.9879	816.4778	65535	64651.25
839.133	818.5385	65535	64652.4
839.2781	820.5986	65535	64652
839.4232	822.658	65535	64648.45
839.5682	824.7166	65535	64653.55
839.7133	826.7747	65535	64653.15
839.8584	828.832	65535	64651.9
840.0035	830.8886	65535	64650.9
840.1486	832.9446	65535	64649.35
840.2937	834.9999	65535	64653.1
840.4388	837.0545	65535	64647
840.5839	839.1085	65535	64652.15
840.729	841.1618	65535	64647.55
840.8741	843.2143	65535	64652.4
841.0192	845.2662	65535	64652.75
841.1643	847.3175	65535	64651.3
841.3095	849.368	65535	64649.95
841.4546	851.4179	65535	64651.05
841.5997	853.467	65535	64650.2
841.7448	855.5155	65535	64651.65
841.8899	857.5633	65535	64649.95
842.0351	859.6105	65535	64649.55
842.1802	861.6569	65535	64652.7
842.3253	863.7027	65535	64650.2
842.4704	865.7478	65535	64649.3
842.6156	867.7922	65535	64649.8
842.7607	869.8359	65535	64650.95
842.9058	871.8789	65535	64648.15
843.0509	873.9212	65535	64616.55
843.1961	875.9629	65535	64650.3
843.3412	878.0039	65535	64649.25
843.4863	880.0441	65535	64649.95
843.6315	882.0837	65535	64646.85
843.7766	884.1226	65535	64648.1
843.9218	886.1609	65535	64651.1
844.0669	888.1984	65535	64646.55
844.212	890.2352	65535	64651.45
844.3572	892.2714	65535	64643.6
844.5023	894.3069	65535	64649.4
844.6475	896.3416	65535	64648.1
844.7926	898.3757	65535	64646.1
844.9377	900.4091	65535	64648.15
845.0829	902.4418	65535	64642.3
845.228	904.4739	65535	64644.3
845.3732	906.5052	65535	64646.95
845.5183	908.5358	65535	64647.95
845.6635	910.5658	65535	64645.65
845.8086	912.595	65535	64645.2
845.9538	914.6236	65535	64648.55
846.0989	916.6515	65535	64649.75
846.2441	918.6786	65535	64644.7
846.3892	920.7051	65535	64644.85
846.5344	922.7309	65535	64648.55
846.6795	924.756	65535	64645.55
846.8246	926.7804	65535	64644.1
846.9698	928.8041	65535	64644.3
847.1149	930.8272	65535	64644.85
847.2601	932.8495	65535	64643.3
847.4052	934.8711	65535	64642.95
847.5504	936.892	65535	64645.9
847.6955	938.9123	65535	64644.65
847.8407	940.9318	65535	64643.45
847.9858	942.9506	65535	64644.4
848.131	944.9688	65535	64644.95
848.2761	946.9862	65535	64644.9
848.4213	949.003	65535	64646.75
848.5664	951.019	65535	64646.65
848.7115	953.0344	65535	64646.2
848.8567	955.0491	65535	64643.85
849.0018	957.063	65535	64646
849.147	959.0763	65535	64646.45
849.2921	961.0888	65535	64641.8
849.4373	963.1007	65535	64644.75
849.5824	965.1119	65535	64644.6
849.7275	967.1223	65535	64646.15
849.8727	969.1321	65535	64645.55
850.0178	971.1412	65535	64648.15
850.1629	973.1495	65535	64646.35
850.3081	975.1572	65535	64612.05
850.4532	977.1641	65535	64644.95
850.5983	979.1704	65535	64643.2
850.7435	981.1759	65535	64642.15
850.8886	983.1808	65535	64643.05
851.0337	985.1849	65535	64631.7
851.1788	987.1884	65535	64643.1
851.324	989.1911	65535	64642.7
851.4691	991.1932	65535	64642.25
851.6142	993.1945	65535	64644.8
851.7593	995.1951	65535	64642.7
851.9045	997.1951	65535	64636.9
852.0496	999.1943	65535	64643.15
852.1947	1001.1928	65535	64642.1
852.3398	1003.1906	65535	64644.15
852.4849	1005.1877	65535	64642.1
852.63	1007.1841	65535	64643.45
852.7751	1009.1798	65535	64642.95
852.9202	1011.1748	65535	64645.35
853.0653	1013.1691	65535	64643.55
853.2104	1015.1627	65535	64646.25
853.3555	1017.1556	65535	64643.5
853.5006	1019.1477	65535	64643.05
853.6457	1021.1392	65535	64645.6
853.7908	1023.1299	65535	64645.25
853.9359	1025.12	65535	64641.1
854.081	1027.1093	65535	64645.5
854.2261	1029.0979	65535	64645.85
854.3712	1031.0859	65535	64644.8
854.5163	1033.0731	65535	64643.7
854.6613	1035.0596	65535	64644.2
854.8064	1037.0454	65535	64644.65
854.9515	1039.0304	65535	64642.9
855.0965	1041.0148	65535	64645.05
855.2416	1042.9985	65535	64643.05
855.3867	1044.9814	65535	64644.35
855.5317	1046.9636	65535	64640.45
855.6768	1048.9452	65535	64643.65
855.8219	1050.926	65535	64641.7
855.9669	1052.9061	65535	64644.65
856.112	1054.8855	65535	64641.9
856.257	1056.8642	65535	64644.85
856.4021	1058.8421	65535	64638.8
856.5471	1060.8194	65535	64641.3
856.6921	1062.7959	65535	64643.75
856.8372	1064.7717	65535	64643.85
856.9822	1066.7469	65535	64640.55
857.1272	1068.7213	65535	64641.6
857.2723	1070.695	65535	64643.65
857.4173	1072.6679	65535	64640.45
857.5623	1074.6402	65535	64644.1
857.7073	1076.6117	65535	64637
857.8523	1078.5826	65535	64641.6
857.9973	1080.5527	65535	64639.6
858.1423	1082.5221	65535	64641.7
858.2873	1084.4908	65535	64643.3
858.4323	1086.4587	65535	64641.4
858.5773	1088.426	65535	64643.35
858.7223	1090.3925	65535	64636.3
858.8673	1092.3584	65535	64643.9
859.0123	1094.3235	65535	64643.95
859.1573	1096.2879	65535	64639.2
859.3022	1098.2515	65535	64640.3
859.4472	1100.2145	65535	64643.6
859.5922	1102.1767	65535	64640
859.7371	1104.1382	65535	64641.95
859.8821	1106.099	65535	64637.65
860.027	1108.0591	65535	64644.65
860.172	1110.0185	65535	64642.9
860.3169	1111.9771	65535	64643.2
860.4619	1113.9351	65535	64644.05
860.6068	1115.8923	65535	64640.75
860.7517	1117.8488	65535	64638.3
860.8967	1119.8045	65535	64643.8
861.0416	1121.7596	65535	64641.4
861.1865	1123.7139	65535	64644.15
861.3314	1125.6675	65535	64641.3
861.4763	1127.6204	65535	64641.45
861.6212	1129.5726	65535	64638.85
861.7661	1131.524	65535	64644.1
861.911	1133.4748	65535	64644.85
862.0559	1135.4248	65535	64639.45
862.2008	1137.3741	65535	64642.95
862.3457	1139.3226	65535	64640.65
862.4905	1141.2705	65535	64640.7
862.6354	1143.2176	65535	64634.25
862.7803	1145.164	65535	64640.65
862.9251	1147.1097	65535	64640.5
863.07	1149.0546	65535	64642.6
863.2148	1150.9989	65535	64639.9
863.3597	1152.9424	65535	64640.75
863.5045	1154.8852	65535	64639.85
863.6493	1156.8272	65535	64643.5
863.7942	1158.7686	65535	64633.9
863.939	1160.7092	65535	64640.2
864.0838	1162.6491	65535	64639.25
864.2286	1164.5883	65535	64642.3
864.3734	1166.5267	65535	64640.65
864.5182	1168.4644	65535	64639.85
864.663	1170.4014	65535	64638.3
864.8078	1172.3377	65535	64643
864.9526	1174.2732	65535	64643.75
865.0974	1176.2081	65535	64643.7
865.2421	1178.1421	65535	64636.45
865.3869	1180.0755	65535	64641.75
865.5317	1182.0082	65535	64640.2
865.6764	1183.9401	65535	64641.2
865.8212	1185.8713	65535	64642.45
865.9659	1187.8017	65535	64643.3
866.1106	1189.7315	65535	64642.65
866.2554	1191.6605	65535	64615
866.4001	1193.5888	65535	64640.75
866.5448	1195.5163	65535	64640.4
866.6895	1197.4432	65535	64641.8
866.8342	1199.3693	65535	64640.75
866.9789	1201.2947	65535	64638.45
867.1236	1203.2193	65535	64640.8
867.2683	1205.1432	65535	64641.4
867.413	1207.0664	65535	64640.35
867.5576	1208.9889	65535	64638.45
867.7023	1210.9106	65535	64640.4
867.847	1212.8316	65535	64644
867.9916	1214.7519	65535	64630.6
868.1363	1216.6715	65535	64640.35
868.2809	1218.5903	65535	64640.55
868.4255	1220.5084	65535	64639.55
868.5701	1222.4257	65535	64642.55
868.7148	1224.3424	65535	64643
868.8594	1226.2583	65535	64636.3
869.004	1228.1735	65535	64637.7
869.1486	1230.0879	65535	64641.4
869.2932	1232.0016	65535	64642
869.4377	1233.9146	65535	64638.2
869.5823	1235.8269	65535	64642.8
869.7269	1237.7384	65535	64642.4
869.8715	1239.6492	65535	64642.4
870.016	1241.5592	65535	64641.15
870.1606	1243.4686	65535	64638.85
870.3051	1245.3772	65535	64641.05
870.4496	1247.285	65535	64639.3
870.5941	1249.1922	65535	64641.55
870.7387	1251.0986	65535	64641.35
870.8832	1253.0042	65535	64640.95
871.0277	1254.9092	65535	64640.55
871.1722	1256.8134	65535	64644.6
871.3167	1258.7169	65535	64639
871.4611	1260.6196	65535	64641.55
871.6056	1262.5216	65535	64639.95
871.7501	1264.4229	65535	64640.45
871.8945	1266.3234	65535	64641.6
872.039	1268.2232	65535	64637.45
872.1834	1270.1223	65535	64639.8
872.3278	1272.0207	65535	64639.95
872.4723	1273.9183	65535	64634.95
872.6167	1275.8151	65535	64641.55
872.7611	1277.7113	65535	64637.9
872.9055	1279.6067	65535	64640.45
873.0499	1281.5014	65535	64638.4
873.1943	1283.3953	65535	64637.95
873.3386	1285.2885	65535	64643.85
873.483	1287.181	65535	64640
873.6274	1289.0727	65535	64641.45
873.7717	1290.9637	65535	64642.25
873.9161	1292.854	65535	64641.75
874.0604	1294.7435	65535	64640.55
874.2047	1296.6323	65535	64639.6
874.349	1298.5204	65535	64638.5
874.4933	1300.4077	65535	64641.4
874.6376	1302.2943	65535	64639.45
874.7819	1304.1802	65535	64640.65
874.9262	1306.0653	65535	64639.6
875.0705	1307.9497	65535	64640.05
875.2147	1309.8333	65535	64639.7
875.359	1311.7162	65535	64639.35
875.5032	1313.5984	65535	64636.65
875.6475	1315.4798	65535	64629.9
875.7917	1317.3605	65535	64623.6
875.9359	1319.2405	65535	64639.1
876.0801	1321.1197	65535	64637.3
876.2243	1322.9982	65535	64637.35
876.3685	1324.876	65535	64641.8
876.5127	1326.753	65535	64639.9
876.6569	1328.6293	65535	64637.4
876.801	1330.5048	65535	64636.1
876.9452	1332.3796	65535	64640.85
877.0893	1334.2537	65535	64614.25
877.2335	1336.127	65535	64641.4
877.3776	1337.9996	65535	64640.25
877.5217	1339.8714	65535	64639.55
877.6658	1341.7426	65535	64596.3
877.8099	1343.6129	65535	64641.45
877.954	1345.4826	65535	64641.95
878.0981	1347.3515	65535	64638.8
878.2422	1349.2196	65535	64638.8
878.3862	1351.087	65535	64639.45
878.5303	1352.9537	65535	64641.35
878.6743	1354.8197	65535	64642.8
878.8184	1356.6849	65535	64639.7
878.9624	1358.5493	65535	64638.05
879.1064	1360.4131	65535	64640.95
879.2504	1362.276	65535	64640.45
879.3944	1364.1383	65535	64641.7
879.5384	1365.9998	65535	64634.1
879.6823	1367.8606	65535	64638.6
879.8263	1369.7206	65535	64642.4
879.9702	1371.5799	65535	64639.5
880.1142	1373.4384	65535	64638.4
880.2581	1375.2962	65535	64640.85
880.402	1377.1533	65535	64641.2
880.5459	1379.0096	65535	64637.6
880.6898	1380.8652	65535	64640.15
880.8337	1382.7201	65535	64640.3
880.9776	1384.5742	65535	64640.5
881.1215	1386.4275	65535	64640.1
881.2653	1388.2802	65535	64640.75
881.4092	1390.132	65535	64641.8
881.553	1391.9832	65535	64640.2
881.6968	1393.8336	65535	64640.35
881.8406	1395.6832	65535	64636.45
881.9844	1397.5322	65535	64640.6
882.1282	1399.3803	65535	64635.15
882.272	1401.2278	65535	64638.45
882.4158	1403.0745	65535	64640.85
882.5595	1404.9204	65535	64642.1
882.7033	1406.7656	65535	64643.8
882.847	1408.6101	65535	64640.9
882.9908	1410.4538	65535	64638.15
883.1345	1412.2968	65535	64638.55
883.2782	1414.139	65535	64640.55
883.4219	1415.9805	65535	64640.85
883.5656	1417.8213	65535	64633.2
883.7092	1419.6613	65535	64641
883.8529	1421.5006	65535	64641.15
883.9965	1423.3391	65535	64639.15
884.1402	1425.1769	65535	64639.35
884.2838	1427.0139	65535	64640.15
884.4274	1428.8502	65535	64639.8
884.571	1430.6858	65535	64640.15
884.7146	1432.5206	65535	64640.8
884.8582	1434.3547	65535	64639.15
885.0018	1436.188	65535	64639.6
885.1453	1438.0206	65535	64640.5
885.2889	1439.8524	65535	64640.7
885.4324	1441.6835	65535	64638.5
885.5759	1443.5139	65535	64635.65
885.7194	1445.3435	65535	64637.85
885.8629	1447.1724	65535	64639.3
886.0064	1449.0005	65535	64641.2
886.1499	1450.8279	65535	64638.8
886.2933	1452.6545	65535	64640.7
886.4368	1454.4804	65535	64638.25
886.5802	1456.3056	65535	64634.15
886.7237	1458.13	65535	64640.7
886.8671	1459.9536	65535	64639.95
887.0105	1461.7766	65535	64642.1
887.1539	1463.5987	65535	64638.4
887.2972	1465.4202	65535	64641.5
887.4406	1467.2409	65535	64639.9
887.584	1469.0608	65535	64638.9
887.7273	1470.88	65535	64639.8
887.8706	1472.6984	65535	64640.4
888.0139	1474.5161	65535	64636.75
888.1572	1476.3331	65535	64640.55
888.3005	1478.1493	65535	64639.95
888.4438	1479.9648	65535	64640.3
888.5871	1481.7795	65535	64640.15
888.7303	1483.5935	65535	64640.05
888.8736	1485.4067	65535	64639.65
889.0168	1487.2192	65535	64639
889.16	1489.031	65535	64637.3
889.3032	1490.842	65535	64640.65
889.4464	1492.6522	65535	64640.1
889.5896	1494.4618	65535	64638.1
889.7327	1496.2705	65535	64640.1
889.8759	1498.0785	65535	64640.2
890.019	1499.8858	65535	64640.45
890.1622	1501.6924	65535	64640.35
890.3053	1503.4981	65535	64641.35
890.4484	1505.3032	65535	64641.55
890.5914	1507.1075	65535	64641.6
890.7345	1508.911	65535	64641.6
890.8776	1510.7138	65535	64637.7
891.0206	1512.5159	65535	64641.15
891.1637	1514.3172	65535	64638.95
891.3067	1516.1178	65535	64641.45
891.4497	1517.9176	65535	64639.05
891.5927	1519.7166	65535	64642.15
891.7357	1521.515	65535	64634.05
891.8786	1523.3126	65535	64641
892.0216	1525.1094	65535	64637.35
892.1645	1526.9055	65535	64641.6
892.3074	1528.7008	65535	64641.25
892.4503	1530.4954	65535	64635.2
892.5932	1532.2893	65535	64643.85
892.7361	1534.0824	65535	64635.85
892.879	1535.8747	65529.7	64636.6
893.0218	1537.6663	65535	64638.15
893.1647	1539.4572	65506.65	64611.45
893.3075	1541.2473	65528.55	64634.6
893.4503	1543.0367	65524.5	64632.25
893.5931	1544.8253	65512.75	64612.35
893.7359	1546.6132	65523.85	64628.35
893.8787	1548.4003	65501.9	64598.45
894.0214	1550.1867	65488.75	64586.05
894.1642	1551.9723	65466.85	64566.65
894.3069	1553.7572	65476.15	64579.35
894.4496	1555.5414	65512.75	64619.85
894.5923	1557.3247	65083.1	64188.3
894.735	1559.1074	65483.7	64589.8
894.8777	1560.8893	65347.75	64452.55
895.0204	1562.6705	65408.6	64514.65
895.163	1564.4509	65103.6	64210.75
895.3056	1566.2305	65273.45	64379.95
895.4482	1568.0094	65417	64522.3
895.5908	1569.7876	65333.95	64439.85
895.7334	1571.565	65066.75	64175.75
895.876	1573.3417	65225.4	64332.15
896.0186	1575.1176	65167.65	64274.5
896.1611	1576.8928	65031.2	64133.65
896.3036	1578.6672	64682.75	63790.15
896.4461	1580.4409	64919.95	64027.45
896.5886	1582.2138	64352.55	63457
896.7311	1583.986	64536.15	63641.95
896.8736	1585.7575	63945.35	63054.1
897.0161	1587.5282	64126.55	63234.1
897.1585	1589.2981	64114.5	63221.35
897.3009	1591.0673	63462.6	62569.5
897.4433	1592.8358	63011.15	62118
897.5857	1594.6035	63495.45	62601.85
897.7281	1596.3704	63552.8	62659.1
897.8705	1598.1366	62578.7	61687.45
898.0128	1599.9021	62042.6	61150.85
898.1551	1601.6668	62896.5	62000.35
898.2975	1603.4308	62416.15	61522.7
898.4398	1605.194	62523.2	61626.2
898.5821	1606.9564	61450.25	60556.85
898.7243	1608.7182	62046.65	61150.15
898.8666	1610.4791	61467.85	60575
899.0088	1612.2394	61953.5	61062.1
899.1511	1613.9988	61354.3	60461.7
899.2933	1615.7576	62091.7	61197.4
899.4355	1617.5156	61990.85	61092.45
899.5776	1619.2728	62800	61907.95
899.7198	1621.0293	61580.4	60689.05
899.862	1622.785	61608.25	60714
900.0041	1624.54	62049.5	61152.35
900.1462	1626.2942	61365.85	60473.15
900.2883	1628.0477	60323.95	59426.6
900.4304	1629.8005	59655.25	58759.85
900.5725	1631.5525	60197.85	59305.45
900.7145	1633.3037	59119.1	58226.05
900.8566	1635.0542	59016.45	58124.15
900.9986	1636.804	59277.85	58385.9
901.1406	1638.553	58374.35	57364.6
901.2826	1640.3013	58530.95	57637.9
901.4245	1642.0488	57877.6	56983.1
901.5665	1643.7955	58282.75	57390.25
901.7085	1645.5416	57824.75	56932.1
901.8504	1647.2868	57387.15	56494.35
901.9923	1649.0313	57941.95	57049.85
902.1342	1650.7751	57661.2	56766.6
902.2761	1652.5181	57329.55	56436.9
902.4179	1654.2604	57417.15	56524.2
902.5598	1656.0019	57893.15	57001.75
902.7016	1657.7427	57649.95	56757.1
902.8434	1659.4828	58191.25	57297.95
902.9852	1661.222	57936.65	57044.55
903.127	1662.9606	58180.45	57288.7
903.2687	1664.6984	57558	56665.85
903.4105	1666.4354	57531.5	56638.2
903.5522	1668.1717	56511.6	55618.45
903.6939	1669.9072	55813.9	54921.3
903.8356	1671.642	55425.3	54530.05
903.9773	1673.3761	55130.8	54239.1
904.119	1675.1094	54739.75	53846.8
904.2606	1676.8419	54279.95	53387.5
904.4022	1678.5737	54002.5	53111.35
904.5439	1680.3048	53707.8	52816.4
904.6855	1682.0351	53430.3	52537.95
904.827	1683.7646	53118	52223.4
904.9686	1685.4934	53094.85	52203.3
905.1101	1687.2215	52378.15	51484
905.2517	1688.9488	52636.05	51745.25
905.3932	1690.6754	51746.85	50852.2
905.5347	1692.4012	51938.55	51044.75
905.6761	1694.1263	51809.6	50917.2
905.8176	1695.8506	51576.45	50683.85
905.9591	1697.5742	51379.9	50488
906.1005	1699.297	51155.2	50263.6
906.2419	1701.0191	50903.3	50010.9
906.3833	1702.7404	50571.5	49679.55
906.5246	1704.461	50355.15	49460.65
906.666	1706.1808	50186.25	49291.6
906.8073	1707.8999	50059.1	49164.3
906.9487	1709.6182	49866.8	48974.1
907.09	1711.3358	49669.2	48778.5
907.2313	1713.0527	49485.3	48594.5
907.3725	1714.7688	49355.25	48457.85
907.5138	1716.4841	48999.8	48105.5
907.655	1718.1987	48967.75	48071.45
907.7962	1719.9126	48732.65	47842.55
907.9374	1721.6257	48549.9	47655.2
908.0786	1723.338	48526.3	47634.2
908.2198	1725.0496	48035.7	47141
908.3609	1726.7605	48035.5	47143.1
908.502	1728.4706	47850.85	46960.2
908.6431	1730.18	47590.75	46696.55
908.7842	1731.8886	47457.5	46565.3
908.9253	1733.5964	47372.65	46461.5
909.0664	1735.3036	47205.5	46309.35
909.2074	1737.0099	47075.5	46185.95
909.3484	1738.7156	46915.3	46025.6
909.4894	1740.4204	46644.35	45751.2
909.6304	1742.1246	46561.05	45666.95
909.7714	1743.8279	46425.4	45533.65
909.9123	1745.5306	46330.95	45439.3
910.0532	1747.2325	46121.6	45231.5
910.1941	1748.9336	45965.6	45073.75
910.335	1750.634	45779.7	44887.7
910.4759	1752.3336	45725.65	44834.9
910.6168	1754.0325	45517.45	44627.15
910.7576	1755.7307	45463.45	44572.6
910.8984	1757.4281	45371.8	44479.25
911.0392	1759.1247	45300.4	44400.2
911.18	1760.8206	45033	44136.95
911.3208	1762.5158	45049.4	44156.05
911.4615	1764.2102	44760.5	43868.95
911.6022	1765.9039	44629	43738.15
911.7429	1767.5968	44534.25	43643.65
911.8836	1769.289	44382.65	43489.7
912.0243	1770.9804	44220.15	43326.05
912.1649	1772.6711	44188.1	43297.9
912.3056	1774.361	44017.55	43127.6
912.4462	1776.0502	43891	42998.9
912.5868	1777.7386	43789.3	42893.6
912.7274	1779.4263	43603.3	42709.8
912.8679	1781.1132	43613.1	42720.95
913.0084	1782.7994	43418.2	42525.65
913.149	1784.4849	43342.05	42451.95
913.2895	1786.1696	43120.5	42223.15
913.4299	1787.8535	43000.4	42109.9
913.5704	1789.5367	42879.25	41986.6
913.7108	1791.2192	42814.05	41922.35
913.8513	1792.9009	42563.7	41642.9
913.9917	1794.5818	42499.15	41607.25
914.132	1796.2621	42381.75	41493.95
914.2724	1797.9415	42257.25	41365.85
914.4128	1799.6202	42080.8	41190.75
914.5531	1801.2982	41997	41105.7
914.6934	1802.9755	41859.9	40966.65
914.8337	1804.6519	41804.9	40913.75
914.9739	1806.3277	41535.25	40646.5
915.1142	1808.0027	41375.5	40484.75
915.2544	1809.6769	41366.3	40474.75
915.3946	1811.3504	41214.2	40322.1
915.5348	1813.0231	41107.35	40214.3
915.675	1814.6951	41035.1	40143.15
915.8151	1816.3664	41064.75	40170.8
915.9553	1818.0369	40847.35	39956.25
916.0954	1819.7067	40651.85	39758.95
916.2355	1821.3757	40581.85	39690.45
916.3755	1823.044	40516.2	39625
916.5156	1824.7115	40458.95	39566.4
916.6556	1826.3783	40164.2	39274.15
916.7956	1828.0443	40050.7	39160.95
916.9356	1829.7096	39942.75	39049.55
917.0756	1831.3741	39925.1	39030.45
917.2155	1833.0379	39799.9	38908.1
917.3555	1834.701	39642.85	38748.7
917.4954	1836.3633	39579.2	38686.4
917.6353	1838.0248	39398.5	38506.5
917.7751	1839.6856	39252.95	38360.4
917.915	1841.3457	39201.5	38310.3
918.0548	1843.005	39151.65	38261.7
918.1946	1844.6636	39069.8	38180.05
918.3344	1846.3214	38897.05	38005.95
918.4742	1847.9785	38868.95	37978.5
918.6139	1849.6349	38743.9	37851
918.7537	1851.2904	38652.2	37753.1
918.8934	1852.9453	38467.4	37574.55
919.0331	1854.5994	38323.7	37431.4
919.1727	1856.2528	38391.6	37496.6
919.3124	1857.9054	38194.45	37302.35
919.452	1859.5572	38159.9	37270.45
919.5916	1861.2083	38085.6	37191.4
919.7312	1862.8587	38050.35	37159.8
919.8708	1864.5084	37895.7	37004.65
920.0103	1866.1572	37756.9	36866.85
920.1498	1867.8054	37617.35	36723.85
920.2893	1869.4528	37523.2	36629.15
920.4288	1871.0994	37338.1	36445.95
920.5683	1872.7453	37314.15	36423.2
920.7077	1874.3905	37211.15	36312.2
920.8471	1876.0349	37092.5	36200.6
920.9865	1877.6786	37017.9	36125.2
921.1259	1879.3215	36970.45	36080.1
921.2653	1880.9637	36879.4	35988.45
921.4046	1882.6051	36758.85	35867.6
921.5439	1884.2458	36641.4	35748.7
921.6832	1885.8858	36498.25	35604.8
921.8225	1887.525	36460.25	35567.25
921.9617	1889.1634	36239.3	35349.1
922.101	1890.8011	36098.65	35206.65
922.2402	1892.4381	36037.1	35146.4
922.3794	1894.0743	36005.25	35116.05
922.5185	1895.7098	35863.05	34972.15
922.6577	1897.3446	35785.4	34892.65
922.7968	1898.9786	35643.4	34748.95
922.9359	1900.6118	35578.3	34689.65
923.075	1902.2443	35380.35	34488.05
923.214	1903.8761	35288.95	34399
923.3531	1905.5071	35046	34153.8
923.4921	1907.1374	34935.5	34044.7
923.6311	1908.7669	34883.3	33992.15
923.77	1910.3957	34817.9	33926.35
923.909	1912.0237	34607.9	33716.45
924.0479	1913.651	34553.05	33662.25
924.1868	1915.2776	34471.3	33582.15
924.3257	1916.9034	34270.25	33379.75
924.4646	1918.5285	34101.8	33212.7
924.6034	1920.1528	33915.05	33025.65
924.7422	1921.7764	33914.25	33023.4
924.881	1923.3992	33778.95	32887.65
925.0198	1925.0213	33542.8	32650.45
925.1586	1926.6427	33371.85	32483.25
925.2973	1928.2633	33402.7	32403.65
925.436	1929.8832	33222.45	32328.45
925.5747	1931.5023	33036.8	32145.8
925.7134	1933.1207	32967.25	32074.45
925.852	1934.7383	32905.05	32014.9
925.9906	1936.3552	32718.45	31827.4
926.1292	1937.9714	32629.5	31736.8
926.2678	1939.5868	32448.3	31555
926.4064	1941.2015	32289.85	31398.35
926.5449	1942.8154	32147.4	31255.55
926.6834	1944.4286	32026.65	31136.7
926.8219	1946.041	31894.45	30985
926.9604	1947.6528	31699.05	30802.9
927.0988	1949.2637	31648.1	30758.55
927.2372	1950.8739	31516.5	30624.8
927.3756	1952.4834	31486.8	30594.8
927.514	1954.0921	31396.85	30504.15
927.6523	1955.7001	31230.55	30336.75
927.7907	1957.3074	31143.05	30251.05
927.929	1958.9139	30976.35	30085.4
928.0673	1960.5197	30875.75	29981.45
928.2055	1962.1247	30705.65	29814.45
928.3438	1963.729	30604.3	29713.75
928.482	1965.3325	30482.75	29567.5
928.6202	1966.9353	30330	29439.6
928.7584	1968.5374	30235.4	29343
928.8965	1970.1387	30140.55	29248.2
929.0346	1971.7393	30043.6	29150.35
929.1727	1973.3392	29931.85	29040
929.3108	1974.9383	29800.85	28910.05
929.4489	1976.5366	29616.25	28725
929.5869	1978.1342	29632.75	28740
929.7249	1979.7311	29540.2	28649.05
929.8629	1981.3273	29435.45	28543.3
930.0009	1982.9227	29312.6	28419.65
930.1388	1984.5173	29222.05	28333
930.2767	1986.1112	29035.95	28145.95
930.4146	1987.7044	28988.25	28100
930.5525	1989.2968	28888.9	27996.25
930.6904	1990.8885	28806.35	27912.65
930.8282	1992.4795	28756.55	27863.45
930.966	1994.0697	28586.35	27696.3
931.1038	1995.6592	28509.25	27619
931.2415	1997.2479	28414.7	27522.6
931.3793	1998.8359	28272.95	27384.2
931.517	2000.4232	28152.65	27262.15
931.6547	2002.0097	28067.95	27179.6
931.7923	2003.5955	27989.65	27097.5
931.93	2005.1805	27953.45	27061.4
932.0676	2006.7648	27829	26937
932.2052	2008.3484	27731.5	26839.8
932.3427	2009.9312	27728.55	26836.1
932.4803	2011.5133	27583.7	26694.3
932.6178	2013.0946	27472.6	26581.2
932.7553	2014.6752	27370.3	26480
932.8928	2016.2551	27338.45	26445.8
933.0302	2017.8342	27183.3	26292.05
933.1676	2019.4126	27125.6	26234.75
933.305	2020.9902	26974.65	26084.9
933.4424	2022.5672	26910.7	26018.5
933.5798	2024.1433	26833.2	25938.95
933.7171	2025.7188	26731.2	25841
933.8544	2027.2935	26650	25758.6
933.9917	2028.8674	26531.85	25642.65
934.129	2030.4406	26442.5	25554.5
934.2662	2032.0131	26309.8	25421.8
934.4034	2033.5849	26207.55	25310.95
934.5406	2035.1559	26173.35	25283.45
934.6778	2036.7261	26134.1	25242.15
934.8149	2038.2957	26045.5	25155.05
934.952	2039.8645	25993.75	25104
935.0891	2041.4325	25999.4	25107.1
935.2262	2042.9998	25835.5	24946.25
935.3632	2044.5664	25739.55	24848.95
935.5002	2046.1323	25648.75	24758.3
935.6372	2047.6974	25550.15	24660.05
935.7742	2049.2617	25501.8	24612.3
935.9111	2050.8254	25470.15	24557.25
936.048	2052.3883	25389.3	24496.3
936.1849	2053.9504	25292.3	24403.2
936.3218	2055.5118	25179.55	24287.65
936.4586	2057.0725	25085.75	24191
936.5955	2058.6325	24996.55	24105.05
936.7323	2060.1917	24951.05	24061.3
936.869	2061.7502	24863.65	23969.35
937.0058	2063.3079	24766.75	23877.65
937.1425	2064.8649	24646.75	23752.45
937.2792	2066.4212	24603	23711.3
937.4159	2067.9767	24515.6	23625.65
937.5525	2069.5315	24379.5	23489.3
937.6891	2071.0856	24277.2	23388.65
937.8257	2072.6389	24193.65	23302.35
937.9623	2074.1915	24087.55	23199.5
938.0989	2075.7433	23950.7	23058
938.2354	2077.2945	23887.65	22998.6
938.3719	2078.8448	23812.3	22921.15
938.5084	2080.3945	23745.1	22854.6
938.6448	2081.9434	23725.95	22838.2
938.7812	2083.4916	23606.9	22714.8
938.9176	2085.039	23505.9	22613.8
939.054	2086.5857	23451.9	22560.65
939.1903	2088.1317	23401.85	22510.6
939.3267	2089.677	23330.9	22439.6
939.463	2091.2215	23281.9	22391.1
939.5992	2092.7652	23188.95	22297
939.7355	2094.3083	23115.05	22222.1
939.8717	2095.8506	23058.5	22168.65
940.0079	2097.3921	22980.35	22090.8
940.1441	2098.933	22912.1	22022.25
940.2802	2100.4731	22862.05	21972.35
940.4163	2102.0124	22824.05	21923.75
940.5524	2103.5511	22741.95	21850.45
940.6885	2105.089	22682.05	21790.05
940.8245	2106.6261	22641.9	21750.7
940.9606	2108.1626	22595.55	21703.95
941.0965	2109.6983	22533.6	21616.6
941.2325	2111.2332	22394.1	21502.15
941.3684	2112.7675	22347.3	21456.95
941.5044	2114.301	22267.2	21374.75
941.6403	2115.8337	22223.2	21330.9
941.7761	2117.3657	22166.25	21274.65
941.912	2118.897	22113.55	21223.4
942.0478	2120.4276	22047.35	21150.1
942.1835	2121.9575	21922.05	21029.4
942.3193	2123.4866	21947.5	21041.95
942.455	2125.0149	21869.9	20978.55
942.5907	2126.5426	21725.05	20833.75
942.7264	2128.0695	21675.1	20779.4
942.8621	2129.5956	21604.8	20716
942.9977	2131.1211	21535.8	20641.95
943.1333	2132.6458	21524.25	20634.3
943.2689	2134.1698	21449	20558.55
943.4044	2135.693	21366.9	20473.25
943.54	2137.2155	21310.4	20417.7
943.6755	2138.7373	21226.85	20334.55
943.8109	2140.2584	21145.25	20252.9
943.9464	2141.7787	21111.6	20214.7
944.0818	2143.2983	21001.3	20109.35
944.2172	2144.8171	20869.7	19981.9
944.3526	2146.3353	20827.4	19934.15
944.4879	2147.8527	20754.9	19865.6
944.6232	2149.3693	20761.75	19871.15
944.7585	2150.8853	20629.15	19738.5
944.8938	2152.4005	20496.75	19606
945.029	2153.9149	20480.35	19587.9
945.1642	2155.4287	20419.4	19529
945.2994	2156.9417	20378	19486.65
945.4346	2158.454	20275.8	19384.05
945.5697	2159.9655	20244.55	19355.55
945.7048	2161.4764	20208.3	19318.55
945.8399	2162.9865	20120	19227.95
945.9749	2164.4958	20076.85	19184.6
946.1099	2166.0045	20001.8	19106.65
946.2449	2167.5124	19984.7	19094.3
946.3799	2169.0195	19900.3	19010.05
946.5148	2170.526	19893.7	19001.55
946.6498	2172.0317	19809.35	18915.85
946.7846	2173.5367	19742.8	18851
946.9195	2175.0409	19657.3	18765.95
947.0543	2176.5445	19627.65	18738.35
947.1891	2178.0473	19517	18626.15
947.3239	2179.5494	19460.7	18565.65
947.4587	2181.0507	19379.15	18485.75
947.5934	2182.5513	19331.8	18440.4
947.7281	2184.0512	19252.1	18361.85
947.8628	2185.5504	19185.3	18294.5
947.9974	2187.0488	19072.1	18179
948.132	2188.5465	19044.65	18152.55
948.2666	2190.0435	18944.4	18053.65
948.4012	2191.5397	18898.05	18007.65
948.5357	2193.0353	18849.1	17957.1
948.6702	2194.5301	18762.2	17870.3
948.8047	2196.0241	18689.2	17796.2
948.9392	2197.5175	18641.3	17750.75
949.0736	2199.0101	18553.25	17659.3
949.208	2200.502	18447.3	17557.95
949.3424	2201.9931	18370.75	17478.8
949.4767	2203.4835	18309.95	17417.6
949.611	2204.9733	18274.55	17378.45
949.7453	2206.4622	18232.6	17340.85
949.8796	2207.9505	18125.6	17231.25
950.0138	2209.438	17999.7	17107.95
950.148	2210.9248	17954.4	17062.15
950.2822	2212.4109	17857.8	16967.05
950.4164	2213.8962	17879.55	16987.85
950.5505	2215.3809	17823.95	16932.2
950.6846	2216.8648	17765.65	16875
950.8186	2218.3479	17686.75	16792.3
950.9527	2219.8304	17627.15	16735.05
951.0867	2221.3121	17566.5	16675.95
951.2207	2222.7931	17477.35	16585.4
951.3546	2224.2733	17432.2	16540.65
951.4886	2225.7529	17389.75	16497.05
951.6225	2227.2317	17325.15	16432.35
951.7563	2228.7098	17282.8	16391.9
951.8902	2230.1872	17194.25	16303.55
952.024	2231.6638	17154.5	16261.95
952.1578	2233.1397	17084.45	16188.3
952.2916	2234.6149	17012.65	16122.1
952.4253	2236.0894	16940.55	16049.45
952.559	2237.5632	16932.1	16032.8
952.6927	2239.0362	16806.4	15915.75
952.8263	2240.5085	16810.4	15919.35
952.9599	2241.9801	16743.2	15851.65
953.0935	2243.4509	16660.05	15767.6
953.2271	2244.921	16620.5	15730.6
953.3606	2246.3904	16516.7	15622.7
953.4941	2247.8591	16504.65	15614.25
953.6276	2249.3271	16446.7	15554.95
953.7611	2250.7943	16396.6	15505.25
953.8945	2252.2608	16304.8	15414.45
954.0279	2253.7266	16271.6	15380.55
954.1612	2255.1917	16201.35	15309.2
954.2946	2256.656	16131.8	15239.65
954.4279	2258.1197	16090.3	15198.85
954.5612	2259.5826	16040.3	15147.45
954.6944	2261.0447	15990.5	15099
954.8276	2262.5062	15921.35	15029.55
954.9608	2263.9669	15891.6	14997.95
955.094	2265.4269	15841.35	14949.7
955.2271	2266.8862	15792.95	14902
955.3602	2268.3448	15774.75	14883.05
955.4933	2269.8026	15741.4	14850.1
955.6264	2271.2598	15665.45	14774.6
955.7594	2272.7162	15597.55	14706.7
955.8924	2274.1719	15561.25	14670.45
956.0253	2275.6268	15511.95	14620.2
956.1583	2277.0811	15464.05	14573.45
956.2912	2278.5346	15429.5	14540.7
956.4241	2279.9874	15373.65	14482.45
956.5569	2281.4395	15328.45	14438.05
956.6897	2282.8908	15266.05	14368.85
956.8225	2284.3414	15228.8	14336.45
956.9553	2285.7914	15178.75	14288.3
957.088	2287.2406	15129.5	14237.95
957.2207	2288.689	15103.2	14212.1
957.3534	2290.1368	15027.2	14133.65
957.486	2291.5838	14988	14095.35
957.6186	2293.0302	14959.75	14068.5
957.7512	2294.4758	14867.65	13975.5
957.8838	2295.9206	14782.2	13889.9
958.0163	2297.3648	14769.75	13878.75
958.1488	2298.8082	14739.5	13848.25
958.2813	2300.251	14707.2	13816.95
958.4137	2301.693	14659	13765.8
958.5461	2303.1343	14615.35	13724.4
958.6785	2304.5748	14559.3	13668.6
958.8108	2306.0147	14477.8	13585.7
958.9432	2307.4538	14473.9	13579.6
959.0754	2308.8922	14423.7	13532.3
959.2077	2310.3299	14363	13471.5
959.3399	2311.7669	14297.1	13405.75
959.4721	2313.2031	14274.85	13386.2
959.6043	2314.6387	14213.1	13322.65
959.7365	2316.0735	14144.45	13252.5
959.8686	2317.5076	14139.6	13246.1
960.0006	2318.941	14085.75	13196.45
960.1327	2320.3737	14048.5	13156.75
960.2647	2321.8056	14004.85	13112.85
960.3967	2323.2369	13947.1	13055.25
960.5287	2324.6674	13900.05	13006.15
960.6606	2326.0972	13862.85	12968.3
960.7925	2327.5263	13782.85	12890.2
960.9244	2328.9547	13762.15	12870.7
961.0562	2330.3823	13695.95	12805.75
961.1881	2331.8092	13692.05	12796.9
961.3198	2333.2355	13618.15	12726.4
961.4516	2334.661	13612.4	12719.8
961.5833	2336.0858	13582.75	12689.35
961.715	2337.5098	13511.5	12620.95
961.8467	2338.9332	13486.15	12596.35
961.9783	2340.3558	13418.5	12524.3
962.1099	2341.7778	13384.9	12493
962.2415	2343.199	13311.4	12417.75
962.373	2344.6195	13262.75	12372.3
962.5045	2346.0393	13250.15	12360.65
962.636	2347.4583	13216.8	12326.85
962.7675	2348.8767	13170.2	12279.75
962.8989	2350.2943	13146.75	12253.3
963.0303	2351.7113	13111.1	12217.35
963.1617	2353.1275	13043.85	12152.5
963.293	2354.543	13022.9	12108.4
963.4243	2355.9578	12979.4	12085.35
963.5556	2357.3718	12894.45	12003.4
963.6868	2358.7852	12821.85	11928.05
963.818	2360.1978	12771.25	11880.45
963.9492	2361.6098	12727.85	11839.95
964.0803	2363.021	12702.85	11806.9
964.2114	2364.4315	12637.95	11747.5
964.3425	2365.8413	12621.4	11729.5
964.4736	2367.2504	12580.85	11689.8
964.6046	2368.6587	12506.4	11614.85
964.7356	2370.0664	12445.15	11554.35
964.8666	2371.4733	12411.7	11521.9
964.9975	2372.8795	12359.3	11468.2
965.1284	2374.285	12314.65	11422.3
965.2593	2375.6899	12251.15	11362.15
965.3901	2377.0939	12183.45	11292
965.5209	2378.4973	12136.1	11246.7
965.6517	2379.9	12102.45	11211.05
965.7825	2381.3019	12043.15	11152.7
965.9132	2382.7032	12028.5	11137.55
966.0439	2384.1037	11988.3	11099
966.1745	2385.5035	11946.3	11055.65
966.3051	2386.9027	11880.4	10992.15
966.4357	2388.3011	11866.5	10974.45
966.5663	2389.6987	11802.8	10912.35
966.6968	2391.0957	11757.75	10868.25
966.8273	2392.492	11688.55	10799
966.9578	2393.8876	11645.7	10755.75
967.0882	2395.2824	11600.25	10711.5
967.2186	2396.6765	11568.05	10679.6
967.349	2398.07	11504.4	10616.5
967.4793	2399.4627	11490.25	10598.4
967.6097	2400.8547	11473.05	10582.7
967.7399	2402.246	11408.65	10513
967.8702	2403.6366	11338.25	10446.3
968.0004	2405.0265	11296.95	10407.55
968.1306	2406.4156	11252.3	10358.55
968.2607	2407.8041	11209.35	10315.8
968.3909	2409.1918	11152.6	10258.9
968.521	2410.5789	11120.8	10228.65
968.651	2411.9652	11080.55	10187.45
968.781	2413.3508	11045.3	10155.1
968.911	2414.7358	10968.7	10078.7
969.041	2416.12	10950.65	10061.25
969.1709	2417.5035	10912.85	10025.45
969.3008	2418.8863	10878.25	9986.9
969.4307	2420.2684	10861.25	9972.5
969.5606	2421.6497	10785.15	9893.7
969.6904	2423.0304	10705.1	9815.95
969.8201	2424.4104	10697.5	9806.1
969.9499	2425.7896	10671.9	9781.75
970.0796	2427.1682	10656.7	9766.4
970.2093	2428.546	10594.5	9702.55
970.3389	2429.9232	10563.75	9669.9
970.4685	2431.2996	10549.7	9658.5
970.5981	2432.6753	10508.2	9618.7
970.7277	2434.0503	10464.45	9572.25
970.8572	2435.4246	10424.55	9533.75
970.9867	2436.7982	10395.75	9503.75
971.1161	2438.1711	10389.05	9500.1
971.2456	2439.5433	10338.25	9448
971.375	2440.9148	10293.5	9398.6
971.5043	2442.2856	10272.7	9381.75
971.6336	2443.6557	10206.7	9312.65
971.7629	2445.025	10166.5	9275.9
971.8922	2446.3937	10159.1	9268.4
972.0214	2447.7617	10107	9215.6
972.1506	2449.1289	10083.85	9193.45
972.2798	2450.4955	10060.4	9166.3
972.4089	2451.8613	10034.55	9145.55
972.538	2453.2265	9986.4	9095.95
972.6671	2454.5909	9964.95	9072.2
972.7961	2455.9546	9913.95	9022.1
972.9251	2457.3177	9902.4	9012.65
973.0541	2458.68	9868.65	8975.95
973.1831	2460.0416	9868.35	8975.5
973.312	2461.4025	9840.45	8948.1
973.4408	2462.7627	9809	8907.1
973.5697	2464.1222	9761.35	8870.45
973.6985	2465.4811	9753.75	8863.2
973.8273	2466.8392	9709.2	8819.35
973.956	2468.1966	9664.1	8770.9
974.0847	2469.5533	9666.55	8773.1
974.2134	2470.9093	9635.25	8742.2
974.3421	2472.2645	9605.8	8715.05
974.4707	2473.6191	9577.75	8686.6
974.5993	2474.973	9532.6	8643.2
974.7278	2476.3262	9500.7	8608.7
974.8563	2477.6787	9468.7	8579.9
974.9848	2479.0305	9406.8	8516.95
975.1132	2480.3816	9375.25	8483.55
975.2417	2481.7319	9362.7	8472.5
975.37	2483.0816	9317.55	8423.05
975.4984	2484.4306	9260.35	8367.9
975.6267	2485.7789	9234.8	8345.4
975.755	2487.1264	9191.95	8299.6
975.8833	2488.4733	9154.35	8263.95
976.0115	2489.8195	9124.25	8227.9
976.1397	2491.165	9093.2	8198.35
976.2678	2492.5097	9067.4	8174.65
976.3959	2493.8538	9013.4	8121.9
976.524	2495.1972	8979.2	8087.25
976.6521	2496.5398	8925.9	8034.2
976.7801	2497.8818	8910.85	8021.3
976.9081	2499.2231	8878.05	7987.4
977.036	2500.5637	8845.8	7953.95
977.164	2501.9035	8816.8	7923.7
977.2918	2503.2427	8813.75	7917.9
977.4197	2504.5812	8772.4	7880.8
977.5475	2505.919	8732.9	7840.45
977.6753	2507.256	8728.05	7837.4
977.8031	2508.5924	8698.35	7809.5
977.9308	2509.9281	8667.45	7771.55
978.0585	2511.2631	8615.3	7726.9
978.1861	2512.5974	8601.1	7710.25
978.3137	2513.9309	8573.35	7681
978.4413	2515.2638	8542.3	7616.75
978.5689	2516.596	8518.2	7628.15
978.6964	2517.9275	8466.9	7574.85
978.8239	2519.2583	8448.6	7557.25
978.9513	2520.5884	8385.85	7494.7
979.0788	2521.9178	8373.3	7480.75
979.2062	2523.2465	8344.5	7453.25
979.3335	2524.5745	8296.35	7404.9
979.4608	2525.9018	8276.35	7383.6
979.5881	2527.2284	8265.2	7375.45
979.7154	2528.5543	8237.1	7347.95
979.8426	2529.8796	8200.05	7310.2
979.9698	2531.2041	8186.15	7296.95
980.0969	2532.5279	8192.35	7303.15
980.224	2533.851	8177.75	7288.2
980.3511	2535.1735	8126.15	7234.75
980.4781	2536.4952	8099.55	7208.2
980.6052	2537.8163	8091.35	7200.85
980.7321	2539.1366	8049.95	7159.55
980.8591	2540.4562	8017.6	7125.05
980.986	2541.7752	8032.85	7143.7
981.1129	2543.0935	7999.75	7109
981.2397	2544.411	7987.8	7097.95
981.3665	2545.7279	7983	7091.9
981.4933	2547.0441	7935	7044.5
981.62	2548.3596	7932.3	7040.45
981.7467	2549.6744	7880.45	6990.9
981.8734	2550.9885	7853.4	6962.6
982.0001	2552.3019	7810	6921.25
982.1267	2553.6146	7821.45	6931.05
982.2532	2554.9266	7788.05	6896.8
982.3798	2556.2379	7772.85	6879.65
982.5063	2557.5485	7767.75	6880.85
982.6327	2558.8585	7762.7	6865.05
982.7592	2560.1677	7716.2	6819.1
982.8856	2561.4762	7719.15	6828.55
983.0119	2562.7841	7671.85	6780.05
983.1383	2564.0913	7658.15	6767.95
983.2646	2565.3977	7641.9	6749.55
983.3908	2566.7035	7630.05	6738.1
983.517	2568.0086	7613.5	6720.9
983.6432	2569.313	7591.35	6698.75
983.7694	2570.6167	7565.45	6670.45
983.8955	2571.9197	7541.45	6650.25
984.0216	2573.222	7548.2	6653.95
984.1476	2574.5236	7525.8	6634.35
984.2737	2575.8246	7509.2	6616.15
984.3996	2577.1248	7500.15	6607.95
984.5256	2578.4244	7464.55	6575.6
984.6515	2579.7232	7441.5	6550.45
984.7774	2581.0214	7464.4	6550.85
984.9032	2582.3189	7399.7	6506.2
985.029	2583.6157	7419.2	6522.15
985.1548	2584.9118	7394.95	6504
985.2806	2586.2072	7353.55	6464.45
985.4063	2587.5019	7332.75	6443.35
985.5319	2588.7959	7335.4	6445
985.6576	2590.0893	7298.85	6407.15
985.7832	2591.3819	7295.6	6404.6
985.9087	2592.6739	7279.8	6389.25
986.0343	2593.9652	7239.9	6347.6
986.1597	2595.2557	7222.05	6331
986.2852	2596.5456	7195.95	6301
986.4106	2597.8348	7155.05	6265.9
986.536	2599.1234	7138.2	6248.5
986.6614	2600.4112	7127.9	6238.95
986.7867	2601.6983	7102.8	6206.9
986.912	2602.9848	7067.6	6175.85
987.0372	2604.2705	7037.8	6140.35
987.1624	2605.5556	7040.2	6147.75
987.2876	2606.84	7013.15	6122.2
987.4128	2608.1237	6983.4	6090.15
987.5379	2609.4067	6969.2	6077.75
987.6629	2610.689	6942.85	6043.65
987.788	2611.9707	6882.15	5986.1
987.913	2613.2516	6883.9	5989.45
988.0379	2614.5319	6846.1	5953.8
988.1629	2615.8115	6808.1	5916.6
988.2878	2617.0903	6790.95	5899.3
988.4126	2618.3685	6776.9	5886.65
988.5375	2619.6461	6746	5855.75
988.6622	2620.9229	6720.5	5829.35
988.787	2622.199	6698.35	5807.5
988.9117	2623.4745	6698.4	5807.75
989.0364	2624.7493	6663.95	5772.1
989.161	2626.0234	6619.9	5727.3
989.2857	2627.2968	6626.9	5735.8
989.4102	2628.5695	6612	5719.6
989.5348	2629.8415	6574.9	5684.6
989.6593	2631.1128	6532.8	5641.95
989.7837	2632.3835	6522.25	5630
989.9082	2633.6535	6481	5589.1
990.0326	2634.9228	6461.6	5571.05
990.1569	2636.1914	6451.25	5562
990.2812	2637.4593	6420.65	5522.85
990.4055	2638.7265	6406.25	5514.9
990.5298	2639.9931	6376.3	5484.25
990.654	2641.259	6385.75	5493.6
990.7782	2642.5242	6367.9	5476.75
990.9023	2643.7887	6327.1	5435.05
991.0264	2645.0525	6303.1	5414
991.1505	2646.3156	6283.45	5391.35
991.2745	2647.5781	6266.75	5376.2
991.3985	2648.8398	6236.3	5347.4
991.5225	2650.1009	6215.3	5315.6
991.6464	2651.3613	6212.1	5320.5
991.7703	2652.6211	6186.35	5294.6
991.8942	2653.8801	6180.05	5289.85
992.018	2655.1385	6156.05	5260.85
992.1418	2656.3961	6130.9	5240.7
992.2655	2657.6531	6135.95	5245.7
992.3892	2658.9094	6096.3	5205
992.5129	2660.1651	6083	5192.7
992.6366	2661.42	6060.15	5166.95
992.7602	2662.6743	6061.75	5170.5
992.8837	2663.9279	6057.6	5166.9
993.0073	2665.1808	6029.9	5140.55
993.1307	2666.433	6010.75	5117.95
993.2542	2667.6846	5986.25	5095.75
993.3776	2668.9354	5970.3	5074.75
993.501	2670.1856	5965.45	5073.95
993.6244	2671.4351	5961.25	5070.6
993.7477	2672.6839	5941.3	5048.9
993.8709	2673.9321	5910.2	5017.7
993.9942	2675.1795	5900.1	5010.45
994.1174	2676.4263	5883.45	4991.65
994.2405	2677.6724	5856.1	4967.5
994.3637	2678.9179	5847.85	4955.9
994.4868	2680.1626	5846.9	4957.2
994.6098	2681.4067	5816.45	4925.8
994.7328	2682.6501	5799.9	4907.95
994.8558	2683.8928	5787.1	4896.05
994.9788	2685.1348	5773	4883.2
995.1017	2686.3761	5745.5	4853.95
995.2245	2687.6168	5718.15	4827.15
995.3474	2688.8568	5721	4830.45
995.4702	2690.0961	5701.75	4811.1
995.5929	2691.3348	5670.8	4779.75
995.7156	2692.5727	5655.75	4764.2
995.8383	2693.81	5638.75	4750.2
995.961	2695.0466	5610.75	4720.35
996.0836	2696.2826	5599.3	4705.5
996.2062	2697.5178	5601.35	4707.3
996.3287	2698.7524	5567.4	4675
996.4512	2699.9863	5543.8	4649.85
996.5737	2701.2195	5534.2	4644.05
996.6961	2702.452	5513.3	4622.25
996.8185	2703.6839	5497.15	4605.1
996.9408	2704.9151	5484.35	4594.15
997.0631	2706.1456	5482.2	4591.2
997.1854	2707.3755	5461.6	4572.15
997.3077	2708.6046	5480.55	4587.6
997.4299	2709.8331	5449.4	4558.05
997.552	2711.0609	5440.45	4548.55
997.6742	2712.2881	5430.85	4539.8
997.7963	2713.5145	5415	4523.15
997.9183	2714.7403	5402	4511.05
998.0403	2715.9654	5402.65	4509.75
998.1623	2717.1899	5416.1	4510.85
998.2842	2718.4136	5390.25	4497.85
998.4062	2719.6367	5379.85	4488.05
998.528	2720.8591	5363	4464.95
998.6498	2722.0809	5350	4458.3
998.7716	2723.3019	5349.15	4455.2
998.8934	2724.5223	5344.15	4453
999.0151	2725.7421	5322.05	4430.65
999.1368	2726.9611	5303.5	4410.35
999.2584	2728.1795	5311.3	4415.2
999.38	2729.3972	5276.5	4385.85
999.5016	2730.6142	5252	4354.7
999.6231	2731.8306	5202.8	4311
999.7446	2733.0462	5188.05	4296.25
999.8661	2734.2612	5141.4	4244.6
999.9875	2735.4756	5123.5	4231.1
1000.1089	2736.6892	5095.15	4203.1
1000.2302	2737.9022	5056	4168.7
1000.3515	2739.1145	5021.2	4129.9
1000.4728	2740.3262	4993.7	4095.35
1000.594	2741.5372	4957.45	4067.05
1000.7152	2742.7475	4942.05	4049.9
1000.8363	2743.9571	4919.5	4026.3
1000.9575	2745.1661	4908.9	4011.85
1001.0785	2746.3744	4869.4	3977.95
1001.1996	2747.582	4847.55	3958.55
1001.3206	2748.7889	4826.7	3933.85
1001.4415	2749.9952	4810.65	3922.55
1001.5625	2751.2008	4806.6	3913.95
1001.6833	2752.4057	4795.9	3902.55
1001.8042	2753.61	4772.15	3881.35
1001.925	2754.8136	4744.8	3851.85
1002.0458	2756.0165	4733.9	3843.4
1002.1665	2757.2188	4720.05	3829.5
1002.2872	2758.4204	4711.95	3822.6
1002.4078	2759.6213	4682	3789.4
1002.5285	2760.8215	4693.55	3796.6
1002.649	2762.0211	4658.65	3764.65
1002.7696	2763.22	4659.55	3764.8
1002.8901	2764.4182	4642.75	3751.1
1003.0106	2765.6158	4623.3	3733.65
1003.131	2766.8127	4606.55	3715.2
1003.2514	2768.009	4591.45	3701.6
1003.3717	2769.2045	4565.05	3674.9
1003.492	2770.3994	4558.75	3666.45
1003.6123	2771.5936	4536.55	3642.4
1003.7325	2772.7872	4518.55	3627.3
1003.8527	2773.9801	4494.3	3599.8
1003.9729	2775.1723	4508.4	3601.55
1004.093	2776.3639	4484.95	3593.75
1004.2131	2777.5548	4463.55	3572
1004.3331	2778.745	4462.85	3572.85
1004.4531	2779.9346	4440.55	3550.2
1004.5731	2781.1235	4436.5	3544.05
1004.693	2782.3117	4414.2	3522.55
1004.8129	2783.4992	4405.45	3514.85
1004.9328	2784.6861	4406	3513.8
1005.0526	2785.8723	4399.95	3507.55
1005.1723	2787.0579	4389.9	3499.35
1005.2921	2788.2428	4380.2	3488.2
1005.4118	2789.427	4368.5	3477.8
1005.5314	2790.6106	4385.7	3494.55
1005.651	2791.7935	4391.7	3498.65
1005.7706	2792.9757	4364.05	3474.4
1005.8902	2794.1573	4357	3465.4
1006.0097	2795.3382	4364.45	3472.95
1006.1291	2796.5184	4356.05	3467.85
1006.2485	2797.698	4364.7	3471.35
1006.3679	2798.8769	4365.05	3473.95
1006.4873	2800.0551	4382.45	3491.05
1006.6066	2801.2327	4382.65	3491.3
1006.7258	2802.4096	4372.5	3482.35
1006.8451	2803.5859	4386.05	3493.8
1006.9642	2804.7615	4379.45	3487.4
1007.0834	2805.9364	4412.85	3521.8
1007.2025	2807.1106	4437.25	3546
1007.3216	2808.2842	4442.65	3550.9
1007.4406	2809.4572	4462.1	3571.75
1007.5596	2810.6294	4489.5	3597.6
1007.6785	2811.801	4516.3	3625.55
1007.7975	2812.972	4547.05	3657.1
1007.9163	2814.1423	4580.3	3688.15
1008.0352	2815.3119	4608.5	3716.75
1008.154	2816.4808	4640.55	3751.7
1008.2727	2817.6491	4690.3	3798.9
1008.3914	2818.8167	4718.2	3827.3
1008.5101	2819.9837	4769.05	3873.55
1008.6288	2821.15	4821.1	3928.7
1008.7474	2822.3157	4830.05	3940.85
1008.8659	2823.4807	4874.3	3983
1008.9844	2824.645	4902.7	4010.15
1009.1029	2825.8086	4931.05	4041.1
1009.2214	2826.9716	4958.65	4068.85
1009.3398	2828.134	5017.35	4127
1009.4581	2829.2957	5036.55	4145.6
1009.5764	2830.4567	5047.35	4158
1009.6947	2831.617	5069.15	4177.4
1009.813	2832.7767	5068.65	4179.15
1009.9312	2833.9358	5064.75	4173.5
1010.0493	2835.0941	5055.3	4162.75
1010.1675	2836.2519	5005.85	4115.85
1010.2855	2837.4089	5005.05	4113.05
1010.4036	2838.5653	4981.5	4092.1
1010.5216	2839.7211	4981.95	4092.3
1010.6396	2840.8761	4984	4092.05
1010.7575	2842.0306	4990.95	4101.6
1010.8754	2843.1843	5025.7	4135.95
1010.9932	2844.3374	5089.1	4198.3
1011.111	2845.4899	5117.45	4226
1011.2288	2846.6417	5204.35	4314.1
1011.3465	2847.7928	5254.5	4362.45
1011.4642	2848.9433	5331.4	4441.65
1011.5818	2850.0931	5369.9	4478.95
1011.6995	2851.2422	5463.3	4571.6
1011.817	2852.3907	5530.6	4638.15
1011.9345	2853.5385	5581.45	4689.4
1012.052	2854.6857	5661.65	4743.4
1012.1695	2855.8323	5684.8	4796
1012.2869	2856.9781	5712.2	4821.45
1012.4042	2858.1233	5779.6	4888.35
1012.5216	2859.2679	5788.1	4897.7
1012.6389	2860.4118	5834.45	4944.5
1012.7561	2861.555	5851.45	4955.45
1012.8733	2862.6976	5898.1	5005
1012.9905	2863.8395	5900.15	5011.3
1013.1076	2864.9808	5914.05	5024.2
1013.2247	2866.1214	5911.4	5020.9
1013.3417	2867.2614	5920.95	5030.4
1013.4587	2868.4007	5939	5047.55
1013.5757	2869.5393	5931.75	5038.85
1013.6926	2870.6773	5921.7	5028.2
1013.8095	2871.8146	5947.3	5054.1
1013.9263	2872.9513	5922.95	5030.35
1014.0431	2874.0874	5906.45	5015.65
1014.1599	2875.2227	5901.25	5008.3
1014.2766	2876.3574	5865.3	4973.95
1014.3933	2877.4915	5825	4933.8
1014.51	2878.6249	5771.55	4881.75
1014.6266	2879.7577	5754.75	4862.6
1014.7431	2880.8898	5728.8	4828
1014.8596	2882.0212	5699.05	4811
1014.9761	2883.152	5678.15	4787.4
1015.0925	2884.2821	5653.4	4762.05
1015.2089	2885.4116	5639.9	4750.7
1015.3253	2886.5405	5625.2	4735.4
1015.4416	2887.6686	5614.05	4718.85
1015.5579	2888.7962	5605.45	4714.95
1015.6741	2889.923	5617.2	4726.75
1015.7903	2891.0493	5626.75	4736.95
1015.9065	2892.1748	5622.85	4732.65
1016.0226	2893.2997	5626.05	4733.75
1016.1387	2894.424	5624.85	4735.15
1016.2547	2895.5476	5634.65	4742.45
1016.3707	2896.6706	5663.55	4772.5
1016.4866	2897.7929	5674.75	4783.05
1016.6025	2898.9145	5685.5	4794.5
1016.7184	2900.0355	5710.1	4817.75
1016.8342	2901.1559	5738	4845.15
1016.95	2902.2756	5760.95	4872.25
1017.0658	2903.3946	5783.5	4894.25
1017.1815	2904.513	5798.25	4904.95
1017.2971	2905.6308	5823.3	4931.85
1017.4127	2906.7479	5808.65	4916.15
1017.5283	2907.8643	5826.5	4934.5
1017.6439	2908.9801	5867.05	4975.75
1017.7594	2910.0953	5860.1	4967.3
1017.8748	2911.2098	5839.15	4946
1017.9902	2912.3236	5809.55	4910.7
1018.1056	2913.4368	5795.35	4901.5
1018.2209	2914.5494	5769.25	4878.25
1018.3362	2915.6613	5747.8	4850.85
1018.4515	2916.7725	5722.75	4829.1
1018.5667	2917.8831	5679.85	4787.15
1018.6819	2918.9931	5649.65	4757.4
1018.797	2920.1024	5599.1	4708.2
1018.9121	2921.211	5562.15	4670.75
1019.0271	2922.319	5549.65	4659.85
1019.1421	2923.4264	5524.6	4636.25
1019.2571	2924.5331	5500.25	4611.65
1019.372	2925.6391	5481.2	4592.2
1019.4869	2926.7445	5455.55	4565.1
1019.6017	2927.8493	5456.55	4565.7
1019.7165	2928.9534	5453.55	4564
1019.8313	2930.0569	5442.65	4547.45
1019.946	2931.1597	5412.35	4520.05
1020.0606	2932.2619	5390.2	4500.2
1020.1753	2933.3634	5379.65	4487.9
1020.2899	2934.4643	5359.7	4461.25
1020.4044	2935.5645	5334.05	4436.85
1020.5189	2936.6641	5284.4	4391.4
1020.6334	2937.763	5235.45	4345.5
1020.7478	2938.8613	5174.1	4284.05
1020.8622	2939.959	5121.9	4226.6
1020.9765	2941.056	5026.8	4136.65
1021.0908	2942.1523	4932.75	4042.5
1021.2051	2943.248	4842.45	3953.25
1021.3193	2944.3431	4744.45	3853.35
1021.4334	2945.4375	4621.85	3730.05
1021.5476	2946.5313	4520.9	3631.85
1021.6617	2947.6244	4416.6	3526.95
1021.7757	2948.7169	4304.15	3412.4
1021.8897	2949.8087	4196.2	3306.55
1022.0037	2950.8999	4093.3	3202.8
1022.1176	2951.9904	4003.85	3113.8
1022.2315	2953.0803	3919.8	3029.75
1022.3453	2954.1696	3856.8	2967.75
1022.4591	2955.2582	3802.05	2912.15
1022.5728	2956.3462	3742.55	2852.35
1022.6865	2957.4335	3701.4	2809.85
1022.8002	2958.5202	3639.6	2746.4
1022.9138	2959.6062	3622.2	2732.15
1023.0274	2960.6916	3585.9	2694.95
1023.141	2961.7764	3558	2666.6
1023.2545	2962.8605	3535.35	2643.65
1023.3679	2963.9439	3519.9	2630.35
1023.4813	2965.0267	3481.9	2589.7
1023.5947	2966.1089	3491.4	2578.35
1023.708	2967.1905	3454.9	2563.85
1023.8213	2968.2714	3450.9	2559.75
1023.9346	2969.3516	3442.35	2552.35
1024.0478	2970.4312	3444.55	2547.95
1024.1609	2971.5102	3444.8	2553.15
1024.274	2972.5885	3437.55	2547.8
1024.3871	2973.6662	3441.15	2547.05
1024.5002	2974.7432	3413.85	2524.4
1024.6132	2975.8196	3398.55	2506.55
1024.7261	2976.8954	3382.8	2492.25
1024.839	2977.9705	3367.15	2477.15
1024.9519	2979.045	3348.3	2458.4
1025.0647	2980.1188	3313.4	2424.7
1025.1775	2981.192	3313.75	2423.8
1025.2902	2982.2645	3265.9	2375.85
1025.4029	2983.3364	3238.95	2349.8
1025.5156	2984.4077	3192.55	2303.4
1025.6282	2985.4783	3168.9	2274.3
1025.7407	2986.5483	3129.45	2239.85
1025.8532	2987.6177	3085.9	2194.9
1025.9657	2988.6864	3051.15	2161
1026.0782	2989.7545	3022	2129.5
1026.1906	2990.8219	2976.3	2086.95
1026.3029	2991.8887	2929.65	2036.75
1026.4152	2992.9548	2903.5	2011.65
1026.5275	2994.0204	2863.05	1974.4
1026.6397	2995.0852	2828.5	1938.95
1026.7519	2996.1495	2801.6	1910.35
1026.864	2997.2131	2772	1879.35
1026.9761	2998.276	2742.4	1851.45
1027.0882	2999.3383	2729.75	1838.7
1027.2002	3000.4	2700.15	1809.35
1027.3122	3001.4611	2667.25	1776.7
1027.4241	3002.5215	2655.85	1763.55
1027.536	3003.5812	2639.15	1749.55
1027.6478	3004.6404	2626.75	1736.45
1027.7596	3005.6989	2610.25	1718.15
1027.8714	3006.7567	2601	1710
1027.9831	3007.8139	2609.2	1695.5
1028.0947	3008.8705	2570.2	1678.6
1028.2064	3009.9264	2581.75	1675.95
1028.3179	3010.9818	2559.1	1667.9
1028.4295	3012.0364	2543.35	1653.5
1028.541	3013.0905	2532.3	1641.45
1028.6524	3014.1439	2538.35	1648.25
1028.7638	3015.1966	2526.95	1635.45
1028.8752	3016.2487	2515.1	1625.25
1028.9865	3017.3002	2516.2	1618.1
1029.0978	3018.3511	2499.6	1610.55
1029.209	3019.4013	2497.95	1606.3
1029.3202	3020.4509	2497.85	1608.65
1029.4314	3021.4998	2491.35	1600.35
1029.5425	3022.5481	2481.95	1590.1
1029.6535	3023.5958	2495	1604.15
1029.7645	3024.6428	2478.75	1587.35
1029.8755	3025.6892	2467.65	1579.7
1029.9864	3026.735	2473.85	1584.8
1030.0973	3027.7802	2478.5	1586.75
1030.2082	3028.8247	2468.5	1577.65
1030.319	3029.8685	2459.15	1566.85
1030.4297	3030.9118	2475.7	1583.35
1030.5404	3031.9544	2460.15	1569.1
1030.6511	3032.9963	2464.75	1573.85
1030.7617	3034.0376	2458.6	1568.95
1030.8723	3035.0783	2455.9	1562.3
1030.9829	3036.1184	2459.65	1567.6
1031.0934	3037.1578	2468.4	1579.55
1031.2038	3038.1966	2462.8	1571.05
1031.3142	3039.2348	2448.5	1560.1
1031.4246	3040.2723	2451.2	1552.2
1031.5349	3041.3092	2439.4	1549.9
1031.6452	3042.3455	2440.05	1550.4
1031.7554	3043.3811	2420.8	1529.35
1031.8656	3044.4161	2406.85	1514.8
1031.9758	3045.4505	2403	1514.3
1032.0859	3046.4842	2404.3	1513.55
1032.1959	3047.5173	2379	1488.7
1032.3059	3048.5498	2369.1	1477.2
1032.4159	3049.5816	2371.4	1479.8
1032.5258	3050.6128	2351.6	1461.2
1032.6357	3051.6434	2343.2	1452.65
1032.7455	3052.6734	2339.5	1448.65
1032.8553	3053.7027	2320.6	1429.8
1032.9651	3054.7314	2315.4	1426.6
1033.0748	3055.7594	2307.6	1419.1
1033.1845	3056.7868	2292.7	1400
1033.2941	3057.8136	2280.95	1390.7
1033.4037	3058.8398	2276.05	1386.15
1033.5132	3059.8653	2267.85	1378
1033.6227	3060.8902	2251.2	1361.65
1033.7321	3061.9145	2243.25	1353.1
1033.8415	3062.9381	2222	1332.4
1033.9509	3063.9612	2235.95	1328.55
1034.0602	3064.9835	2208.15	1316.65
1034.1694	3066.0053	2218.6	1327.85
1034.2787	3067.0264	2190.95	1302.2
1034.3878	3068.0469	2180.85	1289.1
1034.497	3069.0668	2179.45	1286.7
1034.6061	3070.086	2166.25	1273.2
1034.7151	3071.1046	2149.95	1259.9
1034.8241	3072.1226	2133.95	1243.3
1034.9331	3073.1399	2131.85	1243.55
1035.042	3074.1567	2111.8	1220.45
1035.1508	3075.1727	2097.2	1204.1
1035.2597	3076.1882	2084.35	1194.7
1035.3684	3077.203	2070.6	1182.15
1035.4772	3078.2173	2058.1	1166.5
1035.5859	3079.2308	2042	1150.65
1035.6945	3080.2438	2037.4	1144.55
1035.8031	3081.2561	2033.05	1143.5
1035.9117	3082.2678	2019.75	1129
1036.0202	3083.2789	2004.45	1115.35
1036.1286	3084.2893	1996.2	1107.2
1036.2371	3085.2991	1992.6	1099.65
1036.3454	3086.3083	1978.45	1085.8
1036.4538	3087.3169	1973.9	1082.45
1036.562	3088.3248	1967.45	1076.55
1036.6703	3089.3321	1952.6	1061.7
1036.7785	3090.3388	1943.25	1053.1
1036.8866	3091.3449	1938.25	1048.3
1036.9948	3092.3503	1929.65	1036.85
1037.1028	3093.3551	1913.25	1025.05
1037.2108	3094.3593	1916.65	1028.1
1037.3188	3095.3629	1906.35	1016.6
1037.4267	3096.3658	1899	1008.75
1037.5346	3097.3681	1893.35	1003.8
1037.6425	3098.3698	1889.3	997.45
1037.7503	3099.3708	1881.55	984.6
1037.858	3100.3713	1870.45	979.5
1037.9657	3101.3711	1856.4	965.75
1038.0734	3102.3702	1966.1	958.35
1038.181	3103.3688	1868.1	975
1038.2886	3104.3667	1847.35	957.15
1038.3961	3105.364	1837.3	946.4
1038.5036	3106.3607	1835.9	943.3
1038.611	3107.3568	1827	935.05
1038.7184	3108.3522	1823.6	935
1038.8257	3109.347	1819	925.7
1038.933	3110.3412	1815.8	921.45
1039.0403	3111.3348	1811.55	921.8
1039.1475	3112.3277	1800.3	912.95
1039.2547	3113.32	1790.85	902.3
1039.3618	3114.3117	1786.2	897.6
1039.4689	3115.3028	1783.1	891.5
1039.5759	3116.2932	1775.45	884.05
1039.6829	3117.2831	1776.3	881.3
1039.7898	3118.2723	1771.9	881
1039.8967	3119.2608	1766.95	878.5
1040.0035	3120.2488	1759.95	868.8
1040.1103	3121.2361	1755.7	866.05
1040.2171	3122.2229	1739.55	848.55
1040.3238	3123.209	1733.95	841.6
1040.4305	3124.1944	1733.8	842.05
1040.5371	3125.1793	1730.65	840.05
1040.6437	3126.1635	1724.5	836.05
1040.7502	3127.1471	1722.2	834.45
1040.8567	3128.1301	1719.3	828.6
1040.9631	3129.1125	1718.2	828.45
1041.0695	3130.0942	1708.75	818.65
1041.1759	3131.0753	1721.1	822.15
1041.2822	3132.0558	1705.35	810.6
1041.3884	3133.0357	1699.85	809.7
1041.4946	3134.015	1691.6	800.5
1041.6008	3134.9936	1698.9	807.7
1041.7069	3135.9716	1704.35	792.6
1041.813	3136.949	1680.3	791.35
1041.919	3137.9258	1680.7	784.65
1042.025	3138.902	1684.1	790.05
1042.1309	3139.8775	1675.95	785.35
1042.2368	3140.8524	1669.4	781.1
1042.3427	3141.8267	1658.8	766.85
1042.4485	3142.8004	1662.3	770.05
1042.5542	3143.7735	1667.2	772.85
1042.6599	3144.7459	1652.65	760.15
1042.7656	3145.7178	1649.55	757.85
1042.8712	3146.689	1647.4	759.35
1042.9768	3147.6596	1636.2	745.8
1043.0823	3148.6295	1628.85	740.2
1043.1878	3149.5989	1630	739.45
1043.2932	3150.5676	1630.3	740.05
1043.3986	3151.5357	1623.4	735.35
1043.5039	3152.5032	1619.4	729.4
1043.6092	3153.4701	1611.35	723
1043.7145	3154.4364	1608.5	717.05
1043.8197	3155.402	1604.05	714.3
1043.9248	3156.367	1612.55	722.25
1044.03	3157.3315	1640.35	713.25
1044.135	3158.2952	1599.55	707.95
1044.24	3159.2584	1589.85	700.75
1044.345	3160.221	1587.55	697.45
1044.4499	3161.1829	1581.4	693.4
1044.5548	3162.1442	1578.35	688.4
1044.6596	3163.105	1569.15	678.9
1044.7644	3164.065	1576.85	686.85
1044.8692	3165.0245	1572.55	680.45
1044.9739	3165.9834	1556.15	665.75
1045.0785	3166.9416	1560.25	670.15
1045.1831	3167.8993	1564.85	674.7
1045.2877	3168.8563	1554.65	663.45
1045.3922	3169.8127	1541	652.15
1045.4966	3170.7684	1547.85	660.1
1045.6011	3171.7236	1543.4	651.45
1045.7054	3172.6782	1538.35	647.35
1045.8098	3173.6321	1529.55	639.15
1045.914	3174.5854	1538.6	641.3
1046.0183	3175.5381	1533.05	644.45
1046.1224	3176.4902	1523.35	634.75
1046.2266	3177.4417	1513.7	624.15
1046.3307	3178.3926	1507.55	618.3
1046.4347	3179.3428	1509.65	621.25
1046.5387	3180.2924	1507.7	617.9
1046.6427	3181.2415	1504.25	615.6
1046.7466	3182.1899	1497.75	606.7
1046.8504	3183.1377	1496.9	609
1046.9542	3184.0848	1499.3	606.15
1047.058	3185.0314	1493.6	602.65
1047.1617	3185.9773	1491.25	601.75
1047.2654	3186.9227	1484.5	596.8
1047.369	3187.8674	1480.05	591.6
1047.4726	3188.8115	1484.55	588
1047.5761	3189.755	1477	587.45
1047.6796	3190.6979	1472.65	583.2
1047.783	3191.6402	1466.6	577.35
1047.8864	3192.5818	1462.55	573.3
1047.9898	3193.5229	1486.9	574.3
1048.0931	3194.4633	1463.8	574.5
1048.1963	3195.4031	1453.75	564.5
1048.2995	3196.3423	1453.65	563.75
1048.4027	3197.2809	1453.2	565.7
1048.5058	3198.2189	1449.25	561
1048.6089	3199.1563	1459.6	554.3
1048.7119	3200.0931	1446	555
1048.8148	3201.0292	1442.45	551.55
1048.9178	3201.9648	1434.6	544.55
1049.0206	3202.8997	1445.7	553.5
1049.1235	3203.834	1432.7	542.9
1049.2262	3204.7677	1433.4	543.2
1049.329	3205.7008	1425.35	534.2
1049.4317	3206.6333	1417.85	531
1049.5343	3207.5652	1423.4	530.65
1049.6369	3208.4964	1425.45	535.35
1049.7394	3209.4271	1409	519.65
1049.8419	3210.3571	1416.35	528.15
1049.9444	3211.2865	1405.4	514.8
1050.0468	3212.2154	1409.25	519.2
1050.1491	3213.1436	1408.1	515
1050.2514	3214.0712	1409.25	512.6
1050.3537	3214.9982	1402.2	512.85
1050.4559	3215.9246	1395.55	505.6
1050.5581	3216.8503	1394.35	506.4
1050.6602	3217.7755	1395.3	505.45
1050.7623	3218.7001	1390.85	500.25
1050.8643	3219.624	1385.55	495.5
1050.9663	3220.5473	1383.75	494.05
1051.0682	3221.4701	1383.2	493
1051.1701	3222.3922	1386.2	493.85
1051.2719	3223.3137	1380.05	490.05
1051.3737	3224.2346	1378.95	488.5
1051.4754	3225.1549	1366.8	478.15
1051.5771	3226.0746	1365.55	475.85
1051.6788	3226.9937	1366.65	476.1
1051.7804	3227.9121	1365.25	476.3
1051.8819	3228.83	1364	476.8
1051.9834	3229.7473	1356.75	467.25
1052.0849	3230.6639	1361.35	471.35
1052.1863	3231.5799	1357.2	468.15
1052.2876	3232.4954	1348.7	456.75
1052.3889	3233.4102	1344.5	454.85
1052.4902	3234.3244	1338.9	448.7
1052.5914	3235.238	1341.9	452.1
1052.6926	3236.151	1366	451.7
1052.7937	3237.0634	1339.85	451.15
1052.8948	3237.9752	1332.9	441.8
1052.9958	3238.8864	1334.55	445.45
1053.0968	3239.797	1328.9	438.7
1053.1977	3240.7069	1330.75	440.05
1053.2986	3241.6163	1330.15	439.85
1053.3994	3242.5251	1328.2	438.7
1053.5002	3243.4332	1311.8	423.25
1053.6009	3244.3408	1320.25	430.35
1053.7016	3245.2477	1312.2	422.25
1053.8022	3246.154	1313.6	423
1053.9028	3247.0598	1313.35	423.5
1054.0034	3247.9649	1309.15	418.65
1054.1039	3248.8694	1305.9	416.95
1054.2043	3249.7733	1301	411.7
1054.3047	3250.6766	1300.3	409.9
1054.4051	3251.5793	1295.15	403.3
1054.5054	3252.4814	1294.1	404.8
1054.6056	3253.3829	1289.65	401.25
1054.7058	3254.2838	1288.05	398.35
1054.806	3255.1841	1284.55	394.9
1054.9061	3256.0838	1282.2	393.3
1055.0061	3256.9829	1277.05	389.65
1055.1062	3257.8814	1272.85	381.75
1055.2061	3258.7792	1275.95	385.35
1055.306	3259.6765	1267.8	378.1
1055.4059	3260.5731	1264.2	375.75
1055.5057	3261.4692	1261.2	370.9
1055.6055	3262.3647	1254.2	363.35
1055.7052	3263.2595	1248.8	359.1
1055.8049	3264.1538	1246.3	358.25
1055.9045	3265.0474	1243	353.2
1056.0041	3265.9404	1237.7	349.15
1056.1036	3266.8329	1223.25	334.5
1056.2031	3267.7247	1232	332.5
1056.3025	3268.616	1224.3	336.8
1056.4019	3269.5066	1207.05	318.7
1056.5013	3270.3966	1204.45	313.8
1056.6005	3271.286	1186.65	299.55
