Software Version:	3.9.2.0
Unit SN:	10000200
Spectrometer SN:	6960
Date:	3/6/2024 10:21:54 AM
Data Line Index:	25
Spectral Points:	2048
Integration time (ms):	125
Averages:	20
Delay (ms):	30
Sequence Number:	1
Processing:	dark subtract
Laser Power (mW):	300
Laser Current (mA):	826
Laser Diode Temp (C):	25.1
Laser Case Temp (C):	25.5
System Temp (C):	25.3
Spectrometer Temp (C):	22.9
CCD Temp (C):	-0.002
Secondary Temp (C):	20.013
Heatsink Temp (C):	20.695
CCDPCB Temp (C):	34.439
SecondaryPCB Temp (C):	27.114

Wavelength	RamanShift	Raw Counts	Dark Subtracted
787.061	30.1047	1084.65	674.5
787.2016	32.3739	1109.55	699.5
787.3422	34.6426	1154.3	744.5
787.4828	36.9109	1193.9	782.2
787.6235	39.1787	1245.2	828.45
787.7642	41.4461	1300.15	880.9
787.9049	43.7131	1365.35	940.05
788.0456	45.9796	1419.25	992.25
788.1863	48.2456	1480	1050.7
788.3271	50.5112	1546	1110.35
788.4679	52.7764	1610.1	1174.9
788.6087	55.0411	1678.35	1238.6
788.7496	57.3054	1756.65	1311.95
788.8904	59.5692	1844.25	1395.6
789.0313	61.8326	1929.75	1480.1
789.1722	64.0955	2021.65	1567.75
789.3132	66.3579	2149.5	1690.7
789.4541	68.6199	2292.85	1830.3
789.5951	70.8815	2529.7	2061.8
789.7361	73.1426	3057.65	2585.1
789.8771	75.4032	4361.8	3884.6
790.0181	77.6634	7770	7289.55
790.1592	79.9231	16751.25	16264.4
790.3003	82.1824	52904.6	52405.65
790.4414	84.4412	65535	65018.05
790.5825	86.6995	65535	64989.7
790.7237	88.9574	65535	64961.45
790.8648	91.2148	65535	64947.05
791.006	93.4717	65535	64938.7
791.1472	95.7282	65535	64933.45
791.2885	97.9842	65535	64933.65
791.4297	100.2398	65535	64926.1
791.571	102.4949	65535	64922.95
791.7123	104.7495	65535	64921.65
791.8536	107.0036	65535	64919.05
791.9949	109.2573	65535	64918.6
792.1363	111.5105	65535	64917.15
792.2777	113.7632	65535	64920.05
792.4191	116.0154	65535	64907.1
792.5605	118.2672	65535	64912
792.7019	120.5185	65535	64909.45
792.8434	122.7693	65535	64910.1
792.9849	125.0197	65535	64905.7
793.1264	127.2696	65535	64902.2
793.2679	129.519	65535	64895
793.4094	131.7679	65535	64892.45
793.551	134.0163	65535	64893.2
793.6926	136.2642	65535	64882.8
793.8342	138.5117	65535	64878.75
793.9758	140.7587	65535	64887.05
794.1175	143.0052	65535	64882.9
794.2591	145.2512	65535	64883.55
794.4008	147.4967	65535	64879.8
794.5425	149.7417	65535	64875.45
794.6842	151.9863	65535	64875.75
794.826	154.2304	65535	64872.1
794.9677	156.4739	65535	64859.15
795.1095	158.717	65535	64865.55
795.2513	160.9596	65535	64856.25
795.3931	163.2017	65535	64858.25
795.535	165.4433	65535	64855.25
795.6768	167.6844	65535	64853.5
795.8187	169.925	65535	64850.1
795.9606	172.1651	65535	64850.65
796.1025	174.4047	65535	64844.65
796.2445	176.6439	65535	64840.2
796.3864	178.8825	65535	64840.8
796.5284	181.1206	65535	64838.1
796.6704	183.3582	65535	64831
796.8124	185.5954	65535	64830.95
796.9544	187.832	65535	64827.25
797.0965	190.0681	65535	64824.95
797.2386	192.3037	65535	64819.9
797.3806	194.5388	65535	64815
797.5228	196.7734	65535	64816.4
797.6649	199.0075	65535	64815.65
797.807	201.2411	65535	64812.3
797.9492	203.4742	65535	64815.75
798.0914	205.7068	65535	64811.8
798.2336	207.9389	65535	64803.95
798.3758	210.1704	65535	64806.55
798.518	212.4015	65535	64817.2
798.6603	214.632	65535	64827.5
798.8025	216.862	65535	64830.85
798.9448	219.0915	65535	64829.4
799.0871	221.3205	65535	64827.75
799.2294	223.549	65535	64829.3
799.3718	225.777	65535	64833.4
799.5141	228.0044	65535	64826
799.6565	230.2314	65535	64820.3
799.7989	232.4578	65535	64820
799.9413	234.6837	65535	64807.6
800.0837	236.909	65535	64810.1
800.2262	239.1339	65535	64784.65
800.3687	241.3582	65535	64799.15
800.5111	243.582	65535	64767.35
800.6536	245.8053	65535	64781.9
800.7961	248.0281	65535	64788.7
800.9387	250.2503	65535	64783.3
801.0812	252.472	65535	64779.9
801.2238	254.6932	65535	64779.6
801.3664	256.9139	65535	64781.65
801.509	259.134	65535	64777.65
801.6516	261.3536	65535	64776.45
801.7942	263.5727	65535	64777.35
801.9369	265.7912	65535	64775.6
802.0795	268.0092	65535	64776.1
802.2222	270.2267	65535	64775.2
802.3649	272.4436	65535	64772.55
802.5076	274.6601	65535	64760.7
802.6504	276.8759	65535	64767.65
802.7931	279.0913	65535	64765.3
802.9359	281.3061	65535	64765.7
803.0787	283.5204	65535	64763.15
803.2215	285.7341	65535	64760
803.3643	287.9473	65535	64750.6
803.5071	290.16	65535	64751.45
803.6499	292.3721	65535	64760.8
803.7928	294.5837	65535	64762
803.9357	296.7947	65535	64760.85
804.0786	299.0052	65535	64763.75
804.2215	301.2152	65535	64757.45
804.3644	303.4246	65535	64760.9
804.5074	305.6334	65535	64758.6
804.6503	307.8418	65535	64751.95
804.7933	310.0495	65535	64753.9
804.9363	312.2568	65535	64753.9
805.0793	314.4635	65535	64752.35
805.2223	316.6696	65535	64750.7
805.3653	318.8752	65535	64742.6
805.5084	321.0802	65535	64746.6
805.6514	323.2847	65535	64748.75
805.7945	325.4887	65535	64747.1
805.9376	327.692	65535	64747.05
806.0807	329.8949	65535	64742.9
806.2238	332.0972	65535	64742.1
806.367	334.2989	65535	64740.3
806.5101	336.5001	65535	64737.95
806.6533	338.7007	65535	64739.75
806.7965	340.9008	65535	64739.1
806.9397	343.1003	65535	64733.6
807.0829	345.2992	65535	64735.35
807.2261	347.4976	65535	64732.15
807.3693	349.6955	65535	64730.7
807.5126	351.8927	65535	64732.15
807.6559	354.0895	65535	64719.3
807.7991	356.2856	65535	64730.1
807.9424	358.4812	65535	64728.2
808.0857	360.6763	65535	64724.55
808.2291	362.8707	65535	64722.85
808.3724	365.0646	65535	64715.15
808.5158	367.258	65535	64721.15
808.6591	369.4508	65535	64715.2
808.8025	371.643	65535	64717.5
808.9459	373.8346	65535	64715.2
809.0893	376.0257	65535	64712.05
809.2327	378.2162	65535	64715.8
809.3762	380.4062	65535	64710.9
809.5196	382.5956	65535	64712.7
809.6631	384.7844	65535	64718.8
809.8066	386.9726	65535	64714.75
809.9501	389.1603	65535	64720.65
810.0936	391.3474	65535	64679.95
810.2371	393.5339	65535	64716.2
810.3806	395.7199	65535	64724.55
810.5241	397.9052	65535	64719.65
810.6677	400.09	65535	64722.7
810.8113	402.2743	65535	64714.05
810.9548	404.4579	65535	64720.9
811.0984	406.641	65535	64714.15
811.2421	408.8235	65535	64713.6
811.3857	411.0054	65535	64710.95
811.5293	413.1868	65535	64709.2
811.673	415.3675	65535	64706.4
811.8166	417.5477	65535	64704.55
811.9603	419.7273	65535	64701
812.104	421.9064	65535	64696.45
812.2477	424.0848	65535	64698.85
812.3914	426.2627	65535	64699.2
812.5351	428.4399	65535	64701.05
812.6788	430.6166	65535	64694.3
812.8226	432.7928	65535	64697
812.9663	434.9683	65535	64694.35
813.1101	437.1432	65535	64692.7
813.2539	439.3176	65535	64693.7
813.3977	441.4914	65535	64697.65
813.5415	443.6645	65535	64695.45
813.6853	445.8371	65535	64691.65
813.8291	448.0091	65535	64697.35
813.973	450.1806	65535	64693.65
814.1168	452.3514	65535	64687.3
814.2607	454.5216	65535	64680.8
814.4046	456.6913	65535	64687.65
814.5485	458.8603	65535	64690.15
814.6924	461.0288	65535	64692.45
814.8363	463.1967	65535	64689.2
814.9802	465.3639	65535	64688
815.1241	467.5306	65535	64686.05
815.2681	469.6967	65535	64688.65
815.412	471.8622	65535	64692.5
815.556	474.0271	65535	64689.9
815.7	476.1914	65535	64684.15
815.844	478.3551	65535	64687.35
815.988	480.5182	65535	64688.4
816.132	482.6807	65535	64686.4
816.276	484.8426	65535	64689.1
816.4201	487.0039	65535	64685.55
816.5641	489.1647	65535	64687.65
816.7082	491.3248	65535	64685
816.8522	493.4843	65535	64684.7
816.9963	495.6432	65535	64684.95
817.1404	497.8015	65535	64681.3
817.2845	499.9592	65535	64682
817.4286	502.1163	65535	64680.55
817.5727	504.2728	65535	64676.65
817.7168	506.4287	65535	64685.3
817.861	508.5839	65535	64681.9
818.0051	510.7386	65535	64680.25
818.1493	512.8927	65535	64677.6
818.2935	515.0461	65535	64677.4
818.4377	517.199	65535	64677.45
818.5818	519.3512	65535	64674.5
818.726	521.5029	65535	64671.3
818.8703	523.6539	65535	64671.95
819.0145	525.8043	65535	64673.35
819.1587	527.9541	65535	64673.65
819.303	530.1033	65535	64675.05
819.4472	532.2519	65535	64675.8
819.5915	534.3999	65535	64665.35
819.7357	536.5472	65535	64672.15
819.88	538.694	65535	64675.8
820.0243	540.8401	65535	64668.6
820.1686	542.9856	65535	64668.35
820.3129	545.1305	65535	64668.35
820.4572	547.2748	65535	64667.15
820.6016	549.4185	65535	64667.55
820.7459	551.5615	65535	64669.05
820.8902	553.704	65535	64671.4
821.0346	555.8458	65535	64670.05
821.1789	557.987	65535	64669.5
821.3233	560.1276	65535	64667.55
821.4677	562.2675	65535	64669.45
821.6121	564.4069	65535	64670.35
821.7565	566.5456	65535	64671.55
821.9009	568.6837	65535	64665.85
822.0453	570.8212	65535	64669.25
822.1897	572.958	65535	64668.95
822.3342	575.0942	65535	64667.95
822.4786	577.2299	65535	64669
822.6231	579.3648	65535	64667.25
822.7675	581.4992	65535	64671.4
822.912	583.6329	65535	64671.5
823.0565	585.766	65535	64669.4
823.201	587.8985	65535	64667.6
823.3454	590.0304	65535	64644.3
823.4899	592.1616	65535	64663.4
823.6345	594.2922	65535	64664.6
823.779	596.4222	65535	64661.4
823.9235	598.5515	65535	64663.25
824.068	600.6802	65535	64661.6
824.2126	602.8083	65535	64664.35
824.3571	604.9358	65535	64661.8
824.5017	607.0626	65535	64662.65
824.6462	609.1888	65535	64660.8
824.7908	611.3144	65535	64659.05
824.9354	613.4393	65535	64662.65
825.08	615.5636	65535	64659.8
825.2246	617.6873	65535	64660.8
825.3692	619.8103	65535	64655.65
825.5138	621.9327	65535	64655.7
825.6584	624.0544	65535	64660.5
825.803	626.1756	65535	64661.4
825.9477	628.2961	65535	64661.05
826.0923	630.4159	65535	64658.05
826.237	632.5351	65535	64656.15
826.3816	634.6537	65535	64658.2
826.5263	636.7716	65535	64658.05
826.6709	638.8889	65535	64654.15
826.8156	641.0056	65535	64655.8
826.9603	643.1216	65535	64655.45
827.105	645.237	65535	64652.85
827.2497	647.3518	65535	64656.4
827.3944	649.4659	65535	64655.7
827.5391	651.5793	65535	64658.5
827.6838	653.6922	65535	64658.75
827.8285	655.8043	65535	64658.5
827.9733	657.9159	65535	64655.05
828.118	660.0268	65535	64655.1
828.2627	662.137	65535	64655.15
828.4075	664.2466	65535	64652.8
828.5522	666.3556	65535	64654.1
828.697	668.4639	65535	64647.75
828.8418	670.5716	65535	64655.9
828.9865	672.6786	65535	64651.75
829.1313	674.785	65535	64650.85
829.2761	676.8907	65535	64651.9
829.4209	678.9958	65535	64655.65
829.5657	681.1002	65535	64650.65
829.7105	683.204	65535	64646.55
829.8553	685.3072	65535	64652.85
830.0001	687.4097	65535	64650.6
830.1449	689.5115	65535	64649.8
830.2898	691.6127	65535	64654.15
830.4346	693.7132	65535	64650.75
830.5794	695.8131	65535	64628.75
830.7243	697.9123	65535	64648.6
830.8691	700.0109	65535	64649.75
831.014	702.1089	65535	64648.25
831.1588	704.2061	65535	64647.2
831.3037	706.3028	65535	64647.5
831.4486	708.3987	65535	64650.15
831.5935	710.4941	65535	64649.65
831.7383	712.5887	65535	64647.15
831.8832	714.6827	65535	64642.9
832.0281	716.7761	65535	64647.5
832.173	718.8688	65535	64643.25
832.3179	720.9608	65535	64641.4
832.4628	723.0522	65535	64642.95
832.6077	725.1429	65535	64645.05
832.7527	727.233	65535	64644.6
832.8976	729.3224	65535	64645.6
833.0425	731.4112	65535	64643.05
833.1874	733.4993	65535	64641.35
833.3324	735.5867	65535	64642.3
833.4773	737.6735	65535	64642.95
833.6222	739.7596	65535	64640.6
833.7672	741.845	65535	64642.6
833.9122	743.9298	65535	64644.5
834.0571	746.014	65535	64643.65
834.2021	748.0974	65535	64639.8
834.347	750.1802	65535	64642
834.492	752.2624	65535	64644.05
834.637	754.3439	65535	64640.05
834.782	756.4247	65535	64632.6
834.9269	758.5048	65535	64642.25
835.0719	760.5843	65535	64645.85
835.2169	762.6631	65535	64640.25
835.3619	764.7413	65535	64642.65
835.5069	766.8188	65535	64643.35
835.6519	768.8956	65535	64642.8
835.7969	770.9718	65535	64641.7
835.9419	773.0473	65535	64641.9
836.0869	775.1221	65535	64643.85
836.232	777.1962	65535	64646.85
836.377	779.2697	65535	64639.75
836.522	781.3426	65535	64621.75
836.667	783.4147	65535	64639.4
836.8121	785.4862	65535	64641.55
836.9571	787.557	65535	64641
837.1021	789.6271	65535	64642.05
837.2472	791.6966	65535	64641.85
837.3922	793.7654	65535	64640.1
837.5373	795.8335	65535	64642.45
837.6823	797.901	65535	64638.05
837.8274	799.9678	65535	64637.7
837.9724	802.0339	65535	64639.75
838.1175	804.0993	65535	64630.3
838.2626	806.1641	65535	64638.85
838.4076	808.2282	65535	64640.05
838.5527	810.2916	65535	64639.8
838.6978	812.3544	65535	64643.1
838.8428	814.4164	65535	64642.1
838.9879	816.4778	65535	64639.75
839.133	818.5385	65535	64641.75
839.2781	820.5986	65535	64640.6
839.4232	822.658	65535	64640.05
839.5682	824.7166	65535	64639.85
839.7133	826.7747	65535	64642.5
839.8584	828.832	65535	64638.7
840.0035	830.8886	65535	64636.65
840.1486	832.9446	65535	64637.2
840.2937	834.9999	65535	64639.95
840.4388	837.0545	65535	64636.2
840.5839	839.1085	65535	64638.45
840.729	841.1618	65535	64635.65
840.8741	843.2143	65535	64639.5
841.0192	845.2662	65535	64637.4
841.1643	847.3175	65535	64638.6
841.3095	849.368	65535	64642.15
841.4546	851.4179	65535	64639.6
841.5997	853.467	65535	64638.55
841.7448	855.5155	65535	64637.4
841.8899	857.5633	65535	64636.65
842.0351	859.6105	65535	64638
842.1802	861.6569	65535	64642.2
842.3253	863.7027	65535	64637.95
842.4704	865.7478	65535	64635.8
842.6156	867.7922	65535	64639.15
842.7607	869.8359	65535	64636.95
842.9058	871.8789	65535	64635.15
843.0509	873.9212	65535	64606.6
843.1961	875.9629	65535	64637.1
843.3412	878.0039	65535	64637.8
843.4863	880.0441	65535	64639.05
843.6315	882.0837	65535	64636.1
843.7766	884.1226	65535	64636.4
843.9218	886.1609	65535	64638.2
844.0669	888.1984	65535	64636.2
844.212	890.2352	65535	64638.45
844.3572	892.2714	65535	64632.4
844.5023	894.3069	65535	64633.95
844.6475	896.3416	65535	64636.65
844.7926	898.3757	65535	64636.75
844.9377	900.4091	65535	64634.85
845.0829	902.4418	65535	64628.75
845.228	904.4739	65535	64635.5
845.3732	906.5052	65535	64634.55
845.5183	908.5358	65535	64639.35
845.6635	910.5658	65535	64633.65
845.8086	912.595	65535	64635.7
845.9538	914.6236	65535	64636.45
846.0989	916.6515	65535	64635.95
846.2441	918.6786	65535	64637.55
846.3892	920.7051	65535	64632.15
846.5344	922.7309	65535	64634.75
846.6795	924.756	65535	64635.3
846.8246	926.7804	65535	64631.05
846.9698	928.8041	65535	64631.7
847.1149	930.8272	65535	64635.35
847.2601	932.8495	65535	64633.05
847.4052	934.8711	65535	64633.55
847.5504	936.892	65535	64637.65
847.6955	938.9123	65535	64633.7
847.8407	940.9318	65535	64634.35
847.9858	942.9506	65535	64634.45
848.131	944.9688	65535	64633.65
848.2761	946.9862	65535	64634.55
848.4213	949.003	65535	64634.85
848.5664	951.019	65535	64633.35
848.7115	953.0344	65535	64636
848.8567	955.0491	65535	64632.15
849.0018	957.063	65535	64633.65
849.147	959.0763	65535	64637.25
849.2921	961.0888	65535	64633.3
849.4373	963.1007	65535	64632.2
849.5824	965.1119	65535	64634.95
849.7275	967.1223	65535	64635.05
849.8727	969.1321	65535	64637
850.0178	971.1412	65535	64635.2
850.1629	973.1495	65535	64638.1
850.3081	975.1572	65535	64603.75
850.4532	977.1641	65535	64634.55
850.5983	979.1704	65535	64633.85
850.7435	981.1759	65535	64630.75
850.8886	983.1808	65535	64630.8
851.0337	985.1849	65535	64621.75
851.1788	987.1884	65535	64630.55
851.324	989.1911	65535	64634.25
851.4691	991.1932	65535	64634.65
851.6142	993.1945	65535	64634.95
851.7593	995.1951	65535	64636.2
851.9045	997.1951	65535	64627.55
852.0496	999.1943	65535	64631.75
852.1947	1001.1928	65535	64631.95
852.3398	1003.1906	65535	64633.4
852.4849	1005.1877	65535	64631.4
852.63	1007.1841	65535	64634.35
852.7751	1009.1798	65535	64635.2
852.9202	1011.1748	65535	64636.95
853.0653	1013.1691	65535	64633.2
853.2104	1015.1627	65535	64632.4
853.3555	1017.1556	65535	64634
853.5006	1019.1477	65535	64632.65
853.6457	1021.1392	65535	64634.9
853.7908	1023.1299	65535	64635.7
853.9359	1025.12	65535	64634.7
854.081	1027.1093	65535	64639.75
854.2261	1029.0979	65535	64639.3
854.3712	1031.0859	65535	64640
854.5163	1033.0731	65535	64633.6
854.6613	1035.0596	65535	64638.25
854.8064	1037.0454	65535	64632.75
854.9515	1039.0304	65535	64633.75
855.0965	1041.0148	65535	64636
855.2416	1042.9985	65535	64632.15
855.3867	1044.9814	65535	64638.2
855.5317	1046.9636	65535	64631.45
855.6768	1048.9452	65535	64636.65
855.8219	1050.926	65535	64635.6
855.9669	1052.9061	65535	64636.25
856.112	1054.8855	65535	64633.2
856.257	1056.8642	65535	64634.3
856.4021	1058.8421	65535	64630.35
856.5471	1060.8194	65535	64635.9
856.6921	1062.7959	65535	64634.95
856.8372	1064.7717	65535	64634.35
856.9822	1066.7469	65535	64630.6
857.1272	1068.7213	65535	64631.2
857.2723	1070.695	65535	64635.4
857.4173	1072.6679	65535	64634.1
857.5623	1074.6402	65535	64634.65
857.7073	1076.6117	65535	64627.95
857.8523	1078.5826	65535	64634.4
857.9973	1080.5527	65535	64634.2
858.1423	1082.5221	65535	64632.25
858.2873	1084.4908	65535	64635.5
858.4323	1086.4587	65535	64634.6
858.5773	1088.426	65535	64633.95
858.7223	1090.3925	65535	64629.3
858.8673	1092.3584	65535	64634.5
859.0123	1094.3235	65535	64637
859.1573	1096.2879	65535	64634.5
859.3022	1098.2515	65535	64633.6
859.4472	1100.2145	65535	64634.4
859.5922	1102.1767	65535	64632.55
859.7371	1104.1382	65535	64634.2
859.8821	1106.099	65535	64632
860.027	1108.0591	65535	64633.8
860.172	1110.0185	65535	64630.65
860.3169	1111.9771	65535	64633.2
860.4619	1113.9351	65535	64633.5
860.6068	1115.8923	65535	64635.35
860.7517	1117.8488	65535	64633.4
860.8967	1119.8045	65535	64634.75
861.0416	1121.7596	65535	64632.4
861.1865	1123.7139	65535	64635.45
861.3314	1125.6675	65535	64636.8
861.4763	1127.6204	65535	64634.5
861.6212	1129.5726	65535	64632.45
861.7661	1131.524	65535	64635.9
861.911	1133.4748	65535	64631
862.0559	1135.4248	65535	64632.35
862.2008	1137.3741	65535	64637.65
862.3457	1139.3226	65535	64633.8
862.4905	1141.2705	65535	64633.9
862.6354	1143.2176	65535	64628.5
862.7803	1145.164	65535	64632.95
862.9251	1147.1097	65535	64633.35
863.07	1149.0546	65535	64633.3
863.2148	1150.9989	65535	64634.75
863.3597	1152.9424	65535	64631.75
863.5045	1154.8852	65535	64634.35
863.6493	1156.8272	65535	64636.25
863.7942	1158.7686	65535	64627.35
863.939	1160.7092	65535	64634.05
864.0838	1162.6491	65535	64630.75
864.2286	1164.5883	65535	64633.85
864.3734	1166.5267	65535	64634.35
864.5182	1168.4644	65535	64636.9
864.663	1170.4014	65535	64632.35
864.8078	1172.3377	65535	64634.25
864.9526	1174.2732	65535	64634.75
865.0974	1176.2081	65535	64634.05
865.2421	1178.1421	65535	64628.9
865.3869	1180.0755	65535	64635.2
865.5317	1182.0082	65535	64633.35
865.6764	1183.9401	65535	64635.65
865.8212	1185.8713	65535	64637.35
865.9659	1187.8017	65535	64634.9
866.1106	1189.7315	65535	64638.15
866.2554	1191.6605	65535	64609
866.4001	1193.5888	65535	64635.15
866.5448	1195.5163	65535	64634.75
866.6895	1197.4432	65535	64633.35
866.8342	1199.3693	65535	64633.45
866.9789	1201.2947	65535	64630.7
867.1236	1203.2193	65535	64635.9
867.2683	1205.1432	65535	64635.6
867.413	1207.0664	65535	64633.95
867.5576	1208.9889	65535	64630.25
867.7023	1210.9106	65535	64636.05
867.847	1212.8316	65535	64634.35
867.9916	1214.7519	65535	64626.75
868.1363	1216.6715	65535	64634.35
868.2809	1218.5903	65535	64634.55
868.4255	1220.5084	65535	64634.15
868.5701	1222.4257	65535	64635.8
868.7148	1224.3424	65535	64636.25
868.8594	1226.2583	65535	64628.05
869.004	1228.1735	65535	64634.15
869.1486	1230.0879	65535	64634.5
869.2932	1232.0016	65535	64635.45
869.4377	1233.9146	65535	64635.05
869.5823	1235.8269	65535	64635.95
869.7269	1237.7384	65535	64637.15
869.8715	1239.6492	65535	64637.55
870.016	1241.5592	65535	64635.35
870.1606	1243.4686	65535	64637.05
870.3051	1245.3772	65535	64636.15
870.4496	1247.285	65535	64633.85
870.5941	1249.1922	65535	64634.85
870.7387	1251.0986	65535	64637.2
870.8832	1253.0042	65535	64637.15
871.0277	1254.9092	65535	64635.15
871.1722	1256.8134	65535	64637.55
871.3167	1258.7169	65535	64635.5
871.4611	1260.6196	65535	64636.6
871.6056	1262.5216	65535	64632.8
871.7501	1264.4229	65535	64636.3
871.8945	1266.3234	65535	64636.05
872.039	1268.2232	65535	64634.6
872.1834	1270.1223	65535	64632.5
872.3278	1272.0207	65535	64633.9
872.4723	1273.9183	65535	64630.2
872.6167	1275.8151	65535	64636.4
872.7611	1277.7113	65535	64634.95
872.9055	1279.6067	65535	64633.95
873.0499	1281.5014	65535	64635.15
873.1943	1283.3953	65535	64633.35
873.3386	1285.2885	65535	64636.55
873.483	1287.181	65535	64635.05
873.6274	1289.0727	65535	64637.3
873.7717	1290.9637	65535	64632.95
873.9161	1292.854	65535	64634.6
874.0604	1294.7435	65535	64633.75
874.2047	1296.6323	65535	64635.6
874.349	1298.5204	65535	64631.95
874.4933	1300.4077	65535	64633.75
874.6376	1302.2943	65535	64637.45
874.7819	1304.1802	65535	64635.15
874.9262	1306.0653	65535	64634.4
875.0705	1307.9497	65535	64635.65
875.2147	1309.8333	65535	64636.3
875.359	1311.7162	65535	64635.4
875.5032	1313.5984	65535	64633.2
875.6475	1315.4798	65535	64624
875.7917	1317.3605	65535	64617
875.9359	1319.2405	65535	64633.15
876.0801	1321.1197	65535	64632.45
876.2243	1322.9982	65535	64631.85
876.3685	1324.876	65535	64635.75
876.5127	1326.753	65535	64635.3
876.6569	1328.6293	65535	64633.25
876.801	1330.5048	65535	64634.5
876.9452	1332.3796	65535	64634.95
877.0893	1334.2537	65535	64606.95
877.2335	1336.127	65535	64635.65
877.3776	1337.9996	65535	64635.2
877.5217	1339.8714	65535	64633.9
877.6658	1341.7426	65535	64593.15
877.8099	1343.6129	65535	64635.85
877.954	1345.4826	65535	64634.45
878.0981	1347.3515	65535	64632.85
878.2422	1349.2196	65535	64634.2
878.3862	1351.087	65535	64635
878.5303	1352.9537	65535	64631.8
878.6743	1354.8197	65535	64635.3
878.8184	1356.6849	65535	64635.5
878.9624	1358.5493	65535	64633.05
879.1064	1360.4131	65535	64636.65
879.2504	1362.276	65535	64634.9
879.3944	1364.1383	65535	64638.2
879.5384	1365.9998	65535	64628.45
879.6823	1367.8606	65535	64635.05
879.8263	1369.7206	65535	64636.5
879.9702	1371.5799	65535	64631.7
880.1142	1373.4384	65535	64635.05
880.2581	1375.2962	65535	64634.65
880.402	1377.1533	65535	64635.4
880.5459	1379.0096	65535	64634
880.6898	1380.8652	65535	64636.75
880.8337	1382.7201	65535	64635.85
880.9776	1384.5742	65535	64636.9
881.1215	1386.4275	65535	64634.45
881.2653	1388.2802	65535	64637.5
881.4092	1390.132	65535	64633.05
881.553	1391.9832	65535	64635.2
881.6968	1393.8336	65535	64635.15
881.8406	1395.6832	65535	64635.85
881.9844	1397.5322	65535	64637.85
882.1282	1399.3803	65535	64633.4
882.272	1401.2278	65535	64635.5
882.4158	1403.0745	65535	64636.8
882.5595	1404.9204	65535	64636.9
882.7033	1406.7656	65535	64636.15
882.847	1408.6101	65535	64635.15
882.9908	1410.4538	65535	64638.35
883.1345	1412.2968	65535	64635.45
883.2782	1414.139	65535	64634.4
883.4219	1415.9805	65535	64635.6
883.5656	1417.8213	65535	64629.15
883.7092	1419.6613	65535	64638.7
883.8529	1421.5006	65535	64635.9
883.9965	1423.3391	65535	64636.45
884.1402	1425.1769	65535	64635.95
884.2838	1427.0139	65535	64635.45
884.4274	1428.8502	65535	64634.95
884.571	1430.6858	65535	64638.25
884.7146	1432.5206	65535	64637.1
884.8582	1434.3547	65535	64637
885.0018	1436.188	65535	64638.55
885.1453	1438.0206	65535	64635.6
885.2889	1439.8524	65535	64635.65
885.4324	1441.6835	65535	64637.05
885.5759	1443.5139	65535	64630.85
885.7194	1445.3435	65535	64636.45
885.8629	1447.1724	65535	64638.85
886.0064	1449.0005	65535	64637.3
886.1499	1450.8279	65535	64636.3
886.2933	1452.6545	65535	64635.8
886.4368	1454.4804	65535	64637.5
886.5802	1456.3056	65535	64630.25
886.7237	1458.13	65535	64637.05
886.8671	1459.9536	65535	64635.75
887.0105	1461.7766	65535	64638.05
887.1539	1463.5987	65535	64634.25
887.2972	1465.4202	65535	64636.55
887.4406	1467.2409	65535	64639.35
887.584	1469.0608	65535	64638.65
887.7273	1470.88	65535	64634.6
887.8706	1472.6984	65535	64637.8
888.0139	1474.5161	65535	64631.5
888.1572	1476.3331	65535	64636
888.3005	1478.1493	65535	64636.1
888.4438	1479.9648	65535	64637.35
888.5871	1481.7795	65535	64637
888.7303	1483.5935	65535	64638.6
888.8736	1485.4067	65535	64636.85
889.0168	1487.2192	65535	64635
889.16	1489.031	65535	64636.45
889.3032	1490.842	65535	64639
889.4464	1492.6522	65535	64637.8
889.5896	1494.4618	65535	64637.15
889.7327	1496.2705	65535	64638.4
889.8759	1498.0785	65535	64636.1
890.019	1499.8858	65535	64635.05
890.1622	1501.6924	65535	64637.2
890.3053	1503.4981	65535	64637.7
890.4484	1505.3032	65535	64636.95
890.5914	1507.1075	65535	64637.95
890.7345	1508.911	65535	64638.45
890.8776	1510.7138	65535	64637.8
891.0206	1512.5159	65535	64635.9
891.1637	1514.3172	65535	64638.4
891.3067	1516.1178	65535	64639.1
891.4497	1517.9176	65535	64635.75
891.5927	1519.7166	65535	64638.25
891.7357	1521.515	65535	64631.05
891.8786	1523.3126	65535	64636.8
892.0216	1525.1094	65535	64634.3
892.1645	1526.9055	65535	64638.5
892.3074	1528.7008	65535	64636.9
892.4503	1530.4954	65535	64634.9
892.5932	1532.2893	65535	64639.1
892.7361	1534.0824	65535	64635.4
892.879	1535.8747	65535	64637.55
893.0218	1537.6663	65535	64640.25
893.1647	1539.4572	65535	64637.9
893.3075	1541.2473	65535	64638
893.4503	1543.0367	65535	64638.25
893.5931	1544.8253	65535	64632.5
893.7359	1546.6132	65535	64633.9
893.8787	1548.4003	65535	64630.8
894.0214	1550.1867	65535	64629.95
894.1642	1551.9723	65535	64634.85
894.3069	1553.7572	65535	64637.9
894.4496	1555.5414	65535	64640.4
894.5923	1557.3247	65525.95	64630.75
894.735	1559.1074	65535	64640.9
894.8777	1560.8893	65535	64640.65
895.0204	1562.6705	65535	64637.9
895.163	1564.4509	65535	64639.2
895.3056	1566.2305	65535	64641.1
895.4482	1568.0094	65535	64640.2
895.5908	1569.7876	65535	64642.05
895.7334	1571.565	65534.65	64638.4
895.876	1573.3417	65535	64642.15
896.0186	1575.1176	65535	64641.7
896.1611	1576.8928	65535	64639.55
896.3036	1578.6672	65524.6	64632.2
896.4461	1580.4409	65535	64641.3
896.5886	1582.2138	65523.6	64626.55
896.7311	1583.986	65527.6	64630.15
896.8736	1585.7575	65517.45	64625.25
897.0161	1587.5282	65524.75	64631.3
897.1585	1589.2981	65522.7	64630.3
897.3009	1591.0673	65511.95	64617.5
897.4433	1592.8358	65490.45	64597.95
897.5857	1594.6035	65518.45	64619.5
897.7281	1596.3704	65520.4	64624.45
897.8705	1598.1366	65481.9	64586.6
898.0128	1599.9021	65456.65	64561.5
898.1551	1601.6668	65507.2	64610.9
898.2975	1603.4308	65472.95	64577.85
898.4398	1605.194	65466.35	64568.55
898.5821	1606.9564	65415.95	64522
898.7243	1608.7182	65466.5	64569.65
898.8666	1610.4791	65451.9	64558.65
899.0088	1612.2394	65473.1	64580.75
899.1511	1613.9988	65422.95	64531.9
899.2933	1615.7576	65472.3	64580.3
899.4355	1617.5156	65463.65	64564.45
899.5776	1619.2728	65495	64601.4
899.7198	1621.0293	65421.1	64527.4
899.862	1622.785	65428.9	64532.35
900.0041	1624.54	65451.35	64554.1
900.1462	1626.2942	65408.9	64513.6
900.2883	1628.0477	65364.85	64468.35
900.4304	1629.8005	65334.6	64437.3
900.5725	1631.5525	65381.55	64486.15
900.7145	1633.3037	65323.4	64430.7
900.8566	1635.0542	65321.8	64427.25
900.9986	1636.804	65363.45	64471.35
901.1406	1638.553	65286.75	64302.75
901.2826	1640.3013	65305.95	64412.1
901.4245	1642.0488	65283.9	64388.25
901.5665	1643.7955	65313.5	64422.4
901.7085	1645.5416	65282.35	64390.7
901.8504	1647.2868	65258.15	64365.75
901.9923	1649.0313	65304.9	64410.95
902.1342	1650.7751	65278.1	64383.1
902.2761	1652.5181	65261.45	64368.45
902.4179	1654.2604	65262.95	64370.6
902.5598	1656.0019	65267.25	64375.55
902.7016	1657.7427	65256.4	64364.55
902.8434	1659.4828	65279.7	64387.2
902.9852	1661.222	65245.15	64350.6
903.127	1662.9606	65270.95	64378.45
903.2687	1664.6984	65239.15	64346.35
903.4105	1666.4354	65253.7	64359.2
903.5522	1668.1717	65202.1	64307.95
903.6939	1669.9072	65152.95	64259.05
903.8356	1671.642	65172.2	64276.7
903.9773	1673.3761	65142.8	64253.2
904.119	1675.1094	65124.65	64233.7
904.2606	1676.8419	65075.6	64182.05
904.4022	1678.5737	65088	64195.2
904.5439	1680.3048	65076.25	64183.55
904.6855	1682.0351	65050.2	64159.35
904.827	1683.7646	65028.75	64131.6
904.9686	1685.4934	65047.8	64157.4
905.1101	1687.2215	64878.95	63985.65
905.2517	1688.9488	65011.9	64121.45
905.3932	1690.6754	64720.9	63829.9
905.5347	1692.4012	64879.85	63987.55
905.6761	1694.1263	64913.9	64019.65
905.8176	1695.8506	64780.1	63886.85
905.9591	1697.5742	64812.75	63922.05
906.1005	1699.297	64772.1	63879.55
906.2419	1701.0191	64792.25	63899.4
906.3833	1702.7404	64607.85	63717.95
906.5246	1704.461	64535	63643.35
906.666	1706.1808	64666.8	63772.1
906.8073	1707.8999	64580.6	63688.35
906.9487	1709.6182	64532.6	63640.9
907.09	1711.3358	64511.6	63620.55
907.2313	1713.0527	64471	63581
907.3725	1714.7688	64494.25	63596.85
907.5138	1716.4841	64247.3	63354.05
907.655	1718.1987	64335.75	63440.65
907.7962	1719.9126	64278	63385.15
907.9374	1721.6257	64319.9	63426.7
908.0786	1723.338	64324.65	63432.65
908.2198	1725.0496	64047.15	63156.6
908.3609	1726.7605	64068.55	63177.1
908.502	1728.4706	63972.95	63082.05
908.6431	1730.18	64106.95	63211.45
908.7842	1731.8886	63965.85	63073
908.9253	1733.5964	63881.95	62984.6
909.0664	1735.3036	64031.45	63136.9
909.2074	1737.0099	63884.35	62992.95
909.3484	1738.7156	63779	62888.9
909.4894	1740.4204	63744.2	62850
909.6304	1742.1246	63790.85	62899.85
909.7714	1743.8279	63805.7	62915.4
909.9123	1745.5306	63804.2	62911.7
910.0532	1747.2325	63459.8	62568.5
910.1941	1748.9336	63484.2	62592.65
910.335	1750.634	63560.8	62668.3
910.4759	1752.3336	63634.3	62743.65
910.6168	1754.0325	63403.7	62513.1
910.7576	1755.7307	63604.9	62713.1
910.8984	1757.4281	63354.85	62463.4
911.0392	1759.1247	63535.5	62634.85
911.18	1760.8206	63259.75	62365
911.3208	1762.5158	63296.15	62399.5
911.4615	1764.2102	63325.05	62436.3
911.6022	1765.9039	63275.45	62385
911.7429	1767.5968	63220.95	62331.8
911.8836	1769.289	63148.7	62256.7
912.0243	1770.9804	63175.4	62284.15
912.1649	1772.6711	63123	62231.65
912.3056	1774.361	63054.25	62161.6
912.4462	1776.0502	63063.3	62171.95
912.5868	1777.7386	62810.6	61917.7
912.7274	1779.4263	62965.55	62073.25
912.8679	1781.1132	62972.1	62082.15
913.0084	1782.7994	62889.95	61997.4
913.149	1784.4849	62907.95	62019.6
913.2895	1786.1696	62496.9	61599.75
913.4299	1787.8535	62749.15	61856.1
913.5704	1789.5367	62778.35	61888.15
913.7108	1791.2192	62521.45	61630.75
913.8513	1792.9009	62273.2	61351.45
913.9917	1794.5818	62561.35	61669.5
914.132	1796.2621	62274.8	61386.15
914.2724	1797.9415	62340	61451.9
914.4128	1799.6202	62271.95	61381.15
914.5531	1801.2982	62262.7	61370.4
914.6934	1802.9755	61896.55	61005.25
914.8337	1804.6519	61749.2	60856.55
914.9739	1806.3277	62311.15	61418.9
915.1142	1808.0027	61419.75	60530.15
915.2544	1809.6769	61738.7	60847.35
915.3946	1811.3504	61790.55	60897.3
915.5348	1813.0231	61068.4	60177.85
915.675	1814.6951	61543.95	60653.45
915.8151	1816.3664	61265.7	60373.1
915.9553	1818.0369	61258.5	60367.75
916.0954	1819.7067	61029.05	60139.25
916.2355	1821.3757	61439.65	60547.6
916.3755	1823.044	60909.25	60017.95
916.5156	1824.7115	60513.8	59621.5
916.6556	1826.3783	60751.3	59861.55
916.7956	1828.0443	60777.55	59887.8
916.9356	1829.7096	60537.75	59646.15
917.0756	1831.3741	59967.4	59074.4
917.2155	1833.0379	60313.7	59425.4
917.3555	1834.701	60340.2	59447.75
917.4954	1836.3633	59933.7	59043.65
917.6353	1838.0248	60176.35	59284.5
917.7751	1839.6856	60015.1	59125.2
917.915	1841.3457	59510.85	58620.75
918.0548	1843.005	60088.85	59197
918.1946	1844.6636	59735.7	58846.7
918.3344	1846.3214	59017.75	58125.85
918.4742	1847.9785	59257.1	58367.9
918.6139	1849.6349	59143.55	58252.5
918.7537	1851.2904	59663	58763.95
918.8934	1852.9453	58790.2	57898.05
919.0331	1854.5994	59210.7	58319.55
919.1727	1856.2528	59138.8	58241.75
919.3124	1857.9054	58613.25	57723.65
919.452	1859.5572	58343.6	57451.65
919.5916	1861.2083	58634.05	57745.05
919.7312	1862.8587	59170.3	58279.65
919.8708	1864.5084	57682.2	56790.35
920.0103	1866.1572	58432.35	57541.6
920.1498	1867.8054	57600.55	56709
920.2893	1869.4528	58021.1	57129.65
920.4288	1871.0994	57537.95	56647.85
920.5683	1872.7453	57390.55	56499.85
920.7077	1874.3905	57699.9	56803.45
920.8471	1876.0349	57064.45	56172.3
920.9865	1877.6786	57532.45	56638.6
921.1259	1879.3215	56928.1	56037.1
921.2653	1880.9637	57617.3	56725.75
921.4046	1882.6051	56910.5	56019.1
921.5439	1884.2458	56646.4	55753.95
921.6832	1885.8858	56295.1	55405.2
921.8225	1887.525	56620.05	55728.75
921.9617	1889.1634	56418.15	55527.6
922.101	1890.8011	56163.9	55275.55
922.2402	1892.4381	55515.7	54625.45
922.3794	1894.0743	56277.2	55387.3
922.5185	1895.7098	55792.15	54901.65
922.6577	1897.3446	55375.6	54483.35
922.7968	1898.9786	55492.35	54596.9
922.9359	1900.6118	55112.65	54223.15
923.075	1902.2443	54823.8	53934.6
923.214	1903.8761	55245.15	54355.55
923.3531	1905.5071	54832.25	53940.5
923.4921	1907.1374	53998.75	53107.85
923.6311	1908.7669	54342.35	53451.05
923.77	1910.3957	54628.95	53738.15
923.909	1912.0237	53947.6	53058.1
924.0479	1913.651	53690.35	52798.8
924.1868	1915.2776	53482.3	52592.45
924.3257	1916.9034	53491.55	52602.7
924.4646	1918.5285	53186.35	52296.4
924.6034	1920.1528	53208.95	52318.1
924.7422	1921.7764	53002.15	52110
924.881	1923.3992	52879.2	51991.05
925.0198	1925.0213	52508.6	51616.95
925.1586	1926.6427	52036.1	51147.5
925.2973	1928.2633	52251.9	51282.65
925.436	1929.8832	52086.9	51196.7
925.5747	1931.5023	51875	50985.3
925.7134	1933.1207	51448.65	50557.65
925.852	1934.7383	51663.25	50773.45
925.9906	1936.3552	51278.8	50389.65
926.1292	1937.9714	51235.3	50344.5
926.2678	1939.5868	51211.7	50318.65
926.4064	1941.2015	50689.55	49798.65
926.5449	1942.8154	50337.45	49446.9
926.6834	1944.4286	50401.45	49510.45
926.8219	1946.041	50365.55	49456.85
926.9604	1947.6528	50029.8	49134.5
927.0988	1949.2637	49815.35	48926.2
927.2372	1950.8739	49590.45	48699.7
927.3756	1952.4834	49664.55	48774.25
927.514	1954.0921	49483.55	48592.6
927.6523	1955.7001	49091.9	48197.05
927.7907	1957.3074	49182.85	48294.35
927.929	1958.9139	48813.1	47924.7
928.0673	1960.5197	48846.5	47955.95
928.2055	1962.1247	48587.45	47699.15
928.3438	1963.729	48374.15	47485.45
928.482	1965.3325	48209.2	47297.75
928.6202	1966.9353	48178.3	47288.4
928.7584	1968.5374	47758.65	46869.15
928.8965	1970.1387	47631.8	46741.9
929.0346	1971.7393	47618.3	46729.25
929.1727	1973.3392	47418.8	46531.2
929.3108	1974.9383	47205.9	46316.15
929.4489	1976.5366	47010.45	46122.25
929.5869	1978.1342	46966.2	46074.7
929.7249	1979.7311	46800.8	45910.25
929.8629	1981.3273	46758.05	45868.45
930.0009	1982.9227	46496.3	45606.2
930.1388	1984.5173	46403.9	45516.55
930.2767	1986.1112	46149	45259.15
930.4146	1987.7044	46204.25	45314.95
930.5525	1989.2968	45775.85	44885.2
930.6904	1990.8885	45821	44928.55
930.8282	1992.4795	45651.6	44759.7
930.966	1994.0697	45502	44613.9
931.1038	1995.6592	45330.65	44443.2
931.2415	1997.2479	45176.4	44285.35
931.3793	1998.8359	45132.85	44242.9
931.517	2000.4232	44881.1	43992.6
931.6547	2002.0097	44765.95	43879.3
931.7923	2003.5955	44570.7	43682.95
931.93	2005.1805	44514.2	43622.35
932.0676	2006.7648	44383.2	43492.8
932.2052	2008.3484	44267.85	43376.45
932.3427	2009.9312	44239.55	43350.45
932.4803	2011.5133	44076.75	43189.9
932.6178	2013.0946	43937.05	43049.2
932.7553	2014.6752	43816.35	42929.75
932.8928	2016.2551	43722.5	42833.9
933.0302	2017.8342	43484.65	42594.65
933.1676	2019.4126	43294.6	42405.85
933.305	2020.9902	43178.35	42290.05
933.4424	2022.5672	43109.45	42218
933.5798	2024.1433	43008.55	42114
933.7171	2025.7188	42818.55	41931.6
933.8544	2027.2935	42633.05	41743.35
933.9917	2028.8674	42537.7	41650.6
934.129	2030.4406	42405.6	41519.55
934.2662	2032.0131	42133.95	41247.2
934.4034	2033.5849	42061.8	41165.4
934.5406	2035.1559	41991.1	41104
934.6778	2036.7261	41933.4	41044.1
934.8149	2038.2957	41811.25	40921.05
934.952	2039.8645	41698.3	40810.1
935.0891	2041.4325	41703.3	40810.65
935.2262	2042.9998	41502.35	40612.9
935.3632	2044.5664	41340.45	40450.35
935.5002	2046.1323	41302.65	40414.5
935.6372	2047.6974	41133.65	40245.3
935.7742	2049.2617	41055.85	40167.05
935.9111	2050.8254	41081.05	40188.1
936.048	2052.3883	40867.45	39976.7
936.1849	2053.9504	40794.45	39905.3
936.3218	2055.5118	40641.65	39752.35
936.4586	2057.0725	40367.7	39476
936.5955	2058.6325	40327.35	39438.8
936.7323	2060.1917	40239	39352.45
936.869	2061.7502	40114	39221.9
937.0058	2063.3079	39943.75	39055.15
937.1425	2064.8649	39813.25	38923.4
937.2792	2066.4212	39739.65	38849.85
937.4159	2067.9767	39649.15	38761.1
937.5525	2069.5315	39457.45	38570.35
937.6891	2071.0856	39260.55	38372.6
937.8257	2072.6389	39092	38202.65
937.9623	2074.1915	38939.25	38050.3
938.0989	2075.7433	38702.25	37811.45
938.2354	2077.2945	38700.35	37814.4
938.3719	2078.8448	38564.9	37676.6
938.5084	2080.3945	38484.75	37596.3
938.6448	2081.9434	38367.95	37480.35
938.7812	2083.4916	38223.15	37335.35
938.9176	2085.039	38091.25	37198.75
939.054	2086.5857	38031.05	37139.05
939.1903	2088.1317	37949.15	37059.7
939.3267	2089.677	37756.75	36866.7
939.463	2091.2215	37667.6	36779.75
939.5992	2092.7652	37597	36705.45
939.7355	2094.3083	37471.85	36583.1
939.8717	2095.8506	37448.1	36560.1
940.0079	2097.3921	37450.4	36563.7
940.1441	2098.933	37254.9	36366.95
940.2802	2100.4731	37149.65	36260.95
940.4163	2102.0124	37096.45	36198.7
940.5524	2103.5511	36964.9	36076
940.6885	2105.089	36920.15	36031.85
940.8245	2106.6261	36828.2	35939.1
940.9606	2108.1626	36651.15	35761.85
941.0965	2109.6983	36647.6	35727.15
941.2325	2111.2332	36550.4	35660.2
941.3684	2112.7675	36424.35	35534.75
941.5044	2114.301	36268.8	35379.6
941.6403	2115.8337	36282	35393.05
941.7761	2117.3657	36123.55	35235.25
941.912	2118.897	36050.5	35160.7
942.0478	2120.4276	35915.15	35020.15
942.1835	2121.9575	35753.2	34864.75
942.3193	2123.4866	35799.4	34895.4
942.455	2125.0149	35664.85	34774.2
942.5907	2126.5426	35442.95	34555.5
942.7264	2128.0695	35367.8	34473.05
942.8621	2129.5956	35270.8	34383
942.9977	2131.1211	35260	34366
943.1333	2132.6458	35125.1	34236.75
943.2689	2134.1698	35042.95	34157.6
943.4044	2135.693	34899.9	34009.15
943.54	2137.2155	34845.8	33953.25
943.6755	2138.7373	34762.25	33872.45
943.8109	2140.2584	34606.75	33718.5
943.9464	2141.7787	34471.15	33579.3
944.0818	2143.2983	34354.7	33465.3
944.2172	2144.8171	34137.65	33249.8
944.3526	2146.3353	34098.65	33207.25
944.4879	2147.8527	33937.7	33050.05
944.6232	2149.3693	33947.25	33059.9
944.7585	2150.8853	33793.3	32904.25
944.8938	2152.4005	33629.9	32741.65
945.029	2153.9149	33608.9	32719.55
945.1642	2155.4287	33499.8	32611.9
945.2994	2156.9417	33382.25	32493.05
945.4346	2158.454	33304.3	32413.35
945.5697	2159.9655	33227.4	32338.25
945.7048	2161.4764	33187.45	32298.95
945.8399	2162.9865	33051.65	32162
945.9749	2164.4958	32945.1	32054.5
946.1099	2166.0045	32786.1	31894.3
946.2449	2167.5124	32757.55	31868.05
946.3799	2169.0195	32713.5	31825.3
946.5148	2170.526	32658.05	31769.25
946.6498	2172.0317	32547.05	31657.55
946.7846	2173.5367	32463.55	31574.85
946.9195	2175.0409	32379.4	31493
947.0543	2176.5445	32320.75	31434.25
947.1891	2178.0473	32162.2	31274.3
947.3239	2179.5494	32020.7	31129.95
947.4587	2181.0507	31866.55	30977.85
947.5934	2182.5513	31810.4	30920.25
947.7281	2184.0512	31746.95	30859.35
947.8628	2185.5504	31618.3	30731.45
947.9974	2187.0488	31442.85	30556.6
948.132	2188.5465	31315.95	30427.05
948.2666	2190.0435	31254.15	30363.05
948.4012	2191.5397	31129.15	30240.4
948.5357	2193.0353	31054.75	30165.8
948.6702	2194.5301	30849.75	29958.35
948.8047	2196.0241	30790.2	29901.4
948.9392	2197.5175	30675.15	29786
949.0736	2199.0101	30556.1	29663.15
949.208	2200.502	30443.65	29557.2
949.3424	2201.9931	30297.65	29409
949.4767	2203.4835	30187.2	29296.95
949.611	2204.9733	30160.15	29265.7
949.7453	2206.4622	30127.85	29238.4
949.8796	2207.9505	29946	29053.45
950.0138	2209.438	29821	28933.9
950.148	2210.9248	29711.75	28823.45
950.2822	2212.4109	29601.7	28714.05
950.4164	2213.8962	29471.6	28580.55
950.5505	2215.3809	29471.05	28581.65
950.6846	2216.8648	29376.65	28487.4
950.8186	2218.3479	29263.35	28372.25
950.9527	2219.8304	29123.25	28232.2
951.0867	2221.3121	29078.35	28187.25
951.2207	2222.7931	28909.35	28020.4
951.3546	2224.2733	28843	27954.95
951.4886	2225.7529	28752.9	27863
951.6225	2227.2317	28632.65	27740.9
951.7563	2228.7098	28615.35	27727.05
951.8902	2230.1872	28449.25	27561.6
952.024	2231.6638	28406.15	27517.65
952.1578	2233.1397	28295.9	27401.2
952.2916	2234.6149	28205.7	27318.55
952.4253	2236.0894	28074.05	27183.55
952.559	2237.5632	28018.75	27128.25
952.6927	2239.0362	27932.95	27046.3
952.8263	2240.5085	27858.45	26970.85
952.9599	2241.9801	27708.65	26821
953.0935	2243.4509	27698.3	26809
953.2271	2244.921	27518.3	26628.8
953.3606	2246.3904	27420.75	26528.1
953.4941	2247.8591	27338.45	26449.95
953.6276	2249.3271	27247.95	26360.75
953.7611	2250.7943	27149.5	26260
953.8945	2252.2608	27037.9	26148.75
954.0279	2253.7266	27030.8	26141.9
954.1612	2255.1917	26934.25	26044.05
954.2946	2256.656	26826.25	25937.55
954.4279	2258.1197	26749.45	25860.4
954.5612	2259.5826	26698.5	25807.45
954.6944	2261.0447	26612.4	25721.8
954.8276	2262.5062	26488.7	25598.5
954.9608	2263.9669	26444.15	25553.75
955.094	2265.4269	26399.2	25512.65
955.2271	2266.8862	26289.3	25401
955.3602	2268.3448	26179.75	25290.4
955.4933	2269.8026	26227.95	25340.4
955.6264	2271.2598	26058.05	25171.55
955.7594	2272.7162	25993.3	25106.45
955.8924	2274.1719	25899.65	25010.7
956.0253	2275.6268	25800	24911.4
956.1583	2277.0811	25793.5	24903.2
956.2912	2278.5346	25699.15	24810.15
956.4241	2279.9874	25628.4	24740.8
956.5569	2281.4395	25614.05	24726.35
956.6897	2282.8908	25461.3	24568.65
956.8225	2284.3414	25399.7	24510.4
956.9553	2285.7914	25322.2	24434.45
957.088	2287.2406	25243.95	24353.6
957.2207	2288.689	25176.8	24287.6
957.3534	2290.1368	25070	24180.7
957.486	2291.5838	25017.7	24125.45
957.6186	2293.0302	24897.05	24006.8
957.7512	2294.4758	24817.15	23927.65
957.8838	2295.9206	24733.35	23842.55
958.0163	2297.3648	24662.95	23773.7
958.1488	2298.8082	24651.65	23761.6
958.2813	2300.251	24566.1	23677.5
958.4137	2301.693	24458.7	23568.3
958.5461	2303.1343	24440	23550.15
958.6785	2304.5748	24314.55	23426.05
958.8108	2306.0147	24240.85	23350.6
958.9432	2307.4538	24184.8	23293.65
959.0754	2308.8922	24099.35	23211.9
959.2077	2310.3299	24016.9	23127.25
959.3399	2311.7669	23900.35	23011.95
959.4721	2313.2031	23836.65	22948.95
959.6043	2314.6387	23777.85	22888.45
959.7365	2316.0735	23706.65	22818.75
959.8686	2317.5076	23655.6	22766.65
960.0006	2318.941	23583.55	22693.8
960.1327	2320.3737	23487.65	22597.45
960.2647	2321.8056	23424.65	22532.95
960.3967	2323.2369	23332.05	22443
960.5287	2324.6674	23286.15	22397.65
960.6606	2326.0972	23207.15	22318.25
960.7925	2327.5263	23083.4	22194.6
960.9244	2328.9547	23022.7	22135.45
961.0562	2330.3823	22959.85	22071.1
961.1881	2331.8092	22943.65	22049.8
961.3198	2333.2355	22814.6	21924.5
961.4516	2334.661	22755.15	21865.45
961.5833	2336.0858	22726.65	21836.2
961.715	2337.5098	22661.3	21773.5
961.8467	2338.9332	22605.35	21717.4
961.9783	2340.3558	22489.4	21596.8
962.1099	2341.7778	22464.45	21574.65
962.2415	2343.199	22345.55	21453.7
962.373	2344.6195	22328.8	21441.95
962.5045	2346.0393	22246.8	21359.35
962.636	2347.4583	22203.35	21312.45
962.7675	2348.8767	22117.9	21227
962.8989	2350.2943	22044.05	21153.95
963.0303	2351.7113	21977.75	21086.6
963.1617	2353.1275	21894.75	21005.65
963.293	2354.543	21868.75	20972.15
963.4243	2355.9578	21749.05	20859.95
963.5556	2357.3718	21642.3	20755.15
963.6868	2358.7852	21603.7	20711.95
963.818	2360.1978	21472.75	20583.65
963.9492	2361.6098	21429.2	20542.05
964.0803	2363.021	21326.15	20433.4
964.2114	2364.4315	21276.25	20388.45
964.3425	2365.8413	21241.2	20353.95
964.4736	2367.2504	21175.2	20288.35
964.6046	2368.6587	21060.65	20172.75
964.7356	2370.0664	20989.8	20102.45
964.8666	2371.4733	20911.9	20023.1
964.9975	2372.8795	20880.05	19990.2
965.1284	2374.285	20733.65	19844.35
965.2593	2375.6899	20669.7	19782.25
965.3901	2377.0939	20556.25	19669.65
965.5209	2378.4973	20460.8	19573.6
965.6517	2379.9	20427.75	19538.2
965.7825	2381.3019	20372.75	19486.45
965.9132	2382.7032	20302.55	19415.65
966.0439	2384.1037	20272.95	19387.3
966.1745	2385.5035	20201.45	19314.1
966.3051	2386.9027	20097.65	19209.3
966.4357	2388.3011	20090.15	19199.65
966.5663	2389.6987	20014.95	19125.85
966.6968	2391.0957	19933.95	19046.1
966.8273	2392.492	19835.6	18948.65
966.9578	2393.8876	19728.2	18839.9
967.0882	2395.2824	19636.55	18749.85
967.2186	2396.6765	19562.9	18678
967.349	2398.07	19490.15	18603
967.4793	2399.4627	19453.8	18563.65
967.6097	2400.8547	19397.55	18508.9
967.7399	2402.246	19295	18400.85
967.8702	2403.6366	19226.75	18337.7
968.0004	2405.0265	19099.55	18212.75
968.1306	2406.4156	19073.7	18180.65
968.2607	2407.8041	19013.2	18122.4
968.3909	2409.1918	18928.9	18039.9
968.521	2410.5789	18825.3	17936
968.651	2411.9652	18743	17852.8
968.781	2413.3508	18677.9	17790.85
968.911	2414.7358	18625.05	17737.05
969.041	2416.12	18556.85	17671.5
969.1709	2417.5035	18526.35	17638.95
969.3008	2418.8863	18430.35	17541.8
969.4307	2420.2684	18425.85	17536.5
969.5606	2421.6497	18278.4	17389.55
969.6904	2423.0304	18177.85	17290.6
969.8201	2424.4104	18147.9	17258.4
969.9499	2425.7896	18081.3	17192.5
970.0796	2427.1682	18076.35	17189.15
970.2093	2428.546	18004.55	17116.25
970.3389	2429.9232	17937.35	17048.55
970.4685	2431.2996	17866.35	16978.95
970.5981	2432.6753	17856.85	16968.35
970.7277	2434.0503	17829.5	16942.9
970.8572	2435.4246	17721.45	16832.85
970.9867	2436.7982	17639.6	16750
971.1161	2438.1711	17586	16699.3
971.2456	2439.5433	17541.3	16653.65
971.375	2440.9148	17460.7	16566.55
971.5043	2442.2856	17360.75	16473.4
971.6336	2443.6557	17362.15	16473.4
971.7629	2445.025	17295.1	16406.6
971.8922	2446.3937	17228.05	16340.25
972.0214	2447.7617	17163.8	16274.9
972.1506	2449.1289	17121.1	16232.6
972.2798	2450.4955	17089.5	16199.9
972.4089	2451.8613	17018.15	16130.25
972.538	2453.2265	16957.35	16068.6
972.6671	2454.5909	16884.9	15995.75
972.7961	2455.9546	16873.8	15984.95
972.9251	2457.3177	16825.55	15937.3
973.0541	2458.68	16736.2	15847.9
973.1831	2460.0416	16698.65	15810.2
973.312	2461.4025	16717.7	15827.2
973.4408	2462.7627	16634.3	15732.95
973.5697	2464.1222	16582.75	15696.65
973.6985	2465.4811	16555.85	15667.25
973.8273	2466.8392	16480.6	15592.25
973.956	2468.1966	16441.6	15551.75
974.0847	2469.5533	16411.9	15520.35
974.2134	2470.9093	16352.95	15465.65
974.3421	2472.2645	16300.6	15410.35
974.4707	2473.6191	16235.4	15349.15
974.5993	2474.973	16145.95	15259.45
974.7278	2476.3262	16089.75	15200.75
974.8563	2477.6787	16034.95	15147
974.9848	2479.0305	15959	15071.3
975.1132	2480.3816	15918.05	15027.9
975.2417	2481.7319	15815.2	14927.35
975.37	2483.0816	15749.55	14857.95
975.4984	2484.4306	15712.95	14825.1
975.6267	2485.7789	15708.1	14822.85
975.755	2487.1264	15615.4	14724.8
975.8833	2488.4733	15532.6	14646
976.0115	2489.8195	15486.85	14591.05
976.1397	2491.165	15433.85	14542.05
976.2678	2492.5097	15403.65	14514.35
976.3959	2493.8538	15338.35	14451.05
976.524	2495.1972	15243.85	14356.15
976.6521	2496.5398	15177.75	14290.05
976.7801	2497.8818	15112.7	14221.55
976.9081	2499.2231	15088.85	14200.5
977.036	2500.5637	15052.3	14160.6
977.164	2501.9035	14999.2	14110.9
977.2918	2503.2427	14955	14062.65
977.4197	2504.5812	14876.2	13987.7
977.5475	2505.919	14835.7	13945.2
977.6753	2507.256	14817.15	13928.75
977.8031	2508.5924	14731.45	13843.55
977.9308	2509.9281	14688.75	13794.4
978.0585	2511.2631	14640.65	13752.6
978.1861	2512.5974	14611.3	13724.95
978.3137	2513.9309	14553.3	13665.45
978.4413	2515.2638	14533.25	13619.65
978.5689	2516.596	14439	13551.55
978.6964	2517.9275	14399	13507.9
978.8239	2519.2583	14363	13473.2
978.9513	2520.5884	14281.05	13389.85
979.0788	2521.9178	14229.05	13339.6
979.2062	2523.2465	14185.25	13298.35
979.3335	2524.5745	14133.45	13245.7
979.4608	2525.9018	14038.25	13152.25
979.5881	2527.2284	14028.25	13142
979.7154	2528.5543	13989.95	13102.65
979.8426	2529.8796	13936.95	13050.95
979.9698	2531.2041	13936.9	13047.75
980.0969	2532.5279	13904.3	13017.95
980.224	2533.851	13877.4	12991.3
980.3511	2535.1735	13829.95	12942.3
980.4781	2536.4952	13775.8	12889.1
980.6052	2537.8163	13741.1	12849.85
980.7321	2539.1366	13708.95	12819.7
980.8591	2540.4562	13647.1	12757.7
980.986	2541.7752	13624.8	12737.1
981.1129	2543.0935	13587.9	12700.5
981.2397	2544.411	13569.75	12678.75
981.3665	2545.7279	13523.35	12635.7
981.4933	2547.0441	13524.3	12637.9
981.62	2548.3596	13482.65	12589.75
981.7467	2549.6744	13433.3	12547.5
981.8734	2550.9885	13397.55	12500.3
982.0001	2552.3019	13335.05	12448.1
982.1267	2553.6146	13310.1	12423.15
982.2532	2554.9266	13286.9	12397.35
982.3798	2556.2379	13223.5	12334.55
982.5063	2557.5485	13208.6	12320.5
982.6327	2558.8585	13175.75	12281.4
982.7592	2560.1677	13134.9	12242.35
982.8856	2561.4762	13114.1	12226.5
983.0119	2562.7841	13079.15	12189.55
983.1383	2564.0913	13057.4	12168.5
983.2646	2565.3977	13015.15	12127.85
983.3908	2566.7035	12968.7	12081.8
983.517	2568.0086	12945.05	12056.8
983.6432	2569.313	12937.9	12050.1
983.7694	2570.6167	12886.5	11994.6
983.8955	2571.9197	12859.55	11973.85
984.0216	2573.222	12824.15	11931.55
984.1476	2574.5236	12789.7	11901.15
984.2737	2575.8246	12766.1	11875.75
984.3996	2577.1248	12718.85	11827.85
984.5256	2578.4244	12688.8	11800.2
984.6515	2579.7232	12679.45	11792.6
984.7774	2581.0214	12683.7	11772.05
984.9032	2582.3189	12644.8	11757.3
985.029	2583.6157	12596.1	11702.9
985.1548	2584.9118	12562.75	11672.25
985.2806	2586.2072	12477.75	11588.9
985.4063	2587.5019	12495.4	11606.15
985.5319	2588.7959	12460.15	11572.05
985.6576	2590.0893	12418.2	11530.6
985.7832	2591.3819	12393.1	11504.1
985.9087	2592.6739	12334.3	11447.9
986.0343	2593.9652	12322.6	11432.8
986.1597	2595.2557	12277.6	11389.95
986.2852	2596.5456	12211	11320.95
986.4106	2597.8348	12175.35	11288.6
986.536	2599.1234	12107.1	11221.4
986.6614	2600.4112	12065.2	11177.7
986.7867	2601.6983	12022.2	11131.55
986.912	2602.9848	11997.9	11108.75
987.0372	2604.2705	11949.15	11054.55
987.1624	2605.5556	11895	11006.15
987.2876	2606.84	11866.75	10977.9
987.4128	2608.1237	11790.55	10903
987.5379	2609.4067	11750.55	10862.7
987.6629	2610.689	11739.55	10844
987.788	2611.9707	11678.15	10787.7
987.913	2613.2516	11645.05	10753.1
988.0379	2614.5319	11609.15	10721.45
988.1629	2615.8115	11550.75	10663.8
988.2878	2617.0903	11521.5	10631.95
988.4126	2618.3685	11459.15	10570.25
988.5375	2619.6461	11405.65	10515.9
988.6622	2620.9229	11368.15	10480.5
988.787	2622.199	11373.65	10485.4
988.9117	2623.4745	11331.25	10441.5
989.0364	2624.7493	11261.55	10374.2
989.161	2626.0234	11214.45	10327.95
989.2857	2627.2968	11205.95	10318.7
989.4102	2628.5695	11132.95	10245.7
989.5348	2629.8415	11078.15	10190.2
989.6593	2631.1128	11025.05	10137.05
989.7837	2632.3835	11000.4	10113.35
989.9082	2633.6535	10951.65	10062.7
990.0326	2634.9228	10909.15	10022.25
990.1569	2636.1914	10877.35	9988.95
990.2812	2637.4593	10858.15	9964.95
990.4055	2638.7265	10812.1	9922.4
990.5298	2639.9931	10748.75	9861.95
990.654	2641.259	10742.25	9855.45
990.7782	2642.5242	10709.5	9821.8
990.9023	2643.7887	10645.55	9755.55
991.0264	2645.0525	10655.9	9767.15
991.1505	2646.3156	10603.75	9715.5
991.2745	2647.5781	10556.3	9669.6
991.3985	2648.8398	10514.35	9628.6
991.5225	2650.1009	10533.8	9609
991.6464	2651.3613	10449.3	9560.95
991.7703	2652.6211	10444.95	9557.45
991.8942	2653.8801	10377.05	9491.15
992.018	2655.1385	10373.5	9482.35
992.1418	2656.3961	10332.65	9445.6
992.2655	2657.6531	10318.35	9431.8
992.3892	2658.9094	10293.1	9404.35
992.5129	2660.1651	10259.2	9372.7
992.6366	2661.42	10258.75	9370.4
992.7602	2662.6743	10215.6	9327.35
992.8837	2663.9279	10199.3	9311.85
993.0073	2665.1808	10132.3	9242.05
993.1307	2666.433	10109.95	9219.85
993.2542	2667.6846	10090.65	9202.9
993.3776	2668.9354	10063.65	9171.95
993.501	2670.1856	10040.35	9151.15
993.6244	2671.4351	9988.65	9103.4
993.7477	2672.6839	9983.3	9096.2
993.8709	2673.9321	9955.55	9066.9
993.9942	2675.1795	9915.9	9030.05
994.1174	2676.4263	9865.5	8977.9
994.2405	2677.6724	9850.75	8962.6
994.3637	2678.9179	9815.05	8928.05
994.4868	2680.1626	9771.1	8882.35
994.6098	2681.4067	9772.95	8885.6
994.7328	2682.6501	9735.3	8847.7
994.8558	2683.8928	9682.2	8796
994.9788	2685.1348	9647.8	8761.05
995.1017	2686.3761	9622.85	8735.15
995.2245	2687.6168	9587.65	8701.85
995.3474	2688.8568	9551.6	8664.5
995.4702	2690.0961	9495.95	8608.9
995.5929	2691.3348	9480.85	8590.85
995.7156	2692.5727	9463.45	8574.85
995.8383	2693.81	9436	8548.5
995.961	2695.0466	9403.25	8516.4
996.0836	2696.2826	9379.4	8490
996.2062	2697.5178	9357.4	8468.5
996.3287	2698.7524	9306.05	8418.65
996.4512	2699.9863	9297.2	8406.8
996.5737	2701.2195	9239.35	8352.55
996.6961	2702.452	9250.35	8362.6
996.8185	2703.6839	9208.6	8320.2
996.9408	2704.9151	9192.7	8304.1
997.0631	2706.1456	9137.65	8247.5
997.1854	2707.3755	9121.95	8233.6
997.3077	2708.6046	9105.85	8216.75
997.4299	2709.8331	9087.9	8198.2
997.552	2711.0609	9030.55	8144.5
997.6742	2712.2881	8980.3	8093.05
997.7963	2713.5145	8980.55	8090.55
997.9183	2714.7403	8941.5	8054.25
998.0403	2715.9654	8914.8	8028.4
998.1623	2717.1899	8903.05	8014.6
998.2842	2718.4136	8885.75	7997.95
998.4062	2719.6367	8873.4	7986.55
998.528	2720.8591	8823	7927.5
998.6498	2722.0809	8811.85	7923.25
998.7716	2723.3019	8759.4	7867.95
998.8934	2724.5223	8768.3	7879
999.0151	2725.7421	8725.65	7838.3
999.1368	2726.9611	8717.5	7828.9
999.2584	2728.1795	8659.1	7768.65
999.38	2729.3972	8615.35	7728.5
999.5016	2730.6142	8581.8	7687.65
999.6231	2731.8306	8533.25	7646.25
999.7446	2733.0462	8497.25	7608.9
999.8661	2734.2612	8431.05	7539.1
999.9875	2735.4756	8425.45	7535
1000.1089	2736.6892	8351.2	7463.9
1000.2302	2737.9022	8332.2	7444.35
1000.3515	2739.1145	8276.4	7389.3
1000.4728	2740.3262	8266.95	7372.9
1000.594	2741.5372	8197	7309.25
1000.7152	2742.7475	8163.65	7275.35
1000.8363	2743.9571	8140.2	7252.25
1000.9575	2745.1661	8105.85	7214.4
1001.0785	2746.3744	8084.05	7195.7
1001.1996	2747.582	8050.85	7163.7
1001.3206	2748.7889	8039.35	7148.95
1001.4415	2749.9952	7986.35	7098.95
1001.5625	2751.2008	7945.85	7058
1001.6833	2752.4057	7938.85	7047.45
1001.8042	2753.61	7907.9	7019.2
1001.925	2754.8136	7865.25	6975.2
1002.0458	2756.0165	7839.15	6952.65
1002.1665	2757.2188	7832.1	6945.8
1002.2872	2758.4204	7788.4	6900.7
1002.4078	2759.6213	7750.55	6860.7
1002.5285	2760.8215	7722.05	6830.55
1002.649	2762.0211	7717.3	6828.95
1002.7696	2763.22	7685.75	6794.35
1002.8901	2764.4182	7650.25	6762.05
1003.0106	2765.6158	7638.45	6749.45
1003.131	2766.8127	7612	6724.55
1003.2514	2768.009	7559.9	6672.7
1003.3717	2769.2045	7544.85	6658.3
1003.492	2770.3994	7535.1	6645.05
1003.6123	2771.5936	7522.5	6634.15
1003.7325	2772.7872	7452.5	6566.6
1003.8527	2773.9801	7438.65	6548.45
1003.9729	2775.1723	7424.45	6520.4
1004.093	2776.3639	7401.6	6513.2
1004.2131	2777.5548	7368.2	6481.6
1004.3331	2778.745	7327.1	6438.15
1004.4531	2779.9346	7309.35	6421.65
1004.5731	2781.1235	7303.2	6415
1004.693	2782.3117	7285.4	6398.95
1004.8129	2783.4992	7237.35	6350.85
1004.9328	2784.6861	7225.1	6337.15
1005.0526	2785.8723	7209.55	6321.4
1005.1723	2787.0579	7198.35	6310.1
1005.2921	2788.2428	7168.85	6281
1005.4118	2789.427	7156.1	6269.5
1005.5314	2790.6106	7136.65	6248.8
1005.651	2791.7935	7115.2	6226.2
1005.7706	2792.9757	7079.1	6195.35
1005.8902	2794.1573	7045.15	6155.65
1006.0097	2795.3382	7041.8	6154.7
1006.1291	2796.5184	7022.55	6134.95
1006.2485	2797.698	7012.4	6125.5
1006.3679	2798.8769	6989.55	6102.2
1006.4873	2800.0551	6987.8	6099.5
1006.6066	2801.2327	6959.2	6068.15
1006.7258	2802.4096	6947.85	6059.65
1006.8451	2803.5859	6955.2	6068.65
1006.9642	2804.7615	6949.2	6061.4
1007.0834	2805.9364	6923.85	6036.1
1007.2025	2807.1106	6923.4	6036.4
1007.3216	2808.2842	6914.5	6026.8
1007.4406	2809.4572	6926.35	6038.3
1007.5596	2810.6294	6938.1	6051
1007.6785	2811.801	6950.55	6063.6
1007.7975	2812.972	6954.3	6066.45
1007.9163	2814.1423	6986.95	6100
1008.0352	2815.3119	7014.25	6125.15
1008.154	2816.4808	7027.2	6141.85
1008.2727	2817.6491	7045.6	6156.75
1008.3914	2818.8167	7068.15	6183.45
1008.5101	2819.9837	7111.05	6220.25
1008.6288	2821.15	7094.35	6207.8
1008.7474	2822.3157	7160.6	6274.5
1008.8659	2823.4807	7170.05	6282.35
1008.9844	2824.645	7181.35	6291.9
1009.1029	2825.8086	7226.95	6340.75
1009.2214	2826.9716	7263.4	6378.55
1009.3398	2828.134	7294.5	6408.5
1009.4581	2829.2957	7321.2	6432.5
1009.5764	2830.4567	7336.2	6449.35
1009.6947	2831.617	7304.4	6418.05
1009.813	2832.7767	7299.55	6413.15
1009.9312	2833.9358	7309	6421.9
1010.0493	2835.0941	7282.05	6393.95
1010.1675	2836.2519	7272.3	6385.95
1010.2855	2837.4089	7247.05	6358.7
1010.4036	2838.5653	7201.45	6313.45
1010.5216	2839.7211	7190.05	6305.25
1010.6396	2840.8761	7176.65	6287.35
1010.7575	2842.0306	7194.6	6307.9
1010.8754	2843.1843	7216.8	6331.85
1010.9932	2844.3374	7209.7	6321.55
1011.111	2845.4899	7242.35	6355.3
1011.2288	2846.6417	7259.55	6374.05
1011.3465	2847.7928	7314.2	6428.6
1011.4642	2848.9433	7338.85	6453
1011.5818	2850.0931	7366.85	6479.7
1011.6995	2851.2422	7435.9	6546.95
1011.817	2852.3907	7464.05	6575.05
1011.9345	2853.5385	7507.6	6620.3
1012.052	2854.6857	7538.55	6641.8
1012.1695	2855.8323	7549.15	6663.4
1012.2869	2856.9781	7589.45	6705.85
1012.4042	2858.1233	7610.55	6723.25
1012.5216	2859.2679	7625.6	6739.75
1012.6389	2860.4118	7662.15	6775.95
1012.7561	2861.555	7680.85	6788.05
1012.8733	2862.6976	7686.7	6797.25
1012.9905	2863.8395	7694.8	6806.25
1013.1076	2864.9808	7708.25	6821.95
1013.2247	2866.1214	7700.7	6814.85
1013.3417	2867.2614	7699.15	6811.45
1013.4587	2868.4007	7679.45	6792.35
1013.5757	2869.5393	7673.15	6783.6
1013.6926	2870.6773	7689.25	6799.15
1013.8095	2871.8146	7668.5	6778.15
1013.9263	2872.9513	7640.25	6751
1014.0431	2874.0874	7619.2	6731.75
1014.1599	2875.2227	7615	6726.85
1014.2766	2876.3574	7550.4	6662.4
1014.3933	2877.4915	7498.35	6611.85
1014.51	2878.6249	7481	6593.2
1014.6266	2879.7577	7436.55	6549.5
1014.7431	2880.8898	7367.05	6470.45
1014.8596	2882.0212	7356.75	6469.9
1014.9761	2883.152	7329.9	6442.75
1015.0925	2884.2821	7286.65	6400.55
1015.2089	2885.4116	7274.95	6388.3
1015.3253	2886.5405	7245.65	6357.35
1015.4416	2887.6686	7242.9	6349.95
1015.5579	2888.7962	7204.9	6319.5
1015.6741	2889.923	7199.4	6314.25
1015.7903	2891.0493	7193.05	6307.4
1015.9065	2892.1748	7172.4	6285.3
1016.0226	2893.2997	7145.7	6257.9
1016.1387	2894.424	7159.1	6274.75
1016.2547	2895.5476	7153	6266.35
1016.3707	2896.6706	7155.45	6268.45
1016.4866	2897.7929	7169.65	6282.5
1016.6025	2898.9145	7187.05	6299.1
1016.7184	2900.0355	7169.75	6282.8
1016.8342	2901.1559	7178.2	6291.3
1016.95	2902.2756	7174.05	6286.95
1017.0658	2903.3946	7178.3	6293.2
1017.1815	2904.513	7212.95	6324.95
1017.2971	2905.6308	7217.25	6331.55
1017.4127	2906.7479	7198.35	6311.45
1017.5283	2907.8643	7207.8	6321.25
1017.6439	2908.9801	7199.45	6313.05
1017.7594	2910.0953	7188.7	6300.8
1017.8748	2911.2098	7179.4	6288.55
1017.9902	2912.3236	7150.05	6256.5
1018.1056	2913.4368	7108.5	6217.85
1018.2209	2914.5494	7056.7	6168.15
1018.3362	2915.6613	7028.65	6135.65
1018.4515	2916.7725	6996.15	6105.2
1018.5667	2917.8831	6967.8	6078.7
1018.6819	2918.9931	6931.2	6041.25
1018.797	2920.1024	6875.85	5988.1
1018.9121	2921.211	6852.95	5965.95
1019.0271	2922.319	6813.65	5926.2
1019.1421	2923.4264	6807.95	5921.75
1019.2571	2924.5331	6782.75	5896.45
1019.372	2925.6391	6742.7	5857
1019.4869	2926.7445	6714.25	5828
1019.6017	2927.8493	6690.05	5802.8
1019.7165	2928.9534	6699.35	5811.5
1019.8313	2930.0569	6677.7	5787.85
1019.946	2931.1597	6687.05	5798.6
1020.0606	2932.2619	6658.15	5769.2
1020.1753	2933.3634	6650.65	5762.55
1020.2899	2934.4643	6642.65	5749.6
1020.4044	2935.5645	6593.95	5700.9
1020.5189	2936.6641	6565.8	5675
1020.6334	2937.763	6509.75	5623
1020.7478	2938.8613	6475.75	5590.35
1020.8622	2939.959	6412.4	5520.7
1020.9765	2941.056	6334.6	5448.7
1021.0908	2942.1523	6252.05	5363.8
1021.2051	2943.248	6180.85	5294.3
1021.3193	2944.3431	6086.95	5202.45
1021.4334	2945.4375	5990.55	5103.25
1021.5476	2946.5313	5882.3	4995.6
1021.6617	2947.6244	5784.45	4898.05
1021.7757	2948.7169	5677.25	4790.7
1021.8897	2949.8087	5572.4	4686.2
1022.0037	2950.8999	5460.7	4572.85
1022.1176	2951.9904	5393.95	4507.75
1022.2315	2953.0803	5320.55	4433.25
1022.3453	2954.1696	5239.1	4350.75
1022.4591	2955.2582	5183.15	4296.1
1022.5728	2956.3462	5114.4	4229.2
1022.6865	2957.4335	5067.7	4179.8
1022.8002	2958.5202	5023.05	4134.15
1022.9138	2959.6062	4975.9	4087.95
1023.0274	2960.6916	4947.9	4061.45
1023.141	2961.7764	4918.95	4031.15
1023.2545	2962.8605	4881.05	3996.15
1023.3679	2963.9439	4862.25	3976.95
1023.4813	2965.0267	4848.1	3960
1023.5947	2966.1089	4837.15	3924.2
1023.708	2967.1905	4801.8	3916.1
1023.8213	2968.2714	4773.05	3887.4
1023.9346	2969.3516	4750.9	3864.55
1024.0478	2970.4312	4763.85	3870.75
1024.1609	2971.5102	4739.65	3852.1
1024.274	2972.5885	4740.55	3854.35
1024.3871	2973.6662	4724.55	3833.55
1024.5002	2974.7432	4697.55	3811.8
1024.6132	2975.8196	4691.6	3802.8
1024.7261	2976.8954	4667.7	3781.05
1024.839	2977.9705	4632.8	3747.15
1024.9519	2979.045	4619.25	3731.8
1025.0647	2980.1188	4580.3	3693.75
1025.1775	2981.192	4566.25	3682.3
1025.2902	2982.2645	4550.95	3662.5
1025.4029	2983.3364	4503.85	3615.85
1025.5156	2984.4077	4479.55	3594.3
1025.6282	2985.4783	4444.65	3552.45
1025.7407	2986.5483	4390.1	3501.25
1025.8532	2987.6177	4360.8	3475.2
1025.9657	2988.6864	4324.35	3439.55
1026.0782	2989.7545	4285.9	3398.1
1026.1906	2990.8219	4253.05	3368
1026.3029	2991.8887	4204.65	3316.95
1026.4152	2992.9548	4163.2	3274.4
1026.5275	2994.0204	4120.65	3234.8
1026.6397	2995.0852	4092.25	3204.9
1026.7519	2996.1495	4069.2	3183.3
1026.864	2997.2131	4017.5	3130.15
1026.9761	2998.276	3976.3	3089.75
1027.0882	2999.3383	3953.15	3063.2
1027.2002	3000.4	3929.75	3041.6
1027.3122	3001.4611	3900.55	3014.6
1027.4241	3002.5215	3886.05	2999.05
1027.536	3003.5812	3850.4	2963
1027.6478	3004.6404	3822.6	2936.25
1027.7596	3005.6989	3817.25	2928.55
1027.8714	3006.7567	3806.2	2916.7
1027.9831	3007.8139	3790.95	2882.55
1028.0947	3008.8705	3748.3	2860.85
1028.2064	3009.9264	3750.65	2860.15
1028.3179	3010.9818	3714.15	2826.55
1028.4295	3012.0364	3704.5	2816.65
1028.541	3013.0905	3684.3	2797.1
1028.6524	3014.1439	3681.45	2797.3
1028.7638	3015.1966	3668.55	2782.35
1028.8752	3016.2487	3663.5	2777.05
1028.9865	3017.3002	3658	2769.6
1029.0978	3018.3511	3623.7	2739.15
1029.209	3019.4013	3624.05	2738.35
1029.3202	3020.4509	3630.35	2745.05
1029.4314	3021.4998	3610.3	2724
1029.5425	3022.5481	3593.25	2705.9
1029.6535	3023.5958	3588.35	2701.8
1029.7645	3024.6428	3570.1	2683.4
1029.8755	3025.6892	3568	2679.85
1029.9864	3026.735	3552	2665.5
1030.0973	3027.7802	3539.95	2653.2
1030.2082	3028.8247	3526.4	2640.2
1030.319	3029.8685	3518.75	2630.2
1030.4297	3030.9118	3512.5	2627.7
1030.5404	3031.9544	3508	2622.3
1030.6511	3032.9963	3492.5	2606.35
1030.7617	3034.0376	3483.6	2599.15
1030.8723	3035.0783	3474.15	2585.7
1030.9829	3036.1184	3478.8	2592.3
1031.0934	3037.1578	3457.3	2570.75
1031.2038	3038.1966	3459.05	2573.1
1031.3142	3039.2348	3445.9	2558.5
1031.4246	3040.2723	3435.75	2540.65
1031.5349	3041.3092	3424.25	2538.2
1031.6452	3042.3455	3414.9	2528.85
1031.7554	3043.3811	3416.8	2529.85
1031.8656	3044.4161	3396.9	2510.1
1031.9758	3045.4505	3372.4	2485.45
1032.0859	3046.4842	3373.9	2487.15
1032.1959	3047.5173	3364.9	2480.6
1032.3059	3048.5498	3332.6	2444.55
1032.4159	3049.5816	3326.25	2437.35
1032.5258	3050.6128	3320.45	2433.8
1032.6357	3051.6434	3317.6	2428.35
1032.7455	3052.6734	3292.4	2405.4
1032.8553	3053.7027	3277.35	2390.85
1032.9651	3054.7314	3262.45	2375.15
1033.0748	3055.7594	3258	2371.25
1033.1845	3056.7868	3254.25	2366.05
1033.2941	3057.8136	3226.8	2341.35
1033.4037	3058.8398	3221.5	2336.75
1033.5132	3059.8653	3199.55	2313.75
1033.6227	3060.8902	3187.95	2302
1033.7321	3061.9145	3196.5	2311.15
1033.8415	3062.9381	3182.4	2297
1033.9509	3063.9612	3172.95	2269.45
1034.0602	3064.9835	3151.75	2264.25
1034.1694	3066.0053	3144.4	2253.95
1034.2787	3067.0264	3141	2254.85
1034.3878	3068.0469	3121.8	2234.85
1034.497	3069.0668	3112.45	2224.25
1034.6061	3070.086	3093.25	2208.7
1034.7151	3071.1046	3071.3	2184.8
1034.8241	3072.1226	3073.5	2184.65
1034.9331	3073.1399	3055.35	2168.85
1035.042	3074.1567	3046.45	2157.45
1035.1508	3075.1727	3022.25	2134.45
1035.2597	3076.1882	2993.4	2107.9
1035.3684	3077.203	2988.55	2101.9
1035.4772	3078.2173	2971.1	2084.85
1035.5859	3079.2308	2968	2078.6
1035.6945	3080.2438	2954.4	2065.05
1035.8031	3081.2561	2934.6	2047.75
1035.9117	3082.2678	2929.3	2043.65
1036.0202	3083.2789	2912.15	2026.1
1036.1286	3084.2893	2897.1	2012.55
1036.2371	3085.2991	2897.9	2011.25
1036.3454	3086.3083	2861.1	1971.6
1036.4538	3087.3169	2864.95	1976.4
1036.562	3088.3248	2858.15	1971.7
1036.6703	3089.3321	2842.5	1954
1036.7785	3090.3388	2824.45	1939.5
1036.8866	3091.3449	2815.9	1929.5
1036.9948	3092.3503	2811.8	1922.5
1037.1028	3093.3551	2799.7	1915.95
1037.2108	3094.3593	2793.35	1908
1037.3188	3095.3629	2775.7	1889.7
1037.4267	3096.3658	2762.9	1873.5
1037.5346	3097.3681	2755.05	1868.55
1037.6425	3098.3698	2743.05	1854.9
1037.7503	3099.3708	2735.2	1843.4
1037.858	3100.3713	2718.1	1833.35
1037.9657	3101.3711	2705.9	1818.85
1038.0734	3102.3702	2820.95	1797.4
1038.181	3103.3688	2702.1	1815.7
1038.2886	3104.3667	2678.75	1793.45
1038.3961	3105.364	2663.95	1777.35
1038.5036	3106.3607	2642.95	1756.8
1038.611	3107.3568	2634.2	1745.8
1038.7184	3108.3522	2632.45	1745.9
1038.8257	3109.347	2613.75	1725.4
1038.933	3110.3412	2622.7	1730.1
1039.0403	3111.3348	2599.7	1714.4
1039.1475	3112.3277	2594.6	1708.15
1039.2547	3113.32	2582.75	1698.65
1039.3618	3114.3117	2581.35	1695.3
1039.4689	3115.3028	2547.3	1661.75
1039.5759	3116.2932	2555.35	1667.45
1039.6829	3117.2831	2537.05	1642.5
1039.7898	3118.2723	2541.45	1654.35
1039.8967	3119.2608	2523.5	1638.95
1040.0035	3120.2488	2519.45	1632.5
1040.1103	3121.2361	2502.45	1616.7
1040.2171	3122.2229	2494.35	1608.6
1040.3238	3123.209	2482.75	1596.6
1040.4305	3124.1944	2485.1	1600.2
1040.5371	3125.1793	2473.35	1585.75
1040.6437	3126.1635	2453.25	1569
1040.7502	3127.1471	2446.95	1560.15
1040.8567	3128.1301	2434.5	1548.65
1040.9631	3129.1125	2437.1	1551.25
1041.0695	3130.0942	2435.25	1547.55
1041.1759	3131.0753	2434.9	1541.55
1041.2822	3132.0558	2418.65	1529.2
1041.3884	3133.0357	2413.25	1526.95
1041.4946	3134.015	2401.95	1514.25
1041.6008	3134.9936	2395.15	1507.7
1041.7069	3135.9716	2407.45	1501.85
1041.813	3136.949	2377.55	1491.5
1041.919	3137.9258	2377.6	1485.9
1042.025	3138.902	2374.3	1482.5
1042.1309	3139.8775	2362.25	1476.8
1042.2368	3140.8524	2359.65	1473.05
1042.3427	3141.8267	2349.85	1462.5
1042.4485	3142.8004	2345.1	1457.4
1042.5542	3143.7735	2341.55	1449.55
1042.6599	3144.7459	2338.3	1449.8
1042.7656	3145.7178	2331.8	1445.35
1042.8712	3146.689	2318.95	1436.35
1042.9768	3147.6596	2308.55	1421.5
1043.0823	3148.6295	2307.6	1422.95
1043.1878	3149.5989	2306	1418.1
1043.2932	3150.5676	2281.65	1397
1043.3986	3151.5357	2261.75	1377.45
1043.5039	3152.5032	2270.65	1385.2
1043.6092	3153.4701	2271.4	1384.55
1043.7145	3154.4364	2259.75	1369.75
1043.8197	3155.402	2245.35	1360.35
1043.9248	3156.367	2235.4	1348.35
1044.03	3157.3315	2276.6	1347.75
1044.135	3158.2952	2234.9	1347.85
1044.24	3159.2584	2221.4	1336.15
1044.345	3160.221	2200.55	1313.75
1044.4499	3161.1829	2199.4	1312.55
1044.5548	3162.1442	2188.35	1302.2
1044.6596	3163.105	2179.55	1293
1044.7644	3164.065	2173.65	1287.05
1044.8692	3165.0245	2165	1278.5
1044.9739	3165.9834	2168.45	1283.55
1045.0785	3166.9416	2163.5	1277.2
1045.1831	3167.8993	2140.2	1252.4
1045.2877	3168.8563	2125.9	1238.55
1045.3922	3169.8127	2132.15	1245.25
1045.4966	3170.7684	2124.1	1237.4
1045.6011	3171.7236	2119.6	1232.6
1045.7054	3172.6782	2117.7	1231
1045.8098	3173.6321	2105	1218.05
1045.914	3174.5854	2100.4	1209.55
1046.0183	3175.5381	2095.5	1209.95
1046.1224	3176.4902	2080.75	1195
1046.2266	3177.4417	2076.95	1191.95
1046.3307	3178.3926	2079.8	1195.3
1046.4347	3179.3428	2064.65	1178
1046.5387	3180.2924	2063.95	1178.1
1046.6427	3181.2415	2054.7	1167.05
1046.7466	3182.1899	2046.9	1159.9
1046.8504	3183.1377	2050.7	1165
1046.9542	3184.0848	2041.8	1153.4
1047.058	3185.0314	2032.65	1148.3
1047.1617	3185.9773	2020.2	1134.7
1047.2654	3186.9227	2021.55	1136.3
1047.369	3187.8674	2013.4	1127.25
1047.4726	3188.8115	2002.5	1112.4
1047.5761	3189.755	2000.6	1114.1
1047.6796	3190.6979	1987.6	1101
1047.783	3191.6402	1989.85	1104.35
1047.8864	3192.5818	1978.8	1091.7
1047.9898	3193.5229	2009.75	1100.65
1048.0931	3194.4633	1965.3	1079.6
1048.1963	3195.4031	1961.95	1073.95
1048.2995	3196.3423	1966.35	1080.55
1048.4027	3197.2809	1959.2	1075.35
1048.5058	3198.2189	1954.55	1068.95
1048.6089	3199.1563	1953.95	1061.9
1048.7119	3200.0931	1928.8	1043.8
1048.8148	3201.0292	1926.6	1039.6
1048.9178	3201.9648	1928.3	1042.15
1049.0206	3202.8997	1925.9	1036.45
1049.1235	3203.834	1920.05	1035.2
1049.2262	3204.7677	1910.5	1023.8
1049.329	3205.7008	1899.75	1011.3
1049.4317	3206.6333	1905.6	1020.15
1049.5343	3207.5652	1897.35	1011.3
1049.6369	3208.4964	1877.65	991.45
1049.7394	3209.4271	1879.7	994.45
1049.8419	3210.3571	1891.3	1006.75
1049.9444	3211.2865	1874.35	986.75
1050.0468	3212.2154	1870.8	982.75
1050.1491	3213.1436	1876.65	988.5
1050.2514	3214.0712	1869.9	977.75
1050.3537	3214.9982	1848.1	960.85
1050.4559	3215.9246	1846.55	959.45
1050.5581	3216.8503	1846.7	962.05
1050.6602	3217.7755	1834.55	948.95
1050.7623	3218.7001	1824.75	939.55
1050.8643	3219.624	1825.65	940.8
1050.9663	3220.5473	1825.75	941
1051.0682	3221.4701	1826.4	939.2
1051.1701	3222.3922	1824.85	938
1051.2719	3223.3137	1822.6	935.7
1051.3737	3224.2346	1805	918.3
1051.4754	3225.1549	1805.65	920.25
1051.5771	3226.0746	1793.55	906.5
1051.6788	3226.9937	1786.55	900.9
1051.7804	3227.9121	1789.7	906
1051.8819	3228.83	1787.9	900.6
1051.9834	3229.7473	1776.05	889.65
1052.0849	3230.6639	1771.55	884.7
1052.1863	3231.5799	1764.25	878.8
1052.2876	3232.4954	1762.6	876.25
1052.3889	3233.4102	1763.1	876.35
1052.4902	3234.3244	1760.9	875.7
1052.5914	3235.238	1742.75	855.2
1052.6926	3236.151	1763.55	856.2
1052.7937	3237.0634	1736.35	850.75
1052.8948	3237.9752	1729.2	843.6
1052.9958	3238.8864	1741.3	856.15
1053.0968	3239.797	1728.1	843.4
1053.1977	3240.7069	1711.9	825.3
1053.2986	3241.6163	1715.85	828.9
1053.3994	3242.5251	1699.3	814.45
1053.5002	3243.4332	1707.3	821.8
1053.6009	3244.3408	1698.8	813
1053.7016	3245.2477	1693.3	807.2
1053.8022	3246.154	1688.75	801
1053.9028	3247.0598	1684.2	798.7
1054.0034	3247.9649	1669.8	782.7
1054.1039	3248.8694	1672.35	786.3
1054.2043	3249.7733	1663.6	778.65
1054.3047	3250.6766	1661.75	775.2
1054.4051	3251.5793	1653.8	768.45
1054.5054	3252.4814	1650.2	765.25
1054.6056	3253.3829	1646	762.1
1054.7058	3254.2838	1642.05	755.85
1054.806	3255.1841	1639.4	752.9
1054.9061	3256.0838	1627.8	740.75
1055.0061	3256.9829	1621.6	736.45
1055.1062	3257.8814	1621.15	731.05
1055.2061	3258.7792	1618.6	730.45
1055.306	3259.6765	1609.45	721.4
1055.4059	3260.5731	1599.55	715.5
1055.5057	3261.4692	1591.3	703.6
1055.6055	3262.3647	1571.65	684.05
1055.7052	3263.2595	1573.65	689.6
1055.8049	3264.1538	1562.05	675.4
1055.9045	3265.0474	1546.9	660.6
1056.0041	3265.9404	1534.5	647.65
1056.1036	3266.8329	1528.95	643.4
1056.2031	3267.7247	1525.75	628.6
1056.3025	3268.616	1506.8	619.95
1056.4019	3269.5066	1488.1	602.05
1056.5013	3270.3966	1476.45	589.85
1056.6005	3271.286	1458.7	574.1
