Software Version:	3.9.2.0
Unit SN:	10000200
Spectrometer SN:	6960
Date:	3/6/2024 10:58:06 AM
Data Line Index:	25
Spectral Points:	2048
Integration time (ms):	125
Averages:	20
Delay (ms):	30
Sequence Number:	1
Processing:	dark subtract
Laser Power (mW):	305
Laser Current (mA):	823
Laser Diode Temp (C):	25.1
Laser Case Temp (C):	28
System Temp (C):	27.9
Spectrometer Temp (C):	25.3
CCD Temp (C):	0
Secondary Temp (C):	20.004
Heatsink Temp (C):	23.552
CCDPCB Temp (C):	37.007
SecondaryPCB Temp (C):	34.539

Wavelength	RamanShift	Raw Counts	Dark Subtracted
787.061	30.1047	1093.45	678.9
787.2016	32.3739	1119.2	707.25
787.3422	34.6426	1156.4	742.85
787.4828	36.9109	1211.5	797.05
787.6235	39.1787	1257.35	838.6
787.7642	41.4461	1319	895.2
787.9049	43.7131	1377.45	949.1
788.0456	45.9796	1446.25	1016.25
788.1863	48.2456	1506.1	1072.2
788.3271	50.5112	1571.05	1134.25
788.4679	52.7764	1642.2	1201.4
788.6087	55.0411	1719.6	1275.5
788.7496	57.3054	1800.05	1351.35
788.8904	59.5692	1877.35	1424.35
789.0313	61.8326	1977.6	1522.5
789.1722	64.0955	2074.25	1612.95
789.3132	66.3579	2190.8	1724.55
789.4541	68.6199	2355.75	1889.4
789.5951	70.8815	2578.6	2108.6
789.7361	73.1426	3057.25	2582.85
789.8771	75.4032	4273.9	3794
790.0181	77.6634	7347.6	6860.05
790.1592	79.9231	15278.85	14787
790.3003	82.1824	49448.45	48948.8
790.4414	84.4412	65535	65019.8
790.5825	86.6995	65535	64994.45
790.7237	88.9574	65535	64974.4
790.8648	91.2148	65535	64957.35
791.006	93.4717	65535	64946.5
791.1472	95.7282	65535	64944.95
791.2885	97.9842	65535	64939.5
791.4297	100.2398	65535	64935.5
791.571	102.4949	65535	64932.95
791.7123	104.7495	65535	64929.8
791.8536	107.0036	65535	64929
791.9949	109.2573	65535	64927.8
792.1363	111.5105	65535	64928.7
792.2777	113.7632	65535	64926.85
792.4191	116.0154	65535	64914.55
792.5605	118.2672	65535	64921.7
792.7019	120.5185	65535	64923.95
792.8434	122.7693	65535	64917.1
792.9849	125.0197	65535	64914.15
793.1264	127.2696	65535	64911.2
793.2679	129.519	65535	64908.05
793.4094	131.7679	65535	64906.6
793.551	134.0163	65535	64902.25
793.6926	136.2642	65535	64895.95
793.8342	138.5117	65535	64888.7
793.9758	140.7587	65535	64895.95
794.1175	143.0052	65535	64891.2
794.2591	145.2512	65535	64891.5
794.4008	147.4967	65535	64888.95
794.5425	149.7417	65535	64884.7
794.6842	151.9863	65535	64883.75
794.826	154.2304	65535	64880.55
794.9677	156.4739	65535	64876.6
795.1095	158.717	65535	64873.2
795.2513	160.9596	65535	64868.15
795.3931	163.2017	65535	64870.05
795.535	165.4433	65535	64866.55
795.6768	167.6844	65535	64865.5
795.8187	169.925	65535	64862.7
795.9606	172.1651	65535	64858.2
796.1025	174.4047	65535	64856.35
796.2445	176.6439	65535	64852.85
796.3864	178.8825	65535	64850
796.5284	181.1206	65535	64847.3
796.6704	183.3582	65535	64841.5
796.8124	185.5954	65535	64842.15
796.9544	187.832	65535	64837.25
797.0965	190.0681	65535	64836.7
797.2386	192.3037	65535	64831.5
797.3806	194.5388	65535	64830.55
797.5228	196.7734	65535	64825.5
797.6649	199.0075	65535	64822.8
797.807	201.2411	65535	64821.4
797.9492	203.4742	65535	64821.7
798.0914	205.7068	65535	64821.3
798.2336	207.9389	65535	64819.25
798.3758	210.1704	65535	64815.75
798.518	212.4015	65535	64814.85
798.6603	214.632	65535	64819.8
798.8025	216.862	65535	64827.25
798.9448	219.0915	65535	64836.9
799.0871	221.3205	65535	64834.2
799.2294	223.549	65535	64837.4
799.3718	225.777	65535	64837.55
799.5141	228.0044	65535	64836.3
799.6565	230.2314	65535	64835.95
799.7989	232.4578	65535	64832.1
799.9413	234.6837	65535	64822.55
800.0837	236.909	65535	64820.55
800.2262	239.1339	65535	64797.2
800.3687	241.3582	65535	64812.3
800.5111	243.582	65535	64777.95
800.6536	245.8053	65535	64794.35
800.7961	248.0281	65535	64798.75
800.9387	250.2503	65535	64792.2
801.0812	252.472	65535	64788.9
801.2238	254.6932	65535	64787.1
801.3664	256.9139	65535	64789.25
801.509	259.134	65535	64782.55
801.6516	261.3536	65535	64783.4
801.7942	263.5727	65535	64783.8
801.9369	265.7912	65535	64786.3
802.0795	268.0092	65535	64788.3
802.2222	270.2267	65535	64783.8
802.3649	272.4436	65535	64784
802.5076	274.6601	65535	64773.4
802.6504	276.8759	65535	64782.85
802.7931	279.0913	65535	64776.35
802.9359	281.3061	65535	64774.15
803.0787	283.5204	65535	64770.6
803.2215	285.7341	65535	64770.3
803.3643	287.9473	65535	64757.15
803.5071	290.16	65535	64760.35
803.6499	292.3721	65535	64768.95
803.7928	294.5837	65535	64769.05
803.9357	296.7947	65535	64766.65
804.0786	299.0052	65535	64765.15
804.2215	301.2152	65535	64765.3
804.3644	303.4246	65535	64766.2
804.5074	305.6334	65535	64765.85
804.6503	307.8418	65535	64763.6
804.7933	310.0495	65535	64766.05
804.9363	312.2568	65535	64764.7
805.0793	314.4635	65535	64761.25
805.2223	316.6696	65535	64759.3
805.3653	318.8752	65535	64753.05
805.5084	321.0802	65535	64756.5
805.6514	323.2847	65535	64760.1
805.7945	325.4887	65535	64756.25
805.9376	327.692	65535	64751.85
806.0807	329.8949	65535	64750.1
806.2238	332.0972	65535	64752.5
806.367	334.2989	65535	64749.5
806.5101	336.5001	65535	64752.7
806.6533	338.7007	65535	64750.1
806.7965	340.9008	65535	64750.8
806.9397	343.1003	65535	64746.6
807.0829	345.2992	65535	64744.75
807.2261	347.4976	65535	64743.45
807.3693	349.6955	65535	64741.05
807.5126	351.8927	65535	64735.1
807.6559	354.0895	65535	64726.15
807.7991	356.2856	65535	64737.05
807.9424	358.4812	65535	64735.25
808.0857	360.6763	65535	64732.6
808.2291	362.8707	65535	64735.25
808.3724	365.0646	65535	64732.1
808.5158	367.258	65535	64730.3
808.6591	369.4508	65535	64728.45
808.8025	371.643	65535	64724.05
808.9459	373.8346	65535	64723.15
809.0893	376.0257	65535	64719.9
809.2327	378.2162	65535	64720.85
809.3762	380.4062	65535	64718.8
809.5196	382.5956	65535	64717.9
809.6631	384.7844	65535	64721.7
809.8066	386.9726	65535	64717.9
809.9501	389.1603	65535	64718.75
810.0936	391.3474	65535	64679.85
810.2371	393.5339	65535	64720.15
810.3806	395.7199	65535	64725.2
810.5241	397.9052	65535	64724.95
810.6677	400.09	65535	64726.5
810.8113	402.2743	65535	64727.65
810.9548	404.4579	65535	64731.55
811.0984	406.641	65535	64725.85
811.2421	408.8235	65535	64725.95
811.3857	411.0054	65535	64723.6
811.5293	413.1868	65535	64719.2
811.673	415.3675	65535	64718.05
811.8166	417.5477	65535	64717.4
811.9603	419.7273	65535	64714.2
812.104	421.9064	65535	64709.05
812.2477	424.0848	65535	64710.35
812.3914	426.2627	65535	64709.35
812.5351	428.4399	65535	64707.65
812.6788	430.6166	65535	64705.05
812.8226	432.7928	65535	64701.75
812.9663	434.9683	65535	64703.7
813.1101	437.1432	65535	64703.4
813.2539	439.3176	65535	64704.15
813.3977	441.4914	65535	64701.75
813.5415	443.6645	65535	64698.7
813.6853	445.8371	65535	64702.5
813.8291	448.0091	65535	64704.85
813.973	450.1806	65535	64701.15
814.1168	452.3514	65535	64698.75
814.2607	454.5216	65535	64689.1
814.4046	456.6913	65535	64695.35
814.5485	458.8603	65535	64700.9
814.6924	461.0288	65535	64699.25
814.8363	463.1967	65535	64701.25
814.9802	465.3639	65535	64694.8
815.1241	467.5306	65535	64696.7
815.2681	469.6967	65535	64695.55
815.412	471.8622	65535	64698.55
815.556	474.0271	65535	64700.35
815.7	476.1914	65535	64692.85
815.844	478.3551	65535	64694.1
815.988	480.5182	65535	64693.5
816.132	482.6807	65535	64690.25
816.276	484.8426	65535	64696.8
816.4201	487.0039	65535	64693.1
816.5641	489.1647	65535	64693.1
816.7082	491.3248	65535	64692.2
816.8522	493.4843	65535	64693.7
816.9963	495.6432	65535	64691.15
817.1404	497.8015	65535	64686.95
817.2845	499.9592	65535	64690.7
817.4286	502.1163	65535	64691.2
817.5727	504.2728	65535	64686.55
817.7168	506.4287	65535	64691.15
817.861	508.5839	65535	64690.1
818.0051	510.7386	65535	64687.5
818.1493	512.8927	65535	64688
818.2935	515.0461	65535	64686.35
818.4377	517.199	65535	64687.4
818.5818	519.3512	65535	64685.4
818.726	521.5029	65535	64676.6
818.8703	523.6539	65535	64684.2
819.0145	525.8043	65535	64680.85
819.1587	527.9541	65535	64680.9
819.303	530.1033	65535	64680.9
819.4472	532.2519	65535	64683.75
819.5915	534.3999	65535	64681.8
819.7357	536.5472	65535	64680.2
819.88	538.694	65535	64681.7
820.0243	540.8401	65535	64680.9
820.1686	542.9856	65535	64680.1
820.3129	545.1305	65535	64674.35
820.4572	547.2748	65535	64678
820.6016	549.4185	65535	64674.05
820.7459	551.5615	65535	64673.15
820.8902	553.704	65535	64674.7
821.0346	555.8458	65535	64679.75
821.1789	557.987	65535	64674.8
821.3233	560.1276	65535	64676.35
821.4677	562.2675	65535	64678.4
821.6121	564.4069	65535	64679.85
821.7565	566.5456	65535	64677.1
821.9009	568.6837	65535	64675.35
822.0453	570.8212	65535	64674.8
822.1897	572.958	65535	64672.25
822.3342	575.0942	65535	64677.45
822.4786	577.2299	65535	64675.5
822.6231	579.3648	65535	64674
822.7675	581.4992	65535	64675.45
822.912	583.6329	65535	64677.5
823.0565	585.766	65535	64675.2
823.201	587.8985	65535	64675.85
823.3454	590.0304	65535	64652.15
823.4899	592.1616	65535	64673.15
823.6345	594.2922	65535	64672.1
823.779	596.4222	65535	64671.3
823.9235	598.5515	65535	64670
824.068	600.6802	65535	64671.75
824.2126	602.8083	65535	64670.3
824.3571	604.9358	65535	64670.4
824.5017	607.0626	65535	64669.75
824.6462	609.1888	65535	64667.95
824.7908	611.3144	65535	64665.3
824.9354	613.4393	65535	64669.4
825.08	615.5636	65535	64666.65
825.2246	617.6873	65535	64669.7
825.3692	619.8103	65535	64666.1
825.5138	621.9327	65535	64665.2
825.6584	624.0544	65535	64667.55
825.803	626.1756	65535	64666.3
825.9477	628.2961	65535	64664.95
826.0923	630.4159	65535	64666.95
826.237	632.5351	65535	64666
826.3816	634.6537	65535	64664.05
826.5263	636.7716	65535	64661.5
826.6709	638.8889	65535	64661.9
826.8156	641.0056	65535	64663.8
826.9603	643.1216	65535	64658
827.105	645.237	65535	64665.1
827.2497	647.3518	65535	64662
827.3944	649.4659	65535	64664.05
827.5391	651.5793	65535	64661.75
827.6838	653.6922	65535	64665.8
827.8285	655.8043	65535	64664.25
827.9733	657.9159	65535	64662.4
828.118	660.0268	65535	64661.4
828.2627	662.137	65535	64660.65
828.4075	664.2466	65535	64658.65
828.5522	666.3556	65535	64659.6
828.697	668.4639	65535	64657.25
828.8418	670.5716	65535	64658.75
828.9865	672.6786	65535	64659.6
829.1313	674.785	65535	64657.8
829.2761	676.8907	65535	64658.9
829.4209	678.9958	65535	64660.3
829.5657	681.1002	65535	64659.35
829.7105	683.204	65535	64655
829.8553	685.3072	65535	64654.5
830.0001	687.4097	65535	64658.2
830.1449	689.5115	65535	64652.1
830.2898	691.6127	65535	64656.65
830.4346	693.7132	65535	64655.05
830.5794	695.8131	65535	64648.3
830.7243	697.9123	65535	64653.25
830.8691	700.0109	65535	64653.45
831.014	702.1089	65535	64654.3
831.1588	704.2061	65535	64653.5
831.3037	706.3028	65535	64652.1
831.4486	708.3987	65535	64653.5
831.5935	710.4941	65535	64656.8
831.7383	712.5887	65535	64651.15
831.8832	714.6827	65535	64652.65
832.0281	716.7761	65535	64656.25
832.173	718.8688	65535	64651.6
832.3179	720.9608	65535	64647
832.4628	723.0522	65535	64647.8
832.6077	725.1429	65535	64654.35
832.7527	727.233	65535	64649.45
832.8976	729.3224	65535	64652
833.0425	731.4112	65535	64653.1
833.1874	733.4993	65535	64646
833.3324	735.5867	65535	64650.25
833.4773	737.6735	65535	64651.15
833.6222	739.7596	65535	64647.65
833.7672	741.845	65535	64649.7
833.9122	743.9298	65535	64651.3
834.0571	746.014	65535	64650.4
834.2021	748.0974	65535	64649.3
834.347	750.1802	65535	64646.85
834.492	752.2624	65535	64652.25
834.637	754.3439	65535	64650.3
834.782	756.4247	65535	64640.9
834.9269	758.5048	65535	64650.6
835.0719	760.5843	65535	64650.55
835.2169	762.6631	65535	64648.6
835.3619	764.7413	65535	64648.75
835.5069	766.8188	65535	64646.5
835.6519	768.8956	65535	64646
835.7969	770.9718	65535	64644.35
835.9419	773.0473	65535	64649.15
836.0869	775.1221	65535	64649.25
836.232	777.1962	65535	64650.3
836.377	779.2697	65535	64646.6
836.522	781.3426	65535	64626.45
836.667	783.4147	65535	64645.3
836.8121	785.4862	65535	64649.95
836.9571	787.557	65535	64646.65
837.1021	789.6271	65535	64648.85
837.2472	791.6966	65535	64646.75
837.3922	793.7654	65535	64647.75
837.5373	795.8335	65535	64645.65
837.6823	797.901	65535	64650.35
837.8274	799.9678	65535	64645.25
837.9724	802.0339	65535	64642.65
838.1175	804.0993	65535	64634.8
838.2626	806.1641	65535	64643.4
838.4076	808.2282	65535	64645.65
838.5527	810.2916	65535	64643.4
838.6978	812.3544	65535	64645.9
838.8428	814.4164	65535	64647.65
838.9879	816.4778	65535	64645.8
839.133	818.5385	65535	64643.7
839.2781	820.5986	65535	64645.9
839.4232	822.658	65535	64644.4
839.5682	824.7166	65535	64642.9
839.7133	826.7747	65535	64645.8
839.8584	828.832	65535	64643
840.0035	830.8886	65535	64642.55
840.1486	832.9446	65535	64642.5
840.2937	834.9999	65535	64645.7
840.4388	837.0545	65535	64640.15
840.5839	839.1085	65535	64644.05
840.729	841.1618	65535	64642.2
840.8741	843.2143	65535	64643.15
841.0192	845.2662	65535	64645.55
841.1643	847.3175	65535	64646
841.3095	849.368	65535	64641.85
841.4546	851.4179	65535	64644.45
841.5997	853.467	65535	64641.75
841.7448	855.5155	65535	64643.2
841.8899	857.5633	65535	64643.6
842.0351	859.6105	65535	64642.6
842.1802	861.6569	65535	64645.8
842.3253	863.7027	65535	64640.55
842.4704	865.7478	65535	64641.85
842.6156	867.7922	65535	64643.65
842.7607	869.8359	65535	64642.35
842.9058	871.8789	65535	64642
843.0509	873.9212	65535	64610.5
843.1961	875.9629	65535	64642.35
843.3412	878.0039	65535	64642.05
843.4863	880.0441	65535	64641.25
843.6315	882.0837	65535	64641.45
843.7766	884.1226	65535	64639.4
843.9218	886.1609	65535	64642.5
844.0669	888.1984	65535	64642.75
844.212	890.2352	65535	64641.85
844.3572	892.2714	65535	64636.85
844.5023	894.3069	65535	64641.75
844.6475	896.3416	65535	64642.2
844.7926	898.3757	65535	64640
844.9377	900.4091	65535	64640.1
845.0829	902.4418	65535	64636.35
845.228	904.4739	65535	64641.15
845.3732	906.5052	65535	64639.75
845.5183	908.5358	65535	64641.15
845.6635	910.5658	65535	64637.7
845.8086	912.595	65535	64638
845.9538	914.6236	65535	64639.95
846.0989	916.6515	65535	64639.85
846.2441	918.6786	65535	64637.3
846.3892	920.7051	65535	64637.45
846.5344	922.7309	65535	64641.45
846.6795	924.756	65535	64640.05
846.8246	926.7804	65535	64637.6
846.9698	928.8041	65535	64633.65
847.1149	930.8272	65535	64640.05
847.2601	932.8495	65535	64637.45
847.4052	934.8711	65535	64642.35
847.5504	936.892	65535	64639.85
847.6955	938.9123	65535	64638.6
847.8407	940.9318	65535	64640.9
847.9858	942.9506	65535	64638.65
848.131	944.9688	65535	64640.75
848.2761	946.9862	65535	64640.95
848.4213	949.003	65535	64638.3
848.5664	951.019	65535	64640.3
848.7115	953.0344	65535	64639.3
848.8567	955.0491	65535	64638.9
849.0018	957.063	65535	64637.9
849.147	959.0763	65535	64642
849.2921	961.0888	65535	64637
849.4373	963.1007	65535	64636.3
849.5824	965.1119	65535	64639.5
849.7275	967.1223	65535	64638.5
849.8727	969.1321	65535	64641.1
850.0178	971.1412	65535	64640.7
850.1629	973.1495	65535	64642.5
850.3081	975.1572	65535	64604.35
850.4532	977.1641	65535	64636.95
850.5983	979.1704	65535	64640.15
850.7435	981.1759	65535	64637.45
850.8886	983.1808	65535	64638.1
851.0337	985.1849	65535	64626.8
851.1788	987.1884	65535	64633.6
851.324	989.1911	65535	64635.75
851.4691	991.1932	65535	64637.95
851.6142	993.1945	65535	64638.7
851.7593	995.1951	65535	64638.05
851.9045	997.1951	65535	64629
852.0496	999.1943	65535	64640.45
852.1947	1001.1928	65535	64637.65
852.3398	1003.1906	65535	64637.85
852.4849	1005.1877	65535	64638.5
852.63	1007.1841	65535	64636.2
852.7751	1009.1798	65535	64640.05
852.9202	1011.1748	65535	64637.65
853.0653	1013.1691	65535	64636.95
853.2104	1015.1627	65535	64638.55
853.3555	1017.1556	65535	64636.15
853.5006	1019.1477	65535	64639.1
853.6457	1021.1392	65535	64638.15
853.7908	1023.1299	65535	64640.35
853.9359	1025.12	65535	64637.8
854.081	1027.1093	65535	64640.1
854.2261	1029.0979	65535	64643.75
854.3712	1031.0859	65535	64641.4
854.5163	1033.0731	65535	64637.4
854.6613	1035.0596	65535	64640.3
854.8064	1037.0454	65535	64637.85
854.9515	1039.0304	65535	64637.35
855.0965	1041.0148	65535	64640.05
855.2416	1042.9985	65535	64637.6
855.3867	1044.9814	65535	64640.4
855.5317	1046.9636	65535	64636.6
855.6768	1048.9452	65535	64638.35
855.8219	1050.926	65535	64640.4
855.9669	1052.9061	65535	64640.7
856.112	1054.8855	65535	64635.1
856.257	1056.8642	65535	64637.8
856.4021	1058.8421	65535	64634.7
856.5471	1060.8194	65535	64636.25
856.6921	1062.7959	65535	64638.4
856.8372	1064.7717	65535	64635.85
856.9822	1066.7469	65535	64634.55
857.1272	1068.7213	65535	64633.2
857.2723	1070.695	65535	64637.8
857.4173	1072.6679	65535	64636.85
857.5623	1074.6402	65535	64637.05
857.7073	1076.6117	65535	64629.75
857.8523	1078.5826	65535	64638.1
857.9973	1080.5527	65535	64635.05
858.1423	1082.5221	65535	64636.8
858.2873	1084.4908	65535	64637.15
858.4323	1086.4587	65535	64638.55
858.5773	1088.426	65535	64635.25
858.7223	1090.3925	65535	64633.45
858.8673	1092.3584	65535	64636.8
859.0123	1094.3235	65535	64638.5
859.1573	1096.2879	65535	64635.35
859.3022	1098.2515	65535	64640.2
859.4472	1100.2145	65535	64637.95
859.5922	1102.1767	65535	64634.85
859.7371	1104.1382	65535	64637.15
859.8821	1106.099	65535	64635.7
860.027	1108.0591	65535	64635.3
860.172	1110.0185	65535	64635.1
860.3169	1111.9771	65535	64637.45
860.4619	1113.9351	65535	64636.05
860.6068	1115.8923	65535	64636.75
860.7517	1117.8488	65535	64635.05
860.8967	1119.8045	65535	64636.65
861.0416	1121.7596	65535	64636.8
861.1865	1123.7139	65535	64637.15
861.3314	1125.6675	65535	64636.2
861.4763	1127.6204	65535	64638.3
861.6212	1129.5726	65535	64633.15
861.7661	1131.524	65535	64637.5
861.911	1133.4748	65535	64636
862.0559	1135.4248	65535	64639.05
862.2008	1137.3741	65535	64637.75
862.3457	1139.3226	65535	64635.25
862.4905	1141.2705	65535	64635.75
862.6354	1143.2176	65535	64633
862.7803	1145.164	65535	64636.85
862.9251	1147.1097	65535	64637
863.07	1149.0546	65535	64635.65
863.2148	1150.9989	65535	64636.8
863.3597	1152.9424	65535	64636
863.5045	1154.8852	65535	64636.6
863.6493	1156.8272	65535	64638.45
863.7942	1158.7686	65535	64630.55
863.939	1160.7092	65535	64634.75
864.0838	1162.6491	65535	64635
864.2286	1164.5883	65535	64638.95
864.3734	1166.5267	65535	64637
864.5182	1168.4644	65535	64638.15
864.663	1170.4014	65535	64630.85
864.8078	1172.3377	65535	64637
864.9526	1174.2732	65535	64636.75
865.0974	1176.2081	65535	64637.95
865.2421	1178.1421	65535	64632.05
865.3869	1180.0755	65535	64635.65
865.5317	1182.0082	65535	64637.5
865.6764	1183.9401	65535	64636.05
865.8212	1185.8713	65535	64637.85
865.9659	1187.8017	65535	64636.9
866.1106	1189.7315	65535	64639.3
866.2554	1191.6605	65535	64611
866.4001	1193.5888	65535	64637.85
866.5448	1195.5163	65535	64637.3
866.6895	1197.4432	65535	64636.1
866.8342	1199.3693	65535	64636.05
866.9789	1201.2947	65535	64633.65
867.1236	1203.2193	65535	64636.35
867.2683	1205.1432	65535	64636.3
867.413	1207.0664	65535	64637
867.5576	1208.9889	65535	64634.15
867.7023	1210.9106	65535	64638.45
867.847	1212.8316	65535	64637.3
867.9916	1214.7519	65535	64626.85
868.1363	1216.6715	65535	64635.15
868.2809	1218.5903	65535	64636.45
868.4255	1220.5084	65535	64637.2
868.5701	1222.4257	65535	64637.4
868.7148	1224.3424	65535	64635.85
868.8594	1226.2583	65535	64633.1
869.004	1228.1735	65535	64635.25
869.1486	1230.0879	65535	64635
869.2932	1232.0016	65535	64635.25
869.4377	1233.9146	65535	64635.05
869.5823	1235.8269	65535	64638.05
869.7269	1237.7384	65535	64636.85
869.8715	1239.6492	65535	64636.4
870.016	1241.5592	65535	64635.75
870.1606	1243.4686	65535	64636.65
870.3051	1245.3772	65535	64635.85
870.4496	1247.285	65535	64636.1
870.5941	1249.1922	65535	64634.8
870.7387	1251.0986	65535	64636.8
870.8832	1253.0042	65535	64637.8
871.0277	1254.9092	65535	64636.65
871.1722	1256.8134	65535	64638.25
871.3167	1258.7169	65535	64638.45
871.4611	1260.6196	65535	64636.4
871.6056	1262.5216	65535	64634.9
871.7501	1264.4229	65535	64637.25
871.8945	1266.3234	65535	64636.9
872.039	1268.2232	65535	64635.6
872.1834	1270.1223	65535	64636.6
872.3278	1272.0207	65535	64636.85
872.4723	1273.9183	65535	64630.3
872.6167	1275.8151	65535	64636.05
872.7611	1277.7113	65535	64636.75
872.9055	1279.6067	65535	64638
873.0499	1281.5014	65535	64636.8
873.1943	1283.3953	65535	64635.15
873.3386	1285.2885	65535	64637.8
873.483	1287.181	65535	64635.4
873.6274	1289.0727	65535	64638.1
873.7717	1290.9637	65535	64634.3
873.9161	1292.854	65535	64637.3
874.0604	1294.7435	65535	64635.55
874.2047	1296.6323	65535	64637.4
874.349	1298.5204	65535	64631.8
874.4933	1300.4077	65535	64636.65
874.6376	1302.2943	65535	64637.55
874.7819	1304.1802	65535	64636.6
874.9262	1306.0653	65535	64632.8
875.0705	1307.9497	65535	64636
875.2147	1309.8333	65535	64637.9
875.359	1311.7162	65535	64635.75
875.5032	1313.5984	65535	64636.6
875.6475	1315.4798	65535	64626.5
875.7917	1317.3605	65535	64618.85
875.9359	1319.2405	65535	64634.2
876.0801	1321.1197	65535	64635
876.2243	1322.9982	65535	64634.05
876.3685	1324.876	65535	64638.7
876.5127	1326.753	65535	64635.35
876.6569	1328.6293	65535	64636
876.801	1330.5048	65535	64632.35
876.9452	1332.3796	65535	64638
877.0893	1334.2537	65535	64610.85
877.2335	1336.127	65535	64635.9
877.3776	1337.9996	65535	64637.5
877.5217	1339.8714	65535	64633.1
877.6658	1341.7426	65535	64594.55
877.8099	1343.6129	65535	64637.5
877.954	1345.4826	65535	64635.6
878.0981	1347.3515	65535	64634.8
878.2422	1349.2196	65535	64634.7
878.3862	1351.087	65535	64638.3
878.5303	1352.9537	65535	64636.2
878.6743	1354.8197	65535	64637.65
878.8184	1356.6849	65535	64637.25
878.9624	1358.5493	65535	64634.55
879.1064	1360.4131	65535	64635.8
879.2504	1362.276	65535	64636.35
879.3944	1364.1383	65535	64636.8
879.5384	1365.9998	65535	64631.3
879.6823	1367.8606	65535	64636.35
879.8263	1369.7206	65535	64637.45
879.9702	1371.5799	65535	64633.9
880.1142	1373.4384	65535	64635.55
880.2581	1375.2962	65535	64635.65
880.402	1377.1533	65535	64633.6
880.5459	1379.0096	65535	64635.7
880.6898	1380.8652	65535	64636.45
880.8337	1382.7201	65535	64634.8
880.9776	1384.5742	65535	64638.2
881.1215	1386.4275	65535	64634.55
881.2653	1388.2802	65535	64638.95
881.4092	1390.132	65535	64636.2
881.553	1391.9832	65535	64633.7
881.6968	1393.8336	65535	64636.25
881.8406	1395.6832	65535	64634.25
881.9844	1397.5322	65535	64637.35
882.1282	1399.3803	65535	64631.7
882.272	1401.2278	65535	64635.95
882.4158	1403.0745	65535	64636.65
882.5595	1404.9204	65535	64638.45
882.7033	1406.7656	65535	64637.3
882.847	1408.6101	65535	64633.15
882.9908	1410.4538	65535	64636.15
883.1345	1412.2968	65535	64636.05
883.2782	1414.139	65535	64635.85
883.4219	1415.9805	65535	64635.65
883.5656	1417.8213	65535	64630.25
883.7092	1419.6613	65535	64636.85
883.8529	1421.5006	65535	64635.15
883.9965	1423.3391	65535	64635.6
884.1402	1425.1769	65535	64634.45
884.2838	1427.0139	65535	64635.9
884.4274	1428.8502	65535	64634.3
884.571	1430.6858	65535	64638.2
884.7146	1432.5206	65535	64635.7
884.8582	1434.3547	65535	64637.15
885.0018	1436.188	65535	64637.15
885.1453	1438.0206	65535	64637.2
885.2889	1439.8524	65535	64637.45
885.4324	1441.6835	65535	64636.55
885.5759	1443.5139	65535	64634.85
885.7194	1445.3435	65535	64635.7
885.8629	1447.1724	65535	64636.15
886.0064	1449.0005	65535	64636.2
886.1499	1450.8279	65535	64633.25
886.2933	1452.6545	65535	64635
886.4368	1454.4804	65535	64637.9
886.5802	1456.3056	65535	64632.05
886.7237	1458.13	65535	64637.9
886.8671	1459.9536	65535	64636.7
887.0105	1461.7766	65535	64637.55
887.1539	1463.5987	65535	64636.35
887.2972	1465.4202	65535	64636.35
887.4406	1467.2409	65535	64636.9
887.584	1469.0608	65535	64637.9
887.7273	1470.88	65535	64636.25
887.8706	1472.6984	65535	64639.05
888.0139	1474.5161	65535	64634
888.1572	1476.3331	65535	64636.45
888.3005	1478.1493	65535	64636.95
888.4438	1479.9648	65535	64637.45
888.5871	1481.7795	65535	64637.6
888.7303	1483.5935	65535	64637.1
888.8736	1485.4067	65535	64637
889.0168	1487.2192	65535	64637.5
889.16	1489.031	65535	64634.1
889.3032	1490.842	65535	64635.1
889.4464	1492.6522	65535	64635.05
889.5896	1494.4618	65535	64636.95
889.7327	1496.2705	65535	64636.1
889.8759	1498.0785	65528.05	64628.65
890.019	1499.8858	65535	64636.85
890.1622	1501.6924	65535	64637.95
890.3053	1503.4981	65533.25	64634.9
890.4484	1505.3032	65535	64635.75
890.5914	1507.1075	65528.6	64629.9
890.7345	1508.911	65528.65	64631.4
890.8776	1510.7138	65526.2	64628.3
891.0206	1512.5159	65534.9	64636.65
891.1637	1514.3172	65492.65	64595.35
891.3067	1516.1178	65514.2	64616.6
891.4497	1517.9176	65526.3	64626.8
891.5927	1519.7166	65509.1	64610.95
891.7357	1521.515	65489.6	64587.85
891.8786	1523.3126	65433	64534.05
892.0216	1525.1094	65501.9	64600.8
892.1645	1526.9055	65455.1	64557.7
892.3074	1528.7008	65456.2	64556.45
892.4503	1530.4954	65418.15	64514.3
892.5932	1532.2893	65464.85	64567.75
892.7361	1534.0824	65400.25	64497.25
892.879	1535.8747	65366.1	64467.45
893.0218	1537.6663	65461.7	64565.2
893.1647	1539.4572	65262.6	64363.85
893.3075	1541.2473	65360.1	64461.75
893.4503	1543.0367	65338.2	64442.25
893.5931	1544.8253	65300.85	64400.9
893.7359	1546.6132	65347.35	64448.85
893.8787	1548.4003	65267.05	64359.75
894.0214	1550.1867	65226.15	64321.9
894.1642	1551.9723	65178.55	64278.4
894.3069	1553.7572	65184.9	64289
894.4496	1555.5414	65258.25	64362.5
894.5923	1557.3247	64382.2	63486.5
894.735	1559.1074	65178.6	64282.4
894.8777	1560.8893	64906.5	64010.6
895.0204	1562.6705	65077.2	64181.95
895.163	1564.4509	64421.35	63526.55
895.3056	1566.2305	64744.35	63849.85
895.4482	1568.0094	65094.25	64199.75
895.5908	1569.7876	64802.55	63905.6
895.7334	1571.565	64353.85	63458.35
895.876	1573.3417	64616.95	63722.15
896.0186	1575.1176	64509.75	63613.85
896.1611	1576.8928	64308.7	63413.7
896.3036	1578.6672	63650.55	62755.7
896.4461	1580.4409	64051.9	63157.25
896.5886	1582.2138	63167.25	62270.05
896.7311	1583.986	63442.55	62546.4
896.8736	1585.7575	62693.9	61798.75
897.0161	1587.5282	62850.85	61957.15
897.1585	1589.2981	62931.1	62035.65
897.3009	1591.0673	62217.85	61320.6
897.4433	1592.8358	61746.65	60853.3
897.5857	1594.6035	62151.8	61255.3
897.7281	1596.3704	62211.8	61316.15
897.8705	1598.1366	61322.65	60428.7
898.0128	1599.9021	60884.05	59989.05
898.1551	1601.6668	61567.1	60670.65
898.2975	1603.4308	61122.3	60225.5
898.4398	1605.194	61304.5	60404.25
898.5821	1606.9564	60228.1	59335.45
898.7243	1608.7182	60809.8	59914.35
898.8666	1610.4791	60263.8	59370.75
899.0088	1612.2394	60733.3	59840.75
899.1511	1613.9988	60153.45	59260.4
899.2933	1615.7576	60850.85	59957.2
899.4355	1617.5156	60822.8	59923.3
899.5776	1619.2728	61584.15	60688.9
899.7198	1621.0293	60486.45	59591.65
899.862	1622.785	60458.25	59559.95
900.0041	1624.54	60857	59961.7
900.1462	1626.2942	60235.5	59339.05
900.2883	1628.0477	59166.8	58269.8
900.4304	1629.8005	58588.85	57689.4
900.5725	1631.5525	59011.55	58117.4
900.7145	1633.3037	57985.65	57089.85
900.8566	1635.0542	57903.05	57010.25
900.9986	1636.804	58128.35	57235.45
901.1406	1638.553	57326.25	56326.45
901.2826	1640.3013	57488	56593
901.4245	1642.0488	56870.05	55975.05
901.5665	1643.7955	57119.1	56226.65
901.7085	1645.5416	56710.15	55815.45
901.8504	1647.2868	56389.9	55495.75
901.9923	1649.0313	56894.75	56000.05
902.1342	1650.7751	56562.5	55665.9
902.2761	1652.5181	56254.35	55360.75
902.4179	1654.2604	56396.05	55501.55
902.5598	1656.0019	56837.65	55943.6
902.7016	1657.7427	56626.1	55733.05
902.8434	1659.4828	57133.3	56237.15
902.9852	1661.222	56897.6	56003
903.127	1662.9606	57049.8	56156.35
903.2687	1664.6984	56584	55689.2
903.4105	1666.4354	56485.5	55590.2
903.5522	1668.1717	55509.1	54613.65
903.6939	1669.9072	54844.25	53950.45
903.8356	1671.642	54467.95	53571.3
903.9773	1673.3761	54092.45	53199.4
904.119	1675.1094	53752.45	52860.4
904.2606	1676.8419	53298.2	52405.25
904.4022	1678.5737	52998.7	52104.9
904.5439	1680.3048	52695.9	51803.6
904.6855	1682.0351	52403	51509.1
904.827	1683.7646	52156.05	51259.9
904.9686	1685.4934	52039.4	51146.75
905.1101	1687.2215	51442.75	50547.6
905.2517	1688.9488	51586.95	50692.7
905.3932	1690.6754	50842.9	49948.7
905.5347	1692.4012	51034	50141.7
905.6761	1694.1263	50851.4	49957.7
905.8176	1695.8506	50582.1	49688.2
905.9591	1697.5742	50401.45	49508.25
906.1005	1699.297	50180.6	49286.35
906.2419	1701.0191	49927.9	49035.6
906.3833	1702.7404	49635.7	48743.8
906.5246	1704.461	49382.9	48488.1
906.666	1706.1808	49165.65	48270.1
906.8073	1707.8999	49128.05	48234
906.9487	1709.6182	48848.3	47954.2
907.09	1711.3358	48698.05	47805.2
907.2313	1713.0527	48577	47685.85
907.3725	1714.7688	48426.35	47528.65
907.5138	1716.4841	48091.35	47196.85
907.655	1718.1987	48090.35	47193.15
907.7962	1719.9126	47833	46942.7
907.9374	1721.6257	47667.3	46770.85
908.0786	1723.338	47641.4	46746.6
908.2198	1725.0496	47270.35	46375.25
908.3609	1726.7605	47156.95	46264.95
908.502	1728.4706	46978.3	46084.4
908.6431	1730.18	46744.1	45848.85
908.7842	1731.8886	46599	45706.2
908.9253	1733.5964	46493.4	45580.95
909.0664	1735.3036	46342.15	45446.4
909.2074	1737.0099	46210.8	45317.4
909.3484	1738.7156	46118.85	45227.75
909.4894	1740.4204	45844.65	44950.25
909.6304	1742.1246	45769.45	44873.55
909.7714	1743.8279	45624.2	44731.85
909.9123	1745.5306	45534.9	44640.7
910.0532	1747.2325	45346.75	44453.8
910.1941	1748.9336	45182.25	44291.1
910.335	1750.634	44965.9	44071.9
910.4759	1752.3336	44904.4	44011.5
910.6168	1754.0325	44778.55	43888.1
910.7576	1755.7307	44621.55	43729.95
910.8984	1757.4281	44566.35	43674.75
911.0392	1759.1247	44478.25	43577.85
911.18	1760.8206	44319.9	43422.1
911.3208	1762.5158	44275.15	43377.85
911.4615	1764.2102	44048.1	43157.05
911.6022	1765.9039	43887.95	42994.8
911.7429	1767.5968	43791.95	42899.75
911.8836	1769.289	43620.35	42728.7
912.0243	1770.9804	43529.2	42637
912.1649	1772.6711	43443.4	42552
912.3056	1774.361	43260.6	42367.8
912.4462	1776.0502	43198.2	42305.6
912.5868	1777.7386	43102.5	42207.55
912.7274	1779.4263	42893.75	42001.75
912.8679	1781.1132	42873.05	41980.9
913.0084	1782.7994	42634.45	41740.9
913.149	1784.4849	42562.15	41671.9
913.2895	1786.1696	42363.1	41465.5
913.4299	1787.8535	42274.75	41383.3
913.5704	1789.5367	42153.55	41258.9
913.7108	1791.2192	42090.05	41198.1
913.8513	1792.9009	41833	40911.95
913.9917	1794.5818	41758.75	40864.65
914.132	1796.2621	41655.7	40764.7
914.2724	1797.9415	41539.45	40646.6
914.4128	1799.6202	41421.3	40528.75
914.5531	1801.2982	41297.3	40404.6
914.6934	1802.9755	41144.7	40250.35
914.8337	1804.6519	41101.75	40210.9
914.9739	1806.3277	40868.95	39977.8
915.1142	1808.0027	40698.35	39807.55
915.2544	1809.6769	40626.3	39733.7
915.3946	1811.3504	40491.8	39598.15
915.5348	1813.0231	40424.65	39531.25
915.675	1814.6951	40357.1	39464.3
915.8151	1816.3664	40344.9	39450.85
915.9553	1818.0369	40176.65	39284.15
916.0954	1819.7067	40035.6	39144.45
916.2355	1821.3757	39950.05	39057.1
916.3755	1823.044	39886.55	38994.9
916.5156	1824.7115	39712.2	38821.6
916.6556	1826.3783	39509.65	38615.6
916.7956	1828.0443	39453.75	38563.2
916.9356	1829.7096	39295	38401.55
917.0756	1831.3741	39236.45	38341.8
917.2155	1833.0379	39147.1	38254.1
917.3555	1834.701	38977.6	38083.5
917.4954	1836.3633	38870.3	37978.35
917.6353	1838.0248	38805.85	37911.4
917.7751	1839.6856	38672.65	37780.65
917.915	1841.3457	38676.95	37786.25
918.0548	1843.005	38534.55	37642.95
918.1946	1844.6636	38483.25	37590.75
918.3344	1846.3214	38345.25	37453.05
918.4742	1847.9785	38258.8	37367.25
918.6139	1849.6349	38100.4	37208
918.7537	1851.2904	38011.1	37108.5
918.8934	1852.9453	37897.4	37004.55
919.0331	1854.5994	37799.15	36906
919.1727	1856.2528	37792.8	36896.6
919.3124	1857.9054	37689.15	36797.15
919.452	1859.5572	37641.85	36750.95
919.5916	1861.2083	37510.2	36617.05
919.7312	1862.8587	37444.6	36552.05
919.8708	1864.5084	37330.6	36438
920.0103	1866.1572	37165.45	36274.4
920.1498	1867.8054	37020.6	36130.05
920.2893	1869.4528	36931.45	36039.85
920.4288	1871.0994	36799.45	35908.05
920.5683	1872.7453	36806.3	35913.3
920.7077	1874.3905	36644	35746.45
920.8471	1876.0349	36521	35628.7
920.9865	1877.6786	36464.35	35571.3
921.1259	1879.3215	36463.4	35573.4
921.2653	1880.9637	36304.45	35409.45
921.4046	1882.6051	36207.75	35316.75
921.5439	1884.2458	36117.95	35225.35
921.6832	1885.8858	35981.65	35088.35
921.8225	1887.525	35861.55	34970.5
921.9617	1889.1634	35626.45	34734.1
922.101	1890.8011	35572.1	34678.8
922.2402	1892.4381	35503.55	34611.9
922.3794	1894.0743	35483.95	34590.95
922.5185	1895.7098	35351.95	34461.05
922.6577	1897.3446	35268	34374.95
922.7968	1898.9786	35088.15	34193.8
922.9359	1900.6118	35054.35	34162.7
923.075	1902.2443	34870.1	33975.95
923.214	1903.8761	34757.3	33865.55
923.3531	1905.5071	34566.35	33673.05
923.4921	1907.1374	34484.3	33591.85
923.6311	1908.7669	34352.5	33460.1
923.77	1910.3957	34354.9	33463.75
923.909	1912.0237	34163.4	33270.4
924.0479	1913.651	34047.5	33155.35
924.1868	1915.2776	33930.55	33040.05
924.3257	1916.9034	33826.2	32936.2
924.4646	1918.5285	33606	32715.85
924.6034	1920.1528	33433.5	32542.4
924.7422	1921.7764	33396.7	32504.8
924.881	1923.3992	33234.65	32341.65
925.0198	1925.0213	33016	32123.55
925.1586	1926.6427	32887.1	31996.7
925.2973	1928.2633	32907.45	31908.1
925.436	1929.8832	32720.85	31826.2
925.5747	1931.5023	32579.8	31687.25
925.7134	1933.1207	32502.5	31609.25
925.852	1934.7383	32419.85	31527.6
925.9906	1936.3552	32295.4	31405.3
926.1292	1937.9714	32196.6	31304.2
926.2678	1939.5868	32038	31143.65
926.4064	1941.2015	31866.5	30973.5
926.5449	1942.8154	31782.3	30888.2
926.6834	1944.4286	31594.55	30701.5
926.8219	1946.041	31488	30577.6
926.9604	1947.6528	31253.7	30356.75
927.0988	1949.2637	31175.15	30283.5
927.2372	1950.8739	31057.05	30165
927.3756	1952.4834	31022	30129.7
927.514	1954.0921	30975.75	30084.65
927.6523	1955.7001	30800.6	29903.15
927.7907	1957.3074	30690.45	29798.2
927.929	1958.9139	30526.9	29636.75
928.0673	1960.5197	30485.45	29592.85
928.2055	1962.1247	30281.4	29388.7
928.3438	1963.729	30191.15	29300.2
928.482	1965.3325	30082.7	29168.6
928.6202	1966.9353	29944.2	29052
928.7584	1968.5374	29791.3	28899.85
928.8965	1970.1387	29773.9	28882.05
929.0346	1971.7393	29677.55	28785.85
929.1727	1973.3392	29548.25	28656.85
929.3108	1974.9383	29388.9	28497.3
929.4489	1976.5366	29269.2	28378.5
929.5869	1978.1342	29238.9	28345.15
929.7249	1979.7311	29137	28242.05
929.8629	1981.3273	29101.05	28208.4
930.0009	1982.9227	28978.35	28085.5
930.1388	1984.5173	28810.95	27920.5
930.2767	1986.1112	28696	27805.95
930.4146	1987.7044	28675.8	27787.1
930.5525	1989.2968	28524.5	27633.4
930.6904	1990.8885	28457.75	27563.9
930.8282	1992.4795	28350.7	27458.3
930.966	1994.0697	28260.15	27369.5
931.1038	1995.6592	28124	27234.8
931.2415	1997.2479	28041.5	27151.5
931.3793	1998.8359	27950	27060.15
931.517	2000.4232	27795.65	26905.45
931.6547	2002.0097	27763	26872.5
931.7923	2003.5955	27568.4	26676.85
931.93	2005.1805	27540.35	26645.25
932.0676	2006.7648	27432.55	26541.3
932.2052	2008.3484	27340.05	26450.2
932.3427	2009.9312	27360.45	26467.7
932.4803	2011.5133	27220.9	26332.1
932.6178	2013.0946	27148.05	26258
932.7553	2014.6752	27042.05	26152.65
932.8928	2016.2551	26999.4	26108.1
933.0302	2017.8342	26830.85	25939.8
933.1676	2019.4126	26749.55	25858.65
933.305	2020.9902	26683.3	25793.3
933.4424	2022.5672	26611.25	25719.35
933.5798	2024.1433	26502.75	25605.1
933.7171	2025.7188	26393.55	25503.85
933.8544	2027.2935	26297.3	25406.2
933.9917	2028.8674	26227.95	25337.85
934.129	2030.4406	26079.55	25190.9
934.2662	2032.0131	25996.55	25108.25
934.4034	2033.5849	25914.25	25018.9
934.5406	2035.1559	25845.2	24954.2
934.6778	2036.7261	25790.25	24898.3
934.8149	2038.2957	25737.75	24848.05
934.952	2039.8645	25670.6	24779.2
935.0891	2041.4325	25641.75	24748.6
935.2262	2042.9998	25492.85	24602.45
935.3632	2044.5664	25459.15	24567.45
935.5002	2046.1323	25323.95	24433.95
935.6372	2047.6974	25276.4	24384.55
935.7742	2049.2617	25183	24291.15
935.9111	2050.8254	25143.25	24231.45
936.048	2052.3883	25115.75	24223.5
936.1849	2053.9504	25015.7	24124.9
936.3218	2055.5118	24898.9	24007.2
936.4586	2057.0725	24738.75	23845.1
936.5955	2058.6325	24671.25	23778.65
936.7323	2060.1917	24634.25	23742.75
936.869	2061.7502	24591.45	23698.3
937.0058	2063.3079	24475.1	23584.75
937.1425	2064.8649	24380.1	23485.9
937.2792	2066.4212	24344.45	23451.6
937.4159	2067.9767	24236.8	23346.4
937.5525	2069.5315	24134.15	23243.6
937.6891	2071.0856	24021.1	23130.65
937.8257	2072.6389	23922.85	23032.4
937.9623	2074.1915	23800	22911.05
938.0989	2075.7433	23667.4	22774.6
938.2354	2077.2945	23634	22744.3
938.3719	2078.8448	23535.35	22644.4
938.5084	2080.3945	23440.95	22550.7
938.6448	2081.9434	23425.7	22534.35
938.7812	2083.4916	23320.5	22429.45
938.9176	2085.039	23247.6	22356.15
939.054	2086.5857	23192	22299.55
939.1903	2088.1317	23130.75	22239.15
939.3267	2089.677	23025.15	22135
939.463	2091.2215	23014.75	22124.65
939.5992	2092.7652	22900.55	22009.6
939.7355	2094.3083	22844.4	21953.45
939.8717	2095.8506	22822.15	21933.2
940.0079	2097.3921	22778.8	21889.05
940.1441	2098.933	22686.25	21796
940.2802	2100.4731	22619.15	21729
940.4163	2102.0124	22613.75	21714.2
940.5524	2103.5511	22499.6	21608.15
940.6885	2105.089	22458.85	21567.4
940.8245	2106.6261	22412.2	21520.4
940.9606	2108.1626	22303.35	21411.6
941.0965	2109.6983	22264.3	21343.4
941.2325	2111.2332	22153.1	21259.95
941.3684	2112.7675	22068.65	21176.45
941.5044	2114.301	21991.4	21098.95
941.6403	2115.8337	21984.85	21092.8
941.7761	2117.3657	21923.2	21031.35
941.912	2118.897	21866.45	20973.2
942.0478	2120.4276	21775.9	20879.75
942.1835	2121.9575	21712.85	20821.95
942.3193	2123.4866	21661.8	20755
942.455	2125.0149	21598.15	20702.65
942.5907	2126.5426	21436.65	20545.05
942.7264	2128.0695	21402.5	20506.25
942.8621	2129.5956	21357.95	20466.9
942.9977	2131.1211	21306.35	20410.8
943.1333	2132.6458	21244.95	20353.15
943.2689	2134.1698	21188.5	20297.4
943.4044	2135.693	21104.45	20211.05
943.54	2137.2155	21102.1	20208.7
943.6755	2138.7373	21034.25	20143.1
943.8109	2140.2584	20914.2	20022.7
943.9464	2141.7787	20877.75	19981.7
944.0818	2143.2983	20740.45	19850
944.2172	2144.8171	20641.4	19753
944.3526	2146.3353	20626	19735.9
944.4879	2147.8527	20520.2	19629.25
944.6232	2149.3693	20496.8	19605.15
944.7585	2150.8853	20413.05	19520.45
944.8938	2152.4005	20294.2	19402.45
945.029	2153.9149	20235.95	19344.95
945.1642	2155.4287	20222.6	19332.35
945.2994	2156.9417	20152.55	19260.25
945.4346	2158.454	20036.3	19142.95
945.5697	2159.9655	20005.45	19113.8
945.7048	2161.4764	20019.35	19128.9
945.8399	2162.9865	19919.1	19029.1
945.9749	2164.4958	19897.75	19004
946.1099	2166.0045	19779	18884.95
946.2449	2167.5124	19759.8	18868.9
946.3799	2169.0195	19672.45	18781.25
946.5148	2170.526	19645.6	18754.55
946.6498	2172.0317	19594.7	18702.3
946.7846	2173.5367	19543.2	18650.25
946.9195	2175.0409	19513.3	18622.3
947.0543	2176.5445	19443.85	18554.55
947.1891	2178.0473	19357.9	18466.7
947.3239	2179.5494	19243.8	18349
947.4587	2181.0507	19210.3	18318.45
947.5934	2182.5513	19110.95	18221.35
947.7281	2184.0512	19079.65	18189.3
947.8628	2185.5504	19012.25	18120.65
947.9974	2187.0488	18918.55	18025.45
948.132	2188.5465	18833.15	17941.4
948.2666	2190.0435	18790	17897.7
948.4012	2191.5397	18755.55	17865.25
948.5357	2193.0353	18668.6	17779.15
948.6702	2194.5301	18519.65	17626.7
948.8047	2196.0241	18474.1	17583
948.9392	2197.5175	18423.55	17532.9
949.0736	2199.0101	18367.2	17473.05
949.208	2200.502	18265.3	17375.4
949.3424	2201.9931	18203.95	17311.55
949.4767	2203.4835	18144.45	17251.15
949.611	2204.9733	18091.45	17195.15
949.7453	2206.4622	18021.8	17130.55
949.8796	2207.9505	17974.3	17081
950.0138	2209.438	17848.1	16958
950.148	2210.9248	17779.1	16887.6
950.2822	2212.4109	17729.1	16837.6
950.4164	2213.8962	17687.85	16793.4
950.5505	2215.3809	17647.55	16756
950.6846	2216.8648	17626.7	16732.2
950.8186	2218.3479	17559	16663.5
950.9527	2219.8304	17485.2	16591.65
951.0867	2221.3121	17395.25	16501.1
951.2207	2222.7931	17340.15	16447.5
951.3546	2224.2733	17293.2	16403
951.4886	2225.7529	17232.55	16340
951.6225	2227.2317	17151.9	16259.05
951.7563	2228.7098	17122.95	16231.7
951.8902	2230.1872	17033.45	16140.55
952.024	2231.6638	16959.4	16069.65
952.1578	2233.1397	16923.4	16026.5
952.2916	2234.6149	16893.6	16001.2
952.4253	2236.0894	16793.95	15900.6
952.559	2237.5632	16778	15877.3
952.6927	2239.0362	16699.45	15808
952.8263	2240.5085	16609.95	15718.3
952.9599	2241.9801	16525.65	15633.5
953.0935	2243.4509	16512.85	15621.55
953.2271	2244.921	16441.15	15550.2
953.3606	2246.3904	16363.65	15469.05
953.4941	2247.8591	16296.5	15405.1
953.6276	2249.3271	16233.05	15340.8
953.7611	2250.7943	16209.7	15319.8
953.8945	2252.2608	16141.2	15251.8
954.0279	2253.7266	16116.25	15224.75
954.1612	2255.1917	16067.7	15176.6
954.2946	2256.656	15975.85	15083.5
954.4279	2258.1197	15943.15	15053.2
954.5612	2259.5826	15909.8	15017.15
954.6944	2261.0447	15865.55	14973.05
954.8276	2262.5062	15785.35	14890.6
954.9608	2263.9669	15769.6	14876
955.094	2265.4269	15708.1	14818.65
955.2271	2266.8862	15653.8	14763.35
955.3602	2268.3448	15606.35	14714.55
955.4933	2269.8026	15565.6	14673.6
955.6264	2271.2598	15506.85	14616.55
955.7594	2272.7162	15462.45	14570.5
955.8924	2274.1719	15393.75	14501.4
956.0253	2275.6268	15364.15	14473.15
956.1583	2277.0811	15331.95	14439.35
956.2912	2278.5346	15297.75	14407.3
956.4241	2279.9874	15265.2	14374.7
956.5569	2281.4395	15219.05	14329.15
956.6897	2282.8908	15149.85	14253.55
956.8225	2284.3414	15095.15	14202.05
956.9553	2285.7914	15036.75	14146.55
957.088	2287.2406	14974.85	14082.6
957.2207	2288.689	14951.3	14061.35
957.3534	2290.1368	14917.4	14025.65
957.486	2291.5838	14841.4	13945.9
957.6186	2293.0302	14794.15	13899.95
957.7512	2294.4758	14721.15	13829.25
957.8838	2295.9206	14659.35	13765.6
958.0163	2297.3648	14620.2	13729.45
958.1488	2298.8082	14594.75	13702.7
958.2813	2300.251	14551.55	13659.7
958.4137	2301.693	14528.35	13634.85
958.5461	2303.1343	14499.15	13607.8
958.6785	2304.5748	14434.45	13544.55
958.8108	2306.0147	14370.35	13477.75
958.9432	2307.4538	14337.1	13443.8
959.0754	2308.8922	14259.55	13368.2
959.2077	2310.3299	14246.45	13356.2
959.3399	2311.7669	14172.45	13283.25
959.4721	2313.2031	14124.05	13233.4
959.6043	2314.6387	14086.05	13194.75
959.7365	2316.0735	14006.4	13113.65
959.8686	2317.5076	14000.85	13107.45
960.0006	2318.941	13956.35	13064.45
960.1327	2320.3737	13896.55	13002.8
960.2647	2321.8056	13857.9	12963.85
960.3967	2323.2369	13801.6	12910.8
960.5287	2324.6674	13786.5	12893.45
960.6606	2326.0972	13710.95	12817.45
960.7925	2327.5263	13681.6	12789.85
960.9244	2328.9547	13628.75	12735.85
961.0562	2330.3823	13597.15	12705.05
961.1881	2331.8092	13598.7	12703.05
961.3198	2333.2355	13499.3	12608.3
961.4516	2334.661	13485.2	12593.15
961.5833	2336.0858	13440.35	12543.9
961.715	2337.5098	13381.2	12490.5
961.8467	2338.9332	13371.4	12479.75
961.9783	2340.3558	13314.25	12419.7
962.1099	2341.7778	13252.9	12361.7
962.2415	2343.199	13206.7	12313.4
962.373	2344.6195	13174.75	12283.6
962.5045	2346.0393	13152.25	12261.55
962.636	2347.4583	13109.25	12215.5
962.7675	2348.8767	13062.25	12168.2
962.8989	2350.2943	13022.1	12131.45
963.0303	2351.7113	12960.55	12067.4
963.1617	2353.1275	12921.35	12032.45
963.293	2354.543	12878.35	11964.1
963.4243	2355.9578	12836.15	11945.05
963.5556	2357.3718	12783.4	11893.25
963.6868	2358.7852	12714.1	11819
963.818	2360.1978	12672.15	11777.7
963.9492	2361.6098	12636.3	11745.3
964.0803	2363.021	12600.1	11708.35
964.2114	2364.4315	12554.65	11665.3
964.3425	2365.8413	12487.65	11590.65
964.4736	2367.2504	12463.95	11571.05
964.6046	2368.6587	12378.85	11487.8
964.7356	2370.0664	12351.2	11458
964.8666	2371.4733	12279.5	11387.35
964.9975	2372.8795	12255.45	11363.7
965.1284	2374.285	12212.2	11322.65
965.2593	2375.6899	12141.9	11251.15
965.3901	2377.0939	12096.25	11206.2
965.5209	2378.4973	12053	11163
965.6517	2379.9	12004.2	11112.65
965.7825	2381.3019	11936.15	11046.9
965.9132	2382.7032	11897.5	11010
966.0439	2384.1037	11885.85	10998.5
966.1745	2385.5035	11822.95	10932.4
966.3051	2386.9027	11783.85	10892.35
966.4357	2388.3011	11768.35	10873.85
966.5663	2389.6987	11723.2	10829.65
966.6968	2391.0957	11699	10810.05
966.8273	2392.492	11631.1	10741.05
966.9578	2393.8876	11557.3	10665.35
967.0882	2395.2824	11516.8	10625.55
967.2186	2396.6765	11446.2	10556.2
967.349	2398.07	11410.6	10519.8
967.4793	2399.4627	11410.35	10518.3
967.6097	2400.8547	11378.55	10488.2
967.7399	2402.246	11348.6	10452.2
967.8702	2403.6366	11273.2	10380.95
968.0004	2405.0265	11226.65	10334.95
968.1306	2406.4156	11149.05	10253.9
968.2607	2407.8041	11138.45	10244.95
968.3909	2409.1918	11080.25	10186.65
968.521	2410.5789	11020.05	10129.95
968.651	2411.9652	11012.15	10117.95
968.781	2413.3508	10956.75	10066.4
968.911	2414.7358	10905.6	10014.45
969.041	2416.12	10862.7	9973.8
969.1709	2417.5035	10842.4	9952.1
969.3008	2418.8863	10819.55	9927.85
969.4307	2420.2684	10784.05	9891.15
969.5606	2421.6497	10711.05	9820.05
969.6904	2423.0304	10646.1	9756.5
969.8201	2424.4104	10626.45	9736.95
969.9499	2425.7896	10608.35	9709.4
970.0796	2427.1682	10574	9684.05
970.2093	2428.546	10520.55	9626.15
970.3389	2429.9232	10503.55	9612.2
970.4685	2431.2996	10467.45	9576.1
970.5981	2432.6753	10461.25	9571.55
970.7277	2434.0503	10422.35	9532.4
970.8572	2435.4246	10373.6	9483.4
970.9867	2436.7982	10358.5	9466.65
971.1161	2438.1711	10315.5	9425.8
971.2456	2439.5433	10264.2	9371.5
971.375	2440.9148	10203.7	9312.4
971.5043	2442.2856	10150.8	9261.2
971.6336	2443.6557	10131.85	9239.9
971.7629	2445.025	10093.65	9203.15
971.8922	2446.3937	10077.15	9185.9
972.0214	2447.7617	10050.55	9157.6
972.1506	2449.1289	10024.95	9134.25
972.2798	2450.4955	9997.5	9101.9
972.4089	2451.8613	9959.45	9067.35
972.538	2453.2265	9919.05	9028.15
972.6671	2454.5909	9926.2	9034.05
972.7961	2455.9546	9872.75	8982.35
972.9251	2457.3177	9815.05	8926.75
973.0541	2458.68	9810	8916.8
973.1831	2460.0416	9793.25	8902.45
973.312	2461.4025	9775.75	8883.1
973.4408	2462.7627	9747.9	8844.4
973.5697	2464.1222	9691.45	8801.25
973.6985	2465.4811	9680.35	8789.7
973.8273	2466.8392	9631.45	8742.15
973.956	2468.1966	9604.05	8708.7
974.0847	2469.5533	9593.7	8700.5
974.2134	2470.9093	9575.1	8682.85
974.3421	2472.2645	9518.45	8626.8
974.4707	2473.6191	9496.65	8606.95
974.5993	2474.973	9465.65	8576.7
974.7278	2476.3262	9438.5	8546.45
974.8563	2477.6787	9409.85	8520.45
974.9848	2479.0305	9352.25	8462.4
975.1132	2480.3816	9316.85	8422.05
975.2417	2481.7319	9310.6	8418.15
975.37	2483.0816	9235.25	8340.55
975.4984	2484.4306	9218.35	8326.6
975.6267	2485.7789	9165.3	8274.55
975.755	2487.1264	9130.75	8236.15
975.8833	2488.4733	9099	8209.8
976.0115	2489.8195	9064.6	8165.15
976.1397	2491.165	9043.35	8149.3
976.2678	2492.5097	9012.4	8121.1
976.3959	2493.8538	8959.45	8069.85
976.524	2495.1972	8917.75	8025.7
976.6521	2496.5398	8890.25	7997.5
976.7801	2497.8818	8869.95	7978.7
976.9081	2499.2231	8849.4	7957.2
977.036	2500.5637	8786.95	7893.15
977.164	2501.9035	8749.4	7857.15
977.2918	2503.2427	8757.15	7863.7
977.4197	2504.5812	8699.15	7807.1
977.5475	2505.919	8691.35	7798.55
977.6753	2507.256	8685.1	7793.5
977.8031	2508.5924	8628.85	7737.55
977.9308	2509.9281	8593.15	7695.75
978.0585	2511.2631	8567.4	7675.8
978.1861	2512.5974	8550.15	7658.5
978.3137	2513.9309	8546.25	7656.5
978.4413	2515.2638	8498.3	7571.3
978.5689	2516.596	8471.9	7581.75
978.6964	2517.9275	8423.45	7532.7
978.8239	2519.2583	8384.45	7493.95
978.9513	2520.5884	8344.75	7452
979.0788	2521.9178	8308	7417.15
979.2062	2523.2465	8295.9	7405.65
979.3335	2524.5745	8267	7377
979.4608	2525.9018	8235.4	7344.15
979.5881	2527.2284	8207.45	7317.9
979.7154	2528.5543	8188.25	7297.25
979.8426	2529.8796	8152.8	7262.5
979.9698	2531.2041	8152.95	7261.7
980.0969	2532.5279	8121.55	7231.25
980.224	2533.851	8086.65	7196.1
980.3511	2535.1735	8090.95	7199.65
980.4781	2536.4952	8046.7	7155.75
980.6052	2537.8163	8035.1	7144.3
980.7321	2539.1366	8002.7	7112.7
980.8591	2540.4562	7976	7084.65
980.986	2541.7752	7967.9	7075.8
981.1129	2543.0935	7955.2	7062.6
981.2397	2544.411	7949.9	7056.3
981.3665	2545.7279	7913.8	7023.35
981.4933	2547.0441	7898.65	7007.15
981.62	2548.3596	7875.45	6980.05
981.7467	2549.6744	7862.8	6972.1
981.8734	2550.9885	7821.75	6927.75
982.0001	2552.3019	7794.85	6904.55
982.1267	2553.6146	7784.7	6894.4
982.2532	2554.9266	7753.85	6862.05
982.3798	2556.2379	7744.6	6850.5
982.5063	2557.5485	7710.25	6821.45
982.6327	2558.8585	7687.45	6789.25
982.7592	2560.1677	7670.4	6773.8
982.8856	2561.4762	7663.5	6769.8
983.0119	2562.7841	7644.8	6751.25
983.1383	2564.0913	7623.5	6733.8
983.2646	2565.3977	7610.8	6722.15
983.3908	2566.7035	7595.9	6705.85
983.517	2568.0086	7554.05	6661.8
983.6432	2569.313	7564.95	6673.3
983.7694	2570.6167	7526.6	6630.45
983.8955	2571.9197	7507.8	6617.4
984.0216	2573.222	7487.7	6593.3
984.1476	2574.5236	7500.55	6609.05
984.2737	2575.8246	7456.5	6564.05
984.3996	2577.1248	7447.45	6554.25
984.5256	2578.4244	7450.1	6556.35
984.6515	2579.7232	7438.7	6543.9
984.7774	2581.0214	7427.9	6513.55
984.9032	2582.3189	7378.5	6489.1
985.029	2583.6157	7369.1	6476.55
985.1548	2584.9118	7365.1	6472.75
985.2806	2586.2072	7331.65	6441.3
985.4063	2587.5019	7286.9	6394.95
985.5319	2588.7959	7274.2	6381.5
985.6576	2590.0893	7272.15	6379.65
985.7832	2591.3819	7274.85	6385.55
985.9087	2592.6739	7219	6328.45
986.0343	2593.9652	7217.95	6324.45
986.1597	2595.2557	7170.2	6279.9
986.2852	2596.5456	7140.85	6248.7
986.4106	2597.8348	7127.1	6235.35
986.536	2599.1234	7091.7	6202.05
986.6614	2600.4112	7085.25	6194.55
986.7867	2601.6983	7049	6154.6
986.912	2602.9848	7036	6142.75
987.0372	2604.2705	6999.15	6102
987.1624	2605.5556	6979.85	6088.15
987.2876	2606.84	6958.25	6067.2
987.4128	2608.1237	6947.55	6054.6
987.5379	2609.4067	6921.8	6029.55
987.6629	2610.689	6910.1	6010.25
987.788	2611.9707	6862.95	5968.4
987.913	2613.2516	6852.5	5956.75
988.0379	2614.5319	6806.15	5914.5
988.1629	2615.8115	6785.25	5894.55
988.2878	2617.0903	6754.5	5862.35
988.4126	2618.3685	6749.2	5857.45
988.5375	2619.6461	6720.6	5828.15
988.6622	2620.9229	6693.8	5802.8
988.787	2622.199	6682.8	5791.15
988.9117	2623.4745	6664.35	5771.3
989.0364	2624.7493	6630	5738.8
989.161	2626.0234	6613.65	5722.4
989.2857	2627.2968	6595.65	5705.4
989.4102	2628.5695	6571.7	5678.1
989.5348	2629.8415	6536	5645.35
989.6593	2631.1128	6521.3	5628.55
989.7837	2632.3835	6472.15	5581.8
989.9082	2633.6535	6446.35	5556.5
990.0326	2634.9228	6426.55	5535.55
990.1569	2636.1914	6400.3	5509.55
990.2812	2637.4593	6407.8	5509.85
990.4055	2638.7265	6375.85	5484.3
990.5298	2639.9931	6353.3	5462.2
990.654	2641.259	6345.55	5452.45
990.7782	2642.5242	6330.2	5436.35
990.9023	2643.7887	6306.65	5413.45
991.0264	2645.0525	6275.4	5384.95
991.1505	2646.3156	6248.1	5356.8
991.2745	2647.5781	6234.4	5344.45
991.3985	2648.8398	6193.7	5304.8
991.5225	2650.1009	6191	5291.8
991.6464	2651.3613	6180.2	5287.55
991.7703	2652.6211	6168.9	5279.3
991.8942	2653.8801	6129.95	5239.65
992.018	2655.1385	6144.05	5248.65
992.1418	2656.3961	6117.6	5227.95
992.2655	2657.6531	6087.5	5196.2
992.3892	2658.9094	6078.9	5187.3
992.5129	2660.1651	6067.15	5177.4
992.6366	2661.42	6063.15	5172.6
992.7602	2662.6743	6057.15	5164.75
992.8837	2663.9279	6028.5	5138.3
993.0073	2665.1808	6021.3	5128.25
993.1307	2666.433	5996.8	5103.15
993.2542	2667.6846	5961.35	5070.8
993.3776	2668.9354	5968.3	5073.3
993.501	2670.1856	5933.15	5041
993.6244	2671.4351	5911.45	5020.75
993.7477	2672.6839	5909.7	5017.65
993.8709	2673.9321	5901.8	5010.5
993.9942	2675.1795	5899.45	5007.6
994.1174	2676.4263	5863.7	4972
994.2405	2677.6724	5850.8	4961
994.3637	2678.9179	5814.1	4922.75
994.4868	2680.1626	5807	4916.95
994.6098	2681.4067	5798.1	4906.45
994.7328	2682.6501	5796.55	4904.45
994.8558	2683.8928	5789	4898.65
994.9788	2685.1348	5737.3	4847.05
995.1017	2686.3761	5722.6	4832.2
995.2245	2687.6168	5690.45	4800.2
995.3474	2688.8568	5673.15	4781.8
995.4702	2690.0961	5653.3	4762.85
995.5929	2691.3348	5644.55	4749.7
995.7156	2692.5727	5628.55	4735.8
995.8383	2693.81	5627.2	4733.65
995.961	2695.0466	5591.5	4700.8
996.0836	2696.2826	5577.55	4685.3
996.2062	2697.5178	5559.45	4667.05
996.3287	2698.7524	5541.3	4649.75
996.4512	2699.9863	5548.45	4654.15
996.5737	2701.2195	5518.45	4628.3
996.6961	2702.452	5509.45	4615.35
996.8185	2703.6839	5484.8	4591.9
996.9408	2704.9151	5480.8	4589.05
997.0631	2706.1456	5464.55	4573.9
997.1854	2707.3755	5454.85	4563.55
997.3077	2708.6046	5440.2	4547.95
997.4299	2709.8331	5433.05	4541.65
997.552	2711.0609	5415.75	4523.6
997.6742	2712.2881	5401.65	4509.9
997.7963	2713.5145	5384.4	4488.75
997.9183	2714.7403	5403.15	4514
998.0403	2715.9654	5376.6	4483.9
998.1623	2717.1899	5382.35	4474.45
998.2842	2718.4136	5352	4460.25
998.4062	2719.6367	5341.05	4447.9
998.528	2720.8591	5362.6	4464.7
998.6498	2722.0809	5340.95	4448.05
998.7716	2723.3019	5333.15	4438.6
998.8934	2724.5223	5293.45	4401.4
999.0151	2725.7421	5304.8	4413.25
999.1368	2726.9611	5287.8	4394.9
999.2584	2728.1795	5262.85	4364.85
999.38	2729.3972	5258.95	4368.5
999.5016	2730.6142	5234.1	4334.75
999.6231	2731.8306	5186.55	4295.85
999.7446	2733.0462	5174.35	4281.6
999.8661	2734.2612	5134.55	4238.4
999.9875	2735.4756	5104.3	4210.95
1000.1089	2736.6892	5072.8	4180.45
1000.2302	2737.9022	5057.4	4166.3
1000.3515	2739.1145	5004.45	4114.6
1000.4728	2740.3262	4974.65	4076.85
1000.594	2741.5372	4955.85	4064.5
1000.7152	2742.7475	4925.8	4034.05
1000.8363	2743.9571	4911.15	4017.25
1000.9575	2745.1661	4888.7	3993.1
1001.0785	2746.3744	4860.9	3967.7
1001.1996	2747.582	4852.35	3960.6
1001.3206	2748.7889	4825.4	3930.95
1001.4415	2749.9952	4819.95	3929.8
1001.5625	2751.2008	4785.55	3890.9
1001.6833	2752.4057	4769.8	3878.4
1001.8042	2753.61	4743.45	3850.3
1001.925	2754.8136	4718.35	3826.4
1002.0458	2756.0165	4712.4	3822.35
1002.1665	2757.2188	4715.75	3825
1002.2872	2758.4204	4707	3816.05
1002.4078	2759.6213	4666	3770.15
1002.5285	2760.8215	4677.3	3780.45
1002.649	2762.0211	4651.85	3758.4
1002.7696	2763.22	4623.65	3729.5
1002.8901	2764.4182	4616.15	3723.25
1003.0106	2765.6158	4601	3708.35
1003.131	2766.8127	4576.55	3684.4
1003.2514	2768.009	4584.25	3692.05
1003.3717	2769.2045	4575.4	3684.45
1003.492	2770.3994	4550.8	3657.35
1003.6123	2771.5936	4538.45	3645.75
1003.7325	2772.7872	4502.25	3611.7
1003.8527	2773.9801	4490.8	3598.4
1003.9729	2775.1723	4493.2	3584.85
1004.093	2776.3639	4452.25	3561.8
1004.2131	2777.5548	4445.9	3553.3
1004.3331	2778.745	4454.95	3562.35
1004.4531	2779.9346	4429.65	3540.85
1004.5731	2781.1235	4422.2	3528.9
1004.693	2782.3117	4404.55	3513.15
1004.8129	2783.4992	4402.3	3513.25
1004.9328	2784.6861	4399.3	3506.95
1005.0526	2785.8723	4382.75	3488.85
1005.1723	2787.0579	4392.85	3499.1
1005.2921	2788.2428	4370.1	3477.5
1005.4118	2789.427	4373.9	3484.35
1005.5314	2790.6106	4357.4	3467.45
1005.651	2791.7935	4357.3	3465.35
1005.7706	2792.9757	4356.35	3465.5
1005.8902	2794.1573	4340.05	3448.25
1006.0097	2795.3382	4336.3	3444.7
1006.1291	2796.5184	4358.85	3468.5
1006.2485	2797.698	4373.9	3479.95
1006.3679	2798.8769	4354.9	3464.7
1006.4873	2800.0551	4357.9	3467.65
1006.6066	2801.2327	4356.75	3462.5
1006.7258	2802.4096	4364.9	3474.55
1006.8451	2803.5859	4382.85	3491.85
1006.9642	2804.7615	4381.15	3490.7
1007.0834	2805.9364	4404.75	3514.65
1007.2025	2807.1106	4417.75	3529.25
1007.3216	2808.2842	4413.25	3522.4
1007.4406	2809.4572	4457.9	3567.7
1007.5596	2810.6294	4480.65	3587.5
1007.6785	2811.801	4504.25	3613.85
1007.7975	2812.972	4532.25	3642.5
1007.9163	2814.1423	4567.85	3676.45
1008.0352	2815.3119	4589.75	3698.6
1008.154	2816.4808	4627.9	3737.65
1008.2727	2817.6491	4678.9	3787.9
1008.3914	2818.8167	4723.95	3832.8
1008.5101	2819.9837	4762.5	3866.8
1008.6288	2821.15	4787.6	3897.45
1008.7474	2822.3157	4829.35	3940.1
1008.8659	2823.4807	4863.75	3972.25
1008.9844	2824.645	4893.4	4002.05
1009.1029	2825.8086	4927.9	4037.75
1009.2214	2826.9716	4953.8	4062.45
1009.3398	2828.134	5001.35	4108.85
1009.4581	2829.2957	5036.8	4145.35
1009.5764	2830.4567	5042.65	4152.4
1009.6947	2831.617	5055.6	4164.45
1009.813	2832.7767	5060.9	4170.5
1009.9312	2833.9358	5037.6	4146.9
1010.0493	2835.0941	5029.05	4136.65
1010.1675	2836.2519	5020.65	4129.15
1010.2855	2837.4089	5003.2	4113.05
1010.4036	2838.5653	4976.3	4085.3
1010.5216	2839.7211	4972.45	4083.6
1010.6396	2840.8761	4983	4089.85
1010.7575	2842.0306	4990.95	4101.95
1010.8754	2843.1843	5012.9	4123.25
1010.9932	2844.3374	5058.3	4167.75
1011.111	2845.4899	5106.9	4214.15
1011.2288	2846.6417	5174.85	4283.35
1011.3465	2847.7928	5241.1	4348.45
1011.4642	2848.9433	5326.55	4437.7
1011.5818	2850.0931	5389.35	4497.3
1011.6995	2851.2422	5454.8	4561.75
1011.817	2852.3907	5524.45	4632.75
1011.9345	2853.5385	5573.95	4681.85
1012.052	2854.6857	5636.7	4717.5
1012.1695	2855.8323	5663.65	4771.55
1012.2869	2856.9781	5711	4820.35
1012.4042	2858.1233	5762.4	4870.8
1012.5216	2859.2679	5783.45	4894.6
1012.6389	2860.4118	5827.7	4937.05
1012.7561	2861.555	5842.8	4946.2
1012.8733	2862.6976	5874.55	4981.8
1012.9905	2863.8395	5899.5	5010.05
1013.1076	2864.9808	5896.25	5006.2
1013.2247	2866.1214	5905.3	5016.35
1013.3417	2867.2614	5907.15	5017.7
1013.4587	2868.4007	5944.2	5053.2
1013.5757	2869.5393	5938.6	5045.15
1013.6926	2870.6773	5937.55	5042.95
1013.8095	2871.8146	5956.1	5061.6
1013.9263	2872.9513	5929.85	5037.8
1014.0431	2874.0874	5911.9	5020.95
1014.1599	2875.2227	5906.35	5014.55
1014.2766	2876.3574	5860.25	4971.65
1014.3933	2877.4915	5841.65	4953.45
1014.51	2878.6249	5793.4	4902.8
1014.6266	2879.7577	5758.75	4866.85
1014.7431	2880.8898	5738.35	4835.3
1014.8596	2882.0212	5711.35	4821.4
1014.9761	2883.152	5684.75	4792.4
1015.0925	2884.2821	5670.3	4780.05
1015.2089	2885.4116	5632.55	4742.05
1015.3253	2886.5405	5628.2	4735.45
1015.4416	2887.6686	5631.2	4735.3
1015.5579	2888.7962	5612.35	4722.05
1015.6741	2889.923	5616.4	4726.75
1015.7903	2891.0493	5627.55	4736.55
1015.9065	2892.1748	5627.6	4736.25
1016.0226	2893.2997	5630.1	4738.85
1016.1387	2894.424	5642.55	4752
1016.2547	2895.5476	5640.45	4750.85
1016.3707	2896.6706	5647.85	4757.7
1016.4866	2897.7929	5678.95	4788.05
1016.6025	2898.9145	5703.05	4811.95
1016.7184	2900.0355	5713.25	4823.55
1016.8342	2901.1559	5725.2	4833
1016.95	2902.2756	5758.55	4863.25
1017.0658	2903.3946	5786.25	4895.95
1017.1815	2904.513	5802.7	4909.5
1017.2971	2905.6308	5827.7	4935.75
1017.4127	2906.7479	5824.75	4933
1017.5283	2907.8643	5852.1	4960.1
1017.6439	2908.9801	5842.05	4949.05
1017.7594	2910.0953	5870.2	4978.25
1017.8748	2911.2098	5854.15	4958.75
1017.9902	2912.3236	5828.65	4928.3
1018.1056	2913.4368	5809.85	4916.05
1018.2209	2914.5494	5791	4900.5
1018.3362	2915.6613	5758.25	4863.15
1018.4515	2916.7725	5717.8	4824.75
1018.5667	2917.8831	5681.9	4789.75
1018.6819	2918.9931	5668.3	4775.15
1018.797	2920.1024	5607.75	4714.7
1018.9121	2921.211	5579.5	4688.95
1019.0271	2922.319	5554.45	4663.45
1019.1421	2923.4264	5537.35	4645.55
1019.2571	2924.5331	5522.3	4633.8
1019.372	2925.6391	5481	4589.65
1019.4869	2926.7445	5465.15	4575
1019.6017	2927.8493	5453.8	4562.15
1019.7165	2928.9534	5436.25	4542.9
1019.8313	2930.0569	5434.25	4540.9
1019.946	2931.1597	5412.75	4519.5
1020.0606	2932.2619	5397.75	4507.35
1020.1753	2933.3634	5385.7	4495.8
1020.2899	2934.4643	5371.1	4474.8
1020.4044	2935.5645	5332.6	4435.4
1020.5189	2936.6641	5297.1	4402.1
1020.6334	2937.763	5237.55	4347.9
1020.7478	2938.8613	5192.45	4301.2
1020.8622	2939.959	5125.5	4230.65
1020.9765	2941.056	5030.55	4141.15
1021.0908	2942.1523	4929.2	4035.75
1021.2051	2943.248	4863.95	3974
1021.3193	2944.3431	4743.15	3853.3
1021.4334	2945.4375	4640	3747.6
1021.5476	2946.5313	4523.85	3634.25
1021.6617	2947.6244	4409.9	3519.9
1021.7757	2948.7169	4301.35	3409.2
1021.8897	2949.8087	4204.25	3313.6
1022.0037	2950.8999	4095.8	3204.45
1022.1176	2951.9904	4025.3	3135.1
1022.2315	2953.0803	3939.85	3050
1022.3453	2954.1696	3854.6	2964.2
1022.4591	2955.2582	3806.75	2915.1
1022.5728	2956.3462	3747.25	2854.75
1022.6865	2957.4335	3691.55	2797.9
1022.8002	2958.5202	3650.3	2757.5
1022.9138	2959.6062	3611.6	2721.6
1023.0274	2960.6916	3574.6	2684.4
1023.141	2961.7764	3552.2	2660.55
1023.2545	2962.8605	3536.7	2645.75
1023.3679	2963.9439	3520.4	2630.8
1023.4813	2965.0267	3495.9	2603.3
1023.5947	2966.1089	3502.5	2589.25
1023.708	2967.1905	3476.8	2584.8
1023.8213	2968.2714	3463.5	2574.45
1023.9346	2969.3516	3445.9	2556.2
1024.0478	2970.4312	3457.3	2560.3
1024.1609	2971.5102	3422.1	2531.95
1024.274	2972.5885	3419.25	2529.6
1024.3871	2973.6662	3426.7	2532
1024.5002	2974.7432	3408.2	2519.4
1024.6132	2975.8196	3393.95	2504.2
1024.7261	2976.8954	3379.25	2488.2
1024.839	2977.9705	3358	2467.35
1024.9519	2979.045	3338.5	2449
1025.0647	2980.1188	3315.7	2426.1
1025.1775	2981.192	3304.95	2414.95
1025.2902	2982.2645	3268.5	2379
1025.4029	2983.3364	3227.35	2335.9
1025.5156	2984.4077	3200.55	2311.25
1025.6282	2985.4783	3173.3	2278.6
1025.7407	2986.5483	3112.1	2222.2
1025.8532	2987.6177	3084.95	2194.15
1025.9657	2988.6864	3048	2156.7
1026.0782	2989.7545	3018.8	2128.1
1026.1906	2990.8219	2968.05	2079.85
1026.3029	2991.8887	2939	2046.25
1026.4152	2992.9548	2907.55	2016.65
1026.5275	2994.0204	2868.55	1978.3
1026.6397	2995.0852	2830.85	1940.1
1026.7519	2996.1495	2793.65	1900.85
1026.864	2997.2131	2778.8	1888
1026.9761	2998.276	2736.35	1847.65
1027.0882	2999.3383	2717.95	1825.75
1027.2002	3000.4	2699.3	1808.65
1027.3122	3001.4611	2673.6	1784.15
1027.4241	3002.5215	2651.8	1762.1
1027.536	3003.5812	2640.45	1752.6
1027.6478	3004.6404	2622.1	1732.15
1027.7596	3005.6989	2607.8	1713
1027.8714	3006.7567	2582.75	1692.15
1027.9831	3007.8139	2599.55	1687.3
1028.0947	3008.8705	2574.55	1684.35
1028.2064	3009.9264	2565.4	1670.25
1028.3179	3010.9818	2552.4	1661.9
1028.4295	3012.0364	2538	1648.4
1028.541	3013.0905	2530.1	1639.6
1028.6524	3014.1439	2536.7	1647.05
1028.7638	3015.1966	2521.1	1628.95
1028.8752	3016.2487	2519.45	1628.3
1028.9865	3017.3002	2518.2	1623.45
1029.0978	3018.3511	2498.85	1609.45
1029.209	3019.4013	2495.55	1605.45
1029.3202	3020.4509	2504.95	1615.45
1029.4314	3021.4998	2497.25	1609.35
1029.5425	3022.5481	2484.7	1593.7
1029.6535	3023.5958	2482.8	1592.1
1029.7645	3024.6428	2482.65	1591.4
1029.8755	3025.6892	2471.45	1580.1
1029.9864	3026.735	2475.85	1584.6
1030.0973	3027.7802	2469.9	1579.35
1030.2082	3028.8247	2470.15	1579.35
1030.319	3029.8685	2454.4	1564.7
1030.4297	3030.9118	2464.1	1574.3
1030.5404	3031.9544	2452.5	1563.75
1030.6511	3032.9963	2460.9	1572.55
1030.7617	3034.0376	2468	1579.4
1030.8723	3035.0783	2455.2	1561.6
1030.9829	3036.1184	2453.35	1562.1
1031.0934	3037.1578	2446.7	1557.5
1031.2038	3038.1966	2455.7	1563.35
1031.3142	3039.2348	2452.45	1563.85
1031.4246	3040.2723	2457.65	1558.55
1031.5349	3041.3092	2442.45	1551.6
1031.6452	3042.3455	2434.2	1544.15
1031.7554	3043.3811	2428.5	1537.95
1031.8656	3044.4161	2417.95	1527.6
1031.9758	3045.4505	2406.05	1516.45
1032.0859	3046.4842	2396.05	1505.5
1032.1959	3047.5173	2386.6	1497.25
1032.3059	3048.5498	2377.9	1488.25
1032.4159	3049.5816	2372.05	1481.1
1032.5258	3050.6128	2359.7	1469.2
1032.6357	3051.6434	2344.95	1453.25
1032.7455	3052.6734	2330	1437.35
1032.8553	3053.7027	2318.65	1428.85
1032.9651	3054.7314	2310.9	1422.25
1033.0748	3055.7594	2309.15	1420.2
1033.1845	3056.7868	2294.1	1402.15
1033.2941	3057.8136	2287.6	1396.1
1033.4037	3058.8398	2272.3	1381.8
1033.5132	3059.8653	2261.05	1370.3
1033.6227	3060.8902	2257.7	1367.75
1033.7321	3061.9145	2238.55	1349.6
1033.8415	3062.9381	2225.75	1336.75
1033.9509	3063.9612	2235.3	1331.25
1034.0602	3064.9835	2213.4	1323.25
1034.1694	3066.0053	2208.25	1315.9
1034.2787	3067.0264	2202.75	1312.9
1034.3878	3068.0469	2193.25	1303.55
1034.497	3069.0668	2174.4	1282.45
1034.6061	3070.086	2168.1	1277.25
1034.7151	3071.1046	2152.4	1260.95
1034.8241	3072.1226	2147.35	1255.05
1034.9331	3073.1399	2133.35	1244.35
1035.042	3074.1567	2117.35	1226.65
1035.1508	3075.1727	2101.8	1208
1035.2597	3076.1882	2078.6	1187.4
1035.3684	3077.203	2067.85	1177.4
1035.4772	3078.2173	2057.2	1165.65
1035.5859	3079.2308	2046.85	1151
1035.6945	3080.2438	2028.3	1136.75
1035.8031	3081.2561	2020.45	1130.2
1035.9117	3082.2678	2010.85	1122.6
1036.0202	3083.2789	2008.55	1119.55
1036.1286	3084.2893	2000.05	1110.05
1036.2371	3085.2991	1985.5	1094.35
1036.3454	3086.3083	1986.35	1093.4
1036.4538	3087.3169	1963.8	1070.1
1036.562	3088.3248	1958.75	1066.9
1036.6703	3089.3321	1945.25	1052.65
1036.7785	3090.3388	1948.3	1060.15
1036.8866	3091.3449	1929.25	1039.45
1036.9948	3092.3503	1927.05	1034.85
1037.1028	3093.3551	1919.55	1030.3
1037.2108	3094.3593	1916.2	1026.35
1037.3188	3095.3629	1901.85	1009.9
1037.4267	3096.3658	1899.3	1008.45
1037.5346	3097.3681	1894.1	1004.7
1037.6425	3098.3698	1890.75	996.2
1037.7503	3099.3708	1878.6	982.15
1037.858	3100.3713	1873.15	982.2
1037.9657	3101.3711	1868.25	977.75
1038.0734	3102.3702	1966.8	960.3
1038.181	3103.3688	1865.7	971.6
1038.2886	3104.3667	1838.35	948.45
1038.3961	3105.364	1836.8	946.15
1038.5036	3106.3607	1833.15	942.8
1038.611	3107.3568	1824.25	933.9
1038.7184	3108.3522	1818.45	930.45
1038.8257	3109.347	1818.9	928.1
1038.933	3110.3412	1805.35	912.4
1039.0403	3111.3348	1797.85	908.85
1039.1475	3112.3277	1798.3	907.85
1039.2547	3113.32	1804.5	917.05
1039.3618	3114.3117	1786.8	896.75
1039.4689	3115.3028	1783.55	892.55
1039.5759	3116.2932	1774.55	882.75
1039.6829	3117.2831	1791.4	894.75
1039.7898	3118.2723	1774.6	885.95
1039.8967	3119.2608	1764.2	876.5
1040.0035	3120.2488	1758.15	868.85
1040.1103	3121.2361	1755.85	866.25
1040.2171	3122.2229	1751.95	861.95
1040.3238	3123.209	1741.1	849.95
1040.4305	3124.1944	1739.15	850.9
1040.5371	3125.1793	1729.3	837.05
1040.6437	3126.1635	1734.35	844.25
1040.7502	3127.1471	1723.45	834.75
1040.8567	3128.1301	1713.2	824.1
1040.9631	3129.1125	1707.9	817.45
1041.0695	3130.0942	1708.7	819.4
1041.1759	3131.0753	1710.3	813.2
1041.2822	3132.0558	1713.95	819.6
1041.3884	3133.0357	1698.25	806.95
1041.4946	3134.015	1694.85	805.25
1041.6008	3134.9936	1691.6	801.4
1041.7069	3135.9716	1702.75	792.85
1041.813	3136.949	1691.9	802.55
1041.919	3137.9258	1681.1	785.15
1042.025	3138.902	1681.85	787.55
1042.1309	3139.8775	1676.4	786.05
1042.2368	3140.8524	1661.35	770.85
1042.3427	3141.8267	1660.3	767.9
1042.4485	3142.8004	1652.65	763.35
1042.5542	3143.7735	1668.95	772.5
1042.6599	3144.7459	1663.75	771.5
1042.7656	3145.7178	1644.95	754.3
1042.8712	3146.689	1650	761.35
1042.9768	3147.6596	1642	750.75
1043.0823	3148.6295	1645.9	757.25
1043.1878	3149.5989	1630.8	740.25
1043.2932	3150.5676	1623.2	734.65
1043.3986	3151.5357	1621.85	733.45
1043.5039	3152.5032	1614.7	726.8
1043.6092	3153.4701	1613.7	724.15
1043.7145	3154.4364	1613.45	720.35
1043.8197	3155.402	1602.95	714.7
1043.9248	3156.367	1601.7	709.65
1044.03	3157.3315	1639.05	705.2
1044.135	3158.2952	1588.75	699
1044.24	3159.2584	1597.1	708.35
1044.345	3160.221	1584.45	694.75
1044.4499	3161.1829	1585.8	698.45
1044.5548	3162.1442	1579.35	690.25
1044.6596	3163.105	1570.8	681.65
1044.7644	3164.065	1567.1	677.8
1044.8692	3165.0245	1563.6	669.75
1044.9739	3165.9834	1560.3	672.3
1045.0785	3166.9416	1561.6	670.75
1045.1831	3167.8993	1551.1	659.9
1045.2877	3168.8563	1549.95	659.2
1045.3922	3169.8127	1540.75	650.8
1045.4966	3170.7684	1536.2	647.35
1045.6011	3171.7236	1540.25	649.5
1045.7054	3172.6782	1532.3	640.7
1045.8098	3173.6321	1531.6	641.15
1045.914	3174.5854	1533.2	638.2
1046.0183	3175.5381	1524.4	635.3
1046.1224	3176.4902	1521.55	632.35
1046.2266	3177.4417	1511.45	622.7
1046.3307	3178.3926	1512.55	624.2
1046.4347	3179.3428	1513.65	624.95
1046.5387	3180.2924	1506.2	618.45
1046.6427	3181.2415	1493.4	603.1
1046.7466	3182.1899	1498.35	607.65
1046.8504	3183.1377	1492.2	604.95
1046.9542	3184.0848	1495.05	602.5
1047.058	3185.0314	1491.85	601.25
1047.1617	3185.9773	1485.25	595.6
1047.2654	3186.9227	1478.85	588.5
1047.369	3187.8674	1480.35	589.75
1047.4726	3188.8115	1481.25	585.05
1047.5761	3189.755	1478.1	586.95
1047.6796	3190.6979	1467.4	576.15
1047.783	3191.6402	1457.85	568.55
1047.8864	3192.5818	1462.25	572.8
1047.9898	3193.5229	1488.4	575.55
1048.0931	3194.4633	1462	571.3
1048.1963	3195.4031	1453.9	564.85
1048.2995	3196.3423	1449.5	558.05
1048.4027	3197.2809	1450.8	562.45
1048.5058	3198.2189	1455.05	565.85
1048.6089	3199.1563	1452.45	555.75
1048.7119	3200.0931	1439.55	551.4
1048.8148	3201.0292	1436.55	547.2
1048.9178	3201.9648	1433.6	544.1
1049.0206	3202.8997	1433.45	539.5
1049.1235	3203.834	1435.3	546.7
1049.2262	3204.7677	1421.8	532.1
1049.329	3205.7008	1420.8	528.55
1049.4317	3206.6333	1414.65	524.95
1049.5343	3207.5652	1418.65	526.05
1049.6369	3208.4964	1416.5	527.2
1049.7394	3209.4271	1412.3	525.55
1049.8419	3210.3571	1407.3	517.05
1049.9444	3211.2865	1408	517.55
1050.0468	3212.2154	1412	518.05
1050.1491	3213.1436	1406.75	513.15
1050.2514	3214.0712	1411.45	516.4
1050.3537	3214.9982	1406.45	517.3
1050.4559	3215.9246	1396	505.6
1050.5581	3216.8503	1395	507.4
1050.6602	3217.7755	1391.15	500.2
1050.7623	3218.7001	1393.2	503.4
1050.8643	3219.624	1390.05	499.75
1050.9663	3220.5473	1382.25	492.15
1051.0682	3221.4701	1389.25	499.9
1051.1701	3222.3922	1381.85	490.35
1051.2719	3223.3137	1376.9	487.7
1051.3737	3224.2346	1373.2	483
1051.4754	3225.1549	1374.8	486.35
1051.5771	3226.0746	1366.55	478.35
1051.6788	3226.9937	1362.75	471.25
1051.7804	3227.9121	1366.75	477.55
1051.8819	3228.83	1362.95	473.15
1051.9834	3229.7473	1364.65	475
1052.0849	3230.6639	1365.35	477
1052.1863	3231.5799	1358.7	469.5
1052.2876	3232.4954	1347.05	457.7
1052.3889	3233.4102	1341.8	452.95
1052.4902	3234.3244	1342.25	453.5
1052.5914	3235.238	1342.55	453.35
1052.6926	3236.151	1350.55	439.15
1052.7937	3237.0634	1335.75	448.1
1052.8948	3237.9752	1333.6	444.45
1052.9958	3238.8864	1327.2	437.65
1053.0968	3239.797	1330.25	440.35
1053.1977	3240.7069	1328.75	440.2
1053.2986	3241.6163	1328.65	437.15
1053.3994	3242.5251	1326	437.8
1053.5002	3243.4332	1319.5	430.75
1053.6009	3244.3408	1313.8	425.05
1053.7016	3245.2477	1315.55	426
1053.8022	3246.154	1310.3	421.9
1053.9028	3247.0598	1308.15	417.55
1054.0034	3247.9649	1301.1	412.75
1054.1039	3248.8694	1305.1	416.1
1054.2043	3249.7733	1299.7	410.7
1054.3047	3250.6766	1293.15	402.55
1054.4051	3251.5793	1301.5	410.1
1054.5054	3252.4814	1290.8	401.3
1054.6056	3253.3829	1282.95	396.2
1054.7058	3254.2838	1286.15	399.2
1054.806	3255.1841	1280.95	392.8
1054.9061	3256.0838	1277.65	388.5
1055.0061	3256.9829	1273.85	382.3
1055.1062	3257.8814	1282.85	389.8
1055.2061	3258.7792	1273.3	380
1055.306	3259.6765	1270.6	378.25
1055.4059	3260.5731	1268.25	380.15
1055.5057	3261.4692	1257.1	366.8
1055.6055	3262.3647	1258.25	368.1
1055.7052	3263.2595	1247.3	358.2
1055.8049	3264.1538	1249.3	360.65
1055.9045	3265.0474	1241.8	352.65
1056.0041	3265.9404	1236.1	346.35
1056.1036	3266.8329	1222.95	331.25
1056.2031	3267.7247	1227.25	327.5
1056.3025	3268.616	1211.55	321.35
1056.4019	3269.5066	1209.85	319.65
1056.5013	3270.3966	1202.65	312.25
1056.6005	3271.286	1191.15	303.6
