Software Version:	3.9.2.0
Unit SN:	10000200
Spectrometer SN:	6960
Date:	3/6/2024 11:02:30 AM
Data Line Index:	25
Spectral Points:	2048
Integration time (ms):	125
Averages:	20
Delay (ms):	30
Sequence Number:	1
Processing:	dark subtract
Laser Power (mW):	300
Laser Current (mA):	822
Laser Diode Temp (C):	25
Laser Case Temp (C):	28.3
System Temp (C):	28.1
Spectrometer Temp (C):	25.6
CCD Temp (C):	0.001
Secondary Temp (C):	20.008
Heatsink Temp (C):	23.925
CCDPCB Temp (C):	37.341
SecondaryPCB Temp (C):	34.584

Wavelength	RamanShift	Raw Counts	Dark Subtracted
787.061	30.1047	1074.05	661
787.2016	32.3739	1102.2	692.7
787.3422	34.6426	1145.55	735.15
787.4828	36.9109	1188.4	776.35
787.6235	39.1787	1241.9	823.25
787.7642	41.4461	1298.3	874.5
787.9049	43.7131	1358.15	931.8
788.0456	45.9796	1413.3	984.15
788.1863	48.2456	1487.6	1054.95
788.3271	50.5112	1545.3	1107.2
788.4679	52.7764	1618.1	1180.2
788.6087	55.0411	1686.15	1243.65
788.7496	57.3054	1761.4	1310.05
788.8904	59.5692	1847.8	1395.7
789.0313	61.8326	1943.15	1486.5
789.1722	64.0955	2037.7	1579.3
789.3132	66.3579	2155.55	1689.15
789.4541	68.6199	2303.4	1835.6
789.5951	70.8815	2525.2	2052.6
789.7361	73.1426	3012.35	2534.65
789.8771	75.4032	4170.55	3690.15
790.0181	77.6634	7195.15	6710.15
790.1592	79.9231	14884.3	14396.75
790.3003	82.1824	47694.75	47195.65
790.4414	84.4412	65535	65016.6
790.5825	86.6995	65535	64997.15
790.7237	88.9574	65535	64973.65
790.8648	91.2148	65535	64959.8
791.006	93.4717	65535	64946.45
791.1472	95.7282	65535	64943.85
791.2885	97.9842	65535	64938.75
791.4297	100.2398	65535	64937.35
791.571	102.4949	65535	64930.9
791.7123	104.7495	65535	64929.45
791.8536	107.0036	65535	64924.05
791.9949	109.2573	65535	64928.4
792.1363	111.5105	65535	64929.65
792.2777	113.7632	65535	64925.25
792.4191	116.0154	65535	64917.85
792.5605	118.2672	65535	64919.8
792.7019	120.5185	65535	64917.85
792.8434	122.7693	65535	64920.1
792.9849	125.0197	65535	64915.05
793.1264	127.2696	65535	64911.65
793.2679	129.519	65535	64907.6
793.4094	131.7679	65535	64906.45
793.551	134.0163	65535	64901.55
793.6926	136.2642	65535	64899.8
793.8342	138.5117	65535	64889.15
793.9758	140.7587	65535	64895.05
794.1175	143.0052	65535	64888.35
794.2591	145.2512	65535	64893.1
794.4008	147.4967	65535	64888.6
794.5425	149.7417	65535	64887.95
794.6842	151.9863	65535	64885.55
794.826	154.2304	65535	64880.15
794.9677	156.4739	65535	64877.65
795.1095	158.717	65535	64875.5
795.2513	160.9596	65535	64870.85
795.3931	163.2017	65535	64869.3
795.535	165.4433	65535	64868.4
795.6768	167.6844	65535	64864.8
795.8187	169.925	65535	64865.6
795.9606	172.1651	65535	64860.1
796.1025	174.4047	65535	64854.9
796.2445	176.6439	65535	64855.05
796.3864	178.8825	65535	64850.7
796.5284	181.1206	65535	64845.05
796.6704	183.3582	65535	64844
796.8124	185.5954	65535	64842
796.9544	187.832	65535	64836.75
797.0965	190.0681	65535	64838.4
797.2386	192.3037	65535	64833.05
797.3806	194.5388	65535	64833.05
797.5228	196.7734	65535	64827.45
797.6649	199.0075	65535	64824.95
797.807	201.2411	65535	64818.8
797.9492	203.4742	65535	64824.6
798.0914	205.7068	65535	64819.35
798.2336	207.9389	65535	64817.95
798.3758	210.1704	65535	64815.85
798.518	212.4015	65535	64813.45
798.6603	214.632	65535	64818.85
798.8025	216.862	65535	64824.35
798.9448	219.0915	65535	64831.45
799.0871	221.3205	65535	64833.7
799.2294	223.549	65535	64834.7
799.3718	225.777	65535	64834.75
799.5141	228.0044	65535	64830.35
799.6565	230.2314	65535	64832.85
799.7989	232.4578	65535	64833.75
799.9413	234.6837	65535	64822.8
800.0837	236.909	65535	64822.35
800.2262	239.1339	65535	64800.6
800.3687	241.3582	65535	64813.75
800.5111	243.582	65535	64782.4
800.6536	245.8053	65535	64795.25
800.7961	248.0281	65535	64800.1
800.9387	250.2503	65535	64795.75
801.0812	252.472	65535	64791.4
801.2238	254.6932	65535	64787.25
801.3664	256.9139	65535	64789.8
801.509	259.134	65535	64785.5
801.6516	261.3536	65535	64789.85
801.7942	263.5727	65535	64781.55
801.9369	265.7912	65535	64785.05
802.0795	268.0092	65535	64786.7
802.2222	270.2267	65535	64783.2
802.3649	272.4436	65535	64785.1
802.5076	274.6601	65535	64773.7
802.6504	276.8759	65535	64780.15
802.7931	279.0913	65535	64776.6
802.9359	281.3061	65535	64776.55
803.0787	283.5204	65535	64773.5
803.2215	285.7341	65535	64769.5
803.3643	287.9473	65535	64755.4
803.5071	290.16	65535	64759.5
803.6499	292.3721	65535	64769.5
803.7928	294.5837	65535	64769.1
803.9357	296.7947	65535	64768
804.0786	299.0052	65535	64769.6
804.2215	301.2152	65535	64763.65
804.3644	303.4246	65535	64769
804.5074	305.6334	65535	64767.45
804.6503	307.8418	65535	64763.3
804.7933	310.0495	65535	64763.05
804.9363	312.2568	65535	64763.55
805.0793	314.4635	65535	64760.9
805.2223	316.6696	65535	64760.3
805.3653	318.8752	65535	64753.05
805.5084	321.0802	65535	64758.95
805.6514	323.2847	65535	64756.55
805.7945	325.4887	65535	64755.2
805.9376	327.692	65535	64754.75
806.0807	329.8949	65535	64755.95
806.2238	332.0972	65535	64753.8
806.367	334.2989	65535	64747.45
806.5101	336.5001	65535	64750
806.6533	338.7007	65535	64749.7
806.7965	340.9008	65535	64746.2
806.9397	343.1003	65535	64746.5
807.0829	345.2992	65535	64745.45
807.2261	347.4976	65535	64742.7
807.3693	349.6955	65535	64740.15
807.5126	351.8927	65535	64738.2
807.6559	354.0895	65535	64728.15
807.7991	356.2856	65535	64734.35
807.9424	358.4812	65535	64738.05
808.0857	360.6763	65535	64736.7
808.2291	362.8707	65535	64733
808.3724	365.0646	65535	64732.45
808.5158	367.258	65535	64730.5
808.6591	369.4508	65535	64727.3
808.8025	371.643	65535	64727.65
808.9459	373.8346	65535	64728.05
809.0893	376.0257	65535	64724
809.2327	378.2162	65535	64720
809.3762	380.4062	65535	64716.9
809.5196	382.5956	65535	64714.1
809.6631	384.7844	65535	64716.1
809.8066	386.9726	65535	64715.9
809.9501	389.1603	65535	64720
810.0936	391.3474	65535	64690.05
810.2371	393.5339	65535	64721.3
810.3806	395.7199	65535	64723.95
810.5241	397.9052	65535	64727.35
810.6677	400.09	65535	64730.45
810.8113	402.2743	65535	64727.9
810.9548	404.4579	65535	64727
811.0984	406.641	65535	64727.8
811.2421	408.8235	65535	64724.05
811.3857	411.0054	65535	64724.2
811.5293	413.1868	65535	64720.65
811.673	415.3675	65535	64719.95
811.8166	417.5477	65535	64720.85
811.9603	419.7273	65535	64714.95
812.104	421.9064	65535	64704.4
812.2477	424.0848	65535	64711.85
812.3914	426.2627	65535	64707.75
812.5351	428.4399	65535	64708.05
812.6788	430.6166	65535	64705.5
812.8226	432.7928	65535	64700.4
812.9663	434.9683	65535	64705.75
813.1101	437.1432	65535	64702.05
813.2539	439.3176	65535	64703.2
813.3977	441.4914	65535	64703.85
813.5415	443.6645	65535	64702.3
813.6853	445.8371	65535	64700.95
813.8291	448.0091	65535	64704.15
813.973	450.1806	65535	64700.1
814.1168	452.3514	65535	64698.65
814.2607	454.5216	65535	64692.55
814.4046	456.6913	65535	64697.5
814.5485	458.8603	65535	64701.05
814.6924	461.0288	65535	64699.9
814.8363	463.1967	65535	64698.9
814.9802	465.3639	65535	64698.1
815.1241	467.5306	65535	64695.55
815.2681	469.6967	65535	64696.7
815.412	471.8622	65535	64695.15
815.556	474.0271	65535	64699.45
815.7	476.1914	65535	64690.9
815.844	478.3551	65535	64694.3
815.988	480.5182	65535	64695.25
816.132	482.6807	65535	64692.8
816.276	484.8426	65535	64694.15
816.4201	487.0039	65535	64698.65
816.5641	489.1647	65535	64691.8
816.7082	491.3248	65535	64692.75
816.8522	493.4843	65535	64690.8
816.9963	495.6432	65535	64694.8
817.1404	497.8015	65535	64686.5
817.2845	499.9592	65535	64691.05
817.4286	502.1163	65535	64689
817.5727	504.2728	65535	64687.25
817.7168	506.4287	65535	64688.55
817.861	508.5839	65535	64689.45
818.0051	510.7386	65535	64688.4
818.1493	512.8927	65535	64683.5
818.2935	515.0461	65535	64686.8
818.4377	517.199	65535	64684.55
818.5818	519.3512	65535	64686.15
818.726	521.5029	65535	64680.15
818.8703	523.6539	65535	64686.35
819.0145	525.8043	65535	64686
819.1587	527.9541	65535	64678.8
819.303	530.1033	65535	64682.3
819.4472	532.2519	65535	64680.4
819.5915	534.3999	65535	64679.4
819.7357	536.5472	65535	64677.35
819.88	538.694	65535	64679.9
820.0243	540.8401	65535	64677.7
820.1686	542.9856	65535	64678.35
820.3129	545.1305	65535	64674.35
820.4572	547.2748	65535	64675.35
820.6016	549.4185	65535	64673.55
820.7459	551.5615	65535	64676.2
820.8902	553.704	65535	64676.55
821.0346	555.8458	65535	64675.15
821.1789	557.987	65535	64677.3
821.3233	560.1276	65535	64675.95
821.4677	562.2675	65535	64677.6
821.6121	564.4069	65535	64676.9
821.7565	566.5456	65535	64678.2
821.9009	568.6837	65535	64677.5
822.0453	570.8212	65535	64679.65
822.1897	572.958	65535	64676.15
822.3342	575.0942	65535	64677.65
822.4786	577.2299	65535	64678.65
822.6231	579.3648	65535	64677.9
822.7675	581.4992	65535	64678.25
822.912	583.6329	65535	64680.5
823.0565	585.766	65535	64679.1
823.201	587.8985	65535	64674.2
823.3454	590.0304	65535	64662.35
823.4899	592.1616	65535	64670.25
823.6345	594.2922	65535	64671.6
823.779	596.4222	65535	64669.2
823.9235	598.5515	65535	64671.1
824.068	600.6802	65535	64669.2
824.2126	602.8083	65535	64670.6
824.3571	604.9358	65535	64668.6
824.5017	607.0626	65535	64671.9
824.6462	609.1888	65535	64667.05
824.7908	611.3144	65535	64670.4
824.9354	613.4393	65535	64669.65
825.08	615.5636	65535	64667.8
825.2246	617.6873	65535	64671.5
825.3692	619.8103	65535	64665
825.5138	621.9327	65535	64665.9
825.6584	624.0544	65535	64666.95
825.803	626.1756	65535	64668.65
825.9477	628.2961	65535	64665.05
826.0923	630.4159	65535	64665.75
826.237	632.5351	65535	64663.6
826.3816	634.6537	65535	64667.1
826.5263	636.7716	65535	64663.9
826.6709	638.8889	65535	64664.35
826.8156	641.0056	65535	64663.25
826.9603	643.1216	65535	64662
827.105	645.237	65535	64661.5
827.2497	647.3518	65535	64662
827.3944	649.4659	65535	64665.2
827.5391	651.5793	65535	64661.7
827.6838	653.6922	65535	64664.75
827.8285	655.8043	65535	64664.6
827.9733	657.9159	65535	64659.65
828.118	660.0268	65535	64659.8
828.2627	662.137	65535	64660.35
828.4075	664.2466	65535	64656.85
828.5522	666.3556	65535	64660.85
828.697	668.4639	65535	64658.4
828.8418	670.5716	65535	64661.15
828.9865	672.6786	65535	64658.6
829.1313	674.785	65535	64658.6
829.2761	676.8907	65535	64657.75
829.4209	678.9958	65535	64660.55
829.5657	681.1002	65535	64660.6
829.7105	683.204	65535	64650.75
829.8553	685.3072	65535	64655.9
830.0001	687.4097	65535	64657.5
830.1449	689.5115	65535	64656.55
830.2898	691.6127	65535	64658.2
830.4346	693.7132	65535	64657.55
830.5794	695.8131	65535	64644.4
830.7243	697.9123	65535	64656.8
830.8691	700.0109	65535	64651.4
831.014	702.1089	65535	64658.2
831.1588	704.2061	65535	64656.3
831.3037	706.3028	65535	64653.85
831.4486	708.3987	65535	64655.9
831.5935	710.4941	65535	64655.85
831.7383	712.5887	65535	64654.95
831.8832	714.6827	65535	64654.1
832.0281	716.7761	65535	64655.6
832.173	718.8688	65535	64653.9
832.3179	720.9608	65535	64646.35
832.4628	723.0522	65535	64648.85
832.6077	725.1429	65535	64654.85
832.7527	727.233	65535	64649.9
832.8976	729.3224	65535	64654.15
833.0425	731.4112	65535	64652.65
833.1874	733.4993	65535	64648.25
833.3324	735.5867	65535	64649.4
833.4773	737.6735	65535	64649.55
833.6222	739.7596	65535	64648.65
833.7672	741.845	65535	64650.5
833.9122	743.9298	65535	64648.8
834.0571	746.014	65535	64652.75
834.2021	748.0974	65535	64648.7
834.347	750.1802	65535	64651
834.492	752.2624	65535	64651.85
834.637	754.3439	65535	64647.35
834.782	756.4247	65535	64638.2
834.9269	758.5048	65535	64651.8
835.0719	760.5843	65535	64647.55
835.2169	762.6631	65535	64649.85
835.3619	764.7413	65535	64651.05
835.5069	766.8188	65535	64645.6
835.6519	768.8956	65535	64646.45
835.7969	770.9718	65535	64650.9
835.9419	773.0473	65535	64647.35
836.0869	775.1221	65535	64650.85
836.232	777.1962	65535	64650.95
836.377	779.2697	65535	64647.3
836.522	781.3426	65535	64630.15
836.667	783.4147	65535	64646.95
836.8121	785.4862	65535	64648.2
836.9571	787.557	65535	64646.95
837.1021	789.6271	65535	64645.2
837.2472	791.6966	65535	64647.7
837.3922	793.7654	65535	64649.95
837.5373	795.8335	65535	64648.25
837.6823	797.901	65535	64648.2
837.8274	799.9678	65535	64645.15
837.9724	802.0339	65535	64647.8
838.1175	804.0993	65535	64638.3
838.2626	806.1641	65535	64649.15
838.4076	808.2282	65535	64644.85
838.5527	810.2916	65535	64644.15
838.6978	812.3544	65535	64647.85
838.8428	814.4164	65535	64646.3
838.9879	816.4778	65535	64643.45
839.133	818.5385	65535	64647
839.2781	820.5986	65535	64644.6
839.4232	822.658	65535	64646.3
839.5682	824.7166	65535	64645.9
839.7133	826.7747	65535	64647.85
839.8584	828.832	65535	64645.55
840.0035	830.8886	65535	64641.8
840.1486	832.9446	65535	64642.5
840.2937	834.9999	65535	64647.05
840.4388	837.0545	65535	64643
840.5839	839.1085	65535	64644.9
840.729	841.1618	65535	64639.5
840.8741	843.2143	65535	64645.65
841.0192	845.2662	65535	64645.25
841.1643	847.3175	65535	64647.3
841.3095	849.368	65535	64643.25
841.4546	851.4179	65535	64643.7
841.5997	853.467	65535	64641.05
841.7448	855.5155	65535	64643.55
841.8899	857.5633	65535	64644.75
842.0351	859.6105	65535	64644.25
842.1802	861.6569	65535	64643.8
842.3253	863.7027	65535	64642.25
842.4704	865.7478	65535	64643.75
842.6156	867.7922	65535	64642.65
842.7607	869.8359	65535	64645.45
842.9058	871.8789	65535	64644.3
843.0509	873.9212	65535	64610.8
843.1961	875.9629	65535	64641.95
843.3412	878.0039	65535	64644.55
843.4863	880.0441	65535	64640.7
843.6315	882.0837	65535	64638.5
843.7766	884.1226	65535	64641.6
843.9218	886.1609	65535	64642.25
844.0669	888.1984	65535	64644.2
844.212	890.2352	65535	64643.65
844.3572	892.2714	65535	64638.2
844.5023	894.3069	65535	64644.05
844.6475	896.3416	65535	64639.75
844.7926	898.3757	65535	64640
844.9377	900.4091	65535	64638.7
845.0829	902.4418	65535	64635.65
845.228	904.4739	65535	64637.6
845.3732	906.5052	65535	64641.2
845.5183	908.5358	65535	64642.55
845.6635	910.5658	65535	64637.85
845.8086	912.595	65535	64642.7
845.9538	914.6236	65535	64641.3
846.0989	916.6515	65535	64641.65
846.2441	918.6786	65535	64638.65
846.3892	920.7051	65535	64640.4
846.5344	922.7309	65535	64640.95
846.6795	924.756	65535	64641.65
846.8246	926.7804	65535	64638.45
846.9698	928.8041	65535	64639.4
847.1149	930.8272	65535	64640.65
847.2601	932.8495	65535	64636.15
847.4052	934.8711	65535	64636.95
847.5504	936.892	65535	64639
847.6955	938.9123	65535	64638.85
847.8407	940.9318	65535	64640.7
847.9858	942.9506	65535	64638.4
848.131	944.9688	65535	64639.35
848.2761	946.9862	65535	64640.6
848.4213	949.003	65535	64641.1
848.5664	951.019	65535	64642
848.7115	953.0344	65535	64637.75
848.8567	955.0491	65535	64639.55
849.0018	957.063	65535	64637.6
849.147	959.0763	65535	64639.45
849.2921	961.0888	65535	64635.65
849.4373	963.1007	65535	64641.5
849.5824	965.1119	65535	64638.5
849.7275	967.1223	65535	64641.35
849.8727	969.1321	65535	64641.55
850.0178	971.1412	65535	64640.35
850.1629	973.1495	65535	64640.55
850.3081	975.1572	65535	64606.4
850.4532	977.1641	65535	64637.7
850.5983	979.1704	65535	64638.6
850.7435	981.1759	65535	64639.1
850.8886	983.1808	65535	64638.45
851.0337	985.1849	65535	64628.45
851.1788	987.1884	65535	64635.4
851.324	989.1911	65535	64638
851.4691	991.1932	65535	64636.3
851.6142	993.1945	65535	64640.45
851.7593	995.1951	65535	64638.1
851.9045	997.1951	65535	64634.15
852.0496	999.1943	65535	64637.95
852.1947	1001.1928	65535	64636.55
852.3398	1003.1906	65535	64638.5
852.4849	1005.1877	65535	64637.45
852.63	1007.1841	65535	64637.65
852.7751	1009.1798	65535	64636.95
852.9202	1011.1748	65535	64638.9
853.0653	1013.1691	65535	64636.7
853.2104	1015.1627	65535	64637.55
853.3555	1017.1556	65535	64637.55
853.5006	1019.1477	65535	64636.45
853.6457	1021.1392	65535	64640
853.7908	1023.1299	65535	64639.6
853.9359	1025.12	65535	64637.1
854.081	1027.1093	65535	64643.3
854.2261	1029.0979	65535	64641.15
854.3712	1031.0859	65535	64639.9
854.5163	1033.0731	65535	64638.35
854.6613	1035.0596	65535	64635.7
854.8064	1037.0454	65535	64638.35
854.9515	1039.0304	65535	64637.85
855.0965	1041.0148	65535	64639.1
855.2416	1042.9985	65535	64634.75
855.3867	1044.9814	65535	64638.2
855.5317	1046.9636	65535	64635.8
855.6768	1048.9452	65535	64640.8
855.8219	1050.926	65535	64638.5
855.9669	1052.9061	65535	64640.5
856.112	1054.8855	65535	64639.5
856.257	1056.8642	65535	64640.65
856.4021	1058.8421	65535	64633.25
856.5471	1060.8194	65535	64636.65
856.6921	1062.7959	65535	64638.05
856.8372	1064.7717	65535	64637.9
856.9822	1066.7469	65535	64636.85
857.1272	1068.7213	65535	64636.5
857.2723	1070.695	65535	64637.75
857.4173	1072.6679	65535	64637.5
857.5623	1074.6402	65535	64639.55
857.7073	1076.6117	65535	64631.85
857.8523	1078.5826	65535	64636.55
857.9973	1080.5527	65535	64633.5
858.1423	1082.5221	65535	64636.35
858.2873	1084.4908	65535	64637.25
858.4323	1086.4587	65535	64637.15
858.5773	1088.426	65535	64638.05
858.7223	1090.3925	65535	64630.2
858.8673	1092.3584	65535	64636.5
859.0123	1094.3235	65535	64638.95
859.1573	1096.2879	65535	64636.75
859.3022	1098.2515	65535	64638.5
859.4472	1100.2145	65535	64636.3
859.5922	1102.1767	65535	64635.7
859.7371	1104.1382	65535	64637.9
859.8821	1106.099	65535	64634.45
860.027	1108.0591	65535	64636.5
860.172	1110.0185	65535	64636.3
860.3169	1111.9771	65535	64637.05
860.4619	1113.9351	65535	64635.4
860.6068	1115.8923	65535	64637.9
860.7517	1117.8488	65535	64633.7
860.8967	1119.8045	65535	64638.3
861.0416	1121.7596	65535	64635
861.1865	1123.7139	65535	64640.45
861.3314	1125.6675	65535	64636.65
861.4763	1127.6204	65535	64635.7
861.6212	1129.5726	65535	64633.45
861.7661	1131.524	65535	64636.9
861.911	1133.4748	65535	64639.3
862.0559	1135.4248	65535	64636.25
862.2008	1137.3741	65535	64639.25
862.3457	1139.3226	65535	64635.15
862.4905	1141.2705	65535	64637.8
862.6354	1143.2176	65535	64629.5
862.7803	1145.164	65535	64635
862.9251	1147.1097	65535	64634.35
863.07	1149.0546	65535	64637.25
863.2148	1150.9989	65535	64638.1
863.3597	1152.9424	65535	64639.25
863.5045	1154.8852	65535	64635.85
863.6493	1156.8272	65535	64637.45
863.7942	1158.7686	65535	64630.4
863.939	1160.7092	65535	64636
864.0838	1162.6491	65535	64635.25
864.2286	1164.5883	65535	64638.8
864.3734	1166.5267	65535	64635
864.5182	1168.4644	65535	64636.65
864.663	1170.4014	65535	64634.5
864.8078	1172.3377	65535	64638.55
864.9526	1174.2732	65535	64636.05
865.0974	1176.2081	65535	64638.4
865.2421	1178.1421	65535	64632.75
865.3869	1180.0755	65535	64637.4
865.5317	1182.0082	65535	64636.6
865.6764	1183.9401	65535	64635.6
865.8212	1185.8713	65535	64638.9
865.9659	1187.8017	65535	64638.4
866.1106	1189.7315	65535	64637.7
866.2554	1191.6605	65535	64611.2
866.4001	1193.5888	65535	64636.7
866.5448	1195.5163	65535	64639.45
866.6895	1197.4432	65535	64634.3
866.8342	1199.3693	65535	64637.1
866.9789	1201.2947	65535	64635.55
867.1236	1203.2193	65535	64638.05
867.2683	1205.1432	65535	64634.15
867.413	1207.0664	65535	64637.15
867.5576	1208.9889	65535	64634.4
867.7023	1210.9106	65535	64635.6
867.847	1212.8316	65535	64637.9
867.9916	1214.7519	65535	64630.4
868.1363	1216.6715	65535	64638.35
868.2809	1218.5903	65535	64636.75
868.4255	1220.5084	65535	64635.95
868.5701	1222.4257	65535	64635.4
868.7148	1224.3424	65535	64635.9
868.8594	1226.2583	65535	64634.9
869.004	1228.1735	65535	64635.05
869.1486	1230.0879	65535	64635.35
869.2932	1232.0016	65535	64637.1
869.4377	1233.9146	65535	64635.95
869.5823	1235.8269	65535	64636.25
869.7269	1237.7384	65535	64637.2
869.8715	1239.6492	65535	64636.55
870.016	1241.5592	65535	64636.55
870.1606	1243.4686	65535	64636.55
870.3051	1245.3772	65535	64636.65
870.4496	1247.285	65535	64636.5
870.5941	1249.1922	65535	64637.9
870.7387	1251.0986	65535	64637.9
870.8832	1253.0042	65535	64637.55
871.0277	1254.9092	65535	64636.7
871.1722	1256.8134	65535	64637.35
871.3167	1258.7169	65535	64634.5
871.4611	1260.6196	65535	64636.45
871.6056	1262.5216	65535	64635.75
871.7501	1264.4229	65535	64638.2
871.8945	1266.3234	65535	64636
872.039	1268.2232	65535	64635.45
872.1834	1270.1223	65535	64633.9
872.3278	1272.0207	65535	64637.15
872.4723	1273.9183	65535	64630.35
872.6167	1275.8151	65535	64636.55
872.7611	1277.7113	65535	64637.15
872.9055	1279.6067	65535	64636.75
873.0499	1281.5014	65535	64633.65
873.1943	1283.3953	65535	64635.5
873.3386	1285.2885	65535	64636.6
873.483	1287.181	65535	64638.1
873.6274	1289.0727	65535	64636.9
873.7717	1290.9637	65535	64635.95
873.9161	1292.854	65535	64637.7
874.0604	1294.7435	65535	64634.25
874.2047	1296.6323	65535	64635.95
874.349	1298.5204	65535	64629.85
874.4933	1300.4077	65535	64637.95
874.6376	1302.2943	65535	64638.05
874.7819	1304.1802	65535	64636
874.9262	1306.0653	65535	64634.9
875.0705	1307.9497	65535	64636.35
875.2147	1309.8333	65535	64636.4
875.359	1311.7162	65535	64638.55
875.5032	1313.5984	65535	64633.8
875.6475	1315.4798	65535	64623.3
875.7917	1317.3605	65535	64618.75
875.9359	1319.2405	65535	64635
876.0801	1321.1197	65535	64635.25
876.2243	1322.9982	65535	64632.95
876.3685	1324.876	65535	64635.6
876.5127	1326.753	65535	64634.15
876.6569	1328.6293	65535	64636.35
876.801	1330.5048	65535	64634.65
876.9452	1332.3796	65535	64636.75
877.0893	1334.2537	65535	64615.2
877.2335	1336.127	65535	64636.4
877.3776	1337.9996	65535	64637.05
877.5217	1339.8714	65535	64637
877.6658	1341.7426	65535	64591.25
877.8099	1343.6129	65535	64635.35
877.954	1345.4826	65535	64635.25
878.0981	1347.3515	65535	64634.95
878.2422	1349.2196	65535	64636.3
878.3862	1351.087	65535	64638.1
878.5303	1352.9537	65535	64636.8
878.6743	1354.8197	65535	64635.5
878.8184	1356.6849	65535	64636.5
878.9624	1358.5493	65535	64636.05
879.1064	1360.4131	65535	64635.65
879.2504	1362.276	65535	64638.45
879.3944	1364.1383	65535	64639.35
879.5384	1365.9998	65535	64630.25
879.6823	1367.8606	65535	64636.45
879.8263	1369.7206	65535	64634.9
879.9702	1371.5799	65535	64632.95
880.1142	1373.4384	65535	64636
880.2581	1375.2962	65535	64633.15
880.402	1377.1533	65535	64638.65
880.5459	1379.0096	65535	64637.45
880.6898	1380.8652	65535	64637.05
880.8337	1382.7201	65535	64637.55
880.9776	1384.5742	65535	64636.75
881.1215	1386.4275	65535	64634.15
881.2653	1388.2802	65535	64636.45
881.4092	1390.132	65535	64635.4
881.553	1391.9832	65535	64636.65
881.6968	1393.8336	65535	64634.95
881.8406	1395.6832	65535	64633.85
881.9844	1397.5322	65535	64635.15
882.1282	1399.3803	65535	64631.2
882.272	1401.2278	65535	64635.35
882.4158	1403.0745	65535	64636.25
882.5595	1404.9204	65535	64638.2
882.7033	1406.7656	65535	64635.8
882.847	1408.6101	65535	64635.15
882.9908	1410.4538	65535	64635.6
883.1345	1412.2968	65535	64635.1
883.2782	1414.139	65535	64636.4
883.4219	1415.9805	65535	64640
883.5656	1417.8213	65535	64631.9
883.7092	1419.6613	65535	64635.55
883.8529	1421.5006	65535	64635.9
883.9965	1423.3391	65535	64635.15
884.1402	1425.1769	65535	64634.25
884.2838	1427.0139	65535	64634.15
884.4274	1428.8502	65535	64636.45
884.571	1430.6858	65535	64636.2
884.7146	1432.5206	65535	64637.2
884.8582	1434.3547	65535	64638
885.0018	1436.188	65535	64636.55
885.1453	1438.0206	65535	64634.9
885.2889	1439.8524	65535	64636.1
885.4324	1441.6835	65535	64636.4
885.5759	1443.5139	65535	64634.25
885.7194	1445.3435	65535	64634.7
885.8629	1447.1724	65535	64637.3
886.0064	1449.0005	65535	64637.4
886.1499	1450.8279	65535	64633.65
886.2933	1452.6545	65535	64637.45
886.4368	1454.4804	65535	64636.35
886.5802	1456.3056	65535	64629.45
886.7237	1458.13	65535	64638.35
886.8671	1459.9536	65535	64636
887.0105	1461.7766	65535	64636.6
887.1539	1463.5987	65535	64636.4
887.2972	1465.4202	65535	64636.15
887.4406	1467.2409	65535	64637.3
887.584	1469.0608	65535	64638.2
887.7273	1470.88	65535	64636.05
887.8706	1472.6984	65535	64635.8
888.0139	1474.5161	65535	64633.95
888.1572	1476.3331	65535	64635.8
888.3005	1478.1493	65535	64634.6
888.4438	1479.9648	65535	64636.9
888.5871	1481.7795	65535	64636.4
888.7303	1483.5935	65535	64637.9
888.8736	1485.4067	65535	64636.05
889.0168	1487.2192	65535	64636.1
889.16	1489.031	65535	64636.85
889.3032	1490.842	65535	64637.15
889.4464	1492.6522	65535	64634.3
889.5896	1494.4618	65535	64634.85
889.7327	1496.2705	65535	64638.3
889.8759	1498.0785	65520.55	64623.7
890.019	1499.8858	65535	64639.4
890.1622	1501.6924	65535	64639.35
890.3053	1503.4981	65528.6	64631.05
890.4484	1505.3032	65535	64634.15
890.5914	1507.1075	65522.6	64624.75
890.7345	1508.911	65523.7	64626.05
890.8776	1510.7138	65520.05	64621.45
891.0206	1512.5159	65526.55	64628.45
891.1637	1514.3172	65463.05	64565.9
891.3067	1516.1178	65486.05	64590.8
891.4497	1517.9176	65518.6	64618.85
891.5927	1519.7166	65478.5	64581.15
891.7357	1521.515	65463.75	64558.5
891.8786	1523.3126	65415.55	64517.25
892.0216	1525.1094	65467	64566
892.1645	1526.9055	65445.4	64548.85
892.3074	1528.7008	65440.55	64544.1
892.4503	1530.4954	65353.45	64450.5
892.5932	1532.2893	65441.8	64544.7
892.7361	1534.0824	65325.95	64427.1
892.879	1535.8747	65198.8	64302.4
893.0218	1537.6663	65428.15	64530.65
893.1647	1539.4572	64783.65	63884.85
893.3075	1541.2473	65167.75	64268.75
893.4503	1543.0367	65090.35	64193.65
893.5931	1544.8253	64961.5	64061.5
893.7359	1546.6132	65092.2	64193.6
893.8787	1548.4003	64795.05	63887.7
894.0214	1550.1867	64677.15	63770.95
894.1642	1551.9723	64496.2	63592.75
894.3069	1553.7572	64550.55	63654
894.4496	1555.5414	64860.9	63964.2
894.5923	1557.3247	63095.85	62198
894.735	1559.1074	64573.35	63679.25
894.8777	1560.8893	63880.25	62983.3
895.0204	1562.6705	64230.75	63334.1
895.163	1564.4509	63138.5	62243.25
895.3056	1566.2305	63596.15	62699.6
895.4482	1568.0094	64216.25	63323.55
895.5908	1569.7876	63701	62804.25
895.7334	1571.565	63038.35	62142.25
895.876	1573.3417	63435.45	62539.95
896.0186	1575.1176	63281.05	62384.65
896.1611	1576.8928	62949	62053.3
896.3036	1578.6672	62198	61301.75
896.4461	1580.4409	62525.9	61630.85
896.5886	1582.2138	61648.25	60752.5
896.7311	1583.986	61841.1	60944.65
896.8736	1585.7575	61131.15	60235.65
897.0161	1587.5282	61162.55	60268.6
897.1585	1589.2981	61250.8	60356.65
897.3009	1591.0673	60518.9	59625.8
897.4433	1592.8358	60148.45	59254.8
897.5857	1594.6035	60558.95	59661.3
897.7281	1596.3704	60641.85	59745.65
897.8705	1598.1366	59690.7	58795.75
898.0128	1599.9021	59229.25	58335.05
898.1551	1601.6668	59836.5	58940.25
898.2975	1603.4308	59433.5	58537.85
898.4398	1605.194	59714.35	58814.95
898.5821	1606.9564	58627.45	57732.45
898.7243	1608.7182	59229.25	58333
898.8666	1610.4791	58626.75	57734.5
899.0088	1612.2394	59066.1	58173.7
899.1511	1613.9988	58612.9	57715.75
899.2933	1615.7576	59182.55	58288.6
899.4355	1617.5156	59162.9	58260.4
899.5776	1619.2728	59880.3	58985.9
899.7198	1621.0293	58811.55	57915.9
899.862	1622.785	58859.1	57961.6
900.0041	1624.54	59174.2	58275.9
900.1462	1626.2942	58636.95	57740.65
900.2883	1628.0477	57514.05	56617.1
900.4304	1629.8005	57036.35	56137.35
900.5725	1631.5525	57364.9	56470.5
900.7145	1633.3037	56421.2	55527.8
900.8566	1635.0542	56371.75	55479.05
900.9986	1636.804	56345.15	55451.1
901.1406	1638.553	55756.3	54746.85
901.2826	1640.3013	55752.75	54858.5
901.4245	1642.0488	55289.05	54393
901.5665	1643.7955	55489.75	54596.25
901.7085	1645.5416	55137.3	54242.75
901.8504	1647.2868	54875.7	53981.5
901.9923	1649.0313	55274.75	54380.55
902.1342	1650.7751	55008.25	54110.4
902.2761	1652.5181	54790.25	53898.2
902.4179	1654.2604	54812.55	53918.1
902.5598	1656.0019	55322.95	54429.1
902.7016	1657.7427	55182.35	54288.8
902.8434	1659.4828	55566.3	54673.1
902.9852	1661.222	55420.25	54523.1
903.127	1662.9606	55490.05	54597.1
903.2687	1664.6984	55042.25	54148.6
903.4105	1666.4354	54896.8	54001.05
903.5522	1668.1717	53970.1	53075.6
903.6939	1669.9072	53342.05	52447.65
903.8356	1671.642	52928.85	52033.6
903.9773	1673.3761	52590.55	51698.3
904.119	1675.1094	52232.55	51338.1
904.2606	1676.8419	51808.5	50915.65
904.4022	1678.5737	51513.95	50618.05
904.5439	1680.3048	51251.55	50357.9
904.6855	1682.0351	50911.9	50019.8
904.827	1683.7646	50659.25	49761.95
904.9686	1685.4934	50597.85	49706.25
905.1101	1687.2215	50047.4	49155.6
905.2517	1688.9488	50090.75	49197.65
905.3932	1690.6754	49455.45	48562.25
905.5347	1692.4012	49527.8	48633.3
905.6761	1694.1263	49388.9	48495.15
905.8176	1695.8506	49124.1	48227.95
905.9591	1697.5742	48980.2	48088.15
906.1005	1699.297	48747.85	47855.95
906.2419	1701.0191	48437.4	47542.6
906.3833	1702.7404	48270.55	47377.3
906.5246	1704.461	47974.9	47079.15
906.666	1706.1808	47835.25	46939.3
906.8073	1707.8999	47686.65	46791.45
906.9487	1709.6182	47506.7	46614.1
907.09	1711.3358	47397.8	46507.1
907.2313	1713.0527	47214.75	46324.5
907.3725	1714.7688	47027.7	46127.4
907.5138	1716.4841	46788.1	45893.4
907.655	1718.1987	46702.4	45804.8
907.7962	1719.9126	46487.7	45596.75
907.9374	1721.6257	46343.2	45447.55
908.0786	1723.338	46272.25	45377.4
908.2198	1725.0496	45957.8	45063.9
908.3609	1726.7605	45843.55	44947.8
908.502	1728.4706	45644	44749.7
908.6431	1730.18	45415.1	44519.4
908.7842	1731.8886	45257.05	44363.85
908.9253	1733.5964	45212.8	44300.3
909.0664	1735.3036	45038.7	44143.65
909.2074	1737.0099	44942.65	44047.3
909.3484	1738.7156	44798.25	43904.35
909.4894	1740.4204	44487.05	43590.65
909.6304	1742.1246	44474.05	43580
909.7714	1743.8279	44294.6	43402.9
909.9123	1745.5306	44265	43370.25
910.0532	1747.2325	44066.95	43175.4
910.1941	1748.9336	43894.95	43002.95
910.335	1750.634	43668.45	42773.7
910.4759	1752.3336	43671.85	42779.3
910.6168	1754.0325	43542.95	42651.3
910.7576	1755.7307	43376.75	42486.35
910.8984	1757.4281	43364.1	42470.45
911.0392	1759.1247	43283.1	42380.65
911.18	1760.8206	43107.9	42211.05
911.3208	1762.5158	43009.45	42113.55
911.4615	1764.2102	42791.85	41901.65
911.6022	1765.9039	42604.55	41712.7
911.7429	1767.5968	42530.4	41639.2
911.8836	1769.289	42329.1	41438.05
912.0243	1770.9804	42251.8	41360.1
912.1649	1772.6711	42178.7	41284.55
912.3056	1774.361	41988	41092
912.4462	1776.0502	41940	41045.5
912.5868	1777.7386	41795.9	40900.55
912.7274	1779.4263	41637.55	40742.35
912.8679	1781.1132	41633.8	40741.8
913.0084	1782.7994	41414.8	40522.15
913.149	1784.4849	41302.1	40409.65
913.2895	1786.1696	41223.8	40324.6
913.4299	1787.8535	41140	40248.15
913.5704	1789.5367	40940.05	40048.55
913.7108	1791.2192	40892.35	39998.95
913.8513	1792.9009	40708.15	39786.55
913.9917	1794.5818	40591	39697.2
914.132	1796.2621	40464.8	39572.25
914.2724	1797.9415	40355.5	39462.85
914.4128	1799.6202	40236.45	39342.6
914.5531	1801.2982	40155.05	39263.75
914.6934	1802.9755	40002.2	39108.3
914.8337	1804.6519	39990.05	39097.55
914.9739	1806.3277	39740.5	38847.05
915.1142	1808.0027	39542.1	38649.85
915.2544	1809.6769	39509.2	38617.1
915.3946	1811.3504	39413.35	38519.1
915.5348	1813.0231	39273.75	38381.55
915.675	1814.6951	39232.3	38339.9
915.8151	1816.3664	39178.95	38284.6
915.9553	1818.0369	39077.25	38182
916.0954	1819.7067	38893.65	38002
916.2355	1821.3757	38781.55	37887.8
916.3755	1823.044	38732.2	37841.15
916.5156	1824.7115	38631.45	37739.4
916.6556	1826.3783	38463.7	37571.4
916.7956	1828.0443	38312.05	37421.7
916.9356	1829.7096	38219.55	37326.35
917.0756	1831.3741	38211.45	37316.7
917.2155	1833.0379	38056.7	37164.7
917.3555	1834.701	37897.65	37002.9
917.4954	1836.3633	37851.85	36959.25
917.6353	1838.0248	37706.75	36810.65
917.7751	1839.6856	37685.65	36793.1
917.915	1841.3457	37572.9	36683.4
918.0548	1843.005	37470.1	36576.75
918.1946	1844.6636	37348.35	36459.45
918.3344	1846.3214	37234.25	36340.2
918.4742	1847.9785	37224.5	36331.4
918.6139	1849.6349	37090.95	36199
918.7537	1851.2904	36971.2	36068.25
918.8934	1852.9453	36839.75	35947.25
919.0331	1854.5994	36736.2	35838.25
919.1727	1856.2528	36725.85	35829.95
919.3124	1857.9054	36544.95	35655.45
919.452	1859.5572	36487.45	35594.95
919.5916	1861.2083	36385.7	35492.2
919.7312	1862.8587	36368.2	35476.05
919.8708	1864.5084	36234.8	35342.6
920.0103	1866.1572	36139.15	35248.1
920.1498	1867.8054	35958.65	35067
920.2893	1869.4528	35873.7	34983.75
920.4288	1871.0994	35800.15	34906.05
920.5683	1872.7453	35716.7	34823.45
920.7077	1874.3905	35575.5	34675.95
920.8471	1876.0349	35488.7	34594.6
920.9865	1877.6786	35442.65	34549.8
921.1259	1879.3215	35389.8	34495.85
921.2653	1880.9637	35287.85	34394.3
921.4046	1882.6051	35172.8	34282.1
921.5439	1884.2458	35099.6	34204.1
921.6832	1885.8858	34935.05	34041.85
921.8225	1887.525	34888.85	33996.2
921.9617	1889.1634	34735.15	33841.7
922.101	1890.8011	34537.25	33647.3
922.2402	1892.4381	34465.9	33573.45
922.3794	1894.0743	34446.85	33556.35
922.5185	1895.7098	34306.8	33415.85
922.6577	1897.3446	34269.25	33376.2
922.7968	1898.9786	34145.25	33251
922.9359	1900.6118	34065.35	33172.8
923.075	1902.2443	33892.1	32997.25
923.214	1903.8761	33798.1	32906.2
923.3531	1905.5071	33581.3	32685.65
923.4921	1907.1374	33504.25	32612.05
923.6311	1908.7669	33474.9	32580.85
923.77	1910.3957	33403.7	32512.2
923.909	1912.0237	33129	32238.7
924.0479	1913.651	33136.5	32245.1
924.1868	1915.2776	32990.4	32101.2
924.3257	1916.9034	32822.5	31931.1
924.4646	1918.5285	32637.75	31745.85
924.6034	1920.1528	32490.55	31597.5
924.7422	1921.7764	32497	31602.8
924.881	1923.3992	32334.9	31444.15
925.0198	1925.0213	32108.75	31215.6
925.1586	1926.6427	31977.2	31087.35
925.2973	1928.2633	32020.5	31021.55
925.436	1929.8832	31837.55	30943.3
925.5747	1931.5023	31647.55	30756.7
925.7134	1933.1207	31584.7	30692.2
925.852	1934.7383	31503.35	30612.4
925.9906	1936.3552	31310.15	30418.55
926.1292	1937.9714	31266.95	30375.6
926.2678	1939.5868	31127.55	30234
926.4064	1941.2015	30976.45	30084.2
926.5449	1942.8154	30861.55	29969.55
926.6834	1944.4286	30704.35	29812.2
926.8219	1946.041	30554.05	29641.4
926.9604	1947.6528	30377.15	29480.85
927.0988	1949.2637	30367.5	29475.05
927.2372	1950.8739	30185.15	29291.65
927.3756	1952.4834	30149.9	29258.4
927.514	1954.0921	30099.15	29207.55
927.6523	1955.7001	29991.1	29094.5
927.7907	1957.3074	29862.7	28970.7
927.929	1958.9139	29725.5	28835.85
928.0673	1960.5197	29651.25	28759.1
928.2055	1962.1247	29467.15	28575.6
928.3438	1963.729	29351	28460.15
928.482	1965.3325	29203.65	28288.4
928.6202	1966.9353	29113.6	28221
928.7584	1968.5374	29025.05	28132.45
928.8965	1970.1387	28937.4	28046.7
929.0346	1971.7393	28780.45	27889
929.1727	1973.3392	28716.75	27824.95
929.3108	1974.9383	28619.75	27726.3
929.4489	1976.5366	28474.3	27581.6
929.5869	1978.1342	28418.6	27524.75
929.7249	1979.7311	28341.45	27449.05
929.8629	1981.3273	28270.55	27377.95
930.0009	1982.9227	28133.45	27239.15
930.1388	1984.5173	27981.7	27091.6
930.2767	1986.1112	27903.1	27011.7
930.4146	1987.7044	27861.25	26971.2
930.5525	1989.2968	27731.9	26838.35
930.6904	1990.8885	27634.45	26738.45
930.8282	1992.4795	27620.1	26727.3
930.966	1994.0697	27468.45	26576.25
931.1038	1995.6592	27350.75	26462
931.2415	1997.2479	27276.3	26386.6
931.3793	1998.8359	27173.8	26282.5
931.517	2000.4232	27030.95	26141.25
931.6547	2002.0097	26946.65	26057.5
931.7923	2003.5955	26814.45	25923.15
931.93	2005.1805	26773.9	25881.55
932.0676	2006.7648	26709.9	25818.05
932.2052	2008.3484	26626.7	25734.75
932.3427	2009.9312	26607.75	25713.65
932.4803	2011.5133	26520.55	25628.6
932.6178	2013.0946	26435.6	25546
932.7553	2014.6752	26310.45	25420.7
932.8928	2016.2551	26231.65	25340.2
933.0302	2017.8342	26143.95	25252.45
933.1676	2019.4126	26048.8	25159.05
933.305	2020.9902	25897.7	25009
933.4424	2022.5672	25846.4	24952.75
933.5798	2024.1433	25790	24893.45
933.7171	2025.7188	25658.8	24768.9
933.8544	2027.2935	25584.2	24692.55
933.9917	2028.8674	25485.55	24597.05
934.129	2030.4406	25409.3	24519.05
934.2662	2032.0131	25271.35	24382.6
934.4034	2033.5849	25216.8	24321.85
934.5406	2035.1559	25151.6	24259.9
934.6778	2036.7261	25095.45	24204.55
934.8149	2038.2957	25006.35	24115.7
934.952	2039.8645	24960.1	24069.5
935.0891	2041.4325	24908.5	24015.7
935.2262	2042.9998	24778.1	23886.75
935.3632	2044.5664	24722.1	23830.3
935.5002	2046.1323	24640.2	23748.45
935.6372	2047.6974	24561.1	23670.35
935.7742	2049.2617	24482.3	23592.3
935.9111	2050.8254	24484.05	23573.95
936.048	2052.3883	24393.35	23499.05
936.1849	2053.9504	24289.3	23397.7
936.3218	2055.5118	24190.65	23300.6
936.4586	2057.0725	24105.6	23212.6
936.5955	2058.6325	24039.85	23147
936.7323	2060.1917	23968.45	23078.5
936.869	2061.7502	23872.8	22978.8
937.0058	2063.3079	23855.8	22964
937.1425	2064.8649	23731.75	22838.2
937.2792	2066.4212	23661.9	22768.2
937.4159	2067.9767	23601.3	22711.45
937.5525	2069.5315	23487.55	22596.25
937.6891	2071.0856	23335	22442.15
937.8257	2072.6389	23238.25	22345.55
937.9623	2074.1915	23166.35	22273.6
938.0989	2075.7433	22994.65	22102.45
938.2354	2077.2945	22950.95	22061.25
938.3719	2078.8448	22919.5	22028.55
938.5084	2080.3945	22803.5	21916.5
938.6448	2081.9434	22762.65	21872.2
938.7812	2083.4916	22670.05	21779.5
938.9176	2085.039	22600.6	21707.65
939.054	2086.5857	22560.05	21665.25
939.1903	2088.1317	22496.3	21605.4
939.3267	2089.677	22451.25	21558.15
939.463	2091.2215	22389.8	21498
939.5992	2092.7652	22299.55	21406.35
939.7355	2094.3083	22188.95	21296.4
939.8717	2095.8506	22184.85	21297.25
940.0079	2097.3921	22174.05	21283
940.1441	2098.933	22088.75	21196.3
940.2802	2100.4731	21984.95	21093.9
940.4163	2102.0124	21940.45	21042.55
940.5524	2103.5511	21884.9	20993.65
940.6885	2105.089	21832.35	20941.35
940.8245	2106.6261	21745.35	20854.55
940.9606	2108.1626	21676.45	20783.85
941.0965	2109.6983	21665.15	20744.95
941.2325	2111.2332	21546.8	20654.95
941.3684	2112.7675	21498.95	20607.8
941.5044	2114.301	21409.6	20515.35
941.6403	2115.8337	21405.6	20514.15
941.7761	2117.3657	21319.4	20427.6
941.912	2118.897	21287.75	20395.15
942.0478	2120.4276	21193.25	20294.95
942.1835	2121.9575	21105.55	20213.05
942.3193	2123.4866	21070.75	20165.8
942.455	2125.0149	20987.1	20092.7
942.5907	2126.5426	20870.65	19979.9
942.7264	2128.0695	20854.05	19959.7
942.8621	2129.5956	20758.2	19869.45
942.9977	2131.1211	20740.25	19844
943.1333	2132.6458	20660.15	19768.1
943.2689	2134.1698	20596.85	19705.5
943.4044	2135.693	20558.45	19662.8
943.54	2137.2155	20493.25	19598.6
943.6755	2138.7373	20465.6	19571.55
943.8109	2140.2584	20390.4	19497.5
943.9464	2141.7787	20308.35	19410.4
944.0818	2143.2983	20205.2	19314.85
944.2172	2144.8171	20089.8	19197.85
944.3526	2146.3353	20034.5	19142.35
944.4879	2147.8527	19939.4	19047.1
944.6232	2149.3693	19956.6	19065.2
944.7585	2150.8853	19843.75	18951.95
944.8938	2152.4005	19720.8	18828.35
945.029	2153.9149	19707.6	18816.55
945.1642	2155.4287	19660.75	18768.15
945.2994	2156.9417	19611.05	18717.55
945.4346	2158.454	19548.1	18655.35
945.5697	2159.9655	19476.95	18585.7
945.7048	2161.4764	19434.1	18542.9
945.8399	2162.9865	19382	18490.3
945.9749	2164.4958	19339.45	18447.05
946.1099	2166.0045	19265.55	18371
946.2449	2167.5124	19215.6	18323.7
946.3799	2169.0195	19142.4	18251.6
946.5148	2170.526	19143.95	18250.75
946.6498	2172.0317	19056.15	18164.25
946.7846	2173.5367	19005.65	18114.3
946.9195	2175.0409	18915.4	18024.5
947.0543	2176.5445	18929.8	18040.9
947.1891	2178.0473	18857.65	17965.15
947.3239	2179.5494	18737.05	17841.65
947.4587	2181.0507	18663.15	17770.8
947.5934	2182.5513	18605.8	17713.65
947.7281	2184.0512	18554.8	17663.25
947.8628	2185.5504	18487.8	17598.6
947.9974	2187.0488	18389.75	17499.15
948.132	2188.5465	18333.45	17442.65
948.2666	2190.0435	18259.6	17368.45
948.4012	2191.5397	18231.2	17339.4
948.5357	2193.0353	18171.15	17279.75
948.6702	2194.5301	18090.05	17196.15
948.8047	2196.0241	18014.15	17122.75
948.9392	2197.5175	17937.3	17046.1
949.0736	2199.0101	17889.6	16995.45
949.208	2200.502	17751.55	16861.85
949.3424	2201.9931	17698.5	16808.4
949.4767	2203.4835	17665.55	16772.6
949.611	2204.9733	17617.15	16719.95
949.7453	2206.4622	17577.8	16686.5
949.8796	2207.9505	17493.7	16599.6
950.0138	2209.438	17351.5	16463.05
950.148	2210.9248	17298.6	16408.8
950.2822	2212.4109	17281.45	16390.85
950.4164	2213.8962	17193.95	16298.55
950.5505	2215.3809	17188.4	16293.3
950.6846	2216.8648	17122.55	16229.05
950.8186	2218.3479	17065.05	16168.7
950.9527	2219.8304	16954.45	16061
951.0867	2221.3121	16936.15	16040.25
951.2207	2222.7931	16857.2	15966.6
951.3546	2224.2733	16804.75	15910.65
951.4886	2225.7529	16741.55	15849
951.6225	2227.2317	16688.55	15793.45
951.7563	2228.7098	16641.05	15751.3
951.8902	2230.1872	16538.7	15648.6
952.024	2231.6638	16545.55	15653.5
952.1578	2233.1397	16462.55	15565.5
952.2916	2234.6149	16418.85	15525.95
952.4253	2236.0894	16352	15459.5
952.559	2237.5632	16326.7	15425.2
952.6927	2239.0362	16239	15347.35
952.8263	2240.5085	16185.35	15294.9
952.9599	2241.9801	16102.05	15208.85
953.0935	2243.4509	16080.4	15186.8
953.2271	2244.921	16003.05	15110.15
953.3606	2246.3904	15944.75	15048.8
953.4941	2247.8591	15905.7	15014.9
953.6276	2249.3271	15854.35	14963.1
953.7611	2250.7943	15773.6	14882.8
953.8945	2252.2608	15714.55	14823.35
954.0279	2253.7266	15673.05	14781.45
954.1612	2255.1917	15616.05	14722.9
954.2946	2256.656	15560	14666.3
954.4279	2258.1197	15546.05	14652.3
954.5612	2259.5826	15450.7	14558.4
954.6944	2261.0447	15446.55	14553.95
954.8276	2262.5062	15366.4	14473
954.9608	2263.9669	15318.65	14425.2
955.094	2265.4269	15278.95	14385.4
955.2271	2266.8862	15228.4	14337.25
955.3602	2268.3448	15231.25	14338.85
955.4933	2269.8026	15152.5	14260
955.6264	2271.2598	15140.75	14249.4
955.7594	2272.7162	15056.65	14163.1
955.8924	2274.1719	15003.8	14112.85
956.0253	2275.6268	14978.85	14084.95
956.1583	2277.0811	14950.05	14058.15
956.2912	2278.5346	14879.55	13988.75
956.4241	2279.9874	14843	13950.05
956.5569	2281.4395	14811	13921.35
956.6897	2282.8908	14727.35	13831.6
956.8225	2284.3414	14695.8	13801.6
956.9553	2285.7914	14658.95	13765.35
957.088	2287.2406	14613.3	13719.35
957.2207	2288.689	14583.9	13692.65
957.3534	2290.1368	14507	13614.9
957.486	2291.5838	14437.3	13544.2
957.6186	2293.0302	14400.55	13508.85
957.7512	2294.4758	14362.85	13471.5
957.8838	2295.9206	14320.4	13428.95
958.0163	2297.3648	14257.85	13365.55
958.1488	2298.8082	14230.05	13337.3
958.2813	2300.251	14200.65	13310.15
958.4137	2301.693	14118.55	13224.2
958.5461	2303.1343	14137.9	13245.8
958.6785	2304.5748	14054.5	13161.7
958.8108	2306.0147	14012.15	13120.55
958.9432	2307.4538	13981.35	13087.9
959.0754	2308.8922	13912.65	13022.1
959.2077	2310.3299	13877.7	12987.5
959.3399	2311.7669	13818.95	12927.05
959.4721	2313.2031	13766.15	12874.85
959.6043	2314.6387	13720.95	12829.9
959.7365	2316.0735	13676.35	12783.55
959.8686	2317.5076	13648.2	12755.8
960.0006	2318.941	13606	12715.6
960.1327	2320.3737	13552.2	12659.95
960.2647	2321.8056	13525.4	12632.95
960.3967	2323.2369	13460.85	12567.4
960.5287	2324.6674	13444.85	12548.65
960.6606	2326.0972	13378.7	12485.95
960.7925	2327.5263	13319	12427.85
960.9244	2328.9547	13268.65	12373.7
961.0562	2330.3823	13209.45	12317.2
961.1881	2331.8092	13215.95	12319.55
961.3198	2333.2355	13119.15	12228.1
961.4516	2334.661	13143.65	12251.35
961.5833	2336.0858	13080	12186.45
961.715	2337.5098	13036.8	12144.3
961.8467	2338.9332	13019.55	12125.85
961.9783	2340.3558	12970.4	12072.75
962.1099	2341.7778	12903.85	12011.35
962.2415	2343.199	12861.8	11968.85
962.373	2344.6195	12829.8	11938.9
962.5045	2346.0393	12810.55	11918.55
962.636	2347.4583	12789.15	11896.9
962.7675	2348.8767	12709.6	11816
962.8989	2350.2943	12680.5	11788.75
963.0303	2351.7113	12675.1	11782.95
963.1617	2353.1275	12603.1	11711
963.293	2354.543	12576.35	11659.65
963.4243	2355.9578	12516.35	11623.85
963.5556	2357.3718	12452.85	11559.4
963.6868	2358.7852	12376.8	11482.1
963.818	2360.1978	12343.65	11451.75
963.9492	2361.6098	12304.05	11413.9
964.0803	2363.021	12280	11384.75
964.2114	2364.4315	12235.4	11344.45
964.3425	2365.8413	12195.4	11303.65
964.4736	2367.2504	12146.1	11254.5
964.6046	2368.6587	12079.55	11187.7
964.7356	2370.0664	12036.65	11144.4
964.8666	2371.4733	11984.65	11092.45
964.9975	2372.8795	11936.7	11044.8
965.1284	2374.285	11907.25	11015.2
965.2593	2375.6899	11849	10958
965.3901	2377.0939	11808.6	10916.75
965.5209	2378.4973	11743.9	10852.65
965.6517	2379.9	11700.35	10808.9
965.7825	2381.3019	11650.25	10757.95
965.9132	2382.7032	11612	10721
966.0439	2384.1037	11582.05	10692.8
966.1745	2385.5035	11545.15	10656.25
966.3051	2386.9027	11504.9	10614.3
966.4357	2388.3011	11475	10579.75
966.5663	2389.6987	11433.25	10543.4
966.6968	2391.0957	11358.9	10468.2
966.8273	2392.492	11325.65	10435.5
966.9578	2393.8876	11281.1	10390
967.0882	2395.2824	11217.4	10326
967.2186	2396.6765	11163.3	10276.7
967.349	2398.07	11124.35	10234.3
967.4793	2399.4627	11094.35	10202.5
967.6097	2400.8547	11057.6	10165
967.7399	2402.246	11026.3	10128.85
967.8702	2403.6366	10952.85	10062.55
968.0004	2405.0265	10903.05	10013.05
968.1306	2406.4156	10874.7	9977.85
968.2607	2407.8041	10842.5	9947.9
968.3909	2409.1918	10799.15	9905.4
968.521	2410.5789	10742.4	9849.2
968.651	2411.9652	10711.8	9817.9
968.781	2413.3508	10684.9	9792.05
968.911	2414.7358	10632.9	9740.85
969.041	2416.12	10606.35	9715.85
969.1709	2417.5035	10569.25	9678.8
969.3008	2418.8863	10513.05	9621.15
969.4307	2420.2684	10485.5	9593
969.5606	2421.6497	10455.45	9563.45
969.6904	2423.0304	10385.85	9496.75
969.8201	2424.4104	10364.6	9473.45
969.9499	2425.7896	10333	9435.7
970.0796	2427.1682	10294.95	9403.75
970.2093	2428.546	10252.55	9360.6
970.3389	2429.9232	10261.1	9367.05
970.4685	2431.2996	10208.7	9318.2
970.5981	2432.6753	10205.4	9315
970.7277	2434.0503	10152.95	9261.65
970.8572	2435.4246	10100.2	9210.25
970.9867	2436.7982	10059.85	9164.65
971.1161	2438.1711	10042.7	9152.25
971.2456	2439.5433	9996.4	9104.5
971.375	2440.9148	9955.15	9061.9
971.5043	2442.2856	9899.3	9008.75
971.6336	2443.6557	9874.85	8982.25
971.7629	2445.025	9851.4	8959.15
971.8922	2446.3937	9819	8926.6
972.0214	2447.7617	9803.3	8911.45
972.1506	2449.1289	9760.5	8868.85
972.2798	2450.4955	9740.2	8847.8
972.4089	2451.8613	9710.3	8819.5
972.538	2453.2265	9673.9	8786.1
972.6671	2454.5909	9656.7	8764.05
972.7961	2455.9546	9624.1	8735.1
972.9251	2457.3177	9599.7	8709.35
973.0541	2458.68	9565.25	8671.7
973.1831	2460.0416	9545.7	8651.95
973.312	2461.4025	9504.8	8611.45
973.4408	2462.7627	9512.25	8610.35
973.5697	2464.1222	9484.9	8593.95
973.6985	2465.4811	9439	8546.9
973.8273	2466.8392	9402.2	8511.1
973.956	2468.1966	9386.7	8491.1
974.0847	2469.5533	9360.6	8467.35
974.2134	2470.9093	9328.9	8437.55
974.3421	2472.2645	9296.1	8402.8
974.4707	2473.6191	9252.2	8361.05
974.5993	2474.973	9228.65	8337.85
974.7278	2476.3262	9214.75	8320.9
974.8563	2477.6787	9171.1	8281.85
974.9848	2479.0305	9118.9	8229.6
975.1132	2480.3816	9080.2	8187.55
975.2417	2481.7319	9040.25	8150.15
975.37	2483.0816	9008.9	8115.5
975.4984	2484.4306	8962.65	8070.85
975.6267	2485.7789	8955.6	8062.95
975.755	2487.1264	8911.15	8018.9
975.8833	2488.4733	8886.05	7996.65
976.0115	2489.8195	8849.7	7952.3
976.1397	2491.165	8791.85	7898.15
976.2678	2492.5097	8782.25	7887.75
976.3959	2493.8538	8760.7	7869.45
976.524	2495.1972	8717.2	7825.85
976.6521	2496.5398	8655.6	7762.95
976.7801	2497.8818	8642.4	7749.8
976.9081	2499.2231	8594.1	7703.1
977.036	2500.5637	8578.9	7685.2
977.164	2501.9035	8554.3	7663.1
977.2918	2503.2427	8519.1	7623
977.4197	2504.5812	8496.15	7605.2
977.5475	2505.919	8480.1	7586.15
977.6753	2507.256	8444.25	7552.8
977.8031	2508.5924	8406.75	7515.1
977.9308	2509.9281	8391.45	7493.65
978.0585	2511.2631	8367.1	7474.95
978.1861	2512.5974	8343.75	7453.4
978.3137	2513.9309	8290.35	7398.6
978.4413	2515.2638	8287.5	7361.85
978.5689	2516.596	8266.55	7374.75
978.6964	2517.9275	8202.9	7309.65
978.8239	2519.2583	8164.4	7270.55
978.9513	2520.5884	8134.5	7239.7
979.0788	2521.9178	8113.2	7221.75
979.2062	2523.2465	8096.5	7206.15
979.3335	2524.5745	8058.45	7166.65
979.4608	2525.9018	8016.15	7124.2
979.5881	2527.2284	8007.9	7117.45
979.7154	2528.5543	7971.9	7081.8
979.8426	2529.8796	7966.15	7074.65
979.9698	2531.2041	7969.75	7077.45
980.0969	2532.5279	7934.75	7042.95
980.224	2533.851	7909.1	7016.7
980.3511	2535.1735	7874.35	6984.8
980.4781	2536.4952	7853.95	6961.3
980.6052	2537.8163	7835.55	6943.95
980.7321	2539.1366	7809.6	6917.55
980.8591	2540.4562	7781.65	6888.65
980.986	2541.7752	7791.1	6901.95
981.1129	2543.0935	7744.85	6853.85
981.2397	2544.411	7743.05	6850.1
981.3665	2545.7279	7722.2	6830.15
981.4933	2547.0441	7720.45	6829.75
981.62	2548.3596	7701.55	6807.75
981.7467	2549.6744	7658.55	6767.4
981.8734	2550.9885	7654	6759.5
982.0001	2552.3019	7604.65	6713.2
982.1267	2553.6146	7598.75	6707.9
982.2532	2554.9266	7562.95	6671.05
982.3798	2556.2379	7540.65	6648.3
982.5063	2557.5485	7514.85	6625.1
982.6327	2558.8585	7506.55	6605.7
982.7592	2560.1677	7488.55	6592.5
982.8856	2561.4762	7472.9	6582.2
983.0119	2562.7841	7451.9	6556.7
983.1383	2564.0913	7454.6	6564.65
983.2646	2565.3977	7418.25	6526.85
983.3908	2566.7035	7386.3	6494.5
983.517	2568.0086	7388.45	6493.95
983.6432	2569.313	7374.25	6481.2
983.7694	2570.6167	7353.45	6456.05
983.8955	2571.9197	7331.2	6441
984.0216	2573.222	7332.55	6438.2
984.1476	2574.5236	7300.1	6408.6
984.2737	2575.8246	7293.45	6400.4
984.3996	2577.1248	7267.4	6373.25
984.5256	2578.4244	7236.2	6345.1
984.6515	2579.7232	7248.9	6357.7
984.7774	2581.0214	7237.75	6322.1
984.9032	2582.3189	7216.3	6325
985.029	2583.6157	7203.75	6307.55
985.1548	2584.9118	7184.8	6290.8
985.2806	2586.2072	7157.55	6268.65
985.4063	2587.5019	7137.8	6245.6
985.5319	2588.7959	7101.85	6212.2
985.6576	2590.0893	7078.7	6184.2
985.7832	2591.3819	7088.25	6199.1
985.9087	2592.6739	7062.25	6171.95
986.0343	2593.9652	7045.5	6154.45
986.1597	2595.2557	6995.7	6104.55
986.2852	2596.5456	6983.9	6090.85
986.4106	2597.8348	6970.75	6078.5
986.536	2599.1234	6930.7	6038.1
986.6614	2600.4112	6913.1	6021.25
986.7867	2601.6983	6885.3	5992.8
986.912	2602.9848	6865.45	5974
987.0372	2604.2705	6845.1	5945.95
987.1624	2605.5556	6844.15	5952.1
987.2876	2606.84	6810.75	5919.6
987.4128	2608.1237	6793.3	5899.9
987.5379	2609.4067	6740.35	5847
987.6629	2610.689	6742.5	5840.45
987.788	2611.9707	6709.7	5813.35
987.913	2613.2516	6695.25	5799.65
988.0379	2614.5319	6655.8	5764.85
988.1629	2615.8115	6632.35	5741.55
988.2878	2617.0903	6588.35	5695.65
988.4126	2618.3685	6578.75	5686.35
988.5375	2619.6461	6562.75	5670.65
988.6622	2620.9229	6556.95	5665.95
988.787	2622.199	6512.9	5620.7
988.9117	2623.4745	6504.65	5612.05
989.0364	2624.7493	6476.1	5584.65
989.161	2626.0234	6447.2	5557.5
989.2857	2627.2968	6424.2	5531.8
989.4102	2628.5695	6403	5510.5
989.5348	2629.8415	6384.3	5494.7
989.6593	2631.1128	6359.75	5466.1
989.7837	2632.3835	6333.6	5441.45
989.9082	2633.6535	6289.1	5398.35
990.0326	2634.9228	6287.75	5397.2
990.1569	2636.1914	6264.1	5372.85
990.2812	2637.4593	6250.2	5351.95
990.4055	2638.7265	6237.45	5342.8
990.5298	2639.9931	6197.8	5306.3
990.654	2641.259	6199.75	5305.75
990.7782	2642.5242	6168.25	5276.15
990.9023	2643.7887	6143.45	5252.25
991.0264	2645.0525	6138.65	5245.6
991.1505	2646.3156	6133.8	5241.15
991.2745	2647.5781	6099.7	5208.25
991.3985	2648.8398	6081.95	5190.3
991.5225	2650.1009	6055	5154.2
991.6464	2651.3613	6041.25	5149.1
991.7703	2652.6211	6030.15	5139.05
991.8942	2653.8801	6010.55	5120.65
992.018	2655.1385	5979.8	5085.65
992.1418	2656.3961	5969.9	5076.4
992.2655	2657.6531	5976.95	5085.45
992.3892	2658.9094	5944.5	5052.75
992.5129	2660.1651	5921.65	5030.55
992.6366	2661.42	5924.75	5032.65
992.7602	2662.6743	5904.35	5010.3
992.8837	2663.9279	5884.6	4993.5
993.0073	2665.1808	5875	4982.65
993.1307	2666.433	5850.55	4956.4
993.2542	2667.6846	5852.4	4960.3
993.3776	2668.9354	5826.8	4930.45
993.501	2670.1856	5817	4923.35
993.6244	2671.4351	5775.45	4885.45
993.7477	2672.6839	5791.2	4898.35
993.8709	2673.9321	5760.3	4870.8
993.9942	2675.1795	5752.7	4860.75
994.1174	2676.4263	5739.25	4847.35
994.2405	2677.6724	5723.3	4832.75
994.3637	2678.9179	5680.5	4787.9
994.4868	2680.1626	5678.8	4788.15
994.6098	2681.4067	5677.3	4785.9
994.7328	2682.6501	5648.05	4754.55
994.8558	2683.8928	5627.1	4736.2
994.9788	2685.1348	5621.1	4729.8
995.1017	2686.3761	5589.95	4698.95
995.2245	2687.6168	5561.75	4670.15
995.3474	2688.8568	5547.2	4655.3
995.4702	2690.0961	5545.2	4654
995.5929	2691.3348	5524.7	4632.6
995.7156	2692.5727	5511.85	4619.15
995.8383	2693.81	5476.4	4584.75
995.961	2695.0466	5459.6	4569.35
996.0836	2696.2826	5465.85	4571
996.2062	2697.5178	5445.05	4550.25
996.3287	2698.7524	5426.9	4533.9
996.4512	2699.9863	5392.3	4499.25
996.5737	2701.2195	5390.5	4498.15
996.6961	2702.452	5383.5	4490.45
996.8185	2703.6839	5374.2	4482.85
996.9408	2704.9151	5352.75	4462
997.0631	2706.1456	5321.1	4429.5
997.1854	2707.3755	5315.9	4423.6
997.3077	2708.6046	5307.5	4412.15
997.4299	2709.8331	5303.8	4409.85
997.552	2711.0609	5298.55	4406.2
997.6742	2712.2881	5297.8	4406.7
997.7963	2713.5145	5276.95	4383
997.9183	2714.7403	5256.05	4366.85
998.0403	2715.9654	5267.45	4375.15
998.1623	2717.1899	5281.2	4373.3
998.2842	2718.4136	5263.65	4372.35
998.4062	2719.6367	5243.4	4352.15
998.528	2720.8591	5245.05	4346.75
998.6498	2722.0809	5246.05	4351.8
998.7716	2723.3019	5204.05	4306.7
998.8934	2724.5223	5211	4317.85
999.0151	2725.7421	5212.8	4318.55
999.1368	2726.9611	5178.05	4283.7
999.2584	2728.1795	5165.6	4270.45
999.38	2729.3972	5144.7	4252.75
999.5016	2730.6142	5130	4235.6
999.6231	2731.8306	5083.25	4191.45
999.7446	2733.0462	5072.6	4178.85
999.8661	2734.2612	5021.5	4123.95
999.9875	2735.4756	4992.55	4099.7
1000.1089	2736.6892	4974	4082.05
1000.2302	2737.9022	4925.4	4036.2
1000.3515	2739.1145	4902.7	4011.35
1000.4728	2740.3262	4881.05	3982.65
1000.594	2741.5372	4833.4	3942.4
1000.7152	2742.7475	4821.25	3930
1000.8363	2743.9571	4815.7	3921.1
1000.9575	2745.1661	4788.85	3891.6
1001.0785	2746.3744	4750.05	3857.4
1001.1996	2747.582	4734.05	3843.7
1001.3206	2748.7889	4715.4	3821.2
1001.4415	2749.9952	4696.55	3806.25
1001.5625	2751.2008	4664.45	3773.4
1001.6833	2752.4057	4669.6	3776.95
1001.8042	2753.61	4658.3	3763.75
1001.925	2754.8136	4635.5	3742.15
1002.0458	2756.0165	4612	3722.2
1002.1665	2757.2188	4615.1	3724.65
1002.2872	2758.4204	4588.85	3695.15
1002.4078	2759.6213	4573.35	3679.85
1002.5285	2760.8215	4573.5	3675.9
1002.649	2762.0211	4538.6	3644.8
1002.7696	2763.22	4531.85	3638.75
1002.8901	2764.4182	4517.3	3624.75
1003.0106	2765.6158	4506.2	3615.85
1003.131	2766.8127	4484.5	3594.2
1003.2514	2768.009	4471.5	3578.3
1003.3717	2769.2045	4455.6	3563.4
1003.492	2770.3994	4457.25	3564.45
1003.6123	2771.5936	4443.75	3549.25
1003.7325	2772.7872	4427.05	3535
1003.8527	2773.9801	4391.45	3498.05
1003.9729	2775.1723	4398.6	3490.6
1004.093	2776.3639	4383.8	3494.2
1004.2131	2777.5548	4356.3	3463.25
1004.3331	2778.745	4357.4	3464.25
1004.4531	2779.9346	4351.4	3460.85
1004.5731	2781.1235	4335.1	3443.15
1004.693	2782.3117	4315.65	3422.35
1004.8129	2783.4992	4304.85	3412.8
1004.9328	2784.6861	4294.35	3402.55
1005.0526	2785.8723	4299.3	3405.7
1005.1723	2787.0579	4296.95	3405.65
1005.2921	2788.2428	4284.55	3391.35
1005.4118	2789.427	4282.3	3391.1
1005.5314	2790.6106	4264.3	3373.45
1005.651	2791.7935	4282.2	3390.8
1005.7706	2792.9757	4282.45	3392.05
1005.8902	2794.1573	4270.4	3377.25
1006.0097	2795.3382	4253	3361.3
1006.1291	2796.5184	4266.5	3373.8
1006.2485	2797.698	4272.45	3378.85
1006.3679	2798.8769	4276.6	3383.65
1006.4873	2800.0551	4273.35	3380.2
1006.6066	2801.2327	4282.65	3388.05
1006.7258	2802.4096	4292	3399
1006.8451	2803.5859	4298.75	3407.8
1006.9642	2804.7615	4297.4	3402.85
1007.0834	2805.9364	4312.55	3422.15
1007.2025	2807.1106	4322.2	3430.45
1007.3216	2808.2842	4351.55	3458.75
1007.4406	2809.4572	4378.65	3487.2
1007.5596	2810.6294	4394.05	3501.3
1007.6785	2811.801	4440.15	3549.15
1007.7975	2812.972	4443	3553.3
1007.9163	2814.1423	4473.9	3583
1008.0352	2815.3119	4522.2	3629.15
1008.154	2816.4808	4564.7	3674.05
1008.2727	2817.6491	4605.1	3711.8
1008.3914	2818.8167	4622.85	3733.05
1008.5101	2819.9837	4682.75	3785.45
1008.6288	2821.15	4707.85	3816.55
1008.7474	2822.3157	4744.2	3855
1008.8659	2823.4807	4775.15	3883.7
1008.9844	2824.645	4818.8	3924.1
1009.1029	2825.8086	4857.65	3967.55
1009.2214	2826.9716	4886.9	3994.7
1009.3398	2828.134	4907.75	4018.7
1009.4581	2829.2957	4930.1	4036.85
1009.5764	2830.4567	4970.4	4077.85
1009.6947	2831.617	4978.6	4084.95
1009.813	2832.7767	4973.45	4082.9
1009.9312	2833.9358	4966.05	4076.6
1010.0493	2835.0941	4952.35	4058.55
1010.1675	2836.2519	4955.9	4066
1010.2855	2837.4089	4929.25	4036.85
1010.4036	2838.5653	4913.25	4022.35
1010.5216	2839.7211	4882.7	3993.15
1010.6396	2840.8761	4888.95	3994.9
1010.7575	2842.0306	4919.4	4030.3
1010.8754	2843.1843	4945.85	4057.4
1010.9932	2844.3374	4994.55	4102.35
1011.111	2845.4899	5025.5	4133.75
1011.2288	2846.6417	5082	4192.1
1011.3465	2847.7928	5154.25	4262.35
1011.4642	2848.9433	5243.05	4352
1011.5818	2850.0931	5317.55	4424.95
1011.6995	2851.2422	5390.3	4496.3
1011.817	2852.3907	5443.5	4551.1
1011.9345	2853.5385	5506.3	4614.55
1012.052	2854.6857	5577.15	4659.45
1012.1695	2855.8323	5598.05	4707.25
1012.2869	2856.9781	5628.9	4738.05
1012.4042	2858.1233	5668.75	4776.65
1012.5216	2859.2679	5714.65	4824.75
1012.6389	2860.4118	5736.7	4845.8
1012.7561	2861.555	5771.6	4876.65
1012.8733	2862.6976	5810.6	4917.25
1012.9905	2863.8395	5828.55	4938.05
1013.1076	2864.9808	5831.2	4940.3
1013.2247	2866.1214	5846.75	4957.75
1013.3417	2867.2614	5864.8	4973.75
1013.4587	2868.4007	5848.8	4957.95
1013.5757	2869.5393	5857.05	4965
1013.6926	2870.6773	5843.35	4950.2
1013.8095	2871.8146	5865.15	4971.45
1013.9263	2872.9513	5843.25	4949.55
1014.0431	2874.0874	5823.1	4930.95
1014.1599	2875.2227	5820.95	4929.75
1014.2766	2876.3574	5778	4886.35
1014.3933	2877.4915	5750.75	4859.95
1014.51	2878.6249	5700.35	4807.9
1014.6266	2879.7577	5685.65	4793.05
1014.7431	2880.8898	5657	4754.3
1014.8596	2882.0212	5627.55	4736.85
1014.9761	2883.152	5614.45	4724.65
1015.0925	2884.2821	5599.65	4709.25
1015.2089	2885.4116	5592.35	4703.5
1015.3253	2886.5405	5573.35	4682.1
1015.4416	2887.6686	5567.3	4672.5
1015.5579	2888.7962	5543.2	4653.75
1015.6741	2889.923	5547.25	4656.2
1015.7903	2891.0493	5537.15	4645.9
1015.9065	2892.1748	5538.9	4650.35
1016.0226	2893.2997	5552.5	4658.2
1016.1387	2894.424	5557.75	4668.35
1016.2547	2895.5476	5564.7	4673.95
1016.3707	2896.6706	5587	4696.4
1016.4866	2897.7929	5608.6	4716.95
1016.6025	2898.9145	5619.35	4728.35
1016.7184	2900.0355	5651.95	4759.65
1016.8342	2901.1559	5669.25	4778.65
1016.95	2902.2756	5686.7	4795.1
1017.0658	2903.3946	5724.4	4834.45
1017.1815	2904.513	5732.65	4837.05
1017.2971	2905.6308	5750.55	4860.05
1017.4127	2906.7479	5766.75	4875.05
1017.5283	2907.8643	5789.8	4898.15
1017.6439	2908.9801	5784.4	4892.65
1017.7594	2910.0953	5792.7	4901.45
1017.8748	2911.2098	5779.85	4886.4
1017.9902	2912.3236	5763.45	4865.15
1018.1056	2913.4368	5743.2	4849
1018.2209	2914.5494	5711.95	4820.9
1018.3362	2915.6613	5685.35	4787.6
1018.4515	2916.7725	5658.05	4764.15
1018.5667	2917.8831	5607	4716.2
1018.6819	2918.9931	5589.25	4693.5
1018.797	2920.1024	5536.25	4644.6
1018.9121	2921.211	5518.5	4627.65
1019.0271	2922.319	5481.6	4588.55
1019.1421	2923.4264	5460.6	4570.5
1019.2571	2924.5331	5444.55	4554.35
1019.372	2925.6391	5413.15	4523.1
1019.4869	2926.7445	5408.35	4518.85
1019.6017	2927.8493	5392.6	4500
1019.7165	2928.9534	5371.2	4478.6
1019.8313	2930.0569	5364.85	4473.25
1019.946	2931.1597	5348.6	4455.45
1020.0606	2932.2619	5350.05	4459.85
1020.1753	2933.3634	5307.8	4416.45
1020.2899	2934.4643	5294.25	4396.45
1020.4044	2935.5645	5272.2	4374.1
1020.5189	2936.6641	5250.45	4355.55
1020.6334	2937.763	5181.9	4292.95
1020.7478	2938.8613	5121.65	4232.3
1020.8622	2939.959	5049.35	4152.8
1020.9765	2941.056	4970.85	4080.25
1021.0908	2942.1523	4865.1	3970.9
1021.2051	2943.248	4781.35	3888.6
1021.3193	2944.3431	4685.85	3796.75
1021.4334	2945.4375	4574.05	3682.9
1021.5476	2946.5313	4457.35	3567.9
1021.6617	2947.6244	4362.25	3471.45
1021.7757	2948.7169	4260.3	3367.65
1021.8897	2949.8087	4161	3268.85
1022.0037	2950.8999	4035.55	3144.2
1022.1176	2951.9904	3942.65	3052
1022.2315	2953.0803	3875.05	2983
1022.3453	2954.1696	3796.05	2903.4
1022.4591	2955.2582	3738.85	2848.6
1022.5728	2956.3462	3693.05	2802.85
1022.6865	2957.4335	3652.25	2760.65
1022.8002	2958.5202	3592	2699.15
1022.9138	2959.6062	3556.65	2664.5
1023.0274	2960.6916	3537.1	2647.45
1023.141	2961.7764	3514.35	2623.95
1023.2545	2962.8605	3483.4	2592.7
1023.3679	2963.9439	3466.3	2575.9
1023.4813	2965.0267	3460.45	2566.8
1023.5947	2966.1089	3449.4	2533.5
1023.708	2967.1905	3428.45	2538.65
1023.8213	2968.2714	3401.3	2510.75
1023.9346	2969.3516	3402.05	2510.55
1024.0478	2970.4312	3391.3	2492.35
1024.1609	2971.5102	3389.9	2498.9
1024.274	2972.5885	3377.1	2485
1024.3871	2973.6662	3379.35	2484.35
1024.5002	2974.7432	3368.8	2479.25
1024.6132	2975.8196	3353.3	2462.9
1024.7261	2976.8954	3342.7	2451.15
1024.839	2977.9705	3318.8	2428.35
1024.9519	2979.045	3312.7	2422.15
1025.0647	2980.1188	3273.35	2381.9
1025.1775	2981.192	3247	2356.75
1025.2902	2982.2645	3214.95	2323.75
1025.4029	2983.3364	3191	2302.1
1025.5156	2984.4077	3161.9	2271.65
1025.6282	2985.4783	3135.85	2237.15
1025.7407	2986.5483	3086.4	2194.65
1025.8532	2987.6177	3057.35	2166.6
1025.9657	2988.6864	3018.6	2127.8
1026.0782	2989.7545	2973.05	2080.1
1026.1906	2990.8219	2929.85	2038.6
1026.3029	2991.8887	2886.65	1994.9
1026.4152	2992.9548	2859.05	1967.6
1026.5275	2994.0204	2826.9	1936.85
1026.6397	2995.0852	2777.7	1888.3
1026.7519	2996.1495	2752.45	1860.95
1026.864	2997.2131	2728.1	1837.55
1026.9761	2998.276	2705.15	1814
1027.0882	2999.3383	2687.95	1795.1
1027.2002	3000.4	2667.05	1775.4
1027.3122	3001.4611	2645.6	1755
1027.4241	3002.5215	2614.85	1724.55
1027.536	3003.5812	2598	1708
1027.6478	3004.6404	2573.3	1683.6
1027.7596	3005.6989	2577.75	1684.1
1027.8714	3006.7567	2558.4	1666.55
1027.9831	3007.8139	2568.45	1654.7
1028.0947	3008.8705	2529.45	1639.85
1028.2064	3009.9264	2533.4	1628.5
1028.3179	3010.9818	2514.45	1622.8
1028.4295	3012.0364	2515.3	1623.85
1028.541	3013.0905	2494.9	1604.75
1028.6524	3014.1439	2486.5	1595.25
1028.7638	3015.1966	2489.35	1599.65
1028.8752	3016.2487	2470.6	1579.35
1028.9865	3017.3002	2477.45	1580.8
1029.0978	3018.3511	2472.3	1581.45
1029.209	3019.4013	2467.95	1576.25
1029.3202	3020.4509	2465.2	1573.55
1029.4314	3021.4998	2452.75	1560.85
1029.5425	3022.5481	2447.85	1556.65
1029.6535	3023.5958	2448.45	1557.8
1029.7645	3024.6428	2446.6	1555.95
1029.8755	3025.6892	2448.7	1558.2
1029.9864	3026.735	2443.3	1552.3
1030.0973	3027.7802	2433.4	1542.7
1030.2082	3028.8247	2423.55	1532.2
1030.319	3029.8685	2438.45	1547.15
1030.4297	3030.9118	2417.8	1526.05
1030.5404	3031.9544	2428.8	1537.35
1030.6511	3032.9963	2432.4	1542.2
1030.7617	3034.0376	2428.6	1537.95
1030.8723	3035.0783	2429.1	1535.9
1030.9829	3036.1184	2417.7	1527.45
1031.0934	3037.1578	2417.55	1527.65
1031.2038	3038.1966	2426.75	1536
1031.3142	3039.2348	2413.95	1523.15
1031.4246	3040.2723	2410.75	1511.2
1031.5349	3041.3092	2407.5	1517.15
1031.6452	3042.3455	2403.35	1513.3
1031.7554	3043.3811	2392.5	1500.85
1031.8656	3044.4161	2376.3	1484.05
1031.9758	3045.4505	2374.65	1486.75
1032.0859	3046.4842	2360.8	1469.8
1032.1959	3047.5173	2359.7	1470.9
1032.3059	3048.5498	2344.8	1454.85
1032.4159	3049.5816	2337.95	1446.15
1032.5258	3050.6128	2322.45	1430.35
1032.6357	3051.6434	2316.15	1424.9
1032.7455	3052.6734	2300.2	1407.55
1032.8553	3053.7027	2286.6	1397.25
1032.9651	3054.7314	2283.85	1393.6
1033.0748	3055.7594	2275.2	1385.3
1033.1845	3056.7868	2262.65	1370.75
1033.2941	3057.8136	2253.1	1363.7
1033.4037	3058.8398	2244.7	1353.6
1033.5132	3059.8653	2238.45	1348.7
1033.6227	3060.8902	2222.15	1332.15
1033.7321	3061.9145	2211.45	1320.1
1033.8415	3062.9381	2219.1	1327.3
1033.9509	3063.9612	2208.75	1303.2
1034.0602	3064.9835	2190.5	1298.65
1034.1694	3066.0053	2178.1	1285.2
1034.2787	3067.0264	2169.75	1280.45
1034.3878	3068.0469	2163.15	1273.2
1034.497	3069.0668	2149	1256.5
1034.6061	3070.086	2127.15	1237.8
1034.7151	3071.1046	2127.1	1235.8
1034.8241	3072.1226	2116.2	1222.15
1034.9331	3073.1399	2095.5	1203.7
1035.042	3074.1567	2075.15	1182.85
1035.1508	3075.1727	2081.25	1188.85
1035.2597	3076.1882	2056.25	1166.65
1035.3684	3077.203	2041.35	1151.55
1035.4772	3078.2173	2036.55	1143.75
1035.5859	3079.2308	2027.55	1135.15
1035.6945	3080.2438	2010.15	1116.55
1035.8031	3081.2561	1991.8	1100.55
1035.9117	3082.2678	1988.5	1096.5
1036.0202	3083.2789	1977.5	1086.3
1036.1286	3084.2893	1978.35	1088.35
1036.2371	3085.2991	1968.95	1077.45
1036.3454	3086.3083	1954.9	1060.6
1036.4538	3087.3169	1941.8	1049.8
1036.562	3088.3248	1931.95	1043.3
1036.6703	3089.3321	1923.05	1030.9
1036.7785	3090.3388	1916.4	1027.65
1036.8866	3091.3449	1911	1020.05
1036.9948	3092.3503	1896.75	1003.45
1037.1028	3093.3551	1890.55	1001.1
1037.2108	3094.3593	1882.35	994.45
1037.3188	3095.3629	1869.65	978.65
1037.4267	3096.3658	1873.7	981.95
1037.5346	3097.3681	1869.6	979.35
1037.6425	3098.3698	1865.25	973.5
1037.7503	3099.3708	1867.2	970.45
1037.858	3100.3713	1843.2	953.1
1037.9657	3101.3711	1839.65	948.65
1038.0734	3102.3702	1937.85	932.8
1038.181	3103.3688	1836.6	944.35
1038.2886	3104.3667	1825.85	935.65
1038.3961	3105.364	1816	927.65
1038.5036	3106.3607	1798.35	906.35
1038.611	3107.3568	1797.9	905.65
1038.7184	3108.3522	1800.7	911.55
1038.8257	3109.347	1789.3	898.9
1038.933	3110.3412	1791	897.55
1039.0403	3111.3348	1787.8	896
1039.1475	3112.3277	1763.65	875.15
1039.2547	3113.32	1771.3	879.75
1039.3618	3114.3117	1769.75	878.45
1039.4689	3115.3028	1765.6	875.05
1039.5759	3116.2932	1761.75	871.25
1039.6829	3117.2831	1757.85	862.25
1039.7898	3118.2723	1751.25	859.9
1039.8967	3119.2608	1734.15	842.15
1040.0035	3120.2488	1733.45	843.15
1040.1103	3121.2361	1743.85	853.15
1040.2171	3122.2229	1726.3	836.5
1040.3238	3123.209	1723.95	832.15
1040.4305	3124.1944	1708.7	818.75
1040.5371	3125.1793	1713.5	823.05
1040.6437	3126.1635	1711.65	820.85
1040.7502	3127.1471	1706.45	816.85
1040.8567	3128.1301	1695.25	806.75
1040.9631	3129.1125	1688.8	799.65
1041.0695	3130.0942	1679.6	789.95
1041.1759	3131.0753	1694.75	797.25
1041.2822	3132.0558	1684.6	789.35
1041.3884	3133.0357	1672.45	780
1041.4946	3134.015	1681.55	789.25
1041.6008	3134.9936	1660.6	767.15
1041.7069	3135.9716	1691.15	780.5
1041.813	3136.949	1657.65	765.2
1041.919	3137.9258	1665.65	769.85
1042.025	3138.902	1660.05	765.2
1042.1309	3139.8775	1650.2	760.25
1042.2368	3140.8524	1648.45	759.15
1042.3427	3141.8267	1645.25	753.9
1042.4485	3142.8004	1645	754.2
1042.5542	3143.7735	1641.3	743.35
1042.6599	3144.7459	1634.95	741.2
1042.7656	3145.7178	1628.2	736.25
1042.8712	3146.689	1624.95	735.95
1042.9768	3147.6596	1615.95	724.9
1043.0823	3148.6295	1611.9	721.4
1043.1878	3149.5989	1608.4	718.25
1043.2932	3150.5676	1613	724.25
1043.3986	3151.5357	1599.15	711.4
1043.5039	3152.5032	1597.5	707.85
1043.6092	3153.4701	1590.65	699.75
1043.7145	3154.4364	1597.7	704.45
1043.8197	3155.402	1586.55	696
1043.9248	3156.367	1586.55	692.85
1044.03	3157.3315	1616.8	679.75
1044.135	3158.2952	1573.35	681.6
1044.24	3159.2584	1568.75	682.35
1044.345	3160.221	1568.75	676.45
1044.4499	3161.1829	1563.1	673.55
1044.5548	3162.1442	1558.65	669.55
1044.6596	3163.105	1548.05	657.1
1044.7644	3164.065	1552.85	662.05
1044.8692	3165.0245	1548.65	656.4
1044.9739	3165.9834	1545.15	657.1
1045.0785	3166.9416	1534.35	644.5
1045.1831	3167.8993	1535	643.35
1045.2877	3168.8563	1533	642.25
1045.3922	3169.8127	1528.55	638.3
1045.4966	3170.7684	1528	638.35
1045.6011	3171.7236	1519.5	627.7
1045.7054	3172.6782	1520.4	629.5
1045.8098	3173.6321	1515.8	625.95
1045.914	3174.5854	1513.55	616.65
1046.0183	3175.5381	1503.4	612.35
1046.1224	3176.4902	1504.5	614.35
1046.2266	3177.4417	1498.05	607.2
1046.3307	3178.3926	1500.45	610.8
1046.4347	3179.3428	1496.15	607.55
1046.5387	3180.2924	1491.8	602.25
1046.6427	3181.2415	1482.85	592.6
1046.7466	3182.1899	1483.15	593
1046.8504	3183.1377	1483.7	594.45
1046.9542	3184.0848	1485.3	591
1047.058	3185.0314	1465.55	573.85
1047.1617	3185.9773	1474.7	584.85
1047.2654	3186.9227	1461.8	573.5
1047.369	3187.8674	1465.1	575.95
1047.4726	3188.8115	1469	576.4
1047.5761	3189.755	1463.65	574.95
1047.6796	3190.6979	1452.9	561.9
1047.783	3191.6402	1452.2	563.95
1047.8864	3192.5818	1460.15	569.65
1047.9898	3193.5229	1473	557.2
1048.0931	3194.4633	1450.8	561.1
1048.1963	3195.4031	1438.2	547.9
1048.2995	3196.3423	1433.95	544.1
1048.4027	3197.2809	1439.7	549.3
1048.5058	3198.2189	1433.4	542.85
1048.6089	3199.1563	1451.85	547
1048.7119	3200.0931	1424.25	535.55
1048.8148	3201.0292	1423.8	535.85
1048.9178	3201.9648	1427.1	536.4
1049.0206	3202.8997	1424.25	533.1
1049.1235	3203.834	1417.75	527.55
1049.2262	3204.7677	1409.25	518.4
1049.329	3205.7008	1411.75	520.1
1049.4317	3206.6333	1404.75	516.15
1049.5343	3207.5652	1408.05	516.45
1049.6369	3208.4964	1403.35	513.45
1049.7394	3209.4271	1400.35	511.4
1049.8419	3210.3571	1396.05	505.65
1049.9444	3211.2865	1392.7	500
1050.0468	3212.2154	1399.25	509.2
1050.1491	3213.1436	1383.1	491.6
1050.2514	3214.0712	1392.95	497.15
1050.3537	3214.9982	1381.85	490.1
1050.4559	3215.9246	1380.5	489.95
1050.5581	3216.8503	1371.45	481.3
1050.6602	3217.7755	1377.7	488.5
1050.7623	3218.7001	1381.8	491.15
1050.8643	3219.624	1379.65	488.4
1050.9663	3220.5473	1372.85	482.1
1051.0682	3221.4701	1365.4	475.45
1051.1701	3222.3922	1366.3	475.3
1051.2719	3223.3137	1365.1	475
1051.3737	3224.2346	1363.95	474.35
1051.4754	3225.1549	1360.65	470.9
1051.5771	3226.0746	1352.2	463.7
1051.6788	3226.9937	1350.65	459.9
1051.7804	3227.9121	1347.1	459.35
1051.8819	3228.83	1345.35	455.5
1051.9834	3229.7473	1350.6	461.8
1052.0849	3230.6639	1347.8	457.5
1052.1863	3231.5799	1334.15	447.35
1052.2876	3232.4954	1336.8	446.8
1052.3889	3233.4102	1332.6	442.7
1052.4902	3234.3244	1332.15	443.35
1052.5914	3235.238	1330.25	441
1052.6926	3236.151	1349.35	435.65
1052.7937	3237.0634	1333.3	442.75
1052.8948	3237.9752	1325.1	435.25
1052.9958	3238.8864	1320.1	430.25
1053.0968	3239.797	1320.9	431.5
1053.1977	3240.7069	1316.25	424.75
1053.2986	3241.6163	1306.85	415.3
1053.3994	3242.5251	1311.4	422.35
1053.5002	3243.4332	1304	416.1
1053.6009	3244.3408	1302.65	413.9
1053.7016	3245.2477	1304.2	413.45
1053.8022	3246.154	1299.4	407.25
1053.9028	3247.0598	1299.8	408.65
1054.0034	3247.9649	1292.95	402.2
1054.1039	3248.8694	1290.75	400.4
1054.2043	3249.7733	1290.8	401.2
1054.3047	3250.6766	1285.1	394.95
1054.4051	3251.5793	1287.05	396.5
1054.5054	3252.4814	1284.6	393.7
1054.6056	3253.3829	1285.1	395.25
1054.7058	3254.2838	1273.75	384.45
1054.806	3255.1841	1272.55	384.15
1054.9061	3256.0838	1265.55	376.45
1055.0061	3256.9829	1263.35	374
1055.1062	3257.8814	1266.4	373.45
1055.2061	3258.7792	1262.4	371.4
1055.306	3259.6765	1268.2	379.3
1055.4059	3260.5731	1249.05	359.1
1055.5057	3261.4692	1248.15	357.85
1055.6055	3262.3647	1242.65	352.7
1055.7052	3263.2595	1231	341.45
1055.8049	3264.1538	1229.45	338.8
1055.9045	3265.0474	1223.9	334.05
1056.0041	3265.9404	1224.4	336.7
1056.1036	3266.8329	1217.85	329.6
1056.2031	3267.7247	1221	321.6
1056.3025	3268.616	1206.45	318.85
1056.4019	3269.5066	1204.45	314.85
1056.5013	3270.3966	1193.45	303.4
1056.6005	3271.286	1179	289.9
