Software Version:	3.9.2.0
Unit SN:	10000200
Spectrometer SN:	6960
Date:	3/6/2024 10:08:43 AM
Data Line Index:	25
Spectral Points:	2048
Integration time (ms):	125
Averages:	20
Delay (ms):	30
Sequence Number:	1
Processing:	dark subtract
Laser Power (mW):	305
Laser Current (mA):	825
Laser Diode Temp (C):	25.1
Laser Case Temp (C):	24.9
System Temp (C):	24.7
Spectrometer Temp (C):	22.3
CCD Temp (C):	-0.006
Secondary Temp (C):	20.008
Heatsink Temp (C):	18.633
CCDPCB Temp (C):	31.472
SecondaryPCB Temp (C):	25.902

Wavelength	RamanShift	Raw Counts	Dark Subtracted
787.061	30.1047	827.3	419.1
787.2016	32.3739	844.55	437.85
787.3422	34.6426	870.4	463.75
787.4828	36.9109	900.35	491.9
787.6235	39.1787	931.6	517.1
787.7642	41.4461	971.65	554.35
787.9049	43.7131	1011.5	588.3
788.0456	45.9796	1051.35	628.6
788.1863	48.2456	1083.55	656.7
788.3271	50.5112	1131.75	699.75
788.4679	52.7764	1173	740.2
788.6087	55.0411	1223.6	784.85
788.7496	57.3054	1265.5	822.7
788.8904	59.5692	1323	877
789.0313	61.8326	1375.2	925.8
789.1722	64.0955	1436.95	985
789.3132	66.3579	1518.2	1061.9
789.4541	68.6199	1618	1159.65
789.5951	70.8815	1779.35	1313.15
789.7361	73.1426	2128.7	1658.85
789.8771	75.4032	3040.7	2568.55
790.0181	77.6634	5341.1	4864.2
790.1592	79.9231	11152.2	10670.2
790.3003	82.1824	29342.15	28847.9
790.4414	84.4412	57070.25	56551.9
790.5825	86.6995	61987.4	61444.9
790.7237	88.9574	63620.2	63056.4
790.8648	91.2148	64391.9	63809.9
791.006	93.4717	64591.7	64002.85
791.1472	95.7282	64669.6	64073.2
791.2885	97.9842	64694.1	64097.1
791.4297	100.2398	64719.6	64117.15
791.571	102.4949	64701.95	64097.75
791.7123	104.7495	64721.55	64112.45
791.8536	107.0036	64691	64083.75
791.9949	109.2573	64726.9	64118.55
792.1363	111.5105	64688.55	64082.35
792.2777	113.7632	64720.3	64110.2
792.4191	116.0154	64718.5	64096.6
792.5605	118.2672	64736.85	64121.15
792.7019	120.5185	64741.65	64123.55
792.8434	122.7693	64736.75	64112.25
792.9849	125.0197	64716.65	64089
793.1264	127.2696	64760.6	64132.95
793.2679	129.519	64764.55	64131.3
793.4094	131.7679	64786.4	64149.1
793.551	134.0163	64710.55	64070.9
793.6926	136.2642	64742.3	64097.3
793.8342	138.5117	64793	64150.3
793.9758	140.7587	64771.6	64124.2
794.1175	143.0052	64777.25	64129.7
794.2591	145.2512	64743.15	64093.8
794.4008	147.4967	64788.65	64140.55
794.5425	149.7417	64765.95	64112.15
794.6842	151.9863	64778.1	64118.35
794.826	154.2304	64735.7	64072.5
794.9677	156.4739	64769.4	64100.9
795.1095	158.717	64787.2	64122.1
795.2513	160.9596	64775.5	64103.75
795.3931	163.2017	64742.3	64068.95
795.535	165.4433	64777.3	64098.45
795.6768	167.6844	64755.2	64075.9
795.8187	169.925	64775.9	64096.6
795.9606	172.1651	64757.05	64074.1
796.1025	174.4047	64750.2	64064.85
796.2445	176.6439	64762.5	64071.05
796.3864	178.8825	64763.4	64072.65
796.5284	181.1206	64766.6	64070.15
796.6704	183.3582	64782.95	64081.45
796.8124	185.5954	64744.6	64045.55
796.9544	187.832	64757.2	64053.85
797.0965	190.0681	64745.45	64038.55
797.2386	192.3037	64778.5	64067.9
797.3806	194.5388	64804.8	64089.35
797.5228	196.7734	64730.15	64012.95
797.6649	199.0075	64796	64076.6
797.807	201.2411	64777.5	64057.85
797.9492	203.4742	64818.2	64097.35
798.0914	205.7068	64821.6	64096.75
798.2336	207.9389	64815.4	64089.05
798.3758	210.1704	64801.1	64081.5
798.518	212.4015	64841.9	64130.35
798.6603	214.632	64779.2	64078.2
798.8025	216.862	64828.25	64125.1
798.9448	219.0915	64827.75	64118.95
799.0871	221.3205	64807.65	64099.5
799.2294	223.549	64846.35	64142.55
799.3718	225.777	64840.3	64136.85
799.5141	228.0044	64842.65	64129.6
799.6565	230.2314	64837.35	64126.95
799.7989	232.4578	64835.75	64119.45
799.9413	234.6837	64840.75	64117.7
800.0837	236.909	64898.05	64173.1
800.2262	239.1339	64820.35	64070.15
800.3687	241.3582	64851.65	64111.8
800.5111	243.582	64851.1	64082.5
800.6536	245.8053	64861.95	64109.85
800.7961	248.0281	64846.85	64096.8
800.9387	250.2503	64861.55	64111.2
801.0812	252.472	64853.9	64096.4
801.2238	254.6932	64856.7	64103.15
801.3664	256.9139	64849	64095.2
801.509	259.134	64905.45	64144.8
801.6516	261.3536	64829.6	64072.9
801.7942	263.5727	64885.35	64122
801.9369	265.7912	64866.7	64105.25
802.0795	268.0092	64865.8	64107.5
802.2222	270.2267	64865.2	64105
802.3649	272.4436	64845.35	64084
802.5076	274.6601	64864.85	64093.95
802.6504	276.8759	64876.5	64106.3
802.7931	279.0913	64875.5	64107.3
802.9359	281.3061	64859.7	64089.35
803.0787	283.5204	64875.45	64104.05
803.2215	285.7341	64867.9	64093.4
803.3643	287.9473	64895.6	64106.6
803.5071	290.16	64871.75	64091.3
803.6499	292.3721	64910.45	64137.8
803.7928	294.5837	64868.1	64092.95
803.9357	296.7947	64840.3	64066.55
804.0786	299.0052	64881.1	64108.9
804.2215	301.2152	64858.3	64077.3
804.3644	303.4246	64898.95	64123.85
804.5074	305.6334	64896.5	64121.05
804.6503	307.8418	64856	64074.65
804.7933	310.0495	64870.1	64084
804.9363	312.2568	64849.8	64068.25
805.0793	314.4635	64861.95	64076.6
805.2223	316.6696	64873.7	64087.4
805.3653	318.8752	64895.35	64101.6
805.5084	321.0802	64832.3	64043.25
805.6514	323.2847	64847.65	64057.95
805.7945	325.4887	64853.7	64065.4
805.9376	327.692	64830.55	64037.05
806.0807	329.8949	64844.3	64050.15
806.2238	332.0972	64828.2	64033.95
806.367	334.2989	64853.6	64053.25
806.5101	336.5001	64869.3	64071.35
806.6533	338.7007	64831.35	64029.7
806.7965	340.9008	64863.5	64064
806.9397	343.1003	64854.15	64053.35
807.0829	345.2992	64876.7	64073.1
807.2261	347.4976	64848.05	64043.45
807.3693	349.6955	64854.95	64046.15
807.5126	351.8927	64846.95	64034.4
807.6559	354.0895	64877.95	64056.15
807.7991	356.2856	64863.75	64051.35
807.9424	358.4812	64881.55	64067.8
808.0857	360.6763	64845.7	64032.15
808.2291	362.8707	64857.2	64041.55
808.3724	365.0646	64849.9	64032.8
808.5158	367.258	64857.7	64038.95
808.6591	369.4508	64842.3	64019.5
808.8025	371.643	64851.35	64024.25
808.9459	373.8346	64844.95	64023.5
809.0893	376.0257	64844.95	64014.45
809.2327	378.2162	64851.95	64026.55
809.3762	380.4062	64832.7	64006.4
809.5196	382.5956	64820.8	63998.15
809.6631	384.7844	64831.9	64015.7
809.8066	386.9726	64842.2	64021.35
809.9501	389.1603	64851.85	64031.85
810.0936	391.3474	64816.1	63957.6
810.2371	393.5339	64845.85	64025.65
810.3806	395.7199	64808.1	63987.85
810.5241	397.9052	64821.35	64000.85
810.6677	400.09	64814.55	63991.8
810.8113	402.2743	64834	64014.85
810.9548	404.4579	64833.05	64010.25
811.0984	406.641	64823.3	64000.9
811.2421	408.8235	64825.7	64001.85
811.3857	411.0054	64827.6	64001.6
811.5293	413.1868	64824.45	63995.85
811.673	415.3675	64826.8	63992.65
811.8166	417.5477	64831.05	63998.55
811.9603	419.7273	64822.85	63986.1
812.104	421.9064	64816.1	63975.95
812.2477	424.0848	64816.15	63980.1
812.3914	426.2627	64821.55	63984.2
812.5351	428.4399	64799.7	63962.4
812.6788	430.6166	64794.9	63951.85
812.8226	432.7928	64802.65	63959.05
812.9663	434.9683	64785.6	63945.9
813.1101	437.1432	64791.45	63947.8
813.2539	439.3176	64789.25	63949.25
813.3977	441.4914	64765.8	63933.05
813.5415	443.6645	64769.25	63929.75
813.6853	445.8371	64767.15	63924.1
813.8291	448.0091	64751.8	63909.1
813.973	450.1806	64753.25	63910.65
814.1168	452.3514	64742.6	63899.8
814.2607	454.5216	64747.25	63895.8
814.4046	456.6913	64744.3	63896.75
814.5485	458.8603	64752.45	63909.1
814.6924	461.0288	64736.05	63894
814.8363	463.1967	64740	63899.9
814.9802	465.3639	64747.8	63904.15
815.1241	467.5306	64726.9	63883.85
815.2681	469.6967	64730.05	63886.2
815.412	471.8622	64729.3	63886.6
815.556	474.0271	64723.8	63876.55
815.7	476.1914	64730.15	63882.45
815.844	478.3551	64722.05	63873.35
815.988	480.5182	64740.35	63896.7
816.132	482.6807	64726.95	63882.4
816.276	484.8426	64722.2	63881.95
816.4201	487.0039	64727.05	63883.45
816.5641	489.1647	64745.95	63895.85
816.7082	491.3248	64744.05	63892.2
816.8522	493.4843	64730.9	63881.8
816.9963	495.6432	64740.65	63894.3
817.1404	497.8015	64723.15	63868.2
817.2845	499.9592	64733.25	63875.7
817.4286	502.1163	64732.05	63875.4
817.5727	504.2728	64729.8	63875.65
817.7168	506.4287	64732.4	63884.1
817.861	508.5839	64725.25	63876.4
818.0051	510.7386	64725.35	63873.2
818.1493	512.8927	64723.6	63863.1
818.2935	515.0461	64733.15	63875.45
818.4377	517.199	64728.4	63870.75
818.5818	519.3512	64740.8	63882.6
818.726	521.5029	64711.4	63847.35
818.8703	523.6539	64724.8	63864.45
819.0145	525.8043	64710.75	63851.1
819.1587	527.9541	64708.4	63846.3
819.303	530.1033	64711.4	63851.9
819.4472	532.2519	64711.7	63850.45
819.5915	534.3999	64711.65	63850.75
819.7357	536.5472	64720.6	63862.4
819.88	538.694	64704.35	63848.9
820.0243	540.8401	64726.65	63865.1
820.1686	542.9856	64711.45	63842.95
820.3129	545.1305	64713.85	63841.6
820.4572	547.2748	64717.9	63843.85
820.6016	549.4185	64719.35	63843.95
820.7459	551.5615	64707.15	63836.7
820.8902	553.704	64715.4	63840.2
821.0346	555.8458	64716.85	63850.5
821.1789	557.987	64705.9	63840
821.3233	560.1276	64710.5	63836.55
821.4677	562.2675	64703.2	63832.05
821.6121	564.4069	64698.7	63827.9
821.7565	566.5456	64708.7	63840.9
821.9009	568.6837	64692.6	63824.55
822.0453	570.8212	64703.6	63830.9
822.1897	572.958	64695.6	63824.5
822.3342	575.0942	64694.55	63825.85
822.4786	577.2299	64669.85	63802.45
822.6231	579.3648	64675.7	63814.35
822.7675	581.4992	64655.5	63797.35
822.912	583.6329	64659.55	63802.55
823.0565	585.766	64663.45	63801.7
823.201	587.8985	64648.5	63785.6
823.3454	590.0304	64630.7	63737
823.4899	592.1616	64631.9	63758.5
823.6345	594.2922	64641.05	63772
823.779	596.4222	64640.75	63765.25
823.9235	598.5515	64628.05	63751.05
824.068	600.6802	64625.2	63749.95
824.2126	602.8083	64610.85	63735.45
824.3571	604.9358	64599.4	63723.15
824.5017	607.0626	64610.85	63730.9
824.6462	609.1888	64607.25	63724.85
824.7908	611.3144	64603.7	63720.4
824.9354	613.4393	64605.5	63726.15
825.08	615.5636	64605.55	63721.3
825.2246	617.6873	64601.25	63722.4
825.3692	619.8103	64608.75	63725.75
825.5138	621.9327	64593.15	63710.65
825.6584	624.0544	64588.75	63709.8
825.803	626.1756	64575.95	63699.4
825.9477	628.2961	64594	63711.75
826.0923	630.4159	64576.95	63695.85
826.237	632.5351	64585.05	63703.4
826.3816	634.6537	64585.55	63703.6
826.5263	636.7716	64567.05	63680.3
826.6709	638.8889	64585.75	63697.5
826.8156	641.0056	64583.4	63691.95
826.9603	643.1216	64571.5	63685.05
827.105	645.237	64583.85	63699.35
827.2497	647.3518	64576	63695.15
827.3944	649.4659	64584.6	63705.1
827.5391	651.5793	64570.4	63687.9
827.6838	653.6922	64559.9	63676.8
827.8285	655.8043	64562.55	63679.6
827.9733	657.9159	64566.2	63682.65
828.118	660.0268	64554.8	63669.2
828.2627	662.137	64551.7	63663.65
828.4075	664.2466	64551.45	63662.75
828.5522	666.3556	64540.85	63655.6
828.697	668.4639	64532.25	63643.55
828.8418	670.5716	64546.95	63663.4
828.9865	672.6786	64545.65	63654.7
829.1313	674.785	64539.25	63646.65
829.2761	676.8907	64530.1	63642.3
829.4209	678.9958	64522.95	63638.05
829.5657	681.1002	64522.2	63635.15
829.7105	683.204	64515.6	63621.1
829.8553	685.3072	64518.95	63627.1
830.0001	687.4097	64502.05	63612.55
830.1449	689.5115	64516.6	63626.75
830.2898	691.6127	64514.8	63624.6
830.4346	693.7132	64501.05	63610
830.5794	695.8131	64506.55	63594.1
830.7243	697.9123	64507.6	63612.45
830.8691	700.0109	64500.4	63601.95
831.014	702.1089	64503.6	63611.5
831.1588	704.2061	64499.05	63605.7
831.3037	706.3028	64492.9	63596.7
831.4486	708.3987	64484.15	63588.8
831.5935	710.4941	64486.45	63590.4
831.7383	712.5887	64489.5	63597.75
831.8832	714.6827	64505.6	63610.15
832.0281	716.7761	64492.2	63600.45
832.173	718.8688	64485	63593.15
832.3179	720.9608	64476.4	63579
832.4628	723.0522	64483.75	63583
832.6077	725.1429	64471.4	63573.75
832.7527	727.233	64472.2	63573.15
832.8976	729.3224	64478.05	63581
833.0425	731.4112	64462.55	63563.25
833.1874	733.4993	64467.6	63568.6
833.3324	735.5867	64455.1	63559.4
833.4773	737.6735	64448.45	63551.85
833.6222	739.7596	64456.7	63555.45
833.7672	741.845	64447.15	63550.05
833.9122	743.9298	64440.65	63538.45
834.0571	746.014	64429.55	63530.65
834.2021	748.0974	64432.5	63531
834.347	750.1802	64426.4	63521.05
834.492	752.2624	64410.85	63512.4
834.637	754.3439	64417.45	63516.45
834.782	756.4247	64403.55	63493.25
834.9269	758.5048	64399.2	63495.75
835.0719	760.5843	64392.05	63486.65
835.2169	762.6631	64382.6	63481.2
835.3619	764.7413	64375.65	63474.8
835.5069	766.8188	64382.45	63477.5
835.6519	768.8956	64376.25	63471.4
835.7969	770.9718	64385.9	63483.55
835.9419	773.0473	64376.05	63473.7
836.0869	775.1221	64360.4	63458.35
836.232	777.1962	64353.45	63448.2
836.377	779.2697	64332.35	63427.65
836.522	781.3426	64342.75	63418.55
836.667	783.4147	64329.5	63424.25
836.8121	785.4862	64332.25	63429.75
836.9571	787.557	64287.4	63383.35
837.1021	789.6271	64321.7	63416.55
837.2472	791.6966	64311.1	63408.4
837.3922	793.7654	64243.1	63340.4
837.5373	795.8335	64253.9	63353.25
837.6823	797.901	64282.75	63376.9
837.8274	799.9678	64268.2	63361.1
837.9724	802.0339	64231.85	63327.05
838.1175	804.0993	64234.9	63319.25
838.2626	806.1641	64216.5	63309.1
838.4076	808.2282	64202.95	63295.2
838.5527	810.2916	64188.75	63280.85
838.6978	812.3544	64225.1	63323.65
838.8428	814.4164	64145	63241.3
838.9879	816.4778	64160.1	63253.05
839.133	818.5385	64172.1	63264.1
839.2781	820.5986	64152.9	63246.3
839.4232	822.658	64157.75	63247.15
839.5682	824.7166	64156.45	63250.1
839.7133	826.7747	64125.35	63216.3
839.8584	828.832	64140.45	63230.2
840.0035	830.8886	64153.3	63243.5
840.1486	832.9446	64143.4	63233.3
840.2937	834.9999	64057.8	63150.8
840.4388	837.0545	64094.95	63183.6
840.5839	839.1085	64105.5	63195.85
840.729	841.1618	64077.85	63165.55
840.8741	843.2143	64031.75	63122.65
841.0192	845.2662	64024.55	63115.85
841.1643	847.3175	64043.35	63135.4
841.3095	849.368	63976.95	63066.7
841.4546	851.4179	64029.7	63120.15
841.5997	853.467	63980.35	63068.85
841.7448	855.5155	63995.15	63086.45
841.8899	857.5633	63956.6	63048.15
842.0351	859.6105	63940.4	63028.05
842.1802	861.6569	63957.2	63049.3
842.3253	863.7027	63918.85	63009.4
842.4704	865.7478	63927.85	63018.45
842.6156	867.7922	63908.85	62998.15
842.7607	869.8359	63930.45	63018.25
842.9058	871.8789	63865.65	62955.1
843.0509	873.9212	63905.15	62960.4
843.1961	875.9629	63883.3	62971.65
843.3412	878.0039	63900.7	62990
843.4863	880.0441	63857.95	62944.95
843.6315	882.0837	63858.1	62949.7
843.7766	884.1226	63862.15	62948.65
843.9218	886.1609	63871.7	62960.95
844.0669	888.1984	63859.15	62947.2
844.212	890.2352	63871.85	62959.45
844.3572	892.2714	63825.35	62910.4
844.5023	894.3069	63852.7	62940.9
844.6475	896.3416	63819.3	62905.15
844.7926	898.3757	63809.1	62895.65
844.9377	900.4091	63778	62864.7
845.0829	902.4418	63819.35	62901.95
845.228	904.4739	63777.7	62862
845.3732	906.5052	63773.15	62860.15
845.5183	908.5358	63767.65	62851.6
845.6635	910.5658	63744.5	62827.8
845.8086	912.595	63728.5	62815.65
845.9538	914.6236	63697.15	62780.9
846.0989	916.6515	63753.05	62842.45
846.2441	918.6786	63670.15	62754.55
846.3892	920.7051	63682.1	62767
846.5344	922.7309	63672.5	62760.15
846.6795	924.756	63679	62764.8
846.8246	926.7804	63650.65	62733.25
846.9698	928.8041	63616.6	62703.7
847.1149	930.8272	63618.2	62704.5
847.2601	932.8495	63615.35	62699.45
847.4052	934.8711	63580.35	62663.6
847.5504	936.892	63576.5	62660.65
847.6955	938.9123	63553.7	62635.7
847.8407	940.9318	63543.15	62629.55
847.9858	942.9506	63546.4	62632.1
848.131	944.9688	63531.7	62616.9
848.2761	946.9862	63503.65	62590.3
848.4213	949.003	63499.2	62582.6
848.5664	951.019	63455.85	62539.8
848.7115	953.0344	63443.25	62525
848.8567	955.0491	63432.35	62514.4
849.0018	957.063	63443.2	62529.2
849.147	959.0763	63440.5	62524.8
849.2921	961.0888	63422.05	62506.55
849.4373	963.1007	63420.9	62507.15
849.5824	965.1119	63426.25	62515.6
849.7275	967.1223	63405.1	62497.2
849.8727	969.1321	63399.75	62489.85
850.0178	971.1412	63376.5	62466.25
850.1629	973.1495	63366.95	62453.7
850.3081	975.1572	63376.45	62422.5
850.4532	977.1641	63367.5	62451.1
850.5983	979.1704	63344.15	62427.55
850.7435	981.1759	63318.15	62397.65
850.8886	983.1808	63307.6	62389.7
851.0337	985.1849	63305.45	62374.35
851.1788	987.1884	63312.8	62396.05
851.324	989.1911	63313.1	62395.15
851.4691	991.1932	63244.75	62328.9
851.6142	993.1945	63243.15	62330.4
851.7593	995.1951	63241.5	62324.7
851.9045	997.1951	63208.05	62287.75
852.0496	999.1943	63190.55	62276.8
852.1947	1001.1928	63156.05	62239
852.3398	1003.1906	63157	62240.75
852.4849	1005.1877	63072.55	62155.25
852.63	1007.1841	63048.95	62131.8
852.7751	1009.1798	63024.7	62106.4
852.9202	1011.1748	63046.45	62130.55
853.0653	1013.1691	63021.45	62102.85
853.2104	1015.1627	62892.2	61975.15
853.3555	1017.1556	62931.55	62016.35
853.5006	1019.1477	62950.4	62036.35
853.6457	1021.1392	62865.15	61954.7
853.7908	1023.1299	62776.95	61865.95
853.9359	1025.12	62819.45	61912.3
854.081	1027.1093	62767.85	61864.7
854.2261	1029.0979	62746.35	61847
854.3712	1031.0859	62739.45	61837.6
854.5163	1033.0731	62679.05	61770.85
854.6613	1035.0596	62691.1	61779.75
854.8064	1037.0454	62656.6	61744.65
854.9515	1039.0304	62625.4	61712.1
855.0965	1041.0148	62550.7	61635.4
855.2416	1042.9985	62525.4	61609.95
855.3867	1044.9814	62571	61657
855.5317	1046.9636	62502.95	61587.7
855.6768	1048.9452	62502.8	61588.05
855.8219	1050.926	62470.75	61556.05
855.9669	1052.9061	62463.7	61549.95
856.112	1054.8855	62465.75	61553.3
856.257	1056.8642	62447.5	61533.75
856.4021	1058.8421	62389.5	61469
856.5471	1060.8194	62398.75	61480.95
856.6921	1062.7959	62367.15	61453.7
856.8372	1064.7717	62383.35	61463.4
856.9822	1066.7469	62352.35	61430.55
857.1272	1068.7213	62345.7	61431.1
857.2723	1070.695	62309.75	61397.05
857.4173	1072.6679	62273.05	61357.05
857.5623	1074.6402	62306.2	61388.65
857.7073	1076.6117	62265.3	61345
857.8523	1078.5826	62269.2	61354.7
857.9973	1080.5527	62268.65	61350.55
858.1423	1082.5221	62215.15	61301.05
858.2873	1084.4908	62191.25	61275.75
858.4323	1086.4587	62167.8	61250.3
858.5773	1088.426	62148.95	61230.9
858.7223	1090.3925	62133.1	61214.15
858.8673	1092.3584	62122	61205.85
859.0123	1094.3235	62086.1	61174.3
859.1573	1096.2879	62093.8	61178.2
859.3022	1098.2515	62069.75	61156.2
859.4472	1100.2145	62077.8	61163.15
859.5922	1102.1767	62036.5	61117.3
859.7371	1104.1382	62057.25	61140.05
859.8821	1106.099	62035.4	61118.2
860.027	1108.0591	62011.45	61092.95
860.172	1110.0185	61959.65	61041.25
860.3169	1111.9771	61993.4	61077.8
860.4619	1113.9351	61942.7	61026.15
860.6068	1115.8923	61925.55	61010.7
860.7517	1117.8488	61904.4	60987.15
860.8967	1119.8045	61864.1	60949.7
861.0416	1121.7596	61864.5	60950.5
861.1865	1123.7139	61816.1	60904.85
861.3314	1125.6675	61830.05	60913.3
861.4763	1127.6204	61832.45	60915.95
861.6212	1129.5726	61795.7	60877.95
861.7661	1131.524	61793.75	60879
861.911	1133.4748	61785.6	60869.05
862.0559	1135.4248	61739.85	60821.65
862.2008	1137.3741	61734.4	60819.15
862.3457	1139.3226	61723.85	60807.8
862.4905	1141.2705	61716.5	60799.75
862.6354	1143.2176	61669.35	60750.9
862.7803	1145.164	61663.7	60746
862.9251	1147.1097	61658.2	60743.35
863.07	1149.0546	61637.6	60720.55
863.2148	1150.9989	61643.75	60726.35
863.3597	1152.9424	61632.25	60715.95
863.5045	1154.8852	61614.95	60698.65
863.6493	1156.8272	61590.05	60677.3
863.7942	1158.7686	61603.75	60679.5
863.939	1160.7092	61551.2	60635.15
864.0838	1162.6491	61528.45	60611.7
864.2286	1164.5883	61547.6	60633.1
864.3734	1166.5267	61508	60590.55
864.5182	1168.4644	61509.25	60593.6
864.663	1170.4014	61508	60587.4
864.8078	1172.3377	61530.75	60618.5
864.9526	1174.2732	61515.25	60602.45
865.0974	1176.2081	61506.15	60590.65
865.2421	1178.1421	61503.85	60583.5
865.3869	1180.0755	61518.2	60604.95
865.5317	1182.0082	61467.1	60555.55
865.6764	1183.9401	61491.1	60579.7
865.8212	1185.8713	61462.6	60550.8
865.9659	1187.8017	61456.45	60549.05
866.1106	1189.7315	61426.4	60523
866.2554	1191.6605	61372.7	60436.7
866.4001	1193.5888	61359.3	60451.9
866.5448	1195.5163	61340.25	60429.85
866.6895	1197.4432	61313.8	60400.65
866.8342	1199.3693	61308.45	60396.7
866.9789	1201.2947	61276.4	60363.2
867.1236	1203.2193	61249.1	60334.5
867.2683	1205.1432	61243.05	60327.1
867.413	1207.0664	61209.85	60294.15
867.5576	1208.9889	61199.75	60285.1
867.7023	1210.9106	61195	60282.4
867.847	1212.8316	61187.55	60274.95
867.9916	1214.7519	61150.15	60229.35
868.1363	1216.6715	61111.1	60198.7
868.2809	1218.5903	61114.15	60202.9
868.4255	1220.5084	61104.8	60191.1
868.5701	1222.4257	61109.4	60196.35
868.7148	1224.3424	61087.85	60177.2
868.8594	1226.2583	61068.9	60150.95
869.004	1228.1735	61067.25	60152.4
869.1486	1230.0879	61031	60117.55
869.2932	1232.0016	61023.4	60111.3
869.4377	1233.9146	61016.2	60099.8
869.5823	1235.8269	60983.6	60071.95
869.7269	1237.7384	60987.45	60074.6
869.8715	1239.6492	60943.3	60030.6
870.016	1241.5592	60937.5	60023.9
870.1606	1243.4686	60930.45	60016.25
870.3051	1245.3772	60930.35	60017.75
870.4496	1247.285	60901.55	59989.35
870.5941	1249.1922	60904.5	59992.9
870.7387	1251.0986	60895.15	59983.15
870.8832	1253.0042	60847.6	59938
871.0277	1254.9092	60872.7	59961.25
871.1722	1256.8134	60838.2	59929.4
871.3167	1258.7169	60828.35	59914.2
871.4611	1260.6196	60822.55	59911.9
871.6056	1262.5216	60832.75	59920.3
871.7501	1264.4229	60816	59907.45
871.8945	1266.3234	60843.85	59931.7
872.039	1268.2232	60817.9	59904.75
872.1834	1270.1223	60806.1	59892.35
872.3278	1272.0207	60793.1	59879.8
872.4723	1273.9183	60776.3	59858.75
872.6167	1275.8151	60753.15	59841.35
872.7611	1277.7113	60744.45	59833.1
872.9055	1279.6067	60748	59836.05
873.0499	1281.5014	60716.2	59802.75
873.1943	1283.3953	60693.45	59778.1
873.3386	1285.2885	60709.35	59797.25
873.483	1287.181	60716.6	59803.65
873.6274	1289.0727	60722.3	59813.8
873.7717	1290.9637	60710.55	59797.9
873.9161	1292.854	60707.7	59795.6
874.0604	1294.7435	60708.7	59797.5
874.2047	1296.6323	60700.6	59788.85
874.349	1298.5204	60687.7	59774.05
874.4933	1300.4077	60687.7	59773.75
874.6376	1302.2943	60668.45	59757.65
874.7819	1304.1802	60654.85	59744.2
874.9262	1306.0653	60627.25	59713.2
875.0705	1307.9497	60602	59689.4
875.2147	1309.8333	60575.55	59665.1
875.359	1311.7162	60569.35	59655.85
875.5032	1313.5984	60583.4	59669.6
875.6475	1315.4798	60534.9	59611.2
875.7917	1317.3605	60522.55	59594.15
875.9359	1319.2405	60533.45	59619.3
876.0801	1321.1197	60446.4	59534.85
876.2243	1322.9982	60476.45	59556.95
876.3685	1324.876	60428.2	59516.8
876.5127	1326.753	60398.35	59487.35
876.6569	1328.6293	60455.45	59542.25
876.801	1330.5048	60407.7	59492.3
876.9452	1332.3796	60339.7	59429.85
877.0893	1334.2537	60320.8	59384.85
877.2335	1336.127	60360.85	59447.2
877.3776	1337.9996	60307.15	59395.65
877.5217	1339.8714	60354.4	59440.7
877.6658	1341.7426	60227.5	59271.6
877.8099	1343.6129	60286.45	59372.5
877.954	1345.4826	60295.9	59380.65
878.0981	1347.3515	60184.1	59267.85
878.2422	1349.2196	60238.95	59325.5
878.3862	1351.087	60226.4	59312.7
878.5303	1352.9537	60225.05	59308.25
878.6743	1354.8197	60216.75	59302.6
878.8184	1356.6849	60209.35	59295.7
878.9624	1358.5493	60202.5	59291.6
879.1064	1360.4131	60140.2	59226.6
879.2504	1362.276	60217.8	59307.05
879.3944	1364.1383	60116.95	59206.95
879.5384	1365.9998	60048.5	59132.3
879.6823	1367.8606	60083.85	59169.4
879.8263	1369.7206	60017.55	59104.95
879.9702	1371.5799	59974.8	59061.45
880.1142	1373.4384	59932	59018.95
880.2581	1375.2962	59926.05	59012.55
880.402	1377.1533	59705.25	58793.7
880.5459	1379.0096	59657.2	58747.2
880.6898	1380.8652	59625.65	58718.05
880.8337	1382.7201	59541.6	58634.05
880.9776	1384.5742	59584.15	58675.3
881.1215	1386.4275	59329.05	58417.8
881.2653	1388.2802	59400.65	58489.85
881.4092	1390.132	59483.05	58570.05
881.553	1391.9832	59255.05	58340.9
881.6968	1393.8336	59148.5	58234.05
881.8406	1395.6832	59205.35	58293.05
881.9844	1397.5322	59238.05	58327.5
882.1282	1399.3803	59055	58135.6
882.272	1401.2278	59037.2	58124.3
882.4158	1403.0745	58982.45	58074.45
882.5595	1404.9204	58970.55	58062.9
882.7033	1406.7656	58956.5	58047.1
882.847	1408.6101	58805.75	57893.15
882.9908	1410.4538	58846.9	57930.55
883.1345	1412.2968	58838.65	57926.25
883.2782	1414.139	58700.7	57789.9
883.4219	1415.9805	58740.7	57830.85
883.5656	1417.8213	58631.5	57713.35
883.7092	1419.6613	58711.1	57799.3
883.8529	1421.5006	58616.35	57706.4
883.9965	1423.3391	58554.4	57642.3
884.1402	1425.1769	58582.9	57671.75
884.2838	1427.0139	58680.05	57766.45
884.4274	1428.8502	58623.75	57712.85
884.571	1430.6858	58647	57739.45
884.7146	1432.5206	58739.4	57830.2
884.8582	1434.3547	58618.5	57706.65
885.0018	1436.188	58543.2	57634.75
885.1453	1438.0206	58612.85	57702.55
885.2889	1439.8524	58563.6	57654.2
885.4324	1441.6835	58467.15	57556.85
885.5759	1443.5139	58538.05	57625.45
885.7194	1445.3435	58431.55	57521.65
885.8629	1447.1724	58448.3	57540.55
886.0064	1449.0005	58302.7	57394.85
886.1499	1450.8279	58376	57465.6
886.2933	1452.6545	58376.1	57470.4
886.4368	1454.4804	58319.75	57410.45
886.5802	1456.3056	58230	57312.6
886.7237	1458.13	58266.8	57359.9
886.8671	1459.9536	58325.05	57418.3
887.0105	1461.7766	58197.5	57286.5
887.1539	1463.5987	58048.75	57137.8
887.2972	1465.4202	58058.6	57149.55
887.4406	1467.2409	57999.3	57090.15
887.584	1469.0608	57870.55	56960.25
887.7273	1470.88	57857.95	56950.3
887.8706	1472.6984	57841.6	56934.9
888.0139	1474.5161	57671	56757.75
888.1572	1476.3331	57698.3	56790.5
888.3005	1478.1493	57600.75	56688.25
888.4438	1479.9648	57558.65	56649.65
888.5871	1481.7795	57635.05	56726.05
888.7303	1483.5935	57605.2	56697.8
888.8736	1485.4067	57488.6	56581.7
889.0168	1487.2192	57503.45	56596.35
889.16	1489.031	57442.3	56533.85
889.3032	1490.842	57447.75	56537.65
889.4464	1492.6522	57445.65	56534.2
889.5896	1494.4618	57360.45	56451.3
889.7327	1496.2705	57393.5	56484.65
889.8759	1498.0785	57168.25	56259.8
890.019	1499.8858	57262.95	56355.15
890.1622	1501.6924	57306.25	56397.85
890.3053	1503.4981	57195.05	56288.1
890.4484	1505.3032	57212.4	56301.65
890.5914	1507.1075	57081.65	56175.2
890.7345	1508.911	57106.25	56199.8
890.8776	1510.7138	57092.1	56181.9
891.0206	1512.5159	57077.4	56167.95
891.1637	1514.3172	56755.85	55849.55
891.3067	1516.1178	56846.45	55940.85
891.4497	1517.9176	56916.7	56006.55
891.5927	1519.7166	56787.15	55878.8
891.7357	1521.515	56704.85	55792
891.8786	1523.3126	56459	55552.3
892.0216	1525.1094	56681.65	55772.25
892.1645	1526.9055	56512.55	55607
892.3074	1528.7008	56517.1	55611.25
892.4503	1530.4954	56206.2	55296.55
892.5932	1532.2893	56442.4	55538.6
892.7361	1534.0824	56130.35	55222.65
892.879	1535.8747	55960.6	55056.45
893.0218	1537.6663	56402.6	55498.45
893.1647	1539.4572	55516	54609.55
893.3075	1541.2473	55837	54931.15
893.4503	1543.0367	55738.85	54834.35
893.5931	1544.8253	55640.35	54731.7
893.7359	1546.6132	55755.1	54848.55
893.8787	1548.4003	55503.55	54588.9
894.0214	1550.1867	55387.95	54475.45
894.1642	1551.9723	55301.05	54392.15
894.3069	1553.7572	55382.45	54479.8
894.4496	1555.5414	55518.7	54617.2
894.5923	1557.3247	54888.2	53985.5
894.735	1559.1074	55402.9	54501
894.8777	1560.8893	55115.55	54215.7
895.0204	1562.6705	55194.75	54295
895.163	1564.4509	54821.65	53923.55
895.3056	1566.2305	54979.75	54081.75
895.4482	1568.0094	55266.35	54367
895.5908	1569.7876	55039.75	54139.25
895.7334	1571.565	54704.2	53804.3
895.876	1573.3417	54855.2	53953.55
896.0186	1575.1176	54746.8	53847.5
896.1611	1576.8928	54623	53726.5
896.3036	1578.6672	54402.4	53506.65
896.4461	1580.4409	54507.05	53613.45
896.5886	1582.2138	54242.45	53342.85
896.7311	1583.986	54335.35	53434.45
896.8736	1585.7575	54075	53176.25
897.0161	1587.5282	54177.55	53282.5
897.1585	1589.2981	54218.05	53323.75
897.3009	1591.0673	53971.15	53075.3
897.4433	1592.8358	53819.85	52922.95
897.5857	1594.6035	54035.65	53136.7
897.7281	1596.3704	54037.75	53136.45
897.8705	1598.1366	53637.8	52740.9
898.0128	1599.9021	53432.9	52535.45
898.1551	1601.6668	53711.15	52811.1
898.2975	1603.4308	53538.3	52636.45
898.4398	1605.194	53693.8	52791.45
898.5821	1606.9564	53198.7	52305
898.7243	1608.7182	53514.8	52618.75
898.8666	1610.4791	53303	52415.4
899.0088	1612.2394	53543.15	52654.55
899.1511	1613.9988	53252.35	52361.05
899.2933	1615.7576	53552.8	52658.55
899.4355	1617.5156	53497.15	52594.6
899.5776	1619.2728	53771.65	52873.2
899.7198	1621.0293	53220.4	52324.95
899.862	1622.785	53158.25	52260.45
900.0041	1624.54	53193.7	52296.15
900.1462	1626.2942	52909.05	52013.1
900.2883	1628.0477	52329.9	51435.4
900.4304	1629.8005	51995.9	51098.6
900.5725	1631.5525	52304.05	51411.5
900.7145	1633.3037	51633.2	50739.8
900.8566	1635.0542	51591.3	50698.15
900.9986	1636.804	51743.8	50850.1
901.1406	1638.553	51235.15	50295.95
901.2826	1640.3013	51358.2	50464.3
901.4245	1642.0488	51012.65	50118.8
901.5665	1643.7955	51228.95	50338.25
901.7085	1645.5416	50971.45	50080.4
901.8504	1647.2868	50792.45	49900.75
901.9923	1649.0313	51184.6	50290.4
902.1342	1650.7751	50907.65	50009.5
902.2761	1652.5181	50728.3	49836.05
902.4179	1654.2604	50655.15	49762.45
902.5598	1656.0019	50836.7	49944.75
902.7016	1657.7427	50711.85	49817.05
902.8434	1659.4828	50921.25	50027.75
902.9852	1661.222	50684.75	49790.4
903.127	1662.9606	50824.8	49928.95
903.2687	1664.6984	50491.7	49596.95
903.4105	1666.4354	50448.6	49552.4
903.5522	1668.1717	49874.35	48978.65
903.6939	1669.9072	49429.2	48533.5
903.8356	1671.642	49233.45	48333.9
903.9773	1673.3761	49021.95	48126.8
904.119	1675.1094	48795.95	47901.85
904.2606	1676.8419	48464.4	47571.3
904.4022	1678.5737	48424.05	47528.5
904.5439	1680.3048	48174.8	47279.9
904.6855	1682.0351	47968.1	47073.35
904.827	1683.7646	47809.9	46914.2
904.9686	1685.4934	47810.3	46915.9
905.1101	1687.2215	47361.35	46466.25
905.2517	1688.9488	47507.9	46615.55
905.3932	1690.6754	46898.75	46007.95
905.5347	1692.4012	47070.15	46177
905.6761	1694.1263	46980.6	46086.7
905.8176	1695.8506	46823.5	45929.55
905.9591	1697.5742	46692.05	45799.9
906.1005	1699.297	46525.45	45635.15
906.2419	1701.0191	46441.35	45550.75
906.3833	1702.7404	46210.4	45320.7
906.5246	1704.461	46016.85	45124.25
906.666	1706.1808	45933.25	45038.95
906.8073	1707.8999	45874.2	44983.2
906.9487	1709.6182	45713.1	44823
907.09	1711.3358	45654.25	44765.4
907.2313	1713.0527	45513.55	44625.5
907.3725	1714.7688	45447.65	44554.3
907.5138	1716.4841	45160.75	44268.3
907.655	1718.1987	45233.1	44335.85
907.7962	1719.9126	45127.3	44235.75
907.9374	1721.6257	44971.2	44080.65
908.0786	1723.338	45004.2	44113.35
908.2198	1725.0496	44667.4	43777.3
908.3609	1726.7605	44644.65	43753.35
908.502	1728.4706	44520.1	43629
908.6431	1730.18	44350.25	43459.75
908.7842	1731.8886	44261.9	43373.05
908.9253	1733.5964	44222.6	43328.5
909.0664	1735.3036	44175.85	43284.85
909.2074	1737.0099	44080.1	43191.45
909.3484	1738.7156	43960.5	43073.55
909.4894	1740.4204	43767.65	42876.2
909.6304	1742.1246	43760.7	42867.65
909.7714	1743.8279	43690.15	42801.9
909.9123	1745.5306	43697.8	42809.85
910.0532	1747.2325	43371.2	42482
910.1941	1748.9336	43278.15	42390.2
910.335	1750.634	43232.65	42342.3
910.4759	1752.3336	43207.1	42316.65
910.6168	1754.0325	43004	42117.2
910.7576	1755.7307	43089	42201.1
910.8984	1757.4281	42906.15	42017.8
911.0392	1759.1247	42977	42074.35
911.18	1760.8206	42676.4	41779.75
911.3208	1762.5158	42673.7	41778.45
911.4615	1764.2102	42572.75	41684.15
911.6022	1765.9039	42469.15	41582.6
911.7429	1767.5968	42294	41406.7
911.8836	1769.289	42187.3	41299.35
912.0243	1770.9804	42165.5	41277.2
912.1649	1772.6711	42119.45	41228.5
912.3056	1774.361	41987.8	41095.9
912.4462	1776.0502	41972.6	41080.35
912.5868	1777.7386	41703.75	40810.35
912.7274	1779.4263	41728.2	40838.2
912.8679	1781.1132	41701.15	40813.1
913.0084	1782.7994	41605.2	40718.65
913.149	1784.4849	41538.6	40651.25
913.2895	1786.1696	41229.9	40337.25
913.4299	1787.8535	41310.8	40423.2
913.5704	1789.5367	41211.95	40324.45
913.7108	1791.2192	41060.35	40172.15
913.8513	1792.9009	40878.55	39959.5
913.9917	1794.5818	40879.7	39990.7
914.132	1796.2621	40706.45	39818.1
914.2724	1797.9415	40641.15	39752.6
914.4128	1799.6202	40599.7	39710.85
914.5531	1801.2982	40490.5	39604
914.6934	1802.9755	40310.85	39419.95
914.8337	1804.6519	40224.95	39335.2
914.9739	1806.3277	40242.25	39356.2
915.1142	1808.0027	39908.4	39024.05
915.2544	1809.6769	40017.55	39130.4
915.3946	1811.3504	39921.2	39034.95
915.5348	1813.0231	39656.9	38769.45
915.675	1814.6951	39755.85	38869
915.8151	1816.3664	39651.1	38761.5
915.9553	1818.0369	39579.15	38691.6
916.0954	1819.7067	39403.55	38515.2
916.2355	1821.3757	39446.5	38556.1
916.3755	1823.044	39240.85	38351.05
916.5156	1824.7115	39095.6	38206.45
916.6556	1826.3783	39032.65	38145
916.7956	1828.0443	38935.6	38049.8
916.9356	1829.7096	38848.7	37959.65
917.0756	1831.3741	38722.65	37832.85
917.2155	1833.0379	38700.05	37814.4
917.3555	1834.701	38606.4	37718.65
917.4954	1836.3633	38487	37600.3
917.6353	1838.0248	38434.4	37545.95
917.7751	1839.6856	38381.7	37493.05
917.915	1841.3457	38264.45	37377.45
918.0548	1843.005	38291.85	37403.55
918.1946	1844.6636	38168.25	37282.1
918.3344	1846.3214	37954.85	37063.9
918.4742	1847.9785	37985.15	37096.6
918.6139	1849.6349	37854.65	36966.45
918.7537	1851.2904	37898.25	36998.7
918.8934	1852.9453	37700	36808.9
919.0331	1854.5994	37613.7	36722.85
919.1727	1856.2528	37650.85	36755.15
919.3124	1857.9054	37500.3	36612.35
919.452	1859.5572	37377.45	36488.7
919.5916	1861.2083	37375.15	36487.5
919.7312	1862.8587	37485.2	36594
919.8708	1864.5084	37150.85	36259.35
920.0103	1866.1572	37148.35	36261.55
920.1498	1867.8054	36898.55	36006.8
920.2893	1869.4528	36918.6	36027.75
920.4288	1871.0994	36780.45	35888.8
920.5683	1872.7453	36731.6	35842.55
920.7077	1874.3905	36681.1	35788.3
920.8471	1876.0349	36521.85	35633
920.9865	1877.6786	36538.55	35647.5
921.1259	1879.3215	36412.75	35523.65
921.2653	1880.9637	36442.7	35552.65
921.4046	1882.6051	36370.4	35483.4
921.5439	1884.2458	36205.65	35316.15
921.6832	1885.8858	36063.65	35173.95
921.8225	1887.525	36064.4	35176.5
921.9617	1889.1634	35910.1	35020.7
922.101	1890.8011	35819.2	34929.3
922.2402	1892.4381	35662.05	34774.7
922.3794	1894.0743	35728.7	34840.35
922.5185	1895.7098	35597.95	34707.05
922.6577	1897.3446	35508.6	34619.6
922.7968	1898.9786	35473.05	34580.9
922.9359	1900.6118	35319.5	34432.5
923.075	1902.2443	35113.8	34224.4
923.214	1903.8761	35073.75	34185.4
923.3531	1905.5071	34890.3	34002.15
923.4921	1907.1374	34755.55	33868.05
923.6311	1908.7669	34762.45	33874.05
923.77	1910.3957	34761.95	33874.55
923.909	1912.0237	34504.6	33618.8
924.0479	1913.651	34424.9	33534.25
924.1868	1915.2776	34336.45	33449.45
924.3257	1916.9034	34204.25	33318.55
924.4646	1918.5285	34054.1	33166.8
924.6034	1920.1528	33881.75	32993.5
924.7422	1921.7764	33894.75	33007.65
924.881	1923.3992	33694.6	32808.15
925.0198	1925.0213	33531.7	32643.75
925.1586	1926.6427	33395.85	32508.45
925.2973	1928.2633	33535.9	32436.5
925.436	1929.8832	33286.45	32394.35
925.5747	1931.5023	33123.9	32235.75
925.7134	1933.1207	33017.3	32126.9
925.852	1934.7383	33014.65	32126.65
925.9906	1936.3552	32844.75	31958.75
926.1292	1937.9714	32769.05	31881
926.2678	1939.5868	32677.7	31787.9
926.4064	1941.2015	32495.55	31607.95
926.5449	1942.8154	32393.1	31503.9
926.6834	1944.4286	32282.65	31392.95
926.8219	1946.041	32181.4	31269.5
926.9604	1947.6528	31961.05	31068.15
927.0988	1949.2637	31907.7	31020.5
927.2372	1950.8739	31810.8	30923.1
927.3756	1952.4834	31831.9	30945
927.514	1954.0921	31697.95	30809.15
927.6523	1955.7001	31582.6	30691.2
927.7907	1957.3074	31516.2	30631.35
927.929	1958.9139	31332.65	30448.6
928.0673	1960.5197	31285.65	30397.9
928.2055	1962.1247	31115.65	30228.35
928.3438	1963.729	30994.85	30109.6
928.482	1965.3325	30866.4	29958.15
928.6202	1966.9353	30753.9	29868.3
928.7584	1968.5374	30653	29767.65
928.8965	1970.1387	30602.4	29716.95
929.0346	1971.7393	30451	29565.2
929.1727	1973.3392	30379.4	29494.75
929.3108	1974.9383	30249.35	29366.3
929.4489	1976.5366	30103.2	29217.85
929.5869	1978.1342	30125.1	29239.7
929.7249	1979.7311	30009.95	29125.25
929.8629	1981.3273	29920.65	29034.15
930.0009	1982.9227	29810.55	28924.85
930.1388	1984.5173	29724.55	28841.55
930.2767	1986.1112	29603.45	28718.35
930.4146	1987.7044	29541.9	28660.1
930.5525	1989.2968	29438.6	28555.3
930.6904	1990.8885	29412.95	28528.1
930.8282	1992.4795	29297.3	28412.3
930.966	1994.0697	29177.2	28293.55
931.1038	1995.6592	29097.3	28213.75
931.2415	1997.2479	29033	28148.65
931.3793	1998.8359	28945.35	28060.45
931.517	2000.4232	28853.85	27973.35
931.6547	2002.0097	28752.55	27872.25
931.7923	2003.5955	28649.45	27765.9
931.93	2005.1805	28588.4	27705.4
932.0676	2006.7648	28480.05	27599.4
932.2052	2008.3484	28414.7	27530.9
932.3427	2009.9312	28425.15	27540.15
932.4803	2011.5133	28311.85	27433.15
932.6178	2013.0946	28193.65	27312.3
932.7553	2014.6752	28104.2	27222.85
932.8928	2016.2551	28076.8	27192.55
933.0302	2017.8342	27961.65	27077.95
933.1676	2019.4126	27862	26982.75
933.305	2020.9902	27735.7	26855.7
933.4424	2022.5672	27662.2	26780.45
933.5798	2024.1433	27559.65	26674.6
933.7171	2025.7188	27514.75	26637.1
933.8544	2027.2935	27453.35	26569.95
933.9917	2028.8674	27302.85	26422.6
934.129	2030.4406	27189.7	26310.4
934.2662	2032.0131	27137.45	26258.5
934.4034	2033.5849	27037.9	26153.25
934.5406	2035.1559	26976	26096.85
934.6778	2036.7261	26944.3	26062.55
934.8149	2038.2957	26861	25978.3
934.952	2039.8645	26778.9	25897.1
935.0891	2041.4325	26833.95	25947.3
935.2262	2042.9998	26655	25772.25
935.3632	2044.5664	26664.9	25781.2
935.5002	2046.1323	26515.65	25636.4
935.6372	2047.6974	26438.85	25557.05
935.7742	2049.2617	26362.3	25482.5
935.9111	2050.8254	26357	25470.85
936.048	2052.3883	26302.65	25419
936.1849	2053.9504	26206.2	25322.05
936.3218	2055.5118	26139.5	25257.15
936.4586	2057.0725	25986.15	25100.8
936.5955	2058.6325	25933.3	25053.15
936.7323	2060.1917	25885.65	25004.2
936.869	2061.7502	25849.1	24966.35
937.0058	2063.3079	25716.5	24837.4
937.1425	2064.8649	25630.15	24743.95
937.2792	2066.4212	25558	24675.15
937.4159	2067.9767	25469.85	24588.8
937.5525	2069.5315	25399.7	24519.1
937.6891	2071.0856	25268.05	24385
937.8257	2072.6389	25182.85	24301.65
937.9623	2074.1915	25068.5	24190.75
938.0989	2075.7433	24965.05	24081.15
938.2354	2077.2945	24926.65	24045.1
938.3719	2078.8448	24857	23974.4
938.5084	2080.3945	24761.3	23879.5
938.6448	2081.9434	24716.1	23832.95
938.7812	2083.4916	24657.4	23773.5
938.9176	2085.039	24599	23713.6
939.054	2086.5857	24490.45	23603.1
939.1903	2088.1317	24472.25	23586
939.3267	2089.677	24362.2	23476.7
939.463	2091.2215	24316.1	23430.6
939.5992	2092.7652	24239.65	23350.7
939.7355	2094.3083	24213.45	23329.5
939.8717	2095.8506	24172.25	23286.65
940.0079	2097.3921	24132.35	23249.2
940.1441	2098.933	24063.7	23181.8
940.2802	2100.4731	23953.35	23071.15
940.4163	2102.0124	23898	22996.15
940.5524	2103.5511	23843	22959.95
940.6885	2105.089	23826.9	22942.65
940.8245	2106.6261	23724.95	22842
940.9606	2108.1626	23671.4	22783.5
941.0965	2109.6983	23650.8	22737.85
941.2325	2111.2332	23588.1	22702.65
941.3684	2112.7675	23473.5	22588.4
941.5044	2114.301	23434.55	22550.05
941.6403	2115.8337	23376.3	22493.25
941.7761	2117.3657	23252.55	22368.85
941.912	2118.897	23288.25	22404.6
942.0478	2120.4276	23205	22312.35
942.1835	2121.9575	23092.05	22208.2
942.3193	2123.4866	23085.05	22188.95
942.455	2125.0149	23042	22154.9
942.5907	2126.5426	22846.6	21965.45
942.7264	2128.0695	22823.15	21937.15
942.8621	2129.5956	22795.9	21915.85
942.9977	2131.1211	22782.55	21896.4
943.1333	2132.6458	22689.95	21808.85
943.2689	2134.1698	22622.85	21738.45
943.4044	2135.693	22560.5	21672.05
943.54	2137.2155	22506.1	21617.95
943.6755	2138.7373	22464.3	21578.2
943.8109	2140.2584	22402	21519.15
943.9464	2141.7787	22305.2	21419.45
944.0818	2143.2983	22168.5	21288.85
944.2172	2144.8171	22091.05	21210.7
944.3526	2146.3353	22065.4	21181.25
944.4879	2147.8527	21950.75	21072.3
944.6232	2149.3693	21946.45	21060.75
944.7585	2150.8853	21865.1	20982.9
944.8938	2152.4005	21736.65	20851.95
945.029	2153.9149	21715.35	20830.1
945.1642	2155.4287	21681.7	20796.15
945.2994	2156.9417	21627.8	20742
945.4346	2158.454	21548.85	20664.35
945.5697	2159.9655	21492.5	20610.95
945.7048	2161.4764	21474.5	20592.4
945.8399	2162.9865	21361.85	20478.6
945.9749	2164.4958	21313.4	20429.95
946.1099	2166.0045	21242.9	20357.1
946.2449	2167.5124	21225.4	20342.2
946.3799	2169.0195	21128.05	20244.1
946.5148	2170.526	21090.55	20204.45
946.6498	2172.0317	21037.9	20153.55
946.7846	2173.5367	21019.75	20135.15
946.9195	2175.0409	20930.45	20046.95
947.0543	2176.5445	20930.25	20048.6
947.1891	2178.0473	20810.45	19924.95
947.3239	2179.5494	20724.2	19835
947.4587	2181.0507	20635	19753.55
947.5934	2182.5513	20568.05	19683.65
947.7281	2184.0512	20535.6	19651.4
947.8628	2185.5504	20472.85	19587.3
947.9974	2187.0488	20372.25	19489.25
948.132	2188.5465	20334.4	19453.6
948.2666	2190.0435	20223.45	19339.65
948.4012	2191.5397	20201.7	19317.7
948.5357	2193.0353	20114.25	19231.95
948.6702	2194.5301	20025.95	19136.85
948.8047	2196.0241	19990.9	19104.4
948.9392	2197.5175	19952.3	19064.4
949.0736	2199.0101	19808.55	18918.6
949.208	2200.502	19750.05	18866.4
949.3424	2201.9931	19683.7	18799.4
949.4767	2203.4835	19615.85	18734.6
949.611	2204.9733	19585.95	18698.65
949.7453	2206.4622	19518.7	18637.4
949.8796	2207.9505	19431.85	18545.95
950.0138	2209.438	19363.9	18483.1
950.148	2210.9248	19328.05	18444
950.2822	2212.4109	19228	18345.8
950.4164	2213.8962	19145.25	18257.9
950.5505	2215.3809	19124.5	18236.85
950.6846	2216.8648	19050.1	18162.55
950.8186	2218.3479	19011.95	18119.95
950.9527	2219.8304	18943.95	18053.5
951.0867	2221.3121	18882.05	17993.4
951.2207	2222.7931	18821.2	17935.5
951.3546	2224.2733	18767.95	17882.65
951.4886	2225.7529	18685.9	17803.45
951.6225	2227.2317	18640.5	17754.6
951.7563	2228.7098	18624.05	17743.05
951.8902	2230.1872	18505.3	17624.6
952.024	2231.6638	18479.5	17598.1
952.1578	2233.1397	18372.6	17484.35
952.2916	2234.6149	18332.6	17450.7
952.4253	2236.0894	18269.3	17385.2
952.559	2237.5632	18231.65	17339.9
952.6927	2239.0362	18146.1	17262.5
952.8263	2240.5085	18094.35	17211.3
952.9599	2241.9801	18036.65	17149.95
953.0935	2243.4509	17993.55	17109.5
953.2271	2244.921	17933.6	17047.2
953.3606	2246.3904	17853.45	16965.85
953.4941	2247.8591	17797.75	16912.4
953.6276	2249.3271	17760.4	16874.75
953.7611	2250.7943	17679.05	16793.6
953.8945	2252.2608	17626.3	16738.55
954.0279	2253.7266	17580	16694.8
954.1612	2255.1917	17503.95	16620.5
954.2946	2256.656	17429.85	16546.45
954.4279	2258.1197	17372.85	16489.4
954.5612	2259.5826	17335.6	16452.25
954.6944	2261.0447	17330.6	16446
954.8276	2262.5062	17226.1	16340
954.9608	2263.9669	17190.8	16305.05
955.094	2265.4269	17174.75	16290.3
955.2271	2266.8862	17116.5	16234.15
955.3602	2268.3448	17075	16191.6
955.4933	2269.8026	17065.5	16181.15
955.6264	2271.2598	16998.85	16115.85
955.7594	2272.7162	16943.1	16062.1
955.8924	2274.1719	16915.65	16031.75
956.0253	2275.6268	16833.2	15946.6
956.1583	2277.0811	16785.1	15898.9
956.2912	2278.5346	16758.05	15874.05
956.4241	2279.9874	16747.85	15862.3
956.5569	2281.4395	16717.9	15836.3
956.6897	2282.8908	16624.35	15737.75
956.8225	2284.3414	16615.6	15729.2
956.9553	2285.7914	16525.65	15640.9
957.088	2287.2406	16467.1	15578.2
957.2207	2288.689	16409.1	15523.3
957.3534	2290.1368	16379.3	15488.2
957.486	2291.5838	16305.85	15415.35
957.6186	2293.0302	16292.5	15404.1
957.7512	2294.4758	16192.1	15307.85
957.8838	2295.9206	16145.35	15258.55
958.0163	2297.3648	16113.4	15229.9
958.1488	2298.8082	16111.4	15225.55
958.2813	2300.251	16068.3	15183
958.4137	2301.693	15979.8	15093.7
958.5461	2303.1343	15945	15059.15
958.6785	2304.5748	15874.1	14988.3
958.8108	2306.0147	15810.2	14927.3
958.9432	2307.4538	15782.45	14896.65
959.0754	2308.8922	15746.35	14864.7
959.2077	2310.3299	15710.1	14827.6
959.3399	2311.7669	15650.85	14768.45
959.4721	2313.2031	15577	14692.55
959.6043	2314.6387	15565.75	14680.1
959.7365	2316.0735	15486.05	14601.2
959.8686	2317.5076	15456.05	14572.1
960.0006	2318.941	15400.15	14514.75
960.1327	2320.3737	15389.65	14503.8
960.2647	2321.8056	15339.45	14453
960.3967	2323.2369	15285.55	14398.75
960.5287	2324.6674	15255.15	14369.25
960.6606	2326.0972	15178.8	14292.15
960.7925	2327.5263	15114.1	14229.75
960.9244	2328.9547	15053.2	14167.85
961.0562	2330.3823	15023.2	14138.6
961.1881	2331.8092	15015.5	14126.95
961.3198	2333.2355	14958.1	14073.15
961.4516	2334.661	14932.9	14045.65
961.5833	2336.0858	14907.7	14020.1
961.715	2337.5098	14855.8	13969.45
961.8467	2338.9332	14803.7	13917.9
961.9783	2340.3558	14740.95	13852.85
962.1099	2341.7778	14718	13834.1
962.2415	2343.199	14648.2	13761.35
962.373	2344.6195	14610.7	13727.2
962.5045	2346.0393	14585.05	13701.1
962.636	2347.4583	14551.15	13667.15
962.7675	2348.8767	14461.95	13576.05
962.8989	2350.2943	14468.35	13583.85
963.0303	2351.7113	14437.4	13549.15
963.1617	2353.1275	14411.25	13524.25
963.293	2354.543	14340.3	13444.8
963.4243	2355.9578	14322.95	13436.05
963.5556	2357.3718	14240.25	13355.1
963.6868	2358.7852	14178.55	13290.9
963.818	2360.1978	14110.05	13225.2
963.9492	2361.6098	14094.65	13210.4
964.0803	2363.021	14027.45	13136.35
964.2114	2364.4315	13983.65	13098.3
964.3425	2365.8413	13930.5	13038.9
964.4736	2367.2504	13903.7	13020.4
964.6046	2368.6587	13814.95	12930.85
964.7356	2370.0664	13757.25	12872.35
964.8666	2371.4733	13716.7	12831.95
964.9975	2372.8795	13694.8	12809.95
965.1284	2374.285	13627.9	12744.2
965.2593	2375.6899	13570.4	12687.6
965.3901	2377.0939	13516.05	12632.65
965.5209	2378.4973	13481.35	12596.35
965.6517	2379.9	13443.2	12559.35
965.7825	2381.3019	13384.9	12502.9
965.9132	2382.7032	13349.25	12466.9
966.0439	2384.1037	13311.75	12429.25
966.1745	2385.5035	13265.4	12383.2
966.3051	2386.9027	13251.7	12368.75
966.4357	2388.3011	13206.8	12320.35
966.5663	2389.6987	13164.7	12280.55
966.6968	2391.0957	13109.35	12226.55
966.8273	2392.492	13048.8	12167.6
966.9578	2393.8876	12984.6	12099.6
967.0882	2395.2824	12956.4	12070.8
967.2186	2396.6765	12903.75	12020
967.349	2398.07	12829.25	11944.6
967.4793	2399.4627	12825.1	11939.25
967.6097	2400.8547	12760.15	11874
967.7399	2402.246	12746.45	11855.2
967.8702	2403.6366	12677.9	11791.2
968.0004	2405.0265	12623.45	11738.35
968.1306	2406.4156	12587.85	11697.65
968.2607	2407.8041	12515.7	11627.3
968.3909	2409.1918	12493.45	11605.65
968.521	2410.5789	12424.2	11537.35
968.651	2411.9652	12380.65	11492.6
968.781	2413.3508	12329.55	11443.8
968.911	2414.7358	12300.85	11413.6
969.041	2416.12	12246.75	11360.5
969.1709	2417.5035	12221.5	11338.45
969.3008	2418.8863	12165.65	11278.6
969.4307	2420.2684	12116.5	11233.75
969.5606	2421.6497	12088.8	11202.8
969.6904	2423.0304	12008.95	11123.3
969.8201	2424.4104	11973.65	11089.6
969.9499	2425.7896	11912.75	11025.35
970.0796	2427.1682	11946.2	11061.75
970.2093	2428.546	11901.3	11015.65
970.3389	2429.9232	11867.45	10979.75
970.4685	2431.2996	11822.65	10937.9
970.5981	2432.6753	11776.6	10891.8
970.7277	2434.0503	11744.05	10858
970.8572	2435.4246	11692.5	10806.7
970.9867	2436.7982	11646.3	10758.7
971.1161	2438.1711	11630.5	10745.6
971.2456	2439.5433	11588.85	10704.4
971.375	2440.9148	11543.65	10656.35
971.5043	2442.2856	11505.4	10620.2
971.6336	2443.6557	11434.3	10550.05
971.7629	2445.025	11409.45	10522.05
971.8922	2446.3937	11381.25	10496.5
972.0214	2447.7617	11360.4	10473.1
972.1506	2449.1289	11335.1	10450
972.2798	2450.4955	11283.15	10393.95
972.4089	2451.8613	11271.25	10387.65
972.538	2453.2265	11231.05	10345.7
972.6671	2454.5909	11224.85	10337.2
972.7961	2455.9546	11172.35	10288.3
972.9251	2457.3177	11122.25	10237.3
973.0541	2458.68	11091.8	10206.45
973.1831	2460.0416	11069.95	10185.55
973.312	2461.4025	11057.25	10171.6
973.4408	2462.7627	11002.6	10107.15
973.5697	2464.1222	10952.15	10069.25
973.6985	2465.4811	10946.3	10062.6
973.8273	2466.8392	10909.35	10024.3
973.956	2468.1966	10879.6	9992
974.0847	2469.5533	10864.5	9976.55
974.2134	2470.9093	10832	9948.8
974.3421	2472.2645	10793.7	9906.6
974.4707	2473.6191	10777.5	9893.5
974.5993	2474.973	10703.85	9819.45
974.7278	2476.3262	10692.8	9808.65
974.8563	2477.6787	10627.4	9743
974.9848	2479.0305	10581.8	9698.45
975.1132	2480.3816	10559.9	9673.9
975.2417	2481.7319	10524.15	9642.4
975.37	2483.0816	10468.15	9582.1
975.4984	2484.4306	10444.8	9557.9
975.6267	2485.7789	10375.95	9491.9
975.755	2487.1264	10340.95	9454.95
975.8833	2488.4733	10310	9426.8
976.0115	2489.8195	10280.45	9388.4
976.1397	2491.165	10250.55	9362
976.2678	2492.5097	10229.9	9342.9
976.3959	2493.8538	10160.2	9276.5
976.524	2495.1972	10106.5	9219.8
976.6521	2496.5398	10069.5	9182.55
976.7801	2497.8818	10069.9	9182.75
976.9081	2499.2231	10046.55	9159.65
977.036	2500.5637	10001.2	9113.65
977.164	2501.9035	9972.3	9086.2
977.2918	2503.2427	9936.8	9047.8
977.4197	2504.5812	9897.8	9012.2
977.5475	2505.919	9871.2	8984.55
977.6753	2507.256	9864.05	8977
977.8031	2508.5924	9790.65	8905.5
977.9308	2509.9281	9773.7	8881.35
978.0585	2511.2631	9737.2	8852.65
978.1861	2512.5974	9714.9	8831.1
978.3137	2513.9309	9684.9	8803
978.4413	2515.2638	9666.3	8753.4
978.5689	2516.596	9642.55	8759.05
978.6964	2517.9275	9597.75	8713.25
978.8239	2519.2583	9572.95	8686.25
978.9513	2520.5884	9510.1	8623.45
979.0788	2521.9178	9488.4	8602.65
979.2062	2523.2465	9472.8	8586.75
979.3335	2524.5745	9415.3	8531.15
979.4608	2525.9018	9391.85	8505.3
979.5881	2527.2284	9346.85	8463.85
979.7154	2528.5543	9315.8	8430.95
979.8426	2529.8796	9296.8	8412.45
979.9698	2531.2041	9279.9	8395.9
980.0969	2532.5279	9250	8367.9
980.224	2533.851	9217.25	8330.95
980.3511	2535.1735	9235.1	8351.6
980.4781	2536.4952	9198.2	8314.35
980.6052	2537.8163	9174.7	8290.1
980.7321	2539.1366	9138.4	8254.05
980.8591	2540.4562	9109.75	8221.3
980.986	2541.7752	9094.2	8209.9
981.1129	2543.0935	9075.4	8192.85
981.2397	2544.411	9064.5	8176.7
981.3665	2545.7279	9037.25	8150.95
981.4933	2547.0441	9019.9	8135
981.62	2548.3596	9030.75	8142.35
981.7467	2549.6744	8989.95	8105.85
981.8734	2550.9885	8962.3	8069.25
982.0001	2552.3019	8938.75	8054.8
982.1267	2553.6146	8901.65	8016.45
982.2532	2554.9266	8877.65	7993.25
982.3798	2556.2379	8847.1	7959.45
982.5063	2557.5485	8824.85	7941.35
982.6327	2558.8585	8806.5	7913.4
982.7592	2560.1677	8786.5	7898.3
982.8856	2561.4762	8771.15	7886.3
983.0119	2562.7841	8755.7	7865.5
983.1383	2564.0913	8739.4	7854.4
983.2646	2565.3977	8704.85	7820.15
983.3908	2566.7035	8666.15	7777.7
983.517	2568.0086	8681.8	7794.15
983.6432	2569.313	8683.5	7796.6
983.7694	2570.6167	8664.8	7775.1
983.8955	2571.9197	8594.35	7710.15
984.0216	2573.222	8591.1	7703.15
984.1476	2574.5236	8599.45	7713.6
984.2737	2575.8246	8552.9	7665.45
984.3996	2577.1248	8551.3	7662.5
984.5256	2578.4244	8539.8	7654.7
984.6515	2579.7232	8519.8	7637.2
984.7774	2581.0214	8511.9	7602.65
984.9032	2582.3189	8472.55	7588.65
985.029	2583.6157	8444.1	7553.95
985.1548	2584.9118	8411.45	7526.55
985.2806	2586.2072	8423.9	7537.1
985.4063	2587.5019	8399.45	7513.3
985.5319	2588.7959	8352.3	7467.1
985.6576	2590.0893	8357.35	7470.7
985.7832	2591.3819	8315.65	7434.4
985.9087	2592.6739	8293.25	7407.85
986.0343	2593.9652	8258.65	7372.3
986.1597	2595.2557	8258.6	7373.6
986.2852	2596.5456	8210.1	7321.75
986.4106	2597.8348	8188.35	7303.9
986.536	2599.1234	8140.4	7255.85
986.6614	2600.4112	8134.75	7251.15
986.7867	2601.6983	8089.9	7202.75
986.912	2602.9848	8042.25	7158.75
987.0372	2604.2705	8015.75	7124.5
987.1624	2605.5556	8016.45	7133.05
987.2876	2606.84	7977.5	7092.65
987.4128	2608.1237	7951.95	7067.5
987.5379	2609.4067	7897	7013.7
987.6629	2610.689	7894.9	7000.8
987.788	2611.9707	7868.2	6982.65
987.913	2613.2516	7853.25	6964.45
988.0379	2614.5319	7811.25	6927.75
988.1629	2615.8115	7764.65	6879.5
988.2878	2617.0903	7751.65	6864.15
988.4126	2618.3685	7717.65	6832.45
988.5375	2619.6461	7665.6	6781.15
988.6622	2620.9229	7649.25	6764.75
988.787	2622.199	7636.25	6750.25
988.9117	2623.4745	7641.05	6756.25
989.0364	2624.7493	7585.85	6702.1
989.161	2626.0234	7566.85	6682.6
989.2857	2627.2968	7546.4	6661.6
989.4102	2628.5695	7498.55	6614.6
989.5348	2629.8415	7490.1	6608.15
989.6593	2631.1128	7475	6590
989.7837	2632.3835	7425.45	6541.55
989.9082	2633.6535	7398.35	6513.7
990.0326	2634.9228	7375.55	6490.2
990.1569	2636.1914	7352.4	6468.75
990.2812	2637.4593	7342.3	6452.95
990.4055	2638.7265	7292.7	6406.8
990.5298	2639.9931	7277.9	6392.75
990.654	2641.259	7264.7	6379.8
990.7782	2642.5242	7245.35	6361.4
990.9023	2643.7887	7216.9	6333
991.0264	2645.0525	7200.2	6315.2
991.1505	2646.3156	7156.45	6271.3
991.2745	2647.5781	7149.65	6265.9
991.3985	2648.8398	7131.4	6250.4
991.5225	2650.1009	7121.65	6227.5
991.6464	2651.3613	7064.55	6180.55
991.7703	2652.6211	7065.5	6181.9
991.8942	2653.8801	7026.1	6142.5
992.018	2655.1385	7011.05	6124.9
992.1418	2656.3961	7018.05	6134.45
992.2655	2657.6531	6984.35	6100.35
992.3892	2658.9094	6968.35	6083.2
992.5129	2660.1651	6971.7	6088.9
992.6366	2661.42	6930.8	6045.95
992.7602	2662.6743	6919.25	6034.1
992.8837	2663.9279	6899.5	6017.55
993.0073	2665.1808	6876.65	5993.05
993.1307	2666.433	6882.35	5997.5
993.2542	2667.6846	6839.65	5956.5
993.3776	2668.9354	6827.85	5939.4
993.501	2670.1856	6808.95	5924.75
993.6244	2671.4351	6764.15	5879.95
993.7477	2672.6839	6769.1	5885.85
993.8709	2673.9321	6739.25	5855.9
993.9942	2675.1795	6743.3	5861.65
994.1174	2676.4263	6704.55	5820.1
994.2405	2677.6724	6682.35	5798.5
994.3637	2678.9179	6665.3	5782.4
994.4868	2680.1626	6642.5	5760.95
994.6098	2681.4067	6610.2	5726.9
994.7328	2682.6501	6603.3	5719.75
994.8558	2683.8928	6592.05	5707.6
994.9788	2685.1348	6562.55	5679.3
995.1017	2686.3761	6531.35	5647.85
995.2245	2687.6168	6531.75	5646.95
995.3474	2688.8568	6514.2	5631.3
995.4702	2690.0961	6465.55	5583.15
995.5929	2691.3348	6478.95	5593.5
995.7156	2692.5727	6443.5	5560.9
995.8383	2693.81	6421.05	5538.4
995.961	2695.0466	6395.7	5512.25
996.0836	2696.2826	6394.7	5510.9
996.2062	2697.5178	6379.85	5492.85
996.3287	2698.7524	6342.25	5458.05
996.4512	2699.9863	6316.95	5432.1
996.5737	2701.2195	6293.1	5409.3
996.6961	2702.452	6293.8	5407.1
996.8185	2703.6839	6263.2	5378.1
996.9408	2704.9151	6246.15	5362.25
997.0631	2706.1456	6228.85	5347.3
997.1854	2707.3755	6205.7	5321.4
997.3077	2708.6046	6210.55	5327.15
997.4299	2709.8331	6189.55	5305.2
997.552	2711.0609	6154.65	5271.65
997.6742	2712.2881	6157.35	5274.8
997.7963	2713.5145	6142.15	5257.4
997.9183	2714.7403	6117.95	5235.2
998.0403	2715.9654	6109.5	5225.1
998.1623	2717.1899	6094.1	5208.95
998.2842	2718.4136	6067.2	5183.7
998.4062	2719.6367	6057.35	5172.6
998.528	2720.8591	6042.35	5152.5
998.6498	2722.0809	6008.85	5125.45
998.7716	2723.3019	6006.2	5119.3
998.8934	2724.5223	5985.15	5101.8
999.0151	2725.7421	5968.85	5083.65
999.1368	2726.9611	5961.55	5075.45
999.2584	2728.1795	5934	5045.4
999.38	2729.3972	5913.05	5029.6
999.5016	2730.6142	5894.6	5006.65
999.6231	2731.8306	5860.7	4977
999.7446	2733.0462	5826.75	4942.1
999.8661	2734.2612	5798.65	4910.65
999.9875	2735.4756	5776.15	4891.7
1000.1089	2736.6892	5723	4840.25
1000.2302	2737.9022	5701.2	4817.5
1000.3515	2739.1145	5682.75	4799.8
1000.4728	2740.3262	5661.55	4770.4
1000.594	2741.5372	5637.4	4754.7
1000.7152	2742.7475	5609.55	4725.9
1000.8363	2743.9571	5602.1	4717.4
1000.9575	2745.1661	5578.05	4689.5
1001.0785	2746.3744	5568.5	4681.35
1001.1996	2747.582	5536.45	4652.65
1001.3206	2748.7889	5508.5	4623.3
1001.4415	2749.9952	5484.65	4601.15
1001.5625	2751.2008	5477.85	4594.2
1001.6833	2752.4057	5468.95	4582.95
1001.8042	2753.61	5443.3	4559.25
1001.925	2754.8136	5421.5	4536.05
1002.0458	2756.0165	5394.05	4513.75
1002.1665	2757.2188	5396.3	4512.75
1002.2872	2758.4204	5373.45	4490.2
1002.4078	2759.6213	5335.25	4450.05
1002.5285	2760.8215	5330.6	4443.25
1002.649	2762.0211	5338.45	4454.95
1002.7696	2763.22	5301.8	4416.85
1002.8901	2764.4182	5284.9	4402.6
1003.0106	2765.6158	5253.05	4371.75
1003.131	2766.8127	5250.7	4366.05
1003.2514	2768.009	5230.1	4349.4
1003.3717	2769.2045	5198.05	4312.65
1003.492	2770.3994	5197.95	4313.45
1003.6123	2771.5936	5180.8	4298
1003.7325	2772.7872	5155.65	4273.4
1003.8527	2773.9801	5133.1	4249.5
1003.9729	2775.1723	5141.75	4241.9
1004.093	2776.3639	5093	4212.6
1004.2131	2777.5548	5083.05	4199.6
1004.3331	2778.745	5074.4	4191.75
1004.4531	2779.9346	5063.1	4180.5
1004.5731	2781.1235	5040.05	4156.4
1004.693	2782.3117	5031.1	4149.8
1004.8129	2783.4992	5012.85	4129.55
1004.9328	2784.6861	4995.2	4113.7
1005.0526	2785.8723	4999.3	4115.15
1005.1723	2787.0579	4982.7	4101.95
1005.2921	2788.2428	4966.8	4083.85
1005.4118	2789.427	4932.85	4051.85
1005.5314	2790.6106	4944.25	4061
1005.651	2791.7935	4913.85	4032.3
1005.7706	2792.9757	4907.35	4024.8
1005.8902	2794.1573	4886.35	4001.3
1006.0097	2795.3382	4873.65	3992.1
1006.1291	2796.5184	4854.45	3974.2
1006.2485	2797.698	4862.35	3980
1006.3679	2798.8769	4838.4	3955.8
1006.4873	2800.0551	4834.5	3950.75
1006.6066	2801.2327	4837	3952.25
1006.7258	2802.4096	4819.8	3938.6
1006.8451	2803.5859	4811.6	3928.15
1006.9642	2804.7615	4789.95	3907.75
1007.0834	2805.9364	4801.75	3920.35
1007.2025	2807.1106	4803.8	3920.8
1007.3216	2808.2842	4800.55	3917.4
1007.4406	2809.4572	4798.75	3915.45
1007.5596	2810.6294	4805.7	3921.1
1007.6785	2811.801	4810.7	3928.75
1007.7975	2812.972	4810.75	3928.55
1007.9163	2814.1423	4824.6	3944
1008.0352	2815.3119	4845.75	3962.3
1008.154	2816.4808	4867.5	3986.75
1008.2727	2817.6491	4875.1	3991.7
1008.3914	2818.8167	4903.5	4023.1
1008.5101	2819.9837	4909.95	4022.05
1008.6288	2821.15	4931.25	4050.3
1008.7474	2822.3157	4942.75	4061.15
1008.8659	2823.4807	4973.1	4091.45
1008.9844	2824.645	5007	4125.25
1009.1029	2825.8086	5006	4125.65
1009.2214	2826.9716	5035.95	4154.85
1009.3398	2828.134	5057.2	4175.35
1009.4581	2829.2957	5084.55	4202.25
1009.5764	2830.4567	5110.2	4229.25
1009.6947	2831.617	5104.2	4222.65
1009.813	2832.7767	5089.3	4206.15
1009.9312	2833.9358	5084.25	4202.35
1010.0493	2835.0941	5051.9	4167.35
1010.1675	2836.2519	5061.45	4178.9
1010.2855	2837.4089	5038.95	4155.25
1010.4036	2838.5653	5005.45	4123.7
1010.5216	2839.7211	5001.25	4120
1010.6396	2840.8761	4989.65	4105.15
1010.7575	2842.0306	4986.35	4106.5
1010.8754	2843.1843	4988.5	4106.2
1010.9932	2844.3374	4994.1	4113.25
1011.111	2845.4899	5013.2	4131.45
1011.2288	2846.6417	5038.15	4156.15
1011.3465	2847.7928	5044.6	4163.5
1011.4642	2848.9433	5068.65	4185.6
1011.5818	2850.0931	5105.45	4224.85
1011.6995	2851.2422	5155.1	4271
1011.817	2852.3907	5165.25	4283.75
1011.9345	2853.5385	5196.45	4314
1012.052	2854.6857	5216.05	4323.6
1012.1695	2855.8323	5225.3	4343.75
1012.2869	2856.9781	5245.4	4363.6
1012.4042	2858.1233	5253.9	4372.85
1012.5216	2859.2679	5275.4	4394.5
1012.6389	2860.4118	5281.75	4399
1012.7561	2861.555	5310.45	4423.7
1012.8733	2862.6976	5319.15	4436.65
1012.9905	2863.8395	5334.05	4452.1
1013.1076	2864.9808	5350.4	4469.65
1013.2247	2866.1214	5337.95	4456.2
1013.3417	2867.2614	5342.4	4461.2
1013.4587	2868.4007	5335.55	4451.3
1013.5757	2869.5393	5316.85	4433.1
1013.6926	2870.6773	5323.35	4439.35
1013.8095	2871.8146	5332.1	4446.95
1013.9263	2872.9513	5289.1	4403.7
1014.0431	2874.0874	5264.35	4382.55
1014.1599	2875.2227	5262.75	4381
1014.2766	2876.3574	5226.4	4345.4
1014.3933	2877.4915	5206.85	4324.05
1014.51	2878.6249	5167	4285.75
1014.6266	2879.7577	5149.05	4267.35
1014.7431	2880.8898	5142.3	4251.5
1014.8596	2882.0212	5117.7	4237.35
1014.9761	2883.152	5078.5	4196.1
1015.0925	2884.2821	5066.9	4187.45
1015.2089	2885.4116	5037.25	4157.1
1015.3253	2886.5405	5038.4	4156.65
1015.4416	2887.6686	5023.25	4138.55
1015.5579	2888.7962	5012.55	4133.25
1015.6741	2889.923	5013.9	4132.65
1015.7903	2891.0493	5005.1	4125.45
1015.9065	2892.1748	5008.3	4128.85
1016.0226	2893.2997	4995.05	4113.2
1016.1387	2894.424	4980.9	4100.65
1016.2547	2895.5476	4975.5	4094.1
1016.3707	2896.6706	4973.35	4093
1016.4866	2897.7929	4977.2	4095.65
1016.6025	2898.9145	4990.7	4106.35
1016.7184	2900.0355	4991.45	4109.6
1016.8342	2901.1559	4978.2	4096.3
1016.95	2902.2756	5010.8	4130.55
1017.0658	2903.3946	5019.2	4138.75
1017.1815	2904.513	4995.3	4111.9
1017.2971	2905.6308	4996.15	4116.4
1017.4127	2906.7479	5000.75	4119.05
1017.5283	2907.8643	4999.85	4117.6
1017.6439	2908.9801	5001.6	4122.45
1017.7594	2910.0953	4997.8	4117.15
1017.8748	2911.2098	4987.2	4103.15
1017.9902	2912.3236	4972.35	4084.45
1018.1056	2913.4368	4964.65	4080.25
1018.2209	2914.5494	4938.05	4056.9
1018.3362	2915.6613	4916.65	4030.55
1018.4515	2916.7725	4872.85	3989
1018.5667	2917.8831	4861.9	3981
1018.6819	2918.9931	4829.3	3946.05
1018.797	2920.1024	4809	3927.95
1018.9121	2921.211	4769.15	3888.7
1019.0271	2922.319	4755.85	3874.95
1019.1421	2923.4264	4740.1	3859.95
1019.2571	2924.5331	4715.95	3834.65
1019.372	2925.6391	4702.5	3823.35
1019.4869	2926.7445	4694.8	3815
1019.6017	2927.8493	4693.45	3813.05
1019.7165	2928.9534	4680.7	3798.6
1019.8313	2930.0569	4662.4	3778.6
1019.946	2931.1597	4666.25	3787.75
1020.0606	2932.2619	4657.2	3777.25
1020.1753	2933.3634	4666.1	3785.4
1020.2899	2934.4643	4662	3773.9
1020.4044	2935.5645	4636.65	3749.95
1020.5189	2936.6641	4611.4	3724.8
1020.6334	2937.763	4573.75	3695.95
1020.7478	2938.8613	4556.3	3674.95
1020.8622	2939.959	4521.8	3636.7
1020.9765	2941.056	4466.3	3586.9
1021.0908	2942.1523	4405.4	3522.85
1021.2051	2943.248	4338.4	3458.05
1021.3193	2944.3431	4297.5	3417.3
1021.4334	2945.4375	4214.55	3333.75
1021.5476	2946.5313	4149.1	3269.95
1021.6617	2947.6244	4102.3	3223.5
1021.7757	2948.7169	4029.55	3149.85
1021.8897	2949.8087	3964.75	3083.7
1022.0037	2950.8999	3897.3	3015.4
1022.1176	2951.9904	3827.8	2949.8
1022.2315	2953.0803	3784.2	2901.15
1022.3453	2954.1696	3729.9	2849.2
1022.4591	2955.2582	3697.05	2816.6
1022.5728	2956.3462	3670.1	2788.95
1022.6865	2957.4335	3632.2	2752.2
1022.8002	2958.5202	3599.45	2714.55
1022.9138	2959.6062	3559.85	2679.1
1023.0274	2960.6916	3551.25	2669.35
1023.141	2961.7764	3518.5	2638.4
1023.2545	2962.8605	3519.2	2637.15
1023.3679	2963.9439	3496.05	2615.95
1023.4813	2965.0267	3475.95	2595.05
1023.5947	2966.1089	3476.75	2570.75
1023.708	2967.1905	3447.2	2568.95
1023.8213	2968.2714	3417.65	2537.3
1023.9346	2969.3516	3420.65	2541.25
1024.0478	2970.4312	3430.65	2542.15
1024.1609	2971.5102	3409.55	2529.8
1024.274	2972.5885	3395.55	2515.4
1024.3871	2973.6662	3404.9	2521.55
1024.5002	2974.7432	3374.6	2492.7
1024.6132	2975.8196	3371.8	2490.95
1024.7261	2976.8954	3361.9	2483.65
1024.839	2977.9705	3356.35	2477.95
1024.9519	2979.045	3336.7	2456.9
1025.0647	2980.1188	3312.15	2434.45
1025.1775	2981.192	3301.65	2423.55
1025.2902	2982.2645	3269.1	2389.65
1025.4029	2983.3364	3256.15	2373.85
1025.5156	2984.4077	3240	2360.95
1025.6282	2985.4783	3211.35	2324
1025.7407	2986.5483	3197.05	2317.85
1025.8532	2987.6177	3159.3	2277
1025.9657	2988.6864	3139.05	2258.5
1026.0782	2989.7545	3112.45	2232.05
1026.1906	2990.8219	3085.1	2205.5
1026.3029	2991.8887	3048.2	2166.4
1026.4152	2992.9548	3043	2161.05
1026.5275	2994.0204	3002.6	2124.55
1026.6397	2995.0852	2978.2	2099.3
1026.7519	2996.1495	2943.7	2059.85
1026.864	2997.2131	2933.1	2052.45
1026.9761	2998.276	2915	2034.85
1027.0882	2999.3383	2900.75	2019.35
1027.2002	3000.4	2871.25	1990.75
1027.3122	3001.4611	2858.25	1979.45
1027.4241	3002.5215	2844.7	1964.25
1027.536	3003.5812	2825.9	1946.45
1027.6478	3004.6404	2810.35	1931.55
1027.7596	3005.6989	2804.3	1921.4
1027.8714	3006.7567	2801.15	1922
1027.9831	3007.8139	2799.75	1888.55
1028.0947	3008.8705	2766	1887.05
1028.2064	3009.9264	2751.15	1868.65
1028.3179	3010.9818	2737.05	1854.6
1028.4295	3012.0364	2731.05	1849.95
1028.541	3013.0905	2723.3	1842.65
1028.6524	3014.1439	2706.6	1826.45
1028.7638	3015.1966	2693.5	1813
1028.8752	3016.2487	2686.4	1805.65
1028.9865	3017.3002	2683.6	1799
1029.0978	3018.3511	2671.55	1792.85
1029.209	3019.4013	2667.6	1787.6
1029.3202	3020.4509	2638.8	1759.9
1029.4314	3021.4998	2645.75	1763.4
1029.5425	3022.5481	2641.6	1759.85
1029.6535	3023.5958	2635.25	1755.3
1029.7645	3024.6428	2620.25	1737.25
1029.8755	3025.6892	2623.2	1741
1029.9864	3026.735	2630.85	1751.1
1030.0973	3027.7802	2613.35	1733.25
1030.2082	3028.8247	2602.1	1721.85
1030.319	3029.8685	2584.4	1703.2
1030.4297	3030.9118	2588.65	1707.1
1030.5404	3031.9544	2570.25	1689.8
1030.6511	3032.9963	2571.25	1694.3
1030.7617	3034.0376	2580.45	1700.35
1030.8723	3035.0783	2569.7	1686.3
1030.9829	3036.1184	2563.7	1679.6
1031.0934	3037.1578	2553.6	1672.7
1031.2038	3038.1966	2559.2	1679.5
1031.3142	3039.2348	2543.6	1665
1031.4246	3040.2723	2550.4	1661.45
1031.5349	3041.3092	2531.45	1653.55
1031.6452	3042.3455	2515.05	1634.55
1031.7554	3043.3811	2521.65	1640.55
1031.8656	3044.4161	2510.85	1630.4
1031.9758	3045.4505	2502.9	1624
1032.0859	3046.4842	2495.05	1616.6
1032.1959	3047.5173	2497.4	1618.7
1032.3059	3048.5498	2473.5	1592.75
1032.4159	3049.5816	2475.4	1596.5
1032.5258	3050.6128	2462.3	1581.7
1032.6357	3051.6434	2463.75	1582.5
1032.7455	3052.6734	2449.35	1567.6
1032.8553	3053.7027	2449.1	1570.3
1032.9651	3054.7314	2426.55	1547.6
1033.0748	3055.7594	2428.65	1549.6
1033.1845	3056.7868	2418.2	1538.25
1033.2941	3057.8136	2412.45	1533.3
1033.4037	3058.8398	2411.9	1534.85
1033.5132	3059.8653	2395.9	1515.05
1033.6227	3060.8902	2394.9	1514.75
1033.7321	3061.9145	2387.7	1511.65
1033.8415	3062.9381	2375.7	1497.85
1033.9509	3063.9612	2379.95	1484.7
1034.0602	3064.9835	2365.5	1484.8
1034.1694	3066.0053	2361.85	1479.25
1034.2787	3067.0264	2345.65	1465.9
1034.3878	3068.0469	2347.3	1466.95
1034.497	3069.0668	2330.05	1447.8
1034.6061	3070.086	2315.8	1436
1034.7151	3071.1046	2321	1441.2
1034.8241	3072.1226	2301.2	1422.3
1034.9331	3073.1399	2298.35	1419.75
1035.042	3074.1567	2297.25	1417.55
1035.1508	3075.1727	2276.35	1394.5
1035.2597	3076.1882	2260.6	1380.9
1035.3684	3077.203	2263.9	1384.75
1035.4772	3078.2173	2243.25	1361.15
1035.5859	3079.2308	2238.95	1355.5
1035.6945	3080.2438	2230.5	1350.45
1035.8031	3081.2561	2230.45	1348.9
1035.9117	3082.2678	2218.95	1340.3
1036.0202	3083.2789	2201.1	1320.55
1036.1286	3084.2893	2201.1	1323.3
1036.2371	3085.2991	2195.45	1316.15
1036.3454	3086.3083	2184.9	1302.75
1036.4538	3087.3169	2181.15	1301.05
1036.562	3088.3248	2171.25	1290.15
1036.6703	3089.3321	2170.8	1289.5
1036.7785	3090.3388	2139.85	1261.45
1036.8866	3091.3449	2144.9	1263.9
1036.9948	3092.3503	2138.2	1258.3
1037.1028	3093.3551	2125.15	1247.25
1037.2108	3094.3593	2126.45	1248.55
1037.3188	3095.3629	2111.85	1235.4
1037.4267	3096.3658	2117.95	1236.4
1037.5346	3097.3681	2101.8	1221.85
1037.6425	3098.3698	2100.7	1220.6
1037.7503	3099.3708	2094.95	1207.7
1037.858	3100.3713	2083.9	1205.25
1037.9657	3101.3711	2082.1	1201.65
1038.0734	3102.3702	2192	1174.45
1038.181	3103.3688	2066.15	1186
1038.2886	3104.3667	2050.25	1170.9
1038.3961	3105.364	2045.5	1167.75
1038.5036	3106.3607	2037.25	1155.9
1038.611	3107.3568	2030.05	1148.2
1038.7184	3108.3522	2015.45	1139.15
1038.8257	3109.347	2020.85	1139.35
1038.933	3110.3412	2014.35	1132.2
1039.0403	3111.3348	1999	1119.7
1039.1475	3112.3277	1990.6	1111.25
1039.2547	3113.32	1978.7	1102.2
1039.3618	3114.3117	1985.2	1106.3
1039.4689	3115.3028	1968.6	1089.45
1039.5759	3116.2932	1959.35	1077.25
1039.6829	3117.2831	1962.7	1078.35
1039.7898	3118.2723	1949.5	1070.55
1039.8967	3119.2608	1939.05	1060.4
1040.0035	3120.2488	1942.7	1064.55
1040.1103	3121.2361	1933.45	1054.8
1040.2171	3122.2229	1929.15	1049.9
1040.3238	3123.209	1930.95	1051.6
1040.4305	3124.1944	1922.7	1042.45
1040.5371	3125.1793	1915.4	1034.85
1040.6437	3126.1635	1914.15	1036.4
1040.7502	3127.1471	1904.05	1022.6
1040.8567	3128.1301	1895.7	1015.4
1040.9631	3129.1125	1889.45	1011.7
1041.0695	3130.0942	1883.1	1003.75
1041.1759	3131.0753	1896.1	1009.65
1041.2822	3132.0558	1879.55	998.65
1041.3884	3133.0357	1878.85	998.2
1041.4946	3134.015	1868.3	989.5
1041.6008	3134.9936	1867.7	986.2
1041.7069	3135.9716	1869.85	969.4
1041.813	3136.949	1861.2	981.75
1041.919	3137.9258	1852.45	968.45
1042.025	3138.902	1854.1	971.1
1042.1309	3139.8775	1842.8	963.5
1042.2368	3140.8524	1840.9	961.65
1042.3427	3141.8267	1839.3	958.6
1042.4485	3142.8004	1832.9	953.05
1042.5542	3143.7735	1831.95	948.15
1042.6599	3144.7459	1821.85	941.45
1042.7656	3145.7178	1823.95	943.8
1042.8712	3146.689	1799.55	920.35
1042.9768	3147.6596	1806.2	923.9
1043.0823	3148.6295	1808.35	928.8
1043.1878	3149.5989	1796.65	916.6
1043.2932	3150.5676	1785.65	908.4
1043.3986	3151.5357	1786.95	910.7
1043.5039	3152.5032	1773.85	894.25
1043.6092	3153.4701	1782.35	904.6
1043.7145	3154.4364	1778.25	897.85
1043.8197	3155.402	1764.5	889.2
1043.9248	3156.367	1764.6	884.7
1044.03	3157.3315	1793.6	877.05
1044.135	3158.2952	1759.3	880.1
1044.24	3159.2584	1749.35	871.9
1044.345	3160.221	1728.75	849.8
1044.4499	3161.1829	1732.05	851.75
1044.5548	3162.1442	1731.3	852.95
1044.6596	3163.105	1726.35	847
1044.7644	3164.065	1725.35	846
1044.8692	3165.0245	1722.2	839
1044.9739	3165.9834	1715.65	837.25
1045.0785	3166.9416	1711.45	831.1
1045.1831	3167.8993	1713.35	835.25
1045.2877	3168.8563	1698.4	818.85
1045.3922	3169.8127	1685.55	806.4
1045.4966	3170.7684	1687.85	807.8
1045.6011	3171.7236	1687.95	807.85
1045.7054	3172.6782	1682.3	801.8
1045.8098	3173.6321	1679.25	799.2
1045.914	3174.5854	1685.25	801.6
1046.0183	3175.5381	1667.85	787.6
1046.1224	3176.4902	1667.65	790.1
1046.2266	3177.4417	1659.1	781.3
1046.3307	3178.3926	1651.3	773.05
1046.4347	3179.3428	1654.3	777
1046.5387	3180.2924	1648.25	769.25
1046.6427	3181.2415	1648.55	768.8
1046.7466	3182.1899	1650.25	771.45
1046.8504	3183.1377	1638.75	759.35
1046.9542	3184.0848	1634.8	752.8
1047.058	3185.0314	1625.8	746
1047.1617	3185.9773	1629.35	749.35
1047.2654	3186.9227	1621.2	739.7
1047.369	3187.8674	1606.35	726.25
1047.4726	3188.8115	1619.25	736.95
1047.5761	3189.755	1613.35	734.55
1047.6796	3190.6979	1594.5	716.55
1047.783	3191.6402	1597	716.75
1047.8864	3192.5818	1597.6	718.25
1047.9898	3193.5229	1615.7	720.8
1048.0931	3194.4633	1598	720.65
1048.1963	3195.4031	1580.25	702.2
1048.2995	3196.3423	1572.95	695.15
1048.4027	3197.2809	1576.1	696.75
1048.5058	3198.2189	1573.85	697.15
1048.6089	3199.1563	1594.4	697.95
1048.7119	3200.0931	1569.85	692.3
1048.8148	3201.0292	1561.65	684.1
1048.9178	3201.9648	1553.4	677
1049.0206	3202.8997	1556.9	677.05
1049.1235	3203.834	1562.05	682
1049.2262	3204.7677	1548.6	669.9
1049.329	3205.7008	1547	666.7
1049.4317	3206.6333	1543.15	665
1049.5343	3207.5652	1536	655.45
1049.6369	3208.4964	1541.65	662.95
1049.7394	3209.4271	1537	657.9
1049.8419	3210.3571	1533.5	658.2
1049.9444	3211.2865	1527	647.35
1050.0468	3212.2154	1528.5	646.8
1050.1491	3213.1436	1530.9	649.8
1050.2514	3214.0712	1518.65	634.6
1050.3537	3214.9982	1519.9	642.25
1050.4559	3215.9246	1514.45	634.3
1050.5581	3216.8503	1510.9	633.9
1050.6602	3217.7755	1506.6	625.95
1050.7623	3218.7001	1501.45	623.85
1050.8643	3219.624	1500.4	621.55
1050.9663	3220.5473	1493.75	614.7
1051.0682	3221.4701	1495.55	615.15
1051.1701	3222.3922	1492.25	610.1
1051.2719	3223.3137	1492.95	614.9
1051.3737	3224.2346	1488.75	609.4
1051.4754	3225.1549	1473.2	594.7
1051.5771	3226.0746	1470.9	594.5
1051.6788	3226.9937	1471.05	591.9
1051.7804	3227.9121	1474.05	594.45
1051.8819	3228.83	1466.7	588.6
1051.9834	3229.7473	1463.5	583.3
1052.0849	3230.6639	1461.35	580.95
1052.1863	3231.5799	1456.3	578.05
1052.2876	3232.4954	1456.8	577.6
1052.3889	3233.4102	1446.75	567.3
1052.4902	3234.3244	1449.4	568.55
1052.5914	3235.238	1444.85	567.15
1052.6926	3236.151	1453.5	548.8
1052.7937	3237.0634	1430.2	553.5
1052.8948	3237.9752	1426.3	547.9
1052.9958	3238.8864	1428.2	549.15
1053.0968	3239.797	1429.15	550.4
1053.1977	3240.7069	1416.25	537.1
1053.2986	3241.6163	1419.75	539.1
1053.3994	3242.5251	1416.1	537
1053.5002	3243.4332	1413.95	537.5
1053.6009	3244.3408	1417.45	539.1
1053.7016	3245.2477	1409.45	532.35
1053.8022	3246.154	1406.75	528.45
1053.9028	3247.0598	1402.55	524.9
1054.0034	3247.9649	1395.95	518.75
1054.1039	3248.8694	1389.95	512.25
1054.2043	3249.7733	1387.05	510.1
1054.3047	3250.6766	1386.85	508.55
1054.4051	3251.5793	1385.85	506.45
1054.5054	3252.4814	1378.5	501.9
1054.6056	3253.3829	1379.2	502.65
1054.7058	3254.2838	1369.8	491.3
1054.806	3255.1841	1376.75	498.5
1054.9061	3256.0838	1363.1	483.95
1055.0061	3256.9829	1361.25	484.1
1055.1062	3257.8814	1363.7	482.25
1055.2061	3258.7792	1356.35	476.45
1055.306	3259.6765	1352.85	472
1055.4059	3260.5731	1342.8	464.05
1055.5057	3261.4692	1338.55	460.7
1055.6055	3262.3647	1327.3	449.35
1055.7052	3263.2595	1327.7	450.2
1055.8049	3264.1538	1322.75	445.9
1055.9045	3265.0474	1315.1	435.7
1056.0041	3265.9404	1310.55	432.6
1056.1036	3266.8329	1301.25	423.2
1056.2031	3267.7247	1302.6	413.15
1056.3025	3268.616	1281.3	404.3
1056.4019	3269.5066	1279.6	401.2
1056.5013	3270.3966	1265.55	385.9
1056.6005	3271.286	1250.1	372.2
