Software Version:	3.9.2.0
Unit SN:	10000200
Spectrometer SN:	6960
Date:	3/6/2024 10:46:22 AM
Data Line Index:	25
Spectral Points:	2048
Integration time (ms):	125
Averages:	20
Delay (ms):	30
Sequence Number:	1
Processing:	dark subtract
Laser Power (mW):	300
Laser Current (mA):	822
Laser Diode Temp (C):	25.1
Laser Case Temp (C):	27.4
System Temp (C):	27.2
Spectrometer Temp (C):	24.6
CCD Temp (C):	0.004
Secondary Temp (C):	20.014
Heatsink Temp (C):	23.043
CCDPCB Temp (C):	36.462
SecondaryPCB Temp (C):	33.817

Wavelength	RamanShift	Raw Counts	Dark Subtracted
787.061	30.1047	1139.5	725.6
787.2016	32.3739	1170.55	758.85
787.3422	34.6426	1215.4	802.25
787.4828	36.9109	1261.05	845.45
787.6235	39.1787	1319.05	901.95
787.7642	41.4461	1374.15	949.75
787.9049	43.7131	1446.5	1019.5
788.0456	45.9796	1516.45	1085.7
788.1863	48.2456	1583.85	1148.5
788.3271	50.5112	1661.5	1223.65
788.4679	52.7764	1721.75	1280.95
788.6087	55.0411	1806.55	1363.55
788.7496	57.3054	1889.2	1439.85
788.8904	59.5692	1980.85	1529.65
789.0313	61.8326	2076.4	1622.75
789.1722	64.0955	2184.05	1724.05
789.3132	66.3579	2325.3	1860.5
789.4541	68.6199	2486.4	2021.3
789.5951	70.8815	2736.8	2265.3
789.7361	73.1426	3270.65	2795.55
789.8771	75.4032	4579.1	4100.8
790.0181	77.6634	7954.35	7471
790.1592	79.9231	16787	16298.65
790.3003	82.1824	55185.65	54687.4
790.4414	84.4412	65535	65016
790.5825	86.6995	65535	64993.5
790.7237	88.9574	65535	64968
790.8648	91.2148	65535	64952.25
791.006	93.4717	65535	64944.55
791.1472	95.7282	65535	64934.5
791.2885	97.9842	65535	64931.6
791.4297	100.2398	65535	64926.55
791.571	102.4949	65535	64923.95
791.7123	104.7495	65535	64919.15
791.8536	107.0036	65535	64917.6
791.9949	109.2573	65535	64919.75
792.1363	111.5105	65535	64916.8
792.2777	113.7632	65535	64916.05
792.4191	116.0154	65535	64907.95
792.5605	118.2672	65535	64910.75
792.7019	120.5185	65535	64911.8
792.8434	122.7693	65535	64910.7
792.9849	125.0197	65535	64904.5
793.1264	127.2696	65535	64899.3
793.2679	129.519	65535	64898.25
793.4094	131.7679	65535	64896
793.551	134.0163	65535	64889.85
793.6926	136.2642	65535	64888.55
793.8342	138.5117	65535	64881.35
793.9758	140.7587	65535	64885.6
794.1175	143.0052	65535	64882
794.2591	145.2512	65535	64883
794.4008	147.4967	65535	64880.85
794.5425	149.7417	65535	64881.8
794.6842	151.9863	65535	64873.1
794.826	154.2304	65535	64870.7
794.9677	156.4739	65535	64864.95
795.1095	158.717	65535	64866.7
795.2513	160.9596	65535	64861.75
795.3931	163.2017	65535	64861.55
795.535	165.4433	65535	64861.25
795.6768	167.6844	65535	64854.35
795.8187	169.925	65535	64850.55
795.9606	172.1651	65535	64851.4
796.1025	174.4047	65535	64846.3
796.2445	176.6439	65535	64844.85
796.3864	178.8825	65535	64841.1
796.5284	181.1206	65535	64834.9
796.6704	183.3582	65535	64830.95
796.8124	185.5954	65535	64833.55
796.9544	187.832	65535	64831.55
797.0965	190.0681	65535	64827.1
797.2386	192.3037	65535	64824
797.3806	194.5388	65535	64820.45
797.5228	196.7734	65535	64819.75
797.6649	199.0075	65535	64817.1
797.807	201.2411	65535	64815.25
797.9492	203.4742	65535	64814.95
798.0914	205.7068	65535	64811.55
798.2336	207.9389	65535	64813.4
798.3758	210.1704	65535	64808.6
798.518	212.4015	65535	64808.7
798.6603	214.632	65535	64816.5
798.8025	216.862	65535	64822.05
798.9448	219.0915	65535	64827.35
799.0871	221.3205	65535	64824.25
799.2294	223.549	65535	64826.95
799.3718	225.777	65535	64830.1
799.5141	228.0044	65535	64826.35
799.6565	230.2314	65535	64827.75
799.7989	232.4578	65535	64822.25
799.9413	234.6837	65535	64812.1
800.0837	236.909	65535	64810.05
800.2262	239.1339	65535	64787.75
800.3687	241.3582	65535	64800.55
800.5111	243.582	65535	64769.4
800.6536	245.8053	65535	64785.9
800.7961	248.0281	65535	64787.9
800.9387	250.2503	65535	64784.7
801.0812	252.472	65535	64782.3
801.2238	254.6932	65535	64780.9
801.3664	256.9139	65535	64776.55
801.509	259.134	65535	64775.7
801.6516	261.3536	65535	64776
801.7942	263.5727	65535	64770.8
801.9369	265.7912	65535	64778
802.0795	268.0092	65535	64776.2
802.2222	270.2267	65535	64774.3
802.3649	272.4436	65535	64771.85
802.5076	274.6601	65535	64767.7
802.6504	276.8759	65535	64765.7
802.7931	279.0913	65535	64770.6
802.9359	281.3061	65535	64765.95
803.0787	283.5204	65535	64763.9
803.2215	285.7341	65535	64760.8
803.3643	287.9473	65535	64748.85
803.5071	290.16	65535	64755.6
803.6499	292.3721	65535	64761.4
803.7928	294.5837	65535	64759.95
803.9357	296.7947	65535	64758.55
804.0786	299.0052	65535	64758
804.2215	301.2152	65535	64752.45
804.3644	303.4246	65535	64759.5
804.5074	305.6334	65535	64761.9
804.6503	307.8418	65535	64757.65
804.7933	310.0495	65535	64754.6
804.9363	312.2568	65535	64756.45
805.0793	314.4635	65535	64752.8
805.2223	316.6696	65535	64747.5
805.3653	318.8752	65535	64741.15
805.5084	321.0802	65535	64745.6
805.6514	323.2847	65535	64746.95
805.7945	325.4887	65535	64750.2
805.9376	327.692	65535	64745
806.0807	329.8949	65535	64744.1
806.2238	332.0972	65535	64743.7
806.367	334.2989	65535	64740.75
806.5101	336.5001	65535	64738.1
806.6533	338.7007	65535	64741.3
806.7965	340.9008	65535	64735.9
806.9397	343.1003	65535	64735.8
807.0829	345.2992	65535	64735.55
807.2261	347.4976	65535	64733.1
807.3693	349.6955	65535	64729.8
807.5126	351.8927	65535	64728.7
807.6559	354.0895	65535	64718.55
807.7991	356.2856	65535	64729.55
807.9424	358.4812	65535	64730.8
808.0857	360.6763	65535	64725.95
808.2291	362.8707	65535	64727.35
808.3724	365.0646	65535	64723.15
808.5158	367.258	65535	64721.75
808.6591	369.4508	65535	64717.05
808.8025	371.643	65535	64717.05
808.9459	373.8346	65535	64715.4
809.0893	376.0257	65535	64715.05
809.2327	378.2162	65535	64712.8
809.3762	380.4062	65535	64711.15
809.5196	382.5956	65535	64710.1
809.6631	384.7844	65535	64713.9
809.8066	386.9726	65535	64715.2
809.9501	389.1603	65535	64711.3
810.0936	391.3474	65535	64673.8
810.2371	393.5339	65535	64715
810.3806	395.7199	65535	64723.4
810.5241	397.9052	65535	64720.05
810.6677	400.09	65535	64720.9
810.8113	402.2743	65535	64720.25
810.9548	404.4579	65535	64720.75
811.0984	406.641	65535	64714.1
811.2421	408.8235	65535	64716.65
811.3857	411.0054	65535	64714.1
811.5293	413.1868	65535	64713.5
811.673	415.3675	65535	64711.35
811.8166	417.5477	65535	64710.25
811.9603	419.7273	65535	64703.35
812.104	421.9064	65535	64700.4
812.2477	424.0848	65535	64703.75
812.3914	426.2627	65535	64699.9
812.5351	428.4399	65535	64701.15
812.6788	430.6166	65535	64699.5
812.8226	432.7928	65535	64697.95
812.9663	434.9683	65535	64698.25
813.1101	437.1432	65535	64694.75
813.2539	439.3176	65535	64696.1
813.3977	441.4914	65535	64696.05
813.5415	443.6645	65535	64693.15
813.6853	445.8371	65535	64690.95
813.8291	448.0091	65535	64694.85
813.973	450.1806	65535	64695.65
814.1168	452.3514	65535	64689.55
814.2607	454.5216	65535	64686.95
814.4046	456.6913	65535	64693.15
814.5485	458.8603	65535	64691.2
814.6924	461.0288	65535	64692.6
814.8363	463.1967	65535	64692.15
814.9802	465.3639	65535	64690.2
815.1241	467.5306	65535	64688.35
815.2681	469.6967	65535	64687
815.412	471.8622	65535	64693.2
815.556	474.0271	65535	64690.55
815.7	476.1914	65535	64686.65
815.844	478.3551	65535	64688.85
815.988	480.5182	65535	64686.75
816.132	482.6807	65535	64687.5
816.276	484.8426	65535	64689.05
816.4201	487.0039	65535	64683.85
816.5641	489.1647	65535	64685.6
816.7082	491.3248	65535	64685.2
816.8522	493.4843	65535	64688.2
816.9963	495.6432	65535	64684.5
817.1404	497.8015	65535	64682.1
817.2845	499.9592	65535	64683.9
817.4286	502.1163	65535	64679.9
817.5727	504.2728	65535	64681.75
817.7168	506.4287	65535	64683.3
817.861	508.5839	65535	64679.7
818.0051	510.7386	65535	64683.2
818.1493	512.8927	65535	64675.7
818.2935	515.0461	65535	64680.85
818.4377	517.199	65535	64681.7
818.5818	519.3512	65535	64678.2
818.726	521.5029	65535	64671.4
818.8703	523.6539	65535	64677.45
819.0145	525.8043	65535	64674.85
819.1587	527.9541	65535	64674.65
819.303	530.1033	65535	64673.85
819.4472	532.2519	65535	64674.65
819.5915	534.3999	65535	64673.15
819.7357	536.5472	65535	64674.6
819.88	538.694	65535	64676.35
820.0243	540.8401	65535	64671.4
820.1686	542.9856	65535	64670.2
820.3129	545.1305	65535	64668.95
820.4572	547.2748	65535	64669.5
820.6016	549.4185	65535	64665.85
820.7459	551.5615	65535	64670.5
820.8902	553.704	65535	64666.3
821.0346	555.8458	65535	64671.85
821.1789	557.987	65535	64671.25
821.3233	560.1276	65535	64668.95
821.4677	562.2675	65535	64670
821.6121	564.4069	65535	64669.4
821.7565	566.5456	65535	64672.15
821.9009	568.6837	65535	64666.05
822.0453	570.8212	65535	64671.25
822.1897	572.958	65535	64670.85
822.3342	575.0942	65535	64670.55
822.4786	577.2299	65535	64669.1
822.6231	579.3648	65535	64669.55
822.7675	581.4992	65535	64672.85
822.912	583.6329	65535	64668.25
823.0565	585.766	65535	64670.6
823.201	587.8985	65535	64669.35
823.3454	590.0304	65535	64640.9
823.4899	592.1616	65535	64664.55
823.6345	594.2922	65535	64663.9
823.779	596.4222	65535	64659.7
823.9235	598.5515	65535	64663
824.068	600.6802	65535	64662.5
824.2126	602.8083	65535	64662.95
824.3571	604.9358	65535	64664.4
824.5017	607.0626	65535	64658.5
824.6462	609.1888	65535	64662.75
824.7908	611.3144	65535	64659.9
824.9354	613.4393	65535	64663
825.08	615.5636	65535	64661.6
825.2246	617.6873	65535	64662.15
825.3692	619.8103	65535	64659.2
825.5138	621.9327	65535	64655.7
825.6584	624.0544	65535	64662.05
825.803	626.1756	65535	64662.4
825.9477	628.2961	65535	64660.1
826.0923	630.4159	65535	64659.65
826.237	632.5351	65535	64661.55
826.3816	634.6537	65535	64659.55
826.5263	636.7716	65535	64656.6
826.6709	638.8889	65535	64657
826.8156	641.0056	65535	64652.55
826.9603	643.1216	65535	64657.2
827.105	645.237	65535	64654.9
827.2497	647.3518	65535	64658.15
827.3944	649.4659	65535	64658.3
827.5391	651.5793	65535	64657.9
827.6838	653.6922	65535	64658.35
827.8285	655.8043	65535	64655.85
827.9733	657.9159	65535	64654.05
828.118	660.0268	65535	64653.55
828.2627	662.137	65535	64656.2
828.4075	664.2466	65535	64651.95
828.5522	666.3556	65535	64653.55
828.697	668.4639	65535	64651.75
828.8418	670.5716	65535	64654.75
828.9865	672.6786	65535	64650.35
829.1313	674.785	65535	64648.5
829.2761	676.8907	65535	64654.15
829.4209	678.9958	65535	64653.1
829.5657	681.1002	65535	64651.2
829.7105	683.204	65535	64647.65
829.8553	685.3072	65535	64649.1
830.0001	687.4097	65535	64652.4
830.1449	689.5115	65535	64650.5
830.2898	691.6127	65535	64650.75
830.4346	693.7132	65535	64648.4
830.5794	695.8131	65535	64640.05
830.7243	697.9123	65535	64646.85
830.8691	700.0109	65535	64645.2
831.014	702.1089	65535	64649.75
831.1588	704.2061	65535	64648.95
831.3037	706.3028	65535	64644.05
831.4486	708.3987	65535	64648.85
831.5935	710.4941	65535	64646.3
831.7383	712.5887	65535	64647.9
831.8832	714.6827	65535	64644
832.0281	716.7761	65535	64647.25
832.173	718.8688	65535	64647.5
832.3179	720.9608	65535	64643.35
832.4628	723.0522	65535	64642.7
832.6077	725.1429	65535	64646
832.7527	727.233	65535	64646.45
832.8976	729.3224	65535	64645.05
833.0425	731.4112	65535	64645.4
833.1874	733.4993	65535	64644.1
833.3324	735.5867	65535	64644.45
833.4773	737.6735	65535	64642.25
833.6222	739.7596	65535	64642.7
833.7672	741.845	65535	64643.4
833.9122	743.9298	65535	64644
834.0571	746.014	65535	64644.55
834.2021	748.0974	65535	64640.65
834.347	750.1802	65535	64643.5
834.492	752.2624	65535	64642.6
834.637	754.3439	65535	64640.45
834.782	756.4247	65535	64630.8
834.9269	758.5048	65535	64644.1
835.0719	760.5843	65535	64643.1
835.2169	762.6631	65535	64639.7
835.3619	764.7413	65535	64643.35
835.5069	766.8188	65535	64643.15
835.6519	768.8956	65535	64636.15
835.7969	770.9718	65535	64642.7
835.9419	773.0473	65535	64644.1
836.0869	775.1221	65535	64641
836.232	777.1962	65535	64642.35
836.377	779.2697	65535	64642.65
836.522	781.3426	65535	64620.8
836.667	783.4147	65535	64639.55
836.8121	785.4862	65535	64642
836.9571	787.557	65535	64640.85
837.1021	789.6271	65535	64641.2
837.2472	791.6966	65535	64641.75
837.3922	793.7654	65535	64643.6
837.5373	795.8335	65535	64640.9
837.6823	797.901	65535	64639.55
837.8274	799.9678	65535	64639.6
837.9724	802.0339	65535	64640.1
838.1175	804.0993	65535	64628.85
838.2626	806.1641	65535	64637.3
838.4076	808.2282	65535	64636.9
838.5527	810.2916	65535	64637.05
838.6978	812.3544	65535	64642.1
838.8428	814.4164	65535	64640.15
838.9879	816.4778	65535	64640.15
839.133	818.5385	65535	64638.7
839.2781	820.5986	65535	64639.1
839.4232	822.658	65535	64635.75
839.5682	824.7166	65535	64640.55
839.7133	826.7747	65535	64638.8
839.8584	828.832	65535	64641.65
840.0035	830.8886	65535	64637.6
840.1486	832.9446	65535	64639.45
840.2937	834.9999	65535	64639.55
840.4388	837.0545	65535	64633.9
840.5839	839.1085	65535	64638.6
840.729	841.1618	65535	64634.05
840.8741	843.2143	65535	64640.05
841.0192	845.2662	65535	64639.05
841.1643	847.3175	65535	64637.95
841.3095	849.368	65535	64638.15
841.4546	851.4179	65535	64635.7
841.5997	853.467	65535	64631.8
841.7448	855.5155	65535	64638.25
841.8899	857.5633	65535	64637.6
842.0351	859.6105	65535	64635.6
842.1802	861.6569	65535	64638.35
842.3253	863.7027	65535	64634.9
842.4704	865.7478	65535	64637.5
842.6156	867.7922	65535	64635.9
842.7607	869.8359	65535	64636.75
842.9058	871.8789	65535	64633.65
843.0509	873.9212	65535	64605.35
843.1961	875.9629	65535	64635.05
843.3412	878.0039	65535	64632.9
843.4863	880.0441	65535	64637.2
843.6315	882.0837	65535	64632.15
843.7766	884.1226	65535	64633
843.9218	886.1609	65535	64638.55
844.0669	888.1984	65535	64638.6
844.212	890.2352	65535	64637.55
844.3572	892.2714	65535	64632.3
844.5023	894.3069	65535	64636.2
844.6475	896.3416	65535	64635.5
844.7926	898.3757	65535	64635.3
844.9377	900.4091	65535	64632
845.0829	902.4418	65535	64631.35
845.228	904.4739	65535	64633
845.3732	906.5052	65535	64635.35
845.5183	908.5358	65535	64636.3
845.6635	910.5658	65535	64632.85
845.8086	912.595	65535	64634.1
845.9538	914.6236	65535	64634.65
846.0989	916.6515	65535	64635.45
846.2441	918.6786	65535	64629.7
846.3892	920.7051	65535	64633.2
846.5344	922.7309	65535	64633.5
846.6795	924.756	65535	64632.85
846.8246	926.7804	65535	64632.7
846.9698	928.8041	65535	64631.75
847.1149	930.8272	65535	64636.9
847.2601	932.8495	65535	64633.4
847.4052	934.8711	65535	64633.65
847.5504	936.892	65535	64633.65
847.6955	938.9123	65535	64631.6
847.8407	940.9318	65535	64633.85
847.9858	942.9506	65535	64633.15
848.131	944.9688	65535	64631.85
848.2761	946.9862	65535	64633.1
848.4213	949.003	65535	64631.8
848.5664	951.019	65535	64632.4
848.7115	953.0344	65535	64632.25
848.8567	955.0491	65535	64632.2
849.0018	957.063	65535	64631.7
849.147	959.0763	65535	64633.95
849.2921	961.0888	65535	64629.5
849.4373	963.1007	65535	64633.6
849.5824	965.1119	65535	64635.35
849.7275	967.1223	65535	64636.65
849.8727	969.1321	65535	64637.55
850.0178	971.1412	65535	64632.15
850.1629	973.1495	65535	64634.2
850.3081	975.1572	65535	64598.4
850.4532	977.1641	65535	64632.55
850.5983	979.1704	65535	64631.25
850.7435	981.1759	65535	64628.95
850.8886	983.1808	65535	64632.5
851.0337	985.1849	65535	64622.45
851.1788	987.1884	65535	64631.15
851.324	989.1911	65535	64628.2
851.4691	991.1932	65535	64632.3
851.6142	993.1945	65535	64631.65
851.7593	995.1951	65535	64631.7
851.9045	997.1951	65535	64626.05
852.0496	999.1943	65535	64632.25
852.1947	1001.1928	65535	64631.55
852.3398	1003.1906	65535	64631.9
852.4849	1005.1877	65535	64632.85
852.63	1007.1841	65535	64632.1
852.7751	1009.1798	65535	64631.8
852.9202	1011.1748	65535	64632.8
853.0653	1013.1691	65535	64629.6
853.2104	1015.1627	65535	64633.95
853.3555	1017.1556	65535	64633.55
853.5006	1019.1477	65535	64632.55
853.6457	1021.1392	65535	64636.05
853.7908	1023.1299	65535	64632.85
853.9359	1025.12	65535	64632.4
854.081	1027.1093	65535	64636.2
854.2261	1029.0979	65535	64638.1
854.3712	1031.0859	65535	64638.8
854.5163	1033.0731	65535	64633.5
854.6613	1035.0596	65535	64635.75
854.8064	1037.0454	65535	64634.65
854.9515	1039.0304	65535	64632.9
855.0965	1041.0148	65535	64631.8
855.2416	1042.9985	65535	64629.05
855.3867	1044.9814	65535	64632.95
855.5317	1046.9636	65535	64630.05
855.6768	1048.9452	65535	64630.15
855.8219	1050.926	65535	64634.95
855.9669	1052.9061	65535	64633.9
856.112	1054.8855	65535	64632.75
856.257	1056.8642	65535	64632.65
856.4021	1058.8421	65535	64626.5
856.5471	1060.8194	65535	64631.8
856.6921	1062.7959	65535	64633.6
856.8372	1064.7717	65535	64632.2
856.9822	1066.7469	65535	64631.5
857.1272	1068.7213	65535	64630.9
857.2723	1070.695	65535	64633.15
857.4173	1072.6679	65535	64632.1
857.5623	1074.6402	65535	64630.85
857.7073	1076.6117	65535	64627.2
857.8523	1078.5826	65535	64631.6
857.9973	1080.5527	65535	64628.8
858.1423	1082.5221	65535	64631.05
858.2873	1084.4908	65535	64632.6
858.4323	1086.4587	65535	64629
858.5773	1088.426	65535	64632.15
858.7223	1090.3925	65535	64628.8
858.8673	1092.3584	65535	64630.5
859.0123	1094.3235	65535	64631.1
859.1573	1096.2879	65535	64632.35
859.3022	1098.2515	65535	64632.1
859.4472	1100.2145	65535	64633.35
859.5922	1102.1767	65535	64630.65
859.7371	1104.1382	65535	64633.2
859.8821	1106.099	65535	64632.05
860.027	1108.0591	65535	64630.6
860.172	1110.0185	65535	64631.55
860.3169	1111.9771	65535	64633.15
860.4619	1113.9351	65535	64633.45
860.6068	1115.8923	65535	64630.4
860.7517	1117.8488	65535	64629.95
860.8967	1119.8045	65535	64629.9
861.0416	1121.7596	65535	64630.95
861.1865	1123.7139	65535	64629.65
861.3314	1125.6675	65535	64631.75
861.4763	1127.6204	65535	64631.95
861.6212	1129.5726	65535	64630.75
861.7661	1131.524	65535	64632.9
861.911	1133.4748	65535	64632.3
862.0559	1135.4248	65535	64631.05
862.2008	1137.3741	65535	64634.3
862.3457	1139.3226	65535	64631.4
862.4905	1141.2705	65535	64632.5
862.6354	1143.2176	65535	64624.4
862.7803	1145.164	65535	64631.4
862.9251	1147.1097	65535	64631.9
863.07	1149.0546	65535	64631
863.2148	1150.9989	65535	64632.4
863.3597	1152.9424	65535	64631.15
863.5045	1154.8852	65535	64632.7
863.6493	1156.8272	65535	64631
863.7942	1158.7686	65535	64627.75
863.939	1160.7092	65535	64633.25
864.0838	1162.6491	65535	64629
864.2286	1164.5883	65535	64632.3
864.3734	1166.5267	65535	64632.25
864.5182	1168.4644	65535	64629.2
864.663	1170.4014	65535	64628
864.8078	1172.3377	65535	64633.95
864.9526	1174.2732	65535	64633.15
865.0974	1176.2081	65535	64631.6
865.2421	1178.1421	65535	64624.95
865.3869	1180.0755	65535	64631.35
865.5317	1182.0082	65535	64632.8
865.6764	1183.9401	65535	64632
865.8212	1185.8713	65535	64632.75
865.9659	1187.8017	65535	64632.1
866.1106	1189.7315	65535	64633.2
866.2554	1191.6605	65535	64607.8
866.4001	1193.5888	65535	64630.6
866.5448	1195.5163	65535	64632.9
866.6895	1197.4432	65535	64630.75
866.8342	1199.3693	65535	64632.8
866.9789	1201.2947	65535	64629.95
867.1236	1203.2193	65535	64633.1
867.2683	1205.1432	65535	64633.05
867.413	1207.0664	65535	64631.4
867.5576	1208.9889	65535	64629
867.7023	1210.9106	65535	64632.5
867.847	1212.8316	65535	64631.9
867.9916	1214.7519	65535	64624.45
868.1363	1216.6715	65535	64630.4
868.2809	1218.5903	65535	64630.05
868.4255	1220.5084	65535	64634.9
868.5701	1222.4257	65535	64632.55
868.7148	1224.3424	65535	64634.05
868.8594	1226.2583	65535	64625.85
869.004	1228.1735	65535	64632
869.1486	1230.0879	65535	64631.55
869.2932	1232.0016	65535	64634.45
869.4377	1233.9146	65535	64631.3
869.5823	1235.8269	65535	64632.85
869.7269	1237.7384	65535	64631.95
869.8715	1239.6492	65535	64631.85
870.016	1241.5592	65535	64629.95
870.1606	1243.4686	65535	64631.8
870.3051	1245.3772	65535	64631.85
870.4496	1247.285	65535	64631.55
870.5941	1249.1922	65535	64633
870.7387	1251.0986	65535	64633.1
870.8832	1253.0042	65535	64632.9
871.0277	1254.9092	65535	64631.6
871.1722	1256.8134	65535	64633.05
871.3167	1258.7169	65535	64632
871.4611	1260.6196	65535	64633.95
871.6056	1262.5216	65535	64633.75
871.7501	1264.4229	65535	64635.35
871.8945	1266.3234	65535	64631.5
872.039	1268.2232	65535	64632
872.1834	1270.1223	65535	64630.95
872.3278	1272.0207	65535	64631.95
872.4723	1273.9183	65535	64626.8
872.6167	1275.8151	65535	64633.7
872.7611	1277.7113	65535	64633.2
872.9055	1279.6067	65535	64634.9
873.0499	1281.5014	65535	64630.75
873.1943	1283.3953	65535	64631.35
873.3386	1285.2885	65535	64632.85
873.483	1287.181	65535	64634
873.6274	1289.0727	65535	64632.65
873.7717	1290.9637	65535	64630.7
873.9161	1292.854	65535	64633.65
874.0604	1294.7435	65535	64631.85
874.2047	1296.6323	65535	64635.15
874.349	1298.5204	65535	64629.25
874.4933	1300.4077	65535	64628.3
874.6376	1302.2943	65535	64632.6
874.7819	1304.1802	65535	64633.25
874.9262	1306.0653	65535	64632.45
875.0705	1307.9497	65535	64631.6
875.2147	1309.8333	65535	64633
875.359	1311.7162	65535	64633.75
875.5032	1313.5984	65535	64628.85
875.6475	1315.4798	65535	64622
875.7917	1317.3605	65535	64616.3
875.9359	1319.2405	65535	64629.35
876.0801	1321.1197	65535	64632.6
876.2243	1322.9982	65535	64628.95
876.3685	1324.876	65535	64634.5
876.5127	1326.753	65535	64633.6
876.6569	1328.6293	65535	64632.8
876.801	1330.5048	65535	64630.2
876.9452	1332.3796	65535	64629.8
877.0893	1334.2537	65535	64608.65
877.2335	1336.127	65535	64632.75
877.3776	1337.9996	65535	64633.9
877.5217	1339.8714	65535	64633.35
877.6658	1341.7426	65535	64588.5
877.8099	1343.6129	65535	64631
877.954	1345.4826	65535	64632.35
878.0981	1347.3515	65535	64628.9
878.2422	1349.2196	65535	64629.8
878.3862	1351.087	65535	64630.1
878.5303	1352.9537	65535	64635.05
878.6743	1354.8197	65535	64633.1
878.8184	1356.6849	65535	64634.55
878.9624	1358.5493	65535	64631.95
879.1064	1360.4131	65535	64629.65
879.2504	1362.276	65535	64630.8
879.3944	1364.1383	65535	64631.65
879.5384	1365.9998	65535	64628.45
879.6823	1367.8606	65535	64632
879.8263	1369.7206	65535	64632.1
879.9702	1371.5799	65535	64630.1
880.1142	1373.4384	65535	64632.05
880.2581	1375.2962	65535	64631
880.402	1377.1533	65535	64633
880.5459	1379.0096	65535	64629.7
880.6898	1380.8652	65535	64632.55
880.8337	1382.7201	65535	64633.9
880.9776	1384.5742	65535	64630.9
881.1215	1386.4275	65535	64630.95
881.2653	1388.2802	65535	64631.4
881.4092	1390.132	65535	64631.35
881.553	1391.9832	65535	64631.7
881.6968	1393.8336	65535	64631.3
881.8406	1395.6832	65535	64628.65
881.9844	1397.5322	65535	64633.95
882.1282	1399.3803	65535	64626.9
882.272	1401.2278	65535	64631.6
882.4158	1403.0745	65535	64632.1
882.5595	1404.9204	65535	64633.15
882.7033	1406.7656	65535	64633.1
882.847	1408.6101	65535	64632.65
882.9908	1410.4538	65535	64632.4
883.1345	1412.2968	65535	64630.35
883.2782	1414.139	65535	64633
883.4219	1415.9805	65535	64632.6
883.5656	1417.8213	65535	64625.9
883.7092	1419.6613	65535	64635.1
883.8529	1421.5006	65535	64631.2
883.9965	1423.3391	65535	64630.4
884.1402	1425.1769	65535	64631.15
884.2838	1427.0139	65535	64630.05
884.4274	1428.8502	65535	64632.6
884.571	1430.6858	65535	64633.6
884.7146	1432.5206	65535	64635.6
884.8582	1434.3547	65535	64631.95
885.0018	1436.188	65535	64633.35
885.1453	1438.0206	65535	64632.4
885.2889	1439.8524	65535	64633
885.4324	1441.6835	65535	64632.2
885.5759	1443.5139	65535	64631.45
885.7194	1445.3435	65535	64634.65
885.8629	1447.1724	65535	64636.6
886.0064	1449.0005	65535	64635.75
886.1499	1450.8279	65535	64631.1
886.2933	1452.6545	65535	64631.05
886.4368	1454.4804	65535	64633.2
886.5802	1456.3056	65535	64625.5
886.7237	1458.13	65535	64632.7
886.8671	1459.9536	65535	64629.85
887.0105	1461.7766	65535	64633.85
887.1539	1463.5987	65535	64631.7
887.2972	1465.4202	65535	64634.25
887.4406	1467.2409	65535	64634.9
887.584	1469.0608	65535	64631.7
887.7273	1470.88	65535	64633.1
887.8706	1472.6984	65535	64632.3
888.0139	1474.5161	65535	64630.6
888.1572	1476.3331	65535	64633.45
888.3005	1478.1493	65535	64632.25
888.4438	1479.9648	65535	64632.8
888.5871	1481.7795	65535	64633.5
888.7303	1483.5935	65535	64634
888.8736	1485.4067	65535	64632.9
889.0168	1487.2192	65535	64633.05
889.16	1489.031	65535	64628.65
889.3032	1490.842	65535	64633.35
889.4464	1492.6522	65535	64632.4
889.5896	1494.4618	65535	64632.55
889.7327	1496.2705	65535	64634.45
889.8759	1498.0785	65535	64631.3
890.019	1499.8858	65535	64634.05
890.1622	1501.6924	65535	64633.7
890.3053	1503.4981	65535	64634.25
890.4484	1505.3032	65535	64633.6
890.5914	1507.1075	65535	64634.05
890.7345	1508.911	65535	64633
890.8776	1510.7138	65535	64634.4
891.0206	1512.5159	65535	64631
891.1637	1514.3172	65535	64633.8
891.3067	1516.1178	65535	64635.85
891.4497	1517.9176	65535	64630.6
891.5927	1519.7166	65535	64633.65
891.7357	1521.515	65535	64629.9
891.8786	1523.3126	65535	64633.65
892.0216	1525.1094	65535	64636.3
892.1645	1526.9055	65535	64637.9
892.3074	1528.7008	65535	64633.65
892.4503	1530.4954	65535	64629.9
892.5932	1532.2893	65535	64636.45
892.7361	1534.0824	65535	64631.05
892.879	1535.8747	65535	64633.75
893.0218	1537.6663	65535	64632.95
893.1647	1539.4572	65535	64631.3
893.3075	1541.2473	65535	64634.7
893.4503	1543.0367	65535	64634.7
893.5931	1544.8253	65535	64632
893.7359	1546.6132	65535	64632.2
893.8787	1548.4003	65533.75	64623.05
894.0214	1550.1867	65533.6	64624.75
894.1642	1551.9723	65529.6	64623.4
894.3069	1553.7572	65530.7	64630.4
894.4496	1555.5414	65535	64633.15
894.5923	1557.3247	65475.05	64575.6
894.735	1559.1074	65532.8	64634.8
894.8777	1560.8893	65522.85	64625.25
895.0204	1562.6705	65525.9	64628.15
895.163	1564.4509	65485.05	64586.6
895.3056	1566.2305	65517.2	64619.8
895.4482	1568.0094	65526.3	64625.3
895.5908	1569.7876	65520.1	64621.8
895.7334	1571.565	65491	64593.1
895.876	1573.3417	65503.8	64606.45
896.0186	1575.1176	65509.05	64612.25
896.1611	1576.8928	65467.2	64569.15
896.3036	1578.6672	65439.75	64543.3
896.4461	1580.4409	65464.8	64568.05
896.5886	1582.2138	65410.45	64508.8
896.7311	1583.986	65421.35	64522.35
896.8736	1585.7575	65357.15	64457.55
897.0161	1587.5282	65381.5	64485.85
897.1585	1589.2981	65381.95	64484.15
897.3009	1591.0673	65320	64422.55
897.4433	1592.8358	65224.5	64327.05
897.5857	1594.6035	65320	64420.9
897.7281	1596.3704	65318.2	64420.6
897.8705	1598.1366	65106.2	64207.95
898.0128	1599.9021	64962.25	64066.8
898.1551	1601.6668	65214.65	64315.35
898.2975	1603.4308	65075.9	64177.55
898.4398	1605.194	65072.7	64170.4
898.5821	1606.9564	64625	63728.8
898.7243	1608.7182	64910.85	64008.75
898.8666	1610.4791	64624.8	63730.85
899.0088	1612.2394	64927.4	64030.55
899.1511	1613.9988	64489.5	63593.25
899.2933	1615.7576	64922.85	64027.55
899.4355	1617.5156	64946.85	64041.95
899.5776	1619.2728	65181.9	64284.1
899.7198	1621.0293	64703.35	63805.95
899.862	1622.785	64691.75	63793.1
900.0041	1624.54	64923.55	64024.35
900.1462	1626.2942	64530.65	63633.55
900.2883	1628.0477	63759.95	62860.05
900.4304	1629.8005	62900.1	61998.4
900.5725	1631.5525	63806.15	62910.1
900.7145	1633.3037	62580.65	61684.05
900.8566	1635.0542	62405.1	61509.2
900.9986	1636.804	62899.7	62002.95
901.1406	1638.553	61604	60626.8
901.2826	1640.3013	62036.1	61140.2
901.4245	1642.0488	61278.5	60382
901.5665	1643.7955	61842.15	60948.75
901.7085	1645.5416	61261.55	60367.55
901.8504	1647.2868	60739	59843.45
901.9923	1649.0313	61652.75	60755.5
902.1342	1650.7751	61119.4	60220
902.2761	1652.5181	60713.45	59815.85
902.4179	1654.2604	60854.9	59959.15
902.5598	1656.0019	61330.4	60433.7
902.7016	1657.7427	61010.5	60112.9
902.8434	1659.4828	61609.7	60714.4
902.9852	1661.222	61113.55	60215.4
903.127	1662.9606	61729.6	60835.15
903.2687	1664.6984	60776.1	59880.9
903.4105	1666.4354	61030.25	60132.35
903.5522	1668.1717	59803.7	58906.95
903.6939	1669.9072	59008.9	58111.2
903.8356	1671.642	58740.9	57843.8
903.9773	1673.3761	58353.35	57458.3
904.119	1675.1094	58095.55	57200
904.2606	1676.8419	57443.6	56548.4
904.4022	1678.5737	57361.7	56465.55
904.5439	1680.3048	57011.8	56115.4
904.6855	1682.0351	56610.4	55714.95
904.827	1683.7646	56378.25	55477.35
904.9686	1685.4934	56508.45	55612.65
905.1101	1687.2215	55450.1	54553.2
905.2517	1688.9488	56037.55	55141.4
905.3932	1690.6754	54653.2	53758.5
905.5347	1692.4012	55144.65	54247.75
905.6761	1694.1263	55036.95	54141.55
905.8176	1695.8506	54683	53785.7
905.9591	1697.5742	54509.55	53615.75
906.1005	1699.297	54343.35	53448.3
906.2419	1701.0191	54109.3	53216.15
906.3833	1702.7404	53618.25	52726.45
906.5246	1704.461	53361.7	52467.15
906.666	1706.1808	53293.7	52394.85
906.8073	1707.8999	53125.35	52229.3
906.9487	1709.6182	52894.45	51997.8
907.09	1711.3358	52793.8	51900.8
907.2313	1713.0527	52542.7	51650.35
907.3725	1714.7688	52441.75	51541.55
907.5138	1716.4841	51876.5	50976.65
907.655	1718.1987	52063.05	51162.75
907.7962	1719.9126	51733.8	50839.95
907.9374	1721.6257	51607.55	50709.65
908.0786	1723.338	51669.45	50774.55
908.2198	1725.0496	51019.15	50125.35
908.3609	1726.7605	50956.6	50058.25
908.502	1728.4706	50784.25	49888.7
908.6431	1730.18	50620.2	49723.2
908.7842	1731.8886	50473.1	49578.65
908.9253	1733.5964	50275.65	49360.3
909.0664	1735.3036	50278.4	49380.4
909.2074	1737.0099	50046.95	49151.4
909.3484	1738.7156	49781.8	48888.3
909.4894	1740.4204	49584.15	48687.35
909.6304	1742.1246	49500	48604.7
909.7714	1743.8279	49370.15	48475.2
909.9123	1745.5306	49299	48404.1
910.0532	1747.2325	48921.8	48026.65
910.1941	1748.9336	48801.1	47905.6
910.335	1750.634	48618.8	47723.5
910.4759	1752.3336	48571.7	47676.05
910.6168	1754.0325	48406.25	47512.45
910.7576	1755.7307	48340.5	47446.75
910.8984	1757.4281	48170.35	47277
911.0392	1759.1247	48176.7	47275.45
911.18	1760.8206	47903.45	47003.3
911.3208	1762.5158	47858.55	46961.1
911.4615	1764.2102	47617.2	46725.3
911.6022	1765.9039	47419.55	46526.2
911.7429	1767.5968	47350.05	46457.7
911.8836	1769.289	47210.65	46317
912.0243	1770.9804	47065.15	46168.9
912.1649	1772.6711	46996.8	46101.95
912.3056	1774.361	46842.35	45943.8
912.4462	1776.0502	46737.5	45842.85
912.5868	1777.7386	46572.6	45675.9
912.7274	1779.4263	46419.4	45526.55
912.8679	1781.1132	46349.9	45457.15
913.0084	1782.7994	46123.55	45229.05
913.149	1784.4849	46080.05	45187.95
913.2895	1786.1696	45846.65	44944.7
913.4299	1787.8535	45754.1	44861.35
913.5704	1789.5367	45579.2	44683.9
913.7108	1791.2192	45518.65	44624.75
913.8513	1792.9009	45247.6	44321.2
913.9917	1794.5818	45165.9	44270.25
914.132	1796.2621	45076.9	44184.25
914.2724	1797.9415	44888.95	43995.7
914.4128	1799.6202	44738.25	43846.1
914.5531	1801.2982	44652.6	43757.4
914.6934	1802.9755	44533.25	43639.5
914.8337	1804.6519	44460.4	43565.6
914.9739	1806.3277	44240.95	43348.15
915.1142	1808.0027	44060	43165.4
915.2544	1809.6769	44016.65	43121
915.3946	1811.3504	43873.6	42978.7
915.5348	1813.0231	43756.05	42862.55
915.675	1814.6951	43681.8	42791.2
915.8151	1816.3664	43669.95	42775.7
915.9553	1818.0369	43453.85	42559.7
916.0954	1819.7067	43318.55	42426.65
916.2355	1821.3757	43192.1	42296.95
916.3755	1823.044	43094.8	42200.55
916.5156	1824.7115	42979.05	42083.75
916.6556	1826.3783	42753.05	41860.7
916.7956	1828.0443	42597.5	41705.95
916.9356	1829.7096	42504	41608.9
917.0756	1831.3741	42450.05	41551.75
917.2155	1833.0379	42252.25	41356.3
917.3555	1834.701	42121.05	41225.3
917.4954	1836.3633	42044.45	41150.4
917.6353	1838.0248	41918.35	41023.1
917.7751	1839.6856	41790	40897.1
917.915	1841.3457	41706.55	40814.05
918.0548	1843.005	41608.9	40716
918.1946	1844.6636	41519.3	40625.9
918.3344	1846.3214	41427.4	40532.9
918.4742	1847.9785	41353.4	40461.05
918.6139	1849.6349	41227.85	40332.9
918.7537	1851.2904	41149.8	40247.15
918.8934	1852.9453	41012.35	40119
919.0331	1854.5994	40880.2	39983.1
919.1727	1856.2528	40846.45	39948.05
919.3124	1857.9054	40703.05	39811
919.452	1859.5572	40638.3	39745.3
919.5916	1861.2083	40557.05	39663.25
919.7312	1862.8587	40480.1	39585.05
919.8708	1864.5084	40314.65	39420.1
920.0103	1866.1572	40185.75	39290.5
920.1498	1867.8054	39947	39053.5
920.2893	1869.4528	39904.35	39013.7
920.4288	1871.0994	39760.15	38866.45
920.5683	1872.7453	39684.4	38790.1
920.7077	1874.3905	39619.6	38718.75
920.8471	1876.0349	39469.1	38573.75
920.9865	1877.6786	39397.9	38502.8
921.1259	1879.3215	39343.8	38449.8
921.2653	1880.9637	39194.2	38300.95
921.4046	1882.6051	39144.6	38253.25
921.5439	1884.2458	39001.35	38105.5
921.6832	1885.8858	38854.8	37961.4
921.8225	1887.525	38782.15	37888.2
921.9617	1889.1634	38636.7	37744.1
922.101	1890.8011	38463.5	37567.25
922.2402	1892.4381	38360.75	37465.85
922.3794	1894.0743	38280.35	37386.75
922.5185	1895.7098	38199.75	37305.25
922.6577	1897.3446	38076.1	37181.45
922.7968	1898.9786	37978.95	37081.8
922.9359	1900.6118	37821.5	36927.7
923.075	1902.2443	37641.4	36746.85
923.214	1903.8761	37580.75	36687.05
923.3531	1905.5071	37304.95	36408.25
923.4921	1907.1374	37192.25	36297.6
923.6311	1908.7669	37137.5	36242.6
923.77	1910.3957	37046	36154.85
923.909	1912.0237	36832	35939.15
924.0479	1913.651	36748.25	35853.25
924.1868	1915.2776	36610	35720.05
924.3257	1916.9034	36419.4	35527.3
924.4646	1918.5285	36266.1	35372.6
924.6034	1920.1528	36129.2	35236.65
924.7422	1921.7764	36063.6	35171.5
924.881	1923.3992	35927.6	35036.5
925.0198	1925.0213	35671.4	34777.15
925.1586	1926.6427	35529.25	34640.4
925.2973	1928.2633	35558.55	34546.95
925.436	1929.8832	35329.35	34433.9
925.5747	1931.5023	35167.35	34276.1
925.7134	1933.1207	35088	34194.35
925.852	1934.7383	34986.25	34091.75
925.9906	1936.3552	34816.45	33926.85
926.1292	1937.9714	34749.95	33855.2
926.2678	1939.5868	34575.7	33680.55
926.4064	1941.2015	34387.55	33492.4
926.5449	1942.8154	34260.15	33366.1
926.6834	1944.4286	34119.5	33224.7
926.8219	1946.041	33973.5	33061.15
926.9604	1947.6528	33787.3	32890.5
927.0988	1949.2637	33711.8	32818.75
927.2372	1950.8739	33530.5	32636.7
927.3756	1952.4834	33420.15	32524.8
927.514	1954.0921	33423	32530.05
927.6523	1955.7001	33255	32356.7
927.7907	1957.3074	33127.2	32233.8
927.929	1958.9139	32993.4	32101.95
928.0673	1960.5197	32841.05	31944.65
928.2055	1962.1247	32694.65	31803.05
928.3438	1963.729	32559	31668.9
928.482	1965.3325	32424.1	31506.7
928.6202	1966.9353	32316.8	31424.8
928.7584	1968.5374	32217.3	31323.2
928.8965	1970.1387	32121.45	31228.55
929.0346	1971.7393	31947.45	31052.7
929.1727	1973.3392	31861.9	30969.7
929.3108	1974.9383	31720.75	30828.55
929.4489	1976.5366	31581.4	30690.35
929.5869	1978.1342	31529.7	30636.05
929.7249	1979.7311	31465.8	30571.6
929.8629	1981.3273	31386.3	30492.95
930.0009	1982.9227	31239.15	30345.65
930.1388	1984.5173	31063.6	30169.6
930.2767	1986.1112	31003	30110.55
930.4146	1987.7044	30908.35	30018.15
930.5525	1989.2968	30783.15	29888.8
930.6904	1990.8885	30725.15	29828.35
930.8282	1992.4795	30597.05	29702.7
930.966	1994.0697	30464.75	29573.05
931.1038	1995.6592	30381.6	29488.5
931.2415	1997.2479	30292.55	29399.75
931.3793	1998.8359	30156.05	29264.4
931.517	2000.4232	30018.55	29126.5
931.6547	2002.0097	29927.95	29037.5
931.7923	2003.5955	29761.05	28869
931.93	2005.1805	29711.85	28817.9
932.0676	2006.7648	29590	28696.9
932.2052	2008.3484	29494	28602.4
932.3427	2009.9312	29527.5	28634.6
932.4803	2011.5133	29351.5	28461.1
932.6178	2013.0946	29265.45	28373.45
932.7553	2014.6752	29155.95	28265.4
932.8928	2016.2551	29102.55	28211.7
933.0302	2017.8342	28958.6	28066.3
933.1676	2019.4126	28857.2	27965.5
933.305	2020.9902	28731.35	27841
933.4424	2022.5672	28716.55	27823.25
933.5798	2024.1433	28605.45	27707.75
933.7171	2025.7188	28476.5	27584.25
933.8544	2027.2935	28338.05	27445.25
933.9917	2028.8674	28234.1	27341.95
934.129	2030.4406	28183.45	27291.55
934.2662	2032.0131	28037.25	27147.6
934.4034	2033.5849	27916.95	27017.15
934.5406	2035.1559	27856.05	26963.75
934.6778	2036.7261	27793.95	26903.4
934.8149	2038.2957	27722.35	26830.05
934.952	2039.8645	27609.5	26716.8
935.0891	2041.4325	27630.2	26734.95
935.2262	2042.9998	27490.1	26599.2
935.3632	2044.5664	27397.65	26505.8
935.5002	2046.1323	27305.35	26414.55
935.6372	2047.6974	27253.95	26362.65
935.7742	2049.2617	27165.45	26275.15
935.9111	2050.8254	27129.65	26217.7
936.048	2052.3883	27030.1	26137.2
936.1849	2053.9504	26922.9	26029.5
936.3218	2055.5118	26852.5	25960.2
936.4586	2057.0725	26724	25829.95
936.5955	2058.6325	26691.6	25798.85
936.7323	2060.1917	26554.1	25662.05
936.869	2061.7502	26497.4	25604.15
937.0058	2063.3079	26364.25	25471
937.1425	2064.8649	26241.9	25344.25
937.2792	2066.4212	26196.85	25306.25
937.4159	2067.9767	26123.45	25231.75
937.5525	2069.5315	26005.1	25114.05
937.6891	2071.0856	25862	24970.7
937.8257	2072.6389	25748.3	24855.3
937.9623	2074.1915	25669.5	24779.85
938.0989	2075.7433	25512	24617.05
938.2354	2077.2945	25478.7	24587.8
938.3719	2078.8448	25375.4	24482.5
938.5084	2080.3945	25266.9	24374.15
938.6448	2081.9434	25253.65	24363.25
938.7812	2083.4916	25161.15	24267.55
938.9176	2085.039	25062.6	24168.7
939.054	2086.5857	24974.65	24080
939.1903	2088.1317	24927.7	24035.2
939.3267	2089.677	24889	23993.7
939.463	2091.2215	24762.8	23871.15
939.5992	2092.7652	24711.55	23817.55
939.7355	2094.3083	24629.25	23736.3
939.8717	2095.8506	24556.35	23664.8
940.0079	2097.3921	24565.55	23673.45
940.1441	2098.933	24470.35	23577.75
940.2802	2100.4731	24393.45	23501.6
940.4163	2102.0124	24310.15	23408.7
940.5524	2103.5511	24253.35	23360.65
940.6885	2105.089	24169.25	23276.85
940.8245	2106.6261	24100.45	23208.45
940.9606	2108.1626	24028.6	23134.6
941.0965	2109.6983	24010.1	23088.75
941.2325	2111.2332	23854.7	22963.15
941.3684	2112.7675	23810.8	22915.95
941.5044	2114.301	23722.05	22829.7
941.6403	2115.8337	23698.35	22806.6
941.7761	2117.3657	23604.75	22712.05
941.912	2118.897	23543.95	22651.35
942.0478	2120.4276	23441.55	22542.9
942.1835	2121.9575	23325.6	22432.85
942.3193	2123.4866	23366.2	22458.6
942.455	2125.0149	23276	22379.85
942.5907	2126.5426	23109.8	22218.05
942.7264	2128.0695	23021.5	22125.25
942.8621	2129.5956	22984.3	22093.15
942.9977	2131.1211	22941	22045.35
943.1333	2132.6458	22873.8	21982.35
943.2689	2134.1698	22827.8	21932.7
943.4044	2135.693	22734.05	21837.9
943.54	2137.2155	22673.05	21779.95
943.6755	2138.7373	22637.6	21744.2
943.8109	2140.2584	22571.3	21679.15
943.9464	2141.7787	22459.45	21560.85
944.0818	2143.2983	22297.8	21405.55
944.2172	2144.8171	22215.65	21325
944.3526	2146.3353	22176.45	21284.1
944.4879	2147.8527	22096.7	21205.35
944.6232	2149.3693	22073.4	21181.05
944.7585	2150.8853	21969.2	21075.1
944.8938	2152.4005	21850.65	20958.95
945.029	2153.9149	21793.7	20901.65
945.1642	2155.4287	21719.5	20827.35
945.2994	2156.9417	21688.05	20794.35
945.4346	2158.454	21604.55	20708.85
945.5697	2159.9655	21537.35	20645.8
945.7048	2161.4764	21492.8	20601.4
945.8399	2162.9865	21401.65	20507.3
945.9749	2164.4958	21372.6	20477.85
946.1099	2166.0045	21308.95	20413.55
946.2449	2167.5124	21244.65	20351.2
946.3799	2169.0195	21199.55	20308.45
946.5148	2170.526	21132	20238.9
946.6498	2172.0317	21062.2	20169.7
946.7846	2173.5367	20996.95	20104.2
946.9195	2175.0409	20967.75	20074.5
947.0543	2176.5445	20913.05	20022.2
947.1891	2178.0473	20817.25	19924.85
947.3239	2179.5494	20702.85	19806.8
947.4587	2181.0507	20629.25	19735.25
947.5934	2182.5513	20578.2	19685.95
947.7281	2184.0512	20573.05	19679.4
947.8628	2185.5504	20497.1	19604.95
947.9974	2187.0488	20358.35	19465.75
948.132	2188.5465	20250.15	19357.55
948.2666	2190.0435	20196.65	19304.55
948.4012	2191.5397	20116.65	19223.65
948.5357	2193.0353	20083.25	19190
948.6702	2194.5301	19968.7	19075.65
948.8047	2196.0241	19868.85	18973.45
948.9392	2197.5175	19820.45	18926.7
949.0736	2199.0101	19748.4	18851.3
949.208	2200.502	19648.3	18757.7
949.3424	2201.9931	19546.2	18655.5
949.4767	2203.4835	19497.55	18604.6
949.611	2204.9733	19425.4	18527
949.7453	2206.4622	19375	18482.15
949.8796	2207.9505	19290.2	18392.15
950.0138	2209.438	19227.15	18336.1
950.148	2210.9248	19122.3	18230.2
950.2822	2212.4109	19061.55	18170.45
950.4164	2213.8962	19026.8	18131.35
950.5505	2215.3809	18994.05	18099.3
950.6846	2216.8648	18923.1	18026.15
950.8186	2218.3479	18863.1	17965.1
950.9527	2219.8304	18773.25	17877.65
951.0867	2221.3121	18677.25	17782.8
951.2207	2222.7931	18637.2	17745.65
951.3546	2224.2733	18570	17678
951.4886	2225.7529	18490.55	17596.15
951.6225	2227.2317	18406.1	17509.6
951.7563	2228.7098	18394.85	17501.9
951.8902	2230.1872	18278.55	17383.2
952.024	2231.6638	18258.9	17366.4
952.1578	2233.1397	18169.9	17271.5
952.2916	2234.6149	18148.7	17256.75
952.4253	2236.0894	18074.05	17180.5
952.559	2237.5632	18005.6	17104.15
952.6927	2239.0362	17933.9	17038.95
952.8263	2240.5085	17810.3	16916.4
952.9599	2241.9801	17793.75	16899.4
953.0935	2243.4509	17753.7	16861.25
953.2271	2244.921	17694.55	16800.9
953.3606	2246.3904	17601.8	16706.55
953.4941	2247.8591	17546.85	16655.2
953.6276	2249.3271	17479.55	16586.2
953.7611	2250.7943	17394.35	16502.25
953.8945	2252.2608	17324.85	16432.7
954.0279	2253.7266	17304.9	16412.6
954.1612	2255.1917	17268.85	16377
954.2946	2256.656	17183.1	16288
954.4279	2258.1197	17133.3	16241.6
954.5612	2259.5826	17073.25	16176.55
954.6944	2261.0447	17030	16135.3
954.8276	2262.5062	16915.5	16021.55
954.9608	2263.9669	16926.8	16030.2
955.094	2265.4269	16868.4	15976.35
955.2271	2266.8862	16790.15	15896.8
955.3602	2268.3448	16790.95	15896.15
955.4933	2269.8026	16697	15802.45
955.6264	2271.2598	16657	15764.15
955.7594	2272.7162	16585.25	15692.8
955.8924	2274.1719	16547.2	15654.65
956.0253	2275.6268	16512.35	15618.95
956.1583	2277.0811	16497.65	15605.85
956.2912	2278.5346	16419.55	15528.5
956.4241	2279.9874	16372	15479.25
956.5569	2281.4395	16348.7	15457
956.6897	2282.8908	16244.6	15348.05
956.8225	2284.3414	16209.5	15315.75
956.9553	2285.7914	16129.95	15237.6
957.088	2287.2406	16100.15	15205.65
957.2207	2288.689	16048.2	15155.75
957.3534	2290.1368	15997.4	15103.7
957.486	2291.5838	15919.95	15024.05
957.6186	2293.0302	15899	15003.95
957.7512	2294.4758	15797	14902.55
957.8838	2295.9206	15757.4	14862.75
958.0163	2297.3648	15688.15	14795.85
958.1488	2298.8082	15702.9	14810.25
958.2813	2300.251	15618.8	14725.5
958.4137	2301.693	15553.6	14658.65
958.5461	2303.1343	15548.75	14654.75
958.6785	2304.5748	15480.45	14589.05
958.8108	2306.0147	15397.55	14505.45
958.9432	2307.4538	15360.5	14466.15
959.0754	2308.8922	15332.9	14440.7
959.2077	2310.3299	15262	14370.7
959.3399	2311.7669	15218.95	14327.75
959.4721	2313.2031	15143.85	14250.9
959.6043	2314.6387	15108.55	14214.65
959.7365	2316.0735	15052.55	14158.55
959.8686	2317.5076	15046.05	14153.2
960.0006	2318.941	14982.45	14089.4
960.1327	2320.3737	14940.25	14047.45
960.2647	2321.8056	14882.45	13987.95
960.3967	2323.2369	14834.45	13939.2
960.5287	2324.6674	14759.55	13862.75
960.6606	2326.0972	14711.65	13817.6
960.7925	2327.5263	14665.55	13773
960.9244	2328.9547	14606.3	13713.85
961.0562	2330.3823	14545.15	13652.2
961.1881	2331.8092	14551.3	13655.25
961.3198	2333.2355	14443.15	13549.35
961.4516	2334.661	14443.55	13549.25
961.5833	2336.0858	14409.05	13513.9
961.715	2337.5098	14356.05	13462.7
961.8467	2338.9332	14328.4	13436.45
961.9783	2340.3558	14280.15	13383.15
962.1099	2341.7778	14215.05	13322.65
962.2415	2343.199	14166.3	13272.7
962.373	2344.6195	14156.1	13264.5
962.5045	2346.0393	14113	13221.7
962.636	2347.4583	14074.15	13179.8
962.7675	2348.8767	14026.45	13131.75
962.8989	2350.2943	13925.25	13031.8
963.0303	2351.7113	13931.1	13035.75
963.1617	2353.1275	13847.85	12954.7
963.293	2354.543	13811.95	12911.65
963.4243	2355.9578	13785.4	12890.4
963.5556	2357.3718	13673.35	12780.75
963.6868	2358.7852	13647.6	12751.4
963.818	2360.1978	13606	12714.2
963.9492	2361.6098	13543.55	12648.7
964.0803	2363.021	13488.3	12592.15
964.2114	2364.4315	13453.55	12559.35
964.3425	2365.8413	13390.2	12496.8
964.4736	2367.2504	13335.7	12441.4
964.6046	2368.6587	13273.8	12382.25
964.7356	2370.0664	13205.4	12314.35
964.8666	2371.4733	13193.95	12302.85
964.9975	2372.8795	13163.2	12271.25
965.1284	2374.285	13094.15	12202.2
965.2593	2375.6899	13021.2	12129.3
965.3901	2377.0939	12953.95	12061.95
965.5209	2378.4973	12915.2	12022.8
965.6517	2379.9	12880.5	11987.7
965.7825	2381.3019	12792.25	11900.85
965.9132	2382.7032	12767.65	11876.25
966.0439	2384.1037	12725.7	11835.85
966.1745	2385.5035	12686.85	11794.45
966.3051	2386.9027	12648.05	11756.2
966.4357	2388.3011	12611.2	11714.6
966.5663	2389.6987	12553.95	11660.65
966.6968	2391.0957	12507.25	11614.5
966.8273	2392.492	12438.5	11547.3
966.9578	2393.8876	12385.65	11494.35
967.0882	2395.2824	12322.75	11430.55
967.2186	2396.6765	12264.05	11374.65
967.349	2398.07	12215.15	11326
967.4793	2399.4627	12199.15	11305.55
967.6097	2400.8547	12152.9	11260.85
967.7399	2402.246	12086.55	11189.6
967.8702	2403.6366	12036.7	11142.45
968.0004	2405.0265	12005.15	11113.8
968.1306	2406.4156	11955.25	11059.75
968.2607	2407.8041	11883.3	10988.6
968.3909	2409.1918	11848.2	10953.2
968.521	2410.5789	11801.35	10909.5
968.651	2411.9652	11763.6	10869.3
968.781	2413.3508	11726.5	10833.85
968.911	2414.7358	11674.1	10780.7
969.041	2416.12	11623.6	10732.4
969.1709	2417.5035	11610.4	10718.35
969.3008	2418.8863	11529.35	10636.85
969.4307	2420.2684	11520.9	10628.2
969.5606	2421.6497	11454	10562.05
969.6904	2423.0304	11404.75	10512.5
969.8201	2424.4104	11358.65	10467.3
969.9499	2425.7896	11317.25	10422.7
970.0796	2427.1682	11285.55	10393.4
970.2093	2428.546	11282.65	10391.4
970.3389	2429.9232	11232.75	10339.85
970.4685	2431.2996	11189.55	10296.85
970.5981	2432.6753	11179.25	10287.8
970.7277	2434.0503	11121.3	10228.85
970.8572	2435.4246	11073.75	10184
970.9867	2436.7982	11028.85	10135.65
971.1161	2438.1711	10996.5	10104.45
971.2456	2439.5433	10946.6	10052.85
971.375	2440.9148	10899.2	10006.15
971.5043	2442.2856	10856.4	9965
971.6336	2443.6557	10834.6	9941.95
971.7629	2445.025	10788.85	9896.95
971.8922	2446.3937	10778.35	9886.35
972.0214	2447.7617	10737.95	9843.25
972.1506	2449.1289	10736.75	9843.95
972.2798	2450.4955	10684.2	9788.1
972.4089	2451.8613	10650.8	9760.7
972.538	2453.2265	10600.1	9710.4
972.6671	2454.5909	10567.65	9674.65
972.7961	2455.9546	10565.25	9674.65
972.9251	2457.3177	10506.8	9614.4
973.0541	2458.68	10468.25	9574.5
973.1831	2460.0416	10476.95	9585.2
973.312	2461.4025	10436.95	9541.25
973.4408	2462.7627	10414.45	9511.35
973.5697	2464.1222	10355.45	9464.6
973.6985	2465.4811	10343.9	9452.55
973.8273	2466.8392	10290.75	9400.9
973.956	2468.1966	10270.35	9374.55
974.0847	2469.5533	10256.5	9362.25
974.2134	2470.9093	10223.45	9329.35
974.3421	2472.2645	10170.95	9280.2
974.4707	2473.6191	10148.6	9256.4
974.5993	2474.973	10090.3	9196.65
974.7278	2476.3262	10062.1	9169.25
974.8563	2477.6787	10027.55	9135.15
974.9848	2479.0305	9983.8	9093.5
975.1132	2480.3816	9963.55	9069.2
975.2417	2481.7319	9926.2	9032.55
975.37	2483.0816	9878.3	8983.8
975.4984	2484.4306	9851.6	8960
975.6267	2485.7789	9815.35	8923.5
975.755	2487.1264	9747.55	8853.6
975.8833	2488.4733	9726.8	8833.9
976.0115	2489.8195	9703.15	8793.9
976.1397	2491.165	9647	8750.05
976.2678	2492.5097	9602.7	8709.25
976.3959	2493.8538	9584.35	8691.9
976.524	2495.1972	9532	8639.75
976.6521	2496.5398	9481.6	8586.6
976.7801	2497.8818	9447.2	8552.6
976.9081	2499.2231	9424.25	8532
977.036	2500.5637	9381.85	8488.85
977.164	2501.9035	9362.5	8468.8
977.2918	2503.2427	9341.8	8447.1
977.4197	2504.5812	9305.55	8413.05
977.5475	2505.919	9278.3	8385.3
977.6753	2507.256	9258	8366.55
977.8031	2508.5924	9213.5	8320.25
977.9308	2509.9281	9170.5	8272.3
978.0585	2511.2631	9125.15	8233.9
978.1861	2512.5974	9095.65	8203.85
978.3137	2513.9309	9078.8	8185.1
978.4413	2515.2638	9078.55	8154.75
978.5689	2516.596	9046.65	8154.65
978.6964	2517.9275	8963.25	8068.6
978.8239	2519.2583	8947.75	8054.25
978.9513	2520.5884	8918.4	8023.55
979.0788	2521.9178	8869.9	7978.85
979.2062	2523.2465	8837.3	7945.65
979.3335	2524.5745	8789	7897.85
979.4608	2525.9018	8779.05	7887.45
979.5881	2527.2284	8765.85	7875.5
979.7154	2528.5543	8723.25	7830.2
979.8426	2529.8796	8689.8	7796.85
979.9698	2531.2041	8686.35	7794.1
980.0969	2532.5279	8658.2	7766.5
980.224	2533.851	8631.45	7737.5
980.3511	2535.1735	8611.35	7720.1
980.4781	2536.4952	8585.9	7691.85
980.6052	2537.8163	8556.2	7663.15
980.7321	2539.1366	8541.05	7649.9
980.8591	2540.4562	8506.55	7613.65
980.986	2541.7752	8492.05	7600.05
981.1129	2543.0935	8472.7	7579.7
981.2397	2544.411	8468.05	7574.65
981.3665	2545.7279	8430.9	7537.65
981.4933	2547.0441	8417.7	7524.95
981.62	2548.3596	8432.1	7536.15
981.7467	2549.6744	8386.55	7493.3
981.8734	2550.9885	8344.15	7450.05
982.0001	2552.3019	8307.25	7416.55
982.1267	2553.6146	8305.4	7410.95
982.2532	2554.9266	8262.1	7370.45
982.3798	2556.2379	8254	7361.5
982.5063	2557.5485	8236.8	7346.65
982.6327	2558.8585	8200.35	7300
982.7592	2560.1677	8181.65	7284.1
982.8856	2561.4762	8162.95	7268.5
983.0119	2562.7841	8156.7	7260.25
983.1383	2564.0913	8125.95	7234.45
983.2646	2565.3977	8119.2	7226.55
983.3908	2566.7035	8081.65	7189.25
983.517	2568.0086	8080.55	7185.55
983.6432	2569.313	8048.5	7154.85
983.7694	2570.6167	8049.45	7152.2
983.8955	2571.9197	8015.6	7123
984.0216	2573.222	7995.85	7100.5
984.1476	2574.5236	7978.35	7085.3
984.2737	2575.8246	7946.5	7050.9
984.3996	2577.1248	7907.75	7011.6
984.5256	2578.4244	7899.1	7006.15
984.6515	2579.7232	7895.4	7003.4
984.7774	2581.0214	7914	6996.65
984.9032	2582.3189	7855.1	6963.4
985.029	2583.6157	7841.1	6945.3
985.1548	2584.9118	7813.85	6920.9
985.2806	2586.2072	7783.8	6892.7
985.4063	2587.5019	7799.4	6906.85
985.5319	2588.7959	7736.95	6841.9
985.6576	2590.0893	7756.05	6861
985.7832	2591.3819	7725.95	6833.85
985.9087	2592.6739	7679.85	6786.7
986.0343	2593.9652	7676.8	6783.45
986.1597	2595.2557	7638.35	6745.8
986.2852	2596.5456	7611.35	6718
986.4106	2597.8348	7601.4	6709.6
986.536	2599.1234	7555.75	6661.55
986.6614	2600.4112	7528.25	6634.65
986.7867	2601.6983	7511.2	6614.45
986.912	2602.9848	7489.1	6595.9
987.0372	2604.2705	7448.7	6550.65
987.1624	2605.5556	7441.2	6547.6
987.2876	2606.84	7398.7	6506.9
987.4128	2608.1237	7387.85	6493.95
987.5379	2609.4067	7353.85	6463.55
987.6629	2610.689	7336.65	6435.9
987.788	2611.9707	7324.7	6429
987.913	2613.2516	7273.4	6376.5
988.0379	2614.5319	7256.5	6361.75
988.1629	2615.8115	7215.3	6322.7
988.2878	2617.0903	7178.15	6283.25
988.4126	2618.3685	7144.1	6250.8
988.5375	2619.6461	7139.4	6247.6
988.6622	2620.9229	7102	6211.2
988.787	2622.199	7089.25	6195.5
988.9117	2623.4745	7059.95	6167.5
989.0364	2624.7493	7055.6	6161.6
989.161	2626.0234	7018.1	6127.65
989.2857	2627.2968	7014.1	6121.6
989.4102	2628.5695	6988.1	6093.95
989.5348	2629.8415	6940.5	6049.25
989.6593	2631.1128	6915.15	6020.3
989.7837	2632.3835	6881.25	5987.65
989.9082	2633.6535	6831.3	5938.2
990.0326	2634.9228	6850.55	5959.55
990.1569	2636.1914	6814.8	5923.85
990.2812	2637.4593	6816.9	5919.05
990.4055	2638.7265	6771.05	5877.05
990.5298	2639.9931	6756.4	5862.2
990.654	2641.259	6740.85	5848.55
990.7782	2642.5242	6692.6	5801.3
990.9023	2643.7887	6685.35	5792
991.0264	2645.0525	6661.8	5769.35
991.1505	2646.3156	6625.35	5733.25
991.2745	2647.5781	6614.8	5724.35
991.3985	2648.8398	6597.85	5706.35
991.5225	2650.1009	6567.65	5664.8
991.6464	2651.3613	6567.55	5673.45
991.7703	2652.6211	6530.15	5637.9
991.8942	2653.8801	6528.6	5635.1
992.018	2655.1385	6510.95	5616.25
992.1418	2656.3961	6485.35	5593.7
992.2655	2657.6531	6474.8	5584.4
992.3892	2658.9094	6465.2	5573.35
992.5129	2660.1651	6440.9	5547.7
992.6366	2661.42	6422.55	5527.9
992.7602	2662.6743	6416.95	5521.5
992.8837	2663.9279	6383.35	5491.05
993.0073	2665.1808	6383.8	5489.15
993.1307	2666.433	6344.1	5451.9
993.2542	2667.6846	6328	5436.1
993.3776	2668.9354	6305	5409.6
993.501	2670.1856	6304.1	5412.2
993.6244	2671.4351	6288.8	5397.5
993.7477	2672.6839	6296.5	5403.05
993.8709	2673.9321	6240.25	5347.55
993.9942	2675.1795	6243.4	5349.65
994.1174	2676.4263	6216.3	5323.35
994.2405	2677.6724	6207.5	5315.65
994.3637	2678.9179	6178.6	5285.4
994.4868	2680.1626	6157.55	5266.95
994.6098	2681.4067	6144.35	5252.2
994.7328	2682.6501	6125.8	5232.35
994.8558	2683.8928	6108.5	5217.15
994.9788	2685.1348	6086.05	5194.3
995.1017	2686.3761	6049.7	5155.1
995.2245	2687.6168	6044.8	5151.85
995.3474	2688.8568	5997.25	5106.1
995.4702	2690.0961	6011.35	5120.35
995.5929	2691.3348	5981.95	5088.1
995.7156	2692.5727	5965.95	5073.4
995.8383	2693.81	5933.4	5041.95
995.961	2695.0466	5921.6	5031.8
996.0836	2696.2826	5911.05	5018.9
996.2062	2697.5178	5895.2	4998.45
996.3287	2698.7524	5891.95	4998.05
996.4512	2699.9863	5874.35	4980.25
996.5737	2701.2195	5845.45	4953.25
996.6961	2702.452	5819.25	4926.35
996.8185	2703.6839	5800.55	4907
996.9408	2704.9151	5808.55	4917.15
997.0631	2706.1456	5782.9	4889.2
997.1854	2707.3755	5768.5	4875.45
997.3077	2708.6046	5769.75	4874.8
997.4299	2709.8331	5738.2	4845.35
997.552	2711.0609	5716.65	4825.25
997.6742	2712.2881	5713.8	4821.7
997.7963	2713.5145	5692.3	4796.75
997.9183	2714.7403	5689.3	4799.2
998.0403	2715.9654	5672.1	4779.15
998.1623	2717.1899	5678.95	4769.95
998.2842	2718.4136	5672	4778.55
998.4062	2719.6367	5669.2	4776.35
998.528	2720.8591	5663.1	4766.05
998.6498	2722.0809	5621.3	4728.55
998.7716	2723.3019	5622.35	4726
998.8934	2724.5223	5624.45	4730.85
999.0151	2725.7421	5604.25	4710.05
999.1368	2726.9611	5607	4713.1
999.2584	2728.1795	5586.9	4689.7
999.38	2729.3972	5569.15	4676.9
999.5016	2730.6142	5518.3	4620.1
999.6231	2731.8306	5480.75	4587.85
999.7446	2733.0462	5453.7	4559.65
999.8661	2734.2612	5425.6	4528.85
999.9875	2735.4756	5392.9	4498.05
1000.1089	2736.6892	5348.95	4458.85
1000.2302	2737.9022	5338.95	4446.6
1000.3515	2739.1145	5296.3	4403.3
1000.4728	2740.3262	5267.45	4369.6
1000.594	2741.5372	5226.1	4334.75
1000.7152	2742.7475	5206.05	4314.45
1000.8363	2743.9571	5193.75	4301
1000.9575	2745.1661	5168.7	4270.8
1001.0785	2746.3744	5146.25	4250.5
1001.1996	2747.582	5124.5	4229.7
1001.3206	2748.7889	5077.85	4183.7
1001.4415	2749.9952	5055.8	4164.5
1001.5625	2751.2008	5062.25	4171.1
1001.6833	2752.4057	5039.2	4146
1001.8042	2753.61	5019.9	4127.35
1001.925	2754.8136	5002	4107
1002.0458	2756.0165	4981.15	4088.55
1002.1665	2757.2188	4992.75	4099.5
1002.2872	2758.4204	4964.5	4072.1
1002.4078	2759.6213	4939.7	4042.7
1002.5285	2760.8215	4947.45	4051.95
1002.649	2762.0211	4903.2	4008.8
1002.7696	2763.22	4896.4	4000.45
1002.8901	2764.4182	4874.8	3980.8
1003.0106	2765.6158	4869.15	3975.65
1003.131	2766.8127	4835.5	3941.7
1003.2514	2768.009	4816.25	3923.5
1003.3717	2769.2045	4806.8	3913.45
1003.492	2770.3994	4794.3	3901.65
1003.6123	2771.5936	4785.85	3892.55
1003.7325	2772.7872	4760.05	3868.95
1003.8527	2773.9801	4749.35	3855.6
1003.9729	2775.1723	4750.1	3840.2
1004.093	2776.3639	4709.4	3818.35
1004.2131	2777.5548	4694.35	3798
1004.3331	2778.745	4684	3788.8
1004.4531	2779.9346	4685.8	3793.65
1004.5731	2781.1235	4671.35	3779.5
1004.693	2782.3117	4656.9	3765.25
1004.8129	2783.4992	4637.35	3746.1
1004.9328	2784.6861	4626.8	3736
1005.0526	2785.8723	4622	3727.55
1005.1723	2787.0579	4610.95	3715.75
1005.2921	2788.2428	4619.9	3727.35
1005.4118	2789.427	4619.55	3725.5
1005.5314	2790.6106	4595	3702.8
1005.651	2791.7935	4575.9	3681.55
1005.7706	2792.9757	4582.4	3690.25
1005.8902	2794.1573	4592.3	3698.15
1006.0097	2795.3382	4582.1	3687.55
1006.1291	2796.5184	4567.15	3677.05
1006.2485	2797.698	4584.95	3692.85
1006.3679	2798.8769	4582.7	3689.5
1006.4873	2800.0551	4585.3	3692.3
1006.6066	2801.2327	4579.6	3682.8
1006.7258	2802.4096	4588.75	3696.55
1006.8451	2803.5859	4594.75	3701.75
1006.9642	2804.7615	4603.25	3710.45
1007.0834	2805.9364	4603.95	3714.25
1007.2025	2807.1106	4639.75	3750.45
1007.3216	2808.2842	4659.25	3766.35
1007.4406	2809.4572	4656.2	3764.3
1007.5596	2810.6294	4693.35	3799
1007.6785	2811.801	4722.85	3830.25
1007.7975	2812.972	4765.45	3870.45
1007.9163	2814.1423	4781.75	3889.75
1008.0352	2815.3119	4813.95	3921.5
1008.154	2816.4808	4861.35	3969.95
1008.2727	2817.6491	4886.25	3994
1008.3914	2818.8167	4935.5	4045.4
1008.5101	2819.9837	4960.55	4064.3
1008.6288	2821.15	4998.7	4104.85
1008.7474	2822.3157	5037.5	4145
1008.8659	2823.4807	5082.35	4189.85
1008.9844	2824.645	5125.15	4230.4
1009.1029	2825.8086	5122.55	4230
1009.2214	2826.9716	5166.6	4275.3
1009.3398	2828.134	5185.7	4295.3
1009.4581	2829.2957	5222.3	4329.65
1009.5764	2830.4567	5242.9	4351.75
1009.6947	2831.617	5248.35	4355.55
1009.813	2832.7767	5251.2	4359.05
1009.9312	2833.9358	5255.7	4364.85
1010.0493	2835.0941	5232.1	4338.9
1010.1675	2836.2519	5220.6	4328.45
1010.2855	2837.4089	5200.25	4307.3
1010.4036	2838.5653	5187.15	4296.05
1010.5216	2839.7211	5160.75	4269.15
1010.6396	2840.8761	5165.1	4269.4
1010.7575	2842.0306	5178.95	4286.5
1010.8754	2843.1843	5214.4	4323.25
1010.9932	2844.3374	5255.25	4362.05
1011.111	2845.4899	5303.8	4411.05
1011.2288	2846.6417	5382.95	4493.5
1011.3465	2847.7928	5452.45	4562.2
1011.4642	2848.9433	5532.55	4640.4
1011.5818	2850.0931	5584.65	4692.95
1011.6995	2851.2422	5655.45	4759.4
1011.817	2852.3907	5713.2	4821.7
1011.9345	2853.5385	5780	4886.15
1012.052	2854.6857	5852.25	4933.75
1012.1695	2855.8323	5861.7	4970.25
1012.2869	2856.9781	5902.35	5010.35
1012.4042	2858.1233	5947.65	5056.1
1012.5216	2859.2679	5969.45	5079
1012.6389	2860.4118	6003.25	5110.9
1012.7561	2861.555	6047.1	5150.3
1012.8733	2862.6976	6062.8	5167.9
1012.9905	2863.8395	6086.7	5196.5
1013.1076	2864.9808	6098.25	5206.55
1013.2247	2866.1214	6099.4	5209.35
1013.3417	2867.2614	6117.85	5224.35
1013.4587	2868.4007	6089	5194.45
1013.5757	2869.5393	6113.45	5218.85
1013.6926	2870.6773	6103.75	5208.75
1013.8095	2871.8146	6107.55	5211.55
1013.9263	2872.9513	6097	5202.65
1014.0431	2874.0874	6062.15	5170.8
1014.1599	2875.2227	6070.05	5178.15
1014.2766	2876.3574	6043.6	5149.55
1014.3933	2877.4915	6016.15	5123.05
1014.51	2878.6249	5962.65	5071.15
1014.6266	2879.7577	5934.85	5042
1014.7431	2880.8898	5899.75	4998
1014.8596	2882.0212	5862.6	4971.25
1014.9761	2883.152	5846.9	4955.6
1015.0925	2884.2821	5805.95	4914.05
1015.2089	2885.4116	5798.75	4906.45
1015.3253	2886.5405	5784.75	4893.9
1015.4416	2887.6686	5803.15	4909.05
1015.5579	2888.7962	5785.15	4893.8
1015.6741	2889.923	5776.5	4884.85
1015.7903	2891.0493	5783.65	4893.75
1015.9065	2892.1748	5778.3	4885.65
1016.0226	2893.2997	5778.95	4887.9
1016.1387	2894.424	5784.75	4893.15
1016.2547	2895.5476	5800.6	4910.85
1016.3707	2896.6706	5808.8	4915.85
1016.4866	2897.7929	5820.9	4927.7
1016.6025	2898.9145	5845.55	4951.95
1016.7184	2900.0355	5868.1	4975.45
1016.8342	2901.1559	5880.3	4988.5
1016.95	2902.2756	5886.25	4994
1017.0658	2903.3946	5920.65	5028.5
1017.1815	2904.513	5943.7	5050.15
1017.2971	2905.6308	5968.9	5076.6
1017.4127	2906.7479	5991.1	5098.4
1017.5283	2907.8643	6007.35	5114.5
1017.6439	2908.9801	6004.8	5114.25
1017.7594	2910.0953	6002.7	5111.7
1017.8748	2911.2098	5976.95	5081.95
1017.9902	2912.3236	5965.7	5065.45
1018.1056	2913.4368	5950.5	5055.8
1018.2209	2914.5494	5936.7	5044.85
1018.3362	2915.6613	5894.9	4998.3
1018.4515	2916.7725	5857.95	4963.5
1018.5667	2917.8831	5813.75	4922.85
1018.6819	2918.9931	5791.2	4898.95
1018.797	2920.1024	5743.3	4849.5
1018.9121	2921.211	5709.2	4817.35
1019.0271	2922.319	5693.95	4802.25
1019.1421	2923.4264	5664.9	4774
1019.2571	2924.5331	5641.25	4750.4
1019.372	2925.6391	5614.55	4723.45
1019.4869	2926.7445	5596.55	4707.9
1019.6017	2927.8493	5601.8	4710.75
1019.7165	2928.9534	5569	4674.95
1019.8313	2930.0569	5550.85	4657.2
1019.946	2931.1597	5528.3	4634.15
1020.0606	2932.2619	5501.35	4609.05
1020.1753	2933.3634	5510.25	4618.35
1020.2899	2934.4643	5492.8	4593.05
1020.4044	2935.5645	5461.05	4562.4
1020.5189	2936.6641	5433.05	4536.9
1020.6334	2937.763	5366.05	4475.6
1020.7478	2938.8613	5298.7	4405.6
1020.8622	2939.959	5249.6	4352.3
1020.9765	2941.056	5161	4269.4
1021.0908	2942.1523	5076.85	4183.15
1021.2051	2943.248	4983.75	4090.25
1021.3193	2944.3431	4873.05	3982.4
1021.4334	2945.4375	4755.75	3864.55
1021.5476	2946.5313	4648.9	3760.7
1021.6617	2947.6244	4540.65	3649.55
1021.7757	2948.7169	4425.5	3532.15
1021.8897	2949.8087	4321	3431.1
1022.0037	2950.8999	4211.1	3316.15
1022.1176	2951.9904	4126	3235.2
1022.2315	2953.0803	4052.7	3157.8
1022.3453	2954.1696	3968.75	3078.25
1022.4591	2955.2582	3912.55	3020.25
1022.5728	2956.3462	3877.05	2984.9
1022.6865	2957.4335	3824.65	2931.8
1022.8002	2958.5202	3782.4	2888.35
1022.9138	2959.6062	3738.25	2846
1023.0274	2960.6916	3694.4	2803.95
1023.141	2961.7764	3674.4	2779.4
1023.2545	2962.8605	3654	2761.4
1023.3679	2963.9439	3625.25	2735.2
1023.4813	2965.0267	3612.45	2718.75
1023.5947	2966.1089	3599.6	2684.75
1023.708	2967.1905	3581.2	2689.4
1023.8213	2968.2714	3582.6	2691.25
1023.9346	2969.3516	3557.8	2668.35
1024.0478	2970.4312	3578.25	2678.95
1024.1609	2971.5102	3560.3	2669.45
1024.274	2972.5885	3536.6	2643.85
1024.3871	2973.6662	3537.25	2640.3
1024.5002	2974.7432	3524.05	2633.25
1024.6132	2975.8196	3508.5	2619.4
1024.7261	2976.8954	3489	2597.8
1024.839	2977.9705	3473.9	2582.05
1024.9519	2979.045	3462.05	2569.15
1025.0647	2980.1188	3434	2543.15
1025.1775	2981.192	3399.25	2507.15
1025.2902	2982.2645	3391.15	2498.05
1025.4029	2983.3364	3350.15	2457.35
1025.5156	2984.4077	3309.75	2418
1025.6282	2985.4783	3281.35	2384.05
1025.7407	2986.5483	3234.7	2341.7
1025.8532	2987.6177	3197.55	2305.85
1025.9657	2988.6864	3170.9	2278.6
1026.0782	2989.7545	3125.75	2232.5
1026.1906	2990.8219	3072.85	2181.95
1026.3029	2991.8887	3038.45	2147.25
1026.4152	2992.9548	3007.55	2115.4
1026.5275	2994.0204	2980.3	2090.85
1026.6397	2995.0852	2930.9	2041.95
1026.7519	2996.1495	2915.9	2024.3
1026.864	2997.2131	2869.5	1977.8
1026.9761	2998.276	2843.5	1952.5
1027.0882	2999.3383	2818.7	1925.55
1027.2002	3000.4	2791.6	1900.3
1027.3122	3001.4611	2788.05	1896.25
1027.4241	3002.5215	2757.85	1865.7
1027.536	3003.5812	2736.15	1846.7
1027.6478	3004.6404	2723.8	1833.85
1027.7596	3005.6989	2715.25	1820.8
1027.8714	3006.7567	2703.35	1812
1027.9831	3007.8139	2691.3	1777.5
1028.0947	3008.8705	2658.1	1765.5
1028.2064	3009.9264	2661.15	1766.55
1028.3179	3010.9818	2648.75	1758.6
1028.4295	3012.0364	2649.2	1757.1
1028.541	3013.0905	2633.45	1741.8
1028.6524	3014.1439	2629.15	1737.05
1028.7638	3015.1966	2617.9	1727.4
1028.8752	3016.2487	2607.8	1716.3
1028.9865	3017.3002	2607.85	1709.75
1029.0978	3018.3511	2606.8	1717.35
1029.209	3019.4013	2596.35	1704.15
1029.3202	3020.4509	2592.6	1701.8
1029.4314	3021.4998	2588.7	1698.9
1029.5425	3022.5481	2575.7	1684.7
1029.6535	3023.5958	2573.8	1682.9
1029.7645	3024.6428	2585.3	1693.2
1029.8755	3025.6892	2566.7	1676.9
1029.9864	3026.735	2573.3	1681.45
1030.0973	3027.7802	2575.1	1683.3
1030.2082	3028.8247	2553.25	1663.35
1030.319	3029.8685	2549.3	1657.6
1030.4297	3030.9118	2549.4	1655.25
1030.5404	3031.9544	2559.75	1668.6
1030.6511	3032.9963	2548.75	1655.7
1030.7617	3034.0376	2546.6	1654.95
1030.8723	3035.0783	2542.75	1646.6
1030.9829	3036.1184	2555	1660.5
1031.0934	3037.1578	2532	1641.45
1031.2038	3038.1966	2539.8	1646.95
1031.3142	3039.2348	2527.55	1637.35
1031.4246	3040.2723	2537.15	1638.75
1031.5349	3041.3092	2512.9	1621.85
1031.6452	3042.3455	2516.15	1626.05
1031.7554	3043.3811	2516	1622.75
1031.8656	3044.4161	2506.45	1615.35
1031.9758	3045.4505	2492.8	1600.15
1032.0859	3046.4842	2477.15	1583.85
1032.1959	3047.5173	2465	1574.55
1032.3059	3048.5498	2449.65	1559.3
1032.4159	3049.5816	2463.25	1572.75
1032.5258	3050.6128	2440.45	1549.4
1032.6357	3051.6434	2429.65	1537.4
1032.7455	3052.6734	2422.8	1530.3
1032.8553	3053.7027	2410.5	1519.05
1032.9651	3054.7314	2398.75	1507.5
1033.0748	3055.7594	2381.35	1491.6
1033.1845	3056.7868	2375.75	1483.9
1033.2941	3057.8136	2368.65	1477.55
1033.4037	3058.8398	2350	1459.7
1033.5132	3059.8653	2344.45	1453.15
1033.6227	3060.8902	2332.85	1442.1
1033.7321	3061.9145	2323.15	1432.55
1033.8415	3062.9381	2317.15	1427.15
1033.9509	3063.9612	2319.9	1409.5
1034.0602	3064.9835	2291.85	1399.75
1034.1694	3066.0053	2290.55	1396
1034.2787	3067.0264	2273.35	1382.5
1034.3878	3068.0469	2263.55	1371.1
1034.497	3069.0668	2251.6	1356.3
1034.6061	3070.086	2243.7	1354.55
1034.7151	3071.1046	2231.75	1340.35
1034.8241	3072.1226	2213.45	1321.35
1034.9331	3073.1399	2206.85	1316.6
1035.042	3074.1567	2182.95	1292.65
1035.1508	3075.1727	2164.6	1272.55
1035.2597	3076.1882	2156.45	1266.8
1035.3684	3077.203	2145.55	1254.45
1035.4772	3078.2173	2139.3	1246.15
1035.5859	3079.2308	2123.35	1228.6
1035.6945	3080.2438	2106.05	1214.6
1035.8031	3081.2561	2099.8	1210.4
1035.9117	3082.2678	2078.9	1188.55
1036.0202	3083.2789	2082.6	1192.15
1036.1286	3084.2893	2060.35	1168.9
1036.2371	3085.2991	2054.4	1164.2
1036.3454	3086.3083	2048	1153.65
1036.4538	3087.3169	2046.15	1154
1036.562	3088.3248	2028.55	1136.75
1036.6703	3089.3321	2015.8	1123.05
1036.7785	3090.3388	2005.65	1115.55
1036.8866	3091.3449	1995.7	1104.25
1036.9948	3092.3503	2002.7	1109.35
1037.1028	3093.3551	1989.8	1100.4
1037.2108	3094.3593	1986.55	1095.1
1037.3188	3095.3629	1972.8	1082.55
1037.4267	3096.3658	1958.45	1067.3
1037.5346	3097.3681	1950.65	1060.05
1037.6425	3098.3698	1956.85	1062.95
1037.7503	3099.3708	1950.55	1051.4
1037.858	3100.3713	1933	1043.25
1037.9657	3101.3711	1940.8	1050.25
1038.0734	3102.3702	2025.4	1023.15
1038.181	3103.3688	1932.6	1038.3
1038.2886	3104.3667	1909.45	1020.7
1038.3961	3105.364	1904.4	1013.4
1038.5036	3106.3607	1900	1007.25
1038.611	3107.3568	1896.3	1004.3
1038.7184	3108.3522	1888.05	998.65
1038.8257	3109.347	1877.2	985.4
1038.933	3110.3412	1873.05	977.3
1039.0403	3111.3348	1873.95	982.4
1039.1475	3112.3277	1859.1	969.05
1039.2547	3113.32	1853.8	964.9
1039.3618	3114.3117	1852.4	959.3
1039.4689	3115.3028	1849.55	960.45
1039.5759	3116.2932	1846.1	954.9
1039.6829	3117.2831	1841.2	945.1
1039.7898	3118.2723	1825.8	934.9
1039.8967	3119.2608	1825.65	934.9
1040.0035	3120.2488	1825	932.6
1040.1103	3121.2361	1804.4	912.7
1040.2171	3122.2229	1803.4	911
1040.3238	3123.209	1800.15	907.95
1040.4305	3124.1944	1798.45	908.5
1040.5371	3125.1793	1794.55	902.6
1040.6437	3126.1635	1783.25	893.85
1040.7502	3127.1471	1784.15	894.4
1040.8567	3128.1301	1775.55	885.4
1040.9631	3129.1125	1773.1	882.2
1041.0695	3130.0942	1765.45	875.25
1041.1759	3131.0753	1770.45	869.9
1041.2822	3132.0558	1762.4	869.5
1041.3884	3133.0357	1750.45	858.05
1041.4946	3134.015	1747.4	857.3
1041.6008	3134.9936	1741.8	850.25
1041.7069	3135.9716	1764.65	854
1041.813	3136.949	1741.5	851.4
1041.919	3137.9258	1744.4	848.45
1042.025	3138.902	1731.75	835.65
1042.1309	3139.8775	1731.35	841.15
1042.2368	3140.8524	1717.85	827.55
1042.3427	3141.8267	1713.5	821.65
1042.4485	3142.8004	1711.7	818.95
1042.5542	3143.7735	1711.1	813.75
1042.6599	3144.7459	1710.95	818.05
1042.7656	3145.7178	1706.4	814.6
1042.8712	3146.689	1696.55	806.25
1042.9768	3147.6596	1690.15	796.65
1043.0823	3148.6295	1684	794.05
1043.1878	3149.5989	1679	786.75
1043.2932	3150.5676	1679.3	787.35
1043.3986	3151.5357	1670.45	781.2
1043.5039	3152.5032	1665.05	773.85
1043.6092	3153.4701	1665.9	775.15
1043.7145	3154.4364	1672.5	779.15
1043.8197	3155.402	1667.2	778.55
1043.9248	3156.367	1663.05	771.2
1044.03	3157.3315	1690.2	757.4
1044.135	3158.2952	1650.95	758.3
1044.24	3159.2584	1643.95	753.95
1044.345	3160.221	1634	743.85
1044.4499	3161.1829	1629.95	738.85
1044.5548	3162.1442	1619.05	728.85
1044.6596	3163.105	1616.2	726.05
1044.7644	3164.065	1613.75	723.25
1044.8692	3165.0245	1610.9	716.85
1044.9739	3165.9834	1605.25	716.9
1045.0785	3166.9416	1605	714.15
1045.1831	3167.8993	1599.8	709.05
1045.2877	3168.8563	1595.9	704.9
1045.3922	3169.8127	1591.8	702.4
1045.4966	3170.7684	1583.1	693.35
1045.6011	3171.7236	1585.4	693.75
1045.7054	3172.6782	1577.45	685.6
1045.8098	3173.6321	1583.7	692.35
1045.914	3174.5854	1575.15	679.25
1046.0183	3175.5381	1568.5	676.85
1046.1224	3176.4902	1569.8	679.75
1046.2266	3177.4417	1561.15	672.15
1046.3307	3178.3926	1558.35	668
1046.4347	3179.3428	1552.15	663.4
1046.5387	3180.2924	1552.4	661.6
1046.6427	3181.2415	1546.85	655.2
1046.7466	3182.1899	1544.2	652.2
1046.8504	3183.1377	1543.4	652
1046.9542	3184.0848	1545.25	651.15
1047.058	3185.0314	1535.85	645.15
1047.1617	3185.9773	1530.65	638.25
1047.2654	3186.9227	1523.45	632.2
1047.369	3187.8674	1520.05	628.45
1047.4726	3188.8115	1523.75	629.85
1047.5761	3189.755	1517.2	626.4
1047.6796	3190.6979	1509.9	619.4
1047.783	3191.6402	1505.75	616.05
1047.8864	3192.5818	1507.05	615.8
1047.9898	3193.5229	1523.6	619.7
1048.0931	3194.4633	1497.8	606.45
1048.1963	3195.4031	1491.95	602.35
1048.2995	3196.3423	1491.3	601.55
1048.4027	3197.2809	1493.55	604.25
1048.5058	3198.2189	1490.2	600.7
1048.6089	3199.1563	1491.6	593.9
1048.7119	3200.0931	1479.65	588.9
1048.8148	3201.0292	1474.3	584.25
1048.9178	3201.9648	1471.15	581.9
1049.0206	3202.8997	1481.75	588.75
1049.1235	3203.834	1469.85	577.4
1049.2262	3204.7677	1459.25	569.15
1049.329	3205.7008	1461	570.2
1049.4317	3206.6333	1459.4	570.75
1049.5343	3207.5652	1458.5	567.35
1049.6369	3208.4964	1456.85	565.85
1049.7394	3209.4271	1453.3	563.75
1049.8419	3210.3571	1455.1	564.85
1049.9444	3211.2865	1444.4	554.4
1050.0468	3212.2154	1448.6	556.4
1050.1491	3213.1436	1452.25	558.65
1050.2514	3214.0712	1441.8	545.7
1050.3537	3214.9982	1434.15	542.7
1050.4559	3215.9246	1438.9	548.1
1050.5581	3216.8503	1425.75	537.15
1050.6602	3217.7755	1426.35	535.95
1050.7623	3218.7001	1430.05	539.15
1050.8643	3219.624	1419.95	530.55
1050.9663	3220.5473	1420.25	530.6
1051.0682	3221.4701	1421.1	530.9
1051.1701	3222.3922	1413	520.8
1051.2719	3223.3137	1417.55	526.8
1051.3737	3224.2346	1410.75	520.25
1051.4754	3225.1549	1406.5	516.1
1051.5771	3226.0746	1395.45	504.5
1051.6788	3226.9937	1400.1	509.75
1051.7804	3227.9121	1394.95	506
1051.8819	3228.83	1395.75	505.4
1051.9834	3229.7473	1395.15	503.95
1052.0849	3230.6639	1391.45	501.15
1052.1863	3231.5799	1384.75	493.45
1052.2876	3232.4954	1389	498.05
1052.3889	3233.4102	1380.35	491.9
1052.4902	3234.3244	1379.15	488.25
1052.5914	3235.238	1379.05	488.4
1052.6926	3236.151	1391.3	479.9
1052.7937	3237.0634	1372.8	482.95
1052.8948	3237.9752	1362.95	472.2
1052.9958	3238.8864	1369.4	476.45
1053.0968	3239.797	1367.05	476.85
1053.1977	3240.7069	1364.3	473.35
1053.2986	3241.6163	1359.75	466.25
1053.3994	3242.5251	1355.95	465.6
1053.5002	3243.4332	1350.2	462.3
1053.6009	3244.3408	1349.7	458.85
1053.7016	3245.2477	1348.75	458.3
1053.8022	3246.154	1343.45	452.95
1053.9028	3247.0598	1339.55	448.75
1054.0034	3247.9649	1335.9	446
1054.1039	3248.8694	1323.8	432.75
1054.2043	3249.7733	1326.7	436.5
1054.3047	3250.6766	1323.5	430.95
1054.4051	3251.5793	1318	425.9
1054.5054	3252.4814	1323.3	433.6
1054.6056	3253.3829	1317.6	430.15
1054.7058	3254.2838	1310.4	420.55
1054.806	3255.1841	1309.9	421.4
1054.9061	3256.0838	1311.5	421.55
1055.0061	3256.9829	1308.4	420.55
1055.1062	3257.8814	1301.05	408.2
1055.2061	3258.7792	1297.15	404.85
1055.306	3259.6765	1295.55	404.45
1055.4059	3260.5731	1288.1	398.45
1055.5057	3261.4692	1287.15	398.1
1055.6055	3262.3647	1284	391.8
1055.7052	3263.2595	1277.5	386.9
1055.8049	3264.1538	1271.15	381.6
1055.9045	3265.0474	1267.25	376.15
1056.0041	3265.9404	1265.5	375.95
1056.1036	3266.8329	1254.1	362.5
1056.2031	3267.7247	1258.95	359.75
1056.3025	3268.616	1237	348
1056.4019	3269.5066	1229.45	340.5
1056.5013	3270.3966	1218.15	327
1056.6005	3271.286	1205.8	318
