Software Version:	3.9.2.0
Unit SN:	10000200
Spectrometer SN:	6960
Date:	3/6/2024 10:59:50 AM
Data Line Index:	25
Spectral Points:	2048
Integration time (ms):	125
Averages:	20
Delay (ms):	30
Sequence Number:	1
Processing:	dark subtract
Laser Power (mW):	305
Laser Current (mA):	822
Laser Diode Temp (C):	25.1
Laser Case Temp (C):	28.1
System Temp (C):	28
Spectrometer Temp (C):	25.4
CCD Temp (C):	-0.002
Secondary Temp (C):	20.006
Heatsink Temp (C):	23.712
CCDPCB Temp (C):	37.163
SecondaryPCB Temp (C):	34.473

Wavelength	RamanShift	Raw Counts	Dark Subtracted
787.061	30.1047	1079.1	668
787.2016	32.3739	1109.15	698.2
787.3422	34.6426	1143.05	733
787.4828	36.9109	1192.8	779.05
787.6235	39.1787	1250.25	832.5
787.7642	41.4461	1312.05	890.75
787.9049	43.7131	1373.5	948.35
788.0456	45.9796	1427.5	997.3
788.1863	48.2456	1487.1	1052.75
788.3271	50.5112	1562.8	1125.1
788.4679	52.7764	1622.75	1182.2
788.6087	55.0411	1696.7	1253.9
788.7496	57.3054	1771.55	1321.55
788.8904	59.5692	1865.35	1414.8
789.0313	61.8326	1958.55	1503.8
789.1722	64.0955	2058.75	1599.8
789.3132	66.3579	2176	1709.8
789.4541	68.6199	2316.45	1849.7
789.5951	70.8815	2544.4	2073.5
789.7361	73.1426	3018.5	2544.6
789.8771	75.4032	4231.6	3752.4
790.0181	77.6634	7288.25	6804.9
790.1592	79.9231	15072.45	14582.9
790.3003	82.1824	48563.8	48066.65
790.4414	84.4412	65535	65019.65
790.5825	86.6995	65535	64995.75
790.7237	88.9574	65535	64972.95
790.8648	91.2148	65535	64960.55
791.006	93.4717	65535	64951.4
791.1472	95.7282	65535	64940.35
791.2885	97.9842	65535	64938.9
791.4297	100.2398	65535	64935.6
791.571	102.4949	65535	64930.6
791.7123	104.7495	65535	64929.45
791.8536	107.0036	65535	64924.75
791.9949	109.2573	65535	64928.45
792.1363	111.5105	65535	64922.85
792.2777	113.7632	65535	64926.85
792.4191	116.0154	65535	64912.9
792.5605	118.2672	65535	64921.3
792.7019	120.5185	65535	64919.6
792.8434	122.7693	65535	64918.05
792.9849	125.0197	65535	64914.85
793.1264	127.2696	65535	64911.1
793.2679	129.519	65535	64909.75
793.4094	131.7679	65535	64905.95
793.551	134.0163	65535	64900.55
793.6926	136.2642	65535	64898.35
793.8342	138.5117	65535	64889.85
793.9758	140.7587	65535	64896.55
794.1175	143.0052	65535	64891.6
794.2591	145.2512	65535	64892.35
794.4008	147.4967	65535	64889.9
794.5425	149.7417	65535	64886.15
794.6842	151.9863	65535	64885.15
794.826	154.2304	65535	64880.9
794.9677	156.4739	65535	64876.75
795.1095	158.717	65535	64875.5
795.2513	160.9596	65535	64872.25
795.3931	163.2017	65535	64870.8
795.535	165.4433	65535	64866.15
795.6768	167.6844	65535	64867.25
795.8187	169.925	65535	64860.65
795.9606	172.1651	65535	64858.4
796.1025	174.4047	65535	64857.3
796.2445	176.6439	65535	64855.45
796.3864	178.8825	65535	64854.95
796.5284	181.1206	65535	64848
796.6704	183.3582	65535	64843.3
796.8124	185.5954	65535	64840.65
796.9544	187.832	65535	64837.4
797.0965	190.0681	65535	64837.05
797.2386	192.3037	65535	64833.1
797.3806	194.5388	65535	64832.1
797.5228	196.7734	65535	64826.8
797.6649	199.0075	65535	64824.4
797.807	201.2411	65535	64820.8
797.9492	203.4742	65535	64819.6
798.0914	205.7068	65535	64820.85
798.2336	207.9389	65535	64820.05
798.3758	210.1704	65535	64814.5
798.518	212.4015	65535	64814.15
798.6603	214.632	65535	64817.55
798.8025	216.862	65535	64827.8
798.9448	219.0915	65535	64832.85
799.0871	221.3205	65535	64833.5
799.2294	223.549	65535	64833.2
799.3718	225.777	65535	64839
799.5141	228.0044	65535	64833.2
799.6565	230.2314	65535	64836.05
799.7989	232.4578	65535	64832.85
799.9413	234.6837	65535	64819
800.0837	236.909	65535	64822.35
800.2262	239.1339	65535	64799
800.3687	241.3582	65535	64815.25
800.5111	243.582	65535	64779.4
800.6536	245.8053	65535	64794.5
800.7961	248.0281	65535	64797.35
800.9387	250.2503	65535	64791.5
801.0812	252.472	65535	64789.7
801.2238	254.6932	65535	64788.2
801.3664	256.9139	65535	64787.4
801.509	259.134	65535	64785
801.6516	261.3536	65535	64787.15
801.7942	263.5727	65535	64783.95
801.9369	265.7912	65535	64782.25
802.0795	268.0092	65535	64784.55
802.2222	270.2267	65535	64780.65
802.3649	272.4436	65535	64778.9
802.5076	274.6601	65535	64773.5
802.6504	276.8759	65535	64781.2
802.7931	279.0913	65535	64774.55
802.9359	281.3061	65535	64772.9
803.0787	283.5204	65535	64771.05
803.2215	285.7341	65535	64770.5
803.3643	287.9473	65535	64756.55
803.5071	290.16	65535	64760.4
803.6499	292.3721	65535	64768.4
803.7928	294.5837	65535	64769.8
803.9357	296.7947	65535	64769.15
804.0786	299.0052	65535	64766.5
804.2215	301.2152	65535	64765.75
804.3644	303.4246	65535	64768.95
804.5074	305.6334	65535	64766.6
804.6503	307.8418	65535	64765.85
804.7933	310.0495	65535	64762.7
804.9363	312.2568	65535	64764.8
805.0793	314.4635	65535	64758.45
805.2223	316.6696	65535	64760.75
805.3653	318.8752	65535	64750.55
805.5084	321.0802	65535	64755.7
805.6514	323.2847	65535	64756.55
805.7945	325.4887	65535	64755.35
805.9376	327.692	65535	64752.95
806.0807	329.8949	65535	64751.9
806.2238	332.0972	65535	64749.9
806.367	334.2989	65535	64748.75
806.5101	336.5001	65535	64749.45
806.6533	338.7007	65535	64745.8
806.7965	340.9008	65535	64746.95
806.9397	343.1003	65535	64746.8
807.0829	345.2992	65535	64743.55
807.2261	347.4976	65535	64743.05
807.3693	349.6955	65535	64735.55
807.5126	351.8927	65535	64738.5
807.6559	354.0895	65535	64727.85
807.7991	356.2856	65535	64737.2
807.9424	358.4812	65535	64737.8
808.0857	360.6763	65535	64733.55
808.2291	362.8707	65535	64732.8
808.3724	365.0646	65535	64732
808.5158	367.258	65535	64730.6
808.6591	369.4508	65535	64725.5
808.8025	371.643	65535	64728.15
808.9459	373.8346	65535	64724.75
809.0893	376.0257	65535	64719.4
809.2327	378.2162	65535	64720.25
809.3762	380.4062	65535	64718
809.5196	382.5956	65535	64715.6
809.6631	384.7844	65535	64716.7
809.8066	386.9726	65535	64718.85
809.9501	389.1603	65535	64721.5
810.0936	391.3474	65535	64679
810.2371	393.5339	65535	64721.35
810.3806	395.7199	65535	64724.15
810.5241	397.9052	65535	64726.6
810.6677	400.09	65535	64726.9
810.8113	402.2743	65535	64727.55
810.9548	404.4579	65535	64729.1
811.0984	406.641	65535	64728.35
811.2421	408.8235	65535	64725.6
811.3857	411.0054	65535	64727.2
811.5293	413.1868	65535	64721.2
811.673	415.3675	65535	64721.3
811.8166	417.5477	65535	64716.85
811.9603	419.7273	65535	64716.15
812.104	421.9064	65535	64706.9
812.2477	424.0848	65535	64712.9
812.3914	426.2627	65535	64707.6
812.5351	428.4399	65535	64711
812.6788	430.6166	65535	64707.4
812.8226	432.7928	65535	64701.6
812.9663	434.9683	65535	64705
813.1101	437.1432	65535	64699.2
813.2539	439.3176	65535	64701.4
813.3977	441.4914	65535	64702.1
813.5415	443.6645	65535	64703.95
813.6853	445.8371	65535	64700.65
813.8291	448.0091	65535	64702.05
813.973	450.1806	65535	64701.4
814.1168	452.3514	65535	64697.4
814.2607	454.5216	65535	64688.75
814.4046	456.6913	65535	64696.9
814.5485	458.8603	65535	64697.5
814.6924	461.0288	65535	64700.15
814.8363	463.1967	65535	64698.5
814.9802	465.3639	65535	64698.65
815.1241	467.5306	65535	64692.75
815.2681	469.6967	65535	64694.3
815.412	471.8622	65535	64699.3
815.556	474.0271	65535	64694.2
815.7	476.1914	65535	64691.4
815.844	478.3551	65535	64695.55
815.988	480.5182	65535	64695.65
816.132	482.6807	65535	64695.55
816.276	484.8426	65535	64694.9
816.4201	487.0039	65535	64695.15
816.5641	489.1647	65535	64691.75
816.7082	491.3248	65535	64690.65
816.8522	493.4843	65535	64694.2
816.9963	495.6432	65535	64691.2
817.1404	497.8015	65535	64689.1
817.2845	499.9592	65535	64689.05
817.4286	502.1163	65535	64689.4
817.5727	504.2728	65535	64687.35
817.7168	506.4287	65535	64690.6
817.861	508.5839	65535	64690.45
818.0051	510.7386	65535	64688.15
818.1493	512.8927	65535	64684.6
818.2935	515.0461	65535	64688.95
818.4377	517.199	65535	64685.95
818.5818	519.3512	65535	64688.4
818.726	521.5029	65535	64676.95
818.8703	523.6539	65535	64681.55
819.0145	525.8043	65535	64683.3
819.1587	527.9541	65535	64680.75
819.303	530.1033	65535	64678.15
819.4472	532.2519	65535	64679.2
819.5915	534.3999	65535	64677
819.7357	536.5472	65535	64680.35
819.88	538.694	65535	64680.25
820.0243	540.8401	65535	64678.8
820.1686	542.9856	65535	64675.5
820.3129	545.1305	65535	64674.85
820.4572	547.2748	65535	64674.85
820.6016	549.4185	65535	64677.6
820.7459	551.5615	65535	64679.05
820.8902	553.704	65535	64677.45
821.0346	555.8458	65535	64679.75
821.1789	557.987	65535	64678.45
821.3233	560.1276	65535	64677
821.4677	562.2675	65535	64677
821.6121	564.4069	65535	64676.6
821.7565	566.5456	65535	64677.7
821.9009	568.6837	65535	64677.45
822.0453	570.8212	65535	64678.95
822.1897	572.958	65535	64675.45
822.3342	575.0942	65535	64677.75
822.4786	577.2299	65535	64676.05
822.6231	579.3648	65535	64675.7
822.7675	581.4992	65535	64677.6
822.912	583.6329	65535	64677.35
823.0565	585.766	65535	64676.3
823.201	587.8985	65535	64676.9
823.3454	590.0304	65535	64648.9
823.4899	592.1616	65535	64670.05
823.6345	594.2922	65535	64670.45
823.779	596.4222	65535	64670.8
823.9235	598.5515	65535	64669.95
824.068	600.6802	65535	64669.75
824.2126	602.8083	65535	64671.1
824.3571	604.9358	65535	64669.9
824.5017	607.0626	65535	64668.6
824.6462	609.1888	65535	64666.35
824.7908	611.3144	65535	64668
824.9354	613.4393	65535	64668.95
825.08	615.5636	65535	64666.45
825.2246	617.6873	65535	64669
825.3692	619.8103	65535	64665.8
825.5138	621.9327	65535	64660.85
825.6584	624.0544	65535	64668.4
825.803	626.1756	65535	64665.85
825.9477	628.2961	65535	64665.55
826.0923	630.4159	65535	64667.2
826.237	632.5351	65535	64664.35
826.3816	634.6537	65535	64666.55
826.5263	636.7716	65535	64662.85
826.6709	638.8889	65535	64663.1
826.8156	641.0056	65535	64664.2
826.9603	643.1216	65535	64663.3
827.105	645.237	65535	64661.45
827.2497	647.3518	65535	64662.3
827.3944	649.4659	65535	64664.25
827.5391	651.5793	65535	64665.7
827.6838	653.6922	65535	64663.65
827.8285	655.8043	65535	64662.65
827.9733	657.9159	65535	64660.65
828.118	660.0268	65535	64660.3
828.2627	662.137	65535	64660.4
828.4075	664.2466	65535	64658.85
828.5522	666.3556	65535	64658.65
828.697	668.4639	65535	64655.8
828.8418	670.5716	65535	64661.25
828.9865	672.6786	65535	64658.05
829.1313	674.785	65535	64656.55
829.2761	676.8907	65535	64656.5
829.4209	678.9958	65535	64659.15
829.5657	681.1002	65535	64657.15
829.7105	683.204	65535	64654.95
829.8553	685.3072	65535	64657.3
830.0001	687.4097	65535	64656.55
830.1449	689.5115	65535	64653.75
830.2898	691.6127	65535	64656.6
830.4346	693.7132	65535	64657
830.5794	695.8131	65535	64650.15
830.7243	697.9123	65535	64655.75
830.8691	700.0109	65535	64653.45
831.014	702.1089	65535	64656.8
831.1588	704.2061	65535	64657.9
831.3037	706.3028	65535	64653.1
831.4486	708.3987	65535	64651.6
831.5935	710.4941	65535	64654.6
831.7383	712.5887	65535	64655.7
831.8832	714.6827	65535	64651.75
832.0281	716.7761	65535	64655.55
832.173	718.8688	65535	64653.7
832.3179	720.9608	65535	64649.35
832.4628	723.0522	65535	64647.4
832.6077	725.1429	65535	64651.3
832.7527	727.233	65535	64652.6
832.8976	729.3224	65535	64652.4
833.0425	731.4112	65535	64649.25
833.1874	733.4993	65535	64651.6
833.3324	735.5867	65535	64648.25
833.4773	737.6735	65535	64649.85
833.6222	739.7596	65535	64649.95
833.7672	741.845	65535	64649.4
833.9122	743.9298	65535	64648.5
834.0571	746.014	65535	64652.45
834.2021	748.0974	65535	64649.5
834.347	750.1802	65535	64648.2
834.492	752.2624	65535	64647.45
834.637	754.3439	65535	64648.5
834.782	756.4247	65535	64641.6
834.9269	758.5048	65535	64650.9
835.0719	760.5843	65535	64648.65
835.2169	762.6631	65535	64648.05
835.3619	764.7413	65535	64649
835.5069	766.8188	65535	64648.95
835.6519	768.8956	65535	64646.3
835.7969	770.9718	65535	64649.35
835.9419	773.0473	65535	64651.25
836.0869	775.1221	65535	64649.45
836.232	777.1962	65535	64647.3
836.377	779.2697	65535	64647.25
836.522	781.3426	65535	64627.95
836.667	783.4147	65535	64648.7
836.8121	785.4862	65535	64651
836.9571	787.557	65535	64647.6
837.1021	789.6271	65535	64647.15
837.2472	791.6966	65535	64648.7
837.3922	793.7654	65535	64647.2
837.5373	795.8335	65535	64645.95
837.6823	797.901	65535	64644.4
837.8274	799.9678	65535	64644.95
837.9724	802.0339	65535	64647.75
838.1175	804.0993	65535	64636
838.2626	806.1641	65535	64642.7
838.4076	808.2282	65535	64649.95
838.5527	810.2916	65535	64644.25
838.6978	812.3544	65535	64650.35
838.8428	814.4164	65535	64647.9
838.9879	816.4778	65535	64644.35
839.133	818.5385	65535	64646.7
839.2781	820.5986	65535	64643.9
839.4232	822.658	65535	64642.9
839.5682	824.7166	65535	64645.3
839.7133	826.7747	65535	64647.2
839.8584	828.832	65535	64642.35
840.0035	830.8886	65535	64642.55
840.1486	832.9446	65535	64642.8
840.2937	834.9999	65535	64646.95
840.4388	837.0545	65535	64642.7
840.5839	839.1085	65535	64640.95
840.729	841.1618	65535	64638.75
840.8741	843.2143	65535	64645.35
841.0192	845.2662	65535	64644.55
841.1643	847.3175	65535	64643.6
841.3095	849.368	65535	64640.85
841.4546	851.4179	65535	64642.3
841.5997	853.467	65535	64642.2
841.7448	855.5155	65535	64645
841.8899	857.5633	65535	64643.25
842.0351	859.6105	65535	64645.3
842.1802	861.6569	65535	64643.05
842.3253	863.7027	65535	64641.5
842.4704	865.7478	65535	64642.4
842.6156	867.7922	65535	64643.35
842.7607	869.8359	65535	64640.7
842.9058	871.8789	65535	64640.85
843.0509	873.9212	65535	64608.7
843.1961	875.9629	65535	64641.15
843.3412	878.0039	65535	64642.75
843.4863	880.0441	65535	64642.75
843.6315	882.0837	65535	64641.9
843.7766	884.1226	65535	64639.85
843.9218	886.1609	65535	64642
844.0669	888.1984	65535	64644.8
844.212	890.2352	65535	64643.25
844.3572	892.2714	65535	64638.55
844.5023	894.3069	65535	64642.3
844.6475	896.3416	65535	64641.45
844.7926	898.3757	65535	64640.25
844.9377	900.4091	65535	64638.2
845.0829	902.4418	65535	64636.45
845.228	904.4739	65535	64638.75
845.3732	906.5052	65535	64639.45
845.5183	908.5358	65535	64639.8
845.6635	910.5658	65535	64638.95
845.8086	912.595	65535	64640.95
845.9538	914.6236	65535	64639.7
846.0989	916.6515	65535	64641.55
846.2441	918.6786	65535	64641.55
846.3892	920.7051	65535	64636.8
846.5344	922.7309	65535	64639.05
846.6795	924.756	65535	64637.05
846.8246	926.7804	65535	64639.05
846.9698	928.8041	65535	64636.45
847.1149	930.8272	65535	64638.95
847.2601	932.8495	65535	64640.4
847.4052	934.8711	65535	64640.15
847.5504	936.892	65535	64638.6
847.6955	938.9123	65535	64638.95
847.8407	940.9318	65535	64639.95
847.9858	942.9506	65535	64637.75
848.131	944.9688	65535	64640.4
848.2761	946.9862	65535	64638.05
848.4213	949.003	65535	64639.75
848.5664	951.019	65535	64639.25
848.7115	953.0344	65535	64641.15
848.8567	955.0491	65535	64637.7
849.0018	957.063	65535	64639.6
849.147	959.0763	65535	64639.15
849.2921	961.0888	65535	64637.35
849.4373	963.1007	65535	64640.4
849.5824	965.1119	65535	64639.95
849.7275	967.1223	65535	64641
849.8727	969.1321	65535	64641.45
850.0178	971.1412	65535	64639.1
850.1629	973.1495	65535	64639.35
850.3081	975.1572	65535	64604.35
850.4532	977.1641	65535	64637.1
850.5983	979.1704	65535	64637.5
850.7435	981.1759	65535	64636.15
850.8886	983.1808	65535	64638.95
851.0337	985.1849	65535	64627.3
851.1788	987.1884	65535	64637.45
851.324	989.1911	65535	64634.25
851.4691	991.1932	65535	64634.9
851.6142	993.1945	65535	64638.35
851.7593	995.1951	65535	64636.5
851.9045	997.1951	65535	64631.25
852.0496	999.1943	65535	64638.95
852.1947	1001.1928	65535	64637.9
852.3398	1003.1906	65535	64640.45
852.4849	1005.1877	65535	64638.15
852.63	1007.1841	65535	64637.1
852.7751	1009.1798	65535	64637.05
852.9202	1011.1748	65535	64637.2
853.0653	1013.1691	65535	64635.5
853.2104	1015.1627	65535	64640.3
853.3555	1017.1556	65535	64637.15
853.5006	1019.1477	65535	64635.2
853.6457	1021.1392	65535	64637.1
853.7908	1023.1299	65535	64637.7
853.9359	1025.12	65535	64637.6
854.081	1027.1093	65535	64643.55
854.2261	1029.0979	65535	64642.85
854.3712	1031.0859	65535	64640.9
854.5163	1033.0731	65535	64637.65
854.6613	1035.0596	65535	64640.7
854.8064	1037.0454	65535	64639.2
854.9515	1039.0304	65535	64635.35
855.0965	1041.0148	65535	64637.75
855.2416	1042.9985	65535	64635.45
855.3867	1044.9814	65535	64640.55
855.5317	1046.9636	65535	64635.7
855.6768	1048.9452	65535	64639.9
855.8219	1050.926	65535	64638.45
855.9669	1052.9061	65535	64639.4
856.112	1054.8855	65535	64637.7
856.257	1056.8642	65535	64640
856.4021	1058.8421	65535	64631.05
856.5471	1060.8194	65535	64635.9
856.6921	1062.7959	65535	64639.15
856.8372	1064.7717	65535	64636.6
856.9822	1066.7469	65535	64637.6
857.1272	1068.7213	65535	64634.35
857.2723	1070.695	65535	64638.1
857.4173	1072.6679	65535	64636.2
857.5623	1074.6402	65535	64634.9
857.7073	1076.6117	65535	64632
857.8523	1078.5826	65535	64638.15
857.9973	1080.5527	65535	64636.15
858.1423	1082.5221	65535	64637.35
858.2873	1084.4908	65535	64639.8
858.4323	1086.4587	65535	64634.3
858.5773	1088.426	65535	64637.55
858.7223	1090.3925	65535	64632.1
858.8673	1092.3584	65535	64635.2
859.0123	1094.3235	65535	64637.65
859.1573	1096.2879	65535	64636
859.3022	1098.2515	65535	64637.7
859.4472	1100.2145	65535	64639.7
859.5922	1102.1767	65535	64633.25
859.7371	1104.1382	65535	64637.6
859.8821	1106.099	65535	64633.9
860.027	1108.0591	65535	64637.4
860.172	1110.0185	65535	64633.35
860.3169	1111.9771	65535	64637.8
860.4619	1113.9351	65535	64634.8
860.6068	1115.8923	65535	64637.3
860.7517	1117.8488	65535	64633.45
860.8967	1119.8045	65535	64637.5
861.0416	1121.7596	65535	64635.9
861.1865	1123.7139	65535	64639.05
861.3314	1125.6675	65535	64637.5
861.4763	1127.6204	65535	64636.9
861.6212	1129.5726	65535	64635.6
861.7661	1131.524	65535	64635.85
861.911	1133.4748	65535	64636.9
862.0559	1135.4248	65535	64636.3
862.2008	1137.3741	65535	64635.8
862.3457	1139.3226	65535	64636.9
862.4905	1141.2705	65535	64637.8
862.6354	1143.2176	65535	64631.85
862.7803	1145.164	65535	64635.7
862.9251	1147.1097	65535	64638.05
863.07	1149.0546	65535	64635.35
863.2148	1150.9989	65535	64638.1
863.3597	1152.9424	65535	64632.9
863.5045	1154.8852	65535	64635.9
863.6493	1156.8272	65535	64637.4
863.7942	1158.7686	65535	64631
863.939	1160.7092	65535	64635.55
864.0838	1162.6491	65535	64632.4
864.2286	1164.5883	65535	64637.15
864.3734	1166.5267	65535	64635.55
864.5182	1168.4644	65535	64637.65
864.663	1170.4014	65535	64630.35
864.8078	1172.3377	65535	64639.85
864.9526	1174.2732	65535	64636.9
865.0974	1176.2081	65535	64636.3
865.2421	1178.1421	65535	64633
865.3869	1180.0755	65535	64635.7
865.5317	1182.0082	65535	64634.45
865.6764	1183.9401	65535	64637.2
865.8212	1185.8713	65535	64638.4
865.9659	1187.8017	65535	64637.65
866.1106	1189.7315	65535	64637.8
866.2554	1191.6605	65535	64610.8
866.4001	1193.5888	65535	64639.4
866.5448	1195.5163	65535	64638.1
866.6895	1197.4432	65535	64635.75
866.8342	1199.3693	65535	64637.25
866.9789	1201.2947	65535	64635.35
867.1236	1203.2193	65535	64636.8
867.2683	1205.1432	65535	64636.35
867.413	1207.0664	65535	64636.05
867.5576	1208.9889	65535	64631.5
867.7023	1210.9106	65535	64636.15
867.847	1212.8316	65535	64636
867.9916	1214.7519	65535	64628.5
868.1363	1216.6715	65535	64637.05
868.2809	1218.5903	65535	64636.4
868.4255	1220.5084	65535	64638.95
868.5701	1222.4257	65535	64636.9
868.7148	1224.3424	65535	64639.3
868.8594	1226.2583	65535	64632.8
869.004	1228.1735	65535	64636.65
869.1486	1230.0879	65535	64635.6
869.2932	1232.0016	65535	64639
869.4377	1233.9146	65535	64635.1
869.5823	1235.8269	65535	64636.85
869.7269	1237.7384	65535	64636.4
869.8715	1239.6492	65535	64636.25
870.016	1241.5592	65535	64635.9
870.1606	1243.4686	65535	64636.05
870.3051	1245.3772	65535	64636.9
870.4496	1247.285	65535	64637.55
870.5941	1249.1922	65535	64636.6
870.7387	1251.0986	65535	64640.85
870.8832	1253.0042	65535	64636.5
871.0277	1254.9092	65535	64636.85
871.1722	1256.8134	65535	64638.7
871.3167	1258.7169	65535	64636.55
871.4611	1260.6196	65535	64635.85
871.6056	1262.5216	65535	64636.35
871.7501	1264.4229	65535	64638.35
871.8945	1266.3234	65535	64637.55
872.039	1268.2232	65535	64636.2
872.1834	1270.1223	65535	64633.45
872.3278	1272.0207	65535	64636.45
872.4723	1273.9183	65535	64632.75
872.6167	1275.8151	65535	64637.1
872.7611	1277.7113	65535	64635.35
872.9055	1279.6067	65535	64636.1
873.0499	1281.5014	65535	64635.45
873.1943	1283.3953	65535	64634
873.3386	1285.2885	65535	64639.15
873.483	1287.181	65535	64636.45
873.6274	1289.0727	65535	64637.35
873.7717	1290.9637	65535	64636.95
873.9161	1292.854	65535	64635.85
874.0604	1294.7435	65535	64635.85
874.2047	1296.6323	65535	64636.9
874.349	1298.5204	65535	64631.95
874.4933	1300.4077	65535	64635.25
874.6376	1302.2943	65535	64636.95
874.7819	1304.1802	65535	64637.05
874.9262	1306.0653	65535	64633.3
875.0705	1307.9497	65535	64636.05
875.2147	1309.8333	65535	64637.65
875.359	1311.7162	65535	64637.4
875.5032	1313.5984	65535	64633.55
875.6475	1315.4798	65535	64625.55
875.7917	1317.3605	65535	64618.65
875.9359	1319.2405	65535	64633.55
876.0801	1321.1197	65535	64634.75
876.2243	1322.9982	65535	64632.15
876.3685	1324.876	65535	64636.65
876.5127	1326.753	65535	64637
876.6569	1328.6293	65535	64634.7
876.801	1330.5048	65535	64635.3
876.9452	1332.3796	65535	64637.45
877.0893	1334.2537	65535	64610.8
877.2335	1336.127	65535	64635.9
877.3776	1337.9996	65535	64637.2
877.5217	1339.8714	65535	64636.1
877.6658	1341.7426	65535	64590.7
877.8099	1343.6129	65535	64635.4
877.954	1345.4826	65535	64636.6
878.0981	1347.3515	65535	64635.4
878.2422	1349.2196	65535	64636.35
878.3862	1351.087	65535	64634.85
878.5303	1352.9537	65535	64636
878.6743	1354.8197	65535	64636.35
878.8184	1356.6849	65535	64636.4
878.9624	1358.5493	65535	64635.8
879.1064	1360.4131	65535	64636.2
879.2504	1362.276	65535	64639.05
879.3944	1364.1383	65535	64635.55
879.5384	1365.9998	65535	64630.7
879.6823	1367.8606	65535	64634.05
879.8263	1369.7206	65535	64636.95
879.9702	1371.5799	65535	64635.5
880.1142	1373.4384	65535	64637.8
880.2581	1375.2962	65535	64635.55
880.402	1377.1533	65535	64636
880.5459	1379.0096	65535	64634.7
880.6898	1380.8652	65535	64635.5
880.8337	1382.7201	65535	64636.2
880.9776	1384.5742	65535	64634.85
881.1215	1386.4275	65535	64635.85
881.2653	1388.2802	65535	64636.1
881.4092	1390.132	65535	64636.35
881.553	1391.9832	65535	64633.1
881.6968	1393.8336	65535	64636.3
881.8406	1395.6832	65535	64634.55
881.9844	1397.5322	65535	64634.1
882.1282	1399.3803	65535	64633.1
882.272	1401.2278	65535	64634.25
882.4158	1403.0745	65535	64637.35
882.5595	1404.9204	65535	64636.75
882.7033	1406.7656	65535	64638.3
882.847	1408.6101	65535	64636.85
882.9908	1410.4538	65535	64635.7
883.1345	1412.2968	65535	64638.15
883.2782	1414.139	65535	64638.05
883.4219	1415.9805	65535	64637.2
883.5656	1417.8213	65535	64631.4
883.7092	1419.6613	65535	64635.8
883.8529	1421.5006	65535	64635.05
883.9965	1423.3391	65535	64636.8
884.1402	1425.1769	65535	64635.65
884.2838	1427.0139	65535	64636.9
884.4274	1428.8502	65535	64633.65
884.571	1430.6858	65535	64634.95
884.7146	1432.5206	65535	64636.6
884.8582	1434.3547	65535	64636.6
885.0018	1436.188	65535	64637.7
885.1453	1438.0206	65535	64635.6
885.2889	1439.8524	65535	64635.85
885.4324	1441.6835	65535	64635.25
885.5759	1443.5139	65535	64634.05
885.7194	1445.3435	65535	64635.8
885.8629	1447.1724	65535	64638.65
886.0064	1449.0005	65535	64636.2
886.1499	1450.8279	65535	64635.15
886.2933	1452.6545	65535	64636.3
886.4368	1454.4804	65535	64637.5
886.5802	1456.3056	65535	64627.35
886.7237	1458.13	65535	64638.7
886.8671	1459.9536	65535	64635.2
887.0105	1461.7766	65535	64636.3
887.1539	1463.5987	65535	64635
887.2972	1465.4202	65535	64635
887.4406	1467.2409	65535	64638.75
887.584	1469.0608	65535	64637.95
887.7273	1470.88	65535	64635.7
887.8706	1472.6984	65535	64636.45
888.0139	1474.5161	65535	64633.85
888.1572	1476.3331	65535	64638.4
888.3005	1478.1493	65535	64637.8
888.4438	1479.9648	65535	64636.85
888.5871	1481.7795	65535	64633.4
888.7303	1483.5935	65535	64636.3
888.8736	1485.4067	65535	64637.3
889.0168	1487.2192	65535	64636.2
889.16	1489.031	65535	64634.7
889.3032	1490.842	65535	64638.9
889.4464	1492.6522	65535	64637.2
889.5896	1494.4618	65535	64636.35
889.7327	1496.2705	65535	64637.6
889.8759	1498.0785	65535	64635.3
890.019	1499.8858	65535	64635.35
890.1622	1501.6924	65535	64636.35
890.3053	1503.4981	65535	64637
890.4484	1505.3032	65535	64637.55
890.5914	1507.1075	65535	64639.3
890.7345	1508.911	65535	64636.95
890.8776	1510.7138	65535	64637.35
891.0206	1512.5159	65535	64637.5
891.1637	1514.3172	65521.05	64623.4
891.3067	1516.1178	65528.05	64632.85
891.4497	1517.9176	65535	64632.65
891.5927	1519.7166	65528.25	64630.2
891.7357	1521.515	65524.3	64620.15
891.8786	1523.3126	65497.65	64599.6
892.0216	1525.1094	65525.65	64628.8
892.1645	1526.9055	65513.9	64617.3
892.3074	1528.7008	65519.15	64621.5
892.4503	1530.4954	65466.85	64562.35
892.5932	1532.2893	65515.3	64618.4
892.7361	1534.0824	65442.5	64540.1
892.879	1535.8747	65384.7	64487
893.0218	1537.6663	65517.85	64622.35
893.1647	1539.4572	65164.85	64268.75
893.3075	1541.2473	65382.15	64484.85
893.4503	1543.0367	65349.9	64454
893.5931	1544.8253	65282.3	64381.35
893.7359	1546.6132	65341.1	64440.6
893.8787	1548.4003	65174.55	64265.8
894.0214	1550.1867	65085.9	64178.6
894.1642	1551.9723	64960.8	64058.15
894.3069	1553.7572	65001.7	64103.05
894.4496	1555.5414	65174.1	64279.95
894.5923	1557.3247	63728.55	62830.85
894.735	1559.1074	65034.2	64139.55
894.8777	1560.8893	64590.8	63695.25
895.0204	1562.6705	64780.85	63884.45
895.163	1564.4509	63796.85	62903.05
895.3056	1566.2305	64296.3	63401.15
895.4482	1568.0094	64843.5	63949.05
895.5908	1569.7876	64384.2	63489.55
895.7334	1571.565	63699.35	62799.9
895.876	1573.3417	64104.8	63207.95
896.0186	1575.1176	63907.15	63010.5
896.1611	1576.8928	63589.3	62693.45
896.3036	1578.6672	62899.1	62004.5
896.4461	1580.4409	63305.3	62411.8
896.5886	1582.2138	62345.85	61447
896.7311	1583.986	62539.95	61642.7
896.8736	1585.7575	61769.45	60873.7
897.0161	1587.5282	61933.3	61038.15
897.1585	1589.2981	61993.35	61100.05
897.3009	1591.0673	61255.25	60359.9
897.4433	1592.8358	60762.15	59866.5
897.5857	1594.6035	61229.3	60330.7
897.7281	1596.3704	61314.9	60419.5
897.8705	1598.1366	60395.55	59503.1
898.0128	1599.9021	59894	58998.85
898.1551	1601.6668	60526.2	59626.85
898.2975	1603.4308	60137.85	59241.75
898.4398	1605.194	60340.85	59441.45
898.5821	1606.9564	59225.75	58329.9
898.7243	1608.7182	59846.65	58948.35
898.8666	1610.4791	59191.4	58297.65
899.0088	1612.2394	59733.55	58840.8
899.1511	1613.9988	59237.8	58342.4
899.2933	1615.7576	59840.2	58947.35
899.4355	1617.5156	59763.35	58862.8
899.5776	1619.2728	60529	59633.55
899.7198	1621.0293	59440.25	58544.6
899.862	1622.785	59477.6	58577.5
900.0041	1624.54	59843.1	58943.75
900.1462	1626.2942	59266.8	58371.65
900.2883	1628.0477	58162.25	57265
900.4304	1629.8005	57594.15	56694.95
900.5725	1631.5525	57947.1	57052.5
900.7145	1633.3037	56982.95	56088.15
900.8566	1635.0542	56955.65	56061.35
900.9986	1636.804	57080.5	56187
901.1406	1638.553	56381.7	55379.35
901.2826	1640.3013	56426.3	55531.6
901.4245	1642.0488	55878.5	54984.2
901.5665	1643.7955	56120.7	55227.15
901.7085	1645.5416	55693.35	54797.85
901.8504	1647.2868	55448.7	54554.6
901.9923	1649.0313	55844.4	54949.9
902.1342	1650.7751	55554.05	54657.6
902.2761	1652.5181	55301.1	54407.8
902.4179	1654.2604	55436.15	54541.15
902.5598	1656.0019	55912.6	55019.5
902.7016	1657.7427	55731.15	54836.3
902.8434	1659.4828	56165.35	55270.9
902.9852	1661.222	56006.35	55110.95
903.127	1662.9606	56121.7	55228.5
903.2687	1664.6984	55671	54776.35
903.4105	1666.4354	55507.9	54612.95
903.5522	1668.1717	54575.6	53680.15
903.6939	1669.9072	53890.9	52996.55
903.8356	1671.642	53513.3	52617.05
903.9773	1673.3761	53233.6	52339.45
904.119	1675.1094	52839.5	51945.25
904.2606	1676.8419	52405.4	51512.2
904.4022	1678.5737	52100.5	51205.05
904.5439	1680.3048	51827.95	50932.75
904.6855	1682.0351	51506.4	50614.35
904.827	1683.7646	51234.25	50337.3
904.9686	1685.4934	51149.75	50255.8
905.1101	1687.2215	50623.2	49729.5
905.2517	1688.9488	50638.4	49744.6
905.3932	1690.6754	50038.5	49146.35
905.5347	1692.4012	50084	49190.6
905.6761	1694.1263	49969.55	49076.1
905.8176	1695.8506	49779.75	48884.95
905.9591	1697.5742	49536.75	48644.65
906.1005	1699.297	49291.05	48398.05
906.2419	1701.0191	49021	48127.5
906.3833	1702.7404	48803.9	47912.7
906.5246	1704.461	48564.45	47669.45
906.666	1706.1808	48405.1	47509.8
906.8073	1707.8999	48234.35	47339.6
906.9487	1709.6182	48069.7	47176.25
907.09	1711.3358	47940.8	47048.6
907.2313	1713.0527	47762.4	46870.4
907.3725	1714.7688	47591.85	46693.9
907.5138	1716.4841	47300.5	46404.05
907.655	1718.1987	47248.5	46349.7
907.7962	1719.9126	47056.45	46163.7
907.9374	1721.6257	46868	45974.25
908.0786	1723.338	46810.85	45918.85
908.2198	1725.0496	46451.95	45557.8
908.3609	1726.7605	46373.95	45479.25
908.502	1728.4706	46227.85	45332.55
908.6431	1730.18	45932.8	45037.1
908.7842	1731.8886	45817.65	44925.9
908.9253	1733.5964	45741.2	44826.65
909.0664	1735.3036	45581.25	44686.9
909.2074	1737.0099	45445.05	44552.6
909.3484	1738.7156	45250.05	44355.85
909.4894	1740.4204	44990.1	44092.4
909.6304	1742.1246	44946.25	44052.5
909.7714	1743.8279	44858.55	43966.1
909.9123	1745.5306	44726.85	43831.3
910.0532	1747.2325	44546.4	43655.05
910.1941	1748.9336	44448.4	43555.1
910.335	1750.634	44184.9	43290.15
910.4759	1752.3336	44111.85	43221.85
910.6168	1754.0325	44007.1	43116.45
910.7576	1755.7307	43895.85	43003.35
910.8984	1757.4281	43786.65	42893.45
911.0392	1759.1247	43683.5	42781.55
911.18	1760.8206	43571.2	42673.35
911.3208	1762.5158	43464.35	42570.15
911.4615	1764.2102	43211.25	42321.65
911.6022	1765.9039	43115.85	42223.85
911.7429	1767.5968	42966.2	42074.6
911.8836	1769.289	42847.25	41954.75
912.0243	1770.9804	42745.3	41852.2
912.1649	1772.6711	42671.05	41776.3
912.3056	1774.361	42497.95	41606
912.4462	1776.0502	42401.45	41509.1
912.5868	1777.7386	42336.5	41441.95
912.7274	1779.4263	42163.1	41271.1
912.8679	1781.1132	42138.45	41243.55
913.0084	1782.7994	41977.9	41083.65
913.149	1784.4849	41832.75	40940.5
913.2895	1786.1696	41673	40775.4
913.4299	1787.8535	41533.2	40641.8
913.5704	1789.5367	41364.25	40470.8
913.7108	1791.2192	41367.85	40474.95
913.8513	1792.9009	41137.15	40214.8
913.9917	1794.5818	41026.2	40133.1
914.132	1796.2621	40917.75	40025.95
914.2724	1797.9415	40816.75	39923.35
914.4128	1799.6202	40638.7	39746.35
914.5531	1801.2982	40612.8	39721.4
914.6934	1802.9755	40469.1	39574.4
914.8337	1804.6519	40406.65	39514.3
914.9739	1806.3277	40171.05	39277.6
915.1142	1808.0027	40010.6	39118.85
915.2544	1809.6769	39939.2	39044.85
915.3946	1811.3504	39817.65	38924.3
915.5348	1813.0231	39700.6	38807.05
915.675	1814.6951	39668.5	38778.05
915.8151	1816.3664	39637.2	38742.55
915.9553	1818.0369	39497.95	38604.8
916.0954	1819.7067	39343.45	38451.5
916.2355	1821.3757	39248.85	38355.05
916.3755	1823.044	39137	38245
916.5156	1824.7115	39082.15	38187.75
916.6556	1826.3783	38852.25	37960.75
916.7956	1828.0443	38742.8	37852.6
916.9356	1829.7096	38613.7	37718.3
917.0756	1831.3741	38524.8	37629.4
917.2155	1833.0379	38395	37502.25
917.3555	1834.701	38313	37420.9
917.4954	1836.3633	38226	37332.8
917.6353	1838.0248	38151.15	37256.45
917.7751	1839.6856	38005.45	37111.75
917.915	1841.3457	37913.7	37021.75
918.0548	1843.005	37841.5	36949.55
918.1946	1844.6636	37803.7	36911.35
918.3344	1846.3214	37705.2	36811.7
918.4742	1847.9785	37613.4	36722.2
918.6139	1849.6349	37493.35	36601.1
918.7537	1851.2904	37401.6	36502.15
918.8934	1852.9453	37258.5	36367.75
919.0331	1854.5994	37120.7	36227
919.1727	1856.2528	37143.8	36246.55
919.3124	1857.9054	36984.1	36090.25
919.452	1859.5572	36961.3	36070.25
919.5916	1861.2083	36825.05	35928.8
919.7312	1862.8587	36828.95	35936.3
919.8708	1864.5084	36665.75	35775.55
920.0103	1866.1572	36561.75	35670.85
920.1498	1867.8054	36401.3	35509.75
920.2893	1869.4528	36308.7	35417.15
920.4288	1871.0994	36165.85	35275.55
920.5683	1872.7453	36107.65	35213.6
920.7077	1874.3905	35967	35067.95
920.8471	1876.0349	35852.55	34959.7
920.9865	1877.6786	35827.35	34932.2
921.1259	1879.3215	35768.25	34877.6
921.2653	1880.9637	35681.55	34785.6
921.4046	1882.6051	35627.5	34735.55
921.5439	1884.2458	35463.25	34568.65
921.6832	1885.8858	35348.4	34454.55
921.8225	1887.525	35245.6	34350.9
921.9617	1889.1634	35079.8	34188.2
922.101	1890.8011	34971.45	34081.15
922.2402	1892.4381	34891.35	33999.85
922.3794	1894.0743	34855.8	33963.55
922.5185	1895.7098	34758.35	33867.9
922.6577	1897.3446	34679.95	33785.55
922.7968	1898.9786	34541.75	33647.35
922.9359	1900.6118	34403.2	33514
923.075	1902.2443	34230.35	33336.15
923.214	1903.8761	34132.8	33241.5
923.3531	1905.5071	33941.95	33047.45
923.4921	1907.1374	33844.85	32952.05
923.6311	1908.7669	33830.4	32936.4
923.77	1910.3957	33739	32846.6
923.909	1912.0237	33511.3	32619.55
924.0479	1913.651	33414.25	32520.9
924.1868	1915.2776	33338.5	32448.75
924.3257	1916.9034	33184.7	32294.5
924.4646	1918.5285	33059.75	32166.7
924.6034	1920.1528	32873.8	31980.75
924.7422	1921.7764	32853	31960.6
924.881	1923.3992	32666.55	31773.8
925.0198	1925.0213	32479.3	31586.55
925.1586	1926.6427	32347.45	31456.15
925.2973	1928.2633	32332.95	31329.65
925.436	1929.8832	32129	31234.35
925.5747	1931.5023	31986.35	31093.25
925.7134	1933.1207	31907.5	31015.35
925.852	1934.7383	31856.6	30963.8
925.9906	1936.3552	31764.65	30872.55
926.1292	1937.9714	31606.6	30711.7
926.2678	1939.5868	31462.5	30569.2
926.4064	1941.2015	31247.55	30354.65
926.5449	1942.8154	31161.65	30268.85
926.6834	1944.4286	31024.8	30135.25
926.8219	1946.041	30905.15	29995.55
926.9604	1947.6528	30763.3	29866.7
927.0988	1949.2637	30644.45	29752.9
927.2372	1950.8739	30526.25	29633.65
927.3756	1952.4834	30438.45	29547.4
927.514	1954.0921	30433.65	29541.4
927.6523	1955.7001	30275.5	29378.95
927.7907	1957.3074	30156.05	29263.25
927.929	1958.9139	30018.8	29126.7
928.0673	1960.5197	29961.25	29067.65
928.2055	1962.1247	29800.7	28908.6
928.3438	1963.729	29648.8	28757.65
928.482	1965.3325	29544.55	28631.25
928.6202	1966.9353	29436.15	28545.3
928.7584	1968.5374	29354.4	28460.05
928.8965	1970.1387	29236.1	28344.7
929.0346	1971.7393	29101.35	28207.9
929.1727	1973.3392	29009.1	28116.95
929.3108	1974.9383	28889.7	27999.35
929.4489	1976.5366	28707.1	27815.7
929.5869	1978.1342	28716.9	27823.95
929.7249	1979.7311	28619	27727.4
929.8629	1981.3273	28561.75	27671.4
930.0009	1982.9227	28458.3	27566.5
930.1388	1984.5173	28353	27462.95
930.2767	1986.1112	28234.35	27342.7
930.4146	1987.7044	28138.65	27249.45
930.5525	1989.2968	28016.7	27125.9
930.6904	1990.8885	27956.8	27063.65
930.8282	1992.4795	27890	26994.5
930.966	1994.0697	27739.2	26846.9
931.1038	1995.6592	27647.6	26756.6
931.2415	1997.2479	27597.6	26705.2
931.3793	1998.8359	27470.55	26579.7
931.517	2000.4232	27348.65	26458.3
931.6547	2002.0097	27237.15	26347.35
931.7923	2003.5955	27117.75	26227.05
931.93	2005.1805	27049.85	26157.1
932.0676	2006.7648	26997.5	26105.25
932.2052	2008.3484	26892.85	26002.6
932.3427	2009.9312	26911.3	26020.6
932.4803	2011.5133	26782.7	25891.85
932.6178	2013.0946	26664.2	25772.75
932.7553	2014.6752	26561.65	25673.7
932.8928	2016.2551	26507.35	25615.5
933.0302	2017.8342	26382.75	25492.75
933.1676	2019.4126	26281.1	25389.65
933.305	2020.9902	26212.35	25322
933.4424	2022.5672	26125.55	25233.8
933.5798	2024.1433	26057.55	25159.8
933.7171	2025.7188	25973.9	25083.15
933.8544	2027.2935	25822.35	24930.3
933.9917	2028.8674	25763.45	24873.6
934.129	2030.4406	25643.7	24752.15
934.2662	2032.0131	25524.75	24634.8
934.4034	2033.5849	25454.45	24557.3
934.5406	2035.1559	25426.9	24536
934.6778	2036.7261	25307.5	24417.2
934.8149	2038.2957	25253.7	24362.95
934.952	2039.8645	25154	24263.15
935.0891	2041.4325	25157.45	24260.95
935.2262	2042.9998	25063.8	24171.15
935.3632	2044.5664	24953	24059.5
935.5002	2046.1323	24882.65	23991.95
935.6372	2047.6974	24850.85	23959.8
935.7742	2049.2617	24764.2	23873.15
935.9111	2050.8254	24724.75	23813.15
936.048	2052.3883	24657.45	23764.55
936.1849	2053.9504	24579.95	23687.6
936.3218	2055.5118	24462.3	23569.45
936.4586	2057.0725	24359.2	23465
936.5955	2058.6325	24328	23436.4
936.7323	2060.1917	24222.35	23331.4
936.869	2061.7502	24142.05	23247.1
937.0058	2063.3079	24046.05	23157.7
937.1425	2064.8649	23970.8	23076.85
937.2792	2066.4212	23919.1	23027.55
937.4159	2067.9767	23865.5	22974.55
937.5525	2069.5315	23711	22821.4
937.6891	2071.0856	23600	22708.3
937.8257	2072.6389	23510.3	22617.65
937.9623	2074.1915	23363.9	22473.5
938.0989	2075.7433	23252.9	22360.85
938.2354	2077.2945	23203.7	22313.2
938.3719	2078.8448	23127.3	22236.05
938.5084	2080.3945	23063	22171.4
938.6448	2081.9434	23012.8	22120.95
938.7812	2083.4916	22921.4	22030.45
938.9176	2085.039	22835.25	21942.85
939.054	2086.5857	22798.2	21906.5
939.1903	2088.1317	22748.4	21855.95
939.3267	2089.677	22665.45	21773.35
939.463	2091.2215	22581	21690.4
939.5992	2092.7652	22490.7	21596.9
939.7355	2094.3083	22476.75	21584.25
939.8717	2095.8506	22408.7	21517.25
940.0079	2097.3921	22405.2	21512.55
940.1441	2098.933	22290	21398.2
940.2802	2100.4731	22198.7	21306
940.4163	2102.0124	22174.2	21275.85
940.5524	2103.5511	22095.75	21205.8
940.6885	2105.089	22055	21164
940.8245	2106.6261	22006.05	21115.95
940.9606	2108.1626	21912.35	21018.9
941.0965	2109.6983	21881.95	20961.25
941.2325	2111.2332	21792.05	20899.15
941.3684	2112.7675	21677.55	20783.75
941.5044	2114.301	21622.2	20727.35
941.6403	2115.8337	21637.9	20744.2
941.7761	2117.3657	21517.05	20625.85
941.912	2118.897	21480.45	20589.7
942.0478	2120.4276	21424	20527
942.1835	2121.9575	21293.8	20402.05
942.3193	2123.4866	21307.4	20402.95
942.455	2125.0149	21231.65	20337.25
942.5907	2126.5426	21065.65	20173
942.7264	2128.0695	21042.05	20147.75
942.8621	2129.5956	21017	20128.6
942.9977	2131.1211	20943.1	20047.2
943.1333	2132.6458	20912.35	20022.35
943.2689	2134.1698	20834.05	19943.1
943.4044	2135.693	20755.7	19860.25
943.54	2137.2155	20708.95	19815.2
943.6755	2138.7373	20675.7	19782.6
943.8109	2140.2584	20587.65	19696.2
943.9464	2141.7787	20519.9	19623.15
944.0818	2143.2983	20382.8	19491.25
944.2172	2144.8171	20294.35	19405.1
944.3526	2146.3353	20232.85	19340.95
944.4879	2147.8527	20163.9	19272.85
944.6232	2149.3693	20154.15	19264.7
944.7585	2150.8853	20070.45	19179.9
944.8938	2152.4005	19970.5	19077.4
945.029	2153.9149	19926.35	19032.05
945.1642	2155.4287	19832.85	18940.55
945.2994	2156.9417	19781	18887.8
945.4346	2158.454	19760.1	18866.35
945.5697	2159.9655	19713.05	18823.9
945.7048	2161.4764	19630.4	18738.1
945.8399	2162.9865	19568.95	18676.05
945.9749	2164.4958	19492.75	18601.8
946.1099	2166.0045	19433.2	18538.5
946.2449	2167.5124	19398.05	18506.7
946.3799	2169.0195	19357.7	18469.05
946.5148	2170.526	19352.6	18461.2
946.6498	2172.0317	19277.3	18382.45
946.7846	2173.5367	19186.55	18294.9
946.9195	2175.0409	19160.7	18269.35
947.0543	2176.5445	19117.6	18227.3
947.1891	2178.0473	19024.35	18132.65
947.3239	2179.5494	18927.15	18031.2
947.4587	2181.0507	18889.8	17997.4
947.5934	2182.5513	18803.7	17912.3
947.7281	2184.0512	18768.1	17876
947.8628	2185.5504	18688.1	17796.8
947.9974	2187.0488	18570.2	17679
948.132	2188.5465	18509.6	17617.1
948.2666	2190.0435	18450.4	17557.95
948.4012	2191.5397	18391	17500.2
948.5357	2193.0353	18350.2	17458.9
948.6702	2194.5301	18229.8	17337.05
948.8047	2196.0241	18172.15	17280.15
948.9392	2197.5175	18110.6	17219.85
949.0736	2199.0101	18027.25	17132.05
949.208	2200.502	17932	17039.5
949.3424	2201.9931	17865.3	16972.15
949.4767	2203.4835	17772.4	16879.1
949.611	2204.9733	17766.25	16869.2
949.7453	2206.4622	17719.45	16828.6
949.8796	2207.9505	17635.95	16743.3
950.0138	2209.438	17534.15	16644.75
950.148	2210.9248	17489.25	16597.25
950.2822	2212.4109	17484.8	16592.3
950.4164	2213.8962	17382.9	16488.3
950.5505	2215.3809	17345.25	16450.9
950.6846	2216.8648	17291.4	16398.7
950.8186	2218.3479	17248.4	16350.85
950.9527	2219.8304	17154.35	16259.8
951.0867	2221.3121	17104.9	16210.6
951.2207	2222.7931	17021.6	16130.8
951.3546	2224.2733	16977.7	16083.3
951.4886	2225.7529	16894.35	16001.65
951.6225	2227.2317	16846.45	15953.15
951.7563	2228.7098	16805.95	15914.25
951.8902	2230.1872	16716.45	15822.55
952.024	2231.6638	16705.85	15812.75
952.1578	2233.1397	16608.95	15709.8
952.2916	2234.6149	16557.5	15664.6
952.4253	2236.0894	16501.7	15609.25
952.559	2237.5632	16464.25	15563.35
952.6927	2239.0362	16371	15479.35
952.8263	2240.5085	16343.7	15452.1
952.9599	2241.9801	16255.55	15361.15
953.0935	2243.4509	16229.3	15337.4
953.2271	2244.921	16140.8	15248.25
953.3606	2246.3904	16108.5	15213.95
953.4941	2247.8591	16072.35	15179.25
953.6276	2249.3271	16000.75	15110.15
953.7611	2250.7943	15924.8	15032.55
953.8945	2252.2608	15877.4	14984.6
954.0279	2253.7266	15806	14914.9
954.1612	2255.1917	15759.25	14868.1
954.2946	2256.656	15716.5	14823.3
954.4279	2258.1197	15660.55	14769.7
954.5612	2259.5826	15636.3	14744.55
954.6944	2261.0447	15612.4	14720
954.8276	2262.5062	15530.3	14636
954.9608	2263.9669	15475.3	14581.05
955.094	2265.4269	15444.75	14552.15
955.2271	2266.8862	15390.25	14499.4
955.3602	2268.3448	15338.15	14445.45
955.4933	2269.8026	15313.9	14422.15
955.6264	2271.2598	15248	14356.3
955.7594	2272.7162	15200.15	14308.15
955.8924	2274.1719	15146.8	14254.55
956.0253	2275.6268	15095.05	14202.05
956.1583	2277.0811	15065.15	14170.95
956.2912	2278.5346	15047.45	14155.5
956.4241	2279.9874	14995	14104.35
956.5569	2281.4395	14935.8	14045.8
956.6897	2282.8908	14858.9	13961.15
956.8225	2284.3414	14838.9	13945.55
956.9553	2285.7914	14790.95	13899.95
957.088	2287.2406	14718.8	13827.25
957.2207	2288.689	14683.15	13790.15
957.3534	2290.1368	14642.7	13750.15
957.486	2291.5838	14594.6	13699.6
957.6186	2293.0302	14552.3	13658
957.7512	2294.4758	14465.85	13572.7
957.8838	2295.9206	14441.05	13547.05
958.0163	2297.3648	14407.15	13515.15
958.1488	2298.8082	14346.8	13455
958.2813	2300.251	14317.1	13425.85
958.4137	2301.693	14283.2	13391.3
958.5461	2303.1343	14229.95	13337.75
958.6785	2304.5748	14181.7	13288.7
958.8108	2306.0147	14112.2	13219.8
958.9432	2307.4538	14132.5	13236.85
959.0754	2308.8922	14067.4	13175.45
959.2077	2310.3299	14007.8	13115.55
959.3399	2311.7669	13962.7	13071.35
959.4721	2313.2031	13903.85	13012
959.6043	2314.6387	13847.6	12953.95
959.7365	2316.0735	13778.55	12885.65
959.8686	2317.5076	13775.65	12881.15
960.0006	2318.941	13742.35	12850.95
960.1327	2320.3737	13673.05	12780.9
960.2647	2321.8056	13629.7	12735.35
960.3967	2323.2369	13606.65	12713.2
960.5287	2324.6674	13559.9	12666.25
960.6606	2326.0972	13487.9	12594.15
960.7925	2327.5263	13460.95	12570.5
960.9244	2328.9547	13403.35	12510.95
961.0562	2330.3823	13360.7	12467.05
961.1881	2331.8092	13337.6	12440.55
961.3198	2333.2355	13264.75	12372.75
961.4516	2334.661	13268.75	12376.8
961.5833	2336.0858	13201.6	12308.35
961.715	2337.5098	13162.75	12272
961.8467	2338.9332	13154.3	12262.2
961.9783	2340.3558	13094.8	12200.4
962.1099	2341.7778	13017.25	12125.25
962.2415	2343.199	13016.65	12120.8
962.373	2344.6195	12967.8	12075.55
962.5045	2346.0393	12909.5	12019.05
962.636	2347.4583	12867.8	11974.55
962.7675	2348.8767	12826	11932.4
962.8989	2350.2943	12795.75	11903
963.0303	2351.7113	12770.4	11876.75
963.1617	2353.1275	12688.9	11796.25
963.293	2354.543	12709.2	11791.8
963.4243	2355.9578	12620.05	11729.3
963.5556	2357.3718	12533.4	11641.15
963.6868	2358.7852	12502.7	11608.35
963.818	2360.1978	12450.25	11557.8
963.9492	2361.6098	12416.5	11525.15
964.0803	2363.021	12361.7	11465.65
964.2114	2364.4315	12337.1	11445.8
964.3425	2365.8413	12266.7	11372.75
964.4736	2367.2504	12238.35	11346.45
964.6046	2368.6587	12202.2	11308.75
964.7356	2370.0664	12124.8	11233.6
964.8666	2371.4733	12095	11201.9
964.9975	2372.8795	12058.75	11167.35
965.1284	2374.285	12020.05	11127.75
965.2593	2375.6899	11935.45	11044.25
965.3901	2377.0939	11883.9	10992.35
965.5209	2378.4973	11868.65	10977.85
965.6517	2379.9	11814.5	10924.55
965.7825	2381.3019	11765.45	10874.85
965.9132	2382.7032	11712.95	10821.35
966.0439	2384.1037	11687.85	10796.75
966.1745	2385.5035	11627.25	10734.6
966.3051	2386.9027	11591.65	10700.95
966.4357	2388.3011	11581.55	10687.5
966.5663	2389.6987	11543.85	10652.6
966.6968	2391.0957	11500.15	10611.1
966.8273	2392.492	11443.55	10553.8
966.9578	2393.8876	11367.75	10475.05
967.0882	2395.2824	11341.05	10450.7
967.2186	2396.6765	11288.9	10398.45
967.349	2398.07	11240.3	10351.1
967.4793	2399.4627	11202.7	10308.9
967.6097	2400.8547	11177.25	10286.45
967.7399	2402.246	11118.15	10223.25
967.8702	2403.6366	11080.1	10188.5
968.0004	2405.0265	11018.6	10127.55
968.1306	2406.4156	10962.7	10065.9
968.2607	2407.8041	10946.15	10052.4
968.3909	2409.1918	10872.95	9978.6
968.521	2410.5789	10833.05	9942.45
968.651	2411.9652	10790.9	9897.75
968.781	2413.3508	10776.85	9885.75
968.911	2414.7358	10734.2	9843.55
969.041	2416.12	10696.1	9804.5
969.1709	2417.5035	10666.7	9775.15
969.3008	2418.8863	10623.65	9730.1
969.4307	2420.2684	10599.3	9708.55
969.5606	2421.6497	10544.8	9652.9
969.6904	2423.0304	10472.75	9583.25
969.8201	2424.4104	10454.55	9564.3
969.9499	2425.7896	10410.55	9511.65
970.0796	2427.1682	10395.95	9504.55
970.2093	2428.546	10352.35	9459.25
970.3389	2429.9232	10346.7	9453.85
970.4685	2431.2996	10313.9	9420.25
970.5981	2432.6753	10309.15	9418.7
970.7277	2434.0503	10250.15	9360.6
970.8572	2435.4246	10202.9	9311.1
970.9867	2436.7982	10168.05	9273.4
971.1161	2438.1711	10131.75	9240.35
971.2456	2439.5433	10066.95	9176.25
971.375	2440.9148	10057.6	9163.9
971.5043	2442.2856	10002.6	9109.15
971.6336	2443.6557	9975.65	9083.05
971.7629	2445.025	9951.05	9059.75
971.8922	2446.3937	9921.9	9030.2
972.0214	2447.7617	9850	8957.25
972.1506	2449.1289	9860.3	8970
972.2798	2450.4955	9817.5	8923.95
972.4089	2451.8613	9818.6	8928.3
972.538	2453.2265	9777.4	8885.2
972.6671	2454.5909	9748.4	8856.25
972.7961	2455.9546	9733.4	8841.45
972.9251	2457.3177	9676.9	8784.45
973.0541	2458.68	9655.6	8762.65
973.1831	2460.0416	9640.15	8750.15
973.312	2461.4025	9611.4	8720.15
973.4408	2462.7627	9597.8	8695.2
973.5697	2464.1222	9543.8	8651
973.6985	2465.4811	9518	8625.95
973.8273	2466.8392	9479.05	8587.5
973.956	2468.1966	9454.35	8559.55
974.0847	2469.5533	9433.75	8541.35
974.2134	2470.9093	9432.85	8539.8
974.3421	2472.2645	9353.2	8459.45
974.4707	2473.6191	9334.8	8443.95
974.5993	2474.973	9297.85	8406.4
974.7278	2476.3262	9277.25	8384.45
974.8563	2477.6787	9233.9	8342.85
974.9848	2479.0305	9189.25	8298.45
975.1132	2480.3816	9168.75	8276.05
975.2417	2481.7319	9131	8239.3
975.37	2483.0816	9075.1	8181.9
975.4984	2484.4306	9065.5	8170.5
975.6267	2485.7789	9031.8	8142.45
975.755	2487.1264	9008.15	8116.25
975.8833	2488.4733	8957.95	8067.45
976.0115	2489.8195	8925	8027
976.1397	2491.165	8887.95	7992.05
976.2678	2492.5097	8851.7	7957.75
976.3959	2493.8538	8812	7919.05
976.524	2495.1972	8786.8	7896
976.6521	2496.5398	8742.95	7850
976.7801	2497.8818	8735.95	7842.55
976.9081	2499.2231	8676.25	7784.25
977.036	2500.5637	8656.9	7764.1
977.164	2501.9035	8632.5	7739.15
977.2918	2503.2427	8608.65	7712.2
977.4197	2504.5812	8569.9	7678.65
977.5475	2505.919	8564.55	7671.5
977.6753	2507.256	8542.05	7651
977.8031	2508.5924	8492	7601.9
977.9308	2509.9281	8458.45	7561.85
978.0585	2511.2631	8443.5	7552.4
978.1861	2512.5974	8411.65	7521.15
978.3137	2513.9309	8377.1	7485.6
978.4413	2515.2638	8364.45	7437.95
978.5689	2516.596	8319.5	7428.5
978.6964	2517.9275	8273.65	7380.95
978.8239	2519.2583	8237.9	7345.45
978.9513	2520.5884	8226.35	7332.85
979.0788	2521.9178	8188.55	7296.85
979.2062	2523.2465	8149.25	7256.75
979.3335	2524.5745	8106.35	7215.15
979.4608	2525.9018	8094.45	7200.2
979.5881	2527.2284	8078.9	7190.15
979.7154	2528.5543	8060.35	7169.25
979.8426	2529.8796	8036.4	7145.35
979.9698	2531.2041	8010.4	7117.45
980.0969	2532.5279	7991.4	7102.5
980.224	2533.851	7975.35	7082.65
980.3511	2535.1735	7959.45	7068.05
980.4781	2536.4952	7937	7045.85
980.6052	2537.8163	7910.35	7017.2
980.7321	2539.1366	7872.35	6979.25
980.8591	2540.4562	7856.2	6963.5
980.986	2541.7752	7840.75	6949.1
981.1129	2543.0935	7827.45	6935.6
981.2397	2544.411	7802.6	6910.3
981.3665	2545.7279	7805	6912.35
981.4933	2547.0441	7756.55	6864.2
981.62	2548.3596	7770.9	6876.3
981.7467	2549.6744	7737.85	6846
981.8734	2550.9885	7678.55	6782.5
982.0001	2552.3019	7678	6786.7
982.1267	2553.6146	7651.6	6762.25
982.2532	2554.9266	7637.3	6745.2
982.3798	2556.2379	7609.8	6716.5
982.5063	2557.5485	7592.3	6701.5
982.6327	2558.8585	7569.1	6668.2
982.7592	2560.1677	7552.1	6655.3
982.8856	2561.4762	7519.8	6627.15
983.0119	2562.7841	7531.1	6636.3
983.1383	2564.0913	7486.9	6595.5
983.2646	2565.3977	7484.6	6593.25
983.3908	2566.7035	7455.5	6563.55
983.517	2568.0086	7446.35	6554.3
983.6432	2569.313	7428.45	6535
983.7694	2570.6167	7411.7	6518.05
983.8955	2571.9197	7375.3	6483.45
984.0216	2573.222	7386.6	6491.6
984.1476	2574.5236	7373.5	6479.3
984.2737	2575.8246	7348.85	6453.4
984.3996	2577.1248	7327.95	6434.5
984.5256	2578.4244	7318.1	6425.35
984.6515	2579.7232	7289.5	6399.4
984.7774	2581.0214	7290.35	6374.15
984.9032	2582.3189	7274.75	6383.6
985.029	2583.6157	7241.75	6346.95
985.1548	2584.9118	7240.8	6348.05
985.2806	2586.2072	7203.9	6311.35
985.4063	2587.5019	7194.25	6303.1
985.5319	2588.7959	7181.95	6288
985.6576	2590.0893	7172	6278.7
985.7832	2591.3819	7145.65	6255.2
985.9087	2592.6739	7098.95	6208
986.0343	2593.9652	7080.3	6186.65
986.1597	2595.2557	7064.45	6173.8
986.2852	2596.5456	7033.7	6138.65
986.4106	2597.8348	6999.9	6108.55
986.536	2599.1234	6993.95	6103.35
986.6614	2600.4112	6971.05	6078.4
986.7867	2601.6983	6949.35	6052.5
986.912	2602.9848	6928.45	6038.15
987.0372	2604.2705	6917.75	6019.95
987.1624	2605.5556	6877.3	5983.2
987.2876	2606.84	6869	5975.55
987.4128	2608.1237	6840.3	5947.65
987.5379	2609.4067	6806.8	5915.55
987.6629	2610.689	6787	5887.75
987.788	2611.9707	6765.85	5870.1
987.913	2613.2516	6735.95	5837.55
988.0379	2614.5319	6697.9	5804.15
988.1629	2615.8115	6696.25	5804.65
988.2878	2617.0903	6664.35	5772
988.4126	2618.3685	6633.55	5742
988.5375	2619.6461	6623.85	5729.45
988.6622	2620.9229	6600.95	5706.8
988.787	2622.199	6556.4	5662.2
988.9117	2623.4745	6548.55	5657.6
989.0364	2624.7493	6532.3	5640.8
989.161	2626.0234	6513.25	5621.7
989.2857	2627.2968	6496.55	5605
989.4102	2628.5695	6468.65	5573.2
989.5348	2629.8415	6432.4	5540.2
989.6593	2631.1128	6403.65	5510.95
989.7837	2632.3835	6392.4	5500.3
989.9082	2633.6535	6367.2	5474.45
990.0326	2634.9228	6325.7	5433.55
990.1569	2636.1914	6317.75	5426.1
990.2812	2637.4593	6309.9	5413
990.4055	2638.7265	6287.5	5395.4
990.5298	2639.9931	6283.8	5393.45
990.654	2641.259	6247	5353.65
990.7782	2642.5242	6228.1	5335.3
990.9023	2643.7887	6214.35	5321.8
991.0264	2645.0525	6186.85	5295.5
991.1505	2646.3156	6153.35	5259.25
991.2745	2647.5781	6159.25	5267.55
991.3985	2648.8398	6120.3	5229.05
991.5225	2650.1009	6089.8	5189.8
991.6464	2651.3613	6084.5	5192.2
991.7703	2652.6211	6069.05	5174.75
991.8942	2653.8801	6038.35	5145.75
992.018	2655.1385	6033.5	5138.85
992.1418	2656.3961	6019.25	5127.15
992.2655	2657.6531	6010.35	5119.8
992.3892	2658.9094	5993.6	5100.4
992.5129	2660.1651	5987.25	5096.7
992.6366	2661.42	5959.2	5065.75
992.7602	2662.6743	5954.95	5059.4
992.8837	2663.9279	5927.7	5034.8
993.0073	2665.1808	5951.8	5058.5
993.1307	2666.433	5915.05	5020.4
993.2542	2667.6846	5875.25	4986.05
993.3776	2668.9354	5882.75	4988.4
993.501	2670.1856	5852.95	4961.55
993.6244	2671.4351	5836.05	4945.2
993.7477	2672.6839	5853.75	4959.95
993.8709	2673.9321	5813.85	4922.3
993.9942	2675.1795	5791.95	4898.4
994.1174	2676.4263	5755.5	4862.65
994.2405	2677.6724	5763.15	4873.45
994.3637	2678.9179	5731.65	4838.8
994.4868	2680.1626	5748.6	4859.95
994.6098	2681.4067	5710.6	4819
994.7328	2682.6501	5700.5	4806.2
994.8558	2683.8928	5703.1	4810.7
994.9788	2685.1348	5648.25	4758.25
995.1017	2686.3761	5630.3	4740.5
995.2245	2687.6168	5617.05	4726.35
995.3474	2688.8568	5588.1	4695.4
995.4702	2690.0961	5571.65	4678.3
995.5929	2691.3348	5569.8	4676.5
995.7156	2692.5727	5543.85	4652.65
995.8383	2693.81	5528.05	4635.45
995.961	2695.0466	5521.6	4631.4
996.0836	2696.2826	5506.9	4613.3
996.2062	2697.5178	5476.65	4582
996.3287	2698.7524	5474.35	4582.8
996.4512	2699.9863	5465.4	4570.65
996.5737	2701.2195	5425.35	4535.3
996.6961	2702.452	5414.05	4520.05
996.8185	2703.6839	5410.75	4516.95
996.9408	2704.9151	5397.95	4508.25
997.0631	2706.1456	5387.3	4495
997.1854	2707.3755	5369.85	4476.75
997.3077	2708.6046	5363.8	4469.6
997.4299	2709.8331	5353.1	4460.6
997.552	2711.0609	5346.25	4453.5
997.6742	2712.2881	5337	4446.25
997.7963	2713.5145	5310.7	4416.4
997.9183	2714.7403	5315.85	4423.7
998.0403	2715.9654	5304.05	4411.7
998.1623	2717.1899	5295.2	4387.25
998.2842	2718.4136	5284.95	4392.05
998.4062	2719.6367	5266.4	4375.6
998.528	2720.8591	5292.65	4394.1
998.6498	2722.0809	5258.1	4366.6
998.7716	2723.3019	5260.6	4367.05
998.8934	2724.5223	5247.4	4355.45
999.0151	2725.7421	5244.9	4349.7
999.1368	2726.9611	5235.85	4341.95
999.2584	2728.1795	5206.45	4309.2
999.38	2729.3972	5197.65	4306.65
999.5016	2730.6142	5155.95	4255.6
999.6231	2731.8306	5126.55	4234.3
999.7446	2733.0462	5084.4	4191.5
999.8661	2734.2612	5066.9	4170.65
999.9875	2735.4756	5014.95	4120.9
1000.1089	2736.6892	4974.1	4081.55
1000.2302	2737.9022	4962.05	4071.35
1000.3515	2739.1145	4926.35	4033.55
1000.4728	2740.3262	4915	4015.4
1000.594	2741.5372	4885	3993.05
1000.7152	2742.7475	4846.25	3952.6
1000.8363	2743.9571	4831.25	3937.55
1000.9575	2745.1661	4823.4	3927.7
1001.0785	2746.3744	4792.45	3899.2
1001.1996	2747.582	4774.85	3883.25
1001.3206	2748.7889	4756.95	3863.8
1001.4415	2749.9952	4746.5	3855.95
1001.5625	2751.2008	4716.25	3822.45
1001.6833	2752.4057	4699.7	3803.85
1001.8042	2753.61	4687.5	3795.7
1001.925	2754.8136	4690	3795.5
1002.0458	2756.0165	4652.3	3759.9
1002.1665	2757.2188	4632.7	3741.95
1002.2872	2758.4204	4622.05	3730.35
1002.4078	2759.6213	4621.8	3729.15
1002.5285	2760.8215	4604.55	3708.3
1002.649	2762.0211	4586.15	3693.55
1002.7696	2763.22	4565.45	3667.8
1002.8901	2764.4182	4552.15	3658.75
1003.0106	2765.6158	4540.35	3649.8
1003.131	2766.8127	4521.15	3629.35
1003.2514	2768.009	4518.7	3627.25
1003.3717	2769.2045	4475.6	3583.8
1003.492	2770.3994	4500.8	3606.9
1003.6123	2771.5936	4481.25	3588.4
1003.7325	2772.7872	4451.4	3559.25
1003.8527	2773.9801	4419.9	3527.85
1003.9729	2775.1723	4437.25	3529.1
1004.093	2776.3639	4413.7	3523.7
1004.2131	2777.5548	4385.3	3490.65
1004.3331	2778.745	4381.2	3489.4
1004.4531	2779.9346	4367.05	3476.75
1004.5731	2781.1235	4363.2	3470.8
1004.693	2782.3117	4349.2	3457.4
1004.8129	2783.4992	4333.8	3440.8
1004.9328	2784.6861	4322.05	3429.75
1005.0526	2785.8723	4340.7	3447.3
1005.1723	2787.0579	4336.35	3442.65
1005.2921	2788.2428	4318.55	3426.7
1005.4118	2789.427	4310.95	3419.45
1005.5314	2790.6106	4306.75	3416.8
1005.651	2791.7935	4301.3	3408.2
1005.7706	2792.9757	4299.75	3411.1
1005.8902	2794.1573	4302.8	3407.65
1006.0097	2795.3382	4285.2	3392.55
1006.1291	2796.5184	4288.25	3398.15
1006.2485	2797.698	4304.4	3411.45
1006.3679	2798.8769	4310.15	3418.45
1006.4873	2800.0551	4311.9	3422.05
1006.6066	2801.2327	4308.95	3414.7
1006.7258	2802.4096	4321	3430.4
1006.8451	2803.5859	4332.45	3440.95
1006.9642	2804.7615	4341.65	3449.05
1007.0834	2805.9364	4339.5	3447.85
1007.2025	2807.1106	4374.2	3482.4
1007.3216	2808.2842	4370.8	3476.5
1007.4406	2809.4572	4387.05	3493.4
1007.5596	2810.6294	4416.7	3526.5
1007.6785	2811.801	4447.1	3555.1
1007.7975	2812.972	4485.75	3594.8
1007.9163	2814.1423	4522.7	3630.2
1008.0352	2815.3119	4550.7	3656.9
1008.154	2816.4808	4580.35	3689.95
1008.2727	2817.6491	4630.9	3737.65
1008.3914	2818.8167	4667.35	3777.7
1008.5101	2819.9837	4701.15	3804.5
1008.6288	2821.15	4744.5	3852
1008.7474	2822.3157	4771.3	3881.4
1008.8659	2823.4807	4806.75	3914.45
1008.9844	2824.645	4837.75	3946.3
1009.1029	2825.8086	4884	3993.25
1009.2214	2826.9716	4927.35	4036
1009.3398	2828.134	4945.55	4054.65
1009.4581	2829.2957	4963.3	4070.2
1009.5764	2830.4567	4987.35	4096.4
1009.6947	2831.617	5001.75	4108.2
1009.813	2832.7767	5000.15	4110.35
1009.9312	2833.9358	4997.65	4107.2
1010.0493	2835.0941	4982.25	4089.9
1010.1675	2836.2519	4963.25	4070.65
1010.2855	2837.4089	4942.65	4048.75
1010.4036	2838.5653	4917.85	4027
1010.5216	2839.7211	4917.4	4027.4
1010.6396	2840.8761	4926.85	4032.35
1010.7575	2842.0306	4937.15	4046.5
1010.8754	2843.1843	4972	4081.05
1010.9932	2844.3374	5017.4	4126.15
1011.111	2845.4899	5055.75	4162.15
1011.2288	2846.6417	5121.85	4230.45
1011.3465	2847.7928	5178	4286.5
1011.4642	2848.9433	5277.9	4387.45
1011.5818	2850.0931	5329.75	4437.75
1011.6995	2851.2422	5400.5	4506.2
1011.817	2852.3907	5471.35	4578.6
1011.9345	2853.5385	5534.35	4640.75
1012.052	2854.6857	5608.4	4690.3
1012.1695	2855.8323	5612.75	4722.95
1012.2869	2856.9781	5644.65	4753.1
1012.4042	2858.1233	5703.4	4811.5
1012.5216	2859.2679	5731.55	4840.35
1012.6389	2860.4118	5782.25	4888.4
1012.7561	2861.555	5802.2	4906.1
1012.8733	2862.6976	5839	4944.7
1012.9905	2863.8395	5832.65	4941.5
1013.1076	2864.9808	5852.75	4961.65
1013.2247	2866.1214	5867.5	4978.4
1013.3417	2867.2614	5862.55	4972.4
1013.4587	2868.4007	5881.15	4990.85
1013.5757	2869.5393	5861.4	4967.7
1013.6926	2870.6773	5885.55	4991.05
1013.8095	2871.8146	5890.7	4993.5
1013.9263	2872.9513	5885.9	4992.05
1014.0431	2874.0874	5847.2	4955.2
1014.1599	2875.2227	5814.85	4922.25
1014.2766	2876.3574	5811.2	4920.4
1014.3933	2877.4915	5769.95	4879.35
1014.51	2878.6249	5723.35	4832.25
1014.6266	2879.7577	5715.4	4822.15
1014.7431	2880.8898	5685.45	4782.75
1014.8596	2882.0212	5651.65	4761.65
1014.9761	2883.152	5629.7	4739
1015.0925	2884.2821	5588.2	4698.15
1015.2089	2885.4116	5572.3	4681.95
1015.3253	2886.5405	5570.85	4679.25
1015.4416	2887.6686	5599.2	4707.3
1015.5579	2888.7962	5587.15	4696.45
1015.6741	2889.923	5582.95	4692.5
1015.7903	2891.0493	5568.65	4677.05
1015.9065	2892.1748	5585.9	4692.9
1016.0226	2893.2997	5569.3	4677.85
1016.1387	2894.424	5582.55	4691.95
1016.2547	2895.5476	5581.65	4691.2
1016.3707	2896.6706	5612.55	4721.95
1016.4866	2897.7929	5623.7	4731.15
1016.6025	2898.9145	5661.5	4768.75
1016.7184	2900.0355	5670.9	4778.75
1016.8342	2901.1559	5684.6	4792.45
1016.95	2902.2756	5715.6	4819.75
1017.0658	2903.3946	5748.7	4857.7
1017.1815	2904.513	5758.75	4865.45
1017.2971	2905.6308	5760.05	4868.75
1017.4127	2906.7479	5797.4	4906.6
1017.5283	2907.8643	5815.1	4923.5
1017.6439	2908.9801	5833.3	4941.85
1017.7594	2910.0953	5798.25	4907.55
1017.8748	2911.2098	5796.8	4902.9
1017.9902	2912.3236	5793.75	4894.45
1018.1056	2913.4368	5771.15	4876.75
1018.2209	2914.5494	5747.95	4855.9
1018.3362	2915.6613	5705	4808.4
1018.4515	2916.7725	5680.55	4786.6
1018.5667	2917.8831	5636.65	4744.25
1018.6819	2918.9931	5598.15	4703.5
1018.797	2920.1024	5561.6	4670.1
1018.9121	2921.211	5527.1	4635.7
1019.0271	2922.319	5515.65	4624.95
1019.1421	2923.4264	5477.2	4585.4
1019.2571	2924.5331	5458.6	4567.6
1019.372	2925.6391	5451.15	4560.95
1019.4869	2926.7445	5422.3	4531.15
1019.6017	2927.8493	5420.65	4528.55
1019.7165	2928.9534	5405.15	4511.55
1019.8313	2930.0569	5395.1	4499.85
1019.946	2931.1597	5366.5	4472.95
1020.0606	2932.2619	5359.75	4467.85
1020.1753	2933.3634	5322.55	4431
1020.2899	2934.4643	5331.75	4433.75
1020.4044	2935.5645	5307.2	4409.15
1020.5189	2936.6641	5260.15	4365.5
1020.6334	2937.763	5205.8	4313.55
1020.7478	2938.8613	5138.1	4246.25
1020.8622	2939.959	5083.85	4187.8
1020.9765	2941.056	4974.6	4084.5
1021.0908	2942.1523	4913.45	4022.6
1021.2051	2943.248	4802.5	3909.1
1021.3193	2944.3431	4705.45	3813.9
1021.4334	2945.4375	4586.45	3693.95
1021.5476	2946.5313	4500.7	3612.05
1021.6617	2947.6244	4364.95	3473.1
1021.7757	2948.7169	4284.35	3391.9
1021.8897	2949.8087	4161.5	3270.65
1022.0037	2950.8999	4064.1	3173.8
1022.1176	2951.9904	3981.55	3091.5
1022.2315	2953.0803	3876.85	2985.2
1022.3453	2954.1696	3804.55	2910.15
1022.4591	2955.2582	3751.15	2860.45
1022.5728	2956.3462	3698.95	2808.95
1022.6865	2957.4335	3660.95	2767.55
1022.8002	2958.5202	3621.75	2728.05
1022.9138	2959.6062	3588.25	2697.65
1023.0274	2960.6916	3553.9	2662.65
1023.141	2961.7764	3512.7	2621.45
1023.2545	2962.8605	3505.85	2613.95
1023.3679	2963.9439	3480	2590.15
1023.4813	2965.0267	3472.4	2580.5
1023.5947	2966.1089	3476.2	2562.7
1023.708	2967.1905	3432.85	2542.25
1023.8213	2968.2714	3442.95	2552.5
1023.9346	2969.3516	3421.5	2532.75
1024.0478	2970.4312	3427.5	2529.5
1024.1609	2971.5102	3412.75	2521.4
1024.274	2972.5885	3400.4	2508.2
1024.3871	2973.6662	3397.4	2500.6
1024.5002	2974.7432	3379.7	2489.6
1024.6132	2975.8196	3376.6	2485.7
1024.7261	2976.8954	3361.3	2470.95
1024.839	2977.9705	3332.6	2441.25
1024.9519	2979.045	3329.75	2439.95
1025.0647	2980.1188	3298.85	2408.15
1025.1775	2981.192	3267.7	2377.5
1025.2902	2982.2645	3229.95	2335.75
1025.4029	2983.3364	3211.4	2321.3
1025.5156	2984.4077	3173.1	2281.3
1025.6282	2985.4783	3140.6	2246.15
1025.7407	2986.5483	3092.9	2200.45
1025.8532	2987.6177	3058.65	2168.2
1025.9657	2988.6864	3021.4	2129.9
1026.0782	2989.7545	2981.05	2089.45
1026.1906	2990.8219	2941.45	2051.5
1026.3029	2991.8887	2909.5	2015.05
1026.4152	2992.9548	2872.15	1980.2
1026.5275	2994.0204	2832.85	1943.9
1026.6397	2995.0852	2804.75	1914.65
1026.7519	2996.1495	2772.15	1879.25
1026.864	2997.2131	2739.1	1846.9
1026.9761	2998.276	2715.6	1825.15
1027.0882	2999.3383	2696.85	1804.5
1027.2002	3000.4	2677.2	1784.25
1027.3122	3001.4611	2644.95	1753.7
1027.4241	3002.5215	2652.95	1762.3
1027.536	3003.5812	2619.65	1729.75
1027.6478	3004.6404	2599.05	1707.35
1027.7596	3005.6989	2585.4	1691.65
1027.8714	3006.7567	2573.3	1682.75
1027.9831	3007.8139	2574	1659.8
1028.0947	3008.8705	2552.35	1660.4
1028.2064	3009.9264	2535.45	1641.95
1028.3179	3010.9818	2535.9	1645.05
1028.4295	3012.0364	2527.15	1634.85
1028.541	3013.0905	2510.25	1619.05
1028.6524	3014.1439	2505.95	1614.7
1028.7638	3015.1966	2494.95	1604.05
1028.8752	3016.2487	2487.65	1596.8
1028.9865	3017.3002	2490.4	1592.4
1029.0978	3018.3511	2476.65	1586.35
1029.209	3019.4013	2479.1	1586.8
1029.3202	3020.4509	2480.6	1590.1
1029.4314	3021.4998	2471.4	1579.95
1029.5425	3022.5481	2457.3	1566.3
1029.6535	3023.5958	2465.4	1574.35
1029.7645	3024.6428	2452.25	1560.1
1029.8755	3025.6892	2448.3	1559.4
1029.9864	3026.735	2453.6	1563
1030.0973	3027.7802	2447.55	1557.35
1030.2082	3028.8247	2428.95	1540.25
1030.319	3029.8685	2438.85	1547.35
1030.4297	3030.9118	2437.4	1545.75
1030.5404	3031.9544	2444.3	1555.5
1030.6511	3032.9963	2449.85	1560.5
1030.7617	3034.0376	2434.75	1546.15
1030.8723	3035.0783	2431.35	1535.75
1030.9829	3036.1184	2441.45	1549.95
1031.0934	3037.1578	2435.85	1546.35
1031.2038	3038.1966	2443.6	1550.25
1031.3142	3039.2348	2426.15	1538.45
1031.4246	3040.2723	2427.25	1527.75
1031.5349	3041.3092	2407.9	1517.55
1031.6452	3042.3455	2402.55	1513.05
1031.7554	3043.3811	2397.95	1503.25
1031.8656	3044.4161	2390.2	1499.4
1031.9758	3045.4505	2375.5	1484.4
1032.0859	3046.4842	2374.5	1484.7
1032.1959	3047.5173	2363.3	1473.5
1032.3059	3048.5498	2357.95	1466.05
1032.4159	3049.5816	2346.55	1455.4
1032.5258	3050.6128	2345.45	1453.3
1032.6357	3051.6434	2326.75	1434.2
1032.7455	3052.6734	2309.65	1417.1
1032.8553	3053.7027	2316	1424.6
1032.9651	3054.7314	2284.6	1394.1
1033.0748	3055.7594	2279.75	1389.1
1033.1845	3056.7868	2279.9	1388.9
1033.2941	3057.8136	2267.9	1377.4
1033.4037	3058.8398	2253.3	1363.65
1033.5132	3059.8653	2246.55	1357
1033.6227	3060.8902	2230.95	1339.35
1033.7321	3061.9145	2221.6	1330.55
1033.8415	3062.9381	2217	1324.75
1033.9509	3063.9612	2217.8	1311
1034.0602	3064.9835	2193.2	1303.75
1034.1694	3066.0053	2176.3	1283.75
1034.2787	3067.0264	2177.75	1288.3
1034.3878	3068.0469	2165.55	1274.75
1034.497	3069.0668	2155.1	1261.95
1034.6061	3070.086	2150.1	1260.6
1034.7151	3071.1046	2125.45	1234.15
1034.8241	3072.1226	2123.05	1230.55
1034.9331	3073.1399	2100.65	1210.6
1035.042	3074.1567	2086.35	1195.5
1035.1508	3075.1727	2074.35	1182
1035.2597	3076.1882	2073.25	1183.3
1035.3684	3077.203	2050.25	1160.1
1035.4772	3078.2173	2046.9	1155
1035.5859	3079.2308	2041.15	1148.15
1035.6945	3080.2438	2013.4	1120.9
1035.8031	3081.2561	2006.4	1114.9
1035.9117	3082.2678	2004.4	1114.1
1036.0202	3083.2789	1980.9	1090.2
1036.1286	3084.2893	1977.35	1087.55
1036.2371	3085.2991	1962.45	1073.25
1036.3454	3086.3083	1955.05	1058.15
1036.4538	3087.3169	1946.2	1053.45
1036.562	3088.3248	1935	1043.7
1036.6703	3089.3321	1933.5	1042.2
1036.7785	3090.3388	1933.1	1044.8
1036.8866	3091.3449	1920	1029.2
1036.9948	3092.3503	1911.6	1017.65
1037.1028	3093.3551	1903	1012.8
1037.2108	3094.3593	1893.7	1002.55
1037.3188	3095.3629	1887.35	997.8
1037.4267	3096.3658	1884.75	994.85
1037.5346	3097.3681	1872.6	982.65
1037.6425	3098.3698	1868.75	977.6
1037.7503	3099.3708	1876.15	978.2
1037.858	3100.3713	1861.55	970.75
1037.9657	3101.3711	1844.85	955.3
1038.0734	3102.3702	1950.45	944.2
1038.181	3103.3688	1847.95	956.55
1038.2886	3104.3667	1834.3	946.55
1038.3961	3105.364	1828	937.25
1038.5036	3106.3607	1813.55	919.7
1038.611	3107.3568	1814	922.45
1038.7184	3108.3522	1806.8	916.65
1038.8257	3109.347	1796.65	906.85
1038.933	3110.3412	1795.4	902.4
1039.0403	3111.3348	1782.55	891.9
1039.1475	3112.3277	1787.15	895.75
1039.2547	3113.32	1773.65	882.95
1039.3618	3114.3117	1775.35	883.15
1039.4689	3115.3028	1770.55	881.4
1039.5759	3116.2932	1773.6	881.35
1039.6829	3117.2831	1752.15	857.7
1039.7898	3118.2723	1743.85	853.8
1039.8967	3119.2608	1747.5	857.65
1040.0035	3120.2488	1738	848.3
1040.1103	3121.2361	1744.65	852.2
1040.2171	3122.2229	1733.2	843.35
1040.3238	3123.209	1721.6	829.5
1040.4305	3124.1944	1722.6	831.2
1040.5371	3125.1793	1721.4	829.35
1040.6437	3126.1635	1717.3	826.9
1040.7502	3127.1471	1713.7	824.1
1040.8567	3128.1301	1700.1	810.05
1040.9631	3129.1125	1696	805
1041.0695	3130.0942	1696.65	805.15
1041.1759	3131.0753	1706.2	807.95
1041.2822	3132.0558	1691.7	797
1041.3884	3133.0357	1689.85	799.15
1041.4946	3134.015	1680	789.05
1041.6008	3134.9936	1675.6	785.35
1041.7069	3135.9716	1689.35	778.35
1041.813	3136.949	1677.1	785.75
1041.919	3137.9258	1670.15	775.65
1042.025	3138.902	1666.2	770.05
1042.1309	3139.8775	1657.25	767.85
1042.2368	3140.8524	1653.5	764.6
1042.3427	3141.8267	1653.8	762.75
1042.4485	3142.8004	1653.9	764.55
1042.5542	3143.7735	1644.55	746.6
1042.6599	3144.7459	1640.3	746.7
1042.7656	3145.7178	1633.9	743.2
1042.8712	3146.689	1627.55	738.3
1042.9768	3147.6596	1627.9	738
1043.0823	3148.6295	1620.35	728.55
1043.1878	3149.5989	1619.8	727.95
1043.2932	3150.5676	1618.3	729.6
1043.3986	3151.5357	1608.1	718.95
1043.5039	3152.5032	1604.45	714.95
1043.6092	3153.4701	1597	705.75
1043.7145	3154.4364	1599.75	706.6
1043.8197	3155.402	1593.1	702.75
1043.9248	3156.367	1585.4	693.45
1044.03	3157.3315	1628.7	697.2
1044.135	3158.2952	1578.65	687.15
1044.24	3159.2584	1588.25	699.6
1044.345	3160.221	1573.65	683.75
1044.4499	3161.1829	1566.25	676
1044.5548	3162.1442	1565	674.75
1044.6596	3163.105	1568.85	677.8
1044.7644	3164.065	1556.9	663.9
1044.8692	3165.0245	1550.25	657.05
1044.9739	3165.9834	1549.2	661.45
1045.0785	3166.9416	1544.6	653.35
1045.1831	3167.8993	1541.65	648.55
1045.2877	3168.8563	1540.7	648.15
1045.3922	3169.8127	1536.15	646.3
1045.4966	3170.7684	1532.3	643.8
1045.6011	3171.7236	1518.95	629.15
1045.7054	3172.6782	1522.5	634.85
1045.8098	3173.6321	1520.15	629.65
1045.914	3174.5854	1526.3	632.65
1046.0183	3175.5381	1511.75	622.25
1046.1224	3176.4902	1504.25	613.65
1046.2266	3177.4417	1504.25	613.6
1046.3307	3178.3926	1504.75	615.2
1046.4347	3179.3428	1491.65	603.4
1046.5387	3180.2924	1497.1	609.9
1046.6427	3181.2415	1489.7	599.5
1046.7466	3182.1899	1487.6	596.7
1046.8504	3183.1377	1484.5	595.2
1046.9542	3184.0848	1480.7	587.65
1047.058	3185.0314	1482.3	591.9
1047.1617	3185.9773	1477.65	587.15
1047.2654	3186.9227	1476.45	587.35
1047.369	3187.8674	1471	579.8
1047.4726	3188.8115	1466.7	572.35
1047.5761	3189.755	1460.75	571.9
1047.6796	3190.6979	1460.5	570
1047.783	3191.6402	1450.9	561.25
1047.8864	3192.5818	1456.65	566
1047.9898	3193.5229	1473.6	561.6
1048.0931	3194.4633	1455.45	563
1048.1963	3195.4031	1442.2	551.95
1048.2995	3196.3423	1447.25	559.05
1048.4027	3197.2809	1444.6	554.4
1048.5058	3198.2189	1438.65	548
1048.6089	3199.1563	1441.1	544.05
1048.7119	3200.0931	1434	543.3
1048.8148	3201.0292	1420.15	531.05
1048.9178	3201.9648	1420.75	532.75
1049.0206	3202.8997	1429.95	537.15
1049.1235	3203.834	1422.45	532.1
1049.2262	3204.7677	1416.55	526.15
1049.329	3205.7008	1414	523.9
1049.4317	3206.6333	1408.55	520.65
1049.5343	3207.5652	1410.85	518.95
1049.6369	3208.4964	1407.6	516.85
1049.7394	3209.4271	1403.25	513.35
1049.8419	3210.3571	1398.55	509.15
1049.9444	3211.2865	1400.85	509.65
1050.0468	3212.2154	1398.45	507.1
1050.1491	3213.1436	1403.25	509.05
1050.2514	3214.0712	1398.45	503.45
1050.3537	3214.9982	1385.3	496.3
1050.4559	3215.9246	1382.25	491.65
1050.5581	3216.8503	1382.75	495.6
1050.6602	3217.7755	1388.35	498
1050.7623	3218.7001	1373.1	482.2
1050.8643	3219.624	1381.3	491.65
1050.9663	3220.5473	1379.6	489.15
1051.0682	3221.4701	1383.95	491.3
1051.1701	3222.3922	1373	479.6
1051.2719	3223.3137	1370	480.6
1051.3737	3224.2346	1364.55	475.1
1051.4754	3225.1549	1363.1	474.25
1051.5771	3226.0746	1362.65	473.25
1051.6788	3226.9937	1353.65	464.5
1051.7804	3227.9121	1352.25	462.9
1051.8819	3228.83	1352.1	462.9
1051.9834	3229.7473	1348.25	458.55
1052.0849	3230.6639	1350.05	458.35
1052.1863	3231.5799	1340.85	452.15
1052.2876	3232.4954	1344.85	455.4
1052.3889	3233.4102	1342.75	452.25
1052.4902	3234.3244	1332.8	442
1052.5914	3235.238	1326.15	434.85
1052.6926	3236.151	1352.5	441.8
1052.7937	3237.0634	1330.75	440.45
1052.8948	3237.9752	1327.05	437.9
1052.9958	3238.8864	1324.25	434.95
1053.0968	3239.797	1317.45	427.95
1053.1977	3240.7069	1316.8	425.6
1053.2986	3241.6163	1323.85	432.4
1053.3994	3242.5251	1310.7	419.7
1053.5002	3243.4332	1310.65	423.4
1053.6009	3244.3408	1312.8	421.2
1053.7016	3245.2477	1309.55	419.8
1053.8022	3246.154	1299.2	407.95
1053.9028	3247.0598	1296.7	405.85
1054.0034	3247.9649	1295.5	405.45
1054.1039	3248.8694	1293.75	404.5
1054.2043	3249.7733	1296.6	407.05
1054.3047	3250.6766	1292.95	404.6
1054.4051	3251.5793	1293.05	401.9
1054.5054	3252.4814	1288.7	400.05
1054.6056	3253.3829	1282.55	393.55
1054.7058	3254.2838	1274.95	386.5
1054.806	3255.1841	1279.75	391.3
1054.9061	3256.0838	1270.7	382.15
1055.0061	3256.9829	1273.7	385.5
1055.1062	3257.8814	1270.1	378.9
1055.2061	3258.7792	1267.25	376.95
1055.306	3259.6765	1263.6	372.5
1055.4059	3260.5731	1252.25	363
1055.5057	3261.4692	1249.15	356.6
1055.6055	3262.3647	1248.55	359.65
1055.7052	3263.2595	1238.15	349.45
1055.8049	3264.1538	1236.25	348.2
1055.9045	3265.0474	1236.65	345.8
1056.0041	3265.9404	1227.15	339.45
1056.1036	3266.8329	1219.05	331.45
1056.2031	3267.7247	1232.5	334.95
1056.3025	3268.616	1205.75	318
1056.4019	3269.5066	1208.65	319.35
1056.5013	3270.3966	1194.1	303.4
1056.6005	3271.286	1187.9	300.6
