Software Version:	3.9.2.0
Unit SN:	10000200
Spectrometer SN:	6960
Date:	3/6/2024 10:05:20 AM
Data Line Index:	25
Spectral Points:	2048
Integration time (ms):	125
Averages:	20
Delay (ms):	30
Sequence Number:	1
Processing:	dark subtract
Laser Power (mW):	305
Laser Current (mA):	825
Laser Diode Temp (C):	25.1
Laser Case Temp (C):	24.8
System Temp (C):	24.6
Spectrometer Temp (C):	22.1
CCD Temp (C):	0.009
Secondary Temp (C):	20.006
Heatsink Temp (C):	18.553
CCDPCB Temp (C):	31.216
SecondaryPCB Temp (C):	26.525

Wavelength	RamanShift	Raw Counts	Dark Subtracted
787.061	30.1047	690.25	281.1
787.2016	32.3739	698.4	290.7
787.3422	34.6426	712.75	304.85
787.4828	36.9109	730.15	320.6
787.6235	39.1787	757.05	341.9
787.7642	41.4461	782.25	365.15
787.9049	43.7131	812.05	391.5
788.0456	45.9796	829.7	406.8
788.1863	48.2456	855	427.95
788.3271	50.5112	884.85	453.3
788.4679	52.7764	923.8	490.25
788.6087	55.0411	952.8	514.25
788.7496	57.3054	985.3	541.6
788.8904	59.5692	1019.15	573.95
789.0313	61.8326	1057.95	608.55
789.1722	64.0955	1106.05	655.15
789.3132	66.3579	1149.75	695.4
789.4541	68.6199	1225.5	766.7
789.5951	70.8815	1337.45	873.7
789.7361	73.1426	1577.1	1108.15
789.8771	75.4032	2193.15	1721
790.0181	77.6634	3766.5	3288.6
790.1592	79.9231	7665.9	7185.25
790.3003	82.1824	17536	17045.9
790.4414	84.4412	38319.8	37809.45
790.5825	86.6995	51660.35	51129.55
790.7237	88.9574	57663.2	57111.95
790.8648	91.2148	60826.05	60262.55
791.006	93.4717	61691.25	61119.3
791.1472	95.7282	62086.25	61510.25
791.2885	97.9842	62269.8	61690.35
791.4297	100.2398	62268.85	61687.55
791.571	102.4949	62265.05	61679.95
791.7123	104.7495	62304.55	61715.1
791.8536	107.0036	62182.45	61589.95
791.9949	109.2573	62413.3	61825.9
792.1363	111.5105	62232.1	61637.9
792.2777	113.7632	62304.3	61711.15
792.4191	116.0154	62369.75	61762.75
792.5605	118.2672	62535.05	61937.3
792.7019	120.5185	62554.7	61956.15
792.8434	122.7693	62547.65	61947
792.9849	125.0197	62340.1	61731.85
793.1264	127.2696	62763.1	62152.5
793.2679	129.519	62679.1	62064
793.4094	131.7679	62867	62248.65
793.551	134.0163	62437.4	61819.05
793.6926	136.2642	62633.55	62013.55
793.8342	138.5117	62894.2	62269.05
793.9758	140.7587	62806.35	62179.35
794.1175	143.0052	62812.25	62180.25
794.2591	145.2512	62561.05	61928.45
794.4008	147.4967	62870.85	62239.9
794.5425	149.7417	62790.05	62155.65
794.6842	151.9863	62803.9	62165.4
794.826	154.2304	62652.25	62009.8
794.9677	156.4739	62763.3	62111.55
795.1095	158.717	62957.85	62310.55
795.2513	160.9596	62818.55	62165.2
795.3931	163.2017	62606.05	61952.1
795.535	165.4433	62857.7	62199.9
795.6768	167.6844	62731.05	62070.25
795.8187	169.925	62848.9	62190
795.9606	172.1651	62714.7	62050.1
796.1025	174.4047	62821.85	62153.9
796.2445	176.6439	62818.45	62152.8
796.3864	178.8825	62742.45	62070.8
796.5284	181.1206	62983	62302.2
796.6704	183.3582	62942.35	62261.15
796.8124	185.5954	62855.95	62172.95
796.9544	187.832	62874.55	62188
797.0965	190.0681	62719.6	62030.7
797.2386	192.3037	63003.5	62307.35
797.3806	194.5388	63300.4	62605.8
797.5228	196.7734	62602.95	61905.35
797.6649	199.0075	63261.65	62559.3
797.807	201.2411	63007.05	62310.55
797.9492	203.4742	63361.7	62657.2
798.0914	205.7068	63259.15	62551.9
798.2336	207.9389	63231.15	62521.25
798.3758	210.1704	63212.2	62508.55
798.518	212.4015	63479.55	62785.15
798.6603	214.632	63160.15	62471.15
798.8025	216.862	63503.15	62819.8
798.9448	219.0915	63312.65	62626.35
799.0871	221.3205	63286.45	62596
799.2294	223.549	63575.05	62890.65
799.3718	225.777	63521.55	62837.95
799.5141	228.0044	63683.4	62990.35
799.6565	230.2314	63545.6	62849.6
799.7989	232.4578	63536	62837.45
799.9413	234.6837	63597.95	62894
800.0837	236.909	64113.55	63404.2
800.2262	239.1339	63382.5	62651
800.3687	241.3582	63741.25	63021.15
800.5111	243.582	63750.95	63001.75
800.6536	245.8053	63730.6	62994.9
800.7961	248.0281	63786.85	63056.25
800.9387	250.2503	63898.05	63156.6
801.0812	252.472	63646.25	62906.35
801.2238	254.6932	63817.55	63080.6
801.3664	256.9139	63722.9	62988.15
801.509	259.134	64167.9	63424.25
801.6516	261.3536	63685.2	62945.8
801.7942	263.5727	63920	63179.7
801.9369	265.7912	63787.1	63046.25
802.0795	268.0092	63867.95	63127.9
802.2222	270.2267	63948.65	63205.1
802.3649	272.4436	63706	62960.15
802.5076	274.6601	63946	63193.55
802.6504	276.8759	64025.55	63275.55
802.7931	279.0913	63883.6	63133.05
802.9359	281.3061	64007.65	63257.65
803.0787	283.5204	63989.3	63236.25
803.2215	285.7341	63980.45	63221.1
803.3643	287.9473	64176.55	63406.95
803.5071	290.16	64023.65	63259.65
803.6499	292.3721	64094.6	63337
803.7928	294.5837	63937.2	63176.8
803.9357	296.7947	63797.05	63040.6
804.0786	299.0052	64152.7	63396.65
804.2215	301.2152	64022.6	63262.75
804.3644	303.4246	64152.75	63392
804.5074	305.6334	64161.45	63401.05
804.6503	307.8418	63939.45	63174.15
804.7933	310.0495	63918.3	63152.4
804.9363	312.2568	63961	63195.1
805.0793	314.4635	63940	63173.15
805.2223	316.6696	64051.55	63278.85
805.3653	318.8752	64156	63376.7
805.5084	321.0802	63669.15	62898.25
805.6514	323.2847	63930.45	63155.65
805.7945	325.4887	63892.85	63118.5
805.9376	327.692	63796.65	63022.3
806.0807	329.8949	63949	63172.3
806.2238	332.0972	63838.2	63056.4
806.367	334.2989	63940.75	63158.25
806.5101	336.5001	64066.6	63288.35
806.6533	338.7007	63701.75	62917.95
806.7965	340.9008	63925.2	63140.4
806.9397	343.1003	63973.55	63186.65
807.0829	345.2992	64071.35	63284.7
807.2261	347.4976	63847.15	63061.95
807.3693	349.6955	63978.6	63187.35
807.5126	351.8927	63814.6	63022.35
807.6559	354.0895	63984.05	63179.5
807.7991	356.2856	63960.6	63166.35
807.9424	358.4812	64116.15	63320.35
808.0857	360.6763	63802.85	63005.9
808.2291	362.8707	64120.95	63320.6
808.3724	365.0646	63901	63100.1
808.5158	367.258	63927.85	63124.2
808.6591	369.4508	63744.85	62938.05
808.8025	371.643	64075.45	63268.1
808.9459	373.8346	63891.75	63082.65
809.0893	376.0257	63939.3	63126.85
809.2327	378.2162	63886.75	63073.6
809.3762	380.4062	63640.3	62828.7
809.5196	382.5956	63834.9	63025.1
809.6631	384.7844	63805.25	63003.9
809.8066	386.9726	63980	63178.9
809.9501	389.1603	63932.85	63133.95
810.0936	391.3474	63740.95	62897.8
810.2371	393.5339	63923.4	63113.85
810.3806	395.7199	63610	62807.75
810.5241	397.9052	63686.45	62885.45
810.6677	400.09	63757.55	62954.85
810.8113	402.2743	63971.15	63165.5
810.9548	404.4579	63650.2	62845.7
811.0984	406.641	63700.7	62893.75
811.2421	408.8235	63809.95	63000.25
811.3857	411.0054	63858.3	63045.5
811.5293	413.1868	63886.05	63072.8
811.673	415.3675	63769.2	62948.65
811.8166	417.5477	63763.1	62943.45
811.9603	419.7273	63778.25	62955.7
812.104	421.9064	63749.95	62920.6
812.2477	424.0848	63756.85	62932.05
812.3914	426.2627	63941.6	63121.2
812.5351	428.4399	63685.35	62862.15
812.6788	430.6166	63439.1	62612.7
812.8226	432.7928	63761	62932.5
812.9663	434.9683	63519.1	62690.6
813.1101	437.1432	63510.9	62682.45
813.2539	439.3176	63713.3	62889.1
813.3977	441.4914	63383.65	62561.1
813.5415	443.6645	63436.6	62608.05
813.6853	445.8371	63477.5	62649.35
813.8291	448.0091	63322.65	62493.4
813.973	450.1806	63230.4	62403.95
814.1168	452.3514	63290.5	62461.15
814.2607	454.5216	63134.3	62299.75
814.4046	456.6913	63312.35	62482.9
814.5485	458.8603	63349.05	62518.55
814.6924	461.0288	63116.6	62289.45
814.8363	463.1967	63320.35	62491.85
814.9802	465.3639	63257.45	62426.95
815.1241	467.5306	62903.6	62070.7
815.2681	469.6967	63142.45	62310.25
815.412	471.8622	63281.65	62451.6
815.556	474.0271	63127.15	62295.1
815.7	476.1914	63167.15	62328.95
815.844	478.3551	63145.3	62310.8
815.988	480.5182	63391.05	62560.5
816.132	482.6807	63063.15	62231.85
816.276	484.8426	63096.8	62270.2
816.4201	487.0039	63359.85	62529.15
816.5641	489.1647	63334.25	62497.65
816.7082	491.3248	63028.3	62192
816.8522	493.4843	63363.2	62525.05
816.9963	495.6432	63357.5	62521.1
817.1404	497.8015	63004.2	62160.75
817.2845	499.9592	63204.45	62363.95
817.4286	502.1163	63197.1	62355.5
817.5727	504.2728	63183.8	62341.25
817.7168	506.4287	63159.1	62323.1
817.861	508.5839	63009.05	62171.9
818.0051	510.7386	63124.45	62285.05
818.1493	512.8927	63169.4	62323.05
818.2935	515.0461	63114.6	62269.6
818.4377	517.199	63261.3	62415.5
818.5818	519.3512	63087.6	62241.5
818.726	521.5029	63088.75	62238.7
818.8703	523.6539	63116	62268.4
819.0145	525.8043	62891.35	62043.7
819.1587	527.9541	63119.3	62268.75
819.303	530.1033	63081.15	62230.3
819.4472	532.2519	62965.85	62116.55
819.5915	534.3999	63151.9	62300.1
819.7357	536.5472	63226.55	62375.9
819.88	538.694	62893.85	62045.45
820.0243	540.8401	63060.9	62209.15
820.1686	542.9856	63075.65	62222.95
820.3129	545.1305	63172.7	62314.55
820.4572	547.2748	62966.05	62105.45
820.6016	549.4185	62971.7	62111.15
820.7459	551.5615	63161.55	62305.05
820.8902	553.704	63069.2	62208.8
821.0346	555.8458	62943.2	62087.65
821.1789	557.987	62994.25	62139
821.3233	560.1276	63057.65	62201.1
821.4677	562.2675	62953	62095.7
821.6121	564.4069	62993.85	62135.95
821.7565	566.5456	63122.7	62267.4
821.9009	568.6837	62864.65	62008.85
822.0453	570.8212	62992.1	62138.75
822.1897	572.958	62733.1	61876.45
822.3342	575.0942	62945.15	62090.15
822.4786	577.2299	62777.45	61920.2
822.6231	579.3648	62691.5	61839.45
822.7675	581.4992	62652.85	61806.2
822.912	583.6329	62626	61776.4
823.0565	585.766	62626.55	61775.05
823.201	587.8985	62704.35	61853.55
823.3454	590.0304	62428.1	61546.45
823.4899	592.1616	62629.65	61768.35
823.6345	594.2922	62520.3	61654.65
823.779	596.4222	62388.2	61522.55
823.9235	598.5515	62427.7	61562.3
824.068	600.6802	62511.35	61647.15
824.2126	602.8083	62281.35	61416.7
824.3571	604.9358	62299.15	61433.6
824.5017	607.0626	62446.85	61581.3
824.6462	609.1888	62174.85	61305.3
824.7908	611.3144	62318.9	61449.85
824.9354	613.4393	62217.75	61352.4
825.08	615.5636	62143.9	61274.4
825.2246	617.6873	62260.05	61394.55
825.3692	619.8103	62105	61233.45
825.5138	621.9327	62253.8	61380.75
825.6584	624.0544	62275.95	61409.35
825.803	626.1756	62154	61289.6
825.9477	628.2961	62174.8	61307.6
826.0923	630.4159	62056.8	61190.3
826.237	632.5351	62039	61168.1
826.3816	634.6537	62297.2	61425.3
826.5263	636.7716	62002.4	61127
826.6709	638.8889	62072.1	61196.2
826.8156	641.0056	62030.6	61155.2
826.9603	643.1216	62081.6	61209.2
827.105	645.237	62156.25	61282.05
827.2497	647.3518	61994.5	61125.4
827.3944	649.4659	62023.55	61151.35
827.5391	651.5793	62034.8	61163.45
827.6838	653.6922	62076.5	61209.85
827.8285	655.8043	61899.4	61028.25
827.9733	657.9159	62131.55	61256.45
828.118	660.0268	61718.3	60842.75
828.2627	662.137	61897.65	61022.55
828.4075	664.2466	61938.15	61061.45
828.5522	666.3556	61841.8	60964.4
828.697	668.4639	61898.2	61020.55
828.8418	670.5716	61832.35	60959
828.9865	672.6786	61888.3	61010.95
829.1313	674.785	61726.5	60846.85
829.2761	676.8907	61720.6	60846.55
829.4209	678.9958	61755	60882.35
829.5657	681.1002	61798.55	60920.3
829.7105	683.204	61679.05	60792.8
829.8553	685.3072	61606.35	60722.9
830.0001	687.4097	61592.8	60712.3
830.1449	689.5115	61596.6	60713.45
830.2898	691.6127	61693	60818.25
830.4346	693.7132	61563.1	60683.1
830.5794	695.8131	61611.35	60709.5
830.7243	697.9123	61603.75	60720.7
830.8691	700.0109	61655.1	60770.5
831.014	702.1089	61450.3	60569.2
831.1588	704.2061	61517.75	60635.2
831.3037	706.3028	61545.85	60662.1
831.4486	708.3987	61523.05	60639.6
831.5935	710.4941	61438.4	60556.4
831.7383	712.5887	61521.7	60637.2
831.8832	714.6827	61488.2	60599.6
832.0281	716.7761	61526.35	60643.8
832.173	718.8688	61498.8	60617.4
832.3179	720.9608	61412.4	60525.65
832.4628	723.0522	61463.8	60569.35
832.6077	725.1429	61358.3	60471.5
832.7527	727.233	61566.2	60678.4
832.8976	729.3224	61253.4	60367.6
833.0425	731.4112	61330.1	60446.25
833.1874	733.4993	61305.5	60418.05
833.3324	735.5867	61268.5	60381.6
833.4773	737.6735	61242.8	60353.6
833.6222	739.7596	61166.75	60275.95
833.7672	741.845	61129	60242.65
833.9122	743.9298	61185.1	60293.55
834.0571	746.014	61125.75	60238.5
834.2021	748.0974	61028.2	60138.65
834.347	750.1802	61101.2	60209.3
834.492	752.2624	60910.9	60021.7
834.637	754.3439	60950.9	60057.35
834.782	756.4247	60927.65	60027.7
834.9269	758.5048	60818.6	59928.6
835.0719	760.5843	60869.55	59981.95
835.2169	762.6631	60825.35	59937.85
835.3619	764.7413	60827.7	59935.75
835.5069	766.8188	60804.05	59912.95
835.6519	768.8956	60833.3	59938
835.7969	770.9718	60839.05	59947.45
835.9419	773.0473	60756.1	59864.85
836.0869	775.1221	60710.75	59817.75
836.232	777.1962	60645.3	59751.35
836.377	779.2697	60557.45	59663.85
836.522	781.3426	60556	59645.75
836.667	783.4147	60550.9	59656.5
836.8121	785.4862	60536.15	59648.3
836.9571	787.557	60438.3	59547.45
837.1021	789.6271	60504	59610.55
837.2472	791.6966	60428.65	59532.6
837.3922	793.7654	60295	59400.55
837.5373	795.8335	60317	59421.55
837.6823	797.901	60277.2	59381
837.8274	799.9678	60213.2	59319.65
837.9724	802.0339	60160.9	59267.2
838.1175	804.0993	60178.05	59274.9
838.2626	806.1641	60075.85	59177.95
838.4076	808.2282	60052.4	59158.25
838.5527	810.2916	60044.7	59147.9
838.6978	812.3544	60074	59178.2
838.8428	814.4164	59934.85	59041.9
838.9879	816.4778	59976.15	59078.55
839.133	818.5385	59945	59045.75
839.2781	820.5986	59950.85	59055.75
839.4232	822.658	59962.8	59066.2
839.5682	824.7166	59896	59001.35
839.7133	826.7747	59815.1	58919.95
839.8584	828.832	59876.85	58979.35
840.0035	830.8886	59884.3	58983.05
840.1486	832.9446	59850.1	58951.9
840.2937	834.9999	59681.3	58783.85
840.4388	837.0545	59739.1	58837.85
840.5839	839.1085	59763.7	58865
840.729	841.1618	59704.6	58804.25
840.8741	843.2143	59577.6	58681.8
841.0192	845.2662	59540.4	58642.3
841.1643	847.3175	59566.45	58670
841.3095	849.368	59443.7	58544.05
841.4546	851.4179	59501.05	58603.3
841.5997	853.467	59356.55	58455.8
841.7448	855.5155	59376.25	58477.6
841.8899	857.5633	59318.35	58420
842.0351	859.6105	59270.75	58369.15
842.1802	861.6569	59257.55	58358.05
842.3253	863.7027	59183.7	58283.25
842.4704	865.7478	59220.85	58320.9
842.6156	867.7922	59177.05	58277.55
842.7607	869.8359	59180.3	58277.95
842.9058	871.8789	59065	58165.5
843.0509	873.9212	59124.35	58191.2
843.1961	875.9629	59083.4	58183.55
843.3412	878.0039	59050.5	58148.95
843.4863	880.0441	59021.95	58122.65
843.6315	882.0837	59033.65	58132.5
843.7766	884.1226	58990.6	58090.15
843.9218	886.1609	58967.7	58071.35
844.0669	888.1984	58936.8	58037.15
844.212	890.2352	59033.25	58131.55
844.3572	892.2714	58884.5	57979.55
844.5023	894.3069	58929.7	58027.25
844.6475	896.3416	58836.55	57935.45
844.7926	898.3757	58824.1	57920
844.9377	900.4091	58703.45	57800.55
845.0829	902.4418	58784.2	57876.55
845.228	904.4739	58676.25	57771.6
845.3732	906.5052	58746.1	57840.05
845.5183	908.5358	58647.35	57745.7
845.6635	910.5658	58631.7	57726.4
845.8086	912.595	58534.55	57630.5
845.9538	914.6236	58400	57497.4
846.0989	916.6515	58575.95	57671.95
846.2441	918.6786	58383.85	57481.15
846.3892	920.7051	58410	57502.15
846.5344	922.7309	58366.3	57460.25
846.6795	924.756	58330.2	57427.15
846.8246	926.7804	58268.2	57361.45
846.9698	928.8041	58071.15	57164.4
847.1149	930.8272	58174.9	57270.1
847.2601	932.8495	58118.15	57215.3
847.4052	934.8711	58018.1	57114.3
847.5504	936.892	57927.35	57021.55
847.6955	938.9123	57912.25	57004.7
847.8407	940.9318	57866.55	56960.65
847.9858	942.9506	57813.7	56907.4
848.131	944.9688	57773.55	56867.45
848.2761	946.9862	57660.85	56756.6
848.4213	949.003	57631.85	56727.65
848.5664	951.019	57512.8	56607.5
848.7115	953.0344	57498.25	56593.7
848.8567	955.0491	57456.95	56549.8
849.0018	957.063	57489.85	56584.5
849.147	959.0763	57496.3	56590.95
849.2921	961.0888	57386.75	56478.5
849.4373	963.1007	57442.15	56539.2
849.5824	965.1119	57406.15	56502.85
849.7275	967.1223	57332.9	56435
849.8727	969.1321	57360.05	56461.15
850.0178	971.1412	57272.05	56370.35
850.1629	973.1495	57174.85	56270.75
850.3081	975.1572	57204.65	56260.9
850.4532	977.1641	57138.6	56229.8
850.5983	979.1704	57084.7	56175.9
850.7435	981.1759	57063.1	56154.6
850.8886	983.1808	56989.85	56082.1
851.0337	985.1849	56967.95	56050.7
851.1788	987.1884	56948.6	56039.7
851.324	989.1911	56981.75	56073.35
851.4691	991.1932	56793.45	55886.1
851.6142	993.1945	56791	55884.6
851.7593	995.1951	56766.35	55858.8
851.9045	997.1951	56662.75	55749.3
852.0496	999.1943	56596.75	55690.4
852.1947	1001.1928	56503.75	55594.85
852.3398	1003.1906	56480.3	55572.3
852.4849	1005.1877	56393.1	55486.5
852.63	1007.1841	56285.1	55378.7
852.7751	1009.1798	56262.35	55355.2
852.9202	1011.1748	56197.25	55290.85
853.0653	1013.1691	56171	55261.15
853.2104	1015.1627	55911.4	55006
853.3555	1017.1556	55904.35	54998.85
853.5006	1019.1477	55900.15	54992.9
853.6457	1021.1392	55724.7	54819.8
853.7908	1023.1299	55573.75	54672.05
853.9359	1025.12	55585.55	54685.9
854.081	1027.1093	55465.2	54572.5
854.2261	1029.0979	55436.8	54543.9
854.3712	1031.0859	55374.25	54479.9
854.5163	1033.0731	55258.3	54358.5
854.6613	1035.0596	55249.65	54344.85
854.8064	1037.0454	55159.1	54254.85
854.9515	1039.0304	55087.15	54179.7
855.0965	1041.0148	54869.8	53965.35
855.2416	1042.9985	54843.85	53937
855.3867	1044.9814	54930.05	54026.45
855.5317	1046.9636	54696.85	53790.6
855.6768	1048.9452	54719.75	53817.65
855.8219	1050.926	54688.6	53784.6
855.9669	1052.9061	54633.75	53727.95
856.112	1054.8855	54571	53665.7
856.257	1056.8642	54475.25	53568.45
856.4021	1058.8421	54428.5	53517.65
856.5471	1060.8194	54428.2	53524.4
856.6921	1062.7959	54291.7	53387.05
856.8372	1064.7717	54367.55	53457.85
856.9822	1066.7469	54307.75	53399.2
857.1272	1068.7213	54297.45	53390.1
857.2723	1070.695	54198.9	53293.25
857.4173	1072.6679	54016.55	53110.7
857.5623	1074.6402	54125.4	53218.3
857.7073	1076.6117	54031.65	53121.25
857.8523	1078.5826	53979.15	53072.4
857.9973	1080.5527	53964	53054.4
858.1423	1082.5221	53799.75	52891
858.2873	1084.4908	53791.25	52882.9
858.4323	1086.4587	53690.15	52782.85
858.5773	1088.426	53660.3	52752.65
858.7223	1090.3925	53633.8	52723
858.8673	1092.3584	53579.6	52672.4
859.0123	1094.3235	53407.25	52501.1
859.1573	1096.2879	53395.05	52489.75
859.3022	1098.2515	53421.6	52514.35
859.4472	1100.2145	53323.15	52416.2
859.5922	1102.1767	53280.5	52372.35
859.7371	1104.1382	53295.1	52386.6
859.8821	1106.099	53236.25	52327.6
860.027	1108.0591	53226.3	52320.25
860.172	1110.0185	53035.55	52128.45
860.3169	1111.9771	53190.2	52283.95
860.4619	1113.9351	53014.4	52107.85
860.6068	1115.8923	52915.65	52006.45
860.7517	1117.8488	52828.7	51919.3
860.8967	1119.8045	52685.8	51778.95
861.0416	1121.7596	52700.7	51794.55
861.1865	1123.7139	52579.75	51675.15
861.3314	1125.6675	52563.25	51658.7
861.4763	1127.6204	52537.85	51630.95
861.6212	1129.5726	52363.95	51454.7
861.7661	1131.524	52429.5	51524.45
861.911	1133.4748	52399.2	51490.75
862.0559	1135.4248	52229.6	51322.3
862.2008	1137.3741	52215.55	51310.85
862.3457	1139.3226	52127.8	51218.2
862.4905	1141.2705	52169	51260.85
862.6354	1143.2176	52042	51127.75
862.7803	1145.164	51922.3	51013.55
862.9251	1147.1097	51939.7	51031.85
863.07	1149.0546	51909.3	51001.75
863.2148	1150.9989	51919.8	51012.5
863.3597	1152.9424	51817.4	50910.35
863.5045	1154.8852	51822.75	50915.25
863.6493	1156.8272	51762.5	50853.05
863.7942	1158.7686	51813.7	50903.8
863.939	1160.7092	51633.75	50725.35
864.0838	1162.6491	51567.1	50658.5
864.2286	1164.5883	51629	50724.2
864.3734	1166.5267	51486.9	50578.55
864.5182	1168.4644	51522.7	50616.25
864.663	1170.4014	51496	50585.4
864.8078	1172.3377	51567.05	50660.25
864.9526	1174.2732	51587.4	50682.05
865.0974	1176.2081	51560.85	50652.95
865.2421	1178.1421	51522.45	50612.9
865.3869	1180.0755	51605	50700.85
865.5317	1182.0082	51539.6	50633.55
865.6764	1183.9401	51516.75	50610.5
865.8212	1185.8713	51383	50479.85
865.9659	1187.8017	51300.15	50399.6
866.1106	1189.7315	51285.2	50387.6
866.2554	1191.6605	51117.35	50190.8
866.4001	1193.5888	51025.85	50126.25
866.5448	1195.5163	50936.5	50036.5
866.6895	1197.4432	50855.6	49946.75
866.8342	1199.3693	50812.4	49908.7
866.9789	1201.2947	50715.15	49801.65
867.1236	1203.2193	50681.9	49774.65
867.2683	1205.1432	50577	49672.95
867.413	1207.0664	50522.05	49615.85
867.5576	1208.9889	50504.6	49597.45
867.7023	1210.9106	50383.35	49477.45
867.847	1212.8316	50276.8	49372.6
867.9916	1214.7519	50301.75	49386.6
868.1363	1216.6715	50212.6	49307.75
868.2809	1218.5903	50165.85	49260.05
868.4255	1220.5084	50131.65	49226.3
868.5701	1222.4257	50100.75	49193.5
868.7148	1224.3424	49971.6	49069.4
868.8594	1226.2583	49929.8	49021
869.004	1228.1735	49955.15	49049.4
869.1486	1230.0879	49794.2	48886.05
869.2932	1232.0016	49852.1	48947.2
869.4377	1233.9146	49694.45	48785.7
869.5823	1235.8269	49683.8	48778.65
869.7269	1237.7384	49675.05	48772.35
869.8715	1239.6492	49552.05	48644.8
870.016	1241.5592	49460.6	48555.15
870.1606	1243.4686	49442.7	48538.4
870.3051	1245.3772	49405.65	48501.8
870.4496	1247.285	49401.85	48497.6
870.5941	1249.1922	49260.75	48355.3
870.7387	1251.0986	49344.2	48437.55
870.8832	1253.0042	49211.3	48306
871.0277	1254.9092	49230.5	48325.3
871.1722	1256.8134	49094.4	48191.35
871.3167	1258.7169	49202.45	48296.9
871.4611	1260.6196	49082.35	48180.7
871.6056	1262.5216	49081.05	48174.55
871.7501	1264.4229	49070.3	48167.25
871.8945	1266.3234	49126.25	48222.15
872.039	1268.2232	49096.9	48190.5
872.1834	1270.1223	49010.95	48104.8
872.3278	1272.0207	48994.25	48089.05
872.4723	1273.9183	48952.6	48041.7
872.6167	1275.8151	48892.7	47986.55
872.7611	1277.7113	48851.8	47948.75
872.9055	1279.6067	48782.5	47877.25
873.0499	1281.5014	48744.05	47835.75
873.1943	1283.3953	48812.5	47906.6
873.3386	1285.2885	48783.85	47879.25
873.483	1287.181	48818.1	47912.7
873.6274	1289.0727	48860.45	47957.15
873.7717	1290.9637	48768.25	47865.55
873.9161	1292.854	48884	47980.35
874.0604	1294.7435	48750.6	47846.45
874.2047	1296.6323	48737.65	47833.55
874.349	1298.5204	48687.85	47777.8
874.4933	1300.4077	48670.25	47763.6
874.6376	1302.2943	48586.85	47684.05
874.7819	1304.1802	48556.95	47652.75
874.9262	1306.0653	48393.35	47485.2
875.0705	1307.9497	48282.25	47378.25
875.2147	1309.8333	48274.85	47370
875.359	1311.7162	48206.7	47303.2
875.5032	1313.5984	48158.1	47250.4
875.6475	1315.4798	48028.25	47122.9
875.7917	1317.3605	47967.5	47044.7
875.9359	1319.2405	47973.8	47067.9
876.0801	1321.1197	47802.65	46895.9
876.2243	1322.9982	47797.05	46887.85
876.3685	1324.876	47752.35	46845.6
876.5127	1326.753	47585.15	46680.05
876.6569	1328.6293	47670.4	46764.25
876.801	1330.5048	47590.85	46684.1
876.9452	1332.3796	47457.75	46551.75
877.0893	1334.2537	47439.5	46511.05
877.2335	1336.127	47431.4	46528.75
877.3776	1337.9996	47321.45	46417.5
877.5217	1339.8714	47374.4	46467.1
877.6658	1341.7426	47150.65	46203.3
877.8099	1343.6129	47209.5	46305
877.954	1345.4826	47206.3	46300.75
878.0981	1347.3515	47057.05	46151.65
878.2422	1349.2196	47119.8	46213.3
878.3862	1351.087	47072.3	46166.75
878.5303	1352.9537	46997.7	46091.35
878.6743	1354.8197	47065	46158.85
878.8184	1356.6849	47083.25	46177.9
878.9624	1358.5493	47043.1	46137.9
879.1064	1360.4131	46954.25	46050.45
879.2504	1362.276	47018.6	46118.45
879.3944	1364.1383	46842.15	45937.5
879.5384	1365.9998	46741.7	45832.9
879.6823	1367.8606	46678.05	45770.65
879.8263	1369.7206	46544.2	45640.8
879.9702	1371.5799	46456.7	45548.4
880.1142	1373.4384	46309.75	45403
880.2581	1375.2962	46308.7	45402.65
880.402	1377.1533	45981.05	45076.35
880.5459	1379.0096	45818.55	44914.3
880.6898	1380.8652	45770.95	44868.7
880.8337	1382.7201	45579.9	44675.2
880.9776	1384.5742	45534.05	44629.95
881.1215	1386.4275	45145.2	44237.45
881.2653	1388.2802	45192.95	44286.4
881.4092	1390.132	45212.75	44306.35
881.553	1391.9832	44933.2	44025.3
881.6968	1393.8336	44725.8	43820.85
881.8406	1395.6832	44740.25	43834.55
881.9844	1397.5322	44758.55	43853.1
882.1282	1399.3803	44526.15	43618
882.272	1401.2278	44415.3	43511.75
882.4158	1403.0745	44321.3	43415.8
882.5595	1404.9204	44234	43328.55
882.7033	1406.7656	44190.55	43285.75
882.847	1408.6101	43964.05	43058.95
882.9908	1410.4538	43978.35	43075.65
883.1345	1412.2968	43923.5	43016.35
883.2782	1414.139	43691.75	42789
883.4219	1415.9805	43768.85	42864.9
883.5656	1417.8213	43514.3	42606.4
883.7092	1419.6613	43667.75	42764.15
883.8529	1421.5006	43528.5	42626.8
883.9965	1423.3391	43456.4	42550.65
884.1402	1425.1769	43473.75	42568.15
884.2838	1427.0139	43628.85	42724.05
884.4274	1428.8502	43565.3	42661.15
884.571	1430.6858	43633.7	42732
884.7146	1432.5206	43851.7	42948.8
884.8582	1434.3547	43687.9	42784.4
885.0018	1436.188	43533.45	42630.85
885.1453	1438.0206	43679.5	42774.1
885.2889	1439.8524	43513.25	42609.15
885.4324	1441.6835	43315.8	42410.4
885.5759	1443.5139	43351.1	42442.8
885.7194	1445.3435	43164.45	42262.55
885.8629	1447.1724	43226.95	42325.5
886.0064	1449.0005	43019.35	42117.65
886.1499	1450.8279	43060.4	42157.8
886.2933	1452.6545	42980.65	42078.05
886.4368	1454.4804	42953.3	42050.1
886.5802	1456.3056	42862.85	41953.4
886.7237	1458.13	42856.35	41952.7
886.8671	1459.9536	42970.95	42068.1
887.0105	1461.7766	42664.9	41760.55
887.1539	1463.5987	42444.85	41540.85
887.2972	1465.4202	42408.95	41506.2
887.4406	1467.2409	42226.1	41323.45
887.584	1469.0608	42011.4	41106.5
887.7273	1470.88	41990.2	41085.4
887.8706	1472.6984	41999.8	41097.7
888.0139	1474.5161	41724.15	40819.05
888.1572	1476.3331	41734.95	40832.6
888.3005	1478.1493	41574.35	40673.65
888.4438	1479.9648	41496.35	40592
888.5871	1481.7795	41509.4	40605.35
888.7303	1483.5935	41536.85	40633.95
888.8736	1485.4067	41381.45	40477
889.0168	1487.2192	41317.25	40413.65
889.16	1489.031	41264.55	40357.55
889.3032	1490.842	41222.4	40318.65
889.4464	1492.6522	41206.1	40302.2
889.5896	1494.4618	41058.9	40156.55
889.7327	1496.2705	41091.75	40190.95
889.8759	1498.0785	40882.5	39977.55
890.019	1499.8858	40901.4	40000.35
890.1622	1501.6924	40945.95	40043.75
890.3053	1503.4981	40764.45	39862.35
890.4484	1505.3032	40748.05	39846.45
890.5914	1507.1075	40636.35	39734.45
890.7345	1508.911	40642.75	39737.2
890.8776	1510.7138	40579.3	39678.15
891.0206	1512.5159	40544.6	39644.7
891.1637	1514.3172	40224.45	39324.45
891.3067	1516.1178	40206.25	39307.05
891.4497	1517.9176	40258.35	39352.55
891.5927	1519.7166	40124.85	39225.5
891.7357	1521.515	40081.45	39175.75
891.8786	1523.3126	39983.65	39081.7
892.0216	1525.1094	39962.15	39059.7
892.1645	1526.9055	39852.7	38953.6
892.3074	1528.7008	39775.45	38874.95
892.4503	1530.4954	39555	38652
892.5932	1532.2893	39619.7	38721.1
892.7361	1534.0824	39418.1	38512.9
892.879	1535.8747	39300.6	38402.15
893.0218	1537.6663	39434.4	38535.3
893.1647	1539.4572	39055.15	38154.1
893.3075	1541.2473	39137.05	38236.45
893.4503	1543.0367	39044.95	38146.7
893.5931	1544.8253	38909.15	38003.3
893.7359	1546.6132	38965.75	38062.65
893.8787	1548.4003	38757.2	37847.7
894.0214	1550.1867	38749.9	37842.2
894.1642	1551.9723	38770.1	37866.05
894.3069	1553.7572	38691.95	37793.7
894.4496	1555.5414	38700.35	37799.9
894.5923	1557.3247	38537.45	37639.5
894.735	1559.1074	38591.25	37697.75
894.8777	1560.8893	38494.3	37597.75
895.0204	1562.6705	38488.9	37592.3
895.163	1564.4509	38366.6	37469.4
895.3056	1566.2305	38387.55	37493.6
895.4482	1568.0094	38495.45	37600.05
895.5908	1569.7876	38396.15	37500.5
895.7334	1571.565	38242.55	37347.65
895.876	1573.3417	38281.6	37386
896.0186	1575.1176	38175.85	37278.05
896.1611	1576.8928	38084.25	37190.6
896.3036	1578.6672	37955.2	37063.85
896.4461	1580.4409	37909.35	37018.1
896.5886	1582.2138	37812.7	36919.05
896.7311	1583.986	37749.3	36855.35
896.8736	1585.7575	37697.9	36807.05
897.0161	1587.5282	37666.3	36773.35
897.1585	1589.2981	37710.8	36817.25
897.3009	1591.0673	37565.4	36675.9
897.4433	1592.8358	37528.9	36636.55
897.5857	1594.6035	37533.35	36638.45
897.7281	1596.3704	37510	36613.3
897.8705	1598.1366	37382.55	36487.15
898.0128	1599.9021	37305.9	36413.45
898.1551	1601.6668	37261.05	36364.65
898.2975	1603.4308	37214.55	36319.4
898.4398	1605.194	37277	36378.85
898.5821	1606.9564	37072.9	36184
898.7243	1608.7182	37194.85	36302.95
898.8666	1610.4791	37195.95	36309.75
899.0088	1612.2394	37226.9	36338.4
899.1511	1613.9988	37144.1	36255.3
899.2933	1615.7576	37250.6	36359.35
899.4355	1617.5156	37263.35	36365.15
899.5776	1619.2728	37335.95	36445
899.7198	1621.0293	37157.15	36262.85
899.862	1622.785	37099.4	36206.25
900.0041	1624.54	36948.2	36054.8
900.1462	1626.2942	36746.55	35855.7
900.2883	1628.0477	36416	35521.8
900.4304	1629.8005	36170.85	35275.3
900.5725	1631.5525	36218.55	35327.95
900.7145	1633.3037	35830.05	34941.55
900.8566	1635.0542	35776.25	34886.35
900.9986	1636.804	35730.75	34840.45
901.1406	1638.553	35523.85	34588.85
901.2826	1640.3013	35451.9	34560.3
901.4245	1642.0488	35176.9	34286.35
901.5665	1643.7955	35351.95	34464.2
901.7085	1645.5416	35204.75	34316.35
901.8504	1647.2868	35043.7	34153.65
901.9923	1649.0313	35182.65	34292.7
902.1342	1650.7751	35120.55	34226.55
902.2761	1652.5181	35015.45	34127.65
902.4179	1654.2604	35004.05	34115.25
902.5598	1656.0019	35013.65	34125.4
902.7016	1657.7427	35028.85	34142.55
902.8434	1659.4828	35142.85	34252.35
902.9852	1661.222	34977.35	34087.4
903.127	1662.9606	35075.25	34187.15
903.2687	1664.6984	34762.9	33872.5
903.4105	1666.4354	34703.55	33812.75
903.5522	1668.1717	34275.15	33384.1
903.6939	1669.9072	33842.1	32950.35
903.8356	1671.642	33695.85	32802.7
903.9773	1673.3761	33494.2	32604.25
904.119	1675.1094	33268.8	32380.25
904.2606	1676.8419	33021.95	32130.9
904.4022	1678.5737	32924.85	32032.95
904.5439	1680.3048	32746.4	31855.15
904.6855	1682.0351	32546.6	31655.65
904.827	1683.7646	32368.8	31475.45
904.9686	1685.4934	32350.4	31459.4
905.1101	1687.2215	32009.8	31120.2
905.2517	1688.9488	32105.65	31217.3
905.3932	1690.6754	31649.55	30759.35
905.5347	1692.4012	31746	30857.2
905.6761	1694.1263	31723.85	30832.85
905.8176	1695.8506	31524.25	30634.65
905.9591	1697.5742	31445.75	30558.6
906.1005	1699.297	31291.8	30402.25
906.2419	1701.0191	31207.55	30320.2
906.3833	1702.7404	31046.9	30160.45
906.5246	1704.461	30885.6	29992.5
906.666	1706.1808	30859.75	29968.6
906.8073	1707.8999	30765.35	29875.3
906.9487	1709.6182	30648.75	29761.2
907.09	1711.3358	30570.8	29685.05
907.2313	1713.0527	30467.35	29583.35
907.3725	1714.7688	30392.55	29499.8
907.5138	1716.4841	30192.85	29303
907.655	1718.1987	30235.05	29341.7
907.7962	1719.9126	30100.45	29213.35
907.9374	1721.6257	29968.3	29078.4
908.0786	1723.338	30014.05	29127.8
908.2198	1725.0496	29745.35	28856.4
908.3609	1726.7605	29717.9	28830.1
908.502	1728.4706	29611.45	28722.45
908.6431	1730.18	29514.9	28624.1
908.7842	1731.8886	29420.8	28533.9
908.9253	1733.5964	29312.25	28420.3
909.0664	1735.3036	29343.6	28454.95
909.2074	1737.0099	29244.5	28357.6
909.3484	1738.7156	29162.2	28277.05
909.4894	1740.4204	29034.6	28144.05
909.6304	1742.1246	28976.1	28086
909.7714	1743.8279	28954.2	28066.1
909.9123	1745.5306	28920.85	28035.35
910.0532	1747.2325	28755.45	27870.2
910.1941	1748.9336	28693.7	27809.45
910.335	1750.634	28584.95	27696.85
910.4759	1752.3336	28576.55	27689.05
910.6168	1754.0325	28494.55	27609.1
910.7576	1755.7307	28428.65	27541.95
910.8984	1757.4281	28402.45	27515.15
911.0392	1759.1247	28373.25	27477.55
911.18	1760.8206	28263.7	27368.85
911.3208	1762.5158	28194.45	27302.85
911.4615	1764.2102	28134.4	27249.25
911.6022	1765.9039	28025.35	27138.35
911.7429	1767.5968	27986.35	27102.5
911.8836	1769.289	27871.65	26984.9
912.0243	1770.9804	27848.25	26959.9
912.1649	1772.6711	27822.1	26934.75
912.3056	1774.361	27694.3	26805.9
912.4462	1776.0502	27681.15	26793.85
912.5868	1777.7386	27584.05	26693.9
912.7274	1779.4263	27472.05	26587.9
912.8679	1781.1132	27497.15	26612.7
913.0084	1782.7994	27406	26520.35
913.149	1784.4849	27356.6	26472.45
913.2895	1786.1696	27279.55	26372.5
913.4299	1787.8535	27224.45	26337.2
913.5704	1789.5367	27106.5	26222.3
913.7108	1791.2192	27152	26267.75
913.8513	1792.9009	27016.45	26101.6
913.9917	1794.5818	26995.8	26107.5
914.132	1796.2621	26847.6	25960.7
914.2724	1797.9415	26829.4	25943.25
914.4128	1799.6202	26766.6	25879.7
914.5531	1801.2982	26688.9	25801.55
914.6934	1802.9755	26663.6	25776.65
914.8337	1804.6519	26611.3	25724.45
914.9739	1806.3277	26476.7	25592.65
915.1142	1808.0027	26327.8	25443.95
915.2544	1809.6769	26338	25454.65
915.3946	1811.3504	26282.6	25397.85
915.5348	1813.0231	26247.45	25360.35
915.675	1814.6951	26236.35	25350.85
915.8151	1816.3664	26170.35	25281.65
915.9553	1818.0369	26142.4	25254.6
916.0954	1819.7067	26056.4	25172.25
916.2355	1821.3757	25998.15	25108.1
916.3755	1823.044	25964.05	25079
916.5156	1824.7115	25907	25021
916.6556	1826.3783	25803.75	24917.55
916.7956	1828.0443	25721.5	24836.25
916.9356	1829.7096	25640	24753.7
917.0756	1831.3741	25639.7	24751.1
917.2155	1833.0379	25539.65	24655.1
917.3555	1834.701	25472.35	24587.05
917.4954	1836.3633	25494.9	24610.05
917.6353	1838.0248	25414.8	24527.8
917.7751	1839.6856	25342.9	24456.6
917.915	1841.3457	25318.55	24432.25
918.0548	1843.005	25255.15	24368.9
918.1946	1844.6636	25232.6	24345.85
918.3344	1846.3214	25112.55	24223.9
918.4742	1847.9785	25134.75	24247.5
918.6139	1849.6349	25068	24180.1
918.7537	1851.2904	24975.9	24080.3
918.8934	1852.9453	24952.85	24065.45
919.0331	1854.5994	24848.85	23960
919.1727	1856.2528	24870.05	23975.6
919.3124	1857.9054	24774.3	23886.4
919.452	1859.5572	24741.65	23856.7
919.5916	1861.2083	24722.9	23834.35
919.7312	1862.8587	24701.35	23814.6
919.8708	1864.5084	24637.3	23750.9
920.0103	1866.1572	24601.6	23717.65
920.1498	1867.8054	24454.75	23567.6
920.2893	1869.4528	24461.2	23575.35
920.4288	1871.0994	24363.85	23474.7
920.5683	1872.7453	24318.7	23430.5
920.7077	1874.3905	24243.5	23352.85
920.8471	1876.0349	24188.45	23299.5
920.9865	1877.6786	24161.5	23272.85
921.1259	1879.3215	24166.85	23280.8
921.2653	1880.9637	24072.35	23186.25
921.4046	1882.6051	24045.45	23160.8
921.5439	1884.2458	23964.65	23078
921.6832	1885.8858	23894.6	23008.65
921.8225	1887.525	23839.85	22954.65
921.9617	1889.1634	23735.65	22851.15
922.101	1890.8011	23672.4	22785.5
922.2402	1892.4381	23656.95	22770.8
922.3794	1894.0743	23606.8	22718.9
922.5185	1895.7098	23576.15	22690.5
922.6577	1897.3446	23514.2	22626.25
922.7968	1898.9786	23455	22565.55
922.9359	1900.6118	23351.05	22465.4
923.075	1902.2443	23252.75	22364.45
923.214	1903.8761	23219.5	22335.75
923.3531	1905.5071	23105.4	22218.15
923.4921	1907.1374	23048.7	22162.5
923.6311	1908.7669	23037.55	22151.75
923.77	1910.3957	22975.9	22090
923.909	1912.0237	22820.25	21934.15
924.0479	1913.651	22812.1	21924.7
924.1868	1915.2776	22752.65	21866.9
924.3257	1916.9034	22683.5	21797.2
924.4646	1918.5285	22580.3	21696.9
924.6034	1920.1528	22468.1	21582.95
924.7422	1921.7764	22433.8	21549.5
924.881	1923.3992	22343.55	21459
925.0198	1925.0213	22214.55	21329.7
925.1586	1926.6427	22163.2	21279.05
925.2973	1928.2633	22298.8	21169.1
925.436	1929.8832	22085.35	21195.35
925.5747	1931.5023	21934.9	21050.8
925.7134	1933.1207	21915.3	21028.35
925.852	1934.7383	21856.7	20971.65
925.9906	1936.3552	21793.8	20910.3
926.1292	1937.9714	21720.25	20835
926.2678	1939.5868	21669.2	20780.25
926.4064	1941.2015	21542.2	20654.1
926.5449	1942.8154	21477.85	20590.8
926.6834	1944.4286	21417.1	20530.5
926.8219	1946.041	21339.15	20430
926.9604	1947.6528	21214.65	20325.45
927.0988	1949.2637	21188.1	20303.6
927.2372	1950.8739	21128.75	20242.5
927.3756	1952.4834	21079.7	20193.9
927.514	1954.0921	21027.6	20140.85
927.6523	1955.7001	20921.6	20032.75
927.7907	1957.3074	20883.75	19999.6
927.929	1958.9139	20814	19929.7
928.0673	1960.5197	20742.6	19856.9
928.2055	1962.1247	20652.55	19766.05
928.3438	1963.729	20543.7	19661
928.482	1965.3325	20498.9	19595.25
928.6202	1966.9353	20448.25	19567
928.7584	1968.5374	20397.7	19513.55
928.8965	1970.1387	20361.85	19477.7
929.0346	1971.7393	20280.1	19394.75
929.1727	1973.3392	20193.95	19309.8
929.3108	1974.9383	20121.05	19238.1
929.4489	1976.5366	19983.75	19101.05
929.5869	1978.1342	20024.55	19140.25
929.7249	1979.7311	19974.25	19089.85
929.8629	1981.3273	19894.55	19009.65
930.0009	1982.9227	19847.6	18962.05
930.1388	1984.5173	19743.55	18861.5
930.2767	1986.1112	19673.85	18790.15
930.4146	1987.7044	19618.65	18735.25
930.5525	1989.2968	19589.65	18706.5
930.6904	1990.8885	19540.4	18652.9
930.8282	1992.4795	19524.8	18640.55
930.966	1994.0697	19440.55	18558.05
931.1038	1995.6592	19346.5	18465.6
931.2415	1997.2479	19295.45	18411.9
931.3793	1998.8359	19291.15	18409.45
931.517	2000.4232	19169.15	18289.1
931.6547	2002.0097	19125.15	18244.8
931.7923	2003.5955	19013.55	18132.95
931.93	2005.1805	19029.5	18146.15
932.0676	2006.7648	18981.25	18101.35
932.2052	2008.3484	18892.25	18010.95
932.3427	2009.9312	18921.1	18038.8
932.4803	2011.5133	18799.85	17920.7
932.6178	2013.0946	18752.8	17871.5
932.7553	2014.6752	18722.85	17843.2
932.8928	2016.2551	18701.3	17820.05
933.0302	2017.8342	18601.7	17722.2
933.1676	2019.4126	18509.15	17629.75
933.305	2020.9902	18442.65	17562.5
933.4424	2022.5672	18455.1	17576.1
933.5798	2024.1433	18377.2	17492
933.7171	2025.7188	18297.05	17416.95
933.8544	2027.2935	18281.1	17398.55
933.9917	2028.8674	18223.55	17343.05
934.129	2030.4406	18160.6	17280.85
934.2662	2032.0131	18062.15	17182.3
934.4034	2033.5849	18023.4	17137.85
934.5406	2035.1559	17965.95	17085.35
934.6778	2036.7261	17945.95	17065.35
934.8149	2038.2957	17921.7	17037.9
934.952	2039.8645	17889.15	17007.25
935.0891	2041.4325	17878.6	16991.75
935.2262	2042.9998	17780.4	16898.65
935.3632	2044.5664	17724.4	16841.95
935.5002	2046.1323	17649.7	16769.05
935.6372	2047.6974	17651.7	16771.85
935.7742	2049.2617	17568.15	16688.7
935.9111	2050.8254	17546.7	16661.5
936.048	2052.3883	17540.7	16658.2
936.1849	2053.9504	17479.2	16595.5
936.3218	2055.5118	17431.45	16549.2
936.4586	2057.0725	17325.65	16439.75
936.5955	2058.6325	17318.05	16434.1
936.7323	2060.1917	17232.35	16352.6
936.869	2061.7502	17198.05	16313.55
937.0058	2063.3079	17162.05	16281.35
937.1425	2064.8649	17105	16222.05
937.2792	2066.4212	17050.25	16170.4
937.4159	2067.9767	17027.1	16143.3
937.5525	2069.5315	16965.7	16085.15
937.6891	2071.0856	16908.65	16025.65
937.8257	2072.6389	16812.75	15931.95
937.9623	2074.1915	16761.2	15883.4
938.0989	2075.7433	16660.55	15777.4
938.2354	2077.2945	16624.55	15745.15
938.3719	2078.8448	16610.9	15730.05
938.5084	2080.3945	16524	15642.15
938.6448	2081.9434	16526.95	15644.45
938.7812	2083.4916	16456.6	15573
938.9176	2085.039	16393	15508.65
939.054	2086.5857	16392.75	15506.8
939.1903	2088.1317	16360.6	15478.25
939.3267	2089.677	16267.05	15381.2
939.463	2091.2215	16231.45	15347.45
939.5992	2092.7652	16217.45	15331.05
939.7355	2094.3083	16178.3	15292.1
939.8717	2095.8506	16177.75	15296.6
940.0079	2097.3921	16155.8	15271.7
940.1441	2098.933	16089.9	15207.4
940.2802	2100.4731	16018.45	15136.2
940.4163	2102.0124	16002.85	15104.15
940.5524	2103.5511	15982.45	15100.05
940.6885	2105.089	15946.75	15064.05
940.8245	2106.6261	15914.15	15030.9
940.9606	2108.1626	15883.95	14998.7
941.0965	2109.6983	15873.55	14962.6
941.2325	2111.2332	15793.1	14909.5
941.3684	2112.7675	15724.7	14840.5
941.5044	2114.301	15704.6	14821
941.6403	2115.8337	15667.25	14784.4
941.7761	2117.3657	15607.3	14726.1
941.912	2118.897	15601.65	14718.65
942.0478	2120.4276	15516.5	14626.8
942.1835	2121.9575	15470.55	14587.9
942.3193	2123.4866	15471.9	14571.95
942.455	2125.0149	15450.2	14562.5
942.5907	2126.5426	15321.15	14437.1
942.7264	2128.0695	15326.7	14442.2
942.8621	2129.5956	15275.35	14396.25
942.9977	2131.1211	15271.8	14384.55
943.1333	2132.6458	15228.65	14347.5
943.2689	2134.1698	15158.6	14274.65
943.4044	2135.693	15134.55	14247.7
943.54	2137.2155	15083.55	14199.25
943.6755	2138.7373	15069.9	14185.85
943.8109	2140.2584	15023.55	14143.5
943.9464	2141.7787	14965.45	14078.5
944.0818	2143.2983	14900.45	14020.55
944.2172	2144.8171	14809.95	13930
944.3526	2146.3353	14816.75	13933.4
944.4879	2147.8527	14739.75	13858
944.6232	2149.3693	14736.55	13852.65
944.7585	2150.8853	14657.35	13774.55
944.8938	2152.4005	14627.5	13742.4
945.029	2153.9149	14597.35	13714.05
945.1642	2155.4287	14552.85	13669.6
945.2994	2156.9417	14544.15	13660.75
945.4346	2158.454	14485.55	13602.1
945.5697	2159.9655	14443.1	13560.6
945.7048	2161.4764	14420.9	13536.75
945.8399	2162.9865	14339.05	13457.7
945.9749	2164.4958	14298	13415.85
946.1099	2166.0045	14261.4	13375.45
946.2449	2167.5124	14249.9	13368.2
946.3799	2169.0195	14207.4	13324.4
946.5148	2170.526	14184.55	13300.8
946.6498	2172.0317	14152	13269.95
946.7846	2173.5367	14080.5	13197.75
946.9195	2175.0409	14083.5	13201.3
947.0543	2176.5445	14071.05	13188.2
947.1891	2178.0473	14014.15	13128.75
947.3239	2179.5494	13929	13044.2
947.4587	2181.0507	13894.2	13011.45
947.5934	2182.5513	13869.4	12987.65
947.7281	2184.0512	13831.85	12948.3
947.8628	2185.5504	13800.65	12917.4
947.9974	2187.0488	13697.25	12814.4
948.132	2188.5465	13693.95	12809.85
948.2666	2190.0435	13627.55	12747.7
948.4012	2191.5397	13577.4	12696.6
948.5357	2193.0353	13514.95	12631.75
948.6702	2194.5301	13504.55	12618.5
948.8047	2196.0241	13425.95	12541.5
948.9392	2197.5175	13408.1	12524.7
949.0736	2199.0101	13356.35	12469.3
949.208	2200.502	13317.45	12433.35
949.3424	2201.9931	13238.45	12356.45
949.4767	2203.4835	13193.8	12309.5
949.611	2204.9733	13168.85	12278.75
949.7453	2206.4622	13145.5	12266.5
949.8796	2207.9505	13107.15	12222.7
950.0138	2209.438	13028.7	12149.2
950.148	2210.9248	12991.95	12107.5
950.2822	2212.4109	12954.4	12070.3
950.4164	2213.8962	12900.6	12014.75
950.5505	2215.3809	12892.85	12007.8
950.6846	2216.8648	12863	11978.6
950.8186	2218.3479	12820.4	11930.7
950.9527	2219.8304	12769.9	11882.9
951.0867	2221.3121	12713.65	11829.1
951.2207	2222.7931	12688.8	11804.65
951.3546	2224.2733	12664	11780.15
951.4886	2225.7529	12624.75	11743.05
951.6225	2227.2317	12570.75	11685.1
951.7563	2228.7098	12514.5	11632.65
951.8902	2230.1872	12491	11610.2
952.024	2231.6638	12492.95	11610.7
952.1578	2233.1397	12445.65	11558.2
952.2916	2234.6149	12394.05	11511.45
952.4253	2236.0894	12348	11465.15
952.559	2237.5632	12344.9	11453.15
952.6927	2239.0362	12272.7	11390.75
952.8263	2240.5085	12212.5	11329.75
952.9599	2241.9801	12167.8	11283.85
953.0935	2243.4509	12148.55	11264.25
953.2271	2244.921	12098.55	11212.4
953.3606	2246.3904	12094.6	11207.95
953.4941	2247.8591	12048.3	11163.15
953.6276	2249.3271	12010.15	11127.7
953.7611	2250.7943	11952.65	11069.8
953.8945	2252.2608	11922.55	11038.95
954.0279	2253.7266	11869.2	10985.35
954.1612	2255.1917	11832.45	10948.3
954.2946	2256.656	11800.4	10917.1
954.4279	2258.1197	11768.8	10886.45
954.5612	2259.5826	11784.05	10900.05
954.6944	2261.0447	11724.55	10840.4
954.8276	2262.5062	11674.2	10788.75
954.9608	2263.9669	11659.1	10772.8
955.094	2265.4269	11633.05	10751
955.2271	2266.8862	11579.25	10695
955.3602	2268.3448	11567.15	10683.15
955.4933	2269.8026	11574.25	10692.1
955.6264	2271.2598	11537.4	10655
955.7594	2272.7162	11453.1	10571.05
955.8924	2274.1719	11463.55	10580.55
956.0253	2275.6268	11411.7	10528.3
956.1583	2277.0811	11389.15	10504.4
956.2912	2278.5346	11346.85	10464.55
956.4241	2279.9874	11319.55	10436.6
956.5569	2281.4395	11306.7	10424.75
956.6897	2282.8908	11264.1	10375.1
956.8225	2284.3414	11257.1	10370.9
956.9553	2285.7914	11191.05	10308.8
957.088	2287.2406	11167.9	10282.75
957.2207	2288.689	11143.05	10259.95
957.3534	2290.1368	11121.6	10234.8
957.486	2291.5838	11072.05	10185.5
957.6186	2293.0302	11061.4	10174.2
957.7512	2294.4758	10979.7	10096.8
957.8838	2295.9206	10951.05	10064.55
958.0163	2297.3648	10931.25	10048.2
958.1488	2298.8082	10917.95	10033.15
958.2813	2300.251	10868.95	9987.75
958.4137	2301.693	10835.15	9949.35
958.5461	2303.1343	10828.1	9942
958.6785	2304.5748	10784.85	9901.95
958.8108	2306.0147	10746.95	9863.55
958.9432	2307.4538	10735	9850.55
959.0754	2308.8922	10685.6	9804.6
959.2077	2310.3299	10661.1	9778.35
959.3399	2311.7669	10614.15	9731.95
959.4721	2313.2031	10594.1	9708.5
959.6043	2314.6387	10545.6	9663.05
959.7365	2316.0735	10534.9	9651.95
959.8686	2317.5076	10506	9623.25
960.0006	2318.941	10457.2	9571.25
960.1327	2320.3737	10440.55	9556.85
960.2647	2321.8056	10422.75	9535.4
960.3967	2323.2369	10402.65	9518.75
960.5287	2324.6674	10375.8	9490.2
960.6606	2326.0972	10320.15	9435.9
960.7925	2327.5263	10266.05	9383.4
960.9244	2328.9547	10270.85	9387
961.0562	2330.3823	10227.05	9341.15
961.1881	2331.8092	10232.2	9343.05
961.3198	2333.2355	10175.6	9291.65
961.4516	2334.661	10168.2	9283.7
961.5833	2336.0858	10116.1	9229.7
961.715	2337.5098	10116.75	9231.6
961.8467	2338.9332	10071.6	9186.2
961.9783	2340.3558	10022.4	9134.7
962.1099	2341.7778	10014.6	9132.35
962.2415	2343.199	9983.55	9098.2
962.373	2344.6195	9964.2	9080.7
962.5045	2346.0393	9932.3	9050.5
962.636	2347.4583	9897.6	9014.3
962.7675	2348.8767	9868.35	8983.45
962.8989	2350.2943	9861.15	8976.5
963.0303	2351.7113	9841.85	8955
963.1617	2353.1275	9764.6	8876.1
963.293	2354.543	9779.9	8886.75
963.4243	2355.9578	9713.8	8829.5
963.5556	2357.3718	9670.2	8786.7
963.6868	2358.7852	9666.5	8781.65
963.818	2360.1978	9623	8737.55
963.9492	2361.6098	9594.65	8712.65
964.0803	2363.021	9576.55	8688.55
964.2114	2364.4315	9544.8	8660.9
964.3425	2365.8413	9539.7	8653.6
964.4736	2367.2504	9477.5	8594.65
964.6046	2368.6587	9426	8543.65
964.7356	2370.0664	9403.5	8521.85
964.8666	2371.4733	9367.05	8482.45
964.9975	2372.8795	9332.3	8449.55
965.1284	2374.285	9296.85	8414.05
965.2593	2375.6899	9252.55	8370
965.3901	2377.0939	9208.6	8324
965.5209	2378.4973	9205.85	8322.5
965.6517	2379.9	9163.15	8280.8
965.7825	2381.3019	9156.75	8273.1
965.9132	2382.7032	9121.05	8239
966.0439	2384.1037	9127.3	8245.95
966.1745	2385.5035	9068.5	8187.25
966.3051	2386.9027	9047.05	8163
966.4357	2388.3011	9036.9	8151.15
966.5663	2389.6987	8986.95	8103.65
966.6968	2391.0957	8969.4	8087.65
966.8273	2392.492	8919.95	8039
966.9578	2393.8876	8886.45	8000.7
967.0882	2395.2824	8849.15	7967.95
967.2186	2396.6765	8824.95	7940.05
967.349	2398.07	8794.75	7911.8
967.4793	2399.4627	8755.95	7869.2
967.6097	2400.8547	8744.2	7858.65
967.7399	2402.246	8712.05	7823.25
967.8702	2403.6366	8668.75	7786.3
968.0004	2405.0265	8638.2	7756.15
968.1306	2406.4156	8602.75	7715.7
968.2607	2407.8041	8577.9	7692.25
968.3909	2409.1918	8538.15	7651.15
968.521	2410.5789	8519.25	7634.95
968.651	2411.9652	8482.9	7596.5
968.781	2413.3508	8451	7568.4
968.911	2414.7358	8416.15	7530.4
969.041	2416.12	8388.2	7505.3
969.1709	2417.5035	8385.25	7503.65
969.3008	2418.8863	8338.3	7453.15
969.4307	2420.2684	8330.05	7446.5
969.5606	2421.6497	8288.95	7404.8
969.6904	2423.0304	8252.8	7369.85
969.8201	2424.4104	8229.15	7343.5
969.9499	2425.7896	8186.35	7300
970.0796	2427.1682	8158.55	7276.75
970.2093	2428.546	8130.8	7248.15
970.3389	2429.9232	8118.6	7233.65
970.4685	2431.2996	8107	7223.85
970.5981	2432.6753	8097.15	7215
970.7277	2434.0503	8056.45	7171.35
970.8572	2435.4246	8036.4	7152.35
970.9867	2436.7982	8002.4	7116.95
971.1161	2438.1711	7990	7109.05
971.2456	2439.5433	7961.8	7076.7
971.375	2440.9148	7932.2	7043.5
971.5043	2442.2856	7891.9	7009.2
971.6336	2443.6557	7869.65	6984.05
971.7629	2445.025	7836.8	6952.7
971.8922	2446.3937	7840.25	6955.3
972.0214	2447.7617	7798.4	6913.4
972.1506	2449.1289	7791.6	6905.6
972.2798	2450.4955	7765.75	6877.5
972.4089	2451.8613	7748.4	6867.25
972.538	2453.2265	7725.5	6840.55
972.6671	2454.5909	7705.65	6820.95
972.7961	2455.9546	7688	6804.85
972.9251	2457.3177	7660.9	6778
973.0541	2458.68	7633.75	6748.65
973.1831	2460.0416	7626	6741.95
973.312	2461.4025	7597.75	6714.25
973.4408	2462.7627	7586.95	6693.1
973.5697	2464.1222	7568.45	6684.65
973.6985	2465.4811	7547.25	6662.65
973.8273	2466.8392	7521.05	6636.45
973.956	2468.1966	7512.35	6627.65
974.0847	2469.5533	7488.4	6603.4
974.2134	2470.9093	7469	6582.55
974.3421	2472.2645	7436.05	6550.2
974.4707	2473.6191	7425.7	6542.6
974.5993	2474.973	7387.2	6502.15
974.7278	2476.3262	7403.9	6517.5
974.8563	2477.6787	7355.05	6471.25
974.9848	2479.0305	7308.8	6426.3
975.1132	2480.3816	7272	6385.75
975.2417	2481.7319	7261.25	6379.4
975.37	2483.0816	7254.6	6371.35
975.4984	2484.4306	7192.1	6306.95
975.6267	2485.7789	7174.45	6292.9
975.755	2487.1264	7164.95	6281.75
975.8833	2488.4733	7161.25	6279.05
976.0115	2489.8195	7119.75	6229.9
976.1397	2491.165	7083.8	6195.3
976.2678	2492.5097	7064	6180
976.3959	2493.8538	7023.3	6141.1
976.524	2495.1972	7012.45	6130.15
976.6521	2496.5398	6990.6	6106.9
976.7801	2497.8818	6968.35	6082.7
976.9081	2499.2231	6928.25	6045.05
977.036	2500.5637	6929.35	6045.3
977.164	2501.9035	6899.15	6014.3
977.2918	2503.2427	6894.15	6006.4
977.4197	2504.5812	6870.6	5986.35
977.5475	2505.919	6839.9	5953.65
977.6753	2507.256	6816.55	5932.4
977.8031	2508.5924	6799.1	5916.35
977.9308	2509.9281	6779.9	5892.55
978.0585	2511.2631	6761.75	5878.05
978.1861	2512.5974	6739.55	5856.15
978.3137	2513.9309	6722.6	5837.95
978.4413	2515.2638	6707	5795
978.5689	2516.596	6670.4	5788.95
978.6964	2517.9275	6653.2	5767.5
978.8239	2519.2583	6626.35	5744.8
978.9513	2520.5884	6587.65	5702.6
979.0788	2521.9178	6590.4	5705.55
979.2062	2523.2465	6563.7	5681.3
979.3335	2524.5745	6546.55	5661.25
979.4608	2525.9018	6527.3	5642.35
979.5881	2527.2284	6503.65	5621.45
979.7154	2528.5543	6493.25	5609.6
979.8426	2529.8796	6476.75	5594.5
979.9698	2531.2041	6464.9	5581.55
980.0969	2532.5279	6438.4	5555.3
980.224	2533.851	6419.45	5537.15
980.3511	2535.1735	6436.1	5551.95
980.4781	2536.4952	6396.45	5513.75
980.6052	2537.8163	6382.65	5497.4
980.7321	2539.1366	6351.95	5469.8
980.8591	2540.4562	6347.4	5462.1
980.986	2541.7752	6340.85	5454.95
981.1129	2543.0935	6326.95	5439.75
981.2397	2544.411	6312.85	5427.95
981.3665	2545.7279	6291.5	5405.65
981.4933	2547.0441	6281.9	5397.6
981.62	2548.3596	6288.1	5402.4
981.7467	2549.6744	6251.85	5367.3
981.8734	2550.9885	6249.15	5357.7
982.0001	2552.3019	6208.4	5326
982.1267	2553.6146	6209.95	5327.35
982.2532	2554.9266	6176.1	5290.7
982.3798	2556.2379	6155.85	5271.65
982.5063	2557.5485	6159	5276.45
982.6327	2558.8585	6143.15	5254.85
982.7592	2560.1677	6137.6	5251.15
982.8856	2561.4762	6119.2	5234.35
983.0119	2562.7841	6101.45	5215.1
983.1383	2564.0913	6102.95	5219.55
983.2646	2565.3977	6082.7	5199.7
983.3908	2566.7035	6038.95	5155.6
983.517	2568.0086	6060.1	5175.4
983.6432	2569.313	6043.65	5159.05
983.7694	2570.6167	6035.2	5146.8
983.8955	2571.9197	6010.05	5125.95
984.0216	2573.222	6004.95	5117.45
984.1476	2574.5236	5993.5	5109.05
984.2737	2575.8246	5975.55	5087.8
984.3996	2577.1248	5960.05	5073.45
984.5256	2578.4244	5952.65	5068.15
984.6515	2579.7232	5955.35	5071.45
984.7774	2581.0214	5963.65	5054.4
984.9032	2582.3189	5918.25	5035.5
985.029	2583.6157	5887.55	4996.65
985.1548	2584.9118	5888	5004.35
985.2806	2586.2072	5874.3	4990.4
985.4063	2587.5019	5861.4	4979.65
985.5319	2588.7959	5849.05	4963.05
985.6576	2590.0893	5846.65	4962.9
985.7832	2591.3819	5813.8	4930.1
985.9087	2592.6739	5789	4905.85
986.0343	2593.9652	5789	4902.85
986.1597	2595.2557	5763.95	4880.35
986.2852	2596.5456	5733.8	4848.65
986.4106	2597.8348	5709.8	4826.25
986.536	2599.1234	5681.95	4798.25
986.6614	2600.4112	5688.55	4805.35
986.7867	2601.6983	5674.6	4788.25
986.912	2602.9848	5653	4769.95
987.0372	2604.2705	5628.9	4736.65
987.1624	2605.5556	5606.6	4722.6
987.2876	2606.84	5620.05	4737.4
987.4128	2608.1237	5582.75	4698.4
987.5379	2609.4067	5552.45	4668.05
987.6629	2610.689	5536.9	4644.85
987.788	2611.9707	5513.75	4627.4
987.913	2613.2516	5501.45	4614.75
988.0379	2614.5319	5478.45	4594.9
988.1629	2615.8115	5465.7	4580.9
988.2878	2617.0903	5433.35	4547.35
988.4126	2618.3685	5428.45	4544.85
988.5375	2619.6461	5403.4	4519.9
988.6622	2620.9229	5390.2	4507.95
988.787	2622.199	5371.4	4487.85
988.9117	2623.4745	5366.85	4483.45
989.0364	2624.7493	5360.4	4478.55
989.161	2626.0234	5321	4438.35
989.2857	2627.2968	5307	4423.15
989.4102	2628.5695	5280.75	4395.6
989.5348	2629.8415	5240.55	4358.65
989.6593	2631.1128	5256.5	4370.6
989.7837	2632.3835	5210.55	4327.65
989.9082	2633.6535	5199.4	4313.6
990.0326	2634.9228	5189.1	4308.25
990.1569	2636.1914	5165.5	4282.65
990.2812	2637.4593	5151.3	4263
990.4055	2638.7265	5152.25	4268.5
990.5298	2639.9931	5126.8	4243.6
990.654	2641.259	5115.75	4230.6
990.7782	2642.5242	5111.8	4228.35
990.9023	2643.7887	5100.4	4216.8
991.0264	2645.0525	5074	4191.75
991.1505	2646.3156	5062.85	4177.85
991.2745	2647.5781	5062.8	4183.05
991.3985	2648.8398	5023.35	4141.95
991.5225	2650.1009	5014.95	4124.55
991.6464	2651.3613	5012.3	4128.75
991.7703	2652.6211	4977.65	4094
991.8942	2653.8801	4965.05	4082.1
992.018	2655.1385	4963.8	4075.05
992.1418	2656.3961	4947.85	4065.35
992.2655	2657.6531	4952.8	4068.4
992.3892	2658.9094	4940.7	4059.1
992.5129	2660.1651	4920.95	4040
992.6366	2661.42	4915.7	4032.9
992.7602	2662.6743	4920.4	4036.45
992.8837	2663.9279	4885.65	4003.7
993.0073	2665.1808	4866.3	3983.05
993.1307	2666.433	4869.4	3985.05
993.2542	2667.6846	4835	3951
993.3776	2668.9354	4837.5	3952.5
993.501	2670.1856	4826.25	3941.55
993.6244	2671.4351	4802.55	3922
993.7477	2672.6839	4812.2	3928.2
993.8709	2673.9321	4787.25	3903.8
993.9942	2675.1795	4761.4	3877.95
994.1174	2676.4263	4732.7	3848.45
994.2405	2677.6724	4744.25	3861.65
994.3637	2678.9179	4731.75	3847.5
994.4868	2680.1626	4732.3	3850.45
994.6098	2681.4067	4725.95	3842.75
994.7328	2682.6501	4703.65	3820.6
994.8558	2683.8928	4671.05	3788.3
994.9788	2685.1348	4659.5	3778.95
995.1017	2686.3761	4650.6	3767.65
995.2245	2687.6168	4630.05	3744.9
995.3474	2688.8568	4611.9	3728.3
995.4702	2690.0961	4599.65	3717.6
995.5929	2691.3348	4584.2	3699.45
995.7156	2692.5727	4573.7	3689.35
995.8383	2693.81	4564.8	3681.9
995.961	2695.0466	4536.4	3655.95
996.0836	2696.2826	4538.4	3654.35
996.2062	2697.5178	4561.65	3657.1
996.3287	2698.7524	4520.75	3638.6
996.4512	2699.9863	4506.1	3620.25
996.5737	2701.2195	4500.55	3618.35
996.6961	2702.452	4475.6	3592.45
996.8185	2703.6839	4468.55	3584.05
996.9408	2704.9151	4455.65	3575.05
997.0631	2706.1456	4443.3	3559.7
997.1854	2707.3755	4430.9	3546.45
997.3077	2708.6046	4437.6	3552.45
997.4299	2709.8331	4425.85	3543.5
997.552	2711.0609	4404.45	3521.9
997.6742	2712.2881	4383.95	3499.7
997.7963	2713.5145	4374.5	3491.4
997.9183	2714.7403	4365	3483.15
998.0403	2715.9654	4360.4	3476.55
998.1623	2717.1899	4354.1	3470.65
998.2842	2718.4136	4332.85	3450.65
998.4062	2719.6367	4327.15	3444.05
998.528	2720.8591	4306.2	3415.1
998.6498	2722.0809	4304.45	3423.75
998.7716	2723.3019	4295.75	3409.65
998.8934	2724.5223	4278.1	3394.55
999.0151	2725.7421	4274.05	3388.15
999.1368	2726.9611	4275.3	3391.8
999.2584	2728.1795	4254.95	3368
999.38	2729.3972	4233.9	3351.4
999.5016	2730.6142	4221.45	3335.35
999.6231	2731.8306	4199.15	3315.1
999.7446	2733.0462	4167.8	3283.5
999.8661	2734.2612	4156.05	3268.55
999.9875	2735.4756	4124.9	3240.6
1000.1089	2736.6892	4132.45	3250.05
1000.2302	2737.9022	4081.5	3199.75
1000.3515	2739.1145	4076.25	3195.2
1000.4728	2740.3262	4077.3	3185.9
1000.594	2741.5372	4053.15	3170.5
1000.7152	2742.7475	4028.75	3145.65
1000.8363	2743.9571	4015.35	3129.7
1000.9575	2745.1661	4028.25	3138.6
1001.0785	2746.3744	3995.6	3111.85
1001.1996	2747.582	3977.2	3096.45
1001.3206	2748.7889	3978.8	3094.55
1001.4415	2749.9952	3945.15	3063.4
1001.5625	2751.2008	3925.5	3042.2
1001.6833	2752.4057	3930.45	3044.45
1001.8042	2753.61	3902.1	3017.7
1001.925	2754.8136	3909.1	3023.35
1002.0458	2756.0165	3887.65	3006.3
1002.1665	2757.2188	3880.1	2999.1
1002.2872	2758.4204	3866.6	2985.8
1002.4078	2759.6213	3856.55	2971.7
1002.5285	2760.8215	3846.1	2960.65
1002.649	2762.0211	3838.95	2955.75
1002.7696	2763.22	3811.25	2925.05
1002.8901	2764.4182	3814.9	2931.8
1003.0106	2765.6158	3800.35	2917.7
1003.131	2766.8127	3792.65	2908.85
1003.2514	2768.009	3784.7	2905.05
1003.3717	2769.2045	3770.1	2889
1003.492	2770.3994	3763.25	2879.45
1003.6123	2771.5936	3743.15	2860.9
1003.7325	2772.7872	3725.2	2843.2
1003.8527	2773.9801	3714.85	2830.1
1003.9729	2775.1723	3725.15	2824.75
1004.093	2776.3639	3701.2	2819
1004.2131	2777.5548	3684.8	2799.85
1004.3331	2778.745	3677.35	2794.45
1004.4531	2779.9346	3667.55	2783.9
1004.5731	2781.1235	3653.25	2770.3
1004.693	2782.3117	3656.5	2774.45
1004.8129	2783.4992	3641.5	2759.75
1004.9328	2784.6861	3632.5	2750.45
1005.0526	2785.8723	3630.05	2747.7
1005.1723	2787.0579	3613.5	2731.2
1005.2921	2788.2428	3610.6	2727.5
1005.4118	2789.427	3572.4	2691.75
1005.5314	2790.6106	3585.3	2703.75
1005.651	2791.7935	3574.4	2691.85
1005.7706	2792.9757	3572.35	2692.8
1005.8902	2794.1573	3552.45	2668.05
1006.0097	2795.3382	3545.1	2663.6
1006.1291	2796.5184	3542.7	2662.65
1006.2485	2797.698	3521.25	2636.35
1006.3679	2798.8769	3543.9	2663.55
1006.4873	2800.0551	3519.75	2637.3
1006.6066	2801.2327	3523.35	2641.6
1006.7258	2802.4096	3505.35	2623.3
1006.8451	2803.5859	3499	2618
1006.9642	2804.7615	3504.1	2619.7
1007.0834	2805.9364	3496.55	2616.35
1007.2025	2807.1106	3490.2	2610.25
1007.3216	2808.2842	3497.2	2614.95
1007.4406	2809.4572	3508.9	2626.95
1007.5596	2810.6294	3500.8	2618.95
1007.6785	2811.801	3510.6	2627.5
1007.7975	2812.972	3518.45	2636.6
1007.9163	2814.1423	3526.45	2645.55
1008.0352	2815.3119	3519.4	2637.45
1008.154	2816.4808	3536.8	2656.3
1008.2727	2817.6491	3549.35	2667.35
1008.3914	2818.8167	3569.05	2689.9
1008.5101	2819.9837	3595.8	2710.75
1008.6288	2821.15	3603	2720.75
1008.7474	2822.3157	3611.8	2733
1008.8659	2823.4807	3632.05	2748.9
1008.9844	2824.645	3639.9	2757.35
1009.1029	2825.8086	3658.5	2775.25
1009.2214	2826.9716	3672.9	2791.35
1009.3398	2828.134	3699.45	2819.9
1009.4581	2829.2957	3713	2830.7
1009.5764	2830.4567	3725.5	2843.85
1009.6947	2831.617	3718.05	2836.85
1009.813	2832.7767	3714.9	2833.45
1009.9312	2833.9358	3706.2	2825.95
1010.0493	2835.0941	3704.7	2823.1
1010.1675	2836.2519	3695.6	2813.75
1010.2855	2837.4089	3675.55	2793.85
1010.4036	2838.5653	3663.85	2783.35
1010.5216	2839.7211	3652.55	2770.85
1010.6396	2840.8761	3657.45	2775.7
1010.7575	2842.0306	3650.55	2769.45
1010.8754	2843.1843	3637.05	2756.3
1010.9932	2844.3374	3656.55	2774.85
1011.111	2845.4899	3669.3	2788.85
1011.2288	2846.6417	3694	2813.95
1011.3465	2847.7928	3705.1	2826.2
1011.4642	2848.9433	3714.1	2832.95
1011.5818	2850.0931	3735.95	2854.35
1011.6995	2851.2422	3762.1	2877.85
1011.817	2852.3907	3789.65	2906.1
1011.9345	2853.5385	3789.2	2906.4
1012.052	2854.6857	3819.55	2927.65
1012.1695	2855.8323	3829	2948.15
1012.2869	2856.9781	3827	2946.65
1012.4042	2858.1233	3850.5	2969.55
1012.5216	2859.2679	3860.3	2979.85
1012.6389	2860.4118	3878.7	2996.5
1012.7561	2861.555	3890.5	3003.1
1012.8733	2862.6976	3896.9	3015.7
1012.9905	2863.8395	3901.5	3020.15
1013.1076	2864.9808	3903.05	3023.3
1013.2247	2866.1214	3909.1	3029.1
1013.3417	2867.2614	3931.85	3050.05
1013.4587	2868.4007	3893.05	3010.85
1013.5757	2869.5393	3900.15	3017.4
1013.6926	2870.6773	3902.8	3018.2
1013.8095	2871.8146	3897.15	3011.45
1013.9263	2872.9513	3887	3002.4
1014.0431	2874.0874	3875.8	2994.3
1014.1599	2875.2227	3844.6	2961.35
1014.2766	2876.3574	3840.05	2960.15
1014.3933	2877.4915	3832	2952.1
1014.51	2878.6249	3807.25	2926.2
1014.6266	2879.7577	3780.8	2898.65
1014.7431	2880.8898	3780.1	2892.95
1014.8596	2882.0212	3762.75	2883.65
1014.9761	2883.152	3745.25	2863.9
1015.0925	2884.2821	3737.35	2856.65
1015.2089	2885.4116	3720.35	2839.25
1015.3253	2886.5405	3702.15	2821.35
1015.4416	2887.6686	3717.95	2833.35
1015.5579	2888.7962	3698.25	2821.15
1015.6741	2889.923	3706.15	2825.55
1015.7903	2891.0493	3693.25	2814.25
1015.9065	2892.1748	3685.95	2805.1
1016.0226	2893.2997	3680.25	2799.85
1016.1387	2894.424	3674.8	2793.85
1016.2547	2895.5476	3667	2786
1016.3707	2896.6706	3681.45	2798.7
1016.4866	2897.7929	3683.85	2802.2
1016.6025	2898.9145	3687.7	2808.35
1016.7184	2900.0355	3680	2800.75
1016.8342	2901.1559	3675.55	2794.35
1016.95	2902.2756	3680.75	2800.55
1017.0658	2903.3946	3698	2817
1017.1815	2904.513	3701.15	2815.35
1017.2971	2905.6308	3709.9	2831.25
1017.4127	2906.7479	3698.3	2815.3
1017.5283	2907.8643	3713.55	2833.9
1017.6439	2908.9801	3697.85	2816.7
1017.7594	2910.0953	3692.95	2812.55
1017.8748	2911.2098	3692.5	2810.15
1017.9902	2912.3236	3684.65	2795.1
1018.1056	2913.4368	3656.6	2774.25
1018.2209	2914.5494	3654.25	2772.85
1018.3362	2915.6613	3638.3	2750.8
1018.4515	2916.7725	3602.35	2720.7
1018.5667	2917.8831	3593.6	2711
1018.6819	2918.9931	3586.95	2704.6
1018.797	2920.1024	3556.15	2674.9
1018.9121	2921.211	3536.65	2655.9
1019.0271	2922.319	3528.3	2647.25
1019.1421	2923.4264	3531.4	2652.15
1019.2571	2924.5331	3503.05	2623.65
1019.372	2925.6391	3504.65	2623.5
1019.4869	2926.7445	3495.95	2617.25
1019.6017	2927.8493	3480.3	2599.2
1019.7165	2928.9534	3482.85	2602.25
1019.8313	2930.0569	3473.6	2589.3
1019.946	2931.1597	3468.95	2588.6
1020.0606	2932.2619	3461.4	2582.05
1020.1753	2933.3634	3455.15	2576.2
1020.2899	2934.4643	3466.5	2579.15
1020.4044	2935.5645	3448.9	2561.5
1020.5189	2936.6641	3439.35	2554.25
1020.6334	2937.763	3410.05	2530
1020.7478	2938.8613	3396.05	2513.8
1020.8622	2939.959	3360.8	2476.05
1020.9765	2941.056	3330.7	2450.8
1021.0908	2942.1523	3296.9	2413.85
1021.2051	2943.248	3235.25	2354.4
1021.3193	2944.3431	3196.35	2316.8
1021.4334	2945.4375	3152.45	2272.65
1021.5476	2946.5313	3100.8	2221.3
1021.6617	2947.6244	3050.3	2170.65
1021.7757	2948.7169	3013.35	2130.8
1021.8897	2949.8087	2965.65	2084.45
1022.0037	2950.8999	2913.55	2033.5
1022.1176	2951.9904	2876.55	1997.4
1022.2315	2953.0803	2845.55	1964.25
1022.3453	2954.1696	2819.2	1937.8
1022.4591	2955.2582	2785.85	1905.05
1022.5728	2956.3462	2761.85	1883
1022.6865	2957.4335	2744.1	1861.45
1022.8002	2958.5202	2729.2	1847
1022.9138	2959.6062	2719.25	1839.9
1023.0274	2960.6916	2691.9	1812.05
1023.141	2961.7764	2669.1	1787.75
1023.2545	2962.8605	2654.7	1775.1
1023.3679	2963.9439	2640.4	1760.35
1023.4813	2965.0267	2640.85	1760.1
1023.5947	2966.1089	2652.7	1747.75
1023.708	2967.1905	2621.85	1740.6
1023.8213	2968.2714	2600.2	1718.1
1023.9346	2969.3516	2604.85	1725.85
1024.0478	2970.4312	2604.7	1719.3
1024.1609	2971.5102	2598.35	1719.25
1024.274	2972.5885	2594.15	1714.85
1024.3871	2973.6662	2589.4	1702.2
1024.5002	2974.7432	2580.4	1700.4
1024.6132	2975.8196	2577.1	1697.25
1024.7261	2976.8954	2570.1	1691.1
1024.839	2977.9705	2553.45	1672.75
1024.9519	2979.045	2546.7	1667.85
1025.0647	2980.1188	2533.2	1655.5
1025.1775	2981.192	2522.65	1644.9
1025.2902	2982.2645	2506.1	1624.85
1025.4029	2983.3364	2494.55	1614.35
1025.5156	2984.4077	2479.2	1598.7
1025.6282	2985.4783	2460.55	1574.3
1025.7407	2986.5483	2440.2	1559.25
1025.8532	2987.6177	2420.45	1540.95
1025.9657	2988.6864	2410.15	1531.05
1026.0782	2989.7545	2386	1504.2
1026.1906	2990.8219	2358	1479.25
1026.3029	2991.8887	2354.35	1473.15
1026.4152	2992.9548	2330.7	1449.2
1026.5275	2994.0204	2324.9	1447.3
1026.6397	2995.0852	2293.65	1414.25
1026.7519	2996.1495	2285.55	1403.9
1026.864	2997.2131	2271.4	1389.6
1026.9761	2998.276	2238	1356.8
1027.0882	2999.3383	2234	1354.05
1027.2002	3000.4	2219.85	1338.55
1027.3122	3001.4611	2209.35	1329.45
1027.4241	3002.5215	2197.5	1318.45
1027.536	3003.5812	2182.55	1303.6
1027.6478	3004.6404	2169.55	1291.05
1027.7596	3005.6989	2166.7	1284.8
1027.8714	3006.7567	2160.25	1281.55
1027.9831	3007.8139	2175.25	1263.65
1028.0947	3008.8705	2144.55	1263.6
1028.2064	3009.9264	2136.75	1254.25
1028.3179	3010.9818	2125.45	1245.85
1028.4295	3012.0364	2121.5	1240.7
1028.541	3013.0905	2120.45	1239.9
1028.6524	3014.1439	2106.95	1225.55
1028.7638	3015.1966	2089.15	1209.9
1028.8752	3016.2487	2079.65	1200.35
1028.9865	3017.3002	2086.05	1200.7
1029.0978	3018.3511	2091.55	1213.25
1029.209	3019.4013	2089.75	1208.25
1029.3202	3020.4509	2080.25	1200.45
1029.4314	3021.4998	2078.6	1198
1029.5425	3022.5481	2072.65	1192.2
1029.6535	3023.5958	2054.05	1174.65
1029.7645	3024.6428	2052.2	1172.15
1029.8755	3025.6892	2047.55	1170.75
1029.9864	3026.735	2046.3	1165.05
1030.0973	3027.7802	2024.8	1143.7
1030.2082	3028.8247	2030.5	1150.35
1030.319	3029.8685	2022.85	1143.15
1030.4297	3030.9118	2029.7	1148.75
1030.5404	3031.9544	2024.3	1143.25
1030.6511	3032.9963	2022.4	1143.4
1030.7617	3034.0376	2024.8	1144.85
1030.8723	3035.0783	2021.45	1138.85
1030.9829	3036.1184	2009.4	1128.6
1031.0934	3037.1578	2006.65	1126.15
1031.2038	3038.1966	1999.1	1117.5
1031.3142	3039.2348	1997.3	1120.4
1031.4246	3040.2723	1992.65	1105.25
1031.5349	3041.3092	1985.55	1105.1
1031.6452	3042.3455	1969.55	1089.35
1031.7554	3043.3811	1980.25	1099.15
1031.8656	3044.4161	1974.25	1093.6
1031.9758	3045.4505	1971.1	1092.85
1032.0859	3046.4842	1962.35	1082.8
1032.1959	3047.5173	1959.2	1080.25
1032.3059	3048.5498	1952	1070.75
1032.4159	3049.5816	1947.8	1069.45
1032.5258	3050.6128	1935.8	1056.55
1032.6357	3051.6434	1938.35	1057.2
1032.7455	3052.6734	1941.25	1062.7
1032.8553	3053.7027	1936.25	1056.45
1032.9651	3054.7314	1926.35	1045.8
1033.0748	3055.7594	1923.9	1043.85
1033.1845	3056.7868	1916	1034.75
1033.2941	3057.8136	1908.05	1030.05
1033.4037	3058.8398	1901.35	1022.2
1033.5132	3059.8653	1901.35	1023.3
1033.6227	3060.8902	1890.7	1010.05
1033.7321	3061.9145	1886.45	1008
1033.8415	3062.9381	1888.85	1009.25
1033.9509	3063.9612	1890.6	995
1034.0602	3064.9835	1868.95	988.65
1034.1694	3066.0053	1873.55	991
1034.2787	3067.0264	1861.1	981.4
1034.3878	3068.0469	1865.05	984.75
1034.497	3069.0668	1858.6	974.9
1034.6061	3070.086	1840.2	961.35
1034.7151	3071.1046	1843.3	964.95
1034.8241	3072.1226	1842.9	962.35
1034.9331	3073.1399	1830.6	951.1
1035.042	3074.1567	1821.45	942.05
1035.1508	3075.1727	1817.8	936.5
1035.2597	3076.1882	1814.85	937.8
1035.3684	3077.203	1807.5	927.9
1035.4772	3078.2173	1800.1	918.55
1035.5859	3079.2308	1808.85	926.05
1035.6945	3080.2438	1789.35	906.4
1035.8031	3081.2561	1775.95	897.15
1035.9117	3082.2678	1772.85	893
1036.0202	3083.2789	1768.95	888.5
1036.1286	3084.2893	1764.6	884.8
1036.2371	3085.2991	1753.45	873.35
1036.3454	3086.3083	1758.25	874.7
1036.4538	3087.3169	1756.05	874.7
1036.562	3088.3248	1752.25	870.9
1036.6703	3089.3321	1743.3	863.25
1036.7785	3090.3388	1740.2	861.55
1036.8866	3091.3449	1723.7	843.4
1036.9948	3092.3503	1722.25	837.75
1037.1028	3093.3551	1711.95	834.9
1037.2108	3094.3593	1709.15	831.2
1037.3188	3095.3629	1705.95	824.8
1037.4267	3096.3658	1703.25	823.7
1037.5346	3097.3681	1693.25	812.75
1037.6425	3098.3698	1692.3	810.8
1037.7503	3099.3708	1697.5	812.6
1037.858	3100.3713	1685.7	806.95
1037.9657	3101.3711	1681.75	802.8
1038.0734	3102.3702	1797.8	785
1038.181	3103.3688	1676.25	795.4
1038.2886	3104.3667	1661.1	782.85
1038.3961	3105.364	1659.1	780.2
1038.5036	3106.3607	1644.95	763.95
1038.611	3107.3568	1644.65	762.3
1038.7184	3108.3522	1647.4	770.9
1038.8257	3109.347	1631.1	750.75
1038.933	3110.3412	1636.2	754.6
1039.0403	3111.3348	1629.9	750.7
1039.1475	3112.3277	1621.25	739.7
1039.2547	3113.32	1622.45	745.6
1039.3618	3114.3117	1622.55	743.3
1039.4689	3115.3028	1613.75	735.6
1039.5759	3116.2932	1609.45	727.6
1039.6829	3117.2831	1607.85	720.15
1039.7898	3118.2723	1598.2	720
1039.8967	3119.2608	1590.5	711.6
1040.0035	3120.2488	1590.6	711.4
1040.1103	3121.2361	1589.5	710.95
1040.2171	3122.2229	1583.9	704.6
1040.3238	3123.209	1587.5	708.15
1040.4305	3124.1944	1571.55	689.5
1040.5371	3125.1793	1569.95	688.6
1040.6437	3126.1635	1564.4	685.55
1040.7502	3127.1471	1561.45	682.2
1040.8567	3128.1301	1563	685.6
1040.9631	3129.1125	1551.95	673.65
1041.0695	3130.0942	1554	674.75
1041.1759	3131.0753	1566.5	678.8
1041.2822	3132.0558	1555.25	674.5
1041.3884	3133.0357	1548.1	667.25
1041.4946	3134.015	1542.85	663.1
1041.6008	3134.9936	1536.35	654.8
1041.7069	3135.9716	1552.9	652.8
1041.813	3136.949	1539.7	661.15
1041.919	3137.9258	1533.35	648.35
1042.025	3138.902	1530.5	647.45
1042.1309	3139.8775	1527.2	648.4
1042.2368	3140.8524	1521	642.95
1042.3427	3141.8267	1515.4	634.55
1042.4485	3142.8004	1521.9	641.1
1042.5542	3143.7735	1520.35	635.75
1042.6599	3144.7459	1509.15	629.5
1042.7656	3145.7178	1505.15	624.4
1042.8712	3146.689	1500.7	623.9
1042.9768	3147.6596	1498.05	617.1
1043.0823	3148.6295	1500.4	620.05
1043.1878	3149.5989	1489.85	611.4
1043.2932	3150.5676	1496.6	618.35
1043.3986	3151.5357	1485.55	608.25
1043.5039	3152.5032	1486.05	607.6
1043.6092	3153.4701	1486.6	607.85
1043.7145	3154.4364	1477.15	598.15
1043.8197	3155.402	1468.65	590
1043.9248	3156.367	1471.1	589.6
1044.03	3157.3315	1503.55	585.3
1044.135	3158.2952	1465.5	586.65
1044.24	3159.2584	1464.1	584.6
1044.345	3160.221	1465.25	584.8
1044.4499	3161.1829	1450.95	570.5
1044.5548	3162.1442	1450.6	570.35
1044.6596	3163.105	1439.8	560
1044.7644	3164.065	1443.7	565.15
1044.8692	3165.0245	1438.5	556.5
1044.9739	3165.9834	1442.55	566.4
1045.0785	3166.9416	1442.8	563.65
1045.1831	3167.8993	1430.85	551
1045.2877	3168.8563	1435	553.75
1045.3922	3169.8127	1431.15	553.2
1045.4966	3170.7684	1424	545.6
1045.6011	3171.7236	1421.9	541.85
1045.7054	3172.6782	1419.7	540.45
1045.8098	3173.6321	1416.9	538.1
1045.914	3174.5854	1417.15	533.9
1046.0183	3175.5381	1411.9	534.2
1046.1224	3176.4902	1400.95	523.05
1046.2266	3177.4417	1402.45	524.05
1046.3307	3178.3926	1401.35	522.15
1046.4347	3179.3428	1393.15	515.75
1046.5387	3180.2924	1392.65	514.05
1046.6427	3181.2415	1389.4	510.7
1046.7466	3182.1899	1392.55	511.65
1046.8504	3183.1377	1390.15	509.55
1046.9542	3184.0848	1386.65	504.25
1047.058	3185.0314	1380.3	500.4
1047.1617	3185.9773	1373.95	493.8
1047.2654	3186.9227	1375.75	497.35
1047.369	3187.8674	1375.6	496.95
1047.4726	3188.8115	1372.7	491.5
1047.5761	3189.755	1365.3	486.3
1047.6796	3190.6979	1368.9	487.7
1047.783	3191.6402	1358.9	483.05
1047.8864	3192.5818	1357.15	476.6
1047.9898	3193.5229	1374.45	478.15
1048.0931	3194.4633	1353.05	474.05
1048.1963	3195.4031	1347.7	468.6
1048.2995	3196.3423	1344.3	465.8
1048.4027	3197.2809	1351.9	473
1048.5058	3198.2189	1344.7	465.5
1048.6089	3199.1563	1362.3	470
1048.7119	3200.0931	1333.85	456.05
1048.8148	3201.0292	1330.6	453.35
1048.9178	3201.9648	1332.9	453.4
1049.0206	3202.8997	1342.05	458.7
1049.1235	3203.834	1329.15	448.95
1049.2262	3204.7677	1325.95	447.8
1049.329	3205.7008	1323.15	442.35
1049.4317	3206.6333	1314.35	437
1049.5343	3207.5652	1325.25	444.4
1049.6369	3208.4964	1316.95	439.4
1049.7394	3209.4271	1315.9	438.85
1049.8419	3210.3571	1311.9	433.55
1049.9444	3211.2865	1311.5	431.6
1050.0468	3212.2154	1305.1	424.15
1050.1491	3213.1436	1309.3	426.8
1050.2514	3214.0712	1310.15	423.35
1050.3537	3214.9982	1299.05	419.8
1050.4559	3215.9246	1303.45	423
1050.5581	3216.8503	1300.65	422.1
1050.6602	3217.7755	1301.15	421.9
1050.7623	3218.7001	1298.9	419.9
1050.8643	3219.624	1302.6	423.7
1050.9663	3220.5473	1288.55	409.25
1051.0682	3221.4701	1289.55	408.45
1051.1701	3222.3922	1289.2	410.85
1051.2719	3223.3137	1279.45	400.9
1051.3737	3224.2346	1282.55	403.9
1051.4754	3225.1549	1283.1	405.6
1051.5771	3226.0746	1279	398.9
1051.6788	3226.9937	1270.5	392.25
1051.7804	3227.9121	1271.55	395.15
1051.8819	3228.83	1265.9	388.45
1051.9834	3229.7473	1271.2	392.1
1052.0849	3230.6639	1265.75	386.55
1052.1863	3231.5799	1261.15	384.15
1052.2876	3232.4954	1268.9	388.35
1052.3889	3233.4102	1258.45	379.6
1052.4902	3234.3244	1256.25	375.95
1052.5914	3235.238	1256.95	382
1052.6926	3236.151	1278.9	377.25
1052.7937	3237.0634	1256.05	378
1052.8948	3237.9752	1245.75	368.05
1052.9958	3238.8864	1245.05	366.15
1053.0968	3239.797	1240.05	361.5
1053.1977	3240.7069	1241.2	360.5
1053.2986	3241.6163	1246.95	368.85
1053.3994	3242.5251	1235	357.45
1053.5002	3243.4332	1234.05	356.55
1053.6009	3244.3408	1232.75	353.5
1053.7016	3245.2477	1232.7	353.55
1053.8022	3246.154	1229.75	349.35
1053.9028	3247.0598	1227.55	348.2
1054.0034	3247.9649	1223	345.5
1054.1039	3248.8694	1223.1	344.05
1054.2043	3249.7733	1218.55	339.95
1054.3047	3250.6766	1219.1	341.3
1054.4051	3251.5793	1220.35	341.15
1054.5054	3252.4814	1212.95	333.4
1054.6056	3253.3829	1208.8	329.9
1054.7058	3254.2838	1212.6	332.3
1054.806	3255.1841	1206.3	328.75
1054.9061	3256.0838	1200.75	318.4
1055.0061	3256.9829	1197.85	321
1055.1062	3257.8814	1199.7	317.55
1055.2061	3258.7792	1200.25	317.95
1055.306	3259.6765	1192.6	314.3
1055.4059	3260.5731	1189.35	311.7
1055.5057	3261.4692	1184.7	305.4
1055.6055	3262.3647	1184.95	304.85
1055.7052	3263.2595	1179.4	299.85
1055.8049	3264.1538	1172.65	295.45
1055.9045	3265.0474	1164.45	283.5
1056.0041	3265.9404	1164.95	287.35
1056.1036	3266.8329	1161.45	284.2
1056.2031	3267.7247	1164.6	276.65
1056.3025	3268.616	1146.5	271.7
1056.4019	3269.5066	1143.1	264.45
1056.5013	3270.3966	1141.45	260.55
1056.6005	3271.286	1133.55	256.05
