Software Version:	3.9.2.0
Unit SN:	10000200
Spectrometer SN:	6960
Date:	3/6/2024 10:25:47 AM
Data Line Index:	25
Spectral Points:	2048
Integration time (ms):	125
Averages:	20
Delay (ms):	30
Sequence Number:	1
Processing:	dark subtract
Laser Power (mW):	300
Laser Current (mA):	825
Laser Diode Temp (C):	25.1
Laser Case Temp (C):	25.9
System Temp (C):	25.7
Spectrometer Temp (C):	23.1
CCD Temp (C):	0.004
Secondary Temp (C):	20.004
Heatsink Temp (C):	21.15
CCDPCB Temp (C):	35.985
SecondaryPCB Temp (C):	28.492

Wavelength	RamanShift	Raw Counts	Dark Subtracted
787.061	30.1047	1078.65	664.9
787.2016	32.3739	1110.2	699.1
787.3422	34.6426	1148.7	738.3
787.4828	36.9109	1194.45	782.95
787.6235	39.1787	1241.35	824.8
787.7642	41.4461	1300.15	880.15
787.9049	43.7131	1358	934
788.0456	45.9796	1408.15	979.5
788.1863	48.2456	1477.25	1048.05
788.3271	50.5112	1539.95	1105.4
788.4679	52.7764	1604.7	1166.55
788.6087	55.0411	1682.9	1242.2
788.7496	57.3054	1755.9	1306.95
788.8904	59.5692	1834.95	1386.6
789.0313	61.8326	1927.3	1475
789.1722	64.0955	2024	1568.4
789.3132	66.3579	2140.1	1680
789.4541	68.6199	2279.05	1815.7
789.5951	70.8815	2512.55	2045.15
789.7361	73.1426	3034.4	2562.85
789.8771	75.4032	4318.7	3843.2
790.0181	77.6634	7612.3	7130.8
790.1592	79.9231	16210.9	15722.5
790.3003	82.1824	51555.55	51059.25
790.4414	84.4412	65535	65014.15
790.5825	86.6995	65535	64992.75
790.7237	88.9574	65535	64966.6
790.8648	91.2148	65535	64950.6
791.006	93.4717	65535	64936.55
791.1472	95.7282	65535	64932.05
791.2885	97.9842	65535	64928.6
791.4297	100.2398	65535	64928.3
791.571	102.4949	65535	64926.4
791.7123	104.7495	65535	64919.6
791.8536	107.0036	65535	64919.25
791.9949	109.2573	65535	64923.25
792.1363	111.5105	65535	64915.9
792.2777	113.7632	65535	64918.45
792.4191	116.0154	65535	64905.2
792.5605	118.2672	65535	64912.1
792.7019	120.5185	65535	64909.3
792.8434	122.7693	65535	64908.2
792.9849	125.0197	65535	64899.6
793.1264	127.2696	65535	64901
793.2679	129.519	65535	64895.8
793.4094	131.7679	65535	64892.6
793.551	134.0163	65535	64892.05
793.6926	136.2642	65535	64887.1
793.8342	138.5117	65535	64877.8
793.9758	140.7587	65535	64886.4
794.1175	143.0052	65535	64881.95
794.2591	145.2512	65535	64884.5
794.4008	147.4967	65535	64880.05
794.5425	149.7417	65535	64878.25
794.6842	151.9863	65535	64873.95
794.826	154.2304	65535	64869.4
794.9677	156.4739	65535	64863.75
795.1095	158.717	65535	64863.95
795.2513	160.9596	65535	64859.15
795.3931	163.2017	65535	64858.25
795.535	165.4433	65535	64859.95
795.6768	167.6844	65535	64857.75
795.8187	169.925	65535	64852
795.9606	172.1651	65535	64848.95
796.1025	174.4047	65535	64845.4
796.2445	176.6439	65535	64845.15
796.3864	178.8825	65535	64839.85
796.5284	181.1206	65535	64837.55
796.6704	183.3582	65535	64833.05
796.8124	185.5954	65535	64831.1
796.9544	187.832	65535	64824.9
797.0965	190.0681	65535	64830.85
797.2386	192.3037	65535	64821.4
797.3806	194.5388	65535	64820.25
797.5228	196.7734	65535	64820.5
797.6649	199.0075	65535	64814.45
797.807	201.2411	65535	64814.5
797.9492	203.4742	65535	64816.7
798.0914	205.7068	65535	64811.75
798.2336	207.9389	65535	64805.75
798.3758	210.1704	65535	64809.1
798.518	212.4015	65535	64816.05
798.6603	214.632	65535	64827.35
798.8025	216.862	65535	64829.55
798.9448	219.0915	65535	64828.1
799.0871	221.3205	65535	64827.4
799.2294	223.549	65535	64830.6
799.3718	225.777	65535	64832.3
799.5141	228.0044	65535	64824.35
799.6565	230.2314	65535	64824.65
799.7989	232.4578	65535	64820.25
799.9413	234.6837	65535	64810.1
800.0837	236.909	65535	64807.95
800.2262	239.1339	65535	64784.3
800.3687	241.3582	65535	64800.6
800.5111	243.582	65535	64771.45
800.6536	245.8053	65535	64782.55
800.7961	248.0281	65535	64789.25
800.9387	250.2503	65535	64784.15
801.0812	252.472	65535	64780.1
801.2238	254.6932	65535	64778.75
801.3664	256.9139	65535	64781.2
801.509	259.134	65535	64776
801.6516	261.3536	65535	64777.45
801.7942	263.5727	65535	64778.4
801.9369	265.7912	65535	64776.6
802.0795	268.0092	65535	64774.95
802.2222	270.2267	65535	64774.05
802.3649	272.4436	65535	64774.85
802.5076	274.6601	65535	64764.1
802.6504	276.8759	65535	64764.6
802.7931	279.0913	65535	64768.35
802.9359	281.3061	65535	64765.5
803.0787	283.5204	65535	64767.1
803.2215	285.7341	65535	64761.45
803.3643	287.9473	65535	64747.8
803.5071	290.16	65535	64758
803.6499	292.3721	65535	64767.25
803.7928	294.5837	65535	64760.8
803.9357	296.7947	65535	64762.1
804.0786	299.0052	65535	64764.25
804.2215	301.2152	65535	64760.4
804.3644	303.4246	65535	64761.7
804.5074	305.6334	65535	64760.4
804.6503	307.8418	65535	64759.55
804.7933	310.0495	65535	64754.8
804.9363	312.2568	65535	64757.25
805.0793	314.4635	65535	64757.1
805.2223	316.6696	65535	64752.8
805.3653	318.8752	65535	64743.85
805.5084	321.0802	65535	64751.5
805.6514	323.2847	65535	64747.8
805.7945	325.4887	65535	64750.1
805.9376	327.692	65535	64745.8
806.0807	329.8949	65535	64744.95
806.2238	332.0972	65535	64746.35
806.367	334.2989	65535	64742.7
806.5101	336.5001	65535	64741.15
806.6533	338.7007	65535	64740.35
806.7965	340.9008	65535	64737.45
806.9397	343.1003	65535	64735.85
807.0829	345.2992	65535	64735.05
807.2261	347.4976	65535	64734.55
807.3693	349.6955	65535	64732
807.5126	351.8927	65535	64733.95
807.6559	354.0895	65535	64719.2
807.7991	356.2856	65535	64730.1
807.9424	358.4812	65535	64728.95
808.0857	360.6763	65535	64726.95
808.2291	362.8707	65535	64725.9
808.3724	365.0646	65535	64723.7
808.5158	367.258	65535	64721.95
808.6591	369.4508	65535	64718.65
808.8025	371.643	65535	64720.25
808.9459	373.8346	65535	64717.7
809.0893	376.0257	65535	64715.2
809.2327	378.2162	65535	64712.55
809.3762	380.4062	65535	64710.95
809.5196	382.5956	65535	64712.25
809.6631	384.7844	65535	64716.25
809.8066	386.9726	65535	64719.6
809.9501	389.1603	65535	64719
810.0936	391.3474	65535	64681.95
810.2371	393.5339	65535	64718.45
810.3806	395.7199	65535	64723.45
810.5241	397.9052	65535	64719.85
810.6677	400.09	65535	64721.45
810.8113	402.2743	65535	64722.35
810.9548	404.4579	65535	64719.7
811.0984	406.641	65535	64718.9
811.2421	408.8235	65535	64716.8
811.3857	411.0054	65535	64716.95
811.5293	413.1868	65535	64714.55
811.673	415.3675	65535	64713.1
811.8166	417.5477	65535	64710.3
811.9603	419.7273	65535	64707.4
812.104	421.9064	65535	64699.1
812.2477	424.0848	65535	64702.8
812.3914	426.2627	65535	64703.35
812.5351	428.4399	65535	64701.15
812.6788	430.6166	65535	64698.2
812.8226	432.7928	65535	64697.25
812.9663	434.9683	65535	64696.3
813.1101	437.1432	65535	64694.6
813.2539	439.3176	65535	64696
813.3977	441.4914	65535	64695.85
813.5415	443.6645	65535	64693.1
813.6853	445.8371	65535	64695.4
813.8291	448.0091	65535	64697.4
813.973	450.1806	65535	64693.25
814.1168	452.3514	65535	64690.15
814.2607	454.5216	65535	64687.45
814.4046	456.6913	65535	64689.8
814.5485	458.8603	65535	64692.5
814.6924	461.0288	65535	64693.65
814.8363	463.1967	65535	64690.35
814.9802	465.3639	65535	64691.05
815.1241	467.5306	65535	64691
815.2681	469.6967	65535	64692
815.412	471.8622	65535	64693.5
815.556	474.0271	65535	64690.6
815.7	476.1914	65535	64689.95
815.844	478.3551	65535	64690.35
815.988	480.5182	65535	64690.95
816.132	482.6807	65535	64690.45
816.276	484.8426	65535	64689
816.4201	487.0039	65535	64687.4
816.5641	489.1647	65535	64686.2
816.7082	491.3248	65535	64689.05
816.8522	493.4843	65535	64685.8
816.9963	495.6432	65535	64685.35
817.1404	497.8015	65535	64682.45
817.2845	499.9592	65535	64681.35
817.4286	502.1163	65535	64680.6
817.5727	504.2728	65535	64683.3
817.7168	506.4287	65535	64682.75
817.861	508.5839	65535	64683.05
818.0051	510.7386	65535	64681.15
818.1493	512.8927	65535	64679.75
818.2935	515.0461	65535	64683
818.4377	517.199	65535	64676.4
818.5818	519.3512	65535	64679.95
818.726	521.5029	65535	64675.1
818.8703	523.6539	65535	64679.6
819.0145	525.8043	65535	64676.4
819.1587	527.9541	65535	64673.85
819.303	530.1033	65535	64672.95
819.4472	532.2519	65535	64675.45
819.5915	534.3999	65535	64671.1
819.7357	536.5472	65535	64676.1
819.88	538.694	65535	64675.85
820.0243	540.8401	65535	64672.9
820.1686	542.9856	65535	64671.95
820.3129	545.1305	65535	64665.85
820.4572	547.2748	65535	64669.85
820.6016	549.4185	65535	64666.65
820.7459	551.5615	65535	64670.2
820.8902	553.704	65535	64671.4
821.0346	555.8458	65535	64674.4
821.1789	557.987	65535	64672.75
821.3233	560.1276	65535	64672.85
821.4677	562.2675	65535	64673.5
821.6121	564.4069	65535	64675.85
821.7565	566.5456	65535	64672.85
821.9009	568.6837	65535	64675.8
822.0453	570.8212	65535	64676
822.1897	572.958	65535	64671
822.3342	575.0942	65535	64671.45
822.4786	577.2299	65535	64671.35
822.6231	579.3648	65535	64670.65
822.7675	581.4992	65535	64672.2
822.912	583.6329	65535	64671.5
823.0565	585.766	65535	64669.45
823.201	587.8985	65535	64671.45
823.3454	590.0304	65535	64641.5
823.4899	592.1616	65535	64665.95
823.6345	594.2922	65535	64667.55
823.779	596.4222	65535	64662.95
823.9235	598.5515	65535	64662.75
824.068	600.6802	65535	64663.65
824.2126	602.8083	65535	64665.45
824.3571	604.9358	65535	64664.35
824.5017	607.0626	65535	64664.75
824.6462	609.1888	65535	64664.65
824.7908	611.3144	65535	64663.2
824.9354	613.4393	65535	64663.75
825.08	615.5636	65535	64664.3
825.2246	617.6873	65535	64663.45
825.3692	619.8103	65535	64664.1
825.5138	621.9327	65535	64658.45
825.6584	624.0544	65535	64665.8
825.803	626.1756	65535	64665.25
825.9477	628.2961	65535	64660.5
826.0923	630.4159	65535	64662.6
826.237	632.5351	65535	64658.7
826.3816	634.6537	65535	64661.6
826.5263	636.7716	65535	64658.45
826.6709	638.8889	65535	64659.75
826.8156	641.0056	65535	64659.55
826.9603	643.1216	65535	64658.25
827.105	645.237	65535	64657.5
827.2497	647.3518	65535	64659.95
827.3944	649.4659	65535	64656.4
827.5391	651.5793	65535	64659.4
827.6838	653.6922	65535	64656.75
827.8285	655.8043	65535	64658.5
827.9733	657.9159	65535	64657.9
828.118	660.0268	65535	64654.55
828.2627	662.137	65535	64656.85
828.4075	664.2466	65535	64655.15
828.5522	666.3556	65535	64655.9
828.697	668.4639	65535	64654.65
828.8418	670.5716	65535	64656.6
828.9865	672.6786	65535	64655.8
829.1313	674.785	65535	64651.9
829.2761	676.8907	65535	64657.45
829.4209	678.9958	65535	64658
829.5657	681.1002	65535	64652.7
829.7105	683.204	65535	64652.25
829.8553	685.3072	65535	64649.75
830.0001	687.4097	65535	64653.55
830.1449	689.5115	65535	64652.5
830.2898	691.6127	65535	64655.85
830.4346	693.7132	65535	64650.65
830.5794	695.8131	65535	64636.85
830.7243	697.9123	65535	64649.65
830.8691	700.0109	65535	64654.3
831.014	702.1089	65535	64651.3
831.1588	704.2061	65535	64655
831.3037	706.3028	65535	64650.75
831.4486	708.3987	65535	64654.4
831.5935	710.4941	65535	64650.25
831.7383	712.5887	65535	64652
831.8832	714.6827	65535	64648.05
832.0281	716.7761	65535	64649.95
832.173	718.8688	65535	64650
832.3179	720.9608	65535	64646.95
832.4628	723.0522	65535	64645.65
832.6077	725.1429	65535	64649.4
832.7527	727.233	65535	64648.35
832.8976	729.3224	65535	64647.6
833.0425	731.4112	65535	64650
833.1874	733.4993	65535	64643.35
833.3324	735.5867	65535	64647.35
833.4773	737.6735	65535	64645.95
833.6222	739.7596	65535	64647.55
833.7672	741.845	65535	64645.95
833.9122	743.9298	65535	64646.05
834.0571	746.014	65535	64651.6
834.2021	748.0974	65535	64646.75
834.347	750.1802	65535	64646.2
834.492	752.2624	65535	64647.35
834.637	754.3439	65535	64644.65
834.782	756.4247	65535	64636.6
834.9269	758.5048	65535	64646.25
835.0719	760.5843	65535	64644.75
835.2169	762.6631	65535	64645.05
835.3619	764.7413	65535	64645.9
835.5069	766.8188	65535	64644.5
835.6519	768.8956	65535	64642.9
835.7969	770.9718	65535	64648.45
835.9419	773.0473	65535	64649.4
836.0869	775.1221	65535	64645.6
836.232	777.1962	65535	64644.55
836.377	779.2697	65535	64644.95
836.522	781.3426	65535	64624.15
836.667	783.4147	65535	64645.3
836.8121	785.4862	65535	64648.25
836.9571	787.557	65535	64644.45
837.1021	789.6271	65535	64644.7
837.2472	791.6966	65535	64643.4
837.3922	793.7654	65535	64643.35
837.5373	795.8335	65535	64645.3
837.6823	797.901	65535	64643.75
837.8274	799.9678	65535	64641.7
837.9724	802.0339	65535	64642.85
838.1175	804.0993	65535	64633.9
838.2626	806.1641	65535	64642.6
838.4076	808.2282	65535	64646.2
838.5527	810.2916	65535	64641
838.6978	812.3544	65535	64643.4
838.8428	814.4164	65535	64645.3
838.9879	816.4778	65535	64642.3
839.133	818.5385	65535	64643.9
839.2781	820.5986	65535	64642.75
839.4232	822.658	65535	64641.7
839.5682	824.7166	65535	64644.55
839.7133	826.7747	65535	64646.75
839.8584	828.832	65535	64644.45
840.0035	830.8886	65535	64639.65
840.1486	832.9446	65535	64641.9
840.2937	834.9999	65535	64646.4
840.4388	837.0545	65535	64638.55
840.5839	839.1085	65535	64639.6
840.729	841.1618	65535	64636.55
840.8741	843.2143	65535	64641.6
841.0192	845.2662	65535	64640.8
841.1643	847.3175	65535	64643.95
841.3095	849.368	65535	64642.2
841.4546	851.4179	65535	64643.4
841.5997	853.467	65535	64642.4
841.7448	855.5155	65535	64645.3
841.8899	857.5633	65535	64638.9
842.0351	859.6105	65535	64643.7
842.1802	861.6569	65535	64642.3
842.3253	863.7027	65535	64640.75
842.4704	865.7478	65535	64639.6
842.6156	867.7922	65535	64641.2
842.7607	869.8359	65535	64641.35
842.9058	871.8789	65535	64639.65
843.0509	873.9212	65535	64609.4
843.1961	875.9629	65535	64643.1
843.3412	878.0039	65535	64642.2
843.4863	880.0441	65535	64644.7
843.6315	882.0837	65535	64640.45
843.7766	884.1226	65535	64639.55
843.9218	886.1609	65535	64639.9
844.0669	888.1984	65535	64640.15
844.212	890.2352	65535	64643.45
844.3572	892.2714	65535	64638.4
844.5023	894.3069	65535	64639.95
844.6475	896.3416	65535	64640.85
844.7926	898.3757	65535	64637.6
844.9377	900.4091	65535	64640.7
845.0829	902.4418	65535	64635.6
845.228	904.4739	65535	64639.75
845.3732	906.5052	65535	64640.15
845.5183	908.5358	65535	64639.1
845.6635	910.5658	65535	64638.6
845.8086	912.595	65535	64639.45
845.9538	914.6236	65535	64641.45
846.0989	916.6515	65535	64640.4
846.2441	918.6786	65535	64639.55
846.3892	920.7051	65535	64638.25
846.5344	922.7309	65535	64638.9
846.6795	924.756	65535	64639
846.8246	926.7804	65535	64635.75
846.9698	928.8041	65535	64635.65
847.1149	930.8272	65535	64641.05
847.2601	932.8495	65535	64639.35
847.4052	934.8711	65535	64638.4
847.5504	936.892	65535	64639.6
847.6955	938.9123	65535	64640.2
847.8407	940.9318	65535	64638.7
847.9858	942.9506	65535	64636.7
848.131	944.9688	65535	64638.15
848.2761	946.9862	65535	64637.6
848.4213	949.003	65535	64639.35
848.5664	951.019	65535	64640.6
848.7115	953.0344	65535	64638.8
848.8567	955.0491	65535	64637.55
849.0018	957.063	65535	64638
849.147	959.0763	65535	64640.7
849.2921	961.0888	65535	64638.2
849.4373	963.1007	65535	64636.1
849.5824	965.1119	65535	64638.75
849.7275	967.1223	65535	64635.5
849.8727	969.1321	65535	64640.45
850.0178	971.1412	65535	64640.3
850.1629	973.1495	65535	64638.35
850.3081	975.1572	65535	64605.45
850.4532	977.1641	65535	64635.95
850.5983	979.1704	65535	64636.65
850.7435	981.1759	65535	64636.6
850.8886	983.1808	65535	64635.4
851.0337	985.1849	65535	64626.9
851.1788	987.1884	65535	64634.85
851.324	989.1911	65535	64635.35
851.4691	991.1932	65535	64637.05
851.6142	993.1945	65535	64638.45
851.7593	995.1951	65535	64636.2
851.9045	997.1951	65535	64628.3
852.0496	999.1943	65535	64639.95
852.1947	1001.1928	65535	64637.95
852.3398	1003.1906	65535	64639.65
852.4849	1005.1877	65535	64637.35
852.63	1007.1841	65535	64637.45
852.7751	1009.1798	65535	64638.3
852.9202	1011.1748	65535	64636.85
853.0653	1013.1691	65535	64637.45
853.2104	1015.1627	65535	64636.6
853.3555	1017.1556	65535	64639.4
853.5006	1019.1477	65535	64637.95
853.6457	1021.1392	65535	64639.95
853.7908	1023.1299	65535	64640.85
853.9359	1025.12	65535	64635.6
854.081	1027.1093	65535	64640.1
854.2261	1029.0979	65535	64641.75
854.3712	1031.0859	65535	64639.35
854.5163	1033.0731	65535	64635.35
854.6613	1035.0596	65535	64641.35
854.8064	1037.0454	65535	64638.4
854.9515	1039.0304	65535	64638.8
855.0965	1041.0148	65535	64638.1
855.2416	1042.9985	65535	64636.15
855.3867	1044.9814	65535	64640.15
855.5317	1046.9636	65535	64636
855.6768	1048.9452	65535	64640.9
855.8219	1050.926	65535	64637.05
855.9669	1052.9061	65535	64639.4
856.112	1054.8855	65535	64637.5
856.257	1056.8642	65535	64637.7
856.4021	1058.8421	65535	64634.75
856.5471	1060.8194	65535	64636.75
856.6921	1062.7959	65535	64637.75
856.8372	1064.7717	65535	64637.3
856.9822	1066.7469	65535	64636.75
857.1272	1068.7213	65535	64634.8
857.2723	1070.695	65535	64637.7
857.4173	1072.6679	65535	64637.2
857.5623	1074.6402	65535	64638.5
857.7073	1076.6117	65535	64632.4
857.8523	1078.5826	65535	64635.65
857.9973	1080.5527	65535	64636.85
858.1423	1082.5221	65535	64637.95
858.2873	1084.4908	65535	64635.55
858.4323	1086.4587	65535	64639.2
858.5773	1088.426	65535	64635.5
858.7223	1090.3925	65535	64635.9
858.8673	1092.3584	65535	64637.6
859.0123	1094.3235	65535	64638.5
859.1573	1096.2879	65535	64636.4
859.3022	1098.2515	65535	64638.1
859.4472	1100.2145	65535	64636.25
859.5922	1102.1767	65535	64634.3
859.7371	1104.1382	65535	64638.4
859.8821	1106.099	65535	64636.85
860.027	1108.0591	65535	64635.8
860.172	1110.0185	65535	64633.7
860.3169	1111.9771	65535	64638.75
860.4619	1113.9351	65535	64635.6
860.6068	1115.8923	65535	64637.7
860.7517	1117.8488	65535	64635.55
860.8967	1119.8045	65535	64637.3
861.0416	1121.7596	65535	64635.95
861.1865	1123.7139	65535	64639.9
861.3314	1125.6675	65535	64640
861.4763	1127.6204	65535	64635.65
861.6212	1129.5726	65535	64637.85
861.7661	1131.524	65535	64637.35
861.911	1133.4748	65535	64636.75
862.0559	1135.4248	65535	64636.85
862.2008	1137.3741	65535	64639.2
862.3457	1139.3226	65535	64638.65
862.4905	1141.2705	65535	64637.7
862.6354	1143.2176	65535	64630.95
862.7803	1145.164	65535	64637.25
862.9251	1147.1097	65535	64638.05
863.07	1149.0546	65535	64639.35
863.2148	1150.9989	65535	64638.65
863.3597	1152.9424	65535	64634.85
863.5045	1154.8852	65535	64637.55
863.6493	1156.8272	65535	64637.15
863.7942	1158.7686	65535	64631.35
863.939	1160.7092	65535	64636.15
864.0838	1162.6491	65535	64635.55
864.2286	1164.5883	65535	64640.45
864.3734	1166.5267	65535	64635.4
864.5182	1168.4644	65535	64635.65
864.663	1170.4014	65535	64634.4
864.8078	1172.3377	65535	64639.45
864.9526	1174.2732	65535	64641.25
865.0974	1176.2081	65535	64637.6
865.2421	1178.1421	65535	64635.15
865.3869	1180.0755	65535	64637.35
865.5317	1182.0082	65535	64639.2
865.6764	1183.9401	65535	64637.9
865.8212	1185.8713	65535	64638.4
865.9659	1187.8017	65535	64638
866.1106	1189.7315	65535	64638.55
866.2554	1191.6605	65535	64608.9
866.4001	1193.5888	65535	64640.35
866.5448	1195.5163	65535	64640.55
866.6895	1197.4432	65535	64638.95
866.8342	1199.3693	65535	64637.55
866.9789	1201.2947	65535	64636.5
867.1236	1203.2193	65535	64636.25
867.2683	1205.1432	65535	64639
867.413	1207.0664	65535	64639.85
867.5576	1208.9889	65535	64635.55
867.7023	1210.9106	65535	64639.05
867.847	1212.8316	65535	64639.9
867.9916	1214.7519	65535	64626.15
868.1363	1216.6715	65535	64637.9
868.2809	1218.5903	65535	64638.05
868.4255	1220.5084	65535	64638.4
868.5701	1222.4257	65535	64636.4
868.7148	1224.3424	65535	64640.45
868.8594	1226.2583	65535	64634.9
869.004	1228.1735	65535	64636.2
869.1486	1230.0879	65535	64638.65
869.2932	1232.0016	65535	64640.25
869.4377	1233.9146	65535	64637.55
869.5823	1235.8269	65535	64639.3
869.7269	1237.7384	65535	64638.35
869.8715	1239.6492	65535	64638.95
870.016	1241.5592	65535	64636.35
870.1606	1243.4686	65535	64638.5
870.3051	1245.3772	65535	64637.75
870.4496	1247.285	65535	64638.1
870.5941	1249.1922	65535	64637.25
870.7387	1251.0986	65535	64640.2
870.8832	1253.0042	65535	64638.05
871.0277	1254.9092	65535	64638.3
871.1722	1256.8134	65535	64641.9
871.3167	1258.7169	65535	64639.05
871.4611	1260.6196	65535	64638.95
871.6056	1262.5216	65535	64639.7
871.7501	1264.4229	65535	64638.85
871.8945	1266.3234	65535	64638.55
872.039	1268.2232	65535	64638.4
872.1834	1270.1223	65535	64637.65
872.3278	1272.0207	65535	64638.2
872.4723	1273.9183	65535	64633.5
872.6167	1275.8151	65535	64640.15
872.7611	1277.7113	65535	64638.2
872.9055	1279.6067	65535	64637.75
873.0499	1281.5014	65535	64637.05
873.1943	1283.3953	65535	64636.15
873.3386	1285.2885	65535	64639.3
873.483	1287.181	65535	64639.25
873.6274	1289.0727	65535	64640
873.7717	1290.9637	65535	64639.85
873.9161	1292.854	65535	64638.85
874.0604	1294.7435	65535	64639.95
874.2047	1296.6323	65535	64641.05
874.349	1298.5204	65535	64634.15
874.4933	1300.4077	65535	64636.6
874.6376	1302.2943	65535	64638.4
874.7819	1304.1802	65535	64640.05
874.9262	1306.0653	65535	64637.45
875.0705	1307.9497	65535	64638.25
875.2147	1309.8333	65535	64638.25
875.359	1311.7162	65535	64640.1
875.5032	1313.5984	65535	64634.65
875.6475	1315.4798	65535	64637.75
875.7917	1317.3605	65535	64620.8
875.9359	1319.2405	65535	64635.35
876.0801	1321.1197	65535	64636.65
876.2243	1322.9982	65535	64632.25
876.3685	1324.876	65535	64641.15
876.5127	1326.753	65535	64638.1
876.6569	1328.6293	65535	64637.6
876.801	1330.5048	65535	64635.85
876.9452	1332.3796	65535	64640.2
877.0893	1334.2537	65535	64611.65
877.2335	1336.127	65535	64637.65
877.3776	1337.9996	65535	64639.05
877.5217	1339.8714	65535	64639.25
877.6658	1341.7426	65535	64594.95
877.8099	1343.6129	65535	64636.9
877.954	1345.4826	65535	64639.75
878.0981	1347.3515	65535	64636.5
878.2422	1349.2196	65535	64638.65
878.3862	1351.087	65535	64639.45
878.5303	1352.9537	65535	64638.4
878.6743	1354.8197	65535	64638.85
878.8184	1356.6849	65535	64636.5
878.9624	1358.5493	65535	64637.5
879.1064	1360.4131	65535	64637.85
879.2504	1362.276	65535	64638.95
879.3944	1364.1383	65535	64639.55
879.5384	1365.9998	65535	64631.4
879.6823	1367.8606	65535	64635.6
879.8263	1369.7206	65535	64636.45
879.9702	1371.5799	65535	64636.9
880.1142	1373.4384	65535	64638.85
880.2581	1375.2962	65535	64639.4
880.402	1377.1533	65535	64638.45
880.5459	1379.0096	65535	64638.4
880.6898	1380.8652	65535	64638.75
880.8337	1382.7201	65535	64640.1
880.9776	1384.5742	65535	64639.5
881.1215	1386.4275	65535	64636.95
881.2653	1388.2802	65535	64639.95
881.4092	1390.132	65535	64637.8
881.553	1391.9832	65535	64636.45
881.6968	1393.8336	65535	64638.55
881.8406	1395.6832	65535	64640.25
881.9844	1397.5322	65535	64638.8
882.1282	1399.3803	65535	64634.35
882.272	1401.2278	65535	64636.45
882.4158	1403.0745	65535	64640.65
882.5595	1404.9204	65535	64640.1
882.7033	1406.7656	65535	64641.7
882.847	1408.6101	65535	64638.65
882.9908	1410.4538	65535	64638.9
883.1345	1412.2968	65535	64638.3
883.2782	1414.139	65535	64640.8
883.4219	1415.9805	65535	64640.9
883.5656	1417.8213	65535	64633.45
883.7092	1419.6613	65535	64639.55
883.8529	1421.5006	65535	64638.6
883.9965	1423.3391	65535	64637.4
884.1402	1425.1769	65535	64637
884.2838	1427.0139	65535	64637.3
884.4274	1428.8502	65535	64635.7
884.571	1430.6858	65535	64638.45
884.7146	1432.5206	65535	64639.25
884.8582	1434.3547	65535	64635.4
885.0018	1436.188	65535	64640.1
885.1453	1438.0206	65535	64639.2
885.2889	1439.8524	65535	64638.5
885.4324	1441.6835	65535	64637.7
885.5759	1443.5139	65535	64634.8
885.7194	1445.3435	65535	64639.55
885.8629	1447.1724	65535	64639.55
886.0064	1449.0005	65535	64639.65
886.1499	1450.8279	65535	64638.45
886.2933	1452.6545	65535	64637.85
886.4368	1454.4804	65535	64639.9
886.5802	1456.3056	65535	64631.85
886.7237	1458.13	65535	64640.3
886.8671	1459.9536	65535	64640.3
887.0105	1461.7766	65535	64640.4
887.1539	1463.5987	65535	64637.5
887.2972	1465.4202	65535	64638.65
887.4406	1467.2409	65535	64636.6
887.584	1469.0608	65535	64639.5
887.7273	1470.88	65535	64638.4
887.8706	1472.6984	65535	64640.55
888.0139	1474.5161	65535	64636.8
888.1572	1476.3331	65535	64639.6
888.3005	1478.1493	65535	64639.4
888.4438	1479.9648	65535	64639.15
888.5871	1481.7795	65535	64641.35
888.7303	1483.5935	65535	64641.15
888.8736	1485.4067	65535	64637.3
889.0168	1487.2192	65535	64639.25
889.16	1489.031	65535	64635.75
889.3032	1490.842	65535	64641.25
889.4464	1492.6522	65535	64640.8
889.5896	1494.4618	65535	64639
889.7327	1496.2705	65535	64639.4
889.8759	1498.0785	65535	64639.15
890.019	1499.8858	65535	64636.4
890.1622	1501.6924	65535	64641.05
890.3053	1503.4981	65535	64639.45
890.4484	1505.3032	65535	64637.9
890.5914	1507.1075	65535	64640.4
890.7345	1508.911	65535	64638.15
890.8776	1510.7138	65535	64642.15
891.0206	1512.5159	65535	64639.25
891.1637	1514.3172	65535	64641.4
891.3067	1516.1178	65535	64642.65
891.4497	1517.9176	65535	64636.5
891.5927	1519.7166	65535	64640.05
891.7357	1521.515	65535	64632.95
891.8786	1523.3126	65535	64641.1
892.0216	1525.1094	65535	64637.25
892.1645	1526.9055	65535	64640.5
892.3074	1528.7008	65535	64640.45
892.4503	1530.4954	65535	64637.15
892.5932	1532.2893	65535	64641.25
892.7361	1534.0824	65535	64635.25
892.879	1535.8747	65535	64643.15
893.0218	1537.6663	65535	64640.9
893.1647	1539.4572	65535	64641
893.3075	1541.2473	65535	64639.85
893.4503	1543.0367	65535	64642.3
893.5931	1544.8253	65535	64636.75
893.7359	1546.6132	65535	64639.85
893.8787	1548.4003	65535	64630.7
894.0214	1550.1867	65535	64629.45
894.1642	1551.9723	65535	64637.25
894.3069	1553.7572	65535	64642.15
894.4496	1555.5414	65535	64640.75
894.5923	1557.3247	65535	64641.1
894.735	1559.1074	65535	64641.6
894.8777	1560.8893	65535	64640.45
895.0204	1562.6705	65535	64640.7
895.163	1564.4509	65535	64642.2
895.3056	1566.2305	65535	64641.85
895.4482	1568.0094	65535	64641.25
895.5908	1569.7876	65535	64640.2
895.7334	1571.565	65535	64640.7
895.876	1573.3417	65535	64639.4
896.0186	1575.1176	65535	64642.35
896.1611	1576.8928	65535	64641.9
896.3036	1578.6672	65535	64642.95
896.4461	1580.4409	65535	64644.1
896.5886	1582.2138	65535	64639.6
896.7311	1583.986	65535	64641.7
896.8736	1585.7575	65535	64643.35
897.0161	1587.5282	65535	64643.9
897.1585	1589.2981	65535	64642.15
897.3009	1591.0673	65535	64642.35
897.4433	1592.8358	65535	64641
897.5857	1594.6035	65535	64640.3
897.7281	1596.3704	65535	64640.3
897.8705	1598.1366	65535	64642.15
898.0128	1599.9021	65535	64644.7
898.1551	1601.6668	65535	64640.55
898.2975	1603.4308	65535	64641.85
898.4398	1605.194	65535	64637.65
898.5821	1606.9564	65535	64643.1
898.7243	1608.7182	65535	64641.2
898.8666	1610.4791	65535	64641.95
899.0088	1612.2394	65535	64642.65
899.1511	1613.9988	65535	64643
899.2933	1615.7576	65535	64643.3
899.4355	1617.5156	65535	64637
899.5776	1619.2728	65535	64643.25
899.7198	1621.0293	65535	64645.45
899.862	1622.785	65535	64639.6
900.0041	1624.54	65535	64639.25
900.1462	1626.2942	65535	64642.7
900.2883	1628.0477	65535	64639.9
900.4304	1629.8005	65535	64638.4
900.5725	1631.5525	65535	64643
900.7145	1633.3037	65535	64643.05
900.8566	1635.0542	65534.65	64645.4
900.9986	1636.804	65535	64643.6
901.1406	1638.553	65533.45	64550.45
901.2826	1640.3013	65535	64642.15
901.4245	1642.0488	65529.75	64637.45
901.5665	1643.7955	65535	64644.5
901.7085	1645.5416	65532.9	64641.75
901.8504	1647.2868	65524	64632.25
901.9923	1649.0313	65535	64643.6
902.1342	1650.7751	65526.55	64632.55
902.2761	1652.5181	65521.3	64628.65
902.4179	1654.2604	65523.8	64633.4
902.5598	1656.0019	65525.7	64634.2
902.7016	1657.7427	65522.8	64630.25
902.8434	1659.4828	65529.7	64637.35
902.9852	1661.222	65516.45	64623.35
903.127	1662.9606	65531.55	64641.15
903.2687	1664.6984	65509	64618.8
903.4105	1666.4354	65522.6	64630.4
903.5522	1668.1717	65480.8	64589.55
903.6939	1669.9072	65424.85	64533.5
903.8356	1671.642	65441.05	64547.85
903.9773	1673.3761	65439.6	64547.75
904.119	1675.1094	65423.85	64533.6
904.2606	1676.8419	65363.3	64471.85
904.4022	1678.5737	65379.05	64486.5
904.5439	1680.3048	65351.65	64457.8
904.6855	1682.0351	65338.95	64447.95
904.827	1683.7646	65321.55	64428
904.9686	1685.4934	65338.85	64450.2
905.1101	1687.2215	65258.6	64367.35
905.2517	1688.9488	65322.75	64431.75
905.3932	1690.6754	65170.3	64281.1
905.5347	1692.4012	65263.25	64373.1
905.6761	1694.1263	65266.25	64375.2
905.8176	1695.8506	65210.2	64319.3
905.9591	1697.5742	65216.05	64324.7
906.1005	1699.297	65205.5	64314.8
906.2419	1701.0191	65219.35	64330.15
906.3833	1702.7404	65104.3	64213.75
906.5246	1704.461	65045.55	64154.6
906.666	1706.1808	65159.35	64267.65
906.8073	1707.8999	65097.4	64205.7
906.9487	1709.6182	65079.25	64186.2
907.09	1711.3358	65068.3	64177.15
907.2313	1713.0527	65039.2	64152.15
907.3725	1714.7688	65033.05	64137.2
907.5138	1716.4841	64819.35	63928.85
907.655	1718.1987	64906.7	64008.85
907.7962	1719.9126	64852.6	63964.1
907.9374	1721.6257	64935.45	64044.75
908.0786	1723.338	64929.1	64037.5
908.2198	1725.0496	64624	63732.4
908.3609	1726.7605	64698.8	63807.1
908.502	1728.4706	64595.8	63705.8
908.6431	1730.18	64733.4	63839.3
908.7842	1731.8886	64561.9	63671.8
908.9253	1733.5964	64487.65	63592.4
909.0664	1735.3036	64665.4	63773.95
909.2074	1737.0099	64529	63641
909.3484	1738.7156	64377.4	63488.8
909.4894	1740.4204	64303.25	63410.8
909.6304	1742.1246	64397.95	63505.8
909.7714	1743.8279	64441.75	63549.1
909.9123	1745.5306	64386.4	63496.15
910.0532	1747.2325	63756.45	62867.05
910.1941	1748.9336	63803.65	62914
910.335	1750.634	64030.65	63139.2
910.4759	1752.3336	64176.1	63286.9
910.6168	1754.0325	63658.85	62769.55
910.7576	1755.7307	64201.1	63311.65
910.8984	1757.4281	63519.9	62628.35
911.0392	1759.1247	64015.1	63114.75
911.18	1760.8206	63222.1	62327.05
911.3208	1762.5158	63325.3	62431.05
911.4615	1764.2102	63544.6	62654.65
911.6022	1765.9039	63394.55	62505.55
911.7429	1767.5968	63144.9	62256.5
911.8836	1769.289	63059.25	62169.8
912.0243	1770.9804	63256.7	62365.85
912.1649	1772.6711	63015.85	62126.35
912.3056	1774.361	62876.35	61985.5
912.4462	1776.0502	62885.65	61994.45
912.5868	1777.7386	62207.1	61315.5
912.7274	1779.4263	62704.1	61812.45
912.8679	1781.1132	62637.4	61749.4
913.0084	1782.7994	62510.8	61618.85
913.149	1784.4849	62513.15	61625.15
913.2895	1786.1696	61648.4	60752.15
913.4299	1787.8535	62155.55	61265.05
913.5704	1789.5367	62322.05	61431.35
913.7108	1791.2192	61731.35	60843.25
913.8513	1792.9009	61415.7	60497.5
913.9917	1794.5818	61877.75	60984.25
914.132	1796.2621	61357.1	60467.9
914.2724	1797.9415	61435.5	60545.4
914.4128	1799.6202	61374.2	60482.8
914.5531	1801.2982	61402.9	60515.15
914.6934	1802.9755	60870.35	59979.5
914.8337	1804.6519	60649.1	59758.65
914.9739	1806.3277	61466.85	60579.15
915.1142	1808.0027	60227.6	59339.35
915.2544	1809.6769	60652.55	59762.65
915.3946	1811.3504	60751.95	59859.65
915.5348	1813.0231	59828.65	58939.05
915.675	1814.6951	60495.1	59604.85
915.8151	1816.3664	60016.45	59124
915.9553	1818.0369	60095.25	59205.6
916.0954	1819.7067	59766.45	58877
916.2355	1821.3757	60325.4	59435.6
916.3755	1823.044	59538.1	58649.15
916.5156	1824.7115	59179.55	58288.8
916.6556	1826.3783	59420.55	58533.2
916.7956	1828.0443	59436.15	58548.4
916.9356	1829.7096	59157.65	58266.05
917.0756	1831.3741	58511.9	57620.7
917.2155	1833.0379	58940.65	58050.45
917.3555	1834.701	58948.2	58055.85
917.4954	1836.3633	58365.75	57476.4
917.6353	1838.0248	58705.3	57814.8
917.7751	1839.6856	58541.85	57654.6
917.915	1841.3457	57924.55	57035.4
918.0548	1843.005	58551.5	57662.3
918.1946	1844.6636	58126.2	57236.7
918.3344	1846.3214	57435.95	56544.65
918.4742	1847.9785	57635.9	56747
918.6139	1849.6349	57602.6	56712
918.7537	1851.2904	58086.3	57186.95
918.8934	1852.9453	57196.35	56306.5
919.0331	1854.5994	57520.4	56629.2
919.1727	1856.2528	57474.95	56581.3
919.3124	1857.9054	56952	56060.75
919.452	1859.5572	56771.95	55884.15
919.5916	1861.2083	56957.5	56068.75
919.7312	1862.8587	57505.55	56615.75
919.8708	1864.5084	56108.15	55217.85
920.0103	1866.1572	56687.1	55796.65
920.1498	1867.8054	55954.45	55064.8
920.2893	1869.4528	56419.75	55531.15
920.4288	1871.0994	55750.3	54860.05
920.5683	1872.7453	55765.7	54876.5
920.7077	1874.3905	55958.3	55062.5
920.8471	1876.0349	55449.2	54558.2
920.9865	1877.6786	55784.5	54894.5
921.1259	1879.3215	55249.75	54358.25
921.2653	1880.9637	55740.75	54850.15
921.4046	1882.6051	55261.1	54372.1
921.5439	1884.2458	54924.9	54033.4
921.6832	1885.8858	54627.15	53737.4
921.8225	1887.525	54784.8	53893.95
921.9617	1889.1634	54628.6	53741.15
922.101	1890.8011	54429.4	53537.75
922.2402	1892.4381	53874.2	52986.35
922.3794	1894.0743	54388.55	53500.55
922.5185	1895.7098	54043.35	53155.7
922.6577	1897.3446	53728.45	52838.05
922.7968	1898.9786	53851.25	52958.6
922.9359	1900.6118	53528.35	52640.75
923.075	1902.2443	53181.15	52288.8
923.214	1903.8761	53494.8	52605.25
923.3531	1905.5071	53097	52206.55
923.4921	1907.1374	52462.2	51573.35
923.6311	1908.7669	52724.9	51835.95
923.77	1910.3957	52870.9	51980.6
923.909	1912.0237	52260.1	51372.4
924.0479	1913.651	52087.15	51197.35
924.1868	1915.2776	51946.7	51059.9
924.3257	1916.9034	51889.95	51000.1
924.4646	1918.5285	51610.15	50721.7
924.6034	1920.1528	51506.05	50616.1
924.7422	1921.7764	51360.35	50471.25
924.881	1923.3992	51209.3	50321
925.0198	1925.0213	50921	50029.65
925.1586	1926.6427	50505	49616.3
925.2973	1928.2633	50684.8	49716.4
925.436	1929.8832	50468.3	49577.35
925.5747	1931.5023	50216.3	49329.05
925.7134	1933.1207	49976.55	49087.2
925.852	1934.7383	50048.35	49158.8
925.9906	1936.3552	49748.85	48861.1
926.1292	1937.9714	49670.9	48779.95
926.2678	1939.5868	49587	48696.05
926.4064	1941.2015	49170.2	48281.2
926.5449	1942.8154	48943.2	48055.1
926.6834	1944.4286	48818.4	47930.05
926.8219	1946.041	48669.2	47762.5
926.9604	1947.6528	48383.1	47490.75
927.0988	1949.2637	48280.15	47390.95
927.2372	1950.8739	48124.45	47235.25
927.3756	1952.4834	48127.2	47238.5
927.514	1954.0921	48045.25	47155.8
927.6523	1955.7001	47732.25	46839.4
927.7907	1957.3074	47684.25	46795.65
927.929	1958.9139	47316.2	46427.15
928.0673	1960.5197	47289.95	46398.7
928.2055	1962.1247	47113	46223.2
928.3438	1963.729	46880.05	45990.8
928.482	1965.3325	46690.2	45778.55
928.6202	1966.9353	46673.25	45784.5
928.7584	1968.5374	46394.7	45506.75
928.8965	1970.1387	46192.8	45302.85
929.0346	1971.7393	46127.55	45239
929.1727	1973.3392	45970.95	45081.45
929.3108	1974.9383	45731.8	44842.9
929.4489	1976.5366	45540.85	44653.25
929.5869	1978.1342	45508.2	44619.85
929.7249	1979.7311	45390.45	44500.15
929.8629	1981.3273	45258.8	44368.35
930.0009	1982.9227	45095.55	44203.65
930.1388	1984.5173	44938.85	44048.95
930.2767	1986.1112	44715.2	43826.95
930.4146	1987.7044	44754.1	43864.85
930.5525	1989.2968	44398.65	43510.15
930.6904	1990.8885	44407.25	43517.2
930.8282	1992.4795	44295.35	43405.1
930.966	1994.0697	44089.15	43199.25
931.1038	1995.6592	43967.5	43078.7
931.2415	1997.2479	43815.2	42926
931.3793	1998.8359	43728.55	42840.3
931.517	2000.4232	43516.8	42628
931.6547	2002.0097	43345.2	42457.9
931.7923	2003.5955	43183.8	42295
931.93	2005.1805	43113.95	42224.65
932.0676	2006.7648	43010.15	42121.55
932.2052	2008.3484	42835.45	41946.3
932.3427	2009.9312	42883.35	41994.25
932.4803	2011.5133	42634.7	41747.95
932.6178	2013.0946	42556.45	41666.45
932.7553	2014.6752	42455.25	41569.15
932.8928	2016.2551	42340.3	41451.1
933.0302	2017.8342	42159.3	41271.2
933.1676	2019.4126	41960.05	41072.9
933.305	2020.9902	41782.95	40895.95
933.4424	2022.5672	41715.2	40824.45
933.5798	2024.1433	41630.1	40736.8
933.7171	2025.7188	41463.05	40577.25
933.8544	2027.2935	41355.9	40466.65
933.9917	2028.8674	41196.45	40308.25
934.129	2030.4406	41135.15	40248.3
934.2662	2032.0131	40870.05	39981.9
934.4034	2033.5849	40713.3	39819.65
934.5406	2035.1559	40670.9	39781.2
934.6778	2036.7261	40598.65	39709.4
934.8149	2038.2957	40477.5	39589.95
934.952	2039.8645	40375.15	39486.8
935.0891	2041.4325	40416.15	39527.25
935.2262	2042.9998	40227.45	39340.55
935.3632	2044.5664	40095.05	39206.75
935.5002	2046.1323	39956.5	39068.45
935.6372	2047.6974	39847.85	38960.3
935.7742	2049.2617	39698.75	38809.6
935.9111	2050.8254	39705.1	38812.8
936.048	2052.3883	39615.45	38725.6
936.1849	2053.9504	39490.4	38602.2
936.3218	2055.5118	39329.25	38441.7
936.4586	2057.0725	39125.8	38235.3
936.5955	2058.6325	39064.8	38174.8
936.7323	2060.1917	38907.45	38018.1
936.869	2061.7502	38807.35	37917.5
937.0058	2063.3079	38580.75	37695.7
937.1425	2064.8649	38541.05	37649.85
937.2792	2066.4212	38479.4	37592.6
937.4159	2067.9767	38347	37455.8
937.5525	2069.5315	38167.1	37279.65
937.6891	2071.0856	38025.9	37136.75
937.8257	2072.6389	37884.55	36994.55
937.9623	2074.1915	37688.85	36801.25
938.0989	2075.7433	37532.5	36641.3
938.2354	2077.2945	37448.25	36562.3
938.3719	2078.8448	37341.2	36453.65
938.5084	2080.3945	37170.25	36283.15
938.6448	2081.9434	37150.8	36263.45
938.7812	2083.4916	37042.9	36154.6
938.9176	2085.039	36892.2	36002.1
939.054	2086.5857	36816.3	35925.85
939.1903	2088.1317	36725.2	35835.7
939.3267	2089.677	36628.1	35738.75
939.463	2091.2215	36536.75	35650.5
939.5992	2092.7652	36383.05	35493.1
939.7355	2094.3083	36331.65	35443.3
939.8717	2095.8506	36267.45	35380.6
940.0079	2097.3921	36249.45	35363.25
940.1441	2098.933	36076.6	35189.25
940.2802	2100.4731	35966.75	35080.15
940.4163	2102.0124	35898.55	34993.15
940.5524	2103.5511	35831.9	34943.55
940.6885	2105.089	35689.35	34801.1
940.8245	2106.6261	35645.8	34757.85
940.9606	2108.1626	35558.45	34668.75
941.0965	2109.6983	35513.85	34597.7
941.2325	2111.2332	35336.7	34447.6
941.3684	2112.7675	35269.8	34379.35
941.5044	2114.301	35134.85	34246.6
941.6403	2115.8337	35110.3	34222.5
941.7761	2117.3657	34986.1	34096.95
941.912	2118.897	34880.7	33992
942.0478	2120.4276	34786.85	33892.85
942.1835	2121.9575	34548.75	33658.4
942.3193	2123.4866	34592.1	33689.85
942.455	2125.0149	34490.45	33601.05
942.5907	2126.5426	34250.25	33360.2
942.7264	2128.0695	34164.9	33272.9
942.8621	2129.5956	34182.1	33295.6
942.9977	2131.1211	34046.1	33151.9
943.1333	2132.6458	33943	33055.45
943.2689	2134.1698	33883.4	32995.55
943.4044	2135.693	33784.7	32894.5
943.54	2137.2155	33693.95	32803.6
943.6755	2138.7373	33658.1	32769.95
943.8109	2140.2584	33532.05	32643.25
943.9464	2141.7787	33388.65	32495.5
944.0818	2143.2983	33213.45	32326.9
944.2172	2144.8171	33006.9	32120.95
944.3526	2146.3353	33009.85	32119.7
944.4879	2147.8527	32884.1	31997.2
944.6232	2149.3693	32858.5	31969.15
944.7585	2150.8853	32735.2	31845.15
944.8938	2152.4005	32576.75	31687.35
945.029	2153.9149	32537.75	31646.65
945.1642	2155.4287	32443.75	31554.95
945.2994	2156.9417	32382.85	31494.5
945.4346	2158.454	32250.35	31360.4
945.5697	2159.9655	32142.85	31254.7
945.7048	2161.4764	32089.15	31200.65
945.8399	2162.9865	32026.05	31137.2
945.9749	2164.4958	31914.05	31025.95
946.1099	2166.0045	31721.35	30827.7
946.2449	2167.5124	31698.65	30810.2
946.3799	2169.0195	31633.7	30744.65
946.5148	2170.526	31619.4	30731.2
946.6498	2172.0317	31487.25	30598.9
946.7846	2173.5367	31366.8	30478.35
946.9195	2175.0409	31266.8	30379.15
947.0543	2176.5445	31226.65	30337.7
947.1891	2178.0473	31078.85	30191.45
947.3239	2179.5494	30976.95	30084.6
947.4587	2181.0507	30873.5	29985.05
947.5934	2182.5513	30758.85	29872.3
947.7281	2184.0512	30743.4	29856.6
947.8628	2185.5504	30642.7	29756.5
947.9974	2187.0488	30469.05	29583.55
948.132	2188.5465	30365.75	29478.8
948.2666	2190.0435	30258.5	29369.5
948.4012	2191.5397	30130.05	29242.4
948.5357	2193.0353	30025.7	29137.4
948.6702	2194.5301	29867.3	28977.15
948.8047	2196.0241	29789.4	28901.45
948.9392	2197.5175	29738.4	28849.05
949.0736	2199.0101	29643.8	28752.65
949.208	2200.502	29415.55	28529.15
949.3424	2201.9931	29310.85	28423.25
949.4767	2203.4835	29225.15	28335.55
949.611	2204.9733	29196.2	28301.75
949.7453	2206.4622	29077.3	28190.45
949.8796	2207.9505	28975.5	28086.1
950.0138	2209.438	28829.3	27941.6
950.148	2210.9248	28775.3	27886.15
950.2822	2212.4109	28682.45	27794.55
950.4164	2213.8962	28530.5	27640.15
950.5505	2215.3809	28476.75	27587.9
950.6846	2216.8648	28416.75	27529
950.8186	2218.3479	28351.15	27457.85
950.9527	2219.8304	28171.35	27280.5
951.0867	2221.3121	28077.85	27187.85
951.2207	2222.7931	28004.05	27115.85
951.3546	2224.2733	27897.4	27009.2
951.4886	2225.7529	27846.7	26957.55
951.6225	2227.2317	27719.15	26828.1
951.7563	2228.7098	27649.1	26762.45
951.8902	2230.1872	27537.65	26649.95
952.024	2231.6638	27487.3	26599.1
952.1578	2233.1397	27375.1	26483.4
952.2916	2234.6149	27296.9	26409.1
952.4253	2236.0894	27205.1	26315.35
952.559	2237.5632	27208.7	26318.45
952.6927	2239.0362	27020.1	26132.55
952.8263	2240.5085	26936.15	26046.5
952.9599	2241.9801	26788.55	25900.5
953.0935	2243.4509	26712.5	25825.15
953.2271	2244.921	26679.9	25793
953.3606	2246.3904	26562.3	25672.45
953.4941	2247.8591	26472.5	25584.9
953.6276	2249.3271	26371.75	25484.85
953.7611	2250.7943	26316.55	25428.5
953.8945	2252.2608	26152.5	25268.3
954.0279	2253.7266	26125.55	25237.9
954.1612	2255.1917	26034.15	25147.4
954.2946	2256.656	25939.7	25050.15
954.4279	2258.1197	25862.45	24973.05
954.5612	2259.5826	25794	24903.75
954.6944	2261.0447	25773.3	24883.45
954.8276	2262.5062	25597.65	24707.35
954.9608	2263.9669	25593.4	24705.15
955.094	2265.4269	25540.65	24653.8
955.2271	2266.8862	25412.35	24527.75
955.3602	2268.3448	25381.9	24493.65
955.4933	2269.8026	25354.55	24464.5
955.6264	2271.2598	25265.45	24377.4
955.7594	2272.7162	25156.35	24270.6
955.8924	2274.1719	25064.15	24173.75
956.0253	2275.6268	24990.9	24103.6
956.1583	2277.0811	24977.25	24090.5
956.2912	2278.5346	24856.05	23968.15
956.4241	2279.9874	24828.7	23940.35
956.5569	2281.4395	24755.7	23866.9
956.6897	2282.8908	24626.8	23734.65
956.8225	2284.3414	24609.75	23720.25
956.9553	2285.7914	24466.5	23579.05
957.088	2287.2406	24410.45	23520.3
957.2207	2288.689	24339.1	23450.55
957.3534	2290.1368	24270.2	23382.4
957.486	2291.5838	24211.15	23322.25
957.6186	2293.0302	24138.5	23250.15
957.7512	2294.4758	24001.9	23114.4
957.8838	2295.9206	23933.45	23042.8
958.0163	2297.3648	23872.55	22984.25
958.1488	2298.8082	23851.2	22963.05
958.2813	2300.251	23747.5	22860.7
958.4137	2301.693	23662.5	22771.75
958.5461	2303.1343	23655.25	22766.9
958.6785	2304.5748	23525.55	22637.6
958.8108	2306.0147	23449.4	22561.45
958.9432	2307.4538	23407.35	22516.8
959.0754	2308.8922	23303.4	22414.15
959.2077	2310.3299	23198.3	22310.25
959.3399	2311.7669	23125.9	22239.65
959.4721	2313.2031	23040.85	22152.6
959.6043	2314.6387	22975.95	22088.1
959.7365	2316.0735	22912.2	22023.35
959.8686	2317.5076	22843.65	21954.7
960.0006	2318.941	22777.25	21890.8
960.1327	2320.3737	22703.15	21816.15
960.2647	2321.8056	22634.85	21744.35
960.3967	2323.2369	22539.3	21649.4
960.5287	2324.6674	22512.55	21622.4
960.6606	2326.0972	22387	21497.55
960.7925	2327.5263	22360.55	21473.1
960.9244	2328.9547	22234.1	21346.65
961.0562	2330.3823	22199.75	21311
961.1881	2331.8092	22139.65	21248.35
961.3198	2333.2355	22067.9	21181.25
961.4516	2334.661	22054.9	21166.5
961.5833	2336.0858	21967.05	21075.15
961.715	2337.5098	21931.45	21043.15
961.8467	2338.9332	21899.4	21011
961.9783	2340.3558	21786.3	20895.5
962.1099	2341.7778	21686.7	20798.5
962.2415	2343.199	21647.65	20756.7
962.373	2344.6195	21586.45	20698.7
962.5045	2346.0393	21520.6	20635.65
962.636	2347.4583	21466	20577.45
962.7675	2348.8767	21357.65	20469.35
962.8989	2350.2943	21295.25	20406.6
963.0303	2351.7113	21267	20377.7
963.1617	2353.1275	21198.25	20311.3
963.293	2354.543	21124.7	20229.15
963.4243	2355.9578	21070.95	20184.05
963.5556	2357.3718	20945.45	20057.3
963.6868	2358.7852	20842	19950.85
963.818	2360.1978	20785	19894.95
963.9492	2361.6098	20705.4	19818.95
964.0803	2363.021	20652.35	19759.35
964.2114	2364.4315	20592.15	19705.8
964.3425	2365.8413	20551.9	19664.25
964.4736	2367.2504	20474.85	19586.75
964.6046	2368.6587	20357.9	19470.8
964.7356	2370.0664	20279.15	19391.4
964.8666	2371.4733	20241.2	19353.45
964.9975	2372.8795	20156.45	19269
965.1284	2374.285	20090.65	19203.8
965.2593	2375.6899	19959.3	19073.55
965.3901	2377.0939	19868	18979.45
965.5209	2378.4973	19835.45	18948.1
965.6517	2379.9	19775.85	18888.05
965.7825	2381.3019	19697.55	18809.8
965.9132	2382.7032	19611.15	18723.5
966.0439	2384.1037	19596.2	18709.9
966.1745	2385.5035	19515.25	18627.05
966.3051	2386.9027	19459.95	18574.4
966.4357	2388.3011	19413.8	18523.95
966.5663	2389.6987	19350.75	18464.5
966.6968	2391.0957	19253	18366.3
966.8273	2392.492	19167.55	18281.25
966.9578	2393.8876	19039.85	18152.15
967.0882	2395.2824	19000.4	18112.55
967.2186	2396.6765	18905.1	18018.2
967.349	2398.07	18869.5	17982.5
967.4793	2399.4627	18781.65	17892.1
967.6097	2400.8547	18717.1	17831.5
967.7399	2402.246	18674.45	17780.65
967.8702	2403.6366	18551.95	17664.55
968.0004	2405.0265	18456.45	17570.2
968.1306	2406.4156	18419.8	17527.85
968.2607	2407.8041	18329.75	17440.5
968.3909	2409.1918	18252.95	17362.25
968.521	2410.5789	18208.05	17320.5
968.651	2411.9652	18147.9	17258.2
968.781	2413.3508	18071.3	17181.95
968.911	2414.7358	17988.15	17100.7
969.041	2416.12	17935.9	17050.2
969.1709	2417.5035	17872.2	16985.65
969.3008	2418.8863	17833.15	16944.3
969.4307	2420.2684	17786.85	16898.9
969.5606	2421.6497	17687.25	16798.75
969.6904	2423.0304	17562.45	16677.25
969.8201	2424.4104	17540.65	16653.7
969.9499	2425.7896	17458.95	16569.5
970.0796	2427.1682	17422.1	16534
970.2093	2428.546	17375.3	16486.55
970.3389	2429.9232	17332.9	16444.1
970.4685	2431.2996	17314.85	16427.4
970.5981	2432.6753	17242.5	16355.2
970.7277	2434.0503	17199	16311
970.8572	2435.4246	17088.25	16202.05
970.9867	2436.7982	17024.35	16137.1
971.1161	2438.1711	17013.9	16126.25
971.2456	2439.5433	16958	16069.15
971.375	2440.9148	16857.3	15965.55
971.5043	2442.2856	16784.4	15895.9
971.6336	2443.6557	16748.05	15857.75
971.7629	2445.025	16676.35	15789.7
971.8922	2446.3937	16634.15	15747.2
972.0214	2447.7617	16576.25	15688.25
972.1506	2449.1289	16550.3	15662.15
972.2798	2450.4955	16524.6	15632.5
972.4089	2451.8613	16416.85	15530.9
972.538	2453.2265	16408.2	15520.65
972.6671	2454.5909	16331.5	15443.05
972.7961	2455.9546	16310.35	15423.1
972.9251	2457.3177	16223.55	15338
973.0541	2458.68	16160.35	15272.35
973.1831	2460.0416	16121.4	15232.9
973.312	2461.4025	16129.65	15239.75
973.4408	2462.7627	16082.85	15182.45
973.5697	2464.1222	15992.1	15106
973.6985	2465.4811	15968.3	15078.15
973.8273	2466.8392	15893.8	15006.75
973.956	2468.1966	15894.85	15005.15
974.0847	2469.5533	15853.95	14962.45
974.2134	2470.9093	15814.8	14926.3
974.3421	2472.2645	15759.8	14869.05
974.4707	2473.6191	15707.05	14820.7
974.5993	2474.973	15629.55	14741
974.7278	2476.3262	15555.45	14666.1
974.8563	2477.6787	15512.05	14626.95
974.9848	2479.0305	15422.15	14534.35
975.1132	2480.3816	15379.3	14490.65
975.2417	2481.7319	15320.8	14435.6
975.37	2483.0816	15247.8	14355.95
975.4984	2484.4306	15210.1	14322.8
975.6267	2485.7789	15124.7	14237.75
975.755	2487.1264	15084.45	14197.05
975.8833	2488.4733	15034.45	14147.35
976.0115	2489.8195	14966.3	14073
976.1397	2491.165	14889.35	13999.9
976.2678	2492.5097	14854	13963.95
976.3959	2493.8538	14796.6	13908.9
976.524	2495.1972	14712.6	13824
976.6521	2496.5398	14686.3	13798.15
976.7801	2497.8818	14638.9	13748.5
976.9081	2499.2231	14569.4	13681.35
977.036	2500.5637	14521.45	13632.8
977.164	2501.9035	14480.5	13592.6
977.2918	2503.2427	14449.3	13558.4
977.4197	2504.5812	14393.25	13506.7
977.5475	2505.919	14339.3	13450.45
977.6753	2507.256	14293.45	13407.05
977.8031	2508.5924	14249.75	13363.15
977.9308	2509.9281	14199.65	13306.35
978.0585	2511.2631	14126.6	13238.3
978.1861	2512.5974	14107.25	13219.35
978.3137	2513.9309	14052.15	13163.4
978.4413	2515.2638	14039.95	13127.15
978.5689	2516.596	13963.85	13076.05
978.6964	2517.9275	13876.9	12988.95
978.8239	2519.2583	13835.7	12948.9
978.9513	2520.5884	13763.15	12873.7
979.0788	2521.9178	13731.95	12844
979.2062	2523.2465	13695.25	12810.15
979.3335	2524.5745	13610.45	12723.05
979.4608	2525.9018	13582.05	12695.1
979.5881	2527.2284	13572.8	12686.45
979.7154	2528.5543	13512.55	12626.85
979.8426	2529.8796	13462.1	12574.25
979.9698	2531.2041	13449.45	12561.7
980.0969	2532.5279	13392.05	12508
980.224	2533.851	13373.95	12485.4
980.3511	2535.1735	13324.9	12438.8
980.4781	2536.4952	13269.3	12383.2
980.6052	2537.8163	13267.9	12380.65
980.7321	2539.1366	13214.75	12329.35
980.8591	2540.4562	13167.3	12279.15
980.986	2541.7752	13136.25	12249.5
981.1129	2543.0935	13116.7	12229
981.2397	2544.411	13109.6	12221
981.3665	2545.7279	13070.7	12182.55
981.4933	2547.0441	13044.5	12158.05
981.62	2548.3596	13046.45	12156.45
981.7467	2549.6744	12980.5	12091.45
981.8734	2550.9885	12906.2	12011
982.0001	2552.3019	12893.85	12006.4
982.1267	2553.6146	12856.05	11969.2
982.2532	2554.9266	12810.2	11922.8
982.3798	2556.2379	12787.95	11897.65
982.5063	2557.5485	12755.05	11868.3
982.6327	2558.8585	12707.3	11810.7
982.7592	2560.1677	12687.4	11797.15
982.8856	2561.4762	12660.95	11774.95
983.0119	2562.7841	12641.45	11749.55
983.1383	2564.0913	12590.1	11704.6
983.2646	2565.3977	12549.9	11664.75
983.3908	2566.7035	12531.55	11643.45
983.517	2568.0086	12544.8	11656
983.6432	2569.313	12517.45	11629.65
983.7694	2570.6167	12478.35	11586.95
983.8955	2571.9197	12391.15	11503.1
984.0216	2573.222	12403.7	11511.2
984.1476	2574.5236	12382.4	11495.7
984.2737	2575.8246	12318.05	11427.85
984.3996	2577.1248	12323.75	11432.2
984.5256	2578.4244	12267.1	11380.1
984.6515	2579.7232	12248.45	11363.3
984.7774	2581.0214	12255.75	11345.8
984.9032	2582.3189	12196.65	11309.65
985.029	2583.6157	12165.7	11272.2
985.1548	2584.9118	12135.2	11247.55
985.2806	2586.2072	12101.6	11215.8
985.4063	2587.5019	12025.1	11137.75
985.5319	2588.7959	12006.4	11118.1
985.6576	2590.0893	12011.05	11120.4
985.7832	2591.3819	11954	11066.4
985.9087	2592.6739	11902.85	11015.05
986.0343	2593.9652	11879.8	10990.95
986.1597	2595.2557	11823.1	10936.75
986.2852	2596.5456	11768.25	10876.45
986.4106	2597.8348	11732.4	10844.55
986.536	2599.1234	11688.05	10801.15
986.6614	2600.4112	11632.9	10745
986.7867	2601.6983	11621.4	10730.5
986.912	2602.9848	11561.4	10673.45
987.0372	2604.2705	11529.1	10636.35
987.1624	2605.5556	11519.6	10630.15
987.2876	2606.84	11458.75	10571.6
987.4128	2608.1237	11402.65	10514.15
987.5379	2609.4067	11365.25	10477.85
987.6629	2610.689	11323.65	10427.65
987.788	2611.9707	11289.15	10398.35
987.913	2613.2516	11235.6	10343.65
988.0379	2614.5319	11175.45	10289.1
988.1629	2615.8115	11167.25	10279.75
988.2878	2617.0903	11091.2	10203
988.4126	2618.3685	11076.25	10187.3
988.5375	2619.6461	11003.9	10117.35
988.6622	2620.9229	10976.75	10088.75
988.787	2622.199	10921.6	10032.2
988.9117	2623.4745	10902.75	10015.25
989.0364	2624.7493	10880.9	9995.15
989.161	2626.0234	10868.7	9981.75
989.2857	2627.2968	10806.25	9920.35
989.4102	2628.5695	10749.25	9861.15
989.5348	2629.8415	10699.15	9812.15
989.6593	2631.1128	10644.05	9754.8
989.7837	2632.3835	10615.55	9728.85
989.9082	2633.6535	10562.45	9675.5
990.0326	2634.9228	10548	9660.95
990.1569	2636.1914	10490.85	9604.95
990.2812	2637.4593	10485.35	9593.65
990.4055	2638.7265	10452.2	9564
990.5298	2639.9931	10408	9521.65
990.654	2641.259	10388.35	9499.9
990.7782	2642.5242	10356.2	9467.1
990.9023	2643.7887	10311.85	9422.4
991.0264	2645.0525	10290.2	9402.7
991.1505	2646.3156	10251.6	9365.25
991.2745	2647.5781	10192.95	9307.5
991.3985	2648.8398	10159.75	9274
991.5225	2650.1009	10151.5	9224.75
991.6464	2651.3613	10126.4	9238.05
991.7703	2652.6211	10077.5	9190.05
991.8942	2653.8801	10048.1	9160.4
992.018	2655.1385	10029.4	9139.15
992.1418	2656.3961	9981.25	9092.8
992.2655	2657.6531	9977	9090.05
992.3892	2658.9094	9926.95	9041.05
992.5129	2660.1651	9919.4	9035.4
992.6366	2661.42	9888.3	9002.55
992.7602	2662.6743	9853.05	8965.65
992.8837	2663.9279	9835.1	8946.35
993.0073	2665.1808	9819.85	8933.45
993.1307	2666.433	9804.3	8916.85
993.2542	2667.6846	9736.35	8849.55
993.3776	2668.9354	9704.05	8812.65
993.501	2670.1856	9684	8795.75
993.6244	2671.4351	9663.95	8774.45
993.7477	2672.6839	9634	8745.8
993.8709	2673.9321	9635.55	8748.5
993.9942	2675.1795	9587.15	8699.4
994.1174	2676.4263	9551	8664.4
994.2405	2677.6724	9505.2	8617.75
994.3637	2678.9179	9499.6	8612.75
994.4868	2680.1626	9468.75	8583.15
994.6098	2681.4067	9449.35	8563.85
994.7328	2682.6501	9404.7	8516.4
994.8558	2683.8928	9367.1	8480.1
994.9788	2685.1348	9316.2	8429.5
995.1017	2686.3761	9295.35	8407.5
995.2245	2687.6168	9279.6	8392.2
995.3474	2688.8568	9251.65	8364.4
995.4702	2690.0961	9209.35	8323.25
995.5929	2691.3348	9199.45	8309.25
995.7156	2692.5727	9159.55	8272.3
995.8383	2693.81	9125.45	8238.15
995.961	2695.0466	9100.45	8214.05
996.0836	2696.2826	9050.8	8164.25
996.2062	2697.5178	9039.7	8151.3
996.3287	2698.7524	9011.9	8123.6
996.4512	2699.9863	9008.9	8119.6
996.5737	2701.2195	8952.3	8067.5
996.6961	2702.452	8944.9	8055.75
996.8185	2703.6839	8919.05	8030.8
996.9408	2704.9151	8879.45	7991.8
997.0631	2706.1456	8827.6	7942.95
997.1854	2707.3755	8825.55	7936.9
997.3077	2708.6046	8793.5	7904.9
997.4299	2709.8331	8784.7	7894.45
997.552	2711.0609	8727.25	7838.45
997.6742	2712.2881	8720.65	7834.45
997.7963	2713.5145	8679.9	7789.45
997.9183	2714.7403	8658.75	7770.15
998.0403	2715.9654	8627.05	7738.7
998.1623	2717.1899	8634.6	7733.3
998.2842	2718.4136	8608.5	7721.85
998.4062	2719.6367	8594.15	7706.65
998.528	2720.8591	8553.35	7660.35
998.6498	2722.0809	8514.65	7625.55
998.7716	2723.3019	8494.35	7603
998.8934	2724.5223	8467.5	7578.05
999.0151	2725.7421	8459.7	7572.2
999.1368	2726.9611	8434.75	7545.3
999.2584	2728.1795	8396.9	7504.65
999.38	2729.3972	8359.9	7472.65
999.5016	2730.6142	8316.1	7421.1
999.6231	2731.8306	8272.85	7384.95
999.7446	2733.0462	8245.85	7359.15
999.8661	2734.2612	8198.35	7306.55
999.9875	2735.4756	8155.35	7265.45
1000.1089	2736.6892	8092.5	7205
1000.2302	2737.9022	8046.35	7159.75
1000.3515	2739.1145	8005.4	7119.55
1000.4728	2740.3262	7996.3	7101.25
1000.594	2741.5372	7949.9	7063
1000.7152	2742.7475	7895.2	7006.55
1000.8363	2743.9571	7875.1	6985.5
1000.9575	2745.1661	7868.35	6976.05
1001.0785	2746.3744	7818.8	6932.55
1001.1996	2747.582	7794.65	6906.8
1001.3206	2748.7889	7752.3	6864.45
1001.4415	2749.9952	7727.75	6841.5
1001.5625	2751.2008	7680.9	6791.65
1001.6833	2752.4057	7669.8	6781.25
1001.8042	2753.61	7648.3	6760.45
1001.925	2754.8136	7634	6743.85
1002.0458	2756.0165	7597.4	6710.85
1002.1665	2757.2188	7569.4	6682.4
1002.2872	2758.4204	7539.25	6654.5
1002.4078	2759.6213	7503.35	6613.85
1002.5285	2760.8215	7476.2	6584.45
1002.649	2762.0211	7465.35	6576.05
1002.7696	2763.22	7438.6	6547.2
1002.8901	2764.4182	7425.35	6537.15
1003.0106	2765.6158	7400.75	6513.95
1003.131	2766.8127	7357.35	6470.15
1003.2514	2768.009	7335.15	6450.1
1003.3717	2769.2045	7326.3	6437.75
1003.492	2770.3994	7304.65	6416.45
1003.6123	2771.5936	7273.7	6385.3
1003.7325	2772.7872	7233.45	6347.85
1003.8527	2773.9801	7199.8	6312.55
1003.9729	2775.1723	7182.5	6277.85
1004.093	2776.3639	7133.2	6247
1004.2131	2777.5548	7123.7	6233.95
1004.3331	2778.745	7119.15	6228.55
1004.4531	2779.9346	7092.35	6204.15
1004.5731	2781.1235	7084.25	6196.8
1004.693	2782.3117	7058.45	6173.55
1004.8129	2783.4992	7008.4	6122.9
1004.9328	2784.6861	7004.55	6117.1
1005.0526	2785.8723	6999.25	6109.6
1005.1723	2787.0579	6964.55	6076.2
1005.2921	2788.2428	6940.1	6052.4
1005.4118	2789.427	6921.1	6033.7
1005.5314	2790.6106	6891.95	6002.4
1005.651	2791.7935	6876.7	5989.8
1005.7706	2792.9757	6860.2	5974.6
1005.8902	2794.1573	6839.2	5949.6
1006.0097	2795.3382	6819.45	5932.4
1006.1291	2796.5184	6789.75	5903.75
1006.2485	2797.698	6790.6	5903.2
1006.3679	2798.8769	6795.65	5909.25
1006.4873	2800.0551	6771	5882.3
1006.6066	2801.2327	6748.55	5859.25
1006.7258	2802.4096	6753.15	5867.25
1006.8451	2803.5859	6735.6	5849.8
1006.9642	2804.7615	6737.5	5848.3
1007.0834	2805.9364	6739.65	5853.75
1007.2025	2807.1106	6745.05	5860.05
1007.3216	2808.2842	6731.8	5843.45
1007.4406	2809.4572	6735.1	5848
1007.5596	2810.6294	6751.75	5861.35
1007.6785	2811.801	6758.45	5871.3
1007.7975	2812.972	6789.85	5904.75
1007.9163	2814.1423	6792.45	5906.25
1008.0352	2815.3119	6804.1	5917.5
1008.154	2816.4808	6830.6	5945.6
1008.2727	2817.6491	6853.05	5964.15
1008.3914	2818.8167	6886.95	6002.15
1008.5101	2819.9837	6921.3	6030.75
1008.6288	2821.15	6948.4	6060.7
1008.7474	2822.3157	6958.1	6072.45
1008.8659	2823.4807	7001.75	6113.8
1008.9844	2824.645	7028.9	6140.55
1009.1029	2825.8086	7055.8	6167.9
1009.2214	2826.9716	7072.9	6184.9
1009.3398	2828.134	7123.35	6236.15
1009.4581	2829.2957	7124.75	6236.3
1009.5764	2830.4567	7139.45	6253.3
1009.6947	2831.617	7122.35	6234.4
1009.813	2832.7767	7142.6	6258.3
1009.9312	2833.9358	7125.85	6240.85
1010.0493	2835.0941	7119.6	6230.4
1010.1675	2836.2519	7088.6	6203.5
1010.2855	2837.4089	7066.4	6178.15
1010.4036	2838.5653	7050.95	6164.35
1010.5216	2839.7211	7008.8	6123.05
1010.6396	2840.8761	7014.1	6125.55
1010.7575	2842.0306	7008.85	6124.05
1010.8754	2843.1843	7034.35	6147.35
1010.9932	2844.3374	7056.65	6169.25
1011.111	2845.4899	7071.7	6184.2
1011.2288	2846.6417	7090.55	6204.05
1011.3465	2847.7928	7178.95	6294.15
1011.4642	2848.9433	7215	6329.95
1011.5818	2850.0931	7265.7	6379.2
1011.6995	2851.2422	7306.9	6419.35
1011.817	2852.3907	7361	6471.75
1011.9345	2853.5385	7395.9	6506.55
1012.052	2854.6857	7415.25	6517.95
1012.1695	2855.8323	7433.25	6546.95
1012.2869	2856.9781	7461.45	6574.4
1012.4042	2858.1233	7507	6619.85
1012.5216	2859.2679	7535.45	6650.7
1012.6389	2860.4118	7536.75	6649.15
1012.7561	2861.555	7556.2	6663.25
1012.8733	2862.6976	7591.3	6702.3
1012.9905	2863.8395	7598	6710.8
1013.1076	2864.9808	7600.15	6712.65
1013.2247	2866.1214	7595.75	6710.7
1013.3417	2867.2614	7600.05	6712.7
1013.4587	2868.4007	7585.55	6697.25
1013.5757	2869.5393	7582.1	6692.45
1013.6926	2870.6773	7596.7	6707.4
1013.8095	2871.8146	7578.75	6690.3
1013.9263	2872.9513	7532.2	6640.9
1014.0431	2874.0874	7512.45	6627.4
1014.1599	2875.2227	7495.35	6606.45
1014.2766	2876.3574	7480.6	6591.85
1014.3933	2877.4915	7431.9	6546.85
1014.51	2878.6249	7370.25	6484.35
1014.6266	2879.7577	7342.85	6457.25
1014.7431	2880.8898	7286.45	6389.55
1014.8596	2882.0212	7251.5	6364.6
1014.9761	2883.152	7226.1	6338.95
1015.0925	2884.2821	7189.05	6303.4
1015.2089	2885.4116	7173.5	6287.55
1015.3253	2886.5405	7148.3	6262.6
1015.4416	2887.6686	7126.05	6236.1
1015.5579	2888.7962	7106.25	6221.85
1015.6741	2889.923	7122.05	6236.15
1015.7903	2891.0493	7100.2	6215.55
1015.9065	2892.1748	7091.9	6203.8
1016.0226	2893.2997	7102.15	6215.45
1016.1387	2894.424	7080.8	6196.15
1016.2547	2895.5476	7077	6190.35
1016.3707	2896.6706	7092.8	6207.8
1016.4866	2897.7929	7078.6	6191.4
1016.6025	2898.9145	7090.2	6202.75
1016.7184	2900.0355	7090.5	6204.9
1016.8342	2901.1559	7094.75	6205.5
1016.95	2902.2756	7115.55	6229.9
1017.0658	2903.3946	7116.7	6229.4
1017.1815	2904.513	7111.75	6220.85
1017.2971	2905.6308	7128.9	6243.65
1017.4127	2906.7479	7130.4	6241.5
1017.5283	2907.8643	7120.95	6233.7
1017.6439	2908.9801	7109.45	6225.2
1017.7594	2910.0953	7123.75	6234.8
1017.8748	2911.2098	7097.25	6208.6
1017.9902	2912.3236	7084.25	6190.6
1018.1056	2913.4368	7046.3	6155.8
1018.2209	2914.5494	7044.6	6155.7
1018.3362	2915.6613	7001.5	6108.25
1018.4515	2916.7725	6945.45	6055.1
1018.5667	2917.8831	6907.45	6019.4
1018.6819	2918.9931	6879.65	5991.75
1018.797	2920.1024	6838.65	5951.05
1018.9121	2921.211	6821	5934.85
1019.0271	2922.319	6746.4	5859.85
1019.1421	2923.4264	6742.4	5855.95
1019.2571	2924.5331	6725.65	5838
1019.372	2925.6391	6690.6	5803
1019.4869	2926.7445	6670.2	5784.85
1019.6017	2927.8493	6662.1	5775.95
1019.7165	2928.9534	6636.85	5748.8
1019.8313	2930.0569	6614.45	5724.55
1019.946	2931.1597	6627.25	5737.4
1020.0606	2932.2619	6597.5	5711.15
1020.1753	2933.3634	6582.3	5697.35
1020.2899	2934.4643	6550.1	5659.05
1020.4044	2935.5645	6535.55	5641.85
1020.5189	2936.6641	6503.85	5613.9
1020.6334	2937.763	6433.55	5547
1020.7478	2938.8613	6406.5	5519.75
1020.8622	2939.959	6328.1	5434.75
1020.9765	2941.056	6256.25	5370.25
1021.0908	2942.1523	6195.15	5307.4
1021.2051	2943.248	6096.2	5208.65
1021.3193	2944.3431	5987.6	5102.7
1021.4334	2945.4375	5894.15	5008.5
1021.5476	2946.5313	5771.15	4885.45
1021.6617	2947.6244	5676.15	4787.05
1021.7757	2948.7169	5573.15	4685.6
1021.8897	2949.8087	5494.9	4607.65
1022.0037	2950.8999	5382.6	4497
1022.1176	2951.9904	5298.6	4411.55
1022.2315	2953.0803	5215	4327.15
1022.3453	2954.1696	5131.45	4244.2
1022.4591	2955.2582	5058.9	4171.95
1022.5728	2956.3462	5022.95	4136.15
1022.6865	2957.4335	4979.05	4089.6
1022.8002	2958.5202	4918.3	4029.05
1022.9138	2959.6062	4885.05	3996.95
1023.0274	2960.6916	4858.3	3971.4
1023.141	2961.7764	4827.6	3941.95
1023.2545	2962.8605	4778.8	3890.35
1023.3679	2963.9439	4776.85	3890.4
1023.4813	2965.0267	4739.45	3850.35
1023.5947	2966.1089	4743.65	3831.95
1023.708	2967.1905	4691.75	3803.7
1023.8213	2968.2714	4671.75	3785.75
1023.9346	2969.3516	4660.2	3773.6
1024.0478	2970.4312	4658.5	3765.6
1024.1609	2971.5102	4645.85	3761.65
1024.274	2972.5885	4620.55	3734.9
1024.3871	2973.6662	4623.25	3732.2
1024.5002	2974.7432	4612.8	3726.9
1024.6132	2975.8196	4596.6	3709.85
1024.7261	2976.8954	4573.9	3687.4
1024.839	2977.9705	4555.25	3669.75
1024.9519	2979.045	4521.35	3635.9
1025.0647	2980.1188	4489.9	3602.15
1025.1775	2981.192	4468.7	3582.8
1025.2902	2982.2645	4442.05	3554.2
1025.4029	2983.3364	4398.45	3513.6
1025.5156	2984.4077	4372.1	3485.6
1025.6282	2985.4783	4344.4	3452.45
1025.7407	2986.5483	4297.15	3411.5
1025.8532	2987.6177	4264.7	3377.75
1025.9657	2988.6864	4212.4	3326
1026.0782	2989.7545	4165.4	3277.2
1026.1906	2990.8219	4142.8	3257.1
1026.3029	2991.8887	4093.5	3204.25
1026.4152	2992.9548	4066.7	3179.25
1026.5275	2994.0204	4028.75	3142.45
1026.6397	2995.0852	3978.2	3094.2
1026.7519	2996.1495	3953.85	3066.25
1026.864	2997.2131	3913.8	3028.25
1026.9761	2998.276	3892.25	3004.65
1027.0882	2999.3383	3860.2	2970.1
1027.2002	3000.4	3829.1	2941.75
1027.3122	3001.4611	3797.15	2908.9
1027.4241	3002.5215	3779.75	2893.9
1027.536	3003.5812	3762.65	2876.85
1027.6478	3004.6404	3720.65	2833.65
1027.7596	3005.6989	3719.3	2829.95
1027.8714	3006.7567	3706.65	2820.15
1027.9831	3007.8139	3697.05	2790.95
1028.0947	3008.8705	3657.75	2769.45
1028.2064	3009.9264	3643.7	2754.65
1028.3179	3010.9818	3632.05	2746.1
1028.4295	3012.0364	3615.65	2727.55
1028.541	3013.0905	3607.7	2720
1028.6524	3014.1439	3604.45	2719.25
1028.7638	3015.1966	3591.35	2704.5
1028.8752	3016.2487	3578.8	2693.5
1028.9865	3017.3002	3569.8	2679.35
1029.0978	3018.3511	3546.25	2660.65
1029.209	3019.4013	3548.95	2662.9
1029.3202	3020.4509	3528.95	2644.1
1029.4314	3021.4998	3515.1	2629.75
1029.5425	3022.5481	3506.95	2621.8
1029.6535	3023.5958	3496.4	2610.3
1029.7645	3024.6428	3495.55	2607.85
1029.8755	3025.6892	3477.65	2591.15
1029.9864	3026.735	3464.45	2576.1
1030.0973	3027.7802	3454.65	2568.65
1030.2082	3028.8247	3446.35	2559.9
1030.319	3029.8685	3442.1	2555.35
1030.4297	3030.9118	3417.85	2530.95
1030.5404	3031.9544	3421.5	2535.6
1030.6511	3032.9963	3411.8	2525.45
1030.7617	3034.0376	3403.4	2519.1
1030.8723	3035.0783	3408.9	2519.95
1030.9829	3036.1184	3404.85	2518.4
1031.0934	3037.1578	3373.9	2486.1
1031.2038	3038.1966	3381.15	2492.15
1031.3142	3039.2348	3370.55	2484.85
1031.4246	3040.2723	3376.3	2481.65
1031.5349	3041.3092	3356.55	2471.05
1031.6452	3042.3455	3342.6	2454.35
1031.7554	3043.3811	3329.65	2442.4
1031.8656	3044.4161	3327.65	2441.2
1031.9758	3045.4505	3322.65	2437.85
1032.0859	3046.4842	3299.6	2413.4
1032.1959	3047.5173	3280.75	2394
1032.3059	3048.5498	3272.3	2384.2
1032.4159	3049.5816	3247.65	2358.8
1032.5258	3050.6128	3257.45	2368.65
1032.6357	3051.6434	3237.15	2349.1
1032.7455	3052.6734	3228.4	2341.4
1032.8553	3053.7027	3208.4	2322.95
1032.9651	3054.7314	3197.5	2311.15
1033.0748	3055.7594	3184.5	2298.05
1033.1845	3056.7868	3173.25	2286.8
1033.2941	3057.8136	3158.45	2271.6
1033.4037	3058.8398	3149.2	2263.4
1033.5132	3059.8653	3127.1	2240.95
1033.6227	3060.8902	3122.05	2236.25
1033.7321	3061.9145	3110.3	2222.95
1033.8415	3062.9381	3098	2210.75
1033.9509	3063.9612	3103.75	2202.55
1034.0602	3064.9835	3081.6	2195.95
1034.1694	3066.0053	3063.55	2175.05
1034.2787	3067.0264	3053.15	2168.5
1034.3878	3068.0469	3041	2153.4
1034.497	3069.0668	3034.5	2144.6
1034.6061	3070.086	3006.3	2120.6
1034.7151	3071.1046	3006.55	2118.75
1034.8241	3072.1226	2984.85	2096.4
1034.9331	3073.1399	2981.25	2094.85
1035.042	3074.1567	2974.6	2088.15
1035.1508	3075.1727	2935.8	2047.5
1035.2597	3076.1882	2926.5	2037.85
1035.3684	3077.203	2905.45	2018.2
1035.4772	3078.2173	2894.8	2008.5
1035.5859	3079.2308	2881.85	1993.6
1035.6945	3080.2438	2865.9	1977.05
1035.8031	3081.2561	2861.45	1974.45
1035.9117	3082.2678	2857.3	1972.45
1036.0202	3083.2789	2846	1960
1036.1286	3084.2893	2830.4	1942.45
1036.2371	3085.2991	2832.9	1946.2
1036.3454	3086.3083	2819.05	1928.55
1036.4538	3087.3169	2784.95	1897.75
1036.562	3088.3248	2790.45	1904.15
1036.6703	3089.3321	2770.55	1883.55
1036.7785	3090.3388	2736.45	1849.8
1036.8866	3091.3449	2741.35	1856.65
1036.9948	3092.3503	2744.2	1854.5
1037.1028	3093.3551	2712.6	1825.2
1037.2108	3094.3593	2716	1830.45
1037.3188	3095.3629	2706.45	1820.6
1037.4267	3096.3658	2687.05	1800.65
1037.5346	3097.3681	2681.35	1796.55
1037.6425	3098.3698	2678.25	1790.9
1037.7503	3099.3708	2668.15	1775.55
1037.858	3100.3713	2646.95	1763.6
1037.9657	3101.3711	2633.75	1748.05
1038.0734	3102.3702	2740.8	1714.35
1038.181	3103.3688	2627.75	1740.2
1038.2886	3104.3667	2595.3	1709.45
1038.3961	3105.364	2600.6	1713.9
1038.5036	3106.3607	2596.2	1710.4
1038.611	3107.3568	2579.3	1691.5
1038.7184	3108.3522	2568	1683.35
1038.8257	3109.347	2552.45	1664.95
1038.933	3110.3412	2551.85	1661.3
1039.0403	3111.3348	2537.95	1652.05
1039.1475	3112.3277	2527.3	1639.35
1039.2547	3113.32	2518.7	1634.8
1039.3618	3114.3117	2508.1	1622.25
1039.4689	3115.3028	2495.85	1608.4
1039.5759	3116.2932	2485	1597
1039.6829	3117.2831	2487.9	1596.45
1039.7898	3118.2723	2475.05	1586.6
1039.8967	3119.2608	2465.75	1579.65
1040.0035	3120.2488	2447.7	1561.55
1040.1103	3121.2361	2447.55	1559.85
1040.2171	3122.2229	2427.35	1540.7
1040.3238	3123.209	2429.2	1542.7
1040.4305	3124.1944	2413.8	1528.7
1040.5371	3125.1793	2412.6	1524.4
1040.6437	3126.1635	2401.45	1516.6
1040.7502	3127.1471	2400.65	1516.45
1040.8567	3128.1301	2371.35	1484.4
1040.9631	3129.1125	2363.2	1478.1
1041.0695	3130.0942	2366.9	1479.15
1041.1759	3131.0753	2377.4	1484.25
1041.2822	3132.0558	2363.8	1473.65
1041.3884	3133.0357	2353.8	1467.35
1041.4946	3134.015	2351.15	1464.6
1041.6008	3134.9936	2342.2	1454.15
1041.7069	3135.9716	2343.75	1438.15
1041.813	3136.949	2331.7	1444.45
1041.919	3137.9258	2312.5	1422.75
1042.025	3138.902	2315.4	1426
1042.1309	3139.8775	2304.8	1419
1042.2368	3140.8524	2293	1407.5
1042.3427	3141.8267	2296.5	1409.7
1042.4485	3142.8004	2282.65	1395.4
1042.5542	3143.7735	2274.15	1382.85
1042.6599	3144.7459	2278.95	1388.6
1042.7656	3145.7178	2269.7	1384.4
1042.8712	3146.689	2260.15	1374.9
1042.9768	3147.6596	2249.4	1361.75
1043.0823	3148.6295	2251.35	1365.85
1043.1878	3149.5989	2229.75	1342.45
1043.2932	3150.5676	2220.35	1334.95
1043.3986	3151.5357	2227.35	1341.7
1043.5039	3152.5032	2216.5	1331.1
1043.6092	3153.4701	2197.1	1311.65
1043.7145	3154.4364	2200.95	1310.35
1043.8197	3155.402	2189.5	1304.2
1043.9248	3156.367	2192.15	1305.65
1044.03	3157.3315	2214.6	1283.15
1044.135	3158.2952	2171.8	1285.6
1044.24	3159.2584	2161.15	1275.9
1044.345	3160.221	2157.8	1270.85
1044.4499	3161.1829	2148.2	1261.4
1044.5548	3162.1442	2140.4	1255.9
1044.6596	3163.105	2132.9	1248.6
1044.7644	3164.065	2121.05	1233.55
1044.8692	3165.0245	2112.3	1222.9
1044.9739	3165.9834	2113.9	1229.95
1045.0785	3166.9416	2103.7	1217.35
1045.1831	3167.8993	2090.5	1203.95
1045.2877	3168.8563	2095.7	1209.4
1045.3922	3169.8127	2085.95	1200.25
1045.4966	3170.7684	2072.95	1185.4
1045.6011	3171.7236	2079.3	1190.85
1045.7054	3172.6782	2070.5	1186.1
1045.8098	3173.6321	2059.4	1173.2
1045.914	3174.5854	2058.1	1169.3
1046.0183	3175.5381	2049.55	1164.55
1046.1224	3176.4902	2040.6	1153.05
1046.2266	3177.4417	2032.4	1147.15
1046.3307	3178.3926	2019.05	1134.1
1046.4347	3179.3428	2025.7	1139.05
1046.5387	3180.2924	2013.85	1129.05
1046.6427	3181.2415	2006.55	1118.3
1046.7466	3182.1899	2002	1111.7
1046.8504	3183.1377	1988.5	1104.15
1046.9542	3184.0848	1989.65	1097.5
1047.058	3185.0314	1977.45	1091.2
1047.1617	3185.9773	1979.1	1091.5
1047.2654	3186.9227	1968.25	1080.9
1047.369	3187.8674	1964.55	1079.3
1047.4726	3188.8115	1969.55	1078.9
1047.5761	3189.755	1952.95	1067.05
1047.6796	3190.6979	1944.55	1058.9
1047.783	3191.6402	1949.65	1064.2
1047.8864	3192.5818	1944.35	1057.65
1047.9898	3193.5229	1959.1	1047.95
1048.0931	3194.4633	1935.3	1049.45
1048.1963	3195.4031	1924.05	1036.65
1048.2995	3196.3423	1917.8	1031.65
1048.4027	3197.2809	1909.2	1022.55
1048.5058	3198.2189	1909.8	1024.75
1048.6089	3199.1563	1905.75	1013.5
1048.7119	3200.0931	1897.35	1012.1
1048.8148	3201.0292	1888.05	1002.75
1048.9178	3201.9648	1888.55	1003.6
1049.0206	3202.8997	1886.85	996.8
1049.1235	3203.834	1876.4	990.55
1049.2262	3204.7677	1870.9	985.4
1049.329	3205.7008	1872.45	984.55
1049.4317	3206.6333	1859.2	975.8
1049.5343	3207.5652	1858.55	971.75
1049.6369	3208.4964	1843.55	957.4
1049.7394	3209.4271	1843.8	957.7
1049.8419	3210.3571	1837.9	951.25
1049.9444	3211.2865	1840.6	953.05
1050.0468	3212.2154	1835.75	947
1050.1491	3213.1436	1828	940.3
1050.2514	3214.0712	1826.1	933.2
1050.3537	3214.9982	1811.3	923
1050.4559	3215.9246	1814.35	929.35
1050.5581	3216.8503	1815.85	932.45
1050.6602	3217.7755	1805	920.25
1050.7623	3218.7001	1805.25	918.45
1050.8643	3219.624	1797.7	910.35
1050.9663	3220.5473	1781.35	894.35
1051.0682	3221.4701	1787.2	901.1
1051.1701	3222.3922	1776.95	888.75
1051.2719	3223.3137	1769.95	883.75
1051.3737	3224.2346	1770.85	884.4
1051.4754	3225.1549	1768.65	883.2
1051.5771	3226.0746	1758.8	871.65
1051.6788	3226.9937	1754.55	868.85
1051.7804	3227.9121	1752.15	865.75
1051.8819	3228.83	1742.3	857.35
1051.9834	3229.7473	1749.85	863.2
1052.0849	3230.6639	1743.1	858.55
1052.1863	3231.5799	1737.25	851.1
1052.2876	3232.4954	1718.2	832.15
1052.3889	3233.4102	1723.25	835.95
1052.4902	3234.3244	1720.65	832.55
1052.5914	3235.238	1718.05	832.65
1052.6926	3236.151	1732.95	821.3
1052.7937	3237.0634	1697.65	811.7
1052.8948	3237.9752	1693.55	806.3
1052.9958	3238.8864	1699	813.5
1053.0968	3239.797	1687.65	802.65
1053.1977	3240.7069	1680.45	792.75
1053.2986	3241.6163	1679.3	791.6
1053.3994	3242.5251	1673.65	788.5
1053.5002	3243.4332	1670.45	783.05
1053.6009	3244.3408	1661.3	773.85
1053.7016	3245.2477	1658.65	771.2
1053.8022	3246.154	1657	770.25
1053.9028	3247.0598	1643.65	756.1
1054.0034	3247.9649	1641.1	756.7
1054.1039	3248.8694	1636.5	750.3
1054.2043	3249.7733	1640.25	754.65
1054.3047	3250.6766	1642.4	755.7
1054.4051	3251.5793	1629.3	739.7
1054.5054	3252.4814	1617.3	731.4
1054.6056	3253.3829	1621.45	735.25
1054.7058	3254.2838	1614.95	730.5
1054.806	3255.1841	1608.8	725.65
1054.9061	3256.0838	1598.05	711.7
1055.0061	3256.9829	1600.8	715.75
1055.1062	3257.8814	1589.6	701.3
1055.2061	3258.7792	1586.75	697.85
1055.306	3259.6765	1574.4	686.6
1055.4059	3260.5731	1565.3	677.8
1055.5057	3261.4692	1570.95	683.15
1055.6055	3262.3647	1549.1	661.75
1055.7052	3263.2595	1537.1	649.65
1055.8049	3264.1538	1534.95	649.15
1055.9045	3265.0474	1528.35	642.75
1056.0041	3265.9404	1517.7	631.65
1056.1036	3266.8329	1510.2	624.75
1056.2031	3267.7247	1502.9	606.65
1056.3025	3268.616	1482.45	597.15
1056.4019	3269.5066	1464.7	579
1056.5013	3270.3966	1453.9	567.05
1056.6005	3271.286	1430.45	544.3
