Software Version:	3.9.2.0
Unit SN:	10000200
Spectrometer SN:	6960
Date:	3/6/2024 10:46:42 AM
Data Line Index:	25
Spectral Points:	2048
Integration time (ms):	125
Averages:	20
Delay (ms):	30
Sequence Number:	1
Processing:	dark subtract
Laser Power (mW):	300
Laser Current (mA):	822
Laser Diode Temp (C):	25.1
Laser Case Temp (C):	27.4
System Temp (C):	27.2
Spectrometer Temp (C):	24.5
CCD Temp (C):	0.001
Secondary Temp (C):	20.007
Heatsink Temp (C):	23.046
CCDPCB Temp (C):	36.729
SecondaryPCB Temp (C):	34.195

Wavelength	RamanShift	Raw Counts	Dark Subtracted
787.061	30.1047	1126.9	713.65
787.2016	32.3739	1164.85	752.55
787.3422	34.6426	1216.25	804.25
787.4828	36.9109	1261.2	847.8
787.6235	39.1787	1314.8	898.05
787.7642	41.4461	1381.6	957.75
787.9049	43.7131	1450	1023.25
788.0456	45.9796	1506.2	1075.15
788.1863	48.2456	1589.75	1156.6
788.3271	50.5112	1652.8	1214.65
788.4679	52.7764	1735.35	1294.8
788.6087	55.0411	1810.2	1366.5
788.7496	57.3054	1905.95	1457
788.8904	59.5692	1980.5	1529.7
789.0313	61.8326	2096.95	1641.75
789.1722	64.0955	2196.85	1738.8
789.3132	66.3579	2328.25	1865.45
789.4541	68.6199	2481.9	2016.25
789.5951	70.8815	2733.8	2265.8
789.7361	73.1426	3266.25	2792.4
789.8771	75.4032	4599.3	4119.05
790.0181	77.6634	7964.9	7480.4
790.1592	79.9231	16804.55	16314.55
790.3003	82.1824	55233.4	54737.5
790.4414	84.4412	65535	65017.45
790.5825	86.6995	65535	64991.85
790.7237	88.9574	65535	64969.35
790.8648	91.2148	65535	64951.65
791.006	93.4717	65535	64940.8
791.1472	95.7282	65535	64935.75
791.2885	97.9842	65535	64931.9
791.4297	100.2398	65535	64927.2
791.571	102.4949	65535	64921.85
791.7123	104.7495	65535	64918.75
791.8536	107.0036	65535	64919.6
791.9949	109.2573	65535	64921.4
792.1363	111.5105	65535	64919.45
792.2777	113.7632	65535	64915.8
792.4191	116.0154	65535	64907.9
792.5605	118.2672	65535	64911.55
792.7019	120.5185	65535	64909.7
792.8434	122.7693	65535	64904.9
792.9849	125.0197	65535	64906.35
793.1264	127.2696	65535	64901.75
793.2679	129.519	65535	64898.15
793.4094	131.7679	65535	64898.35
793.551	134.0163	65535	64892.6
793.6926	136.2642	65535	64888.6
793.8342	138.5117	65535	64878.45
793.9758	140.7587	65535	64886.5
794.1175	143.0052	65535	64884.7
794.2591	145.2512	65535	64881.7
794.4008	147.4967	65535	64881.25
794.5425	149.7417	65535	64881.35
794.6842	151.9863	65535	64877.45
794.826	154.2304	65535	64871.65
794.9677	156.4739	65535	64866.2
795.1095	158.717	65535	64868.25
795.2513	160.9596	65535	64862
795.3931	163.2017	65535	64859.35
795.535	165.4433	65535	64857.6
795.6768	167.6844	65535	64855.75
795.8187	169.925	65535	64853.75
795.9606	172.1651	65535	64853.05
796.1025	174.4047	65535	64847.15
796.2445	176.6439	65535	64845.55
796.3864	178.8825	65535	64844.65
796.5284	181.1206	65535	64841.75
796.6704	183.3582	65535	64834
796.8124	185.5954	65535	64835.25
796.9544	187.832	65535	64827.5
797.0965	190.0681	65535	64827.45
797.2386	192.3037	65535	64826.5
797.3806	194.5388	65535	64823.15
797.5228	196.7734	65535	64820.85
797.6649	199.0075	65535	64815.1
797.807	201.2411	65535	64814.85
797.9492	203.4742	65535	64812.75
798.0914	205.7068	65535	64811.2
798.2336	207.9389	65535	64808.9
798.3758	210.1704	65535	64805.5
798.518	212.4015	65535	64804.8
798.6603	214.632	65535	64813.8
798.8025	216.862	65535	64823.9
798.9448	219.0915	65535	64824.25
799.0871	221.3205	65535	64822.1
799.2294	223.549	65535	64830.95
799.3718	225.777	65535	64829.05
799.5141	228.0044	65535	64822.75
799.6565	230.2314	65535	64827.9
799.7989	232.4578	65535	64823.7
799.9413	234.6837	65535	64813.4
800.0837	236.909	65535	64815.8
800.2262	239.1339	65535	64789.5
800.3687	241.3582	65535	64804.15
800.5111	243.582	65535	64771.05
800.6536	245.8053	65535	64782.7
800.7961	248.0281	65535	64790.95
800.9387	250.2503	65535	64782.4
801.0812	252.472	65535	64781.75
801.2238	254.6932	65535	64782.5
801.3664	256.9139	65535	64781.45
801.509	259.134	65535	64776.35
801.6516	261.3536	65535	64776.1
801.7942	263.5727	65535	64778.2
801.9369	265.7912	65535	64777.65
802.0795	268.0092	65535	64776.15
802.2222	270.2267	65535	64772.1
802.3649	272.4436	65535	64775.7
802.5076	274.6601	65535	64768.2
802.6504	276.8759	65535	64773.5
802.7931	279.0913	65535	64767.45
802.9359	281.3061	65535	64766.95
803.0787	283.5204	65535	64761.3
803.2215	285.7341	65535	64759.5
803.3643	287.9473	65535	64747.5
803.5071	290.16	65535	64755.3
803.6499	292.3721	65535	64760.2
803.7928	294.5837	65535	64760.2
803.9357	296.7947	65535	64759.15
804.0786	299.0052	65535	64761
804.2215	301.2152	65535	64756.8
804.3644	303.4246	65535	64759.05
804.5074	305.6334	65535	64762.45
804.6503	307.8418	65535	64757.3
804.7933	310.0495	65535	64757.3
804.9363	312.2568	65535	64757.45
805.0793	314.4635	65535	64755.05
805.2223	316.6696	65535	64751.2
805.3653	318.8752	65535	64739.2
805.5084	321.0802	65535	64751.7
805.6514	323.2847	65535	64748.3
805.7945	325.4887	65535	64748.45
805.9376	327.692	65535	64746.95
806.0807	329.8949	65535	64747.15
806.2238	332.0972	65535	64742.55
806.367	334.2989	65535	64740.7
806.5101	336.5001	65535	64738.95
806.6533	338.7007	65535	64739.5
806.7965	340.9008	65535	64738.45
806.9397	343.1003	65535	64735.9
807.0829	345.2992	65535	64735.5
807.2261	347.4976	65535	64734.45
807.3693	349.6955	65535	64730.7
807.5126	351.8927	65535	64729.8
807.6559	354.0895	65535	64715.6
807.7991	356.2856	65535	64728.55
807.9424	358.4812	65535	64728.15
808.0857	360.6763	65535	64726.35
808.2291	362.8707	65535	64727.3
808.3724	365.0646	65535	64723.1
808.5158	367.258	65535	64722.9
808.6591	369.4508	65535	64716.8
808.8025	371.643	65535	64719.05
808.9459	373.8346	65535	64717.4
809.0893	376.0257	65535	64710.1
809.2327	378.2162	65535	64712.6
809.3762	380.4062	65535	64712.4
809.5196	382.5956	65535	64705.6
809.6631	384.7844	65535	64711.05
809.8066	386.9726	65535	64710.8
809.9501	389.1603	65535	64716
810.0936	391.3474	65535	64675.85
810.2371	393.5339	65535	64714.2
810.3806	395.7199	65535	64720.45
810.5241	397.9052	65535	64720
810.6677	400.09	65535	64719.15
810.8113	402.2743	65535	64720.7
810.9548	404.4579	65535	64722.2
811.0984	406.641	65535	64717
811.2421	408.8235	65535	64722.65
811.3857	411.0054	65535	64718.9
811.5293	413.1868	65535	64714.2
811.673	415.3675	65535	64713.1
811.8166	417.5477	65535	64711
811.9603	419.7273	65535	64707.55
812.104	421.9064	65535	64698.2
812.2477	424.0848	65535	64702.85
812.3914	426.2627	65535	64701.4
812.5351	428.4399	65535	64703.05
812.6788	430.6166	65535	64700
812.8226	432.7928	65535	64694.45
812.9663	434.9683	65535	64697.1
813.1101	437.1432	65535	64695.7
813.2539	439.3176	65535	64695.95
813.3977	441.4914	65535	64696.4
813.5415	443.6645	65535	64698.55
813.6853	445.8371	65535	64693
813.8291	448.0091	65535	64693.55
813.973	450.1806	65535	64694.9
814.1168	452.3514	65535	64692.9
814.2607	454.5216	65535	64686.4
814.4046	456.6913	65535	64687.9
814.5485	458.8603	65535	64693
814.6924	461.0288	65535	64694
814.8363	463.1967	65535	64691.55
814.9802	465.3639	65535	64689.35
815.1241	467.5306	65535	64690.4
815.2681	469.6967	65535	64689.9
815.412	471.8622	65535	64689.8
815.556	474.0271	65535	64690.1
815.7	476.1914	65535	64687
815.844	478.3551	65535	64689.8
815.988	480.5182	65535	64687.5
816.132	482.6807	65535	64687.7
816.276	484.8426	65535	64692.95
816.4201	487.0039	65535	64690.05
816.5641	489.1647	65535	64687.7
816.7082	491.3248	65535	64687.4
816.8522	493.4843	65535	64687.55
816.9963	495.6432	65535	64683.6
817.1404	497.8015	65535	64680.2
817.2845	499.9592	65535	64681.75
817.4286	502.1163	65535	64681.9
817.5727	504.2728	65535	64680.85
817.7168	506.4287	65535	64685.15
817.861	508.5839	65535	64683.35
818.0051	510.7386	65535	64682.6
818.1493	512.8927	65535	64677.8
818.2935	515.0461	65535	64681.2
818.4377	517.199	65535	64681
818.5818	519.3512	65535	64679.5
818.726	521.5029	65535	64671.2
818.8703	523.6539	65535	64676.5
819.0145	525.8043	65535	64676.4
819.1587	527.9541	65535	64674.65
819.303	530.1033	65535	64676
819.4472	532.2519	65535	64676.55
819.5915	534.3999	65535	64674.4
819.7357	536.5472	65535	64674.1
819.88	538.694	65535	64674.9
820.0243	540.8401	65535	64674.25
820.1686	542.9856	65535	64672.5
820.3129	545.1305	65535	64668.75
820.4572	547.2748	65535	64669.15
820.6016	549.4185	65535	64667.15
820.7459	551.5615	65535	64668.65
820.8902	553.704	65535	64670.9
821.0346	555.8458	65535	64671.15
821.1789	557.987	65535	64668.55
821.3233	560.1276	65535	64668.4
821.4677	562.2675	65535	64673.7
821.6121	564.4069	65535	64667.25
821.7565	566.5456	65535	64669.3
821.9009	568.6837	65535	64667.25
822.0453	570.8212	65535	64671
822.1897	572.958	65535	64667.3
822.3342	575.0942	65535	64668.3
822.4786	577.2299	65535	64668.9
822.6231	579.3648	65535	64671.75
822.7675	581.4992	65535	64668.35
822.912	583.6329	65535	64673.6
823.0565	585.766	65535	64669.2
823.201	587.8985	65535	64671.45
823.3454	590.0304	65535	64643
823.4899	592.1616	65535	64666.65
823.6345	594.2922	65535	64665.25
823.779	596.4222	65535	64664.15
823.9235	598.5515	65535	64663.65
824.068	600.6802	65535	64661.3
824.2126	602.8083	65535	64664.8
824.3571	604.9358	65535	64661.1
824.5017	607.0626	65535	64661.15
824.6462	609.1888	65535	64661.05
824.7908	611.3144	65535	64661.15
824.9354	613.4393	65535	64663.8
825.08	615.5636	65535	64661.25
825.2246	617.6873	65535	64661.65
825.3692	619.8103	65535	64661.25
825.5138	621.9327	65535	64657.25
825.6584	624.0544	65535	64661
825.803	626.1756	65535	64664
825.9477	628.2961	65535	64659.4
826.0923	630.4159	65535	64660.75
826.237	632.5351	65535	64657.55
826.3816	634.6537	65535	64658
826.5263	636.7716	65535	64658.6
826.6709	638.8889	65535	64655.8
826.8156	641.0056	65535	64657.1
826.9603	643.1216	65535	64654.8
827.105	645.237	65535	64655.25
827.2497	647.3518	65535	64655.15
827.3944	649.4659	65535	64658.9
827.5391	651.5793	65535	64655.95
827.6838	653.6922	65535	64657.65
827.8285	655.8043	65535	64657.95
827.9733	657.9159	65535	64654.25
828.118	660.0268	65535	64654.25
828.2627	662.137	65535	64655
828.4075	664.2466	65535	64651.9
828.5522	666.3556	65535	64655.75
828.697	668.4639	65535	64650.45
828.8418	670.5716	65535	64657.55
828.9865	672.6786	65535	64650.85
829.1313	674.785	65535	64650.4
829.2761	676.8907	65535	64651.25
829.4209	678.9958	65535	64652.85
829.5657	681.1002	65535	64652
829.7105	683.204	65535	64647.2
829.8553	685.3072	65535	64647
830.0001	687.4097	65535	64651.2
830.1449	689.5115	65535	64652.25
830.2898	691.6127	65535	64651.1
830.4346	693.7132	65535	64652.05
830.5794	695.8131	65535	64640.4
830.7243	697.9123	65535	64650.75
830.8691	700.0109	65535	64645.95
831.014	702.1089	65535	64647.8
831.1588	704.2061	65535	64651.3
831.3037	706.3028	65535	64647.15
831.4486	708.3987	65535	64648.8
831.5935	710.4941	65535	64648.65
831.7383	712.5887	65535	64648.4
831.8832	714.6827	65535	64644.2
832.0281	716.7761	65535	64649.3
832.173	718.8688	65535	64645.55
832.3179	720.9608	65535	64639.5
832.4628	723.0522	65535	64640.25
832.6077	725.1429	65535	64645.8
832.7527	727.233	65535	64646.05
832.8976	729.3224	65535	64646.65
833.0425	731.4112	65535	64644.9
833.1874	733.4993	65535	64644
833.3324	735.5867	65535	64648.5
833.4773	737.6735	65535	64644.85
833.6222	739.7596	65535	64646.05
833.7672	741.845	65535	64646.15
833.9122	743.9298	65535	64640.35
834.0571	746.014	65535	64645.45
834.2021	748.0974	65535	64642.1
834.347	750.1802	65535	64645
834.492	752.2624	65535	64642.85
834.637	754.3439	65535	64642.3
834.782	756.4247	65535	64636.45
834.9269	758.5048	65535	64644
835.0719	760.5843	65535	64639.65
835.2169	762.6631	65535	64642.7
835.3619	764.7413	65535	64643.35
835.5069	766.8188	65535	64642.35
835.6519	768.8956	65535	64639.5
835.7969	770.9718	65535	64644.55
835.9419	773.0473	65535	64643.05
836.0869	775.1221	65535	64644.45
836.232	777.1962	65535	64641.5
836.377	779.2697	65535	64641.15
836.522	781.3426	65535	64622.2
836.667	783.4147	65535	64643.15
836.8121	785.4862	65535	64645.05
836.9571	787.557	65535	64641.3
837.1021	789.6271	65535	64641.9
837.2472	791.6966	65535	64643
837.3922	793.7654	65535	64640.6
837.5373	795.8335	65535	64640.6
837.6823	797.901	65535	64640.15
837.8274	799.9678	65535	64636.9
837.9724	802.0339	65535	64641.7
838.1175	804.0993	65535	64630.25
838.2626	806.1641	65535	64640.85
838.4076	808.2282	65535	64640.95
838.5527	810.2916	65535	64638
838.6978	812.3544	65535	64640.9
838.8428	814.4164	65535	64642.4
838.9879	816.4778	65535	64636.75
839.133	818.5385	65535	64639.25
839.2781	820.5986	65535	64639.5
839.4232	822.658	65535	64637.85
839.5682	824.7166	65535	64641.4
839.7133	826.7747	65535	64639
839.8584	828.832	65535	64639.4
840.0035	830.8886	65535	64640.2
840.1486	832.9446	65535	64637.05
840.2937	834.9999	65535	64641.55
840.4388	837.0545	65535	64634.35
840.5839	839.1085	65535	64636.95
840.729	841.1618	65535	64631.55
840.8741	843.2143	65535	64639.85
841.0192	845.2662	65535	64639.4
841.1643	847.3175	65535	64638.7
841.3095	849.368	65535	64637.7
841.4546	851.4179	65535	64637.3
841.5997	853.467	65535	64638.8
841.7448	855.5155	65535	64638.35
841.8899	857.5633	65535	64637.95
842.0351	859.6105	65535	64637.7
842.1802	861.6569	65535	64638.1
842.3253	863.7027	65535	64636.6
842.4704	865.7478	65535	64636.2
842.6156	867.7922	65535	64638.05
842.7607	869.8359	65535	64636.3
842.9058	871.8789	65535	64636.15
843.0509	873.9212	65535	64602.2
843.1961	875.9629	65535	64635.3
843.3412	878.0039	65535	64636.95
843.4863	880.0441	65535	64636.85
843.6315	882.0837	65535	64637.15
843.7766	884.1226	65535	64635.7
843.9218	886.1609	65535	64638.8
844.0669	888.1984	65535	64636.85
844.212	890.2352	65535	64639.1
844.3572	892.2714	65535	64632.3
844.5023	894.3069	65535	64634.9
844.6475	896.3416	65535	64634.7
844.7926	898.3757	65535	64634.15
844.9377	900.4091	65535	64634.75
845.0829	902.4418	65535	64630.3
845.228	904.4739	65535	64634.3
845.3732	906.5052	65535	64633.85
845.5183	908.5358	65535	64636.15
845.6635	910.5658	65535	64632.65
845.8086	912.595	65535	64634.45
845.9538	914.6236	65535	64636.4
846.0989	916.6515	65535	64634.25
846.2441	918.6786	65535	64633.7
846.3892	920.7051	65535	64635.05
846.5344	922.7309	65535	64633.85
846.6795	924.756	65535	64632.1
846.8246	926.7804	65535	64631.95
846.9698	928.8041	65535	64632.85
847.1149	930.8272	65535	64637.6
847.2601	932.8495	65535	64633.3
847.4052	934.8711	65535	64631.65
847.5504	936.892	65535	64631.35
847.6955	938.9123	65535	64633.6
847.8407	940.9318	65535	64633.6
847.9858	942.9506	65535	64635.5
848.131	944.9688	65535	64633.5
848.2761	946.9862	65535	64634.25
848.4213	949.003	65535	64634.8
848.5664	951.019	65535	64635.85
848.7115	953.0344	65535	64631.6
848.8567	955.0491	65535	64632.6
849.0018	957.063	65535	64635.8
849.147	959.0763	65535	64634.7
849.2921	961.0888	65535	64630.4
849.4373	963.1007	65535	64633.7
849.5824	965.1119	65535	64635.25
849.7275	967.1223	65535	64635.35
849.8727	969.1321	65535	64634.6
850.0178	971.1412	65535	64637.25
850.1629	973.1495	65535	64634
850.3081	975.1572	65535	64598.55
850.4532	977.1641	65535	64633.25
850.5983	979.1704	65535	64630.95
850.7435	981.1759	65535	64629.9
850.8886	983.1808	65535	64631.75
851.0337	985.1849	65535	64620.55
851.1788	987.1884	65535	64632.8
851.324	989.1911	65535	64629.65
851.4691	991.1932	65535	64631.45
851.6142	993.1945	65535	64631.8
851.7593	995.1951	65535	64632.6
851.9045	997.1951	65535	64630.15
852.0496	999.1943	65535	64634.1
852.1947	1001.1928	65535	64631.85
852.3398	1003.1906	65535	64634.55
852.4849	1005.1877	65535	64629.7
852.63	1007.1841	65535	64632.65
852.7751	1009.1798	65535	64633.25
852.9202	1011.1748	65535	64634.15
853.0653	1013.1691	65535	64629.95
853.2104	1015.1627	65535	64631.55
853.3555	1017.1556	65535	64632.1
853.5006	1019.1477	65535	64634.8
853.6457	1021.1392	65535	64638.5
853.7908	1023.1299	65535	64634.35
853.9359	1025.12	65535	64634.1
854.081	1027.1093	65535	64636.55
854.2261	1029.0979	65535	64638.95
854.3712	1031.0859	65535	64636.3
854.5163	1033.0731	65535	64634.1
854.6613	1035.0596	65535	64635
854.8064	1037.0454	65535	64633.7
854.9515	1039.0304	65535	64633.4
855.0965	1041.0148	65535	64633.3
855.2416	1042.9985	65535	64632.95
855.3867	1044.9814	65535	64634.6
855.5317	1046.9636	65535	64629.15
855.6768	1048.9452	65535	64635.4
855.8219	1050.926	65535	64635
855.9669	1052.9061	65535	64634.4
856.112	1054.8855	65535	64635.1
856.257	1056.8642	65535	64632.5
856.4021	1058.8421	65535	64629.75
856.5471	1060.8194	65535	64633.7
856.6921	1062.7959	65535	64634.4
856.8372	1064.7717	65535	64631.15
856.9822	1066.7469	65535	64632.75
857.1272	1068.7213	65535	64632.45
857.2723	1070.695	65535	64633.15
857.4173	1072.6679	65535	64634.3
857.5623	1074.6402	65535	64632.5
857.7073	1076.6117	65535	64626.65
857.8523	1078.5826	65535	64630.8
857.9973	1080.5527	65535	64630.9
858.1423	1082.5221	65535	64631.1
858.2873	1084.4908	65535	64632.9
858.4323	1086.4587	65535	64632.7
858.5773	1088.426	65535	64632.5
858.7223	1090.3925	65535	64627.75
858.8673	1092.3584	65535	64632.8
859.0123	1094.3235	65535	64634.55
859.1573	1096.2879	65535	64630.6
859.3022	1098.2515	65535	64633.2
859.4472	1100.2145	65535	64635.75
859.5922	1102.1767	65535	64628.95
859.7371	1104.1382	65535	64632
859.8821	1106.099	65535	64628.6
860.027	1108.0591	65535	64633.45
860.172	1110.0185	65535	64632.35
860.3169	1111.9771	65535	64633.5
860.4619	1113.9351	65535	64630.35
860.6068	1115.8923	65535	64631
860.7517	1117.8488	65535	64632.35
860.8967	1119.8045	65535	64633.05
861.0416	1121.7596	65535	64631.9
861.1865	1123.7139	65535	64636.15
861.3314	1125.6675	65535	64633.35
861.4763	1127.6204	65535	64637.4
861.6212	1129.5726	65535	64629.4
861.7661	1131.524	65535	64633.7
861.911	1133.4748	65535	64633.2
862.0559	1135.4248	65535	64632.15
862.2008	1137.3741	65535	64630.9
862.3457	1139.3226	65535	64633.1
862.4905	1141.2705	65535	64632.6
862.6354	1143.2176	65535	64626.75
862.7803	1145.164	65535	64630.1
862.9251	1147.1097	65535	64631.95
863.07	1149.0546	65535	64632.8
863.2148	1150.9989	65535	64630.05
863.3597	1152.9424	65535	64632.25
863.5045	1154.8852	65535	64634.6
863.6493	1156.8272	65535	64632.45
863.7942	1158.7686	65535	64623.4
863.939	1160.7092	65535	64629.25
864.0838	1162.6491	65535	64630.8
864.2286	1164.5883	65535	64633.2
864.3734	1166.5267	65535	64630.3
864.5182	1168.4644	65535	64632.65
864.663	1170.4014	65535	64625.2
864.8078	1172.3377	65535	64632.15
864.9526	1174.2732	65535	64632.15
865.0974	1176.2081	65535	64632.05
865.2421	1178.1421	65535	64630.2
865.3869	1180.0755	65535	64632.15
865.5317	1182.0082	65535	64632.35
865.6764	1183.9401	65535	64632.6
865.8212	1185.8713	65535	64634.65
865.9659	1187.8017	65535	64634.05
866.1106	1189.7315	65535	64636.5
866.2554	1191.6605	65535	64608.1
866.4001	1193.5888	65535	64634.6
866.5448	1195.5163	65535	64634.8
866.6895	1197.4432	65535	64629.6
866.8342	1199.3693	65535	64632.95
866.9789	1201.2947	65535	64629.5
867.1236	1203.2193	65535	64632.6
867.2683	1205.1432	65535	64630.55
867.413	1207.0664	65535	64633.9
867.5576	1208.9889	65535	64629.85
867.7023	1210.9106	65535	64632.55
867.847	1212.8316	65535	64633.95
867.9916	1214.7519	65535	64622.6
868.1363	1216.6715	65535	64631.9
868.2809	1218.5903	65535	64635.15
868.4255	1220.5084	65535	64634.3
868.5701	1222.4257	65535	64634.65
868.7148	1224.3424	65535	64632.7
868.8594	1226.2583	65535	64629.95
869.004	1228.1735	65535	64629.7
869.1486	1230.0879	65535	64632.7
869.2932	1232.0016	65535	64633.45
869.4377	1233.9146	65535	64629.4
869.5823	1235.8269	65535	64631.65
869.7269	1237.7384	65535	64632.95
869.8715	1239.6492	65535	64633.25
870.016	1241.5592	65535	64633.6
870.1606	1243.4686	65535	64633.85
870.3051	1245.3772	65535	64635.2
870.4496	1247.285	65535	64631.75
870.5941	1249.1922	65535	64635.6
870.7387	1251.0986	65535	64633.2
870.8832	1253.0042	65535	64634.55
871.0277	1254.9092	65535	64634.85
871.1722	1256.8134	65535	64633.95
871.3167	1258.7169	65535	64630.8
871.4611	1260.6196	65535	64632.7
871.6056	1262.5216	65535	64633
871.7501	1264.4229	65535	64635
871.8945	1266.3234	65535	64632.95
872.039	1268.2232	65535	64631.75
872.1834	1270.1223	65535	64632.1
872.3278	1272.0207	65535	64631.8
872.4723	1273.9183	65535	64625.5
872.6167	1275.8151	65535	64632.9
872.7611	1277.7113	65535	64631.95
872.9055	1279.6067	65535	64635.6
873.0499	1281.5014	65535	64629.85
873.1943	1283.3953	65535	64628.55
873.3386	1285.2885	65535	64633.35
873.483	1287.181	65535	64633.1
873.6274	1289.0727	65535	64633.5
873.7717	1290.9637	65535	64632.75
873.9161	1292.854	65535	64633.35
874.0604	1294.7435	65535	64633.35
874.2047	1296.6323	65535	64632.7
874.349	1298.5204	65535	64630.7
874.4933	1300.4077	65535	64632.3
874.6376	1302.2943	65535	64633.3
874.7819	1304.1802	65535	64634.2
874.9262	1306.0653	65535	64630.25
875.0705	1307.9497	65535	64629.95
875.2147	1309.8333	65535	64632.85
875.359	1311.7162	65535	64633.05
875.5032	1313.5984	65535	64629.75
875.6475	1315.4798	65535	64621.15
875.7917	1317.3605	65535	64618.15
875.9359	1319.2405	65535	64631.4
876.0801	1321.1197	65535	64630.8
876.2243	1322.9982	65535	64629.6
876.3685	1324.876	65535	64631.6
876.5127	1326.753	65535	64631.15
876.6569	1328.6293	65535	64630.2
876.801	1330.5048	65535	64631.25
876.9452	1332.3796	65535	64632.25
877.0893	1334.2537	65535	64607.4
877.2335	1336.127	65535	64632.25
877.3776	1337.9996	65535	64632.85
877.5217	1339.8714	65535	64632
877.6658	1341.7426	65535	64589.65
877.8099	1343.6129	65535	64629.75
877.954	1345.4826	65535	64632.05
878.0981	1347.3515	65535	64627.9
878.2422	1349.2196	65535	64630.15
878.3862	1351.087	65535	64633.65
878.5303	1352.9537	65535	64634.45
878.6743	1354.8197	65535	64633.05
878.8184	1356.6849	65535	64631.85
878.9624	1358.5493	65535	64633.1
879.1064	1360.4131	65535	64632.35
879.2504	1362.276	65535	64634.05
879.3944	1364.1383	65535	64633.1
879.5384	1365.9998	65535	64625.95
879.6823	1367.8606	65535	64630.5
879.8263	1369.7206	65535	64632.35
879.9702	1371.5799	65535	64631.8
880.1142	1373.4384	65535	64632.35
880.2581	1375.2962	65535	64633
880.402	1377.1533	65535	64634.2
880.5459	1379.0096	65535	64634.6
880.6898	1380.8652	65535	64632.85
880.8337	1382.7201	65535	64632.75
880.9776	1384.5742	65535	64633.65
881.1215	1386.4275	65535	64633.05
881.2653	1388.2802	65535	64634.9
881.4092	1390.132	65535	64633.35
881.553	1391.9832	65535	64632.25
881.6968	1393.8336	65535	64632.8
881.8406	1395.6832	65535	64632
881.9844	1397.5322	65535	64633.1
882.1282	1399.3803	65535	64628.85
882.272	1401.2278	65535	64632.8
882.4158	1403.0745	65535	64634.35
882.5595	1404.9204	65535	64634.4
882.7033	1406.7656	65535	64632.65
882.847	1408.6101	65535	64630.7
882.9908	1410.4538	65535	64631.85
883.1345	1412.2968	65535	64634.2
883.2782	1414.139	65535	64633.8
883.4219	1415.9805	65535	64633.1
883.5656	1417.8213	65535	64626.35
883.7092	1419.6613	65535	64634.3
883.8529	1421.5006	65535	64633.05
883.9965	1423.3391	65535	64631.45
884.1402	1425.1769	65535	64631.95
884.2838	1427.0139	65535	64633.8
884.4274	1428.8502	65535	64632.4
884.571	1430.6858	65535	64632.5
884.7146	1432.5206	65535	64629.85
884.8582	1434.3547	65535	64633.55
885.0018	1436.188	65535	64633.4
885.1453	1438.0206	65535	64633.1
885.2889	1439.8524	65535	64633
885.4324	1441.6835	65535	64633.3
885.5759	1443.5139	65535	64630.6
885.7194	1445.3435	65535	64633.55
885.8629	1447.1724	65535	64633.2
886.0064	1449.0005	65535	64635.3
886.1499	1450.8279	65535	64633.65
886.2933	1452.6545	65535	64635.95
886.4368	1454.4804	65535	64635.2
886.5802	1456.3056	65535	64626.15
886.7237	1458.13	65535	64634.85
886.8671	1459.9536	65535	64633.35
887.0105	1461.7766	65535	64634.85
887.1539	1463.5987	65535	64632.5
887.2972	1465.4202	65535	64634.45
887.4406	1467.2409	65535	64634
887.584	1469.0608	65535	64633.8
887.7273	1470.88	65535	64633.15
887.8706	1472.6984	65535	64634.5
888.0139	1474.5161	65535	64632.75
888.1572	1476.3331	65535	64632.75
888.3005	1478.1493	65535	64632.7
888.4438	1479.9648	65535	64633.95
888.5871	1481.7795	65535	64633.8
888.7303	1483.5935	65535	64634.25
888.8736	1485.4067	65535	64634.6
889.0168	1487.2192	65535	64634.7
889.16	1489.031	65535	64631.75
889.3032	1490.842	65535	64632.8
889.4464	1492.6522	65535	64633.35
889.5896	1494.4618	65535	64632
889.7327	1496.2705	65535	64635.15
889.8759	1498.0785	65535	64630.1
890.019	1499.8858	65535	64634.3
890.1622	1501.6924	65535	64635.35
890.3053	1503.4981	65535	64634.25
890.4484	1505.3032	65535	64633.25
890.5914	1507.1075	65535	64633.05
890.7345	1508.911	65535	64635.4
890.8776	1510.7138	65535	64631.35
891.0206	1512.5159	65535	64633.2
891.1637	1514.3172	65535	64637.1
891.3067	1516.1178	65535	64636.05
891.4497	1517.9176	65535	64631.5
891.5927	1519.7166	65535	64635.85
891.7357	1521.515	65535	64627.5
891.8786	1523.3126	65535	64632.15
892.0216	1525.1094	65535	64632.5
892.1645	1526.9055	65535	64632.2
892.3074	1528.7008	65535	64636.15
892.4503	1530.4954	65535	64628.75
892.5932	1532.2893	65535	64634.35
892.7361	1534.0824	65535	64630.85
892.879	1535.8747	65535	64633.65
893.0218	1537.6663	65535	64633.75
893.1647	1539.4572	65535	64632.85
893.3075	1541.2473	65535	64633.9
893.4503	1543.0367	65535	64637.5
893.5931	1544.8253	65535	64632
893.7359	1546.6132	65535	64629.65
893.8787	1548.4003	65535	64627.25
894.0214	1550.1867	65535	64625.85
894.1642	1551.9723	65535	64629.75
894.3069	1553.7572	65535	64634.7
894.4496	1555.5414	65535	64635.85
894.5923	1557.3247	65535	64635.8
894.735	1559.1074	65535	64637.7
894.8777	1560.8893	65535	64636.3
895.0204	1562.6705	65535	64636.3
895.163	1564.4509	65535	64637.75
895.3056	1566.2305	65535	64638.1
895.4482	1568.0094	65535	64636.6
895.5908	1569.7876	65535	64636.4
895.7334	1571.565	65535	64635.9
895.876	1573.3417	65535	64636.35
896.0186	1575.1176	65535	64635.45
896.1611	1576.8928	65535	64636.1
896.3036	1578.6672	65535	64638.9
896.4461	1580.4409	65535	64636.95
896.5886	1582.2138	65525.55	64625.25
896.7311	1583.986	65532.7	64632.7
896.8736	1585.7575	65502.45	64604.6
897.0161	1587.5282	65520	64622.15
897.1585	1589.2981	65514.8	64616.25
897.3009	1591.0673	65464.7	64569.6
897.4433	1592.8358	65356.45	64459.25
897.5857	1594.6035	65462.2	64562.25
897.7281	1596.3704	65466.05	64567.8
897.8705	1598.1366	65235.9	64339.65
898.0128	1599.9021	65073.2	64175.9
898.1551	1601.6668	65358.6	64459.4
898.2975	1603.4308	65240.05	64343.65
898.4398	1605.194	65230.6	64327.6
898.5821	1606.9564	64731.25	63835.1
898.7243	1608.7182	65046.8	64146.7
898.8666	1610.4791	64768.5	63872.7
899.0088	1612.2394	65050.95	64156.55
899.1511	1613.9988	64587.35	63690.6
899.2933	1615.7576	65069.5	64173.05
899.4355	1617.5156	65051.2	64150.9
899.5776	1619.2728	65339.15	64442.05
899.7198	1621.0293	64765.35	63868.65
899.862	1622.785	64792.85	63893.95
900.0041	1624.54	65013.65	64116.25
900.1462	1626.2942	64587.4	63689.5
900.2883	1628.0477	63779.8	62881.2
900.4304	1629.8005	63006.6	62105.75
900.5725	1631.5525	63807.9	62912.75
900.7145	1633.3037	62585.9	61687.9
900.8566	1635.0542	62395.1	61500.2
900.9986	1636.804	63000.25	62102.95
901.1406	1638.553	61726.2	60746.15
901.2826	1640.3013	62168.75	61271.55
901.4245	1642.0488	61331.95	60436.15
901.5665	1643.7955	61894.45	61000.25
901.7085	1645.5416	61299.6	60402.3
901.8504	1647.2868	60850	59954.85
901.9923	1649.0313	61721.45	60826.35
902.1342	1650.7751	61185.85	60285.3
902.2761	1652.5181	60783.75	59889.2
902.4179	1654.2604	60862.75	59966.35
902.5598	1656.0019	61319.7	60424.25
902.7016	1657.7427	61090.85	60194.3
902.8434	1659.4828	61700.75	60802.8
902.9852	1661.222	61188.65	60291.75
903.127	1662.9606	61818	60922.3
903.2687	1664.6984	60901.9	60003.65
903.4105	1666.4354	61159.35	60262.35
903.5522	1668.1717	59927.05	59030.05
903.6939	1669.9072	59053	58157.75
903.8356	1671.642	58781.2	57882.6
903.9773	1673.3761	58462.6	57566.1
904.119	1675.1094	58202.9	57308
904.2606	1676.8419	57532.35	56636.35
904.4022	1678.5737	57389.5	56494.25
904.5439	1680.3048	57156	56259.75
904.6855	1682.0351	56740.95	55844.4
904.827	1683.7646	56442.6	55542.4
904.9686	1685.4934	56572.5	55677.3
905.1101	1687.2215	55491.05	54596.15
905.2517	1688.9488	56081.05	55185.65
905.3932	1690.6754	54693.25	53798.7
905.5347	1692.4012	55260.95	54365.65
905.6761	1694.1263	55117.3	54222.05
905.8176	1695.8506	54748.1	53851.3
905.9591	1697.5742	54634.5	53738.95
906.1005	1699.297	54343.85	53449.65
906.2419	1701.0191	54220.45	53327.6
906.3833	1702.7404	53692.25	52797.6
906.5246	1704.461	53369.3	52473.85
906.666	1706.1808	53366.95	52468.35
906.8073	1707.8999	53210.7	52315.55
906.9487	1709.6182	53002.5	52107.2
907.09	1711.3358	52896.5	52004.55
907.2313	1713.0527	52614.45	51721.55
907.3725	1714.7688	52521	51623.15
907.5138	1716.4841	51999.35	51101.75
907.655	1718.1987	52091.55	51191.9
907.7962	1719.9126	51861.7	50967.3
907.9374	1721.6257	51718.85	50822
908.0786	1723.338	51722.25	50825.6
908.2198	1725.0496	51077.8	50183.75
908.3609	1726.7605	51034.15	50138.3
908.502	1728.4706	50897.8	50003.1
908.6431	1730.18	50622.7	49724.65
908.7842	1731.8886	50456.9	49563.05
908.9253	1733.5964	50294	49378.2
909.0664	1735.3036	50279.55	49382.45
909.2074	1737.0099	50122.25	49228.6
909.3484	1738.7156	49873.7	48980.3
909.4894	1740.4204	49591.35	48693
909.6304	1742.1246	49552.8	48656.1
909.7714	1743.8279	49448.2	48556.25
909.9123	1745.5306	49414.55	48519.75
910.0532	1747.2325	49010.05	48114.1
910.1941	1748.9336	48866.3	47971.2
910.335	1750.634	48620	47724.35
910.4759	1752.3336	48597.95	47704.05
910.6168	1754.0325	48443.9	47551.5
910.7576	1755.7307	48355.65	47464.35
910.8984	1757.4281	48242.15	47348.15
911.0392	1759.1247	48214.55	47313.75
911.18	1760.8206	47930.8	47032.3
911.3208	1762.5158	47903.55	47002.95
911.4615	1764.2102	47679.1	46785.15
911.6022	1765.9039	47527.7	46633.45
911.7429	1767.5968	47405.15	46511.6
911.8836	1769.289	47256.05	46361.65
912.0243	1770.9804	47130.1	46236.65
912.1649	1772.6711	47073.45	46177.2
912.3056	1774.361	46830.6	45934.2
912.4462	1776.0502	46783.8	45888.3
912.5868	1777.7386	46628	45730.8
912.7274	1779.4263	46451.35	45558.1
912.8679	1781.1132	46382.25	45489.85
913.0084	1782.7994	46213.95	45319.1
913.149	1784.4849	46090.6	45197.1
913.2895	1786.1696	45876.35	44975.9
913.4299	1787.8535	45788.8	44895.95
913.5704	1789.5367	45626.95	44733.8
913.7108	1791.2192	45564	44669.5
913.8513	1792.9009	45375.45	44451.2
913.9917	1794.5818	45253.75	44362.05
914.132	1796.2621	45062.95	44170.15
914.2724	1797.9415	44946	44053.8
914.4128	1799.6202	44745.9	43852.55
914.5531	1801.2982	44697.9	43804
914.6934	1802.9755	44583.4	43688.5
914.8337	1804.6519	44561.25	43666.3
914.9739	1806.3277	44317.4	43425.6
915.1142	1808.0027	44060	43165.8
915.2544	1809.6769	44064.25	43171.45
915.3946	1811.3504	43882.8	42987.25
915.5348	1813.0231	43751.2	42858.35
915.675	1814.6951	43745.5	42852.05
915.8151	1816.3664	43753.5	42858.35
915.9553	1818.0369	43591.5	42698.4
916.0954	1819.7067	43403.7	42511.1
916.2355	1821.3757	43219.9	42322.45
916.3755	1823.044	43160.35	42267.45
916.5156	1824.7115	43041.85	42148.05
916.6556	1826.3783	42777.65	41884.65
916.7956	1828.0443	42671.35	41777.9
916.9356	1829.7096	42578.3	41682.85
917.0756	1831.3741	42503.15	41606.1
917.2155	1833.0379	42370.9	41479.45
917.3555	1834.701	42204.05	41308.6
917.4954	1836.3633	42068.35	41173.15
917.6353	1838.0248	41980.6	41085.35
917.7751	1839.6856	41881.4	40985.65
917.915	1841.3457	41819.5	40925.75
918.0548	1843.005	41679.25	40787.8
918.1946	1844.6636	41624.3	40732.65
918.3344	1846.3214	41438.9	40543.95
918.4742	1847.9785	41445.45	40553.55
918.6139	1849.6349	41271.15	40375.4
918.7537	1851.2904	41185	40280.85
918.8934	1852.9453	41015.1	40121.3
919.0331	1854.5994	40878.05	39981.35
919.1727	1856.2528	40912.9	40014.45
919.3124	1857.9054	40768.6	39875.2
919.452	1859.5572	40664.65	39772.85
919.5916	1861.2083	40593.55	39700.75
919.7312	1862.8587	40525.15	39631.7
919.8708	1864.5084	40348.1	39452.55
920.0103	1866.1572	40252.35	39359.45
920.1498	1867.8054	40021	39127.25
920.2893	1869.4528	40000.7	39106.15
920.4288	1871.0994	39843.4	38951.85
920.5683	1872.7453	39774	38878.4
920.7077	1874.3905	39648.35	38748.15
920.8471	1876.0349	39465.3	38570
920.9865	1877.6786	39417.65	38523.65
921.1259	1879.3215	39398.7	38507.15
921.2653	1880.9637	39255.2	38362.8
921.4046	1882.6051	39188.8	38294.9
921.5439	1884.2458	39068.55	38173.1
921.6832	1885.8858	38893.2	38000.15
921.8225	1887.525	38810.65	37916.85
921.9617	1889.1634	38573.15	37680.45
922.101	1890.8011	38507.55	37615.4
922.2402	1892.4381	38376.25	37485
922.3794	1894.0743	38338.9	37445.25
922.5185	1895.7098	38233.6	37340.1
922.6577	1897.3446	38119.5	37227
922.7968	1898.9786	38017.9	37122.85
922.9359	1900.6118	37880.05	36987.25
923.075	1902.2443	37717	36821.15
923.214	1903.8761	37622	36729.9
923.3531	1905.5071	37306.2	36411.6
923.4921	1907.1374	37209.25	36314.7
923.6311	1908.7669	37217.25	36324.65
923.77	1910.3957	37073.35	36180.95
923.909	1912.0237	36867.7	35974.5
924.0479	1913.651	36801.15	35906.6
924.1868	1915.2776	36646.6	35755.15
924.3257	1916.9034	36485.9	35594
924.4646	1918.5285	36295.25	35402.3
924.6034	1920.1528	36099.15	35205.8
924.7422	1921.7764	36150.75	35257.55
924.881	1923.3992	35938.15	35045.15
925.0198	1925.0213	35694.25	34800.85
925.1586	1926.6427	35558.4	34667.8
925.2973	1928.2633	35605.2	34598
925.436	1929.8832	35401.45	34504.15
925.5747	1931.5023	35173.15	34278.55
925.7134	1933.1207	35080.95	34186.75
925.852	1934.7383	35039.05	34145.9
925.9906	1936.3552	34824.95	33932.9
926.1292	1937.9714	34811.1	33918.6
926.2678	1939.5868	34675	33778.5
926.4064	1941.2015	34430.9	33538.95
926.5449	1942.8154	34261.9	33368.5
926.6834	1944.4286	34199.95	33307.15
926.8219	1946.041	34009.6	33095.45
926.9604	1947.6528	33825.4	32928.3
927.0988	1949.2637	33731.8	32839.35
927.2372	1950.8739	33611.7	32716.95
927.3756	1952.4834	33517.4	32624.7
927.514	1954.0921	33426.75	32533.3
927.6523	1955.7001	33249.35	32353
927.7907	1957.3074	33226.15	32334.4
927.929	1958.9139	33032.55	32140.7
928.0673	1960.5197	32913.25	32018.6
928.2055	1962.1247	32764.85	31873.35
928.3438	1963.729	32610.5	31719.2
928.482	1965.3325	32525.65	31609.25
928.6202	1966.9353	32415.35	31522
928.7584	1968.5374	32284.95	31391.25
928.8965	1970.1387	32154.05	31260.05
929.0346	1971.7393	32009.85	31117.1
929.1727	1973.3392	31933.65	31041.55
929.3108	1974.9383	31794.15	30901.85
929.4489	1976.5366	31665.55	30772.55
929.5869	1978.1342	31569.15	30676
929.7249	1979.7311	31520.4	30625.6
929.8629	1981.3273	31398.85	30504.8
930.0009	1982.9227	31299.5	30406.3
930.1388	1984.5173	31168.35	30276.95
930.2767	1986.1112	30948.45	30056.15
930.4146	1987.7044	30906	30013.25
930.5525	1989.2968	30820.45	29926.1
930.6904	1990.8885	30748.7	29850.45
930.8282	1992.4795	30648.4	29755.25
930.966	1994.0697	30523.15	29632.05
931.1038	1995.6592	30414.05	29522.15
931.2415	1997.2479	30295.3	29402.3
931.3793	1998.8359	30172.6	29279.9
931.517	2000.4232	30064.8	29173.85
931.6547	2002.0097	29960.95	29070.65
931.7923	2003.5955	29755.55	28862.6
931.93	2005.1805	29755.25	28863.05
932.0676	2006.7648	29703.15	28812.3
932.2052	2008.3484	29591.75	28699.45
932.3427	2009.9312	29575.55	28682.2
932.4803	2011.5133	29386.65	28495.75
932.6178	2013.0946	29328.1	28435.45
932.7553	2014.6752	29188.95	28297.8
932.8928	2016.2551	29149	28256.15
933.0302	2017.8342	28989.55	28098.9
933.1676	2019.4126	28861.55	27969.2
933.305	2020.9902	28759.65	27870.4
933.4424	2022.5672	28688.05	27796.25
933.5798	2024.1433	28623.45	27726.25
933.7171	2025.7188	28503.05	27613
933.8544	2027.2935	28383.1	27490.45
933.9917	2028.8674	28306.15	27413.55
934.129	2030.4406	28187.7	27297.4
934.2662	2032.0131	28092.35	27203.2
934.4034	2033.5849	27972.4	27075.4
934.5406	2035.1559	27897	27004.4
934.6778	2036.7261	27882.75	26991.7
934.8149	2038.2957	27736.15	26847.25
934.952	2039.8645	27636.45	26743.5
935.0891	2041.4325	27651.4	26757.8
935.2262	2042.9998	27476.9	26585.95
935.3632	2044.5664	27426.95	26532.7
935.5002	2046.1323	27339.95	26447.8
935.6372	2047.6974	27239.85	26348.4
935.7742	2049.2617	27159.8	26268.35
935.9111	2050.8254	27096.7	26183.15
936.048	2052.3883	27116.75	26223.35
936.1849	2053.9504	26976.95	26085.1
936.3218	2055.5118	26860.45	25969.6
936.4586	2057.0725	26749.9	25854.35
936.5955	2058.6325	26694.45	25803.35
936.7323	2060.1917	26634.6	25742.35
936.869	2061.7502	26536.9	25644.7
937.0058	2063.3079	26415.9	25523.55
937.1425	2064.8649	26321.65	25428
937.2792	2066.4212	26231.4	25339
937.4159	2067.9767	26171.5	25279.4
937.5525	2069.5315	26093.45	25202.75
937.6891	2071.0856	25916.05	25025.35
937.8257	2072.6389	25809.45	24917.65
937.9623	2074.1915	25669.2	24780.1
938.0989	2075.7433	25574.45	24678.25
938.2354	2077.2945	25465.1	24574.5
938.3719	2078.8448	25397.35	24504.2
938.5084	2080.3945	25302.6	24411.5
938.6448	2081.9434	25259.55	24368.1
938.7812	2083.4916	25217.3	24325.25
938.9176	2085.039	25085.65	24191
939.054	2086.5857	25042.4	24148.25
939.1903	2088.1317	24954.05	24061.25
939.3267	2089.677	24864.65	23971.85
939.463	2091.2215	24814.5	23922.7
939.5992	2092.7652	24719.7	23826.55
939.7355	2094.3083	24641.05	23747.9
939.8717	2095.8506	24596.35	23705.1
940.0079	2097.3921	24570.75	23680.45
940.1441	2098.933	24445.8	23552.75
940.2802	2100.4731	24399.7	23508.9
940.4163	2102.0124	24357.45	23455.7
940.5524	2103.5511	24281.9	23389.05
940.6885	2105.089	24211.7	23321.6
940.8245	2106.6261	24134.5	23242
940.9606	2108.1626	24039.05	23148.1
941.0965	2109.6983	24005.7	23085.75
941.2325	2111.2332	23891.15	22998.95
941.3684	2112.7675	23813.45	22918.95
941.5044	2114.301	23748.5	22854.05
941.6403	2115.8337	23726.85	22833.95
941.7761	2117.3657	23634.7	22742.6
941.912	2118.897	23558.05	22664.65
942.0478	2120.4276	23483	22584.6
942.1835	2121.9575	23367.65	22475.35
942.3193	2123.4866	23398.15	22491.5
942.455	2125.0149	23288.9	22395.3
942.5907	2126.5426	23125.8	22235.3
942.7264	2128.0695	23078.35	22182.2
942.8621	2129.5956	23011.95	22121.7
942.9977	2131.1211	23022.5	22125.35
943.1333	2132.6458	22938.9	22048.4
943.2689	2134.1698	22855.45	21963.35
943.4044	2135.693	22764.9	21869.4
943.54	2137.2155	22753.85	21858.15
943.6755	2138.7373	22664.7	21770.55
943.8109	2140.2584	22600.95	21708.1
943.9464	2141.7787	22487.05	21590.75
944.0818	2143.2983	22333	21441.05
944.2172	2144.8171	22216.95	21326.6
944.3526	2146.3353	22196.9	21302.65
944.4879	2147.8527	22085.05	21193.3
944.6232	2149.3693	22070.85	21178.85
944.7585	2150.8853	21971.9	21078.9
944.8938	2152.4005	21833.2	20940.55
945.029	2153.9149	21836.55	20942.7
945.1642	2155.4287	21750.95	20859.85
945.2994	2156.9417	21698.65	20806.55
945.4346	2158.454	21612.25	20717.5
945.5697	2159.9655	21553.9	20659.85
945.7048	2161.4764	21573.85	20683.15
945.8399	2162.9865	21439.55	20548.2
945.9749	2164.4958	21396.95	20502.6
946.1099	2166.0045	21299.5	20403.7
946.2449	2167.5124	21259.7	20367.45
946.3799	2169.0195	21202.35	20310.6
946.5148	2170.526	21175.4	20282.75
946.6498	2172.0317	21092.15	20198.4
946.7846	2173.5367	21052.15	20159.7
946.9195	2175.0409	20959.4	20068.6
947.0543	2176.5445	20947.95	20056.7
947.1891	2178.0473	20849.25	19957.6
947.3239	2179.5494	20777.5	19883
947.4587	2181.0507	20684.55	19789.75
947.5934	2182.5513	20633.2	19741.8
947.7281	2184.0512	20568.35	19675.7
947.8628	2185.5504	20483.35	19589.75
947.9974	2187.0488	20359.25	19467.7
948.132	2188.5465	20284.3	19390.45
948.2666	2190.0435	20241.65	19348.55
948.4012	2191.5397	20172.35	19278.55
948.5357	2193.0353	20071.1	19179.1
948.6702	2194.5301	19961.9	19069.05
948.8047	2196.0241	19913.15	19021.55
948.9392	2197.5175	19817.75	18924.75
949.0736	2199.0101	19738.8	18843.75
949.208	2200.502	19631.2	18741.1
949.3424	2201.9931	19602.9	18711.1
949.4767	2203.4835	19495.25	18601.8
949.611	2204.9733	19469.05	18569.95
949.7453	2206.4622	19424.95	18532.7
949.8796	2207.9505	19316.95	18423.3
950.0138	2209.438	19209.7	18320.05
950.148	2210.9248	19166.35	18272.75
950.2822	2212.4109	19107.8	18215.05
950.4164	2213.8962	19051.45	18155.3
950.5505	2215.3809	18990.5	18097
950.6846	2216.8648	18942.2	18048.8
950.8186	2218.3479	18877.95	17980.75
950.9527	2219.8304	18804.25	17910.25
951.0867	2221.3121	18707.85	17813.55
951.2207	2222.7931	18656.8	17763.05
951.3546	2224.2733	18573.2	17680.4
951.4886	2225.7529	18492.65	17601.65
951.6225	2227.2317	18445.35	17549.05
951.7563	2228.7098	18403.15	17513.2
951.8902	2230.1872	18317.4	17427.3
952.024	2231.6638	18265.7	17373.65
952.1578	2233.1397	18183.35	17285.8
952.2916	2234.6149	18138.95	17246.3
952.4253	2236.0894	18078.35	17185.75
952.559	2237.5632	18063.35	17159.35
952.6927	2239.0362	17946.2	17053.5
952.8263	2240.5085	17906.75	17016.85
952.9599	2241.9801	17821.9	16929.55
953.0935	2243.4509	17766.5	16875.35
953.2271	2244.921	17683	16791
953.3606	2246.3904	17633.4	16739.3
953.4941	2247.8591	17564.2	16670.75
953.6276	2249.3271	17527	16635.1
953.7611	2250.7943	17434.85	16542.5
953.8945	2252.2608	17385.45	16493.35
954.0279	2253.7266	17338.8	16446.25
954.1612	2255.1917	17257.7	16364.15
954.2946	2256.656	17214.55	16321
954.4279	2258.1197	17140	16249.55
954.5612	2259.5826	17091.9	16199.65
954.6944	2261.0447	17074.2	16181.45
954.8276	2262.5062	16984.15	16089.35
954.9608	2263.9669	16942.25	16047.35
955.094	2265.4269	16920.7	16027.9
955.2271	2266.8862	16848.75	15956.7
955.3602	2268.3448	16783.35	15889.95
955.4933	2269.8026	16749.4	15855.5
955.6264	2271.2598	16665.65	15775.05
955.7594	2272.7162	16583.9	15691.75
955.8924	2274.1719	16554.45	15662.1
956.0253	2275.6268	16502.25	15608.6
956.1583	2277.0811	16454.2	15561.85
956.2912	2278.5346	16395.1	15503.2
956.4241	2279.9874	16370.25	15477.3
956.5569	2281.4395	16349	15457.2
956.6897	2282.8908	16279.7	15382.95
956.8225	2284.3414	16233.95	15341.95
956.9553	2285.7914	16179.8	15288.65
957.088	2287.2406	16087	15190.95
957.2207	2288.689	16079.25	15186.15
957.3534	2290.1368	16013.1	15120.55
957.486	2291.5838	15946.75	15049.75
957.6186	2293.0302	15901.55	15008.15
957.7512	2294.4758	15829.9	14937.2
957.8838	2295.9206	15758.8	14862
958.0163	2297.3648	15737.15	14843.7
958.1488	2298.8082	15711.95	14818.9
958.2813	2300.251	15669.1	14775
958.4137	2301.693	15579.7	14682.5
958.5461	2303.1343	15596.65	14703.65
958.6785	2304.5748	15504.7	14611.35
958.8108	2306.0147	15438.25	14544.4
958.9432	2307.4538	15389.85	14494.7
959.0754	2308.8922	15337.65	14447.9
959.2077	2310.3299	15297.95	14405.95
959.3399	2311.7669	15235.4	14342.95
959.4721	2313.2031	15166.65	14274.8
959.6043	2314.6387	15101.2	14207.6
959.7365	2316.0735	15039.55	14148.15
959.8686	2317.5076	15019.9	14127.7
960.0006	2318.941	15000.75	14108.6
960.1327	2320.3737	14935.5	14040.3
960.2647	2321.8056	14908.65	14013.2
960.3967	2323.2369	14843.95	13949.85
960.5287	2324.6674	14787.95	13895.05
960.6606	2326.0972	14750.95	13858.8
960.7925	2327.5263	14698.45	13806.4
960.9244	2328.9547	14640	13745.15
961.0562	2330.3823	14612.75	13719.8
961.1881	2331.8092	14600.4	13705.7
961.3198	2333.2355	14484.75	13590.85
961.4516	2334.661	14474.5	13580.2
961.5833	2336.0858	14422.95	13528
961.715	2337.5098	14372.45	13480.05
961.8467	2338.9332	14322.25	13429.45
961.9783	2340.3558	14287.55	13392.75
962.1099	2341.7778	14238.4	13345.75
962.2415	2343.199	14159.5	13262.2
962.373	2344.6195	14122.55	13230.05
962.5045	2346.0393	14096.9	13203.9
962.636	2347.4583	14087.75	13192.65
962.7675	2348.8767	14017.95	13125.7
962.8989	2350.2943	13952.6	13060.45
963.0303	2351.7113	13931.85	13037.75
963.1617	2353.1275	13903.9	13009.65
963.293	2354.543	13858.75	12957.75
963.4243	2355.9578	13800.2	12906.05
963.5556	2357.3718	13692.4	12800.15
963.6868	2358.7852	13628.7	12732.85
963.818	2360.1978	13572	12678.3
963.9492	2361.6098	13581	12689.65
964.0803	2363.021	13501.45	12606.2
964.2114	2364.4315	13477.6	12585.05
964.3425	2365.8413	13424.35	12530.85
964.4736	2367.2504	13380.15	12489.85
964.6046	2368.6587	13286.75	12393.75
964.7356	2370.0664	13256.1	12362.05
964.8666	2371.4733	13192.25	12299.15
964.9975	2372.8795	13174.15	12282.5
965.1284	2374.285	13116.2	12225.15
965.2593	2375.6899	13018.15	12128
965.3901	2377.0939	12992.55	12102.95
965.5209	2378.4973	12941.15	12048.1
965.6517	2379.9	12912.35	12020.9
965.7825	2381.3019	12853.6	11960.75
965.9132	2382.7032	12773.5	11882.85
966.0439	2384.1037	12757.45	11868.05
966.1745	2385.5035	12713.45	11820.2
966.3051	2386.9027	12638.15	11746.5
966.4357	2388.3011	12609.45	11714.3
966.5663	2389.6987	12590.05	11700.5
966.6968	2391.0957	12537.05	11646.45
966.8273	2392.492	12456.6	11567
966.9578	2393.8876	12390.7	11498.55
967.0882	2395.2824	12353.7	11461.1
967.2186	2396.6765	12291.75	11398.2
967.349	2398.07	12238.3	11346.85
967.4793	2399.4627	12219.95	11327.4
967.6097	2400.8547	12179.2	11287.95
967.7399	2402.246	12146.2	11249.2
967.8702	2403.6366	12081.1	11190.45
968.0004	2405.0265	12043.8	11150.95
968.1306	2406.4156	11973.7	11078.25
968.2607	2407.8041	11923	11026.85
968.3909	2409.1918	11881.3	10986.1
968.521	2410.5789	11829.25	10936.25
968.651	2411.9652	11766.95	10874.35
968.781	2413.3508	11729.1	10837.55
968.911	2414.7358	11705.9	10813.95
969.041	2416.12	11660.35	10771.3
969.1709	2417.5035	11638.15	10747.45
969.3008	2418.8863	11593.1	10701.15
969.4307	2420.2684	11551.7	10659.85
969.5606	2421.6497	11508.8	10617.15
969.6904	2423.0304	11409.4	10517.75
969.8201	2424.4104	11393.5	10500.55
969.9499	2425.7896	11312.35	10419.8
970.0796	2427.1682	11305.25	10412.85
970.2093	2428.546	11271.35	10377.7
970.3389	2429.9232	11272.2	10377.6
970.4685	2431.2996	11212.45	10320.6
970.5981	2432.6753	11155.85	10263.9
970.7277	2434.0503	11139	10248.1
970.8572	2435.4246	11100.15	10208.35
970.9867	2436.7982	11075.4	10181.2
971.1161	2438.1711	11028.65	10136.1
971.2456	2439.5433	10987.7	10096.75
971.375	2440.9148	10936.2	10043.55
971.5043	2442.2856	10896.95	10005.45
971.6336	2443.6557	10839.95	9945.5
971.7629	2445.025	10823.8	9932.05
971.8922	2446.3937	10771.4	9878.5
972.0214	2447.7617	10734.75	9841.3
972.1506	2449.1289	10758.05	9866.1
972.2798	2450.4955	10680.95	9785.95
972.4089	2451.8613	10667.95	9776.95
972.538	2453.2265	10627.25	9737.75
972.6671	2454.5909	10616.35	9724.3
972.7961	2455.9546	10584.15	9691.55
972.9251	2457.3177	10502.55	9610.9
973.0541	2458.68	10485.5	9593.1
973.1831	2460.0416	10476.3	9582.35
973.312	2461.4025	10468.5	9575.75
973.4408	2462.7627	10433.45	9528.15
973.5697	2464.1222	10381.5	9491.1
973.6985	2465.4811	10369.65	9475.6
973.8273	2466.8392	10330.9	9439.65
973.956	2468.1966	10286.5	9393.95
974.0847	2469.5533	10286.15	9391.15
974.2134	2470.9093	10278.4	9386
974.3421	2472.2645	10218.85	9328.25
974.4707	2473.6191	10196.45	9304.65
974.5993	2474.973	10117.2	9224.6
974.7278	2476.3262	10107.65	9213.7
974.8563	2477.6787	10054.65	9163.7
974.9848	2479.0305	9994.65	9104.2
975.1132	2480.3816	9957.45	9064.45
975.2417	2481.7319	9923.2	9030
975.37	2483.0816	9891.5	9000
975.4984	2484.4306	9853.9	8961.1
975.6267	2485.7789	9804.85	8913.5
975.755	2487.1264	9766.75	8874.5
975.8833	2488.4733	9730.1	8840.05
976.0115	2489.8195	9727.1	8818
976.1397	2491.165	9630.1	8733.4
976.2678	2492.5097	9631.25	8736.75
976.3959	2493.8538	9592	8699
976.524	2495.1972	9525.3	8634.9
976.6521	2496.5398	9503.75	8610
976.7801	2497.8818	9493.7	8599.75
976.9081	2499.2231	9438.7	8547.65
977.036	2500.5637	9393.8	8499.7
977.164	2501.9035	9364.2	8471.35
977.2918	2503.2427	9336.55	8439.95
977.4197	2504.5812	9328	8435.25
977.5475	2505.919	9276	8380.8
977.6753	2507.256	9259.4	8366.85
977.8031	2508.5924	9237.6	8346.6
977.9308	2509.9281	9195.15	8298.5
978.0585	2511.2631	9165.2	8274.55
978.1861	2512.5974	9125.85	8234.25
978.3137	2513.9309	9100.2	8208.8
978.4413	2515.2638	9079	8156.65
978.5689	2516.596	9044.2	8152.25
978.6964	2517.9275	8977.6	8085
978.8239	2519.2583	8951.65	8058.15
978.9513	2520.5884	8926.95	8033.9
979.0788	2521.9178	8911	8017.9
979.2062	2523.2465	8859.35	7967.9
979.3335	2524.5745	8813.5	7921.3
979.4608	2525.9018	8789.35	7897.8
979.5881	2527.2284	8795.55	7904.35
979.7154	2528.5543	8748.1	7859.4
979.8426	2529.8796	8707.2	7815.3
979.9698	2531.2041	8696.4	7801.55
980.0969	2532.5279	8688.75	7797.9
980.224	2533.851	8663.6	7771
980.3511	2535.1735	8627.15	7735.05
980.4781	2536.4952	8625.3	7732.2
980.6052	2537.8163	8579.8	7687.8
980.7321	2539.1366	8552.05	7659.65
980.8591	2540.4562	8521.15	7627.35
980.986	2541.7752	8534.15	7642.8
981.1129	2543.0935	8477.9	7585
981.2397	2544.411	8468.95	7575.8
981.3665	2545.7279	8439.95	7549.15
981.4933	2547.0441	8433.3	7541.6
981.62	2548.3596	8426.7	7532.2
981.7467	2549.6744	8415.6	7523.8
981.8734	2550.9885	8365.1	7468.5
982.0001	2552.3019	8311.95	7419.6
982.1267	2553.6146	8315.9	7423.55
982.2532	2554.9266	8263.6	7369.9
982.3798	2556.2379	8260.1	7366.3
982.5063	2557.5485	8244.25	7354.75
982.6327	2558.8585	8209.9	7312.65
982.7592	2560.1677	8215.3	7318.55
982.8856	2561.4762	8171.9	7277.85
983.0119	2562.7841	8168.35	7273.4
983.1383	2564.0913	8120.35	7226.6
983.2646	2565.3977	8089.45	7197.2
983.3908	2566.7035	8088.35	7195.85
983.517	2568.0086	8079.6	7184.05
983.6432	2569.313	8074.8	7180.9
983.7694	2570.6167	8047.35	7152.4
983.8955	2571.9197	8022.45	7132.35
984.0216	2573.222	8000.95	7105.95
984.1476	2574.5236	7973.3	7081.9
984.2737	2575.8246	7945.8	7049.45
984.3996	2577.1248	7950.25	7054.95
984.5256	2578.4244	7922.65	7030.65
984.6515	2579.7232	7920.75	7027.65
984.7774	2581.0214	7911.2	6993.6
984.9032	2582.3189	7863.25	6971.1
985.029	2583.6157	7849.4	6953.15
985.1548	2584.9118	7836.85	6944.1
985.2806	2586.2072	7808.6	6917.45
985.4063	2587.5019	7787.7	6895.1
985.5319	2588.7959	7763.85	6870.25
985.6576	2590.0893	7762.35	6869.2
985.7832	2591.3819	7736.5	6842.95
985.9087	2592.6739	7693.55	6802.85
986.0343	2593.9652	7683.25	6789.95
986.1597	2595.2557	7642.7	6751.9
986.2852	2596.5456	7639.25	6746.3
986.4106	2597.8348	7609	6716.75
986.536	2599.1234	7562.1	6669.05
986.6614	2600.4112	7547.1	6656.8
986.7867	2601.6983	7505.2	6609.35
986.912	2602.9848	7493.55	6600.7
987.0372	2604.2705	7460.4	6561.85
987.1624	2605.5556	7436.7	6543.45
987.2876	2606.84	7399.9	6506.7
987.4128	2608.1237	7388.85	6494.2
987.5379	2609.4067	7355.5	6463.8
987.6629	2610.689	7331.8	6429.55
987.788	2611.9707	7328.1	6430.4
987.913	2613.2516	7294.4	6397.05
988.0379	2614.5319	7254.05	6362.75
988.1629	2615.8115	7222	6328.6
988.2878	2617.0903	7185.25	6291.9
988.4126	2618.3685	7176.25	6284.95
988.5375	2619.6461	7144.3	6252.75
988.6622	2620.9229	7138.85	6245.9
988.787	2622.199	7109.8	6217.05
988.9117	2623.4745	7090.05	6196.35
989.0364	2624.7493	7057.45	6165.1
989.161	2626.0234	7018.35	6127.85
989.2857	2627.2968	7009.4	6117.35
989.4102	2628.5695	6984.6	6090.3
989.5348	2629.8415	6944.9	6052.85
989.6593	2631.1128	6912.2	6018.8
989.7837	2632.3835	6886.3	5995.5
989.9082	2633.6535	6863.65	5971
990.0326	2634.9228	6831.05	5938.65
990.1569	2636.1914	6820.7	5929.2
990.2812	2637.4593	6828.1	5929.5
990.4055	2638.7265	6791.5	5898.25
990.5298	2639.9931	6753.6	5861.65
990.654	2641.259	6737.55	5844.1
990.7782	2642.5242	6730.55	5838.6
990.9023	2643.7887	6701.65	5807.15
991.0264	2645.0525	6686.25	5795.3
991.1505	2646.3156	6667.35	5774.5
991.2745	2647.5781	6645.95	5753
991.3985	2648.8398	6617.7	5725.85
991.5225	2650.1009	6608.45	5709.05
991.6464	2651.3613	6565.2	5671.55
991.7703	2652.6211	6546.2	5652.8
991.8942	2653.8801	6528.65	5638.7
992.018	2655.1385	6512.85	5618.2
992.1418	2656.3961	6499.5	5606.8
992.2655	2657.6531	6495.6	5601.95
992.3892	2658.9094	6472.95	5578
992.5129	2660.1651	6437.7	5543.65
992.6366	2661.42	6426.85	5533.75
992.7602	2662.6743	6423.45	5531.05
992.8837	2663.9279	6409.4	5516.45
993.0073	2665.1808	6391.8	5497.9
993.1307	2666.433	6358.85	5465.35
993.2542	2667.6846	6328.7	5435.45
993.3776	2668.9354	6331.2	5435.75
993.501	2670.1856	6308.2	5414.7
993.6244	2671.4351	6288.85	5396.45
993.7477	2672.6839	6271.5	5380.1
993.8709	2673.9321	6270	5377.3
993.9942	2675.1795	6243.8	5351.25
994.1174	2676.4263	6230.75	5338.6
994.2405	2677.6724	6219.55	5329.8
994.3637	2678.9179	6194.8	5301.55
994.4868	2680.1626	6171.15	5279.85
994.6098	2681.4067	6167.5	5275.25
994.7328	2682.6501	6152.95	5261.7
994.8558	2683.8928	6129.2	5236.4
994.9788	2685.1348	6096.6	5205.95
995.1017	2686.3761	6072.65	5179.45
995.2245	2687.6168	6061.1	5167.95
995.3474	2688.8568	6005.15	5114.95
995.4702	2690.0961	6006.9	5114.7
995.5929	2691.3348	5983.75	5091.65
995.7156	2692.5727	5973.2	5080.1
995.8383	2693.81	5956.35	5063.45
995.961	2695.0466	5929.5	5039.7
996.0836	2696.2826	5907.35	5012.15
996.2062	2697.5178	5908.05	5014.5
996.3287	2698.7524	5890.55	4997.8
996.4512	2699.9863	5870.55	4975.95
996.5737	2701.2195	5831.15	4940.4
996.6961	2702.452	5838.2	4946.1
996.8185	2703.6839	5820.5	4924.95
996.9408	2704.9151	5802.05	4910.7
997.0631	2706.1456	5770.45	4878.05
997.1854	2707.3755	5781.4	4888.95
997.3077	2708.6046	5760.8	4864.4
997.4299	2709.8331	5746.6	4851.3
997.552	2711.0609	5737.85	4845.45
997.6742	2712.2881	5707.15	4815.1
997.7963	2713.5145	5694.95	4802.15
997.9183	2714.7403	5704.6	4812.65
998.0403	2715.9654	5683	4790.35
998.1623	2717.1899	5695.2	4790
998.2842	2718.4136	5684.45	4790.25
998.4062	2719.6367	5670.9	4779.5
998.528	2720.8591	5663.8	4766.2
998.6498	2722.0809	5629.4	4736.5
998.7716	2723.3019	5626.6	4732.3
998.8934	2724.5223	5615.65	4721.65
999.0151	2725.7421	5620.05	4728.15
999.1368	2726.9611	5591.35	4697
999.2584	2728.1795	5570	4674.65
999.38	2729.3972	5550.65	4660.45
999.5016	2730.6142	5537.75	4637.7
999.6231	2731.8306	5500.65	4606.4
999.7446	2733.0462	5444.5	4551.1
999.8661	2734.2612	5418.4	4520
999.9875	2735.4756	5400.9	4507.55
1000.1089	2736.6892	5371.4	4476.7
1000.2302	2737.9022	5326.85	4435.7
1000.3515	2739.1145	5291.5	4398.9
1000.4728	2740.3262	5266.4	4366.8
1000.594	2741.5372	5235.6	4343.15
1000.7152	2742.7475	5227.8	4334.35
1000.8363	2743.9571	5198.65	4304.3
1000.9575	2745.1661	5162.2	4264.7
1001.0785	2746.3744	5142.9	4248.85
1001.1996	2747.582	5118.35	4226.5
1001.3206	2748.7889	5095.45	4203.25
1001.4415	2749.9952	5090.3	4199.35
1001.5625	2751.2008	5059.5	4167
1001.6833	2752.4057	5034.05	4139.95
1001.8042	2753.61	5038	4142.75
1001.925	2754.8136	5013.7	4119.2
1002.0458	2756.0165	5006.8	4115.8
1002.1665	2757.2188	4974.45	4082.55
1002.2872	2758.4204	4961.15	4068.3
1002.4078	2759.6213	4944.3	4047.15
1002.5285	2760.8215	4934.35	4038.1
1002.649	2762.0211	4923.95	4030.3
1002.7696	2763.22	4900.8	4007.7
1002.8901	2764.4182	4884.8	3989.6
1003.0106	2765.6158	4871.1	3979.15
1003.131	2766.8127	4857.15	3965.25
1003.2514	2768.009	4840.15	3947.8
1003.3717	2769.2045	4813	3918.75
1003.492	2770.3994	4803.25	3908.65
1003.6123	2771.5936	4799.45	3905.8
1003.7325	2772.7872	4779.7	3889
1003.8527	2773.9801	4753.3	3860.85
1003.9729	2775.1723	4754.85	3845.35
1004.093	2776.3639	4724.4	3832.6
1004.2131	2777.5548	4688.25	3794.5
1004.3331	2778.745	4704.45	3811.2
1004.4531	2779.9346	4682.1	3790.1
1004.5731	2781.1235	4661	3766.35
1004.693	2782.3117	4645.4	3750.8
1004.8129	2783.4992	4641.65	3749.55
1004.9328	2784.6861	4628.4	3735.65
1005.0526	2785.8723	4628.1	3733.7
1005.1723	2787.0579	4627.05	3732.55
1005.2921	2788.2428	4620.05	3727.4
1005.4118	2789.427	4610.45	3719.2
1005.5314	2790.6106	4608.75	3718.35
1005.651	2791.7935	4582.65	3689.9
1005.7706	2792.9757	4575.4	3682.65
1005.8902	2794.1573	4580.1	3684.65
1006.0097	2795.3382	4581.1	3688.8
1006.1291	2796.5184	4599.6	3708.25
1006.2485	2797.698	4588.65	3694.5
1006.3679	2798.8769	4610.45	3719.6
1006.4873	2800.0551	4579.5	3688.7
1006.6066	2801.2327	4580	3686.55
1006.7258	2802.4096	4594.95	3703.8
1006.8451	2803.5859	4620.25	3727.5
1006.9642	2804.7615	4610.75	3718.95
1007.0834	2805.9364	4617	3726.2
1007.2025	2807.1106	4630	3739.05
1007.3216	2808.2842	4648.25	3756.15
1007.4406	2809.4572	4663.85	3770.45
1007.5596	2810.6294	4697.6	3803.4
1007.6785	2811.801	4715.65	3824.05
1007.7975	2812.972	4747.05	3856.1
1007.9163	2814.1423	4801.3	3908.85
1008.0352	2815.3119	4821.25	3930.2
1008.154	2816.4808	4846.2	3954.8
1008.2727	2817.6491	4880.45	3987.05
1008.3914	2818.8167	4916.35	4026.1
1008.5101	2819.9837	4977.3	4080.75
1008.6288	2821.15	4994.35	4103.75
1008.7474	2822.3157	5031.75	4141.15
1008.8659	2823.4807	5069.1	4175.85
1008.9844	2824.645	5103.25	4209.95
1009.1029	2825.8086	5136	4245.8
1009.2214	2826.9716	5187.15	4295.8
1009.3398	2828.134	5211.35	4320.9
1009.4581	2829.2957	5248.55	4356.7
1009.5764	2830.4567	5249	4358.4
1009.6947	2831.617	5253.1	4360.6
1009.813	2832.7767	5258.15	4367.3
1009.9312	2833.9358	5239.85	4348.55
1010.0493	2835.0941	5235.75	4342.85
1010.1675	2836.2519	5238.8	4347.45
1010.2855	2837.4089	5200.9	4308.9
1010.4036	2838.5653	5183.65	4293.1
1010.5216	2839.7211	5169.35	4279.05
1010.6396	2840.8761	5186.1	4293.4
1010.7575	2842.0306	5204.95	4313.15
1010.8754	2843.1843	5209.45	4319.55
1010.9932	2844.3374	5256.6	4363.35
1011.111	2845.4899	5320.25	4427.55
1011.2288	2846.6417	5368.15	4476
1011.3465	2847.7928	5432.7	4542.2
1011.4642	2848.9433	5508.7	4619.7
1011.5818	2850.0931	5588.9	4698.35
1011.6995	2851.2422	5662.55	4768.3
1011.817	2852.3907	5732.2	4837.95
1011.9345	2853.5385	5761.45	4867.95
1012.052	2854.6857	5857.45	4938.4
1012.1695	2855.8323	5862.65	4970.75
1012.2869	2856.9781	5907.7	5014.7
1012.4042	2858.1233	5924.2	5033.05
1012.5216	2859.2679	5962.95	5070.8
1012.6389	2860.4118	6012.5	5121.8
1012.7561	2861.555	6046.2	5149.55
1012.8733	2862.6976	6062.95	5168.7
1012.9905	2863.8395	6084.15	5192.2
1013.1076	2864.9808	6078.6	5188.4
1013.2247	2866.1214	6109.5	5219.65
1013.3417	2867.2614	6099.4	5208.85
1013.4587	2868.4007	6101.25	5209.05
1013.5757	2869.5393	6103.15	5209.15
1013.6926	2870.6773	6114.8	5219.65
1013.8095	2871.8146	6130.15	5235.95
1013.9263	2872.9513	6116.4	5223.05
1014.0431	2874.0874	6079.5	5188.85
1014.1599	2875.2227	6063.7	5172.55
1014.2766	2876.3574	6035	5141.75
1014.3933	2877.4915	5992.6	5101.15
1014.51	2878.6249	5971.4	5081.25
1014.6266	2879.7577	5927.75	5034.1
1014.7431	2880.8898	5912.15	5010.8
1014.8596	2882.0212	5871.95	4980.25
1014.9761	2883.152	5862.1	4968.55
1015.0925	2884.2821	5804.75	4915.05
1015.2089	2885.4116	5806.45	4915
1015.3253	2886.5405	5792.8	4902.85
1015.4416	2887.6686	5803.65	4908.45
1015.5579	2888.7962	5773.4	4879.95
1015.6741	2889.923	5778.9	4890
1015.7903	2891.0493	5812.65	4922.35
1015.9065	2892.1748	5787.85	4894
1016.0226	2893.2997	5781	4887.95
1016.1387	2894.424	5781.95	4893.1
1016.2547	2895.5476	5797.95	4905.8
1016.3707	2896.6706	5821.2	4932.6
1016.4866	2897.7929	5836.95	4945.85
1016.6025	2898.9145	5852.65	4960.8
1016.7184	2900.0355	5870.2	4977.5
1016.8342	2901.1559	5886.9	4993.7
1016.95	2902.2756	5926.85	5035.45
1017.0658	2903.3946	5936.5	5046.3
1017.1815	2904.513	5967.45	5074.45
1017.2971	2905.6308	5960.1	5070.9
1017.4127	2906.7479	5973.8	5083.2
1017.5283	2907.8643	5991.65	5099.95
1017.6439	2908.9801	6000.5	5108.75
1017.7594	2910.0953	5986.1	5094.05
1017.8748	2911.2098	5971.6	5076.75
1017.9902	2912.3236	5982.55	5082.95
1018.1056	2913.4368	5959.75	5064.2
1018.2209	2914.5494	5930.45	5037.8
1018.3362	2915.6613	5885.8	4988.9
1018.4515	2916.7725	5837.1	4942.3
1018.5667	2917.8831	5805.1	4913.7
1018.6819	2918.9931	5791.95	4896.8
1018.797	2920.1024	5745.35	4852.3
1018.9121	2921.211	5709.9	4817.95
1019.0271	2922.319	5705.05	4812.35
1019.1421	2923.4264	5661.5	4771.8
1019.2571	2924.5331	5649.9	4757.35
1019.372	2925.6391	5616.05	4724.7
1019.4869	2926.7445	5607.05	4716.85
1019.6017	2927.8493	5587.9	4694.6
1019.7165	2928.9534	5577.95	4687.3
1019.8313	2930.0569	5573.5	4678.75
1019.946	2931.1597	5532.2	4640.1
1020.0606	2932.2619	5530.65	4638.4
1020.1753	2933.3634	5519.45	4628.95
1020.2899	2934.4643	5485.2	4587.75
1020.4044	2935.5645	5468.8	4571.3
1020.5189	2936.6641	5427.6	4530.5
1020.6334	2937.763	5375.15	4482.75
1020.7478	2938.8613	5307.6	4415.9
1020.8622	2939.959	5225.7	4331.3
1020.9765	2941.056	5159	4269.05
1021.0908	2942.1523	5056.8	4164
1021.2051	2943.248	4980.8	4090
1021.3193	2944.3431	4868.45	3977.4
1021.4334	2945.4375	4763.75	3873.95
1021.5476	2946.5313	4643.15	3753.45
1021.6617	2947.6244	4539.25	3648.7
1021.7757	2948.7169	4426.4	3533.8
1021.8897	2949.8087	4328.4	3436.65
1022.0037	2950.8999	4222.25	3330.95
1022.1176	2951.9904	4134.55	3243.25
1022.2315	2953.0803	4052.7	3159.65
1022.3453	2954.1696	3981.45	3089.2
1022.4591	2955.2582	3925.35	3033.25
1022.5728	2956.3462	3859.7	2968.4
1022.6865	2957.4335	3810	2918.2
1022.8002	2958.5202	3775.35	2879.7
1022.9138	2959.6062	3740.7	2849.65
1023.0274	2960.6916	3716.9	2826.8
1023.141	2961.7764	3677.85	2784.9
1023.2545	2962.8605	3652.9	2760.9
1023.3679	2963.9439	3628.45	2738.05
1023.4813	2965.0267	3608	2714.55
1023.5947	2966.1089	3613.25	2699.3
1023.708	2967.1905	3592.3	2700.25
1023.8213	2968.2714	3586.2	2695.45
1023.9346	2969.3516	3558.55	2668.4
1024.0478	2970.4312	3577.1	2680.4
1024.1609	2971.5102	3535.4	2644.05
1024.274	2972.5885	3543.1	2652.35
1024.3871	2973.6662	3551.55	2652.65
1024.5002	2974.7432	3526.45	2636.5
1024.6132	2975.8196	3507.5	2616.9
1024.7261	2976.8954	3479.35	2590
1024.839	2977.9705	3479.8	2588.85
1024.9519	2979.045	3461.1	2570.25
1025.0647	2980.1188	3430.3	2540.15
1025.1775	2981.192	3394.45	2504.05
1025.2902	2982.2645	3379.9	2487.25
1025.4029	2983.3364	3322.55	2431.3
1025.5156	2984.4077	3307.6	2415.1
1025.6282	2985.4783	3279.1	2382.7
1025.7407	2986.5483	3244.95	2355.3
1025.8532	2987.6177	3199.05	2308.6
1025.9657	2988.6864	3159.55	2266.3
1026.0782	2989.7545	3126.55	2233.85
1026.1906	2990.8219	3080.8	2189.05
1026.3029	2991.8887	3029.35	2134.4
1026.4152	2992.9548	3011.8	2121.65
1026.5275	2994.0204	2974.55	2084.75
1026.6397	2995.0852	2932.8	2042.35
1026.7519	2996.1495	2915	2020.8
1026.864	2997.2131	2880.55	1990.15
1026.9761	2998.276	2850.05	1959.65
1027.0882	2999.3383	2814.5	1921.2
1027.2002	3000.4	2801.9	1909.7
1027.3122	3001.4611	2782.05	1890.25
1027.4241	3002.5215	2751.45	1860.4
1027.536	3003.5812	2732.15	1842.55
1027.6478	3004.6404	2725.25	1835.1
1027.7596	3005.6989	2718.65	1825.05
1027.8714	3006.7567	2694.4	1804.2
1027.9831	3007.8139	2703.4	1790.1
1028.0947	3008.8705	2666.35	1776.25
1028.2064	3009.9264	2670.4	1776.45
1028.3179	3010.9818	2650.75	1758.3
1028.4295	3012.0364	2645.1	1754.9
1028.541	3013.0905	2629	1738.25
1028.6524	3014.1439	2619.95	1730.35
1028.7638	3015.1966	2610.1	1719.05
1028.8752	3016.2487	2620.85	1728.4
1028.9865	3017.3002	2619	1722.9
1029.0978	3018.3511	2610.05	1718.65
1029.209	3019.4013	2596	1705.2
1029.3202	3020.4509	2591.7	1702.65
1029.4314	3021.4998	2590.7	1698.6
1029.5425	3022.5481	2582.85	1691.15
1029.6535	3023.5958	2575.25	1684.75
1029.7645	3024.6428	2580	1685.6
1029.8755	3025.6892	2576.45	1685.85
1029.9864	3026.735	2563.65	1673.35
1030.0973	3027.7802	2562.55	1670.7
1030.2082	3028.8247	2559.5	1669
1030.319	3029.8685	2561	1669.4
1030.4297	3030.9118	2553.45	1661.45
1030.5404	3031.9544	2552.1	1661.15
1030.6511	3032.9963	2559.3	1668.4
1030.7617	3034.0376	2549.25	1657.4
1030.8723	3035.0783	2548.05	1656.2
1030.9829	3036.1184	2547.9	1653.75
1031.0934	3037.1578	2552.45	1663.25
1031.2038	3038.1966	2540.85	1648.95
1031.3142	3039.2348	2540.25	1650.75
1031.4246	3040.2723	2546.6	1645.8
1031.5349	3041.3092	2533.3	1642.5
1031.6452	3042.3455	2518.7	1625.9
1031.7554	3043.3811	2511.45	1617.95
1031.8656	3044.4161	2500.15	1609.55
1031.9758	3045.4505	2492.5	1601.75
1032.0859	3046.4842	2483.45	1592.2
1032.1959	3047.5173	2457.25	1567.65
1032.3059	3048.5498	2448.75	1558.2
1032.4159	3049.5816	2448.35	1557
1032.5258	3050.6128	2450.2	1557.95
1032.6357	3051.6434	2437.1	1544
1032.7455	3052.6734	2415.45	1522.8
1032.8553	3053.7027	2416.6	1525.85
1032.9651	3054.7314	2394.5	1503.6
1033.0748	3055.7594	2381.8	1491.05
1033.1845	3056.7868	2375.8	1485.75
1033.2941	3057.8136	2371.45	1480.05
1033.4037	3058.8398	2346	1457.5
1033.5132	3059.8653	2338.9	1446.8
1033.6227	3060.8902	2335.2	1444.45
1033.7321	3061.9145	2330.8	1441.1
1033.8415	3062.9381	2325.05	1435
1033.9509	3063.9612	2322.2	1416.1
1034.0602	3064.9835	2301.5	1408.6
1034.1694	3066.0053	2290.85	1400.7
1034.2787	3067.0264	2264.5	1374.75
1034.3878	3068.0469	2261.65	1369.85
1034.497	3069.0668	2245.85	1353.2
1034.6061	3070.086	2244.5	1354.75
1034.7151	3071.1046	2229	1337.45
1034.8241	3072.1226	2220.3	1327.7
1034.9331	3073.1399	2191.6	1300.3
1035.042	3074.1567	2188.9	1297.7
1035.1508	3075.1727	2171.3	1279.4
1035.2597	3076.1882	2154.75	1264.65
1035.3684	3077.203	2148.75	1258.5
1035.4772	3078.2173	2137.9	1244.75
1035.5859	3079.2308	2120.85	1230.2
1035.6945	3080.2438	2119.9	1228.05
1035.8031	3081.2561	2097.85	1207.35
1035.9117	3082.2678	2090	1199.7
1036.0202	3083.2789	2080.3	1190.95
1036.1286	3084.2893	2078.7	1187.35
1036.2371	3085.2991	2062.1	1170.7
1036.3454	3086.3083	2058.5	1163.9
1036.4538	3087.3169	2038.05	1146.25
1036.562	3088.3248	2038.1	1146.3
1036.6703	3089.3321	2027.2	1135.25
1036.7785	3090.3388	2014.65	1123.5
1036.8866	3091.3449	1994.55	1103.3
1036.9948	3092.3503	1998.6	1106
1037.1028	3093.3551	1992.45	1105.4
1037.2108	3094.3593	1977.55	1085.45
1037.3188	3095.3629	1976.45	1087
1037.4267	3096.3658	1969.1	1077.5
1037.5346	3097.3681	1959.65	1069.95
1037.6425	3098.3698	1957.15	1064.95
1037.7503	3099.3708	1954.25	1056.25
1037.858	3100.3713	1930.45	1040.2
1037.9657	3101.3711	1931.8	1040.15
1038.0734	3102.3702	2029.75	1021.6
1038.181	3103.3688	1926.45	1034.35
1038.2886	3104.3667	1915.7	1025.05
1038.3961	3105.364	1909.2	1019.9
1038.5036	3106.3607	1903.4	1010.9
1038.611	3107.3568	1902.85	1012.5
1038.7184	3108.3522	1883.95	993.7
1038.8257	3109.347	1878.55	988.7
1038.933	3110.3412	1878.45	982.8
1039.0403	3111.3348	1879.75	989.3
1039.1475	3112.3277	1859.05	969.15
1039.2547	3113.32	1857.35	968.05
1039.3618	3114.3117	1856.4	966.1
1039.4689	3115.3028	1852.65	960.6
1039.5759	3116.2932	1837.7	946.3
1039.6829	3117.2831	1838.5	941.6
1039.7898	3118.2723	1830.7	939.1
1039.8967	3119.2608	1820.9	930.75
1040.0035	3120.2488	1817.6	925.15
1040.1103	3121.2361	1803.55	913.1
1040.2171	3122.2229	1806.1	912.1
1040.3238	3123.209	1800.75	909.15
1040.4305	3124.1944	1796.55	906.55
1040.5371	3125.1793	1798.25	904.05
1040.6437	3126.1635	1780.7	889.85
1040.7502	3127.1471	1786.9	896.25
1040.8567	3128.1301	1771.1	880.95
1040.9631	3129.1125	1762.9	872.7
1041.0695	3130.0942	1761.8	872.45
1041.1759	3131.0753	1777.75	878.6
1041.2822	3132.0558	1773.9	880.1
1041.3884	3133.0357	1757.15	866.5
1041.4946	3134.015	1758	867.15
1041.6008	3134.9936	1736.2	843.2
1041.7069	3135.9716	1762.85	851.95
1041.813	3136.949	1730	839.65
1041.919	3137.9258	1740	845.15
1042.025	3138.902	1729.75	832.4
1042.1309	3139.8775	1733.1	842.95
1042.2368	3140.8524	1715.1	825.2
1042.3427	3141.8267	1725.25	833.9
1042.4485	3142.8004	1716.7	827.45
1042.5542	3143.7735	1720.85	824.45
1042.6599	3144.7459	1714.5	821.1
1042.7656	3145.7178	1704.5	813.7
1042.8712	3146.689	1693.45	803.9
1042.9768	3147.6596	1692.7	802.3
1043.0823	3148.6295	1692.25	802.35
1043.1878	3149.5989	1682.2	793.7
1043.2932	3150.5676	1680.8	791.9
1043.3986	3151.5357	1676.7	786
1043.5039	3152.5032	1665.85	776.55
1043.6092	3153.4701	1664.9	774.3
1043.7145	3154.4364	1659.5	766.35
1043.8197	3155.402	1659.05	769.4
1043.9248	3156.367	1653.5	761.8
1044.03	3157.3315	1691.35	758.05
1044.135	3158.2952	1652.2	762.15
1044.24	3159.2584	1638.85	747.95
1044.345	3160.221	1634.35	743.85
1044.4499	3161.1829	1622.8	733.45
1044.5548	3162.1442	1622.15	733.45
1044.6596	3163.105	1621.4	731
1044.7644	3164.065	1610.35	720.8
1044.8692	3165.0245	1620.1	727.2
1044.9739	3165.9834	1609.4	717.75
1045.0785	3166.9416	1606.35	717.9
1045.1831	3167.8993	1595.65	704.65
1045.2877	3168.8563	1592.45	700.35
1045.3922	3169.8127	1593.35	703.1
1045.4966	3170.7684	1583.35	691.6
1045.6011	3171.7236	1584.7	694.25
1045.7054	3172.6782	1583.95	691.85
1045.8098	3173.6321	1580.25	687.75
1045.914	3174.5854	1587.65	693.85
1046.0183	3175.5381	1568.75	678.8
1046.1224	3176.4902	1566.5	677.1
1046.2266	3177.4417	1568.5	679.8
1046.3307	3178.3926	1560.55	670.05
1046.4347	3179.3428	1560.45	671.1
1046.5387	3180.2924	1555.3	664.5
1046.6427	3181.2415	1552	661.5
1046.7466	3182.1899	1548.65	657.9
1046.8504	3183.1377	1540.5	650.75
1046.9542	3184.0848	1540.55	646.85
1047.058	3185.0314	1526.7	635.75
1047.1617	3185.9773	1529.2	640
1047.2654	3186.9227	1525.4	635.25
1047.369	3187.8674	1525.95	635.6
1047.4726	3188.8115	1519.45	626.75
1047.5761	3189.755	1514.05	624.3
1047.6796	3190.6979	1512.85	625.35
1047.783	3191.6402	1520.8	632.05
1047.8864	3192.5818	1506.35	616.25
1047.9898	3193.5229	1518.7	615.55
1048.0931	3194.4633	1506.7	615.95
1048.1963	3195.4031	1501.65	610.25
1048.2995	3196.3423	1488.45	598.75
1048.4027	3197.2809	1497.1	607.8
1048.5058	3198.2189	1488.9	596.75
1048.6089	3199.1563	1487.35	592.05
1048.7119	3200.0931	1481.55	591.9
1048.8148	3201.0292	1481.85	592.1
1048.9178	3201.9648	1474.9	584.65
1049.0206	3202.8997	1478.5	586.25
1049.1235	3203.834	1476.55	586.6
1049.2262	3204.7677	1466.7	576.6
1049.329	3205.7008	1468.65	575.95
1049.4317	3206.6333	1457.2	568.15
1049.5343	3207.5652	1460.35	566.6
1049.6369	3208.4964	1456.8	566.55
1049.7394	3209.4271	1451.5	561.3
1049.8419	3210.3571	1453.25	563.9
1049.9444	3211.2865	1447.55	555.4
1050.0468	3212.2154	1443.4	551.85
1050.1491	3213.1436	1441.9	547
1050.2514	3214.0712	1443.85	546.7
1050.3537	3214.9982	1431.95	541.25
1050.4559	3215.9246	1435.6	545.75
1050.5581	3216.8503	1430.45	540.65
1050.6602	3217.7755	1430.6	541.1
1050.7623	3218.7001	1425.05	533.85
1050.8643	3219.624	1424.55	531.2
1050.9663	3220.5473	1419.05	528.3
1051.0682	3221.4701	1419.75	527.85
1051.1701	3222.3922	1416.55	525.75
1051.2719	3223.3137	1404.65	516.8
1051.3737	3224.2346	1409.45	517.6
1051.4754	3225.1549	1405.1	516.95
1051.5771	3226.0746	1409.6	520.8
1051.6788	3226.9937	1400.3	511.6
1051.7804	3227.9121	1392.15	503.75
1051.8819	3228.83	1395.8	504.25
1051.9834	3229.7473	1395.9	506.6
1052.0849	3230.6639	1386.65	493.5
1052.1863	3231.5799	1383.55	492.25
1052.2876	3232.4954	1384.1	492.75
1052.3889	3233.4102	1379.6	491.15
1052.4902	3234.3244	1378.85	489
1052.5914	3235.238	1374.6	484
1052.6926	3236.151	1394.45	482.05
1052.7937	3237.0634	1370.7	481.15
1052.8948	3237.9752	1371.05	479.95
1052.9958	3238.8864	1357.75	468.45
1053.0968	3239.797	1360.05	471.1
1053.1977	3240.7069	1357.6	467.85
1053.2986	3241.6163	1357.25	466.55
1053.3994	3242.5251	1351.55	460.95
1053.5002	3243.4332	1350.65	461.35
1053.6009	3244.3408	1343.5	453.25
1053.7016	3245.2477	1347.5	458.25
1053.8022	3246.154	1341.75	450.9
1053.9028	3247.0598	1346.15	455.05
1054.0034	3247.9649	1339.25	449.75
1054.1039	3248.8694	1331.3	440.9
1054.2043	3249.7733	1334.95	443.65
1054.3047	3250.6766	1331.3	442.2
1054.4051	3251.5793	1326.7	435.9
1054.5054	3252.4814	1327.2	437.7
1054.6056	3253.3829	1313.65	423.65
1054.7058	3254.2838	1315.8	424.7
1054.806	3255.1841	1319.3	429.85
1054.9061	3256.0838	1313	422.3
1055.0061	3256.9829	1303.85	415.6
1055.1062	3257.8814	1299	408.4
1055.2061	3258.7792	1301.65	410.8
1055.306	3259.6765	1293.1	404
1055.4059	3260.5731	1290.15	401.25
1055.5057	3261.4692	1288.6	398.25
1055.6055	3262.3647	1282.2	391.65
1055.7052	3263.2595	1276.2	387.35
1055.8049	3264.1538	1268.5	379.25
1055.9045	3265.0474	1261.1	368.6
1056.0041	3265.9404	1255.8	365.95
1056.1036	3266.8329	1252.15	364.8
1056.2031	3267.7247	1257.6	356.9
1056.3025	3268.616	1240.3	354.4
1056.4019	3269.5066	1239.2	351.45
1056.5013	3270.3966	1223.6	333.8
1056.6005	3271.286	1209.9	320.35
