Software Version:	3.9.2.0
Unit SN:	10000200
Spectrometer SN:	6960
Date:	3/6/2024 9:34:34 AM
Data Line Index:	25
Spectral Points:	2048
Integration time (ms):	125
Averages:	20
Delay (ms):	30
Sequence Number:	1
Processing:	dark subtract
Laser Power (mW):	300
Laser Current (mA):	824
Laser Diode Temp (C):	25
Laser Case Temp (C):	23.8
System Temp (C):	23.6
Spectrometer Temp (C):	21.1
CCD Temp (C):	-0.029
Secondary Temp (C):	20.008
Heatsink Temp (C):	17.702
CCDPCB Temp (C):	30.682
SecondaryPCB Temp (C):	25.536

Wavelength	RamanShift	Raw Counts	Dark Subtracted
787.061	30.1047	521	111.1
787.2016	32.3739	521.15	114.6
787.3422	34.6426	531.05	124
787.4828	36.9109	542.75	134.05
787.6235	39.1787	556.7	144.1
787.7642	41.4461	567.2	151.2
787.9049	43.7131	581.9	161.8
788.0456	45.9796	594.9	172.5
788.1863	48.2456	605.25	179.4
788.3271	50.5112	620.05	189.75
788.4679	52.7764	632.95	199.75
788.6087	55.0411	645.8	208.95
788.7496	57.3054	662.9	219.6
788.8904	59.5692	679.1	235.15
789.0313	61.8326	694.3	248.25
789.1722	64.0955	720.05	270.7
789.3132	66.3579	746.2	292.2
789.4541	68.6199	772.75	315.15
789.5951	70.8815	826.95	364.6
789.7361	73.1426	948.5	482.85
789.8771	75.4032	1232.95	761.75
790.0181	77.6634	1967.8	1494.95
790.1592	79.9231	3685.85	3211.1
790.3003	82.1824	7486.2	7006.95
790.4414	84.4412	14196.85	13708.95
790.5825	86.6995	23207.7	22713.55
790.7237	88.9574	31827.75	31326.7
790.8648	91.2148	37960.45	37452.85
791.006	93.4717	41131.5	40618.75
791.1472	95.7282	42490.65	41977.3
791.2885	97.9842	43185.85	42671.35
791.4297	100.2398	43524	43007
791.571	102.4949	43369.6	42849.95
791.7123	104.7495	43658.65	43135.9
791.8536	107.0036	43505	42979.9
791.9949	109.2573	43982.2	43458.3
792.1363	111.5105	43526.65	43000.85
792.2777	113.7632	43896.75	43369.05
792.4191	116.0154	43984.1	43442.95
792.5605	118.2672	44276.25	43742.4
792.7019	120.5185	44214.35	43678.5
792.8434	122.7693	44300.65	43763.55
792.9849	125.0197	44267.35	43723.8
793.1264	127.2696	44612.8	44067.3
793.2679	129.519	44865	44317.1
793.4094	131.7679	45244.55	44694.05
793.551	134.0163	44371.4	43818.8
793.6926	136.2642	44813.75	44256
793.8342	138.5117	45304.55	44744.95
793.9758	140.7587	45217.65	44655.4
794.1175	143.0052	45387.65	44823.6
794.2591	145.2512	45023	44460.65
794.4008	147.4967	45492.35	44925.5
794.5425	149.7417	45306	44736.7
794.6842	151.9863	45433.75	44858.65
794.826	154.2304	45037.2	44460.45
794.9677	156.4739	45332.15	44749.75
795.1095	158.717	45579.6	44996.7
795.2513	160.9596	45552.85	44964.45
795.3931	163.2017	45253.7	44667.1
795.535	165.4433	45730.9	45138.3
795.6768	167.6844	45535.15	44939
795.8187	169.925	45780.15	45184.05
795.9606	172.1651	45649	45047.95
796.1025	174.4047	45459.05	44854.6
796.2445	176.6439	45665.35	45057.3
796.3864	178.8825	45788.3	45178.05
796.5284	181.1206	45948.85	45332.9
796.6704	183.3582	46059.1	45441.7
796.8124	185.5954	45728.4	45108.7
796.9544	187.832	46013.1	45389.75
797.0965	190.0681	45928.8	45302.45
797.2386	192.3037	46374.45	45744.8
797.3806	194.5388	46834	46203.2
797.5228	196.7734	45971.5	45338.6
797.6649	199.0075	46736.8	46100.3
797.807	201.2411	46773.75	46138.65
797.9492	203.4742	47084.5	46447.65
798.0914	205.7068	47177.4	46535.2
798.2336	207.9389	47225.55	46581.7
798.3758	210.1704	47216.45	46578.3
798.518	212.4015	47674.65	47046.95
798.6603	214.632	47064.75	46447.35
798.8025	216.862	47560.1	46939.25
798.9448	219.0915	47714.3	47091.7
799.0871	221.3205	47479.9	46855.55
799.2294	223.549	47877.25	47257.75
799.3718	225.777	47950.05	47330.6
799.5141	228.0044	48014.75	47386.75
799.6565	230.2314	48150.25	47518.4
799.7989	232.4578	48131.1	47496.5
799.9413	234.6837	48139.2	47496.7
800.0837	236.909	48907.85	48262.75
800.2262	239.1339	47990.3	47322.6
800.3687	241.3582	48480.05	47825.25
800.5111	243.582	48498.1	47814.6
800.6536	245.8053	48665.85	47994.95
800.7961	248.0281	48603.35	47935.7
800.9387	250.2503	48779.7	48108.75
801.0812	252.472	48627.6	47956.55
801.2238	254.6932	48706.35	48033.8
801.3664	256.9139	48697.5	48021.65
801.509	259.134	49439.35	48760.2
801.6516	261.3536	48452	47776.2
801.7942	263.5727	49240.4	48562.45
801.9369	265.7912	48981.15	48303.65
802.0795	268.0092	49126.55	48448.3
802.2222	270.2267	49142.7	48464.05
802.3649	272.4436	48987.6	48304.6
802.5076	274.6601	49291.9	48601.45
802.6504	276.8759	49350	48660.85
802.7931	279.0913	49483.1	48793.85
802.9359	281.3061	49360.75	48670.8
803.0787	283.5204	49609.2	48919.7
803.2215	285.7341	49560.05	48865.45
803.3643	287.9473	50042.7	49338.8
803.5071	290.16	49589.95	48888.1
803.6499	292.3721	50170.4	49477.75
803.7928	294.5837	49353.6	48660.8
803.9357	296.7947	49264.85	48572.95
804.0786	299.0052	49645.9	48952.7
804.2215	301.2152	49395.15	48696.85
804.3644	303.4246	49870.1	49175.2
804.5074	305.6334	49796.6	49100.05
804.6503	307.8418	49306.35	48606.15
804.7933	310.0495	49579.8	48878.3
804.9363	312.2568	49438.1	48735
805.0793	314.4635	49318	48615.35
805.2223	316.6696	49453	48746.1
805.3653	318.8752	49668.45	48953.1
805.5084	321.0802	48832.75	48123.9
805.6514	323.2847	49162.95	48452.95
805.7945	325.4887	49215.35	48505.45
805.9376	327.692	48970.7	48261.05
806.0807	329.8949	49285.1	48569.85
806.2238	332.0972	49205.25	48489.7
806.367	334.2989	49407.1	48687.65
806.5101	336.5001	49577.85	48856.2
806.6533	338.7007	49103.45	48384.5
806.7965	340.9008	49315.3	48594.65
806.9397	343.1003	49320.05	48597.05
807.0829	345.2992	49504.6	48779
807.2261	347.4976	49184.5	48459.8
807.3693	349.6955	49296.4	48567.85
807.5126	351.8927	49165.8	48437.25
807.6559	354.0895	49362.1	48621.35
807.7991	356.2856	49296.5	48565.05
807.9424	358.4812	49542.85	48806.9
808.0857	360.6763	49265.15	48530.25
808.2291	362.8707	49295.6	48561.05
808.3724	365.0646	49237.95	48500.05
808.5158	367.258	49241.3	48499.15
808.6591	369.4508	49067.7	48322.95
808.8025	371.643	49257.25	48510.35
808.9459	373.8346	49160.35	48412.85
809.0893	376.0257	49117.45	48366.6
809.2327	378.2162	49011.35	48261.4
809.3762	380.4062	48913.55	48161.85
809.5196	382.5956	48932.35	48183.8
809.6631	384.7844	49006.4	48259.95
809.8066	386.9726	48901.6	48157.5
809.9501	389.1603	48952.15	48212.4
810.0936	391.3474	48630.6	47838.05
810.2371	393.5339	48918.25	48172.5
810.3806	395.7199	48495.9	47752.3
810.5241	397.9052	48534.55	47790.7
810.6677	400.09	48604.45	47858.55
810.8113	402.2743	48664.4	47918.55
810.9548	404.4579	48675.45	47927.1
811.0984	406.641	48591.65	47843.55
811.2421	408.8235	48776.6	48028.95
811.3857	411.0054	48705.25	47951.35
811.5293	413.1868	48805	48049.85
811.673	415.3675	48799.3	48039.3
811.8166	417.5477	48833.55	48074.1
811.9603	419.7273	48727.25	47963.3
812.104	421.9064	48515.55	47745.05
812.2477	424.0848	48515.8	47751.05
812.3914	426.2627	48481.7	47715.25
812.5351	428.4399	48160.75	47395.9
812.6788	430.6166	48045.35	47274.85
812.8226	432.7928	48031.65	47261.85
812.9663	434.9683	47805.95	47033.15
813.1101	437.1432	47838.35	47062.6
813.2539	439.3176	47737.9	46966.3
813.3977	441.4914	47424.9	46651.3
813.5415	443.6645	47475.95	46703.4
813.6853	445.8371	47327	46553.85
813.8291	448.0091	47119.95	46345.8
813.973	450.1806	47062.45	46287.05
814.1168	452.3514	46911	46133.05
814.2607	454.5216	46892.15	46108
814.4046	456.6913	46702.55	45921.7
814.5485	458.8603	46778.8	46001.5
814.6924	461.0288	46758.3	45980.6
814.8363	463.1967	46679.8	45900.95
814.9802	465.3639	46741.9	45962.1
815.1241	467.5306	46483.65	45703.85
815.2681	469.6967	46500.55	45720.85
815.412	471.8622	46402.3	45620.6
815.556	474.0271	46401.1	45620
815.7	476.1914	46402.3	45617.9
815.844	478.3551	46366.95	45583.9
815.988	480.5182	46477	45694.1
816.132	482.6807	46364.35	45581.3
816.276	484.8426	46400.6	45617.55
816.4201	487.0039	46545.8	45762.35
816.5641	489.1647	46542.45	45754.95
816.7082	491.3248	46479.05	45693.25
816.8522	493.4843	46562.7	45776.55
816.9963	495.6432	46547.95	45758.5
817.1404	497.8015	46332.65	45542.7
817.2845	499.9592	46403.05	45611.85
817.4286	502.1163	46294.75	45506.1
817.5727	504.2728	46156.55	45363.8
817.7168	506.4287	46233.8	45441.25
817.861	508.5839	46044.2	45251.75
818.0051	510.7386	46047.45	45254.85
818.1493	512.8927	46126.05	45326.25
818.2935	515.0461	46074	45281.15
818.4377	517.199	46071.1	45277.1
818.5818	519.3512	46074.7	45280.5
818.726	521.5029	46046.15	45244.05
818.8703	523.6539	46065.1	45266.3
819.0145	525.8043	45970.85	45170.1
819.1587	527.9541	45921.95	45118.6
819.303	530.1033	45806.15	45005.05
819.4472	532.2519	45697.45	44895.85
819.5915	534.3999	45627.7	44824.65
819.7357	536.5472	45627.25	44825.65
819.88	538.694	45556.7	44752.35
820.0243	540.8401	45656.25	44852.15
820.1686	542.9856	45627.7	44824.55
820.3129	545.1305	45545.8	44739.95
820.4572	547.2748	45596.35	44793
820.6016	549.4185	45563.35	44755.85
820.7459	551.5615	45443.7	44638.8
820.8902	553.704	45500.25	44697.7
821.0346	555.8458	45375.4	44570.4
821.1789	557.987	45385	44582.2
821.3233	560.1276	45327.95	44522.7
821.4677	562.2675	45480.35	44674.25
821.6121	564.4069	45423.35	44617.2
821.7565	566.5456	45411.9	44607.1
821.9009	568.6837	45307.45	44501.1
822.0453	570.8212	45173.7	44367.7
822.1897	572.958	44999.4	44187.85
822.3342	575.0942	44843.2	44032.8
822.4786	577.2299	44669.9	43860.25
822.6231	579.3648	44564.8	43756.45
822.7675	581.4992	44342.2	43533.25
822.912	583.6329	44252.35	43443.85
823.0565	585.766	44215.75	43406.05
823.201	587.8985	44200.9	43390.15
823.3454	590.0304	44028.2	43204.1
823.4899	592.1616	43995.55	43179.4
823.6345	594.2922	43919.15	43105
823.779	596.4222	43823.25	43008.7
823.9235	598.5515	43655.95	42840.7
824.068	600.6802	43609.2	42795.25
824.2126	602.8083	43333.9	42516.9
824.3571	604.9358	43303.1	42486
824.5017	607.0626	43182.6	42364.8
824.6462	609.1888	43153.45	42333.05
824.7908	611.3144	43152.75	42335.2
824.9354	613.4393	43062.45	42243.85
825.08	615.5636	43056.45	42238.75
825.2246	617.6873	43051.85	42231.1
825.3692	619.8103	43118.65	42297.4
825.5138	621.9327	42985.85	42162.1
825.6584	624.0544	42962.9	42144.05
825.803	626.1756	42925.1	42106.25
825.9477	628.2961	42790.1	41967.75
826.0923	630.4159	42670.05	41846.35
826.237	632.5351	42709.15	41888.25
826.3816	634.6537	42604.8	41782.2
826.5263	636.7716	42519.55	41694.6
826.6709	638.8889	42511.3	41684.7
826.8156	641.0056	42593.1	41768.85
826.9603	643.1216	42480.4	41655.05
827.105	645.237	42611.25	41784.4
827.2497	647.3518	42422.5	41597
827.3944	649.4659	42383.6	41559.1
827.5391	651.5793	42279.8	41454.7
827.6838	653.6922	42194.6	41368.95
827.8285	655.8043	42111.8	41285.9
827.9733	657.9159	42151.75	41323.95
828.118	660.0268	41978.6	41146.1
828.2627	662.137	41901.5	41072.5
828.4075	664.2466	41833.05	41003.5
828.5522	666.3556	41820.85	40990.4
828.697	668.4639	41711.2	40878.35
828.8418	670.5716	41712.65	40883.7
828.9865	672.6786	41703.35	40870.5
829.1313	674.785	41544.3	40711.1
829.2761	676.8907	41410.9	40578.75
829.4209	678.9958	41376.2	40545.35
829.5657	681.1002	41275.2	40443.1
829.7105	683.204	41216.1	40379.3
829.8553	685.3072	41190.45	40354.75
830.0001	687.4097	41080.55	40247.2
830.1449	689.5115	41058.15	40221.05
830.2898	691.6127	41060.7	40227.55
830.4346	693.7132	40932.95	40099.25
830.5794	695.8131	40954.7	40097.9
830.7243	697.9123	40908.6	40074.5
830.8691	700.0109	40859	40024.5
831.014	702.1089	40807.75	39974.45
831.1588	704.2061	40787.25	39949.95
831.3037	706.3028	40732.4	39895
831.4486	708.3987	40697.6	39861.35
831.5935	710.4941	40645.8	39808.8
831.7383	712.5887	40643.05	39805.2
831.8832	714.6827	40608.5	39767.25
832.0281	716.7761	40610.65	39772.3
832.173	718.8688	40539.05	39699.5
832.3179	720.9608	40400.35	39556
832.4628	723.0522	40495.15	39651.9
832.6077	725.1429	40368.35	39529.55
832.7527	727.233	40332.2	39489.75
832.8976	729.3224	40423.1	39582.45
833.0425	731.4112	40359.75	39516.3
833.1874	733.4993	40241.1	39396.1
833.3324	735.5867	40103.25	39260
833.4773	737.6735	40036.45	39192.85
833.6222	739.7596	39877.8	39035.2
833.7672	741.845	39781.7	38939.2
833.9122	743.9298	39687.25	38843.45
834.0571	746.014	39636.85	38794.3
834.2021	748.0974	39579.45	38732.85
834.347	750.1802	39414.8	38571.4
834.492	752.2624	39322.9	38479.45
834.637	754.3439	39203.25	38356.75
834.782	756.4247	39062.25	38208.4
834.9269	758.5048	38947.95	38103.65
835.0719	760.5843	38950.6	38105.75
835.2169	762.6631	38766.2	37920.75
835.3619	764.7413	38785.55	37940.4
835.5069	766.8188	38822.7	37976.95
835.6519	768.8956	38705	37857.9
835.7969	770.9718	38811.7	37966.55
835.9419	773.0473	38601.05	37753.2
836.0869	775.1221	38543.35	37695.15
836.232	777.1962	38387	37540.5
836.377	779.2697	38399.25	37549.9
836.522	781.3426	38397.25	37530.2
836.667	783.4147	38370.15	37520.75
836.8121	785.4862	38325.85	37480.3
836.9571	787.557	38171.75	37324.1
837.1021	789.6271	38035.85	37186.15
837.2472	791.6966	37857.75	37010.2
837.3922	793.7654	37618.75	36768.25
837.5373	795.8335	37619.95	36770.85
837.6823	797.901	37440.45	36592.6
837.8274	799.9678	37419.15	36567.2
837.9724	802.0339	37291.7	36444.3
838.1175	804.0993	37318.2	36457.5
838.2626	806.1641	37197.2	36344.85
838.4076	808.2282	37109.25	36258.85
838.5527	810.2916	37065.85	36212.75
838.6978	812.3544	36996	36146.85
838.8428	814.4164	36850.9	36001.1
838.9879	816.4778	36960.05	36108.45
839.133	818.5385	36862.1	36010
839.2781	820.5986	36831.45	35980.8
839.4232	822.658	36851.55	35999.3
839.5682	824.7166	36752.9	35901
839.7133	826.7747	36885.65	36032.85
839.8584	828.832	36880.7	36027.95
840.0035	830.8886	36743.2	35888.15
840.1486	832.9446	36735.5	35880.9
840.2937	834.9999	36658.2	35806.35
840.4388	837.0545	36542.6	35685.35
840.5839	839.1085	36394.75	35540.35
840.729	841.1618	36287.15	35428.05
840.8741	843.2143	36161.1	35307.35
841.0192	845.2662	36030.6	35175.9
841.1643	847.3175	36021.95	35167.8
841.3095	849.368	35886.75	35031.4
841.4546	851.4179	35858.1	35003.9
841.5997	853.467	35663.05	34806.3
841.7448	855.5155	35661.1	34805.4
841.8899	857.5633	35639.55	34782.7
842.0351	859.6105	35474.45	34617.45
842.1802	861.6569	35480.45	34624.25
842.3253	863.7027	35389.65	34531.8
842.4704	865.7478	35361.5	34504.95
842.6156	867.7922	35330.9	34476.1
842.7607	869.8359	35195.2	34337.85
842.9058	871.8789	35191.95	34333.7
843.0509	873.9212	35164.6	34275.7
843.1961	875.9629	35049.4	34193.95
843.3412	878.0039	35032	34174.4
843.4863	880.0441	34965.45	34108.05
843.6315	882.0837	35026.4	34167.55
843.7766	884.1226	34957.2	34096.65
843.9218	886.1609	34982.4	34127.25
844.0669	888.1984	35020.7	34164.5
844.212	890.2352	35044.95	34188.2
844.3572	892.2714	34992.1	34128.7
844.5023	894.3069	34895.15	34035.55
844.6475	896.3416	34732.85	33872.65
844.7926	898.3757	34744.65	33885.7
844.9377	900.4091	34633.15	33772.1
845.0829	902.4418	34554.6	33688.5
845.228	904.4739	34468.15	33607.85
845.3732	906.5052	34458	33595.5
845.5183	908.5358	34419.15	33559.45
845.6635	910.5658	34345.6	33484.7
845.8086	912.595	34259.4	33399.9
845.9538	914.6236	34088.55	33225.8
846.0989	916.6515	34035.85	33177.2
846.2441	918.6786	33965.85	33101.65
846.3892	920.7051	33900	33036.8
846.5344	922.7309	33956.95	33096.5
846.6795	924.756	33807.9	32946.25
846.8246	926.7804	33752.75	32888.85
846.9698	928.8041	33513.65	32647.75
847.1149	930.8272	33570.65	32709.2
847.2601	932.8495	33384.95	32520
847.4052	934.8711	33397.85	32534.5
847.5504	936.892	33236.75	32373.75
847.6955	938.9123	33167.95	32304.35
847.8407	940.9318	33135.7	32272
847.9858	942.9506	33053.85	32190.2
848.131	944.9688	32914.15	32050.15
848.2761	946.9862	32863	31998.8
848.4213	949.003	32656.7	31793.5
848.5664	951.019	32620.7	31755.75
848.7115	953.0344	32478.65	31614.9
848.8567	955.0491	32451.9	31584.3
849.0018	957.063	32394.65	31532.85
849.147	959.0763	32452.3	31588.65
849.2921	961.0888	32273.4	31405.5
849.4373	963.1007	32325.7	31460.7
849.5824	965.1119	32271.85	31407.45
849.7275	967.1223	32208.85	31345
849.8727	969.1321	32103.75	31239.7
850.0178	971.1412	32106.75	31243.05
850.1629	973.1495	31953.35	31088.65
850.3081	975.1572	31966.95	31055.1
850.4532	977.1641	31920.6	31057.5
850.5983	979.1704	31858.15	30991.95
850.7435	981.1759	31701.05	30831.2
850.8886	983.1808	31715.9	30848.6
851.0337	985.1849	31608.7	30736.7
851.1788	987.1884	31508.7	30640
851.324	989.1911	31481.7	30611.4
851.4691	991.1932	31430.55	30560.95
851.6142	993.1945	31300.3	30436.05
851.7593	995.1951	31130.4	30261.9
851.9045	997.1951	31153.35	30281.75
852.0496	999.1943	31033.35	30166.6
852.1947	1001.1928	30870.7	30005.1
852.3398	1003.1906	30751.15	29884.45
852.4849	1005.1877	30765.15	29896.95
852.63	1007.1841	30681.6	29815.25
852.7751	1009.1798	30571.75	29705.35
852.9202	1011.1748	30433.2	29564.1
853.0653	1013.1691	30326.3	29457.2
853.2104	1015.1627	30237.65	29369.1
853.3555	1017.1556	30037.7	29171.05
853.5006	1019.1477	29956.5	29086.8
853.6457	1021.1392	29791.1	28923.05
853.7908	1023.1299	29689.35	28823.9
853.9359	1025.12	29613.7	28742.9
854.081	1027.1093	29469.05	28602.45
854.2261	1029.0979	29388.4	28522.6
854.3712	1031.0859	29292.65	28425.8
854.5163	1033.0731	29215.55	28346.05
854.6613	1035.0596	29092.75	28227.15
854.8064	1037.0454	28975.1	28107.3
854.9515	1039.0304	28990.5	28122.4
855.0965	1041.0148	28786.4	27916
855.2416	1042.9985	28711.15	27842.35
855.3867	1044.9814	28681.3	27813
855.5317	1046.9636	28550.9	27680.35
855.6768	1048.9452	28452.8	27584.65
855.8219	1050.926	28412.65	27544.65
855.9669	1052.9061	28360.5	27491.95
856.112	1054.8855	28302.15	27432.45
856.257	1056.8642	28234.5	27364.95
856.4021	1058.8421	28244.5	27370.4
856.5471	1060.8194	28138.35	27267.95
856.6921	1062.7959	28074.3	27204.9
856.8372	1064.7717	28024.4	27151.75
856.9822	1066.7469	27960.6	27086.4
857.1272	1068.7213	27924.15	27052.4
857.2723	1070.695	27904.6	27033.1
857.4173	1072.6679	27831.3	26959.9
857.5623	1074.6402	27748.2	26875.75
857.7073	1076.6117	27763.65	26886.65
857.8523	1078.5826	27718.55	26849.15
857.9973	1080.5527	27553.1	26681.3
858.1423	1082.5221	27477.35	26605.55
858.2873	1084.4908	27424.5	26553.3
858.4323	1086.4587	27279.3	26406.95
858.5773	1088.426	27266.45	26394.25
858.7223	1090.3925	27147.75	26269.35
858.8673	1092.3584	27115.05	26243.45
859.0123	1094.3235	27033.95	26163.9
859.1573	1096.2879	26987.85	26117.35
859.3022	1098.2515	26979.75	26108.6
859.4472	1100.2145	26976.05	26105.2
859.5922	1102.1767	26918.95	26044.65
859.7371	1104.1382	26888	26015.85
859.8821	1106.099	26876.3	26000.35
860.027	1108.0591	26820.1	25949.05
860.172	1110.0185	26794.35	25920.2
860.3169	1111.9771	26822.95	25949.4
860.4619	1113.9351	26773	25900.8
860.6068	1115.8923	26795.5	25922.6
860.7517	1117.8488	26756.8	25882.4
860.8967	1119.8045	26615.2	25744.95
861.0416	1121.7596	26497.5	25624.9
861.1865	1123.7139	26294.9	25424.15
861.3314	1125.6675	26200	25328.55
861.4763	1127.6204	26172.6	25299.8
861.6212	1129.5726	26101.3	25226.15
861.7661	1131.524	26065.1	25193.65
861.911	1133.4748	25996.2	25125.3
862.0559	1135.4248	25903.9	25027.45
862.2008	1137.3741	25778.95	24905.6
862.3457	1139.3226	25626.2	24749.8
862.4905	1141.2705	25711.35	24839.4
862.6354	1143.2176	25568.05	24689.75
862.7803	1145.164	25575.35	24703.1
862.9251	1147.1097	25529.6	24656.35
863.07	1149.0546	25531.3	24657.55
863.2148	1150.9989	25466.4	24591.2
863.3597	1152.9424	25466.05	24592.3
863.5045	1154.8852	25317.6	24443.3
863.6493	1156.8272	25312.05	24438.35
863.7942	1158.7686	25278.15	24398.6
863.939	1160.7092	25235.7	24361.4
864.0838	1162.6491	25125.7	24249.1
864.2286	1164.5883	25142.5	24266.35
864.3734	1166.5267	25055.25	24177.6
864.5182	1168.4644	25084.45	24209.7
864.663	1170.4014	25067	24188.9
864.8078	1172.3377	25097.45	24226.25
864.9526	1174.2732	25053.8	24180.45
865.0974	1176.2081	25158.75	24282.05
865.2421	1178.1421	25241.65	24363.55
865.3869	1180.0755	25334.8	24460.5
865.5317	1182.0082	25287	24412.85
865.6764	1183.9401	25246.55	24368.55
865.8212	1185.8713	25112.35	24237.3
865.9659	1187.8017	24975.3	24100.9
866.1106	1189.7315	24827.6	23952.65
866.2554	1191.6605	24591.6	23717.15
866.4001	1193.5888	24445.55	23571.65
866.5448	1195.5163	24389.85	23516.3
866.6895	1197.4432	24273.35	23397.95
866.8342	1199.3693	24195.5	23320.15
866.9789	1201.2947	24068.7	23190.25
867.1236	1203.2193	24005.45	23128.85
867.2683	1205.1432	23979.2	23102.5
867.413	1207.0664	23896.55	23022.6
867.5576	1208.9889	23828.8	22948.45
867.7023	1210.9106	23752.55	22878.25
867.847	1212.8316	23651.35	22775.4
867.9916	1214.7519	23639.35	22753.3
868.1363	1216.6715	23517.15	22641.95
868.2809	1218.5903	23529.4	22650.9
868.4255	1220.5084	23512.9	22636.3
868.5701	1222.4257	23501.9	22625.55
868.7148	1224.3424	23418.1	22543.3
868.8594	1226.2583	23369.55	22489.9
869.004	1228.1735	23364.15	22489.1
869.1486	1230.0879	23299.85	22422.7
869.2932	1232.0016	23287.7	22411.45
869.4377	1233.9146	23250.35	22370.5
869.5823	1235.8269	23223.7	22346.6
869.7269	1237.7384	23223.1	22347.25
869.8715	1239.6492	23089.5	22212.8
870.016	1241.5592	23118.65	22243.25
870.1606	1243.4686	23061.5	22184.7
870.3051	1245.3772	23121.6	22244.1
870.4496	1247.285	23146.55	22268.4
870.5941	1249.1922	23161.35	22285.55
870.7387	1251.0986	23186.05	22310.55
870.8832	1253.0042	23159.2	22281.85
871.0277	1254.9092	23253.9	22376.05
871.1722	1256.8134	23296.4	22420
871.3167	1258.7169	23362.4	22484.9
871.4611	1260.6196	23365.25	22488.65
871.6056	1262.5216	23409.55	22529.65
871.7501	1264.4229	23328.65	22453.1
871.8945	1266.3234	23303.45	22424.55
872.039	1268.2232	23185.6	22307.05
872.1834	1270.1223	23062.65	22184.95
872.3278	1272.0207	23004	22125.45
872.4723	1273.9183	22965	22082.25
872.6167	1275.8151	22921.35	22044.35
872.7611	1277.7113	22929.6	22049.75
872.9055	1279.6067	22933.85	22057.7
873.0499	1281.5014	23052.65	22171.6
873.1943	1283.3953	23188.75	22309.75
873.3386	1285.2885	23417.55	22541.6
873.483	1287.181	23558.1	22677.7
873.6274	1289.0727	23623.4	22747.45
873.7717	1290.9637	23539.15	22658.9
873.9161	1292.854	23400.45	22523.2
874.0604	1294.7435	23220.5	22342.1
874.2047	1296.6323	23047.55	22169.95
874.349	1298.5204	22911.8	22029.85
874.4933	1300.4077	22818.55	21939.95
874.6376	1302.2943	22778.75	21900.9
874.7819	1304.1802	22732.6	21855.5
874.9262	1306.0653	22663.15	21781.65
875.0705	1307.9497	22538.75	21661.3
875.2147	1309.8333	22506.45	21630.75
875.359	1311.7162	22438.7	21562.35
875.5032	1313.5984	22369.9	21488.15
875.6475	1315.4798	22341.05	21460.6
875.7917	1317.3605	22295.35	21415.5
875.9359	1319.2405	22290.3	21409.7
876.0801	1321.1197	22244.4	21362.65
876.2243	1322.9982	22123.3	21241.65
876.3685	1324.876	22123.25	21244.55
876.5127	1326.753	21925.7	21047.7
876.6569	1328.6293	21862.3	20981.5
876.801	1330.5048	21741.45	20860.85
876.9452	1332.3796	21570.1	20693.9
877.0893	1334.2537	21578.5	20673.35
877.2335	1336.127	21463.8	20585.45
877.3776	1337.9996	21374.65	20496.05
877.5217	1339.8714	21324.65	20445.2
877.6658	1341.7426	21276.6	20357.15
877.8099	1343.6129	21231.7	20354.25
877.954	1345.4826	21146.75	20267.55
878.0981	1347.3515	21170.2	20289.1
878.2422	1349.2196	21105.15	20224.55
878.3862	1351.087	21076.95	20200.2
878.5303	1352.9537	21034.5	20153.9
878.6743	1354.8197	21026.6	20148.4
878.8184	1356.6849	21054.55	20175
878.9624	1358.5493	20995.95	20115.3
879.1064	1360.4131	20966.6	20086.85
879.2504	1362.276	20957.4	20077
879.3944	1364.1383	20940.8	20062.75
879.5384	1365.9998	20913.8	20028.5
879.6823	1367.8606	20859.4	19978.5
879.8263	1369.7206	20836.4	19956.75
879.9702	1371.5799	20775.85	19893.6
880.1142	1373.4384	20665.8	19784.45
880.2581	1375.2962	20675.6	19794.95
880.402	1377.1533	20542.2	19662.25
880.5459	1379.0096	20391.55	19511.95
880.6898	1380.8652	20319.35	19439.65
880.8337	1382.7201	20208.25	19328.5
880.9776	1384.5742	20122.9	19245.2
881.1215	1386.4275	20035.8	19153.65
881.2653	1388.2802	19952.55	19075.85
881.4092	1390.132	19901.55	19021.6
881.553	1391.9832	19862.3	18982.95
881.6968	1393.8336	19764.05	18882.4
881.8406	1395.6832	19691.9	18809.45
881.9844	1397.5322	19611.3	18732.45
882.1282	1399.3803	19593.6	18709.6
882.272	1401.2278	19475.25	18595.2
882.4158	1403.0745	19425.7	18548.1
882.5595	1404.9204	19321.05	18442.35
882.7033	1406.7656	19262.5	18382.25
882.847	1408.6101	19211.4	18331.1
882.9908	1410.4538	19126.65	18247.8
883.1345	1412.2968	19079.65	18200.65
883.2782	1414.139	19032.55	18152.05
883.4219	1415.9805	19014.5	18135.8
883.5656	1417.8213	18927.3	18028.1
883.7092	1419.6613	18877.85	18000.95
883.8529	1421.5006	18884.15	18003.15
883.9965	1423.3391	18892.75	18012.5
884.1402	1425.1769	18882.5	18001.2
884.2838	1427.0139	18933.9	18052.45
884.4274	1428.8502	18968.5	18087.35
884.571	1430.6858	19010.35	18130.7
884.7146	1432.5206	18959.7	18080.3
884.8582	1434.3547	18942.1	18059.35
885.0018	1436.188	18919.75	18038.6
885.1453	1438.0206	18863.6	17982.05
885.2889	1439.8524	18789.15	17909.05
885.4324	1441.6835	18771.15	17889.9
885.5759	1443.5139	18753	17870.55
885.7194	1445.3435	18667.25	17787.55
885.8629	1447.1724	18670.65	17790.4
886.0064	1449.0005	18649.3	17771.1
886.1499	1450.8279	18582.1	17699.7
886.2933	1452.6545	18592.55	17711.7
886.4368	1454.4804	18552.5	17675
886.5802	1456.3056	18516.15	17628.2
886.7237	1458.13	18450.95	17570.55
886.8671	1459.9536	18464	17583.35
887.0105	1461.7766	18398	17517.25
887.1539	1463.5987	18275.6	17394.95
887.2972	1465.4202	18198.1	17318.7
887.4406	1467.2409	18117.3	17237.9
887.584	1469.0608	18077.75	17196.05
887.7273	1470.88	18015.9	17134.45
887.8706	1472.6984	17976.95	17096.6
888.0139	1474.5161	17864.55	16981.5
888.1572	1476.3331	17815.55	16935.8
888.3005	1478.1493	17770.35	16888.7
888.4438	1479.9648	17768.55	16889.55
888.5871	1481.7795	17689.6	16808.55
888.7303	1483.5935	17697.35	16816.4
888.8736	1485.4067	17666.2	16786.2
889.0168	1487.2192	17643.65	16764.5
889.16	1489.031	17632.45	16747.7
889.3032	1490.842	17591.45	16710.25
889.4464	1492.6522	17573.45	16693.55
889.5896	1494.4618	17532.25	16649.65
889.7327	1496.2705	17516.1	16635.7
889.8759	1498.0785	17465.45	16581.9
890.019	1499.8858	17350.3	16468.45
890.1622	1501.6924	17285.3	16404.9
890.3053	1503.4981	17300.1	16417.15
890.4484	1505.3032	17254.55	16374.45
890.5914	1507.1075	17256	16375
890.7345	1508.911	17180.95	16301.1
890.8776	1510.7138	17171.65	16287.95
891.0206	1512.5159	17089.55	16209.05
891.1637	1514.3172	17062.45	16182.25
891.3067	1516.1178	16977.95	16098.8
891.4497	1517.9176	16967.2	16084
891.5927	1519.7166	16902.45	16021.75
891.7357	1521.515	16851.6	15965.95
891.8786	1523.3126	16796.2	15913.4
892.0216	1525.1094	16770.95	15886.45
892.1645	1526.9055	16659.75	15781.8
892.3074	1528.7008	16596.55	15715.15
892.4503	1530.4954	16523.2	15639.95
892.5932	1532.2893	16495	15615.95
892.7361	1534.0824	16441.15	15556.75
892.879	1535.8747	16404.9	15522.6
893.0218	1537.6663	16318.55	15437.3
893.1647	1539.4572	16294.55	15411.75
893.3075	1541.2473	16253	15373.1
893.4503	1543.0367	16204.85	15324.3
893.5931	1544.8253	16130.85	15244.25
893.7359	1546.6132	16128.75	15246.6
893.8787	1548.4003	16056.5	15163.7
894.0214	1550.1867	16027.6	15138.45
894.1642	1551.9723	16011.05	15122.7
894.3069	1553.7572	15962.75	15081
894.4496	1555.5414	15908.5	15026.8
894.5923	1557.3247	15934.35	15052.55
894.735	1559.1074	15914.3	15035.55
894.8777	1560.8893	15901.75	15019
895.0204	1562.6705	15873.65	14993
895.163	1564.4509	15852.95	14974.3
895.3056	1566.2305	15805.2	14924.8
895.4482	1568.0094	15841.55	14963.25
895.5908	1569.7876	15797.4	14915.8
895.7334	1571.565	15774.05	14892.85
895.876	1573.3417	15720.2	14839.7
896.0186	1575.1176	15701.5	14821.4
896.1611	1576.8928	15638.1	14758.05
896.3036	1578.6672	15622.25	14743.5
896.4461	1580.4409	15615.3	14736.55
896.5886	1582.2138	15575.6	14692.3
896.7311	1583.986	15560.05	14678.35
896.8736	1585.7575	15586.95	14706.5
897.0161	1587.5282	15611.6	14732.85
897.1585	1589.2981	15626.8	14746.75
897.3009	1591.0673	15572.6	14691.9
897.4433	1592.8358	15532.7	14653.35
897.5857	1594.6035	15512.05	14630.05
897.7281	1596.3704	15428.9	14550
897.8705	1598.1366	15340.95	14460
898.0128	1599.9021	15302.1	14422.35
898.1551	1601.6668	15180.1	14297.75
898.2975	1603.4308	15117.8	14236.3
898.4398	1605.194	15060.7	14174.55
898.5821	1606.9564	15048.8	14167.5
898.7243	1608.7182	15088.3	14205.1
898.8666	1610.4791	15120.6	14241
899.0088	1612.2394	15155.55	14275.35
899.1511	1613.9988	15225.25	14346.15
899.2933	1615.7576	15286.9	14406.6
899.4355	1617.5156	15316.6	14430.9
899.5776	1619.2728	15279.85	14400.55
899.7198	1621.0293	15166.25	14285.5
899.862	1622.785	14995.25	14113.85
900.0041	1624.54	14807.1	13923.95
900.1462	1626.2942	14627.65	13744.95
900.2883	1628.0477	14424.2	13539.05
900.4304	1629.8005	14316.75	13432.65
900.5725	1631.5525	14174.95	13294.55
900.7145	1633.3037	14092.1	13210.15
900.8566	1635.0542	14040.35	13158.55
900.9986	1636.804	13934.75	13055.3
901.1406	1638.553	13933.5	12964.55
901.2826	1640.3013	13801.7	12921.5
901.4245	1642.0488	13714.45	12831.75
901.5665	1643.7955	13683.3	12807.35
901.7085	1645.5416	13599.05	12716.2
901.8504	1647.2868	13565.75	12686.95
901.9923	1649.0313	13476.05	12593.75
902.1342	1650.7751	13450.3	12566.55
902.2761	1652.5181	13420.75	12538.9
902.4179	1654.2604	13347.4	12465.65
902.5598	1656.0019	13336.55	12456.25
902.7016	1657.7427	13334.2	12451.6
902.8434	1659.4828	13325.25	12444.1
902.9852	1661.222	13285.05	12406.05
903.127	1662.9606	13277.05	12395.9
903.2687	1664.6984	13295.55	12416.1
903.4105	1666.4354	13275.15	12393.7
903.5522	1668.1717	13246.45	12366.8
903.6939	1669.9072	13143.2	12263.35
903.8356	1671.642	13065.7	12183.25
903.9773	1673.3761	12983.75	12105.8
904.119	1675.1094	12907.85	12026.25
904.2606	1676.8419	12814.55	11933.9
904.4022	1678.5737	12750.25	11868.25
904.5439	1680.3048	12703.9	11822.55
904.6855	1682.0351	12611.15	11729.85
904.827	1683.7646	12564.65	11681.75
904.9686	1685.4934	12532.15	11651.3
905.1101	1687.2215	12451.4	11571.05
905.2517	1688.9488	12405.4	11525.2
905.3932	1690.6754	12312.15	11432.7
905.5347	1692.4012	12283.4	11403.6
905.6761	1694.1263	12266.15	11385.05
905.8176	1695.8506	12264	11382
905.9591	1697.5742	12207	11327.2
906.1005	1699.297	12162.4	11281.2
906.2419	1701.0191	12079	11199.1
906.3833	1702.7404	12017	11136.85
906.5246	1704.461	11970.85	11090.75
906.666	1706.1808	11949	11067
906.8073	1707.8999	11926.15	11043.75
906.9487	1709.6182	11864.15	10983.4
907.09	1711.3358	11811.8	10929.1
907.2313	1713.0527	11801.25	10923.6
907.3725	1714.7688	11780.25	10894.15
907.5138	1716.4841	11708.6	10828.05
907.655	1718.1987	11711.5	10823.95
907.7962	1719.9126	11641.35	10760.05
907.9374	1721.6257	11616.7	10732.55
908.0786	1723.338	11617.6	10735.5
908.2198	1725.0496	11525.5	10642.25
908.3609	1726.7605	11525.55	10643.9
908.502	1728.4706	11490.55	10608.3
908.6431	1730.18	11425.15	10543.8
908.7842	1731.8886	11420	10538.4
908.9253	1733.5964	11406.7	10505.8
909.0664	1735.3036	11368.75	10487.45
909.2074	1737.0099	11339.5	10458.15
909.3484	1738.7156	11346.35	10466.4
909.4894	1740.4204	11305.2	10419.5
909.6304	1742.1246	11314.35	10433.75
909.7714	1743.8279	11253.5	10374.1
909.9123	1745.5306	11267.65	10386.9
910.0532	1747.2325	11236.25	10356.5
910.1941	1748.9336	11193.8	10315
910.335	1750.634	11145.45	10262.1
910.4759	1752.3336	11158.5	10280.1
910.6168	1754.0325	11131.45	10253.35
910.7576	1755.7307	11111.8	10231.7
910.8984	1757.4281	11107.15	10225.35
911.0392	1759.1247	11089.55	10198.45
911.18	1760.8206	11055.9	10171.85
911.3208	1762.5158	11050.55	10166.45
911.4615	1764.2102	11028.05	10146.7
911.6022	1765.9039	10951.85	10071.05
911.7429	1767.5968	10963.1	10080.5
911.8836	1769.289	10909.95	10029.75
912.0243	1770.9804	10881.5	9999.85
912.1649	1772.6711	10894.35	10013.35
912.3056	1774.361	10858.25	9976.25
912.4462	1776.0502	10844.45	9965.15
912.5868	1777.7386	10809.85	9926.35
912.7274	1779.4263	10812.7	9930.6
912.8679	1781.1132	10789.5	9907.05
913.0084	1782.7994	10744.9	9863.1
913.149	1784.4849	10709.75	9827.85
913.2895	1786.1696	10701.6	9802.3
913.4299	1787.8535	10665.75	9786.95
913.5704	1789.5367	10633.75	9752.9
913.7108	1791.2192	10622.05	9741.95
913.8513	1792.9009	10590.7	9687.85
913.9917	1794.5818	10547.15	9665.55
914.132	1796.2621	10524.7	9643.65
914.2724	1797.9415	10496.35	9617.35
914.4128	1799.6202	10483.3	9603.15
914.5531	1801.2982	10457.45	9577.15
914.6934	1802.9755	10432.3	9551.95
914.8337	1804.6519	10414.8	9536.8
914.9739	1806.3277	10384.25	9503.4
915.1142	1808.0027	10346.05	9465.7
915.2544	1809.6769	10344.55	9463.4
915.3946	1811.3504	10292.55	9411.25
915.5348	1813.0231	10283.75	9400.9
915.675	1814.6951	10271.4	9390.1
915.8151	1816.3664	10284.35	9402.45
915.9553	1818.0369	10240.35	9355.65
916.0954	1819.7067	10199.2	9318.9
916.2355	1821.3757	10172.2	9287.75
916.3755	1823.044	10149.6	9269.6
916.5156	1824.7115	10148.3	9267.95
916.6556	1826.3783	10095	9215.2
916.7956	1828.0443	10076.95	9197.25
916.9356	1829.7096	10055.1	9173.7
917.0756	1831.3741	10075.15	9190.9
917.2155	1833.0379	10010.75	9129.05
917.3555	1834.701	9986.85	9104.8
917.4954	1836.3633	9997.5	9116.75
917.6353	1838.0248	9946.15	9061.35
917.7751	1839.6856	9928.7	9047.5
917.915	1841.3457	9911.05	9032.45
918.0548	1843.005	9871.3	8991.2
918.1946	1844.6636	9888.4	9006.85
918.3344	1846.3214	9846	8965.3
918.4742	1847.9785	9855.1	8975.3
918.6139	1849.6349	9831.5	8948.45
918.7537	1851.2904	9802.95	8913.5
918.8934	1852.9453	9767.8	8885.25
919.0331	1854.5994	9752.55	8869.2
919.1727	1856.2528	9762.2	8873.5
919.3124	1857.9054	9699.35	8819.55
919.452	1859.5572	9728.1	8849.3
919.5916	1861.2083	9674.5	8791.9
919.7312	1862.8587	9659.95	8781.55
919.8708	1864.5084	9634	8752.05
920.0103	1866.1572	9608.7	8730.4
920.1498	1867.8054	9562.4	8682.4
920.2893	1869.4528	9577.15	8694.95
920.4288	1871.0994	9532.35	8652.5
920.5683	1872.7453	9511.85	8630.55
920.7077	1874.3905	9512.45	8624.8
920.8471	1876.0349	9470.7	8589.35
920.9865	1877.6786	9501.8	8620.75
921.1259	1879.3215	9459.4	8578.85
921.2653	1880.9637	9410.8	8528.35
921.4046	1882.6051	9445.2	8564.45
921.5439	1884.2458	9387.85	8505.95
921.6832	1885.8858	9353.85	8473.65
921.8225	1887.525	9365.55	8482.85
921.9617	1889.1634	9327.5	8448.35
922.101	1890.8011	9279	8396.75
922.2402	1892.4381	9260.85	8380.2
922.3794	1894.0743	9267.85	8387.85
922.5185	1895.7098	9244.75	8362.65
922.6577	1897.3446	9221.85	8340
922.7968	1898.9786	9213.05	8328.5
922.9359	1900.6118	9182.95	8302.35
923.075	1902.2443	9136.05	8250.7
923.214	1903.8761	9121.4	8241.05
923.3531	1905.5071	9089.75	8207.6
923.4921	1907.1374	9075.85	8193.65
923.6311	1908.7669	9075.3	8194.25
923.77	1910.3957	9044.55	8164.5
923.909	1912.0237	8965.85	8086.8
924.0479	1913.651	8957.2	8076.55
924.1868	1915.2776	8942.25	8062.9
924.3257	1916.9034	8908.95	8029.95
924.4646	1918.5285	8887.55	8009.4
924.6034	1920.1528	8839.5	7959
924.7422	1921.7764	8832.05	7952.65
924.881	1923.3992	8825.65	7945.7
925.0198	1925.0213	8762.4	7882.45
925.1586	1926.6427	8733.75	7852.9
925.2973	1928.2633	8859.95	7767.4
925.436	1929.8832	8722.15	7837.15
925.5747	1931.5023	8662.8	7782.3
925.7134	1933.1207	8630.4	7747.75
925.852	1934.7383	8626.85	7744.05
925.9906	1936.3552	8593.55	7713.8
926.1292	1937.9714	8594.95	7714.4
926.2678	1939.5868	8554.45	7672.9
926.4064	1941.2015	8501.05	7620.3
926.5449	1942.8154	8489.85	7608.75
926.6834	1944.4286	8464.65	7584.7
926.8219	1946.041	8462	7554.65
926.9604	1947.6528	8384.25	7499.55
927.0988	1949.2637	8384.15	7501.75
927.2372	1950.8739	8347.15	7466.7
927.3756	1952.4834	8349.5	7468.2
927.514	1954.0921	8328.95	7447.15
927.6523	1955.7001	8287.95	7402.55
927.7907	1957.3074	8271.85	7391.6
927.929	1958.9139	8234.25	7355.15
928.0673	1960.5197	8235.15	7351.2
928.2055	1962.1247	8210.7	7330.45
928.3438	1963.729	8174.7	7293.65
928.482	1965.3325	8171	7266.9
928.6202	1966.9353	8137.45	7257.2
928.7584	1968.5374	8115.1	7233.2
928.8965	1970.1387	8061.8	7181.2
929.0346	1971.7393	8034.45	7152.1
929.1727	1973.3392	8029.55	7148.5
929.3108	1974.9383	8017.7	7139.05
929.4489	1976.5366	7983.4	7102.1
929.5869	1978.1342	7977.35	7097.15
929.7249	1979.7311	7947.3	7066.1
929.8629	1981.3273	7945.9	7064.4
930.0009	1982.9227	7923.2	7040.2
930.1388	1984.5173	7884.2	7004.4
930.2767	1986.1112	7859.9	6981.35
930.4146	1987.7044	7842.7	6962.3
930.5525	1989.2968	7825.5	6943.05
930.6904	1990.8885	7821.65	6938.75
930.8282	1992.4795	7793.8	6910.15
930.966	1994.0697	7780.65	6900.7
931.1038	1995.6592	7748.2	6868.7
931.2415	1997.2479	7725.2	6845.1
931.3793	1998.8359	7710.65	6828.4
931.517	2000.4232	7695.3	6815.95
931.6547	2002.0097	7684.35	6804.2
931.7923	2003.5955	7645.15	6765.25
931.93	2005.1805	7626.8	6743.9
932.0676	2006.7648	7607.95	6727.2
932.2052	2008.3484	7595.75	6712.65
932.3427	2009.9312	7607.35	6726.7
932.4803	2011.5133	7547.75	6666.55
932.6178	2013.0946	7542.85	6663.05
932.7553	2014.6752	7524.45	6647.05
932.8928	2016.2551	7524.9	6643.1
933.0302	2017.8342	7492.2	6612.25
933.1676	2019.4126	7476.6	6596.55
933.305	2020.9902	7450.85	6571
933.4424	2022.5672	7441.95	6560.7
933.5798	2024.1433	7402.7	6518.2
933.7171	2025.7188	7394.45	6516.45
933.8544	2027.2935	7384.75	6505
933.9917	2028.8674	7364.2	6484.4
934.129	2030.4406	7350.65	6473.15
934.2662	2032.0131	7318.5	6439.35
934.4034	2033.5849	7291.15	6408.05
934.5406	2035.1559	7283.4	6403.7
934.6778	2036.7261	7272.85	6393.55
934.8149	2038.2957	7242	6361
934.952	2039.8645	7238.45	6358.55
935.0891	2041.4325	7249.6	6365.7
935.2262	2042.9998	7220.25	6340.6
935.3632	2044.5664	7214.65	6333.05
935.5002	2046.1323	7201.3	6320.45
935.6372	2047.6974	7159.1	6279.6
935.7742	2049.2617	7164.1	6284.65
935.9111	2050.8254	7178.3	6280.9
936.048	2052.3883	7161.15	6279.05
936.1849	2053.9504	7123.4	6243.25
936.3218	2055.5118	7099.7	6219
936.4586	2057.0725	7092.2	6208.1
936.5955	2058.6325	7077.5	6197.95
936.7323	2060.1917	7040.2	6162.3
936.869	2061.7502	7034.9	6153.3
937.0058	2063.3079	7029	6150.65
937.1425	2064.8649	7030.35	6146.2
937.2792	2066.4212	7016.45	6136.5
937.4159	2067.9767	6994	6115
937.5525	2069.5315	6958.2	6077.5
937.6891	2071.0856	6950.85	6072.3
937.8257	2072.6389	6907.1	6026.65
937.9623	2074.1915	6904.15	6025.75
938.0989	2075.7433	6884.65	6003.35
938.2354	2077.2945	6877.25	5999.8
938.3719	2078.8448	6853.1	5972.15
938.5084	2080.3945	6835.6	5956.1
938.6448	2081.9434	6809.9	5930.7
938.7812	2083.4916	6805.7	5922.7
938.9176	2085.039	6783.75	5900.95
939.054	2086.5857	6770.95	5890
939.1903	2088.1317	6769.45	5889.65
939.3267	2089.677	6750.65	5870.3
939.463	2091.2215	6738.7	5857.35
939.5992	2092.7652	6709.65	5828.2
939.7355	2094.3083	6686.6	5807.1
939.8717	2095.8506	6686.8	5806.9
940.0079	2097.3921	6714.15	5836.8
940.1441	2098.933	6669.25	5790.45
940.2802	2100.4731	6670.25	5792.7
940.4163	2102.0124	6678.3	5780.05
940.5524	2103.5511	6660.35	5780.5
940.6885	2105.089	6648.65	5767.35
940.8245	2106.6261	6632.9	5754.45
940.9606	2108.1626	6620.1	5738.6
941.0965	2109.6983	6635.45	5726.9
941.2325	2111.2332	6595.15	5715.05
941.3684	2112.7675	6567.25	5685.2
941.5044	2114.301	6560.55	5679.9
941.6403	2115.8337	6573.2	5692.25
941.7761	2117.3657	6534.95	5655.55
941.912	2118.897	6534.8	5654.85
942.0478	2120.4276	6523.55	5637.4
942.1835	2121.9575	6505.55	5624.55
942.3193	2123.4866	6502.3	5619.3
942.455	2125.0149	6483.55	5600.6
942.5907	2126.5426	6446.8	5568
942.7264	2128.0695	6450.5	5565.1
942.8621	2129.5956	6428.15	5549.2
942.9977	2131.1211	6409.05	5525.45
943.1333	2132.6458	6435.65	5558.85
943.2689	2134.1698	6397.45	5517.85
943.4044	2135.693	6373.35	5489.95
943.54	2137.2155	6381.35	5500
943.6755	2138.7373	6365.3	5483.6
943.8109	2140.2584	6354.55	5472.25
943.9464	2141.7787	6315.95	5429.7
944.0818	2143.2983	6298.05	5420.4
944.2172	2144.8171	6279.6	5401.95
944.3526	2146.3353	6257.1	5374.85
944.4879	2147.8527	6248.55	5370.4
944.6232	2149.3693	6238.85	5358.8
944.7585	2150.8853	6239.8	5360.1
944.8938	2152.4005	6213.55	5334.05
945.029	2153.9149	6190.1	5309.2
945.1642	2155.4287	6183.9	5305.9
945.2994	2156.9417	6179.15	5297.1
945.4346	2158.454	6170.45	5288.55
945.5697	2159.9655	6136.55	5257.9
945.7048	2161.4764	6130.3	5248.85
945.8399	2162.9865	6119.1	5237.8
945.9749	2164.4958	6105.4	5226.65
946.1099	2166.0045	6071.9	5188.65
946.2449	2167.5124	6077.95	5200.25
946.3799	2169.0195	6045.95	5166.05
946.5148	2170.526	6036.8	5157.75
946.6498	2172.0317	6024.9	5144.8
946.7846	2173.5367	6006.5	5126.1
946.9195	2175.0409	6011.7	5130.8
947.0543	2176.5445	6006.45	5127.1
947.1891	2178.0473	5979.9	5100.05
947.3239	2179.5494	5971.65	5088
947.4587	2181.0507	5932.9	5054.05
947.5934	2182.5513	5933.75	5052.35
947.7281	2184.0512	5926.2	5045.65
947.8628	2185.5504	5903.7	5025.1
947.9974	2187.0488	5878.35	4997.15
948.132	2188.5465	5871	4992.9
948.2666	2190.0435	5843.75	4963.25
948.4012	2191.5397	5829.2	4948.45
948.5357	2193.0353	5810.2	4931.05
948.6702	2194.5301	5792.75	4910.55
948.8047	2196.0241	5774.8	4895.5
948.9392	2197.5175	5759.1	4880.05
949.0736	2199.0101	5757.05	4874.4
949.208	2200.502	5731.15	4850.2
949.3424	2201.9931	5704.95	4822.65
949.4767	2203.4835	5688.35	4808.65
949.611	2204.9733	5680.45	4796.25
949.7453	2206.4622	5668.5	4788.6
949.8796	2207.9505	5658.45	4774.95
950.0138	2209.438	5626.05	4747.45
950.148	2210.9248	5596.7	4714.05
950.2822	2212.4109	5615.35	4736.15
950.4164	2213.8962	5591.8	4708.5
950.5505	2215.3809	5568.7	4689.5
950.6846	2216.8648	5568.55	4687.35
950.8186	2218.3479	5538.05	4651.45
950.9527	2219.8304	5522	4639.85
951.0867	2221.3121	5498.25	4615.9
951.2207	2222.7931	5486.85	4607.65
951.3546	2224.2733	5460.45	4578.6
951.4886	2225.7529	5449.8	4569.15
951.6225	2227.2317	5440.5	4556.95
951.7563	2228.7098	5434.55	4553.45
951.8902	2230.1872	5424.6	4544.95
952.024	2231.6638	5412.35	4532.35
952.1578	2233.1397	5389.75	4503.95
952.2916	2234.6149	5377.45	4500.35
952.4253	2236.0894	5366.7	4484.15
952.559	2237.5632	5351.75	4470.6
952.6927	2239.0362	5344.45	4463.55
952.8263	2240.5085	5317.6	4438.1
952.9599	2241.9801	5318.55	4436.95
953.0935	2243.4509	5294.15	4413
953.2271	2244.921	5265.15	4387
953.3606	2246.3904	5263.35	4379.9
953.4941	2247.8591	5233.2	4355.1
953.6276	2249.3271	5219.55	4339.15
953.7611	2250.7943	5220.9	4339.2
953.8945	2252.2608	5207.65	4325.7
954.0279	2253.7266	5187.5	4308.55
954.1612	2255.1917	5183.15	4304.45
954.2946	2256.656	5152.75	4272.3
954.4279	2258.1197	5139.4	4258.9
954.5612	2259.5826	5132.3	4251.25
954.6944	2261.0447	5128.7	4248.4
954.8276	2262.5062	5119.65	4237.1
954.9608	2263.9669	5108	4226.85
955.094	2265.4269	5084.9	4205.35
955.2271	2266.8862	5076.15	4198.4
955.3602	2268.3448	5064.25	4181.9
955.4933	2269.8026	5048.2	4167.55
955.6264	2271.2598	5043.35	4165.3
955.7594	2272.7162	5025.4	4145
955.8924	2274.1719	5007.2	4126.55
956.0253	2275.6268	5007.7	4127.7
956.1583	2277.0811	4987.65	4106.5
956.2912	2278.5346	4998.1	4119.4
956.4241	2279.9874	4980.8	4103.2
956.5569	2281.4395	4960.55	4081.55
956.6897	2282.8908	4932.3	4048
956.8225	2284.3414	4930.55	4048.8
956.9553	2285.7914	4915.8	4038.4
957.088	2287.2406	4912.5	4032.75
957.2207	2288.689	4904.65	4025.15
957.3534	2290.1368	4890.5	4009.65
957.486	2291.5838	4867.65	3985
957.6186	2293.0302	4869.7	3990.3
957.7512	2294.4758	4847.45	3966.35
957.8838	2295.9206	4827.7	3945.05
958.0163	2297.3648	4821.8	3942.4
958.1488	2298.8082	4811.95	3929.95
958.2813	2300.251	4799.7	3920.5
958.4137	2301.693	4788.5	3906.85
958.5461	2303.1343	4786.4	3906.7
958.6785	2304.5748	4767.05	3888.7
958.8108	2306.0147	4741.8	3861.8
958.9432	2307.4538	4731.5	3849.2
959.0754	2308.8922	4728.85	3849.2
959.2077	2310.3299	4714.75	3834.7
959.3399	2311.7669	4690.8	3811.5
959.4721	2313.2031	4685.1	3805.25
959.6043	2314.6387	4674.4	3794
959.7365	2316.0735	4669.75	3790
959.8686	2317.5076	4651.1	3769.5
960.0006	2318.941	4648.5	3768.15
960.1327	2320.3737	4630.25	3749.8
960.2647	2321.8056	4623.45	3741.45
960.3967	2323.2369	4604.15	3723.95
960.5287	2324.6674	4598.75	3715.9
960.6606	2326.0972	4595.5	3714.45
960.7925	2327.5263	4578.5	3696.9
960.9244	2328.9547	4555.9	3675.35
961.0562	2330.3823	4541.05	3660.65
961.1881	2331.8092	4542.7	3659.35
961.3198	2333.2355	4536.85	3656.4
961.4516	2334.661	4530.65	3649.65
961.5833	2336.0858	4513.2	3631.85
961.715	2337.5098	4512.1	3634.1
961.8467	2338.9332	4486.9	3606.65
961.9783	2340.3558	4487.65	3606.35
962.1099	2341.7778	4460.8	3581.7
962.2415	2343.199	4440.2	3556.65
962.373	2344.6195	4427.05	3548.15
962.5045	2346.0393	4421.9	3541.7
962.636	2347.4583	4429.9	3548.05
962.7675	2348.8767	4393.75	3512.55
962.8989	2350.2943	4387.85	3506
963.0303	2351.7113	4383.3	3503.2
963.1617	2353.1275	4364.8	3485.55
963.293	2354.543	4362.75	3474.55
963.4243	2355.9578	4354.15	3474.7
963.5556	2357.3718	4331.3	3451.7
963.6868	2358.7852	4320.35	3434.8
963.818	2360.1978	4306.2	3425.1
963.9492	2361.6098	4291.45	3411.75
964.0803	2363.021	4278.65	3393.25
964.2114	2364.4315	4268.75	3388.2
964.3425	2365.8413	4266.5	3381.15
964.4736	2367.2504	4246.8	3367.8
964.6046	2368.6587	4239.5	3359.5
964.7356	2370.0664	4226.85	3346.5
964.8666	2371.4733	4211.5	3329.45
964.9975	2372.8795	4192	3311.8
965.1284	2374.285	4167.8	3287.5
965.2593	2375.6899	4169.35	3290.25
965.3901	2377.0939	4158.65	3279.05
965.5209	2378.4973	4134.05	3253.4
965.6517	2379.9	4121.75	3238.85
965.7825	2381.3019	4103.55	3222.85
965.9132	2382.7032	4109.35	3229.65
966.0439	2384.1037	4101.3	3221.55
966.1745	2385.5035	4085.55	3203.15
966.3051	2386.9027	4080.25	3200.4
966.4357	2388.3011	4060.25	3175.25
966.5663	2389.6987	4054.8	3173.4
966.6968	2391.0957	4052.75	3171.6
966.8273	2392.492	4036.65	3158.2
966.9578	2393.8876	4017.25	3136.3
967.0882	2395.2824	4006.3	3127.5
967.2186	2396.6765	3973.25	3093.9
967.349	2398.07	3962.6	3082.95
967.4793	2399.4627	3982	3101.9
967.6097	2400.8547	3962.65	3081.95
967.7399	2402.246	3941.75	3056.45
967.8702	2403.6366	3916.2	3036.05
968.0004	2405.0265	3901.4	3021.3
968.1306	2406.4156	3898.15	3014.65
968.2607	2407.8041	3867.65	2985.15
968.3909	2409.1918	3885.5	3001.3
968.521	2410.5789	3865.05	2985.85
968.651	2411.9652	3853.75	2969.85
968.781	2413.3508	3817.75	2937.4
968.911	2414.7358	3824.35	2942.65
969.041	2416.12	3822.1	2940.1
969.1709	2417.5035	3799.05	2917.6
969.3008	2418.8863	3778.65	2897.1
969.4307	2420.2684	3784.05	2904.1
969.5606	2421.6497	3769.8	2889.25
969.6904	2423.0304	3744.85	2866.2
969.8201	2424.4104	3749.5	2867.5
969.9499	2425.7896	3712.85	2827.65
970.0796	2427.1682	3729.65	2847.75
970.2093	2428.546	3714.1	2830.05
970.3389	2429.9232	3711.25	2828.25
970.4685	2431.2996	3716.5	2836.35
970.5981	2432.6753	3686.85	2805.35
970.7277	2434.0503	3680.55	2800.8
970.8572	2435.4246	3661	2779
970.9867	2436.7982	3651.15	2768.25
971.1161	2438.1711	3654.45	2774.9
971.2456	2439.5433	3637.8	2755.25
971.375	2440.9148	3622.75	2736.55
971.5043	2442.2856	3611.9	2732
971.6336	2443.6557	3611.05	2729.2
971.7629	2445.025	3588.55	2706.05
971.8922	2446.3937	3590.1	2710.05
972.0214	2447.7617	3581	2698.9
972.1506	2449.1289	3563.55	2682.05
972.2798	2450.4955	3579.1	2694.55
972.4089	2451.8613	3555.25	2674.7
972.538	2453.2265	3549.2	2669.7
972.6671	2454.5909	3548.95	2668.9
972.7961	2455.9546	3528.8	2647.6
972.9251	2457.3177	3511.45	2631.55
973.0541	2458.68	3500.15	2618.25
973.1831	2460.0416	3511.35	2630.6
973.312	2461.4025	3512.25	2630.35
973.4408	2462.7627	3493.25	2599.85
973.5697	2464.1222	3475.1	2595.1
973.6985	2465.4811	3458.25	2576.25
973.8273	2466.8392	3461.05	2580.8
973.956	2468.1966	3445.95	2562.7
974.0847	2469.5533	3463.55	2581.95
974.2134	2470.9093	3434.15	2553.1
974.3421	2472.2645	3438.4	2556.15
974.4707	2473.6191	3411.85	2531.45
974.5993	2474.973	3413.65	2532.25
974.7278	2476.3262	3400.5	2516.8
974.8563	2477.6787	3388	2507.1
974.9848	2479.0305	3370.7	2490.1
975.1132	2480.3816	3368.5	2486.5
975.2417	2481.7319	3362.95	2482.2
975.37	2483.0816	3350.75	2467.25
975.4984	2484.4306	3345.9	2463.55
975.6267	2485.7789	3333.55	2453.9
975.755	2487.1264	3308.85	2427.25
975.8833	2488.4733	3319.2	2438.4
976.0115	2489.8195	3321.45	2433.3
976.1397	2491.165	3284.7	2401.45
976.2678	2492.5097	3281.25	2400.5
976.3959	2493.8538	3265.05	2384.05
976.524	2495.1972	3261.2	2379.7
976.6521	2496.5398	3249.4	2371
976.7801	2497.8818	3252.9	2370.1
976.9081	2499.2231	3232.25	2354.35
977.036	2500.5637	3224.4	2341.8
977.164	2501.9035	3221.6	2338.95
977.2918	2503.2427	3218.3	2333.95
977.4197	2504.5812	3194.7	2315.6
977.5475	2505.919	3188.8	2306.05
977.6753	2507.256	3184.8	2305.5
977.8031	2508.5924	3179.45	2300.3
977.9308	2509.9281	3173.9	2286.6
978.0585	2511.2631	3167.2	2287.85
978.1861	2512.5974	3157.2	2277.25
978.3137	2513.9309	3150.6	2271.85
978.4413	2515.2638	3152.5	2241.95
978.5689	2516.596	3121	2241.55
978.6964	2517.9275	3114	2231.95
978.8239	2519.2583	3116.85	2235.9
978.9513	2520.5884	3096.7	2211.95
979.0788	2521.9178	3086.7	2204.9
979.2062	2523.2465	3081.15	2200.55
979.3335	2524.5745	3068.35	2189.15
979.4608	2525.9018	3067.55	2184.8
979.5881	2527.2284	3054.65	2176.65
979.7154	2528.5543	3031.75	2153.35
979.8426	2529.8796	3044.1	2163.2
979.9698	2531.2041	3039.25	2159.2
980.0969	2532.5279	3024.55	2145.05
980.224	2533.851	3035.7	2154.2
980.3511	2535.1735	3011.5	2132.55
980.4781	2536.4952	3009.15	2127.15
980.6052	2537.8163	3007.15	2126.1
980.7321	2539.1366	2998.95	2117.8
980.8591	2540.4562	2994.75	2111.1
980.986	2541.7752	2988.6	2108.6
981.1129	2543.0935	2977.55	2095.95
981.2397	2544.411	2977.45	2096.85
981.3665	2545.7279	2969.05	2088.85
981.4933	2547.0441	2965.45	2086.25
981.62	2548.3596	2962.7	2078.8
981.7467	2549.6744	2966.25	2087.25
981.8734	2550.9885	2950.1	2062.25
982.0001	2552.3019	2933.2	2054.5
982.1267	2553.6146	2931.25	2048.95
982.2532	2554.9266	2923.5	2042.45
982.3798	2556.2379	2925.5	2043.4
982.5063	2557.5485	2919.7	2040.45
982.6327	2558.8585	2909.6	2021.65
982.7592	2560.1677	2908.2	2024.3
982.8856	2561.4762	2897.55	2016.2
983.0119	2562.7841	2904.05	2019.15
983.1383	2564.0913	2902.7	2024.2
983.2646	2565.3977	2890.6	2008
983.3908	2566.7035	2872.35	1989.5
983.517	2568.0086	2877.9	1996.2
983.6432	2569.313	2872.65	1992.65
983.7694	2570.6167	2872.45	1987.65
983.8955	2571.9197	2852.3	1971.4
984.0216	2573.222	2840.15	1956.4
984.1476	2574.5236	2840.2	1959.85
984.2737	2575.8246	2830.35	1947.45
984.3996	2577.1248	2833	1950.95
984.5256	2578.4244	2829.15	1949.65
984.6515	2579.7232	2832.65	1950.2
984.7774	2581.0214	2838.75	1933.05
984.9032	2582.3189	2814.15	1933
985.029	2583.6157	2814.55	1930.7
985.1548	2584.9118	2806.95	1925
985.2806	2586.2072	2781.15	1898.95
985.4063	2587.5019	2781.9	1903.8
985.5319	2588.7959	2788.85	1908
985.6576	2590.0893	2779.6	1896.8
985.7832	2591.3819	2770.6	1892.35
985.9087	2592.6739	2761.25	1880.8
986.0343	2593.9652	2755.55	1875.85
986.1597	2595.2557	2749.05	1868.65
986.2852	2596.5456	2737.1	1854.15
986.4106	2597.8348	2733.6	1854.5
986.536	2599.1234	2730.4	1848.85
986.6614	2600.4112	2720.75	1839.6
986.7867	2601.6983	2707.9	1823.55
986.912	2602.9848	2696.45	1813.6
987.0372	2604.2705	2702.1	1813.85
987.1624	2605.5556	2686.65	1804.6
987.2876	2606.84	2683.4	1801.85
987.4128	2608.1237	2668.85	1785.55
987.5379	2609.4067	2668.75	1787.7
987.6629	2610.689	2672.75	1784.25
987.788	2611.9707	2647.9	1764.85
987.913	2613.2516	2641.7	1756.4
988.0379	2614.5319	2622	1742.9
988.1629	2615.8115	2622.3	1739.8
988.2878	2617.0903	2623.05	1740.2
988.4126	2618.3685	2610.4	1730
988.5375	2619.6461	2600.95	1721.1
988.6622	2620.9229	2598.6	1719.4
988.787	2622.199	2590.65	1708.2
988.9117	2623.4745	2586.45	1703.55
989.0364	2624.7493	2582.75	1703.95
989.161	2626.0234	2573.6	1695.4
989.2857	2627.2968	2555.8	1675.3
989.4102	2628.5695	2562.05	1678.55
989.5348	2629.8415	2547.95	1666.9
989.6593	2631.1128	2530.75	1647.25
989.7837	2632.3835	2524.15	1644.25
989.9082	2633.6535	2531	1651.35
990.0326	2634.9228	2525.1	1644.3
990.1569	2636.1914	2514.4	1635.5
990.2812	2637.4593	2508.8	1623.5
990.4055	2638.7265	2486.15	1606.3
990.5298	2639.9931	2494	1610.8
990.654	2641.259	2483.75	1600.9
990.7782	2642.5242	2483.9	1601.4
990.9023	2643.7887	2472.65	1591.75
991.0264	2645.0525	2475.5	1593.9
991.1505	2646.3156	2457.6	1578.65
991.2745	2647.5781	2446.5	1566.55
991.3985	2648.8398	2449.85	1568.25
991.5225	2650.1009	2446.05	1556.5
991.6464	2651.3613	2430.95	1551.1
991.7703	2652.6211	2429.65	1548.35
991.8942	2653.8801	2426.55	1545.25
992.018	2655.1385	2425.9	1542.35
992.1418	2656.3961	2417	1536.15
992.2655	2657.6531	2413.25	1531.7
992.3892	2658.9094	2398.55	1519.05
992.5129	2660.1651	2401.75	1523.15
992.6366	2661.42	2406.55	1526.3
992.7602	2662.6743	2393.85	1510.3
992.8837	2663.9279	2391.45	1513.1
993.0073	2665.1808	2390.05	1507.6
993.1307	2666.433	2374.55	1493.85
993.2542	2667.6846	2361	1481.85
993.3776	2668.9354	2362.3	1477.6
993.501	2670.1856	2364.6	1483.55
993.6244	2671.4351	2355.6	1475.35
993.7477	2672.6839	2357.85	1474.3
993.8709	2673.9321	2352.4	1472.1
993.9942	2675.1795	2345.45	1465.55
994.1174	2676.4263	2330.7	1450.05
994.2405	2677.6724	2333.15	1453.15
994.3637	2678.9179	2325.55	1445.6
994.4868	2680.1626	2320.5	1441.3
994.6098	2681.4067	2312.55	1430.55
994.7328	2682.6501	2301.05	1420.5
994.8558	2683.8928	2302.55	1421.05
994.9788	2685.1348	2289.95	1408.5
995.1017	2686.3761	2300.5	1421.45
995.2245	2687.6168	2286.3	1408.45
995.3474	2688.8568	2283.15	1402.1
995.4702	2690.0961	2265.45	1387.2
995.5929	2691.3348	2281.65	1401.9
995.7156	2692.5727	2253.05	1371.1
995.8383	2693.81	2273.05	1392.5
995.961	2695.0466	2260.85	1380
996.0836	2696.2826	2245.3	1362.2
996.2062	2697.5178	2251.65	1368.15
996.3287	2698.7524	2243.6	1362.35
996.4512	2699.9863	2247.35	1364.75
996.5737	2701.2195	2232.5	1351.9
996.6961	2702.452	2232.15	1351
996.8185	2703.6839	2222.75	1341.75
996.9408	2704.9151	2224.3	1345.2
997.0631	2706.1456	2205.8	1325.65
997.1854	2707.3755	2204.55	1323.35
997.3077	2708.6046	2196.7	1313.35
997.4299	2709.8331	2195	1314.65
997.552	2711.0609	2194.8	1315.3
997.6742	2712.2881	2180.3	1300.25
997.7963	2713.5145	2187.9	1305.3
997.9183	2714.7403	2166.7	1288.6
998.0403	2715.9654	2161.8	1279.7
998.1623	2717.1899	2178.15	1283.9
998.2842	2718.4136	2153.9	1274.85
998.4062	2719.6367	2153.4	1272.95
998.528	2720.8591	2151.45	1262.3
998.6498	2722.0809	2154.85	1273.1
998.7716	2723.3019	2150.8	1264.9
998.8934	2724.5223	2137.6	1256.85
999.0151	2725.7421	2128.35	1246.1
999.1368	2726.9611	2123.95	1240.65
999.2584	2728.1795	2126	1241.7
999.38	2729.3972	2106.9	1225.6
999.5016	2730.6142	2119.2	1224.5
999.6231	2731.8306	2104.75	1225.1
999.7446	2733.0462	2088.8	1204.55
999.8661	2734.2612	2083.9	1198.9
999.9875	2735.4756	2080.2	1198.2
1000.1089	2736.6892	2067.65	1187.5
1000.2302	2737.9022	2070.15	1192.2
1000.3515	2739.1145	2065.85	1185
1000.4728	2740.3262	2066.95	1177.25
1000.594	2741.5372	2044.3	1164.25
1000.7152	2742.7475	2035.1	1152
1000.8363	2743.9571	2042.3	1158.8
1000.9575	2745.1661	2040.85	1154.95
1001.0785	2746.3744	2033.2	1151.15
1001.1996	2747.582	2031.2	1150.85
1001.3206	2748.7889	2023.85	1143.2
1001.4415	2749.9952	2015.85	1134.7
1001.5625	2751.2008	2010.75	1130.6
1001.6833	2752.4057	2011.75	1129.45
1001.8042	2753.61	2005.65	1124.5
1001.925	2754.8136	1999.5	1116.55
1002.0458	2756.0165	1998.45	1118.2
1002.1665	2757.2188	1989.05	1109.3
1002.2872	2758.4204	1987.7	1105.2
1002.4078	2759.6213	1973.95	1091.2
1002.5285	2760.8215	1979.7	1094.2
1002.649	2762.0211	1972.25	1090.6
1002.7696	2763.22	1966.6	1085.95
1002.8901	2764.4182	1962.95	1080.55
1003.0106	2765.6158	1967.15	1086.3
1003.131	2766.8127	1953.2	1071.75
1003.2514	2768.009	1947.75	1069.3
1003.3717	2769.2045	1946.45	1064.55
1003.492	2770.3994	1940.05	1057.55
1003.6123	2771.5936	1934	1052.85
1003.7325	2772.7872	1927.85	1049.8
1003.8527	2773.9801	1928.55	1046.35
1003.9729	2775.1723	1938.15	1041.35
1004.093	2776.3639	1918.35	1040.05
1004.2131	2777.5548	1917.55	1032.6
1004.3331	2778.745	1915.7	1035.35
1004.4531	2779.9346	1901.25	1019.9
1004.5731	2781.1235	1893.5	1011.2
1004.693	2782.3117	1895.05	1016.75
1004.8129	2783.4992	1896.5	1015.95
1004.9328	2784.6861	1893.1	1013.15
1005.0526	2785.8723	1882.55	1000.35
1005.1723	2787.0579	1887.3	1008.2
1005.2921	2788.2428	1873.65	993.7
1005.4118	2789.427	1873.3	992.1
1005.5314	2790.6106	1869.35	988.9
1005.651	2791.7935	1863.2	982.5
1005.7706	2792.9757	1859.25	978.45
1005.8902	2794.1573	1853.9	971.9
1006.0097	2795.3382	1850.05	970.75
1006.1291	2796.5184	1840.5	960.8
1006.2485	2797.698	1848.65	965.35
1006.3679	2798.8769	1838.25	957.4
1006.4873	2800.0551	1829.3	946.95
1006.6066	2801.2327	1829.9	947.95
1006.7258	2802.4096	1821.9	943.15
1006.8451	2803.5859	1820.65	939.9
1006.9642	2804.7615	1825.35	943.95
1007.0834	2805.9364	1818.45	939.55
1007.2025	2807.1106	1806.65	928.6
1007.3216	2808.2842	1807.2	925.05
1007.4406	2809.4572	1801.05	921.75
1007.5596	2810.6294	1808	926.5
1007.6785	2811.801	1800.8	921.95
1007.7975	2812.972	1800.05	920
1007.9163	2814.1423	1799.5	918.15
1008.0352	2815.3119	1800.05	919.9
1008.154	2816.4808	1798.7	919.75
1008.2727	2817.6491	1808.35	928.75
1008.3914	2818.8167	1798.65	920.9
1008.5101	2819.9837	1815.35	930.85
1008.6288	2821.15	1812.3	932.4
1008.7474	2822.3157	1814.9	936.3
1008.8659	2823.4807	1820.85	942.1
1008.9844	2824.645	1820.6	940.6
1009.1029	2825.8086	1825.05	945.55
1009.2214	2826.9716	1834.55	954.75
1009.3398	2828.134	1840.9	959.25
1009.4581	2829.2957	1855.25	975.75
1009.5764	2830.4567	1859.5	980.5
1009.6947	2831.617	1856.2	976.15
1009.813	2832.7767	1846.1	966.5
1009.9312	2833.9358	1852.85	972.6
1010.0493	2835.0941	1861.85	979.45
1010.1675	2836.2519	1840	960.3
1010.2855	2837.4089	1832.65	950.9
1010.4036	2838.5653	1831.35	953.1
1010.5216	2839.7211	1827.15	947.6
1010.6396	2840.8761	1817	933.8
1010.7575	2842.0306	1816.4	938.8
1010.8754	2843.1843	1809.8	928.65
1010.9932	2844.3374	1806.25	928.45
1011.111	2845.4899	1801.35	919.45
1011.2288	2846.6417	1808.65	929.5
1011.3465	2847.7928	1811.6	931.65
1011.4642	2848.9433	1809.8	929.1
1011.5818	2850.0931	1800.55	922.65
1011.6995	2851.2422	1804.75	922.6
1011.817	2852.3907	1806.15	925.55
1011.9345	2853.5385	1811.6	928.55
1012.052	2854.6857	1817.35	926.9
1012.1695	2855.8323	1802.85	924.5
1012.2869	2856.9781	1799.05	918.8
1012.4042	2858.1233	1797.85	917.3
1012.5216	2859.2679	1801.05	921.55
1012.6389	2860.4118	1801.05	919.3
1012.7561	2861.555	1813.8	926.85
1012.8733	2862.6976	1806.7	924.05
1012.9905	2863.8395	1803	922.45
1013.1076	2864.9808	1803.95	923.2
1013.2247	2866.1214	1802.6	924.8
1013.3417	2867.2614	1798.05	917.4
1013.4587	2868.4007	1810.4	928.45
1013.5757	2869.5393	1800.3	919.75
1013.6926	2870.6773	1801.05	918.3
1013.8095	2871.8146	1794.35	912.35
1013.9263	2872.9513	1792.25	910.15
1014.0431	2874.0874	1787.2	907.9
1014.1599	2875.2227	1798	917
1014.2766	2876.3574	1790.9	911.25
1014.3933	2877.4915	1797.05	917.35
1014.51	2878.6249	1784.9	905.1
1014.6266	2879.7577	1797.9	917.25
1014.7431	2880.8898	1797.15	906.75
1014.8596	2882.0212	1787.55	908.8
1014.9761	2883.152	1785.25	907.05
1015.0925	2884.2821	1784.05	904.25
1015.2089	2885.4116	1785.65	905.9
1015.3253	2886.5405	1784.85	905
1015.4416	2887.6686	1785.3	900.65
1015.5579	2888.7962	1785.6	908.5
1015.6741	2889.923	1779.2	901.05
1015.7903	2891.0493	1772.1	895
1015.9065	2892.1748	1768.75	887.4
1016.0226	2893.2997	1761.2	881.15
1016.1387	2894.424	1760.8	883.3
1016.2547	2895.5476	1765.7	885.8
1016.3707	2896.6706	1762.55	881.65
1016.4866	2897.7929	1755.15	872.6
1016.6025	2898.9145	1759.7	879.9
1016.7184	2900.0355	1747.15	867.8
1016.8342	2901.1559	1742.95	860.3
1016.95	2902.2756	1742.85	864.1
1017.0658	2903.3946	1738.55	857.5
1017.1815	2904.513	1743.65	861.2
1017.2971	2905.6308	1735.7	856.6
1017.4127	2906.7479	1733.65	852.45
1017.5283	2907.8643	1727.2	846.3
1017.6439	2908.9801	1723.8	843.05
1017.7594	2910.0953	1716.95	836.95
1017.8748	2911.2098	1711.75	829.3
1017.9902	2912.3236	1716.2	827.25
1018.1056	2913.4368	1725.55	843.5
1018.2209	2914.5494	1708.05	828.15
1018.3362	2915.6613	1700.1	813.5
1018.4515	2916.7725	1699.45	817.45
1018.5667	2917.8831	1695.15	815.65
1018.6819	2918.9931	1688.8	805.5
1018.797	2920.1024	1673.55	794.15
1018.9121	2921.211	1667.6	786
1019.0271	2922.319	1668.1	788.25
1019.1421	2923.4264	1667.2	788.8
1019.2571	2924.5331	1655.5	777.7
1019.372	2925.6391	1660.15	781.05
1019.4869	2926.7445	1655.65	778.3
1019.6017	2927.8493	1656.5	776.65
1019.7165	2928.9534	1647	767.15
1019.8313	2930.0569	1651.5	769.6
1019.946	2931.1597	1656.5	776.45
1020.0606	2932.2619	1651.65	770.45
1020.1753	2933.3634	1648.5	769.35
1020.2899	2934.4643	1655.35	766.65
1020.4044	2935.5645	1660.4	773.3
1020.5189	2936.6641	1659.05	776.6
1020.6334	2937.763	1642.3	762.95
1020.7478	2938.8613	1648.7	769.7
1020.8622	2939.959	1640.25	756.15
1020.9765	2941.056	1630.1	752
1021.0908	2942.1523	1619.75	737.6
1021.2051	2943.248	1606.55	724.9
1021.3193	2944.3431	1594.5	714.5
1021.4334	2945.4375	1579.8	698.85
1021.5476	2946.5313	1578.1	701.75
1021.6617	2947.6244	1556.95	676.15
1021.7757	2948.7169	1552.1	672.55
1021.8897	2949.8087	1538.8	656.6
1022.0037	2950.8999	1518.85	639.7
1022.1176	2951.9904	1518.9	638.25
1022.2315	2953.0803	1508.1	627.3
1022.3453	2954.1696	1504.55	624.95
1022.4591	2955.2582	1497.15	617.95
1022.5728	2956.3462	1492.15	611.85
1022.6865	2957.4335	1490.7	609.8
1022.8002	2958.5202	1484.9	602.25
1022.9138	2959.6062	1475.25	595.1
1023.0274	2960.6916	1474.3	595.1
1023.141	2961.7764	1475.25	594.8
1023.2545	2962.8605	1475.1	593.25
1023.3679	2963.9439	1467.45	589
1023.4813	2965.0267	1468.35	586.95
1023.5947	2966.1089	1484.65	581.65
1023.708	2967.1905	1457.8	578.2
1023.8213	2968.2714	1453.65	573.35
1023.9346	2969.3516	1455.25	574.65
1024.0478	2970.4312	1458.55	572.35
1024.1609	2971.5102	1451.25	572
1024.274	2972.5885	1436.1	556.6
1024.3871	2973.6662	1454.15	569.9
1024.5002	2974.7432	1442.4	561.9
1024.6132	2975.8196	1437.8	556.9
1024.7261	2976.8954	1440.6	561.55
1024.839	2977.9705	1440.6	560.35
1024.9519	2979.045	1433.8	554.2
1025.0647	2980.1188	1438.3	559.5
1025.1775	2981.192	1426.85	547.65
1025.2902	2982.2645	1422.6	541.65
1025.4029	2983.3364	1421	541.1
1025.5156	2984.4077	1411.65	532.6
1025.6282	2985.4783	1419.5	534.5
1025.7407	2986.5483	1410.25	530.45
1025.8532	2987.6177	1404.85	523.5
1025.9657	2988.6864	1398.15	518.65
1026.0782	2989.7545	1398.85	516.9
1026.1906	2990.8219	1387.9	509.8
1026.3029	2991.8887	1387.85	507
1026.4152	2992.9548	1376.6	495.65
1026.5275	2994.0204	1367.6	487.1
1026.6397	2995.0852	1366.95	487.65
1026.7519	2996.1495	1365.15	483.2
1026.864	2997.2131	1356.75	475.05
1026.9761	2998.276	1352.95	473.85
1027.0882	2999.3383	1349.1	469.4
1027.2002	3000.4	1347.5	466.4
1027.3122	3001.4611	1342.8	463.4
1027.4241	3002.5215	1332.85	452.25
1027.536	3003.5812	1330.05	448.7
1027.6478	3004.6404	1332.7	451.9
1027.7596	3005.6989	1329.2	447.35
1027.8714	3006.7567	1323.3	443.75
1027.9831	3007.8139	1347.75	445.05
1028.0947	3008.8705	1322.3	443.7
1028.2064	3009.9264	1319.2	435.3
1028.3179	3010.9818	1310.75	429.65
1028.4295	3012.0364	1312.55	432.6
1028.541	3013.0905	1308.85	428.75
1028.6524	3014.1439	1303.2	423.85
1028.7638	3015.1966	1300.7	420.6
1028.8752	3016.2487	1306	426.4
1028.9865	3017.3002	1303.85	417.2
1029.0978	3018.3511	1293.1	414.5
1029.209	3019.4013	1301.4	420.7
1029.3202	3020.4509	1295.5	415.9
1029.4314	3021.4998	1299.3	418.9
1029.5425	3022.5481	1293.2	411.75
1029.6535	3023.5958	1287.75	407.45
1029.7645	3024.6428	1285.35	404.25
1029.8755	3025.6892	1281.95	402.35
1029.9864	3026.735	1280.3	397.7
1030.0973	3027.7802	1283	405.05
1030.2082	3028.8247	1275.25	397.05
1030.319	3029.8685	1278.1	397.75
1030.4297	3030.9118	1281.6	402.45
1030.5404	3031.9544	1270.25	391.8
1030.6511	3032.9963	1270.6	390.05
1030.7617	3034.0376	1270.3	390.5
1030.8723	3035.0783	1271.15	389.9
1030.9829	3036.1184	1267.15	386.65
1031.0934	3037.1578	1265.8	384.15
1031.2038	3038.1966	1262.75	381.6
1031.3142	3039.2348	1265.5	385.1
1031.4246	3040.2723	1265.05	375.95
1031.5349	3041.3092	1259.2	380.25
1031.6452	3042.3455	1264.45	384.4
1031.7554	3043.3811	1260.75	380.05
1031.8656	3044.4161	1254.75	374.3
1031.9758	3045.4505	1255.45	377.65
1032.0859	3046.4842	1259.1	380.6
1032.1959	3047.5173	1253.8	374.65
1032.3059	3048.5498	1248.45	369.7
1032.4159	3049.5816	1252.7	371.85
1032.5258	3050.6128	1252.15	372
1032.6357	3051.6434	1244.15	361.9
1032.7455	3052.6734	1247.35	367.7
1032.8553	3053.7027	1245	365.5
1032.9651	3054.7314	1241.35	363.9
1033.0748	3055.7594	1245.35	365.95
1033.1845	3056.7868	1240.8	362.35
1033.2941	3057.8136	1236.7	356.35
1033.4037	3058.8398	1241.2	362.9
1033.5132	3059.8653	1237.25	359.25
1033.6227	3060.8902	1233.5	353.75
1033.7321	3061.9145	1235.55	356.4
1033.8415	3062.9381	1239.55	359.5
1033.9509	3063.9612	1244.7	349.65
1034.0602	3064.9835	1232.4	352.6
1034.1694	3066.0053	1230.05	349.35
1034.2787	3067.0264	1229.3	350.15
1034.3878	3068.0469	1224.45	341.95
1034.497	3069.0668	1227.4	345.2
1034.6061	3070.086	1223.25	344.45
1034.7151	3071.1046	1217.8	338.2
1034.8241	3072.1226	1223.65	339.5
1034.9331	3073.1399	1222.1	343.95
1035.042	3074.1567	1225.4	345.3
1035.1508	3075.1727	1222.5	339.95
1035.2597	3076.1882	1204.65	324.7
1035.3684	3077.203	1212.5	330.85
1035.4772	3078.2173	1215.9	334.45
1035.5859	3079.2308	1218.15	336.6
1035.6945	3080.2438	1210.15	328
1035.8031	3081.2561	1206.9	327.55
1035.9117	3082.2678	1198.05	317.25
1036.0202	3083.2789	1204.4	324.65
1036.1286	3084.2893	1200.05	323.15
1036.2371	3085.2991	1194.65	314.5
1036.3454	3086.3083	1201.75	318.05
1036.4538	3087.3169	1198.25	318.7
1036.562	3088.3248	1197.4	318
1036.6703	3089.3321	1192.6	312.3
1036.7785	3090.3388	1188.2	309.55
1036.8866	3091.3449	1186.6	307.4
1036.9948	3092.3503	1182.45	298.8
1037.1028	3093.3551	1182.6	305.45
1037.2108	3094.3593	1187.15	307.95
1037.3188	3095.3629	1179.75	301.25
1037.4267	3096.3658	1177.1	296
1037.5346	3097.3681	1185.5	306.65
1037.6425	3098.3698	1175.05	291.5
1037.7503	3099.3708	1174.45	290.1
1037.858	3100.3713	1173.15	295.1
1037.9657	3101.3711	1174.7	294.4
1038.0734	3102.3702	1305.5	288.2
1038.181	3103.3688	1169.75	289.1
1038.2886	3104.3667	1160.35	281.2
1038.3961	3105.364	1165.55	285.4
1038.5036	3106.3607	1157.65	277.3
1038.611	3107.3568	1162.35	283.25
1038.7184	3108.3522	1155.3	276.1
1038.8257	3109.347	1156.2	276
1038.933	3110.3412	1158.8	274.5
1039.0403	3111.3348	1155.45	275.3
1039.1475	3112.3277	1155.45	273.45
1039.2547	3113.32	1150	271.55
1039.3618	3114.3117	1156.2	275.7
1039.4689	3115.3028	1141	263.1
1039.5759	3116.2932	1148.55	267.15
1039.6829	3117.2831	1149.2	264.5
1039.7898	3118.2723	1142.1	263.75
1039.8967	3119.2608	1141.5	261.3
1040.0035	3120.2488	1133.2	253.45
1040.1103	3121.2361	1134.3	254.3
1040.2171	3122.2229	1130.5	249.9
1040.3238	3123.209	1134.8	254.85
1040.4305	3124.1944	1132.05	251.65
1040.5371	3125.1793	1132.65	252.25
1040.6437	3126.1635	1129.5	251.65
1040.7502	3127.1471	1126.3	247.4
1040.8567	3128.1301	1125.5	244.75
1040.9631	3129.1125	1124.65	246.75
1041.0695	3130.0942	1125.3	246.45
1041.1759	3131.0753	1132.05	243.45
1041.2822	3132.0558	1125.15	242.7
1041.3884	3133.0357	1126.7	246.45
1041.4946	3134.015	1120.15	240.05
1041.6008	3134.9936	1124.05	243.7
1041.7069	3135.9716	1138.65	238
1041.813	3136.949	1120.9	240.05
1041.919	3137.9258	1120.85	234.45
1042.025	3138.902	1118.45	234.1
1042.1309	3139.8775	1114.95	236.25
1042.2368	3140.8524	1114.9	235
1042.3427	3141.8267	1112.9	231.45
1042.4485	3142.8004	1107	226.35
1042.5542	3143.7735	1111.55	227
1042.6599	3144.7459	1108.3	225.85
1042.7656	3145.7178	1110.4	231.2
1042.8712	3146.689	1107.25	228.3
1042.9768	3147.6596	1105.05	225.15
1043.0823	3148.6295	1105.25	225.15
1043.1878	3149.5989	1099.4	220.6
1043.2932	3150.5676	1101.25	223.95
1043.3986	3151.5357	1102.8	224.2
1043.5039	3152.5032	1101.85	223.55
1043.6092	3153.4701	1096.7	219.3
1043.7145	3154.4364	1097.25	215.9
1043.8197	3155.402	1096.25	217.25
1043.9248	3156.367	1097.9	217.55
1044.03	3157.3315	1131.5	214
1044.135	3158.2952	1092.85	210.7
1044.24	3159.2584	1089.25	209.9
1044.345	3160.221	1088.55	208.65
1044.4499	3161.1829	1089.45	209.95
1044.5548	3162.1442	1091.1	211.1
1044.6596	3163.105	1086.2	206.25
1044.7644	3164.065	1091.05	212.55
1044.8692	3165.0245	1087.95	207.55
1044.9739	3165.9834	1082.75	204.55
1045.0785	3166.9416	1084.65	206.55
1045.1831	3167.8993	1079.45	200.5
1045.2877	3168.8563	1080.05	199.85
1045.3922	3169.8127	1081.25	203.05
1045.4966	3170.7684	1080.5	202.85
1045.6011	3171.7236	1075.65	194.65
1045.7054	3172.6782	1071.55	191.7
1045.8098	3173.6321	1076.85	197.7
1045.914	3174.5854	1078.5	196.2
1046.0183	3175.5381	1072.65	193.6
1046.1224	3176.4902	1073.85	195.2
1046.2266	3177.4417	1069	189
1046.3307	3178.3926	1070.45	190.45
1046.4347	3179.3428	1069.45	190
1046.5387	3180.2924	1066.6	187.65
1046.6427	3181.2415	1064.65	185.5
1046.7466	3182.1899	1067.05	184.5
1046.8504	3183.1377	1060.45	181.2
1046.9542	3184.0848	1063.7	179.9
1047.058	3185.0314	1059.25	180.85
1047.1617	3185.9773	1063.25	181.7
1047.2654	3186.9227	1061.95	181.55
1047.369	3187.8674	1063.3	181.5
1047.4726	3188.8115	1060.6	177.6
1047.5761	3189.755	1056.4	179.65
1047.6796	3190.6979	1050.55	170.9
1047.783	3191.6402	1057.15	181.05
1047.8864	3192.5818	1052.45	171.2
1047.9898	3193.5229	1057.55	172
1048.0931	3194.4633	1055.4	173.95
1048.1963	3195.4031	1048.9	168.95
1048.2995	3196.3423	1053.4	173.1
1048.4027	3197.2809	1050.75	171.15
1048.5058	3198.2189	1056.15	176.35
1048.6089	3199.1563	1053.4	166.9
1048.7119	3200.0931	1044.2	167.2
1048.8148	3201.0292	1044.8	166.75
1048.9178	3201.9648	1049.05	169.65
1049.0206	3202.8997	1044.35	162.95
1049.1235	3203.834	1039.45	159.8
1049.2262	3204.7677	1042.45	162.55
1049.329	3205.7008	1046.45	163.45
1049.4317	3206.6333	1040.3	162.15
1049.5343	3207.5652	1043.2	162.75
1049.6369	3208.4964	1042.45	164.7
1049.7394	3209.4271	1037.35	157.35
1049.8419	3210.3571	1037.85	158.9
1049.9444	3211.2865	1035.15	155.25
1050.0468	3212.2154	1042.95	162.75
1050.1491	3213.1436	1037.3	154.5
1050.2514	3214.0712	1041	154.2
1050.3537	3214.9982	1033.8	154.75
1050.4559	3215.9246	1032.65	152.6
1050.5581	3216.8503	1034.4	154.8
1050.6602	3217.7755	1035.2	155.45
1050.7623	3218.7001	1030.35	150.8
1050.8643	3219.624	1027.15	147.95
1050.9663	3220.5473	1030	148.9
1051.0682	3221.4701	1024.15	141.9
1051.1701	3222.3922	1031.45	150.25
1051.2719	3223.3137	1027.25	147.1
1051.3737	3224.2346	1027.65	148.3
1051.4754	3225.1549	1025.55	148.3
1051.5771	3226.0746	1030.65	150.95
1051.6788	3226.9937	1023.85	144
1051.7804	3227.9121	1023.05	143.55
1051.8819	3228.83	1021.55	142.65
1051.9834	3229.7473	1021.7	142.65
1052.0849	3230.6639	1020.4	140.45
1052.1863	3231.5799	1018.9	139.9
1052.2876	3232.4954	1021	141.45
1052.3889	3233.4102	1020	139.8
1052.4902	3234.3244	1017.45	138.3
1052.5914	3235.238	1015.65	135.35
1052.6926	3236.151	1039.15	135.5
1052.7937	3237.0634	1015.45	137.65
1052.8948	3237.9752	1014.9	136.25
1052.9958	3238.8864	1013.55	134.35
1053.0968	3239.797	1011.6	132.75
1053.1977	3240.7069	1012.55	133.3
1053.2986	3241.6163	1016.95	136
1053.3994	3242.5251	1010.95	133.4
1053.5002	3243.4332	1004.2	125.1
1053.6009	3244.3408	1007.75	125.2
1053.7016	3245.2477	1008.85	130.45
1053.8022	3246.154	1007.75	126.75
1053.9028	3247.0598	1006.45	126.35
1054.0034	3247.9649	1005.55	124.05
1054.1039	3248.8694	1008.7	129.6
1054.2043	3249.7733	1004.1	125.8
1054.3047	3250.6766	1004.6	125.6
1054.4051	3251.5793	1003.75	121.65
1054.5054	3252.4814	1002.25	122.6
1054.6056	3253.3829	998.95	120.25
1054.7058	3254.2838	1003.4	125.15
1054.806	3255.1841	1000.2	120.35
1054.9061	3256.0838	997.7	119.5
1055.0061	3256.9829	992.8	114.7
1055.1062	3257.8814	996.5	114
1055.2061	3258.7792	994.25	115.35
1055.306	3259.6765	998.3	115.85
1055.4059	3260.5731	993	113.9
1055.5057	3261.4692	991.7	110.35
1055.6055	3262.3647	994.75	114.95
1055.7052	3263.2595	991.1	110.65
1055.8049	3264.1538	987.2	107
1055.9045	3265.0474	985.85	106.9
1056.0041	3265.9404	983.9	106.55
1056.1036	3266.8329	980.55	100.85
1056.2031	3267.7247	987.2	98.15
1056.3025	3268.616	977.35	98.45
1056.4019	3269.5066	975.15	95.05
1056.5013	3270.3966	972.7	92
1056.6005	3271.286	967.3	90.15
