Software Version:	3.9.2.0
Unit SN:	10000200
Spectrometer SN:	6960
Date:	3/8/2024 1:43:51 PM
Data Line Index:	25
Spectral Points:	2048
Integration time (ms):	125
Averages:	20
Delay (ms):	30000
Sequence Number:	1
Processing:	dark subtract
Laser Power (mW):	300
Laser Current (mA):	823
Laser Diode Temp (C):	25.1
Laser Case Temp (C):	26.3
System Temp (C):	26.3
Spectrometer Temp (C):	24.1
CCD Temp (C):	0.004
Secondary Temp (C):	20.017
Heatsink Temp (C):	21.363
CCDPCB Temp (C):	36.24
SecondaryPCB Temp (C):	29.915

Wavelength	RamanShift	Raw Counts	Dark Subtracted
787.061	30.1047	468.45	61.2
787.2016	32.3739	471.85	65.7
787.3422	34.6426	475.75	71.2
787.4828	36.9109	484.05	75.9
787.6235	39.1787	488.45	73.1
787.7642	41.4461	498.95	81.6
787.9049	43.7131	506.15	87.15
788.0456	45.9796	515.6	92.15
788.1863	48.2456	524.15	97.35
788.3271	50.5112	537.1	104.8
788.4679	52.7764	545.9	110.4
788.6087	55.0411	556.35	117.35
788.7496	57.3054	569.85	123.3
788.8904	59.5692	579.6	133.35
789.0313	61.8326	591.2	142.4
789.1722	64.0955	607.2	156.25
789.3132	66.3579	625	168.15
789.4541	68.6199	641.05	180.3
789.5951	70.8815	685.6	220.65
789.7361	73.1426	767.95	297
789.8771	75.4032	985.1	511.8
790.0181	77.6634	1523.05	1045.5
790.1592	79.9231	2785.4	2298.2
790.3003	82.1824	5551.45	5044.6
790.4414	84.4412	10543.55	10009.1
790.5825	86.6995	17403.65	16830.1
790.7237	88.9574	24123.15	23518.8
790.8648	91.2148	28765.15	28137.55
791.006	93.4717	30953.5	30309.35
791.1472	95.7282	31469.4	30817.3
791.2885	97.9842	31418.05	30765
791.4297	100.2398	30927	30267
791.571	102.4949	30368.75	29708.85
791.7123	104.7495	29634.4	28971.1
791.8536	107.0036	28783.05	28119.3
791.9949	109.2573	28024.45	27362.65
792.1363	111.5105	27334.4	26666.95
792.2777	113.7632	26639.95	25973.2
792.4191	116.0154	26051.45	25371.2
792.5605	118.2672	25649.25	24973.65
792.7019	120.5185	25219.3	24544.5
792.8434	122.7693	24882.95	24200.6
792.9849	125.0197	24630.6	23949.6
793.1264	127.2696	24334.95	23650.6
793.2679	129.519	24195.9	23502.9
793.4094	131.7679	24028.7	23336
793.551	134.0163	23879.45	23183.2
793.6926	136.2642	23686.7	22988.4
793.8342	138.5117	23489.2	22785
793.9758	140.7587	23259.65	22558.4
794.1175	143.0052	23063.15	22353.25
794.2591	145.2512	22792.15	22085.35
794.4008	147.4967	22604.5	21895.45
794.5425	149.7417	22431.4	21719.2
794.6842	151.9863	22340.4	21624
794.826	154.2304	22289	21570.65
794.9677	156.4739	22142.45	21417.6
795.1095	158.717	22101.6	21377.15
795.2513	160.9596	21940.8	21208.9
795.3931	163.2017	21724.45	20990.95
795.535	165.4433	21424.95	20695.5
795.6768	167.6844	21143.5	20406.15
795.8187	169.925	20863.6	20129.25
795.9606	172.1651	20440.15	19703.4
796.1025	174.4047	20242.25	19502
796.2445	176.6439	19983.1	19242.75
796.3864	178.8825	19739.9	18992.6
796.5284	181.1206	19630.7	18881.25
796.6704	183.3582	19432.65	18677.7
796.8124	185.5954	19383.4	18628.6
796.9544	187.832	19310.8	18551.15
797.0965	190.0681	19306.45	18541.05
797.2386	192.3037	19314.65	18548.6
797.3806	194.5388	19324.55	18552.9
797.5228	196.7734	19367.95	18597.2
797.6649	199.0075	19462.55	18688
797.807	201.2411	19642.85	18863.4
797.9492	203.4742	19719.55	18939.2
798.0914	205.7068	19917.6	19131.3
798.2336	207.9389	20038.3	19252.85
798.3758	210.1704	20188.8	19409.75
798.518	212.4015	20292.9	19530.7
798.6603	214.632	20508.85	19748.95
798.8025	216.862	20704	19944.1
798.9448	219.0915	20856.1	20098.85
799.0871	221.3205	21102.6	20336.1
799.2294	223.549	21347.1	20584.9
799.3718	225.777	21641.5	20877.8
799.5141	228.0044	22028.15	21261.5
799.6565	230.2314	22447.85	21682.85
799.7989	232.4578	22852.65	22083.05
799.9413	234.6837	23183.95	22407.4
800.0837	236.909	23415.3	22636.8
800.2262	239.1339	23444.25	22634.3
800.3687	241.3582	23262.3	22466.6
800.5111	243.582	22947.6	22125.25
800.6536	245.8053	22695.75	21888.15
800.7961	248.0281	22388.75	21586.45
800.9387	250.2503	22222.4	21417.25
801.0812	252.472	22088.7	21279.45
801.2238	254.6932	22083.75	21276.9
801.3664	256.9139	21998.85	21190.85
801.509	259.134	22034.6	21221.7
801.6516	261.3536	22043.7	21228.75
801.7942	263.5727	22197.9	21384.8
801.9369	265.7912	22174	21357.3
802.0795	268.0092	22233.6	21419.9
802.2222	270.2267	22238.75	21427.75
802.3649	272.4436	22260.55	21448.3
802.5076	274.6601	22204.65	21379.4
802.6504	276.8759	22150.65	21331.95
802.7931	279.0913	22113.05	21293.3
802.9359	281.3061	22073.2	21248.3
803.0787	283.5204	22148.55	21320.7
803.2215	285.7341	22218.7	21392.5
803.3643	287.9473	22388.65	21548.6
803.5071	290.16	22625.65	21792.95
803.6499	292.3721	22901.2	22076.25
803.7928	294.5837	23341.6	22514.9
803.9357	296.7947	23681.85	22856.25
804.0786	299.0052	23889.05	23064.1
804.2215	301.2152	23783.25	22948.95
804.3644	303.4246	23499.25	22671.4
804.5074	305.6334	23013.4	22183.45
804.6503	307.8418	22452.8	21623.35
804.7933	310.0495	22035.05	21201.7
804.9363	312.2568	21719.55	20881.45
805.0793	314.4635	21533.6	20700.5
805.2223	316.6696	21440.75	20600.35
805.3653	318.8752	21349.9	20502.45
805.5084	321.0802	21426.55	20585.85
805.6514	323.2847	21574.8	20727.95
805.7945	325.4887	21575.65	20731.75
805.9376	327.692	21528.85	20684.25
806.0807	329.8949	21458.35	20613.1
806.2238	332.0972	21235.1	20387.95
806.367	334.2989	20950.5	20098.15
806.5101	336.5001	20699.3	19852.35
806.6533	338.7007	20544.65	19696.35
806.7965	340.9008	20427.85	19580
806.9397	343.1003	20325.2	19473.1
807.0829	345.2992	20293.65	19438.85
807.2261	347.4976	20284.45	19431.05
807.3693	349.6955	20274.6	19414.45
807.5126	351.8927	20356.55	19491.2
807.6559	354.0895	20355.65	19481.7
807.7991	356.2856	20423.2	19565.3
807.9424	358.4812	20382.7	19522.05
808.0857	360.6763	20455.7	19590.05
808.2291	362.8707	20442	19573.05
808.3724	365.0646	20505.35	19636.45
808.5158	367.258	20508.9	19644.3
808.6591	369.4508	20549.45	19676.65
808.8025	371.643	20658.1	19783.65
808.9459	373.8346	20625.1	19746.95
809.0893	376.0257	20689.7	19813.1
809.2327	378.2162	20599.75	19729.4
809.3762	380.4062	20544.9	19670.15
809.5196	382.5956	20418	19544.9
809.6631	384.7844	20328.4	19462.7
809.8066	386.9726	20246.85	19388
809.9501	389.1603	20162.6	19301.95
810.0936	391.3474	20142.05	19243.75
810.2371	393.5339	20103.2	19233.05
810.3806	395.7199	20077.75	19214.7
810.5241	397.9052	20099.3	19234.6
810.6677	400.09	20127.4	19263.2
810.8113	402.2743	20208.45	19343.35
810.9548	404.4579	20332.4	19466.7
811.0984	406.641	20525.05	19652.15
811.2421	408.8235	20736	19865.5
811.3857	411.0054	21058.15	20179.8
811.5293	413.1868	21488.4	20609.55
811.673	415.3675	21793.95	20915.15
811.8166	417.5477	21975.05	21093.5
811.9603	419.7273	22057.7	21177.8
812.104	421.9064	21945.95	21053.8
812.2477	424.0848	21795.5	20917.95
812.3914	426.2627	21598.05	20714.75
812.5351	428.4399	21365.65	20482.85
812.6788	430.6166	21012.75	20126.05
812.8226	432.7928	20633.25	19744.9
812.9663	434.9683	20285	19398.55
813.1101	437.1432	20069.45	19185.3
813.2539	439.3176	19940.5	19064.7
813.3977	441.4914	19841.7	18970
813.5415	443.6645	19835.05	18957.05
813.6853	445.8371	19770.75	18890.05
813.8291	448.0091	19694.5	18808.45
813.973	450.1806	19657	18774.1
814.1168	452.3514	19618.15	18735.8
814.2607	454.5216	19674.15	18780.65
814.4046	456.6913	19591	18702.9
814.5485	458.8603	19624.45	18743.15
814.6924	461.0288	19726.85	18850.4
814.8363	463.1967	19721.65	18845.45
814.9802	465.3639	19871.85	18993.15
815.1241	467.5306	19938.35	19054.6
815.2681	469.6967	20075.6	19197.95
815.412	471.8622	20210.05	19331.1
815.556	474.0271	20387.2	19508
815.7	476.1914	20449	19562.6
815.844	478.3551	20436.25	19552
815.988	480.5182	20475.25	19595.85
816.132	482.6807	20485.05	19607.25
816.276	484.8426	20618.05	19750
816.4201	487.0039	20931.35	20055.7
816.5641	489.1647	21377.35	20494.75
816.7082	491.3248	21798.25	20916.05
816.8522	493.4843	21968.05	21091.3
816.9963	495.6432	21946.75	21065.75
817.1404	497.8015	21851.4	20958.8
817.2845	499.9592	21899.05	20999.75
817.4286	502.1163	21807.15	20909.75
817.5727	504.2728	21570.9	20680.5
817.7168	506.4287	21305.95	20429.55
817.861	508.5839	20885.2	20006.25
818.0051	510.7386	20604.1	19712.85
818.1493	512.8927	20470.15	19578.05
818.2935	515.0461	20399.35	19507.85
818.4377	517.199	20377.2	19483.35
818.5818	519.3512	20403.95	19512.1
818.726	521.5029	20495.1	19596.1
818.8703	523.6539	20603.15	19705.3
819.0145	525.8043	20669.7	19772.5
819.1587	527.9541	20680.85	19779.8
819.303	530.1033	20628.75	19730.9
819.4472	532.2519	20680.55	19784
819.5915	534.3999	20777.6	19878.55
819.7357	536.5472	21027.1	20133.55
819.88	538.694	21450.15	20557.75
820.0243	540.8401	22018.95	21117.8
820.1686	542.9856	22515.75	21611.1
820.3129	545.1305	22697.65	21789.3
820.4572	547.2748	22605.2	21688.9
820.6016	549.4185	22255.4	21342.35
820.7459	551.5615	21956.75	21046.55
820.8902	553.704	21835.85	20926.05
821.0346	555.8458	21781	20875.2
821.1789	557.987	21845.15	20939.6
821.3233	560.1276	21841.45	20934.9
821.4677	562.2675	21975.2	21067.35
821.6121	564.4069	22039.7	21136.15
821.7565	566.5456	22106.25	21204.05
821.9009	568.6837	22033.55	21131.75
822.0453	570.8212	21753.9	20851.2
822.1897	572.958	21420.2	20514.45
822.3342	575.0942	21044.2	20144.1
822.4786	577.2299	20832.55	19934.15
822.6231	579.3648	20799.25	19911.3
822.7675	581.4992	20852.5	19972.25
822.912	583.6329	21023.7	20147.05
823.0565	585.766	21232.55	20348.5
823.201	587.8985	21431.85	20543.2
823.3454	590.0304	21425.6	20501.05
823.4899	592.1616	21354.25	20447.8
823.6345	594.2922	21276.55	20367
823.779	596.4222	21134.4	20220.05
823.9235	598.5515	20969.45	20057.7
824.068	600.6802	20807.1	19896.5
824.2126	602.8083	20634.9	19727
824.3571	604.9358	20586.5	19675.8
824.5017	607.0626	20511.7	19598.75
824.6462	609.1888	20484.95	19564.15
824.7908	611.3144	20524.6	19607.3
824.9354	613.4393	20474.25	19555.5
825.08	615.5636	20382.15	19463.85
825.2246	617.6873	20275.05	19359.5
825.3692	619.8103	20256.95	19341.5
825.5138	621.9327	20159.7	19244.85
825.6584	624.0544	20088.3	19177.65
825.803	626.1756	20072.1	19161.2
825.9477	628.2961	20059.25	19143.75
826.0923	630.4159	19983.8	19064.15
826.237	632.5351	20006.3	19089.6
826.3816	634.6537	19945.5	19025.65
826.5263	636.7716	19951.4	19030.25
826.6709	638.8889	19970.2	19042.7
826.8156	641.0056	20040.9	19116.35
826.9603	643.1216	20010	19087.6
827.105	645.237	20064.9	19143.3
827.2497	647.3518	20001.9	19090.25
827.3944	649.4659	20033.75	19125.6
827.5391	651.5793	20085.25	19173.3
827.6838	653.6922	20048.45	19135.15
827.8285	655.8043	20042.25	19124.05
827.9733	657.9159	20051	19135.2
828.118	660.0268	19958.15	19044.6
828.2627	662.137	19965.8	19049.75
828.4075	664.2466	19944.3	19018.05
828.5522	666.3556	19943.65	19018.85
828.697	668.4639	19921.55	19003.8
828.8418	670.5716	19983.9	19070.45
828.9865	672.6786	20087.55	19163
829.1313	674.785	20094.9	19163.4
829.2761	676.8907	20161.4	19242.2
829.4209	678.9958	20244.15	19330.25
829.5657	681.1002	20211.4	19290.75
829.7105	683.204	20189.5	19257.4
829.8553	685.3072	20186.45	19258.4
830.0001	687.4097	20100.65	19175.15
830.1449	689.5115	20127.2	19204.65
830.2898	691.6127	20084.3	19166.6
830.4346	693.7132	20046.85	19128.85
830.5794	695.8131	19997.4	19064.9
830.7243	697.9123	19991.05	19064.85
830.8691	700.0109	19994.7	19064.1
831.014	702.1089	20020.4	19095.25
831.1588	704.2061	20041.1	19114.9
831.3037	706.3028	20062.4	19135.45
831.4486	708.3987	20134.45	19205.7
831.5935	710.4941	20214.55	19288.05
831.7383	712.5887	20383.7	19458.3
831.8832	714.6827	20705.25	19778.8
832.0281	716.7761	20951.4	20027.8
832.173	718.8688	21310.05	20384.75
832.3179	720.9608	21525.7	20592.8
832.4628	723.0522	21622.15	20682.3
832.6077	725.1429	21482.4	20549.75
832.7527	727.233	21216.7	20284.4
832.8976	729.3224	21049.25	20121.2
833.0425	731.4112	20832.15	19899.75
833.1874	733.4993	20628.6	19696.85
833.3324	735.5867	20444.15	19518
833.4773	737.6735	20328.9	19396.8
833.6222	739.7596	20266.6	19333.25
833.7672	741.845	20240.3	19309.55
833.9122	743.9298	20206.85	19275.35
834.0571	746.014	20233.15	19303.65
834.2021	748.0974	20249.4	19311.9
834.347	750.1802	20220.4	19285.95
834.492	752.2624	20263.95	19329.35
834.637	754.3439	20257.6	19321.9
834.782	756.4247	20330.85	19388.9
834.9269	758.5048	20464.45	19526
835.0719	760.5843	20694.25	19757.95
835.2169	762.6631	21005.35	20065.4
835.3619	764.7413	21498.9	20561.65
835.5069	766.8188	22090.8	21155.2
835.6519	768.8956	22532.5	21593.95
835.7969	770.9718	22882.7	21948.3
835.9419	773.0473	22719.95	21786.2
836.0869	775.1221	22440.15	21502.8
836.232	777.1962	22019.55	21086.8
836.377	779.2697	21885.35	20945.85
836.522	781.3426	21912.55	20959.35
836.667	783.4147	22180.8	21243.95
836.8121	785.4862	22472.8	21537.15
836.9571	787.557	22428.3	21490.95
837.1021	789.6271	22108.55	21168.2
837.2472	791.6966	21571.65	20633.9
837.3922	793.7654	21042.3	20100.8
837.5373	795.8335	20768.85	19829.85
837.6823	797.901	20546.4	19611.35
837.8274	799.9678	20491.4	19547.25
837.9724	802.0339	20486	19545.75
838.1175	804.0993	20540.2	19592.55
838.2626	806.1641	20528.65	19586.8
838.4076	808.2282	20496.7	19559.8
838.5527	810.2916	20384.9	19444.4
838.6978	812.3544	20298.4	19362.55
838.8428	814.4164	20219.9	19282.8
838.9879	816.4778	20285.2	19342.15
839.133	818.5385	20248.4	19305.55
839.2781	820.5986	20323.55	19381.5
839.4232	822.658	20495.9	19550.8
839.5682	824.7166	20623.65	19684.35
839.7133	826.7747	20925.05	19983.2
839.8584	828.832	21126.15	20187.75
840.0035	830.8886	21246.55	20302.1
840.1486	832.9446	21424.75	20483.2
840.2937	834.9999	21434	20494.3
840.4388	837.0545	21422.95	20477.55
840.5839	839.1085	21399.7	20455.35
840.729	841.1618	21373.7	20424.75
840.8741	843.2143	21285.4	20348.7
841.0192	845.2662	21221.3	20278.35
841.1643	847.3175	21176.45	20235
841.3095	849.368	21075.05	20130.95
841.4546	851.4179	20954.15	20010.05
841.5997	853.467	20810	19865.55
841.7448	855.5155	20737.5	19791.9
841.8899	857.5633	20619.4	19676.65
842.0351	859.6105	20536.2	19592.85
842.1802	861.6569	20430.65	19483.35
842.3253	863.7027	20399.35	19449.95
842.4704	865.7478	20394	19448.8
842.6156	867.7922	20441.3	19494.5
842.7607	869.8359	20509.5	19563.5
842.9058	871.8789	20572.35	19629.75
843.0509	873.9212	20782.45	19801
843.1961	875.9629	20904.1	19956.2
843.3412	878.0039	21113.6	20169.6
843.4863	880.0441	21200.2	20255.45
843.6315	882.0837	21229.35	20285.55
843.7766	884.1226	21150.3	20202.6
843.9218	886.1609	21088.2	20146.55
844.0669	888.1984	21045.75	20100.35
844.212	890.2352	21092.9	20148.55
844.3572	892.2714	21032.35	20079.9
844.5023	894.3069	21045.85	20095.5
844.6475	896.3416	20960.5	20014.8
844.7926	898.3757	20919.55	19974.9
844.9377	900.4091	20927.75	19974.6
845.0829	902.4418	20963.7	20008.9
845.228	904.4739	20942.7	19993.8
845.3732	906.5052	20952.65	20001.75
845.5183	908.5358	20834.75	19884.95
845.6635	910.5658	20736.2	19785.5
845.8086	912.595	20573.25	19623.7
845.9538	914.6236	20432.6	19479.05
846.0989	916.6515	20360.4	19412.05
846.2441	918.6786	20332.65	19381.9
846.3892	920.7051	20408.85	19460.3
846.5344	922.7309	20583	19634.55
846.6795	924.756	20625.05	19677.75
846.8246	926.7804	20715.35	19769.05
846.9698	928.8041	20592.1	19643.55
847.1149	930.8272	20673.5	19723.5
847.2601	932.8495	20576.7	19625.95
847.4052	934.8711	20543.75	19594.65
847.5504	936.892	20443.1	19491.25
847.6955	938.9123	20313.75	19363.35
847.8407	940.9318	20186.6	19236.9
847.9858	942.9506	20112.15	19164
848.131	944.9688	20019.9	19072.8
848.2761	946.9862	19973.8	19024.4
848.4213	949.003	19874.55	18927.35
848.5664	951.019	19838.85	18892.15
848.7115	953.0344	19893.15	18943.7
848.8567	955.0491	19895.35	18943.3
849.0018	957.063	20006.1	19059.7
849.147	959.0763	20158.8	19209.1
849.2921	961.0888	20167.75	19218.9
849.4373	963.1007	20229.55	19280.9
849.5824	965.1119	20298.1	19357.7
849.7275	967.1223	20332.65	19398.35
849.8727	969.1321	20329.85	19395.7
850.0178	971.1412	20411.3	19472.15
850.1629	973.1495	20372.35	19427.3
850.3081	975.1572	20520.4	19519.45
850.4532	977.1641	20476.85	19528.2
850.5983	979.1704	20445	19494.5
850.7435	981.1759	20459.8	19509.6
850.8886	983.1808	20552.15	19602.1
851.0337	985.1849	20597.75	19639.6
851.1788	987.1884	20692.45	19744.35
851.324	989.1911	20902.1	19954.4
851.4691	991.1932	21023.5	20075.85
851.6142	993.1945	21056.3	20106
851.7593	995.1951	21005.8	20056.15
851.9045	997.1951	20969.85	20016.25
852.0496	999.1943	20853.85	19906.8
852.1947	1001.1928	20808.45	19855.35
852.3398	1003.1906	20803.65	19851.75
852.4849	1005.1877	20869	19920.55
852.63	1007.1841	20875.2	19926.3
852.7751	1009.1798	20800.85	19854.5
852.9202	1011.1748	20627.1	19676.55
853.0653	1013.1691	20403.45	19454.15
853.2104	1015.1627	20197.8	19248.8
853.3555	1017.1556	19958	19012.15
853.5006	1019.1477	19857.75	18914.5
853.6457	1021.1392	19765.55	18827.1
853.7908	1023.1299	19743.65	18805.6
853.9359	1025.12	19746.55	18814.2
854.081	1027.1093	19748.1	18830.3
854.2261	1029.0979	19859.45	18941.05
854.3712	1031.0859	19888.55	18962.35
854.5163	1033.0731	19897.45	18959.85
854.6613	1035.0596	19814.1	18875.7
854.8064	1037.0454	19658.65	18716.7
854.9515	1039.0304	19582.6	18639.1
855.0965	1041.0148	19439.3	18492.5
855.2416	1042.9985	19350.35	18402.05
855.3867	1044.9814	19344.55	18398.25
855.5317	1046.9636	19255.85	18307.85
855.6768	1048.9452	19226.6	18286.75
855.8219	1050.926	19285.85	18340.75
855.9669	1052.9061	19250.65	18305.45
856.112	1054.8855	19230.3	18284.85
856.257	1056.8642	19307.3	18361
856.4021	1058.8421	19336.5	18384.5
856.5471	1060.8194	19360.2	18412.2
856.6921	1062.7959	19379.55	18433.45
856.8372	1064.7717	19431.15	18483.5
856.9822	1066.7469	19464.4	18515
857.1272	1068.7213	19486.8	18536.8
857.2723	1070.695	19466.45	18521.25
857.4173	1072.6679	19400.65	18453.55
857.5623	1074.6402	19363.75	18417.75
857.7073	1076.6117	19355.85	18404.15
857.8523	1078.5826	19369.1	18418.15
857.9973	1080.5527	19333.5	18383.2
858.1423	1082.5221	19426.85	18484.9
858.2873	1084.4908	19537.2	18592.4
858.4323	1086.4587	19729.1	18782.05
858.5773	1088.426	19846.8	18898.15
858.7223	1090.3925	19847.25	18895.3
858.8673	1092.3584	19792.65	18847.55
859.0123	1094.3235	19683.3	18739.25
859.1573	1096.2879	19617.4	18670.55
859.3022	1098.2515	19623.25	18679.15
859.4472	1100.2145	19726.85	18777.35
859.5922	1102.1767	19797.65	18847.85
859.7371	1104.1382	19962.9	19016.4
859.8821	1106.099	20185.2	19241.05
860.027	1108.0591	20358.65	19413
860.172	1110.0185	20540.5	19591.65
860.3169	1111.9771	20580.9	19633.9
860.4619	1113.9351	20351.15	19402.4
860.6068	1115.8923	20070.5	19124.4
860.7517	1117.8488	19775.9	18827.8
860.8967	1119.8045	19497.75	18554.35
861.0416	1121.7596	19395.5	18449.95
861.1865	1123.7139	19260.2	18320.65
861.3314	1125.6675	19276.1	18333.5
861.4763	1127.6204	19381.95	18441.2
861.6212	1129.5726	19339.2	18391.55
861.7661	1131.524	19339.25	18393.5
861.911	1133.4748	19310.3	18365.35
862.0559	1135.4248	19268.85	18322.9
862.2008	1137.3741	19229.95	18285.25
862.3457	1139.3226	19136.3	18189.9
862.4905	1141.2705	19181.95	18234.8
862.6354	1143.2176	19024	18072.35
862.7803	1145.164	19058.9	18111.4
862.9251	1147.1097	19056.2	18110.15
863.07	1149.0546	19013.8	18064.05
863.2148	1150.9989	18941.75	17995.15
863.3597	1152.9424	18824.65	17879.4
863.5045	1154.8852	18643	17696.35
863.6493	1156.8272	18547.65	17602
863.7942	1158.7686	18552.6	17598.9
863.939	1160.7092	18532.75	17583.05
864.0838	1162.6491	18460.45	17513.8
864.2286	1164.5883	18565.45	17622.8
864.3734	1166.5267	18632.9	17687.75
864.5182	1168.4644	18778.55	17829.95
864.663	1170.4014	18941.3	17996.65
864.8078	1172.3377	19208.15	18266.15
864.9526	1174.2732	19448.2	18507.7
865.0974	1176.2081	19731.3	18786.1
865.2421	1178.1421	19952.55	19006
865.3869	1180.0755	20236.65	19296.35
865.5317	1182.0082	20338.8	19395.75
865.6764	1183.9401	20333.95	19394.8
865.8212	1185.8713	20202.85	19262.25
865.9659	1187.8017	20004.15	19073.65
866.1106	1189.7315	19763.2	18843.5
866.2554	1191.6605	19388.6	18467.05
866.4001	1193.5888	19166.6	18239.6
866.5448	1195.5163	19072	18134.9
866.6895	1197.4432	18981.25	18038.7
866.8342	1199.3693	18913.75	17977.3
866.9789	1201.2947	18879.1	17936.5
867.1236	1203.2193	18804.85	17859.9
867.2683	1205.1432	18851.75	17908.2
867.413	1207.0664	18848.25	17906.9
867.5576	1208.9889	18878.75	17934.15
867.7023	1210.9106	18853.85	17911.05
867.847	1212.8316	18895.35	17955.65
867.9916	1214.7519	18966.15	18012.45
868.1363	1216.6715	18978.6	18037.7
868.2809	1218.5903	18965.6	18024.45
868.4255	1220.5084	18961.35	18020.75
868.5701	1222.4257	18973.75	18033.95
868.7148	1224.3424	18889.05	17951.45
868.8594	1226.2583	18939.45	17996.9
869.004	1228.1735	19023.4	18084.15
869.1486	1230.0879	19098.05	18157.35
869.2932	1232.0016	19232.35	18292.05
869.4377	1233.9146	19251.65	18309.45
869.5823	1235.8269	19128.5	18191.75
869.7269	1237.7384	19042.7	18101.4
869.8715	1239.6492	18833.45	17897.15
870.016	1241.5592	18763.65	17821.55
870.1606	1243.4686	18632.85	17691.2
870.3051	1245.3772	18663.6	17724.95
870.4496	1247.285	18661.25	17718.45
870.5941	1249.1922	18638.15	17699.15
870.7387	1251.0986	18624.55	17684.15
870.8832	1253.0042	18632.85	17693.05
871.0277	1254.9092	18692.6	17754
871.1722	1256.8134	18774.5	17837.75
871.3167	1258.7169	18904.75	17963.45
871.4611	1260.6196	19037.5	18101.4
871.6056	1262.5216	19252.1	18313.15
871.7501	1264.4229	19362.1	18423
871.8945	1266.3234	19521.15	18584.4
872.039	1268.2232	19568.05	18627.45
872.1834	1270.1223	19605.75	18666.55
872.3278	1272.0207	19612.05	18671.4
872.4723	1273.9183	19563.5	18619.55
872.6167	1275.8151	19475.25	18537.25
872.7611	1277.7113	19445.7	18505.25
872.9055	1279.6067	19255.45	18319.1
873.0499	1281.5014	19220.4	18276.5
873.1943	1283.3953	19233.8	18294
873.3386	1285.2885	19324.8	18390
873.483	1287.181	19406.8	18468.75
873.6274	1289.0727	19539.35	18603.95
873.7717	1290.9637	19576.65	18640.9
873.9161	1292.854	19755.65	18817.05
874.0604	1294.7435	19829.65	18890.7
874.2047	1296.6323	20028.95	19091.4
874.349	1298.5204	20154.6	19212.55
874.4933	1300.4077	20329	19389.35
874.6376	1302.2943	20423.25	19488.3
874.7819	1304.1802	20439.75	19504.7
874.9262	1306.0653	20268.6	19329.45
875.0705	1307.9497	20040.65	19101.9
875.2147	1309.8333	19864.45	18928.45
875.359	1311.7162	19744.35	18806.85
875.5032	1313.5984	19718.9	18780.5
875.6475	1315.4798	19697.45	18759.85
875.7917	1317.3605	19771.55	18831.95
875.9359	1319.2405	19812.9	18872.15
876.0801	1321.1197	19731	18789.85
876.2243	1322.9982	19543.1	18598.6
876.3685	1324.876	19530.55	18590.85
876.5127	1326.753	19348.95	18413.5
876.6569	1328.6293	19338.55	18398.45
876.801	1330.5048	19330.05	18390.55
876.9452	1332.3796	19216.25	18278.2
877.0893	1334.2537	19249.15	18288.1
877.2335	1336.127	19152.6	18215.3
877.3776	1337.9996	19102.45	18169.4
877.5217	1339.8714	19103	18164.85
877.6658	1341.7426	19047.7	18068.4
877.8099	1343.6129	19009.8	18068.3
877.954	1345.4826	18948.95	18009.9
878.0981	1347.3515	18934.1	17994.6
878.2422	1349.2196	18868.8	17925.4
878.3862	1351.087	18905.15	17965.8
878.5303	1352.9537	18941.5	18001.65
878.6743	1354.8197	19074.7	18135.45
878.8184	1356.6849	19214.15	18276.05
878.9624	1358.5493	19297.55	18360.15
879.1064	1360.4131	19350.65	18413.55
879.2504	1362.276	19329.75	18394.35
879.3944	1364.1383	19168.8	18230.6
879.5384	1365.9998	18928.35	17983.9
879.6823	1367.8606	18612.85	17674.5
879.8263	1369.7206	18250.55	17309.1
879.9702	1371.5799	18044.75	17104.6
880.1142	1373.4384	17806.2	16868.8
880.2581	1375.2962	17672.75	16733.35
880.402	1377.1533	17381.1	16445.6
880.5459	1379.0096	17032.1	16099.3
880.6898	1380.8652	16716.4	15788.7
880.8337	1382.7201	16474.95	15542.1
880.9776	1384.5742	16210.65	15277.5
881.1215	1386.4275	16016.75	15081.55
881.2653	1388.2802	15879.25	14944.85
881.4092	1390.132	15766.6	14826.15
881.553	1391.9832	15668.85	14727.8
881.6968	1393.8336	15540.3	14602.2
881.8406	1395.6832	15509.65	14570
881.9844	1397.5322	15439.5	14505
882.1282	1399.3803	15415.1	14472.05
882.272	1401.2278	15330.3	14394.2
882.4158	1403.0745	15359	14426.6
882.5595	1404.9204	15286.75	14353.35
882.7033	1406.7656	15295.15	14358.4
882.847	1408.6101	15274.85	14341.8
882.9908	1410.4538	15323.55	14388.05
883.1345	1412.2968	15366.2	14430.4
883.2782	1414.139	15332	14397.4
883.4219	1415.9805	15393	14458.1
883.5656	1417.8213	15466.55	14522.25
883.7092	1419.6613	15581.1	14648.25
883.8529	1421.5006	15664.25	14728.4
883.9965	1423.3391	15900.1	14966.9
884.1402	1425.1769	16221.8	15283
884.2838	1427.0139	16678.05	15742.25
884.4274	1428.8502	17241.65	16304.15
884.571	1430.6858	17755.9	16822.15
884.7146	1432.5206	18172.4	17241.3
884.8582	1434.3547	18408.85	17472.8
885.0018	1436.188	18403.85	17469.05
885.1453	1438.0206	18355.35	17421.05
885.2889	1439.8524	18183.55	17251.1
885.4324	1441.6835	18035.45	17101.5
885.5759	1443.5139	17941.05	17005.1
885.7194	1445.3435	17827.3	16893.7
885.8629	1447.1724	17793.15	16860.25
886.0064	1449.0005	17737.6	16807.2
886.1499	1450.8279	17584.3	16653.65
886.2933	1452.6545	17571.4	16638.2
886.4368	1454.4804	17596.2	16663.55
886.5802	1456.3056	17576.2	16636
886.7237	1458.13	17487.75	16560.1
886.8671	1459.9536	17275.1	16342.55
887.0105	1461.7766	16932.75	16000.65
887.1539	1463.5987	16516.6	15581.2
887.2972	1465.4202	16149.7	15219.15
887.4406	1467.2409	15764.9	14832.5
887.584	1469.0608	15482.8	14549.6
887.7273	1470.88	15242	14310.55
887.8706	1472.6984	15012.4	14080.95
888.0139	1474.5161	14759.25	13826.1
888.1572	1476.3331	14575.65	13645.4
888.3005	1478.1493	14479.45	13548.85
888.4438	1479.9648	14372.15	13437.55
888.5871	1481.7795	14243.9	13309.2
888.7303	1483.5935	14177.35	13248.3
888.8736	1485.4067	14086.65	13153.45
889.0168	1487.2192	14047.45	13116.2
889.16	1489.031	14027.9	13095.9
889.3032	1490.842	13938.6	13004.2
889.4464	1492.6522	13904.1	12971.05
889.5896	1494.4618	13840.05	12909.5
889.7327	1496.2705	13803.35	12872
889.8759	1498.0785	13757.05	12825.1
890.019	1499.8858	13717.05	12786.85
890.1622	1501.6924	13664.35	12737.25
890.3053	1503.4981	13683.5	12751.05
890.4484	1505.3032	13594.35	12663.3
890.5914	1507.1075	13530.15	12599
890.7345	1508.911	13528.6	12596.85
890.8776	1510.7138	13467.25	12536.75
891.0206	1512.5159	13408.55	12475.35
891.1637	1514.3172	13350.55	12420.4
891.3067	1516.1178	13277.55	12351.05
891.4497	1517.9176	13280.95	12347.5
891.5927	1519.7166	13213.25	12285.8
891.7357	1521.515	13176.25	12239.65
891.8786	1523.3126	13111.5	12180.7
892.0216	1525.1094	13077.65	12149.3
892.1645	1526.9055	13028.35	12102.5
892.3074	1528.7008	12965.1	12036.85
892.4503	1530.4954	12888.5	11960.9
892.5932	1532.2893	12879.4	11955.3
892.7361	1534.0824	12830.6	11903.65
892.879	1535.8747	12836.95	11913.75
893.0218	1537.6663	12807.9	11883.5
893.1647	1539.4572	12763.9	11839
893.3075	1541.2473	12748.15	11823.2
893.4503	1543.0367	12717.3	11791.6
893.5931	1544.8253	12684.7	11754.45
893.7359	1546.6132	12697.15	11768.15
893.8787	1548.4003	12676.55	11744.75
894.0214	1550.1867	12700.5	11765.45
894.1642	1551.9723	12692.3	11767.2
894.3069	1553.7572	12718.05	11794.55
894.4496	1555.5414	12721.5	11800.85
894.5923	1557.3247	12777.8	11856.8
894.735	1559.1074	12881.1	11964.05
894.8777	1560.8893	12930.3	12010.6
895.0204	1562.6705	12970.1	12049.3
895.163	1564.4509	13052.15	12135.35
895.3056	1566.2305	13086.1	12172.3
895.4482	1568.0094	13166.5	12252.85
895.5908	1569.7876	13199.5	12283.15
895.7334	1571.565	13150.05	12229.25
895.876	1573.3417	13198.6	12283.05
896.0186	1575.1176	13130.9	12215.6
896.1611	1576.8928	13086.75	12172.6
896.3036	1578.6672	12995	12087.6
896.4461	1580.4409	12881.35	11970.6
896.5886	1582.2138	12767.45	11855.15
896.7311	1583.986	12696.55	11781.45
896.8736	1585.7575	12630.65	11716.1
897.0161	1587.5282	12577.05	11667.75
897.1585	1589.2981	12562.55	11652.6
897.3009	1591.0673	12479.05	11571.25
897.4433	1592.8358	12518.4	11607.45
897.5857	1594.6035	12539.55	11626.35
897.7281	1596.3704	12516.15	11599.55
897.8705	1598.1366	12567.4	11654.5
898.0128	1599.9021	12592.7	11681.35
898.1551	1601.6668	12638.15	11727
898.2975	1603.4308	12692.15	11777.75
898.4398	1605.194	12787.05	11872.6
898.5821	1606.9564	12928.3	12025.4
898.7243	1608.7182	13047.1	12144.55
898.8666	1610.4791	13189.9	12292.5
899.0088	1612.2394	13337.7	12441.2
899.1511	1613.9988	13537.7	12637.9
899.2933	1615.7576	13750.05	12847.95
899.4355	1617.5156	13941.4	13024
899.5776	1619.2728	14135.5	13222.45
899.7198	1621.0293	14207.5	13297.35
899.862	1622.785	14195.6	13285.2
900.0041	1624.54	14021.9	13117.6
900.1462	1626.2942	13902	12997.25
900.2883	1628.0477	13600.45	12695.35
900.4304	1629.8005	13371.8	12463.1
900.5725	1631.5525	13145.6	12242.45
900.7145	1633.3037	12934.15	12030.65
900.8566	1635.0542	12794.7	11890.25
900.9986	1636.804	12642.8	11739.25
901.1406	1638.553	12637.65	11659.35
901.2826	1640.3013	12530.6	11624.1
901.4245	1642.0488	12519.2	11613.1
901.5665	1643.7955	12521.65	11619.25
901.7085	1645.5416	12581.85	11678
901.8504	1647.2868	12637.25	11733.45
901.9923	1649.0313	12741.1	11833.3
902.1342	1650.7751	12855.55	11949.95
902.2761	1652.5181	12988.8	12087.45
902.4179	1654.2604	13154.55	12253.7
902.5598	1656.0019	13422.1	12520.95
902.7016	1657.7427	13711.1	12808.6
902.8434	1659.4828	13993.05	13087.1
902.9852	1661.222	14148.35	13240.45
903.127	1662.9606	14107.7	13201.25
903.2687	1664.6984	13903.1	12995.1
903.4105	1666.4354	13507.25	12599.6
903.5522	1668.1717	12993	12083.65
903.6939	1669.9072	12486.7	11577.45
903.8356	1671.642	12033.1	11122.55
903.9773	1673.3761	11673.5	10767.55
904.119	1675.1094	11349.1	10441.4
904.2606	1676.8419	11128.25	10223.2
904.4022	1678.5737	10929.45	10022.75
904.5439	1680.3048	10754.65	9848.2
904.6855	1682.0351	10648.55	9745.3
904.827	1683.7646	10545.15	9637.65
904.9686	1685.4934	10467.15	9565.9
905.1101	1687.2215	10355.3	9452.4
905.2517	1688.9488	10314.3	9410.8
905.3932	1690.6754	10224.4	9320.35
905.5347	1692.4012	10170.4	9266.25
905.6761	1694.1263	10121.65	9216.5
905.8176	1695.8506	10073.45	9170.8
905.9591	1697.5742	10051.85	9150.7
906.1005	1699.297	9954.55	9056.25
906.2419	1701.0191	9896.65	8997.95
906.3833	1702.7404	9876.6	8977.15
906.5246	1704.461	9802.2	8901
906.666	1706.1808	9763.6	8862.2
906.8073	1707.8999	9724.45	8823.45
906.9487	1709.6182	9692.25	8794.35
907.09	1711.3358	9638.2	8743.65
907.2313	1713.0527	9610.6	8718.65
907.3725	1714.7688	9578.6	8679.75
907.5138	1716.4841	9543.95	8642.5
907.655	1718.1987	9513.15	8607.75
907.7962	1719.9126	9472.4	8573.45
907.9374	1721.6257	9421.25	8525.05
908.0786	1723.338	9400.2	8505.5
908.2198	1725.0496	9374.8	8479.6
908.3609	1726.7605	9339.15	8439.4
908.502	1728.4706	9325.7	8428.2
908.6431	1730.18	9259.05	8361.4
908.7842	1731.8886	9235.4	8341.85
908.9253	1733.5964	9206.4	8290.65
909.0664	1735.3036	9188.55	8290.45
909.2074	1737.0099	9165.25	8269.3
909.3484	1738.7156	9146.65	8251.25
909.4894	1740.4204	9078.75	8180.75
909.6304	1742.1246	9072.65	8173.7
909.7714	1743.8279	9041.25	8146.3
909.9123	1745.5306	9035.25	8140.3
910.0532	1747.2325	8985.85	8090.35
910.1941	1748.9336	8940.9	8044.75
910.335	1750.634	8905.65	8006.55
910.4759	1752.3336	8906.9	8012.95
910.6168	1754.0325	8852.7	7960.05
910.7576	1755.7307	8846.4	7952.05
910.8984	1757.4281	8853.2	7955.5
911.0392	1759.1247	8841.7	7934.8
911.18	1760.8206	8801.75	7897.85
911.3208	1762.5158	8773.8	7872.25
911.4615	1764.2102	8755.7	7860.35
911.6022	1765.9039	8715.6	7823.2
911.7429	1767.5968	8690.9	7798.1
911.8836	1769.289	8692.3	7798.2
912.0243	1770.9804	8644.15	7746.75
912.1649	1772.6711	8642.1	7744.1
912.3056	1774.361	8597.55	7698.7
912.4462	1776.0502	8591.7	7693.6
912.5868	1777.7386	8586.45	7685.85
912.7274	1779.4263	8562.6	7665.8
912.8679	1781.1132	8532.9	7640.4
913.0084	1782.7994	8500.75	7608.85
913.149	1784.4849	8472.55	7580.15
913.2895	1786.1696	8463.95	7563.6
913.4299	1787.8535	8447.45	7557.25
913.5704	1789.5367	8418.15	7530
913.7108	1791.2192	8403.75	7511.55
913.8513	1792.9009	8379.45	7458.3
913.9917	1794.5818	8372.45	7474.1
914.132	1796.2621	8326.6	7431.65
914.2724	1797.9415	8304.95	7411.2
914.4128	1799.6202	8298.7	7404.1
914.5531	1801.2982	8291.05	7395.5
914.6934	1802.9755	8235	7337.7
914.8337	1804.6519	8262.35	7365.4
914.9739	1806.3277	8202.2	7307.15
915.1142	1808.0027	8162.6	7274.3
915.2544	1809.6769	8171.85	7283.6
915.3946	1811.3504	8153.75	7261.45
915.5348	1813.0231	8137.3	7246.8
915.675	1814.6951	8118.05	7226.95
915.8151	1816.3664	8119.45	7223.6
915.9553	1818.0369	8084.5	7189.15
916.0954	1819.7067	8051.75	7158
916.2355	1821.3757	8047.1	7148.3
916.3755	1823.044	8048.05	7153.95
916.5156	1824.7115	8030.4	7133.6
916.6556	1826.3783	7992.15	7098.95
916.7956	1828.0443	7955.75	7061.1
916.9356	1829.7096	7949.95	7053.9
917.0756	1831.3741	7941.6	7044.75
917.2155	1833.0379	7929.55	7037.1
917.3555	1834.701	7893.7	7000.45
917.4954	1836.3633	7861.5	6970.85
917.6353	1838.0248	7875.35	6985.2
917.7751	1839.6856	7820.6	6928.65
917.915	1841.3457	7857.95	6965.4
918.0548	1843.005	7805.8	6914
918.1946	1844.6636	7801.25	6907.6
918.3344	1846.3214	7779.7	6887
918.4742	1847.9785	7781.15	6888.2
918.6139	1849.6349	7739.2	6843.55
918.7537	1851.2904	7742.35	6837.45
918.8934	1852.9453	7703.2	6808.25
919.0331	1854.5994	7691.55	6792.7
919.1727	1856.2528	7697.45	6796.4
919.3124	1857.9054	7666.65	6770.75
919.452	1859.5572	7666.95	6774.95
919.5916	1861.2083	7644.6	6749.5
919.7312	1862.8587	7634.6	6739.4
919.8708	1864.5084	7598.95	6701.3
920.0103	1866.1572	7604.05	6708.6
920.1498	1867.8054	7570.3	6672.55
920.2893	1869.4528	7547.15	6649.85
920.4288	1871.0994	7542.2	6646.3
920.5683	1872.7453	7539.75	6641.25
920.7077	1874.3905	7500.75	6590.4
920.8471	1876.0349	7469.35	6575.6
920.9865	1877.6786	7472.55	6576.6
921.1259	1879.3215	7464.15	6568.7
921.2653	1880.9637	7446.1	6550.05
921.4046	1882.6051	7423.95	6532.8
921.5439	1884.2458	7395.5	6498.95
921.6832	1885.8858	7371.25	6478.5
921.8225	1887.525	7353.3	6459.45
921.9617	1889.1634	7320.95	6425.35
922.101	1890.8011	7315	6418.25
922.2402	1892.4381	7306.2	6411.2
922.3794	1894.0743	7273.25	6377.7
922.5185	1895.7098	7267.15	6373.55
922.6577	1897.3446	7247.8	6351.65
922.7968	1898.9786	7246.5	6348.7
922.9359	1900.6118	7226.15	6332.25
923.075	1902.2443	7175.25	6282
923.214	1903.8761	7172.5	6278.85
923.3531	1905.5071	7136.05	6243.2
923.4921	1907.1374	7121	6227.65
923.6311	1908.7669	7120.35	6228.9
923.77	1910.3957	7090	6198.65
923.909	1912.0237	7074.55	6181.4
924.0479	1913.651	7067.95	6174.2
924.1868	1915.2776	7039.55	6149.35
924.3257	1916.9034	7008.9	6118.6
924.4646	1918.5285	6979.9	6088.6
924.6034	1920.1528	6945.1	6052.05
924.7422	1921.7764	6930.55	6037.6
924.881	1923.3992	6913.35	6020.85
925.0198	1925.0213	6858.3	5965.25
925.1586	1926.6427	6857.05	5966.45
925.2973	1928.2633	6913.95	5929.8
925.436	1929.8832	6843.05	5948.25
925.5747	1931.5023	6777.3	5882.75
925.7134	1933.1207	6778.25	5882.25
925.852	1934.7383	6765.1	5870.7
925.9906	1936.3552	6721.55	5831.9
926.1292	1937.9714	6732.6	5840.45
926.2678	1939.5868	6703	5808.15
926.4064	1941.2015	6652.8	5757.05
926.5449	1942.8154	6658.5	5762
926.6834	1944.4286	6613.9	5717.05
926.8219	1946.041	6593.7	5676.55
926.9604	1947.6528	6583.2	5685
927.0988	1949.2637	6566.15	5674.3
927.2372	1950.8739	6546.05	5651.55
927.3756	1952.4834	6536.7	5644.85
927.514	1954.0921	6502.2	5609.6
927.6523	1955.7001	6493.65	5599.45
927.7907	1957.3074	6485.7	5598.5
927.929	1958.9139	6432.75	5546.2
928.0673	1960.5197	6438.7	5550.35
928.2055	1962.1247	6403.3	5514.15
928.3438	1963.729	6357.05	5470.05
928.482	1965.3325	6339.75	5444.6
928.6202	1966.9353	6306.35	5422.9
928.7584	1968.5374	6300.9	5409
928.8965	1970.1387	6293.4	5405.55
929.0346	1971.7393	6269.65	5379.5
929.1727	1973.3392	6260	5371.25
929.3108	1974.9383	6231.55	5343.9
929.4489	1976.5366	6184.4	5294.7
929.5869	1978.1342	6182.85	5295.6
929.7249	1979.7311	6171.05	5283.45
929.8629	1981.3273	6168.05	5280.55
930.0009	1982.9227	6136.1	5247.55
930.1388	1984.5173	6114.6	5228.25
930.2767	1986.1112	6094.3	5211.2
930.4146	1987.7044	6095.2	5211
930.5525	1989.2968	6072.75	5187.3
930.6904	1990.8885	6063.35	5174.15
930.8282	1992.4795	6040.15	5154.4
930.966	1994.0697	6022.8	5138.05
931.1038	1995.6592	6004.1	5119.2
931.2415	1997.2479	5993.3	5108.35
931.3793	1998.8359	5969.95	5084.25
931.517	2000.4232	5952.15	5070.75
931.6547	2002.0097	5940.8	5060.5
931.7923	2003.5955	5911.7	5028.35
931.93	2005.1805	5898.25	5013.85
932.0676	2006.7648	5876.6	4993.85
932.2052	2008.3484	5866.2	4981.6
932.3427	2009.9312	5867.6	4988.35
932.4803	2011.5133	5856.35	4978.35
932.6178	2013.0946	5831.65	4951.55
932.7553	2014.6752	5810	4929.65
932.8928	2016.2551	5792.75	4910.2
933.0302	2017.8342	5769.8	4886.25
933.1676	2019.4126	5735.5	4856.05
933.305	2020.9902	5720.55	4840.05
933.4424	2022.5672	5730.45	4848.1
933.5798	2024.1433	5715.5	4830.15
933.7171	2025.7188	5700.95	4822.85
933.8544	2027.2935	5668.95	4786.8
933.9917	2028.8674	5638.15	4758.1
934.129	2030.4406	5648.4	4771.35
934.2662	2032.0131	5633.2	4755.75
934.4034	2033.5849	5608.95	4720.55
934.5406	2035.1559	5584	4706.4
934.6778	2036.7261	5603.95	4722.25
934.8149	2038.2957	5565.25	4682.8
934.952	2039.8645	5566	4680.6
935.0891	2041.4325	5577.85	4689.65
935.2262	2042.9998	5554.3	4670.9
935.3632	2044.5664	5538.3	4653.55
935.5002	2046.1323	5495.5	4615.1
935.6372	2047.6974	5497.05	4617.85
935.7742	2049.2617	5479.55	4601.15
935.9111	2050.8254	5497.6	4597.35
936.048	2052.3883	5488.8	4605.65
936.1849	2053.9504	5462.2	4578.15
936.3218	2055.5118	5444.25	4557.95
936.4586	2057.0725	5433.65	4547.95
936.5955	2058.6325	5418.7	4537.15
936.7323	2060.1917	5393.6	4513
936.869	2061.7502	5392.85	4507.8
937.0058	2063.3079	5347.8	4471.4
937.1425	2064.8649	5343.7	4459.7
937.2792	2066.4212	5323.7	4440.65
937.4159	2067.9767	5333.65	4450.55
937.5525	2069.5315	5289.65	4408.1
937.6891	2071.0856	5284.3	4402.85
937.8257	2072.6389	5265.75	4383.8
937.9623	2074.1915	5234.85	4356.3
938.0989	2075.7433	5221.45	4338.5
938.2354	2077.2945	5203.55	4321.35
938.3719	2078.8448	5195.9	4311.05
938.5084	2080.3945	5185.7	4300.75
938.6448	2081.9434	5180	4296.2
938.7812	2083.4916	5163.25	4278.2
938.9176	2085.039	5146.7	4258.8
939.054	2086.5857	5145.7	4253.55
939.1903	2088.1317	5127	4235
939.3267	2089.677	5098.75	4207.45
939.463	2091.2215	5090.85	4199.65
939.5992	2092.7652	5100.1	4206.75
939.7355	2094.3083	5093.7	4202.1
939.8717	2095.8506	5067.7	4179.85
940.0079	2097.3921	5061.55	4175.15
940.1441	2098.933	5044.95	4156
940.2802	2100.4731	5029.6	4144.25
940.4163	2102.0124	5040.85	4146.6
940.5524	2103.5511	5028.85	4140.75
940.6885	2105.089	5009.4	4122.25
940.8245	2106.6261	4976.55	4086.8
940.9606	2108.1626	4990.9	4103
941.0965	2109.6983	5007.2	4093.85
941.2325	2111.2332	4958.95	4072.45
941.3684	2112.7675	4948.05	4059.8
941.5044	2114.301	4925.2	4037.25
941.6403	2115.8337	4935.7	4047.85
941.7761	2117.3657	4917.7	4028.5
941.912	2118.897	4898.75	4009.35
942.0478	2120.4276	4887.45	3993.75
942.1835	2121.9575	4868.1	3980.2
942.3193	2123.4866	4871.8	3969.9
942.455	2125.0149	4876.4	3987.6
942.5907	2126.5426	4842.05	3956.45
942.7264	2128.0695	4817.65	3932.3
942.8621	2129.5956	4792.65	3912.85
942.9977	2131.1211	4813.65	3924.6
943.1333	2132.6458	4812.75	3927.65
943.2689	2134.1698	4786.1	3897.15
943.4044	2135.693	4779.9	3887.65
943.54	2137.2155	4774.55	3883.15
943.6755	2138.7373	4754.25	3864.9
943.8109	2140.2584	4740.85	3856.65
943.9464	2141.7787	4711	3824
944.0818	2143.2983	4702.95	3823.2
944.2172	2144.8171	4687.9	3808.9
944.3526	2146.3353	4663.4	3779.05
944.4879	2147.8527	4655.15	3772.4
944.6232	2149.3693	4665.3	3777.85
944.7585	2150.8853	4647.35	3759.3
944.8938	2152.4005	4619.45	3728.35
945.029	2153.9149	4620.5	3732.25
945.1642	2155.4287	4622.4	3734.1
945.2994	2156.9417	4598.5	3709.05
945.4346	2158.454	4598.15	3710.45
945.5697	2159.9655	4562.35	3677.75
945.7048	2161.4764	4557.3	3672.25
945.8399	2162.9865	4571.8	3687.6
945.9749	2164.4958	4536.25	3651.55
946.1099	2166.0045	4523.5	3635.5
946.2449	2167.5124	4523.1	3636.6
946.3799	2169.0195	4506.35	3618.75
946.5148	2170.526	4524.45	3635.75
946.6498	2172.0317	4499.25	3612.6
946.7846	2173.5367	4484.45	3597.9
946.9195	2175.0409	4481.1	3596.3
947.0543	2176.5445	4488.7	3600.6
947.1891	2178.0473	4459.8	3569.45
947.3239	2179.5494	4459.5	3568.15
947.4587	2181.0507	4434.75	3545.7
947.5934	2182.5513	4411.7	3523.1
947.7281	2184.0512	4404.95	3518.2
947.8628	2185.5504	4405.25	3518.2
947.9974	2187.0488	4390.55	3505.7
948.132	2188.5465	4380.95	3497.95
948.2666	2190.0435	4364.45	3478.1
948.4012	2191.5397	4349.3	3462
948.5357	2193.0353	4347.05	3457.75
948.6702	2194.5301	4321.85	3430
948.8047	2196.0241	4309.35	3415.4
948.9392	2197.5175	4310.05	3415.5
949.0736	2199.0101	4300.5	3404.25
949.208	2200.502	4286.95	3398.75
949.3424	2201.9931	4244.6	3360.55
949.4767	2203.4835	4252.6	3366.3
949.611	2204.9733	4245.7	3355.75
949.7453	2206.4622	4237.3	3353.9
949.8796	2207.9505	4220.05	3332.6
950.0138	2209.438	4192.15	3310.2
950.148	2210.9248	4176.05	3291.55
950.2822	2212.4109	4173.05	3287.5
950.4164	2213.8962	4166.5	3273.85
950.5505	2215.3809	4148.4	3253.35
950.6846	2216.8648	4148.3	3256.4
950.8186	2218.3479	4139.3	3240.55
950.9527	2219.8304	4130.8	3235.3
951.0867	2221.3121	4116.65	3220.6
951.2207	2222.7931	4105.05	3216.55
951.3546	2224.2733	4089.35	3197.9
951.4886	2225.7529	4072.35	3183.5
951.6225	2227.2317	4069.2	3179.45
951.7563	2228.7098	4059.25	3174.25
951.8902	2230.1872	4034.65	3148.65
952.024	2231.6638	4043.75	3155.85
952.1578	2233.1397	4019.45	3128.9
952.2916	2234.6149	4005.35	3121.8
952.4253	2236.0894	4001.3	3114.5
952.559	2237.5632	4004.6	3109.95
952.6927	2239.0362	3976.9	3089.4
952.8263	2240.5085	3959.95	3073.25
952.9599	2241.9801	3952.65	3065.85
953.0935	2243.4509	3941.75	3053.1
953.2271	2244.921	3927.3	3034
953.3606	2246.3904	3926.55	3033.55
953.4941	2247.8591	3907.9	3016.25
953.6276	2249.3271	3909.1	3019
953.7611	2250.7943	3899.65	3009.7
953.8945	2252.2608	3889.4	3000.05
954.0279	2253.7266	3868.15	2978.3
954.1612	2255.1917	3862.1	2974.05
954.2946	2256.656	3843.25	2956.95
954.4279	2258.1197	3847.45	2961.95
954.5612	2259.5826	3831.2	2943.65
954.6944	2261.0447	3813.65	2925.45
954.8276	2262.5062	3815.65	2923.1
954.9608	2263.9669	3810.65	2916.95
955.094	2265.4269	3812.1	2924
955.2271	2266.8862	3801.15	2913.45
955.3602	2268.3448	3787.4	2902.1
955.4933	2269.8026	3786.9	2896.9
955.6264	2271.2598	3771.4	2885.1
955.7594	2272.7162	3747.25	2860.45
955.8924	2274.1719	3748.65	2857.9
956.0253	2275.6268	3751.55	2861
956.1583	2277.0811	3744.35	2851.5
956.2912	2278.5346	3725.75	2837.55
956.4241	2279.9874	3724.25	2837.65
956.5569	2281.4395	3727.1	2844.4
956.6897	2282.8908	3698.5	2808.4
956.8225	2284.3414	3705.85	2816.2
956.9553	2285.7914	3699.3	2810.5
957.088	2287.2406	3669.95	2780.7
957.2207	2288.689	3681.2	2789.45
957.3534	2290.1368	3674.35	2780.55
957.486	2291.5838	3659.1	2763.8
957.6186	2293.0302	3653.1	2756.15
957.7512	2294.4758	3643.25	2752.3
957.8838	2295.9206	3621.25	2731.75
958.0163	2297.3648	3596.55	2709.4
958.1488	2298.8082	3619.5	2731.9
958.2813	2300.251	3604.5	2714.9
958.4137	2301.693	3594.55	2699.4
958.5461	2303.1343	3589.15	2698.4
958.6785	2304.5748	3579.35	2689.9
958.8108	2306.0147	3575.95	2689.4
958.9432	2307.4538	3567.65	2679.85
959.0754	2308.8922	3551.35	2669
959.2077	2310.3299	3538.25	2652.05
959.3399	2311.7669	3528.1	2641.9
959.4721	2313.2031	3518.1	2630.9
959.6043	2314.6387	3504.9	2613.8
959.7365	2316.0735	3492.2	2604.3
959.8686	2317.5076	3490.05	2601.5
960.0006	2318.941	3494.6	2603.95
960.1327	2320.3737	3496.65	2605
960.2647	2321.8056	3485.25	2590.65
960.3967	2323.2369	3451.15	2562.1
960.5287	2324.6674	3452.5	2560.8
960.6606	2326.0972	3457.9	2566.8
960.7925	2327.5263	3439.35	2550.1
960.9244	2328.9547	3428.8	2538.45
961.0562	2330.3823	3418.2	2526
961.1881	2331.8092	3426.9	2531.5
961.3198	2333.2355	3418.65	2525
961.4516	2334.661	3391.95	2500.75
961.5833	2336.0858	3404.95	2512.25
961.715	2337.5098	3385.8	2495.75
961.8467	2338.9332	3385.65	2495.2
961.9783	2340.3558	3381.75	2491.1
962.1099	2341.7778	3366.35	2478.6
962.2415	2343.199	3370.5	2480.85
962.373	2344.6195	3356.25	2468.6
962.5045	2346.0393	3341.9	2454.75
962.636	2347.4583	3335.85	2447
962.7675	2348.8767	3328.9	2438.85
962.8989	2350.2943	3320.9	2427.9
963.0303	2351.7113	3333.5	2440.7
963.1617	2353.1275	3309.25	2416.15
963.293	2354.543	3326.45	2425.8
963.4243	2355.9578	3296.1	2405.9
963.5556	2357.3718	3286.2	2398.55
963.6868	2358.7852	3271.75	2384.15
963.818	2360.1978	3245.7	2362
963.9492	2361.6098	3263.75	2376.65
964.0803	2363.021	3254.75	2362.1
964.2114	2364.4315	3245.2	2357.9
964.3425	2365.8413	3250.55	2362.55
964.4736	2367.2504	3225.35	2338.35
964.6046	2368.6587	3220.95	2336.8
964.7356	2370.0664	3218.2	2332.8
964.8666	2371.4733	3192.75	2305.65
964.9975	2372.8795	3189.85	2303.15
965.1284	2374.285	3186.25	2299.55
965.2593	2375.6899	3182.05	2296.7
965.3901	2377.0939	3166.15	2281.7
965.5209	2378.4973	3146.6	2263.85
965.6517	2379.9	3143.65	2256.65
965.7825	2381.3019	3146.9	2263.55
965.9132	2382.7032	3132.1	2249.3
966.0439	2384.1037	3128.5	2245.55
966.1745	2385.5035	3110.9	2228.05
966.3051	2386.9027	3103.55	2223.7
966.4357	2388.3011	3101.6	2216.5
966.5663	2389.6987	3086.05	2202.85
966.6968	2391.0957	3081.9	2197.9
966.8273	2392.492	3065.35	2181.15
966.9578	2393.8876	3062.15	2177.4
967.0882	2395.2824	3061.05	2176.6
967.2186	2396.6765	3045.15	2160.45
967.349	2398.07	3033.55	2147.35
967.4793	2399.4627	3029.45	2142.2
967.6097	2400.8547	3025.6	2140
967.7399	2402.246	3018.15	2127.5
967.8702	2403.6366	3014.3	2128.5
968.0004	2405.0265	3000.5	2116.25
968.1306	2406.4156	2995.7	2108.45
968.2607	2407.8041	2984	2097
968.3909	2409.1918	2968.65	2082.3
968.521	2410.5789	2962.65	2076.7
968.651	2411.9652	2957.65	2069.9
968.781	2413.3508	2952.7	2067.8
968.911	2414.7358	2951.2	2065.35
969.041	2416.12	2929.2	2046.75
969.1709	2417.5035	2929.2	2044.8
969.3008	2418.8863	2924.5	2037.5
969.4307	2420.2684	2920.95	2033.6
969.5606	2421.6497	2906.6	2020.85
969.6904	2423.0304	2898.75	2012.85
969.8201	2424.4104	2891.9	2004.9
969.9499	2425.7896	2882.85	1996.1
970.0796	2427.1682	2868.6	1982.55
970.2093	2428.546	2872.7	1987.8
970.3389	2429.9232	2868.9	1983.5
970.4685	2431.2996	2875.6	1990.2
970.5981	2432.6753	2862	1977.25
970.7277	2434.0503	2861.05	1975.7
970.8572	2435.4246	2835.2	1948.6
970.9867	2436.7982	2834.65	1945.75
971.1161	2438.1711	2833.5	1949.15
971.2456	2439.5433	2820.9	1932.2
971.375	2440.9148	2819.9	1928.2
971.5043	2442.2856	2806.9	1923.25
971.6336	2443.6557	2807.2	1920.55
971.7629	2445.025	2792.1	1905.55
971.8922	2446.3937	2790.25	1904.1
972.0214	2447.7617	2781.3	1896.2
972.1506	2449.1289	2772.5	1886.15
972.2798	2450.4955	2780.55	1893.75
972.4089	2451.8613	2768	1883.9
972.538	2453.2265	2773.05	1886.45
972.6671	2454.5909	2759.6	1870.4
972.7961	2455.9546	2744.3	1857.25
972.9251	2457.3177	2751.6	1868.3
973.0541	2458.68	2744.4	1859.15
973.1831	2460.0416	2739.2	1854
973.312	2461.4025	2730.45	1844.45
973.4408	2462.7627	2741.6	1844.4
973.5697	2464.1222	2719.4	1835.9
973.6985	2465.4811	2711.95	1826.25
973.8273	2466.8392	2712.8	1828.2
973.956	2468.1966	2709.45	1822.1
974.0847	2469.5533	2709.5	1820.75
974.2134	2470.9093	2699.4	1813.1
974.3421	2472.2645	2698.3	1810.85
974.4707	2473.6191	2679.35	1793.4
974.5993	2474.973	2685.05	1800.25
974.7278	2476.3262	2680.6	1792.65
974.8563	2477.6787	2671.05	1786.1
974.9848	2479.0305	2655.2	1770.35
975.1132	2480.3816	2654.95	1767.2
975.2417	2481.7319	2649.45	1763.45
975.37	2483.0816	2636.35	1748.2
975.4984	2484.4306	2639.95	1753.85
975.6267	2485.7789	2637.6	1755.2
975.755	2487.1264	2618.15	1732.4
975.8833	2488.4733	2610.7	1726.8
976.0115	2489.8195	2610.7	1717.55
976.1397	2491.165	2589.4	1698.4
976.2678	2492.5097	2601.8	1714.9
976.3959	2493.8538	2567.95	1681.7
976.524	2495.1972	2570.85	1685.2
976.6521	2496.5398	2569.75	1682.45
976.7801	2497.8818	2577.5	1687
976.9081	2499.2231	2562.9	1674.75
977.036	2500.5637	2556.1	1667.25
977.164	2501.9035	2550.5	1661.9
977.2918	2503.2427	2550.6	1660.8
977.4197	2504.5812	2532.5	1646.05
977.5475	2505.919	2530.8	1641.85
977.6753	2507.256	2527.9	1640.2
977.8031	2508.5924	2524.8	1638.55
977.9308	2509.9281	2508.65	1617.65
978.0585	2511.2631	2509.05	1622.9
978.1861	2512.5974	2498.7	1613.95
978.3137	2513.9309	2512.15	1625.2
978.4413	2515.2638	2522.8	1607.55
978.5689	2516.596	2487.85	1600.8
978.6964	2517.9275	2485.6	1598.75
978.8239	2519.2583	2478.8	1591.7
978.9513	2520.5884	2480.4	1592.4
979.0788	2521.9178	2456.9	1569.85
979.2062	2523.2465	2462.9	1576.55
979.3335	2524.5745	2464.25	1579.35
979.4608	2525.9018	2444.45	1556.5
979.5881	2527.2284	2450.25	1563.85
979.7154	2528.5543	2438.15	1552.7
979.8426	2529.8796	2440.75	1553.55
979.9698	2531.2041	2432.7	1547.15
980.0969	2532.5279	2436.7	1555.9
980.224	2533.851	2426.1	1539
980.3511	2535.1735	2418.95	1534.8
980.4781	2536.4952	2419.7	1531.75
980.6052	2537.8163	2405.9	1518.1
980.7321	2539.1366	2405.15	1518.45
980.8591	2540.4562	2410.8	1521.85
980.986	2541.7752	2404.6	1515.45
981.1129	2543.0935	2399.3	1509.45
981.2397	2544.411	2400.25	1510.7
981.3665	2545.7279	2388.9	1501.1
981.4933	2547.0441	2395.85	1509.75
981.62	2548.3596	2395.8	1503.8
981.7467	2549.6744	2377.4	1489.85
981.8734	2550.9885	2372.7	1483.6
982.0001	2552.3019	2365.95	1477.9
982.1267	2553.6146	2372.05	1485.75
982.2532	2554.9266	2364.05	1476.85
982.3798	2556.2379	2359.45	1472.05
982.5063	2557.5485	2346.6	1461.7
982.6327	2558.8585	2368.85	1474.3
982.7592	2560.1677	2349.95	1456.75
982.8856	2561.4762	2337.2	1451.15
983.0119	2562.7841	2343.65	1452
983.1383	2564.0913	2344.15	1460.15
983.2646	2565.3977	2337.35	1450.65
983.3908	2566.7035	2328.15	1443.95
983.517	2568.0086	2326.25	1436.3
983.6432	2569.313	2331.3	1441.95
983.7694	2570.6167	2326.15	1435.05
983.8955	2571.9197	2311.55	1424.25
984.0216	2573.222	2312.05	1421.3
984.1476	2574.5236	2303.05	1415.5
984.2737	2575.8246	2306.4	1417.6
984.3996	2577.1248	2310.45	1419.2
984.5256	2578.4244	2299.15	1412.4
984.6515	2579.7232	2305.75	1418.25
984.7774	2581.0214	2326.6	1413.7
984.9032	2582.3189	2305.05	1418.5
985.029	2583.6157	2298.1	1406.65
985.1548	2584.9118	2291.95	1404.15
985.2806	2586.2072	2289.1	1402.6
985.4063	2587.5019	2281.65	1396.1
985.5319	2588.7959	2286.4	1399.75
985.6576	2590.0893	2283.65	1394.2
985.7832	2591.3819	2277.5	1390.65
985.9087	2592.6739	2282.2	1394.45
986.0343	2593.9652	2282.8	1391.6
986.1597	2595.2557	2272.15	1383.5
986.2852	2596.5456	2269.15	1378.65
986.4106	2597.8348	2273.45	1387.55
986.536	2599.1234	2255.95	1370.85
986.6614	2600.4112	2257.5	1369.8
986.7867	2601.6983	2255.3	1366.1
986.912	2602.9848	2256.35	1368.65
987.0372	2604.2705	2251.9	1357.45
987.1624	2605.5556	2235.3	1348.25
987.2876	2606.84	2240.85	1355.05
987.4128	2608.1237	2227.75	1340.85
987.5379	2609.4067	2228.95	1341.2
987.6629	2610.689	2222.95	1326.95
987.788	2611.9707	2227.9	1337.85
987.913	2613.2516	2228.4	1335.35
988.0379	2614.5319	2205.05	1318.5
988.1629	2615.8115	2199.75	1312.45
988.2878	2617.0903	2190.05	1305.4
988.4126	2618.3685	2190.9	1303.3
988.5375	2619.6461	2195.35	1308
988.6622	2620.9229	2187.55	1299.75
988.787	2622.199	2182.2	1294.75
988.9117	2623.4745	2173.35	1286.35
989.0364	2624.7493	2169.6	1283.25
989.161	2626.0234	2168.65	1284.5
989.2857	2627.2968	2167.25	1280.05
989.4102	2628.5695	2156.5	1270.55
989.5348	2629.8415	2156.75	1270.6
989.6593	2631.1128	2162.1	1275.95
989.7837	2632.3835	2136.05	1249.15
989.9082	2633.6535	2137.15	1249.6
990.0326	2634.9228	2139.2	1253.1
990.1569	2636.1914	2140.25	1254.6
990.2812	2637.4593	2130.9	1242.85
990.4055	2638.7265	2133.05	1245.4
990.5298	2639.9931	2126.65	1242.15
990.654	2641.259	2130	1243.25
990.7782	2642.5242	2130.6	1243.15
990.9023	2643.7887	2118.2	1231.65
991.0264	2645.0525	2123	1236.4
991.1505	2646.3156	2115.45	1227.7
991.2745	2647.5781	2097.8	1213.15
991.3985	2648.8398	2090.05	1204.95
991.5225	2650.1009	2100.4	1206.15
991.6464	2651.3613	2086.6	1199.25
991.7703	2652.6211	2094	1207.5
991.8942	2653.8801	2080.75	1196.6
992.018	2655.1385	2075.15	1186.45
992.1418	2656.3961	2090.75	1204.85
992.2655	2657.6531	2080.45	1195.7
992.3892	2658.9094	2067.85	1182.8
992.5129	2660.1651	2072.55	1186.75
992.6366	2661.42	2080.05	1193.1
992.7602	2662.6743	2077.5	1189.1
992.8837	2663.9279	2076.25	1191.45
993.0073	2665.1808	2069.6	1181.6
993.1307	2666.433	2069.75	1182.45
993.2542	2667.6846	2065.4	1180.55
993.3776	2668.9354	2065.5	1175.45
993.501	2670.1856	2061.65	1176.05
993.6244	2671.4351	2066.4	1178.15
993.7477	2672.6839	2073.4	1185.15
993.8709	2673.9321	2068.95	1184.25
993.9942	2675.1795	2068	1182.1
994.1174	2676.4263	2066.5	1178.45
994.2405	2677.6724	2054.25	1169.4
994.3637	2678.9179	2055.65	1167.35
994.4868	2680.1626	2053.6	1169.25
994.6098	2681.4067	2060	1172.25
994.7328	2682.6501	2045.35	1159.2
994.8558	2683.8928	2043.65	1157.9
994.9788	2685.1348	2050.2	1165.6
995.1017	2686.3761	2031.4	1146.85
995.2245	2687.6168	2030.05	1147.45
995.3474	2688.8568	2019.4	1134
995.4702	2690.0961	2015.3	1129.1
995.5929	2691.3348	2024.85	1139.1
995.7156	2692.5727	2004.95	1118.15
995.8383	2693.81	1999.15	1114.85
995.961	2695.0466	1992.7	1106.45
996.0836	2696.2826	2001.8	1115.2
996.2062	2697.5178	2023.2	1116.95
996.3287	2698.7524	1999.95	1113.65
996.4512	2699.9863	1993.75	1105.9
996.5737	2701.2195	1993.1	1109.25
996.6961	2702.452	1999.65	1114.85
996.8185	2703.6839	1995.85	1108.85
996.9408	2704.9151	1998.55	1112.85
997.0631	2706.1456	2010.35	1126.15
997.1854	2707.3755	2004.45	1116.65
997.3077	2708.6046	2013.6	1126.05
997.4299	2709.8331	2010.15	1124.35
997.552	2711.0609	2026.05	1140.65
997.6742	2712.2881	2021.85	1135.75
997.7963	2713.5145	2026.9	1139.45
997.9183	2714.7403	2033.6	1148.25
998.0403	2715.9654	2042.4	1155.9
998.1623	2717.1899	2069.25	1168.4
998.2842	2718.4136	2059.55	1173.7
998.4062	2719.6367	2061.35	1176.8
998.528	2720.8591	2081.9	1189.3
998.6498	2722.0809	2075.8	1190.9
998.7716	2723.3019	2098.9	1209.6
998.8934	2724.5223	2108.95	1222
999.0151	2725.7421	2098.65	1213.35
999.1368	2726.9611	2090.65	1201.2
999.2584	2728.1795	2096.45	1205.05
999.38	2729.3972	2080.8	1196.1
999.5016	2730.6142	2089.45	1192.55
999.6231	2731.8306	2062.1	1177.8
999.7446	2733.0462	2042.85	1155
999.8661	2734.2612	2026.8	1137.8
999.9875	2735.4756	2005.8	1119
1000.1089	2736.6892	1986.75	1099.9
1000.2302	2737.9022	1958.95	1074.6
1000.3515	2739.1145	1953.1	1068.3
1000.4728	2740.3262	1947.15	1056.45
1000.594	2741.5372	1925.45	1040
1000.7152	2742.7475	1917.65	1033.35
1000.8363	2743.9571	1902.6	1015.85
1000.9575	2745.1661	1890	1001.4
1001.0785	2746.3744	1881.7	995.5
1001.1996	2747.582	1867	982.7
1001.3206	2748.7889	1863.85	978.1
1001.4415	2749.9952	1854.2	969.85
1001.5625	2751.2008	1843.35	958
1001.6833	2752.4057	1842.15	955.8
1001.8042	2753.61	1831.4	945.15
1001.925	2754.8136	1833	946.75
1002.0458	2756.0165	1825.7	941.25
1002.1665	2757.2188	1823.45	940.55
1002.2872	2758.4204	1830.9	946.4
1002.4078	2759.6213	1822.05	934
1002.5285	2760.8215	1819.8	931.6
1002.649	2762.0211	1810.9	922.6
1002.7696	2763.22	1814.4	924.15
1002.8901	2764.4182	1817.3	931.2
1003.0106	2765.6158	1799.05	915.05
1003.131	2766.8127	1792.3	908.45
1003.2514	2768.009	1793.6	909.55
1003.3717	2769.2045	1789.65	901.6
1003.492	2770.3994	1788.85	901.9
1003.6123	2771.5936	1781.85	897.35
1003.7325	2772.7872	1772.75	889.8
1003.8527	2773.9801	1765.4	878.6
1003.9729	2775.1723	1787.7	883.7
1004.093	2776.3639	1771.45	887.35
1004.2131	2777.5548	1775.1	888.4
1004.3331	2778.745	1773.55	889.85
1004.4531	2779.9346	1760.5	876.25
1004.5731	2781.1235	1767.55	880.85
1004.693	2782.3117	1773.6	891.25
1004.8129	2783.4992	1767.1	884.2
1004.9328	2784.6861	1774.75	889.45
1005.0526	2785.8723	1777.7	891.85
1005.1723	2787.0579	1780.35	896.65
1005.2921	2788.2428	1785.8	900.7
1005.4118	2789.427	1782.15	899.15
1005.5314	2790.6106	1790.55	906.6
1005.651	2791.7935	1800.5	915.6
1005.7706	2792.9757	1807.05	924.4
1005.8902	2794.1573	1812.2	927.05
1006.0097	2795.3382	1827.95	945.15
1006.1291	2796.5184	1832.15	949.2
1006.2485	2797.698	1851.2	966.1
1006.3679	2798.8769	1854.9	970.25
1006.4873	2800.0551	1872.15	986.85
1006.6066	2801.2327	1890.75	1003.9
1006.7258	2802.4096	1910.1	1026.2
1006.8451	2803.5859	1927.3	1044.1
1006.9642	2804.7615	1946.9	1062.85
1007.0834	2805.9364	1958.65	1076.85
1007.2025	2807.1106	1979.2	1096.5
1007.3216	2808.2842	2009.8	1125
1007.4406	2809.4572	2032.75	1150.6
1007.5596	2810.6294	2076.45	1191.15
1007.6785	2811.801	2107.1	1223.75
1007.7975	2812.972	2156.5	1274.9
1007.9163	2814.1423	2192.95	1310.9
1008.0352	2815.3119	2241.9	1361.2
1008.154	2816.4808	2285.65	1402.8
1008.2727	2817.6491	2323.95	1440
1008.3914	2818.8167	2368.35	1484.5
1008.5101	2819.9837	2425.4	1540.2
1008.6288	2821.15	2464.5	1579.8
1008.7474	2822.3157	2515.65	1634
1008.8659	2823.4807	2571	1687.75
1008.9844	2824.645	2611.7	1726.4
1009.1029	2825.8086	2648.2	1763.45
1009.2214	2826.9716	2698.2	1814.15
1009.3398	2828.134	2745.25	1862.35
1009.4581	2829.2957	2784.6	1901.7
1009.5764	2830.4567	2818.2	1935.7
1009.6947	2831.617	2847.2	1964.1
1009.813	2832.7767	2833.65	1951.75
1009.9312	2833.9358	2837.15	1953.95
1010.0493	2835.0941	2834.95	1951.15
1010.1675	2836.2519	2831.5	1949.45
1010.2855	2837.4089	2821.3	1936.65
1010.4036	2838.5653	2799.05	1914.55
1010.5216	2839.7211	2807.9	1926.05
1010.6396	2840.8761	2817.25	1932.7
1010.7575	2842.0306	2829.05	1946.9
1010.8754	2843.1843	2853.25	1970.05
1010.9932	2844.3374	2901.25	2020.3
1011.111	2845.4899	2951.75	2067.55
1011.2288	2846.6417	3021.1	2137.8
1011.3465	2847.7928	3091.9	2208.45
1011.4642	2848.9433	3159.8	2278.25
1011.5818	2850.0931	3235.1	2352.5
1011.6995	2851.2422	3300.35	2416.85
1011.817	2852.3907	3365.9	2483.25
1011.9345	2853.5385	3438.25	2551.75
1012.052	2854.6857	3507.05	2598.75
1012.1695	2855.8323	3530.1	2647.85
1012.2869	2856.9781	3580.65	2700.45
1012.4042	2858.1233	3629.3	2745.85
1012.5216	2859.2679	3683.25	2801.85
1012.6389	2860.4118	3712	2829
1012.7561	2861.555	3772.9	2884.65
1012.8733	2862.6976	3807.8	2922.55
1012.9905	2863.8395	3837.6	2956.25
1013.1076	2864.9808	3849.55	2966.6
1013.2247	2866.1214	3877.6	2996.55
1013.3417	2867.2614	3893.8	3009.7
1013.4587	2868.4007	3892	3006.45
1013.5757	2869.5393	3908.1	3023.65
1013.6926	2870.6773	3935.8	3052.75
1013.8095	2871.8146	3943.4	3057.3
1013.9263	2872.9513	3941.35	3056.9
1014.0431	2874.0874	3931.15	3050.25
1014.1599	2875.2227	3923.1	3042.45
1014.2766	2876.3574	3888.45	3003.45
1014.3933	2877.4915	3871.95	2991.1
1014.51	2878.6249	3840.35	2959.35
1014.6266	2879.7577	3829.65	2944.75
1014.7431	2880.8898	3813.6	2923.7
1014.8596	2882.0212	3785.4	2903.8
1014.9761	2883.152	3771.3	2888.85
1015.0925	2884.2821	3757.8	2876.9
1015.2089	2885.4116	3758.9	2878.3
1015.3253	2886.5405	3743.15	2862.15
1015.4416	2887.6686	3756	2870.2
1015.5579	2888.7962	3754.9	2874.85
1015.6741	2889.923	3763.65	2883.15
1015.7903	2891.0493	3769.5	2888.8
1015.9065	2892.1748	3795.6	2913.9
1016.0226	2893.2997	3798.65	2917.5
1016.1387	2894.424	3809.4	2931.75
1016.2547	2895.5476	3821.65	2939.85
1016.3707	2896.6706	3836.1	2956.6
1016.4866	2897.7929	3860.5	2978.95
1016.6025	2898.9145	3892.95	3010
1016.7184	2900.0355	3928.2	3045.95
1016.8342	2901.1559	3945.65	3062.4
1016.95	2902.2756	3986.65	3106.55
1017.0658	2903.3946	4023.2	3141.85
1017.1815	2904.513	4050	3166.85
1017.2971	2905.6308	4075.5	3194.35
1017.4127	2906.7479	4077.1	3195.1
1017.5283	2907.8643	4109.15	3227.8
1017.6439	2908.9801	4134.45	3250.4
1017.7594	2910.0953	4142.2	3261.3
1017.8748	2911.2098	4147.15	3260
1017.9902	2912.3236	4141.1	3251.35
1018.1056	2913.4368	4126.45	3241.15
1018.2209	2914.5494	4088.65	3207.15
1018.3362	2915.6613	4085.45	3198.85
1018.4515	2916.7725	4043.35	3160.15
1018.5667	2917.8831	4020.8	3137.3
1018.6819	2918.9931	3994.75	3111.45
1018.797	2920.1024	3961.85	3080.3
1018.9121	2921.211	3935.45	3054.8
1019.0271	2922.319	3908.85	3027.8
1019.1421	2923.4264	3877.65	2998.95
1019.2571	2924.5331	3875.9	2997.1
1019.372	2925.6391	3863.85	2983.55
1019.4869	2926.7445	3848.25	2968.25
1019.6017	2927.8493	3851.3	2970.95
1019.7165	2928.9534	3853.4	2971.6
1019.8313	2930.0569	3834.05	2950.1
1019.946	2931.1597	3829.15	2947.4
1020.0606	2932.2619	3851.45	2973.35
1020.1753	2933.3634	3826.75	2945.85
1020.2899	2934.4643	3839.65	2953.15
1020.4044	2935.5645	3807.9	2920.9
1020.5189	2936.6641	3775	2888.7
1020.6334	2937.763	3734.7	2854.85
1020.7478	2938.8613	3679.75	2797.45
1020.8622	2939.959	3625.3	2739.3
1020.9765	2941.056	3568.25	2688.1
1021.0908	2942.1523	3481.2	2599.25
1021.2051	2943.248	3393.85	2511.1
1021.3193	2944.3431	3291.05	2411.4
1021.4334	2945.4375	3193.35	2313.4
1021.5476	2946.5313	3089.2	2211.2
1021.6617	2947.6244	2975.5	2092.85
1021.7757	2948.7169	2887.65	2005.4
1021.8897	2949.8087	2793.15	1912.9
1022.0037	2950.8999	2706.7	1824.45
1022.1176	2951.9904	2627.1	1746.15
1022.2315	2953.0803	2554.15	1672.7
1022.3453	2954.1696	2488.8	1608.35
1022.4591	2955.2582	2431.7	1553.25
1022.5728	2956.3462	2387.1	1506.05
1022.6865	2957.4335	2346.05	1465.2
1022.8002	2958.5202	2310.85	1428.9
1022.9138	2959.6062	2280.1	1400.35
1023.0274	2960.6916	2253.55	1374.75
1023.141	2961.7764	2240.65	1359.8
1023.2545	2962.8605	2214.75	1334.35
1023.3679	2963.9439	2206.7	1327.55
1023.4813	2965.0267	2201.8	1319.75
1023.5947	2966.1089	2215.35	1314.35
1023.708	2967.1905	2175.85	1295.05
1023.8213	2968.2714	2164.95	1287.85
1023.9346	2969.3516	2162.9	1283.45
1024.0478	2970.4312	2173.6	1285.6
1024.1609	2971.5102	2167.75	1289.6
1024.274	2972.5885	2175.55	1295.05
1024.3871	2973.6662	2180.75	1294.9
1024.5002	2974.7432	2169.8	1290.15
1024.6132	2975.8196	2165.2	1284.4
1024.7261	2976.8954	2142.8	1262.9
1024.839	2977.9705	2139.45	1260.6
1024.9519	2979.045	2130.1	1249.7
1025.0647	2980.1188	2104.95	1224.15
1025.1775	2981.192	2097.5	1218.4
1025.2902	2982.2645	2069.9	1189.2
1025.4029	2983.3364	2040.5	1160.1
1025.5156	2984.4077	2023.4	1143.4
1025.6282	2985.4783	1995.55	1110.85
1025.7407	2986.5483	1953.25	1074.9
1025.8532	2987.6177	1918.55	1039.35
1025.9657	2988.6864	1884.15	1003.9
1026.0782	2989.7545	1862	979.8
1026.1906	2990.8219	1818.25	938.3
1026.3029	2991.8887	1789.4	907.25
1026.4152	2992.9548	1754.1	874.5
1026.5275	2994.0204	1716.9	839.2
1026.6397	2995.0852	1691.35	811.1
1026.7519	2996.1495	1673.95	792.2
1026.864	2997.2131	1637.8	759.9
1026.9761	2998.276	1615.25	737
1027.0882	2999.3383	1601.45	721.3
1027.2002	3000.4	1589.3	710.6
1027.3122	3001.4611	1567.4	687.3
1027.4241	3002.5215	1545.95	664.9
1027.536	3003.5812	1531.3	652.75
1027.6478	3004.6404	1514.8	633.95
1027.7596	3005.6989	1514.1	632.8
1027.8714	3006.7567	1499.85	620.1
1027.9831	3007.8139	1529.1	618.95
1028.0947	3008.8705	1483.5	603.9
1028.2064	3009.9264	1489.15	606.45
1028.3179	3010.9818	1471.65	592.85
1028.4295	3012.0364	1466.15	585.5
1028.541	3013.0905	1466.75	586.55
1028.6524	3014.1439	1452.1	573.65
1028.7638	3015.1966	1453	575.75
1028.8752	3016.2487	1444.85	567.05
1028.9865	3017.3002	1451.45	566.45
1029.0978	3018.3511	1450.5	573.25
1029.209	3019.4013	1447.8	567.15
1029.3202	3020.4509	1442.1	563.95
1029.4314	3021.4998	1442.3	563.2
1029.5425	3022.5481	1442.3	564.15
1029.6535	3023.5958	1440.6	562.1
1029.7645	3024.6428	1442.2	562.05
1029.8755	3025.6892	1438.75	562.75
1029.9864	3026.735	1442.95	564.1
1030.0973	3027.7802	1448.3	568.8
1030.2082	3028.8247	1432.75	553.5
1030.319	3029.8685	1451.65	572.45
1030.4297	3030.9118	1445.35	566.45
1030.5404	3031.9544	1450.35	571.6
1030.6511	3032.9963	1449.4	569.6
1030.7617	3034.0376	1458	579.35
1030.8723	3035.0783	1464.15	584.9
1030.9829	3036.1184	1460.15	581.85
1031.0934	3037.1578	1461.25	584.2
1031.2038	3038.1966	1465.55	583.85
1031.3142	3039.2348	1465.4	587.2
1031.4246	3040.2723	1470.85	582.45
1031.5349	3041.3092	1458.4	580.45
1031.6452	3042.3455	1457.7	577
1031.7554	3043.3811	1464.4	584.45
1031.8656	3044.4161	1451.05	571.8
1031.9758	3045.4505	1447.3	570.95
1032.0859	3046.4842	1444.3	566.25
1032.1959	3047.5173	1439.8	561.25
1032.3059	3048.5498	1435.9	557.5
1032.4159	3049.5816	1426.9	545.85
1032.5258	3050.6128	1425.25	544.55
1032.6357	3051.6434	1416.8	537.15
1032.7455	3052.6734	1404.9	524.35
1032.8553	3053.7027	1405.2	526.5
1032.9651	3054.7314	1394.7	515.25
1033.0748	3055.7594	1390.7	511.6
1033.1845	3056.7868	1389.9	508
1033.2941	3057.8136	1383.45	505.5
1033.4037	3058.8398	1379.3	502.45
1033.5132	3059.8653	1368.55	489.1
1033.6227	3060.8902	1368.2	490
1033.7321	3061.9145	1363.8	482.5
1033.8415	3062.9381	1360.85	481.1
1033.9509	3063.9612	1365.1	470.9
1034.0602	3064.9835	1353.4	474.5
1034.1694	3066.0053	1343.4	461.6
1034.2787	3067.0264	1338.2	461.2
1034.3878	3068.0469	1333.6	452.35
1034.497	3069.0668	1328.05	447.15
1034.6061	3070.086	1311.4	434.1
1034.7151	3071.1046	1304.4	424.65
1034.8241	3072.1226	1293.4	413.95
1034.9331	3073.1399	1291.15	413.5
1035.042	3074.1567	1283.4	405.05
1035.1508	3075.1727	1267.9	387.1
1035.2597	3076.1882	1265.95	387.4
1035.3684	3077.203	1254.7	376.65
1035.4772	3078.2173	1247.1	368.8
1035.5859	3079.2308	1250.15	367.95
1035.6945	3080.2438	1233.6	353.05
1035.8031	3081.2561	1221.9	343.6
1035.9117	3082.2678	1214.4	337.95
1036.0202	3083.2789	1208.65	330.15
1036.1286	3084.2893	1204.9	328.3
1036.2371	3085.2991	1197.4	319
1036.3454	3086.3083	1194.7	313.8
1036.4538	3087.3169	1187.5	307.55
1036.562	3088.3248	1187.85	308.75
1036.6703	3089.3321	1176.6	295.65
1036.7785	3090.3388	1177.15	298.9
1036.8866	3091.3449	1170.1	290.6
1036.9948	3092.3503	1164.85	283.1
1037.1028	3093.3551	1159.6	282.7
1037.2108	3094.3593	1160	282.6
1037.3188	3095.3629	1152.1	274.05
1037.4267	3096.3658	1148.85	271.25
1037.5346	3097.3681	1146.75	269.45
1037.6425	3098.3698	1147.5	269.65
1037.7503	3099.3708	1143.35	266.15
1037.858	3100.3713	1136.95	259.55
1037.9657	3101.3711	1134.5	254.3
1038.0734	3102.3702	1269.4	247.95
1038.181	3103.3688	1139.2	257.2
1038.2886	3104.3667	1125.8	249.35
1038.3961	3105.364	1123.7	247.9
1038.5036	3106.3607	1125.85	247.8
1038.611	3107.3568	1119.95	242.55
1038.7184	3108.3522	1112.2	236.9
1038.8257	3109.347	1119.7	241.45
1038.933	3110.3412	1116.15	233.75
1039.0403	3111.3348	1113.4	235.9
1039.1475	3112.3277	1112	234.15
1039.2547	3113.32	1108.9	232.85
1039.3618	3114.3117	1108.95	231.85
1039.4689	3115.3028	1101.5	224.6
1039.5759	3116.2932	1105.25	225.2
1039.6829	3117.2831	1104.7	221.9
1039.7898	3118.2723	1103.5	227.45
1039.8967	3119.2608	1092.35	216.6
1040.0035	3120.2488	1096.8	219.2
1040.1103	3121.2361	1090.55	210.95
1040.2171	3122.2229	1090.65	212.95
1040.3238	3123.209	1089.15	210.2
1040.4305	3124.1944	1087.8	210.3
1040.5371	3125.1793	1090.1	209.45
1040.6437	3126.1635	1080.8	202.85
1040.7502	3127.1471	1083.45	208.1
1040.8567	3128.1301	1085.8	207.85
1040.9631	3129.1125	1078.9	202.95
1041.0695	3130.0942	1081.15	204.1
1041.1759	3131.0753	1087.1	201.9
1041.2822	3132.0558	1079.85	199.85
1041.3884	3133.0357	1072.15	193.2
1041.4946	3134.015	1070.5	192.85
1041.6008	3134.9936	1075.35	196.1
1041.7069	3135.9716	1084.55	186.7
1041.813	3136.949	1066.6	189.1
1041.919	3137.9258	1083.1	188.05
1042.025	3138.902	1071.45	190.05
1042.1309	3139.8775	1066.4	189.05
1042.2368	3140.8524	1066.25	190
1042.3427	3141.8267	1065.35	186.4
1042.4485	3142.8004	1060.85	181.65
1042.5542	3143.7735	1065.65	182.15
1042.6599	3144.7459	1056.6	177.7
1042.7656	3145.7178	1055.75	178.5
1042.8712	3146.689	1053.35	176.95
1042.9768	3147.6596	1056.55	177.05
1043.0823	3148.6295	1053.05	177.2
1043.1878	3149.5989	1052.65	174.35
1043.2932	3150.5676	1046.45	169.75
1043.3986	3151.5357	1049.3	172.4
1043.5039	3152.5032	1047.3	170.8
1043.6092	3153.4701	1044.3	167.7
1043.7145	3154.4364	1050	170.05
1043.8197	3155.402	1043.5	168.9
1043.9248	3156.367	1043.2	163.65
1044.03	3157.3315	1081.6	164.95
1044.135	3158.2952	1040.2	163.8
1044.24	3159.2584	1040.25	163.3
1044.345	3160.221	1044.55	165.9
1044.4499	3161.1829	1038	161.45
1044.5548	3162.1442	1034.9	159.35
1044.6596	3163.105	1035.75	157.45
1044.7644	3164.065	1038.25	164
1044.8692	3165.0245	1035.55	155.25
1044.9739	3165.9834	1030.65	154.85
1045.0785	3166.9416	1029.45	153.2
1045.1831	3167.8993	1027.95	150.7
1045.2877	3168.8563	1027.8	148.85
1045.3922	3169.8127	1024.25	148.15
1045.4966	3170.7684	1021.9	145.05
1045.6011	3171.7236	1026.3	147.8
1045.7054	3172.6782	1025.7	151.05
1045.8098	3173.6321	1022.35	144.45
1045.914	3174.5854	1025.2	145.7
1046.0183	3175.5381	1024.9	147.7
1046.1224	3176.4902	1021.2	142.55
1046.2266	3177.4417	1018.5	141.6
1046.3307	3178.3926	1020.55	143.3
1046.4347	3179.3428	1017.9	142.5
1046.5387	3180.2924	1016.75	141.1
1046.6427	3181.2415	1017.2	140.95
1046.7466	3182.1899	1017.2	139.55
1046.8504	3183.1377	1011.55	135.1
1046.9542	3184.0848	1013.4	132.35
1047.058	3185.0314	1012.6	134
1047.1617	3185.9773	1014.15	137.55
1047.2654	3186.9227	1011.2	134.35
1047.369	3187.8674	1015.45	139.1
1047.4726	3188.8115	1020.35	139.05
1047.5761	3189.755	1009.05	130.6
1047.6796	3190.6979	1009.5	132.95
1047.783	3191.6402	1009.05	134.7
1047.8864	3192.5818	1007.3	132.3
1047.9898	3193.5229	1022.5	127.1
1048.0931	3194.4633	1006.95	130.9
1048.1963	3195.4031	1006.5	130.35
1048.2995	3196.3423	1003.45	125.55
1048.4027	3197.2809	1000.55	124.65
1048.5058	3198.2189	1000.45	123.15
1048.6089	3199.1563	1012.15	130.75
1048.7119	3200.0931	1000.25	126.75
1048.8148	3201.0292	998.8	124.75
1048.9178	3201.9648	998.15	120.1
1049.0206	3202.8997	1003.8	123.35
1049.1235	3203.834	998.75	122.15
1049.2262	3204.7677	999.65	121.95
1049.329	3205.7008	993.7	116.7
1049.4317	3206.6333	995.05	119.35
1049.5343	3207.5652	998.1	119.25
1049.6369	3208.4964	993.05	116.45
1049.7394	3209.4271	993.8	118.1
1049.8419	3210.3571	992.1	115.15
1049.9444	3211.2865	994.15	118.05
1050.0468	3212.2154	991.45	113.1
1050.1491	3213.1436	994.45	115.8
1050.2514	3214.0712	999.2	114.95
1050.3537	3214.9982	991	116.25
1050.4559	3215.9246	991.05	113.7
1050.5581	3216.8503	987.65	112
1050.6602	3217.7755	991.4	113.75
1050.7623	3218.7001	987.25	112.7
1050.8643	3219.624	985.3	108.25
1050.9663	3220.5473	988.55	112
1051.0682	3221.4701	985.9	109.7
1051.1701	3222.3922	990.8	113.1
1051.2719	3223.3137	984.8	109
1051.3737	3224.2346	983.6	106.65
1051.4754	3225.1549	984.05	109.5
1051.5771	3226.0746	979.55	105.15
1051.6788	3226.9937	980.5	104.7
1051.7804	3227.9121	979.05	104.05
1051.8819	3228.83	980.3	103.8
1051.9834	3229.7473	981.3	104.25
1052.0849	3230.6639	983.1	107.35
1052.1863	3231.5799	980.4	104.5
1052.2876	3232.4954	978	101.5
1052.3889	3233.4102	975.85	99.15
1052.4902	3234.3244	976.25	100.95
1052.5914	3235.238	975	99.4
1052.6926	3236.151	994	93.5
1052.7937	3237.0634	974.5	99.9
1052.8948	3237.9752	971.45	95.55
1052.9958	3238.8864	974.7	98.55
1053.0968	3239.797	972.05	95.9
1053.1977	3240.7069	972.1	96.1
1053.2986	3241.6163	971.85	94.65
1053.3994	3242.5251	973.05	99.15
1053.5002	3243.4332	971.15	95.35
1053.6009	3244.3408	971	94.2
1053.7016	3245.2477	968.65	94.25
1053.8022	3246.154	970.7	93.95
1053.9028	3247.0598	968.5	91
1054.0034	3247.9649	968.6	92.5
1054.1039	3248.8694	966.25	90.95
1054.2043	3249.7733	964.8	89.2
1054.3047	3250.6766	968.2	95.55
1054.4051	3251.5793	965.2	87.6
1054.5054	3252.4814	965.05	89.5
1054.6056	3253.3829	963.15	88.1
1054.7058	3254.2838	961.95	87
1054.806	3255.1841	962.9	87.9
1054.9061	3256.0838	960.8	84.65
1055.0061	3256.9829	957.35	84.15
1055.1062	3257.8814	964.3	85.2
1055.2061	3258.7792	957.75	83.9
1055.306	3259.6765	961.55	85.7
1055.4059	3260.5731	954.55	80.25
1055.5057	3261.4692	954.1	77.85
1055.6055	3262.3647	958	83.15
1055.7052	3263.2595	952.35	77
1055.8049	3264.1538	954.15	79.05
1055.9045	3265.0474	951.15	76.1
1056.0041	3265.9404	949.55	76.25
1056.1036	3266.8329	948.55	75.25
1056.2031	3267.7247	958.4	73.7
1056.3025	3268.616	944.65	71.8
1056.4019	3269.5066	944.3	68.6
1056.5013	3270.3966	942.2	65
1056.6005	3271.286	938.3	65.15
