Software Version:	3.9.2.0
Unit SN:	10000200
Spectrometer SN:	6960
Date:	3/8/2024 11:07:00 AM
Data Line Index:	25
Spectral Points:	2048
Integration time (ms):	125
Averages:	20
Delay (ms):	30000
Sequence Number:	1
Processing:	dark subtract
Laser Power (mW):	300
Laser Current (mA):	817
Laser Diode Temp (C):	25
Laser Case Temp (C):	24.2
System Temp (C):	24.1
Spectrometer Temp (C):	22.2
CCD Temp (C):	-0.003
Secondary Temp (C):	20.01
Heatsink Temp (C):	18.772
CCDPCB Temp (C):	31.305
SecondaryPCB Temp (C):	25.858

Wavelength	RamanShift	Raw Counts	Dark Subtracted
787.061	30.1047	422.55	10.9
787.2016	32.3739	420.9	10.25
787.3422	34.6426	424.8	14.3
787.4828	36.9109	424.9	13.25
787.6235	39.1787	433.55	17.95
787.7642	41.4461	437.8	17.8
787.9049	43.7131	440.75	18.85
788.0456	45.9796	445	21.05
788.1863	48.2456	451.7	21.25
788.3271	50.5112	454.05	19.9
788.4679	52.7764	462.45	26.9
788.6087	55.0411	465.8	25.15
788.7496	57.3054	474.6	29.35
788.8904	59.5692	479.05	31.6
789.0313	61.8326	484.05	33.15
789.1722	64.0955	487.85	34.9
789.3132	66.3579	497.1	41.45
789.4541	68.6199	506.6	46
789.5951	70.8815	523.8	56.8
789.7361	73.1426	553.3	81.4
789.8771	75.4032	623.4	151.1
790.0181	77.6634	797.25	320.55
790.1592	79.9231	1201.35	722
790.3003	82.1824	2009.4	1528.5
790.4414	84.4412	3352.85	2862.85
790.5825	86.6995	5115	4620.15
790.7237	88.9574	6802.65	6298.45
790.8648	91.2148	7921.35	7415.5
791.006	93.4717	8419.55	7907.35
791.1472	95.7282	8501.3	7987.95
791.2885	97.9842	8425.4	7912.4
791.4297	100.2398	8294.5	7777.05
791.571	102.4949	8132.55	7612.45
791.7123	104.7495	7997.9	7475.95
791.8536	107.0036	7848.3	7323.3
791.9949	109.2573	7698.6	7176.3
792.1363	111.5105	7485.45	6957.2
792.2777	113.7632	7231.3	6703.05
792.4191	116.0154	6959.1	6419.35
792.5605	118.2672	6672.15	6139.25
792.7019	120.5185	6344	5809.9
792.8434	122.7693	6034.75	5497.2
792.9849	125.0197	5756.65	5213.7
793.1264	127.2696	5527.5	4981.35
793.2679	129.519	5350.5	4800.15
793.4094	131.7679	5239.6	4689.9
793.551	134.0163	5167.55	4614.4
793.6926	136.2642	5118.1	4559.25
793.8342	138.5117	5092.85	4532.25
793.9758	140.7587	5037.65	4479.45
794.1175	143.0052	4941.2	4377.6
794.2591	145.2512	4791.75	4227.25
794.4008	147.4967	4624.95	4056.85
794.5425	149.7417	4449.25	3878
794.6842	151.9863	4366.35	3790
794.826	154.2304	4309.2	3730.25
794.9677	156.4739	4256.8	3675.05
795.1095	158.717	4307.45	3725.75
795.2513	160.9596	4382.9	3797.15
795.3931	163.2017	4453.75	3865.8
795.535	165.4433	4542.6	3952.3
795.6768	167.6844	4568.35	3975.75
795.8187	169.925	4499.95	3901.4
795.9606	172.1651	4336.5	3737.35
796.1025	174.4047	4184	3579.3
796.2445	176.6439	4047.8	3441.2
796.3864	178.8825	3931.45	3322.55
796.5284	181.1206	3869.95	3256.8
796.6704	183.3582	3829.6	3212.9
796.8124	185.5954	3799.35	3178.6
796.9544	187.832	3787.8	3165.25
797.0965	190.0681	3793.55	3169.55
797.2386	192.3037	3795	3166.25
797.3806	194.5388	3811.75	3182.55
797.5228	196.7734	3852.55	3220
797.6649	199.0075	3874.65	3241.35
797.807	201.2411	3926.35	3293.65
797.9492	203.4742	3991.6	3353.6
798.0914	205.7068	4070.35	3426.95
798.2336	207.9389	4137.55	3496.6
798.3758	210.1704	4183.85	3548.75
798.518	212.4015	4187.85	3562.5
798.6603	214.632	4184.6	3564.8
798.8025	216.862	4203.8	3586.35
798.9448	219.0915	4213.75	3593.1
799.0871	221.3205	4269.2	3645.35
799.2294	223.549	4301.4	3681.55
799.3718	225.777	4303.7	3683.05
799.5141	228.0044	4300.2	3672.95
799.6565	230.2314	4291.4	3660.2
799.7989	232.4578	4258.1	3622.6
799.9413	234.6837	4206.1	3562.6
800.0837	236.909	4148.75	3503.9
800.2262	239.1339	4128.4	3460.25
800.3687	241.3582	4102.85	3450.85
800.5111	243.582	4081.55	3400.65
800.6536	245.8053	4092.4	3422.45
800.7961	248.0281	4107.25	3441.5
800.9387	250.2503	4146.25	3477.25
801.0812	252.472	4156.2	3486.05
801.2238	254.6932	4159.2	3487.35
801.3664	256.9139	4168.55	3493.7
801.509	259.134	4212.6	3533.5
801.6516	261.3536	4255.4	3581
801.7942	263.5727	4356.55	3679.3
801.9369	265.7912	4493.7	3818.3
802.0795	268.0092	4672.4	3998.2
802.2222	270.2267	4860.55	4183.95
802.3649	272.4436	5028.6	4348.8
802.5076	274.6601	5144.1	4451.75
802.6504	276.8759	5210.3	4523.95
802.7931	279.0913	5281.25	4595.35
802.9359	281.3061	5331	4641.55
803.0787	283.5204	5415.35	4723.6
803.2215	285.7341	5480.75	4788.35
803.3643	287.9473	5547.15	4853.6
803.5071	290.16	5556.85	4860.4
803.6499	292.3721	5426.05	4737.25
803.7928	294.5837	5266.1	4575
803.9357	296.7947	5148.55	4456.6
804.0786	299.0052	5063.4	4370.25
804.2215	301.2152	5002.95	4306.1
804.3644	303.4246	4994.15	4299.8
804.5074	305.6334	4983.7	4288.7
804.6503	307.8418	4944.15	4245.8
804.7933	310.0495	4903.6	4201.05
804.9363	312.2568	4805.55	4105.2
805.0793	314.4635	4657	3954.35
805.2223	316.6696	4497.6	3790.3
805.3653	318.8752	4368.3	3652.75
805.5084	321.0802	4262.5	3554.4
805.6514	323.2847	4236	3526.9
805.7945	325.4887	4237.9	3528.85
805.9376	327.692	4290.5	3581.1
806.0807	329.8949	4399.85	3687.8
806.2238	332.0972	4560.35	3844.15
806.367	334.2989	4713.05	3997.1
806.5101	336.5001	4749.15	4031.3
806.6533	338.7007	4660.7	3944.1
806.7965	340.9008	4490.25	3771.85
806.9397	343.1003	4298.5	3577.6
807.0829	345.2992	4129.7	3404.9
807.2261	347.4976	3967.45	3243.3
807.3693	349.6955	3869.65	3141.35
807.5126	351.8927	3800.65	3073.45
807.6559	354.0895	3756.8	3019.5
807.7991	356.2856	3717.5	2987.7
807.9424	358.4812	3675.4	2945
808.0857	360.6763	3664.9	2929.9
808.2291	362.8707	3640.35	2905.4
808.3724	365.0646	3648.85	2909.95
808.5158	367.258	3669.4	2929.1
808.6591	369.4508	3710.35	2969
808.8025	371.643	3810.4	3067.85
808.9459	373.8346	3889.6	3146.5
809.0893	376.0257	4012	3265.1
809.2327	378.2162	4108.95	3361.65
809.3762	380.4062	4185.6	3438.05
809.5196	382.5956	4132.05	3388.15
809.6631	384.7844	4009.15	3269.25
809.8066	386.9726	3869.85	3128.15
809.9501	389.1603	3745.95	3006.8
810.0936	391.3474	3698.7	2918.75
810.2371	393.5339	3680	2936.8
810.3806	395.7199	3701.55	2962.95
810.5241	397.9052	3779.95	3040.9
810.6677	400.09	3929.55	3185.9
810.8113	402.2743	4082.75	3336.75
810.9548	404.4579	4185.75	3440.5
811.0984	406.641	4321.05	3574.3
811.2421	408.8235	4439.75	3690.85
811.3857	411.0054	4549.5	3798.7
811.5293	413.1868	4633.25	3879.5
811.673	415.3675	4643.6	3885.6
811.8166	417.5477	4625	3867.3
811.9603	419.7273	4570.55	3808.55
812.104	421.9064	4458.85	3690
812.2477	424.0848	4302.75	3539.9
812.3914	426.2627	4109.25	3347.2
812.5351	428.4399	3897	3135.05
812.6788	430.6166	3734.8	2969.9
812.8226	432.7928	3592.55	2824.25
812.9663	434.9683	3491.8	2722.8
813.1101	437.1432	3421.3	2652.1
813.2539	439.3176	3366.3	2596.7
813.3977	441.4914	3324.5	2554.85
813.5415	443.6645	3318	2545.85
813.6853	445.8371	3304.25	2531.7
813.8291	448.0091	3315.55	2545.05
813.973	450.1806	3307.3	2535.8
814.1168	452.3514	3314.95	2539.95
814.2607	454.5216	3336.3	2554.9
814.4046	456.6913	3317	2539.35
814.5485	458.8603	3335.45	2559.8
814.6924	461.0288	3352	2577.65
814.8363	463.1967	3352.35	2574.9
814.9802	465.3639	3355.1	2577.5
815.1241	467.5306	3348.4	2570.85
815.2681	469.6967	3325.3	2547.65
815.412	471.8622	3298.05	2520.95
815.556	474.0271	3287.2	2510.75
815.7	476.1914	3291.55	2510.55
815.844	478.3551	3270.5	2491
815.988	480.5182	3265.8	2482.95
816.132	482.6807	3276.85	2494.2
816.276	484.8426	3337.15	2557.45
816.4201	487.0039	3467.75	2686.45
816.5641	489.1647	3648.05	2865.5
816.7082	491.3248	3806.75	3022.7
816.8522	493.4843	3856.4	3074.2
816.9963	495.6432	3827.3	3043
817.1404	497.8015	3731.75	2942.85
817.2845	499.9592	3595.4	2809.25
817.4286	502.1163	3410.35	2622.4
817.5727	504.2728	3267.45	2476.8
817.7168	506.4287	3196.4	2412.35
817.861	508.5839	3137.9	2347.95
818.0051	510.7386	3122.7	2337
818.1493	512.8927	3117.85	2319.9
818.2935	515.0461	3142.75	2352.45
818.4377	517.199	3205.65	2415.25
818.5818	519.3512	3338.6	2547.4
818.726	521.5029	3567.05	2768.8
818.8703	523.6539	3812.95	3018.55
819.0145	525.8043	3854.15	3060.65
819.1587	527.9541	3700.3	2903.65
819.303	530.1033	3433.3	2636.65
819.4472	532.2519	3241.9	2446.15
819.5915	534.3999	3175.1	2374.1
819.7357	536.5472	3114.25	2314.85
819.88	538.694	3135.75	2341.1
820.0243	540.8401	3191.65	2390.55
820.1686	542.9856	3249.15	2450.6
820.3129	545.1305	3303.8	2499.85
820.4572	547.2748	3333.1	2531.55
820.6016	549.4185	3352.1	2549.6
820.7459	551.5615	3375.55	2574.65
820.8902	553.704	3421.4	2619.3
821.0346	555.8458	3482.45	2681.2
821.1789	557.987	3549.2	2746.6
821.3233	560.1276	3661.15	2858.75
821.4677	562.2675	3895.95	3096.3
821.6121	564.4069	4184.8	3383.1
821.7565	566.5456	4373.2	3572.55
821.9009	568.6837	4293.5	3488.9
822.0453	570.8212	3976.65	3172.85
822.1897	572.958	3637.35	2831.3
822.3342	575.0942	3393.7	2588.85
822.4786	577.2299	3275.1	2470.4
822.6231	579.3648	3200.75	2393.3
822.7675	581.4992	3183.5	2378.35
822.912	583.6329	3227.95	2421.5
823.0565	585.766	3323.5	2515.65
823.201	587.8985	3483.95	2677.45
823.3454	590.0304	3667.6	2847.65
823.4899	592.1616	3805	2991.9
823.6345	594.2922	3856.65	3045.1
823.779	596.4222	3776.7	2966
823.9235	598.5515	3568.05	2754.9
824.068	600.6802	3366.05	2555.15
824.2126	602.8083	3203.2	2391.9
824.3571	604.9358	3145.1	2331.05
824.5017	607.0626	3129.6	2314.7
824.6462	609.1888	3136.35	2322
824.7908	611.3144	3197.85	2381.6
824.9354	613.4393	3339.25	2526.7
825.08	615.5636	3530.7	2717
825.2246	617.6873	3695.85	2881.45
825.3692	619.8103	3833.3	3016.3
825.5138	621.9327	3847.25	3029.5
825.6584	624.0544	3751.4	2935.6
825.803	626.1756	3546.5	2731.2
825.9477	628.2961	3339.5	2521.3
826.0923	630.4159	3221.85	2402.95
826.237	632.5351	3195.25	2374.35
826.3816	634.6537	3195.4	2375.4
826.5263	636.7716	3149.35	2330.4
826.6709	638.8889	3150.35	2330.3
826.8156	641.0056	3185.95	2363.4
826.9603	643.1216	3222.95	2401.3
827.105	645.237	3249.7	2425.95
827.2497	647.3518	3211.1	2389.45
827.3944	649.4659	3102.75	2279.35
827.5391	651.5793	3024.05	2200.55
827.6838	653.6922	2984.1	2163.1
827.8285	655.8043	2935	2112.95
827.9733	657.9159	2897.4	2074.85
828.118	660.0268	2883.3	2059.5
828.2627	662.137	2861.65	2035.55
828.4075	664.2466	2886.4	2059.65
828.5522	666.3556	2879.45	2053.95
828.697	668.4639	2867.5	2040.35
828.8418	670.5716	2836.25	2013.5
828.9865	672.6786	2806.4	1979
829.1313	674.785	2792.8	1964.65
829.2761	676.8907	2784.95	1955.45
829.4209	678.9958	2789.9	1963.35
829.5657	681.1002	2792.85	1962.75
829.7105	683.204	2793.55	1961.45
829.8553	685.3072	2803.1	1973
830.0001	687.4097	2799.7	1970.45
830.1449	689.5115	2807.7	1977.7
830.2898	691.6127	2784.75	1954.55
830.4346	693.7132	2767.05	1936.25
830.5794	695.8131	2788	1948.05
830.7243	697.9123	2798.65	1962.9
830.8691	700.0109	2797.35	1963.95
831.014	702.1089	2823.65	1992.95
831.1588	704.2061	2869.8	2039.1
831.3037	706.3028	2964.4	2130.2
831.4486	708.3987	3060.85	2228.65
831.5935	710.4941	3125.7	2294
831.7383	712.5887	3138.4	2305.35
831.8832	714.6827	3128.85	2289.85
832.0281	716.7761	3073.05	2238.7
832.173	718.8688	3053.8	2217.7
832.3179	720.9608	3062.85	2223.05
832.4628	723.0522	3075.1	2237.2
832.6077	725.1429	3130.3	2292.45
832.7527	727.233	3254.6	2417.75
832.8976	729.3224	3444.6	2607.9
833.0425	731.4112	3656.35	2818.65
833.1874	733.4993	3756.2	2917.2
833.3324	735.5867	3613.05	2774.25
833.4773	737.6735	3364.85	2526.05
833.6222	739.7596	3115.9	2276.9
833.7672	741.845	2988.7	2149.2
833.9122	743.9298	2931.6	2091.45
834.0571	746.014	2919	2080.6
834.2021	748.0974	2923.3	2084.5
834.347	750.1802	2916.7	2077.75
834.492	752.2624	2922.75	2084
834.637	754.3439	2920.95	2078.8
834.782	756.4247	2945.2	2095.75
834.9269	758.5048	2959.65	2119.4
835.0719	760.5843	3046.5	2206.25
835.2169	762.6631	3149.75	2309.55
835.3619	764.7413	3340.45	2499.7
835.5069	766.8188	3622.55	2778.3
835.6519	768.8956	3930.1	3086.75
835.7969	770.9718	4155.1	3311.55
835.9419	773.0473	4116.15	3274.2
836.0869	775.1221	3993.6	3152.55
836.232	777.1962	3909.95	3067.25
836.377	779.2697	4120.15	3277.3
836.522	781.3426	4475.9	3615.45
836.667	783.4147	4790.7	3944.65
836.8121	785.4862	4814.25	3972.15
836.9571	787.557	4547.05	3703.35
837.1021	789.6271	4101.2	3255.55
837.2472	791.6966	3639.2	2793.7
837.3922	793.7654	3289.1	2442.75
837.5373	795.8335	3074.35	2229.75
837.6823	797.901	2960.3	2116.2
837.8274	799.9678	2898.45	2051.45
837.9724	802.0339	2894.15	2050.15
838.1175	804.0993	2934.35	2077.4
838.2626	806.1641	2936	2088.85
838.4076	808.2282	2892.2	2045.05
838.5527	810.2916	2849.85	2000.7
838.6978	812.3544	2773.75	1929.7
838.8428	814.4164	2751.75	1906.45
838.9879	816.4778	2762.4	1914.3
839.133	818.5385	2810.8	1962.95
839.2781	820.5986	2905	2056.7
839.4232	822.658	3093.75	2245.6
839.5682	824.7166	3342.75	2497.65
839.7133	826.7747	3614.55	2767.85
839.8584	828.832	3896.25	3048.45
840.0035	830.8886	4085	3233.65
840.1486	832.9446	4214.65	3364.8
840.2937	834.9999	4151.45	3304.95
840.4388	837.0545	3929.6	3075.65
840.5839	839.1085	3626.9	2775.75
840.729	841.1618	3345.25	2490.45
840.8741	843.2143	3149.25	2298.4
841.0192	845.2662	3016.25	2166.65
841.1643	847.3175	2959	2108.75
841.3095	849.368	2918.95	2068.5
841.4546	851.4179	2922.75	2073.2
841.5997	853.467	2920.85	2069.7
841.7448	855.5155	2939.25	2086.65
841.8899	857.5633	2956.85	2105.35
842.0351	859.6105	2956.2	2105.75
842.1802	861.6569	2909.45	2057.4
842.3253	863.7027	2858.25	2006.5
842.4704	865.7478	2817.6	1965.9
842.6156	867.7922	2767.6	1914.15
842.7607	869.8359	2738.45	1885.95
842.9058	871.8789	2729.8	1874.15
843.0509	873.9212	2749.15	1864.1
843.1961	875.9629	2732.65	1880.3
843.3412	878.0039	2783.3	1928.75
843.4863	880.0441	2830.6	1977.6
843.6315	882.0837	2886.2	2031.45
843.7766	884.1226	2968.8	2114.75
843.9218	886.1609	3090.7	2238.15
844.0669	888.1984	3256.65	2404.9
844.212	890.2352	3423.95	2571.85
844.3572	892.2714	3479.75	2622.8
844.5023	894.3069	3412.55	2556.6
844.6475	896.3416	3221.35	2366.8
844.7926	898.3757	3064.45	2208.9
844.9377	900.4091	2950.9	2095.45
845.0829	902.4418	2969.45	2109
845.228	904.4739	3058.2	2199.8
845.3732	906.5052	3143.05	2285
845.5183	908.5358	3155.1	2298.8
845.6635	910.5658	3098.5	2242.4
845.8086	912.595	2984.5	2130.9
845.9538	914.6236	2853.3	1998.35
846.0989	916.6515	2749.45	1892.7
846.2441	918.6786	2689.75	1832.8
846.3892	920.7051	2662.45	1804.1
846.5344	922.7309	2650.8	1792.6
846.6795	924.756	2655.25	1799.1
846.8246	926.7804	2691.75	1833.4
846.9698	928.8041	2738.75	1879.85
847.1149	930.8272	2796.35	1937.5
847.2601	932.8495	2826.95	1968.9
847.4052	934.8711	2857.1	1996.75
847.5504	936.892	2873.9	2013.35
847.6955	938.9123	2945.05	2084.25
847.8407	940.9318	3047.45	2189.95
847.9858	942.9506	3124.6	2264.3
848.131	944.9688	3123.75	2264.8
848.2761	946.9862	3040.5	2181.65
848.4213	949.003	2936	2077
848.5664	951.019	2854.9	1995.2
848.7115	953.0344	2789.8	1929.95
848.8567	955.0491	2746.2	1886
849.0018	957.063	2706.55	1845.75
849.147	959.0763	2696.3	1836.85
849.2921	961.0888	2693.3	1831.4
849.4373	963.1007	2693	1833.45
849.5824	965.1119	2662.85	1802.25
849.7275	967.1223	2632.85	1772.7
849.8727	969.1321	2606.35	1747.4
850.0178	971.1412	2605.6	1746.65
850.1629	973.1495	2579.65	1718.5
850.3081	975.1572	2623.55	1724.55
850.4532	977.1641	2621.75	1761.5
850.5983	979.1704	2622.4	1760.9
850.7435	981.1759	2618	1754.15
850.8886	983.1808	2587.6	1724.05
851.0337	985.1849	2561.5	1687.5
851.1788	987.1884	2543.85	1681.15
851.324	989.1911	2556.55	1692.35
851.4691	991.1932	2596.95	1733.35
851.6142	993.1945	2606.6	1743.25
851.7593	995.1951	2612.65	1748.15
851.9045	997.1951	2604.05	1735.85
852.0496	999.1943	2600.35	1738.1
852.1947	1001.1928	2601.05	1738.3
852.3398	1003.1906	2653.7	1788.65
852.4849	1005.1877	2723.9	1858.15
852.63	1007.1841	2822.9	1961
852.7751	1009.1798	2907.45	2046.05
852.9202	1011.1748	2885.25	2022.6
853.0653	1013.1691	2776.3	1910.75
853.2104	1015.1627	2674.8	1811.3
853.3555	1017.1556	2580.7	1714.7
853.5006	1019.1477	2509.3	1644.45
853.6457	1021.1392	2464.15	1602.45
853.7908	1023.1299	2439.85	1575.5
853.9359	1025.12	2433.4	1567.65
854.081	1027.1093	2462	1600.8
854.2261	1029.0979	2543.05	1683.85
854.3712	1031.0859	2616.3	1756.4
854.5163	1033.0731	2683.7	1820.45
854.6613	1035.0596	2677.65	1813.7
854.8064	1037.0454	2668.45	1802.9
854.9515	1039.0304	2620.1	1755.6
855.0965	1041.0148	2569.55	1707.4
855.2416	1042.9985	2488.35	1622.5
855.3867	1044.9814	2437.95	1574.65
855.5317	1046.9636	2425.2	1559.65
855.6768	1048.9452	2443.3	1581.1
855.8219	1050.926	2507.3	1644.6
855.9669	1052.9061	2573.3	1707.5
856.112	1054.8855	2610.25	1745.3
856.257	1056.8642	2605.75	1741.85
856.4021	1058.8421	2619.25	1747.95
856.5471	1060.8194	2603.9	1738.4
856.6921	1062.7959	2595.35	1727.95
856.8372	1064.7717	2582.15	1716.05
856.9822	1066.7469	2584.2	1717.85
857.1272	1068.7213	2597.35	1728.4
857.2723	1070.695	2642.1	1776.15
857.4173	1072.6679	2720.65	1853
857.5623	1074.6402	2815.45	1947.85
857.7073	1076.6117	2876	2003.1
857.8523	1078.5826	2822.15	1952.65
857.9973	1080.5527	2703.4	1831.45
858.1423	1082.5221	2570	1700.8
858.2873	1084.4908	2467.85	1599.7
858.4323	1086.4587	2399.35	1529.9
858.5773	1088.426	2359.4	1492.25
858.7223	1090.3925	2360.3	1490.25
858.8673	1092.3584	2372.7	1505.3
859.0123	1094.3235	2402.7	1537.3
859.1573	1096.2879	2482.8	1616.2
859.3022	1098.2515	2556.15	1687.65
859.4472	1100.2145	2636.7	1770.6
859.5922	1102.1767	2746.3	1876.35
859.7371	1104.1382	2887.7	2021
859.8821	1106.099	3073.45	2202.25
860.027	1108.0591	3252.05	2383.15
860.172	1110.0185	3399.6	2529.4
860.3169	1111.9771	3506.5	2639.25
860.4619	1113.9351	3668.2	2800.7
860.6068	1115.8923	3892.55	3024.5
860.7517	1117.8488	4081.5	3211.55
860.8967	1119.8045	3996.45	3127.2
861.0416	1121.7596	3665.95	2797.15
861.1865	1123.7139	3279.65	2410.85
861.3314	1125.6675	3039	2171
861.4763	1127.6204	2999.5	2129.95
861.6212	1129.5726	3078.6	2206.9
861.7661	1131.524	3103.3	2234.65
861.911	1133.4748	2999	2129.75
862.0559	1135.4248	2786.1	1914.15
862.2008	1137.3741	2612.35	1743.1
862.3457	1139.3226	2504	1632.15
862.4905	1141.2705	2479.75	1612.95
862.6354	1143.2176	2515.4	1640.45
862.7803	1145.164	2581.95	1712.6
862.9251	1147.1097	2601.6	1732.15
863.07	1149.0546	2534.55	1663.5
863.2148	1150.9989	2449.75	1578.55
863.3597	1152.9424	2369.4	1498.65
863.5045	1154.8852	2316.1	1445.45
863.6493	1156.8272	2292	1426
863.7942	1158.7686	2295.6	1418
863.939	1160.7092	2292.1	1423.7
864.0838	1162.6491	2298.45	1426.5
864.2286	1164.5883	2324.85	1454.35
864.3734	1166.5267	2380.65	1507.45
864.5182	1168.4644	2460.45	1587.75
864.663	1170.4014	2562.8	1690.55
864.8078	1172.3377	2689	1818.4
864.9526	1174.2732	2835.7	1964.15
865.0974	1176.2081	3111.1	2241.4
865.2421	1178.1421	3515.95	2640.45
865.3869	1180.0755	3963.65	3094.75
865.5317	1182.0082	4305.85	3434.5
865.6764	1183.9401	4361.25	3487.65
865.8212	1185.8713	4070.7	3199.45
865.9659	1187.8017	3629.2	2758.9
866.1106	1189.7315	3193.95	2325.65
866.2554	1191.6605	2924.9	2025.2
866.4001	1193.5888	2713.2	1843.7
866.5448	1195.5163	2600.75	1729.7
866.6895	1197.4432	2512.15	1641.55
866.8342	1199.3693	2457.35	1586
866.9789	1201.2947	2415.1	1538.05
867.1236	1203.2193	2377.3	1504.5
867.2683	1205.1432	2362	1486.55
867.413	1207.0664	2357.05	1485.65
867.5576	1208.9889	2365.9	1491.3
867.7023	1210.9106	2357.45	1486.7
867.847	1212.8316	2375.7	1505.4
867.9916	1214.7519	2417.4	1537.05
868.1363	1216.6715	2459.5	1588.1
868.2809	1218.5903	2500	1628.45
868.4255	1220.5084	2541.95	1670.5
868.5701	1222.4257	2590.2	1715.9
868.7148	1224.3424	2624.95	1752.7
868.8594	1226.2583	2675.65	1797.3
869.004	1228.1735	2764.15	1889.5
869.1486	1230.0879	2883.9	2012.15
869.2932	1232.0016	3028.6	2157.35
869.4377	1233.9146	3160.75	2285.7
869.5823	1235.8269	3200.3	2329.65
869.7269	1237.7384	3216.55	2342.8
869.8715	1239.6492	3199.75	2329
870.016	1241.5592	3244.7	2370.2
870.1606	1243.4686	3367.2	2495.35
870.3051	1245.3772	3602.2	2730.55
870.4496	1247.285	3879.15	3004.2
870.5941	1249.1922	4174.9	3301.7
870.7387	1251.0986	4419.75	3547.65
870.8832	1253.0042	4647.3	3775.05
871.0277	1254.9092	4919.3	4044.75
871.1722	1256.8134	5283.05	4410.2
871.3167	1258.7169	5619.6	4745.15
871.4611	1260.6196	5925.6	5053.3
871.6056	1262.5216	6140.05	5266.1
871.7501	1264.4229	6169.6	5298
871.8945	1266.3234	6071.85	5198.55
872.039	1268.2232	5886.25	5013.05
872.1834	1270.1223	5655.35	4780.9
872.3278	1272.0207	5509.65	4635
872.4723	1273.9183	5437.75	4558.5
872.6167	1275.8151	5406.15	4533.65
872.7611	1277.7113	5473.75	4599.5
872.9055	1279.6067	5737.6	4863.4
873.0499	1281.5014	6205.75	5328
873.1943	1283.3953	6865.1	5988.9
873.3386	1285.2885	7603.7	6729.55
873.483	1287.181	8253.1	7376.15
873.6274	1289.0727	8572.8	7701.7
873.7717	1290.9637	8435	7561.85
873.9161	1292.854	8017.2	7143.35
874.0604	1294.7435	7462.55	6589.5
874.2047	1296.6323	6953.45	6079.45
874.349	1298.5204	6521.85	5643.7
874.4933	1300.4077	6204.75	5330.55
874.6376	1302.2943	5983.15	5107.85
874.7819	1304.1802	5811.35	4937.8
874.9262	1306.0653	5666.25	4788.7
875.0705	1307.9497	5554.55	4681.5
875.2147	1309.8333	5460.8	4586.5
875.359	1311.7162	5371.85	4499
875.5032	1313.5984	5293.55	4415.9
875.6475	1315.4798	5251	4367.3
875.7917	1317.3605	5309.15	4420.55
875.9359	1319.2405	5358.45	4482.8
876.0801	1321.1197	5392.9	4514.55
876.2243	1322.9982	5334.3	4455.25
876.3685	1324.876	5172.35	4297.8
876.5127	1326.753	4897.85	4023.8
876.6569	1328.6293	4546.8	3670.35
876.801	1330.5048	4184.05	3306.85
876.9452	1332.3796	3849.45	2975.85
877.0893	1334.2537	3603.4	2699.3
877.2335	1336.127	3400.05	2525.6
877.3776	1337.9996	3292.3	2417
877.5217	1339.8714	3192.05	2315.55
877.6658	1341.7426	3166.45	2246.4
877.8099	1343.6129	3065.55	2190.65
877.954	1345.4826	2978.75	2103.15
878.0981	1347.3515	2933.85	2057.25
878.2422	1349.2196	2874.9	1998.45
878.3862	1351.087	2842.7	1967.4
878.5303	1352.9537	2836.9	1959.8
878.6743	1354.8197	2846	1968.95
878.8184	1356.6849	2870.05	1994.9
878.9624	1358.5493	2912.4	2037
879.1064	1360.4131	2997.35	2123.25
879.2504	1362.276	3143.05	2267.2
879.3944	1364.1383	3281.1	2406.1
879.5384	1365.9998	3358.05	2477.9
879.6823	1367.8606	3344.25	2468.9
879.8263	1369.7206	3318.85	2443.2
879.9702	1371.5799	3328.45	2449.8
880.1142	1373.4384	3325.9	2450.65
880.2581	1375.2962	3232.35	2356.25
880.402	1377.1533	3061.75	2186.9
880.5459	1379.0096	2912.1	2035.5
880.6898	1380.8652	2783	1907.05
880.8337	1382.7201	2671.85	1795
880.9776	1384.5742	2583.8	1707.45
881.1215	1386.4275	2503.4	1625.9
881.2653	1388.2802	2432.6	1557.85
881.4092	1390.132	2387.9	1511.1
881.553	1391.9832	2373.75	1494.9
881.6968	1393.8336	2342.75	1466.95
881.8406	1395.6832	2320.9	1441.8
881.9844	1397.5322	2289.4	1413.5
882.1282	1399.3803	2265.15	1385.95
882.272	1401.2278	2238.55	1360.55
882.4158	1403.0745	2213.25	1337.65
882.5595	1404.9204	2192.1	1317.05
882.7033	1406.7656	2163.55	1287.15
882.847	1408.6101	2150.2	1272.7
882.9908	1410.4538	2140.15	1264
883.1345	1412.2968	2144.5	1267.85
883.2782	1414.139	2158.7	1281.35
883.4219	1415.9805	2190.2	1313.4
883.5656	1417.8213	2223.15	1340.6
883.7092	1419.6613	2277.35	1402.25
883.8529	1421.5006	2391.2	1514.3
883.9965	1423.3391	2526.3	1648.25
884.1402	1425.1769	2710.2	1831.3
884.2838	1427.0139	2977.2	2100.5
884.4274	1428.8502	3299.75	2422
884.571	1430.6858	3555.35	2678.3
884.7146	1432.5206	3675.2	2798.2
884.8582	1434.3547	3676.7	2798.45
885.0018	1436.188	3616.35	2739.4
885.1453	1438.0206	3564.5	2688.8
885.2889	1439.8524	3514.65	2637.05
885.4324	1441.6835	3490.55	2613.8
885.5759	1443.5139	3521.05	2642.75
885.7194	1445.3435	3541.55	2665.9
885.8629	1447.1724	3546.85	2670.45
886.0064	1449.0005	3531.25	2653.1
886.1499	1450.8279	3515.7	2638.4
886.2933	1452.6545	3497.05	2619.9
886.4368	1454.4804	3483.8	2607.65
886.5802	1456.3056	3447.05	2563.2
886.7237	1458.13	3388.4	2513.15
886.8671	1459.9536	3319.55	2443.85
887.0105	1461.7766	3179.8	2301
887.1539	1463.5987	3050.05	2171.65
887.2972	1465.4202	2913.85	2037.9
887.4406	1467.2409	2774.45	1896.9
887.584	1469.0608	2657.85	1782.1
887.7273	1470.88	2542.95	1664.5
887.8706	1472.6984	2440.15	1565.5
888.0139	1474.5161	2361.3	1478.6
888.1572	1476.3331	2296.25	1422.4
888.3005	1478.1493	2247.55	1369.1
888.4438	1479.9648	2236.05	1359.3
888.5871	1481.7795	2243.7	1365.9
888.7303	1483.5935	2239.75	1363.55
888.8736	1485.4067	2240.8	1362.65
889.0168	1487.2192	2257.5	1380
889.16	1489.031	2265.95	1386.8
889.3032	1490.842	2269.8	1394.65
889.4464	1492.6522	2256.9	1378.75
889.5896	1494.4618	2262.7	1383.7
889.7327	1496.2705	2262.45	1384.2
889.8759	1498.0785	2245.9	1366.7
890.019	1499.8858	2220.95	1342.8
890.1622	1501.6924	2209.55	1333.1
890.3053	1503.4981	2187.55	1310.3
890.4484	1505.3032	2179.35	1301
890.5914	1507.1075	2160.3	1281.85
890.7345	1508.911	2125.5	1248.9
890.8776	1510.7138	2117.95	1239.75
891.0206	1512.5159	2090.25	1212
891.1637	1514.3172	2071.5	1194.7
891.3067	1516.1178	2057.15	1179.7
891.4497	1517.9176	2028.4	1148.3
891.5927	1519.7166	2016.3	1140.6
891.7357	1521.515	2016.3	1132.9
891.8786	1523.3126	2003.45	1126.2
892.0216	1525.1094	1979.4	1099
892.1645	1526.9055	1965.4	1089.3
892.3074	1528.7008	1946.05	1066.6
892.4503	1530.4954	1954.4	1070.35
892.5932	1532.2893	1944.35	1067.85
892.7361	1534.0824	1943.55	1060.6
892.879	1535.8747	1934.4	1057.9
893.0218	1537.6663	1924.7	1046.4
893.1647	1539.4572	1944	1066.25
893.3075	1541.2473	1939.8	1062.1
893.4503	1543.0367	1944.4	1067.5
893.5931	1544.8253	1951.15	1068.65
893.7359	1546.6132	1964.95	1084.95
893.8787	1548.4003	1995.05	1106
894.0214	1550.1867	2023.9	1139.5
894.1642	1551.9723	2047.35	1163.5
894.3069	1553.7572	2093.25	1213.5
894.4496	1555.5414	2148.3	1268.35
894.5923	1557.3247	2249.7	1372.5
894.735	1559.1074	2373.55	1497.2
894.8777	1560.8893	2522.75	1644.3
895.0204	1562.6705	2663.1	1785.55
895.163	1564.4509	2777	1901.1
895.3056	1566.2305	2820.85	1944.45
895.4482	1568.0094	2862.4	1984.95
895.5908	1569.7876	2860.6	1981.9
895.7334	1571.565	2841.55	1961.95
895.876	1573.3417	2852.3	1974.3
896.0186	1575.1176	2884.7	2008.1
896.1611	1576.8928	2934.9	2057.5
896.3036	1578.6672	3014.3	2138.65
896.4461	1580.4409	3134.8	2257.65
896.5886	1582.2138	3285.3	2406.15
896.7311	1583.986	3437.75	2560.45
896.8736	1585.7575	3612.3	2735.15
897.0161	1587.5282	3746.45	2870.9
897.1585	1589.2981	3872.9	2997
897.3009	1591.0673	3945.05	3066.9
897.4433	1592.8358	3972.95	3098
897.5857	1594.6035	3962.25	3083.05
897.7281	1596.3704	3921.05	3041.85
897.8705	1598.1366	3853.15	2974.7
898.0128	1599.9021	3741.5	2863.85
898.1551	1601.6668	3635.3	2755.4
898.2975	1603.4308	3560.95	2682.05
898.4398	1605.194	3541.45	2658.65
898.5821	1606.9564	3596.05	2718.2
898.7243	1608.7182	3775.9	2894.65
898.8666	1610.4791	4077.35	3200.15
899.0088	1612.2394	4463.6	3587.95
899.1511	1613.9988	4912.25	4034.85
899.2933	1615.7576	5295.7	4418.1
899.4355	1617.5156	5532	4648.55
899.5776	1619.2728	5506.3	4627.5
899.7198	1621.0293	5245.9	4369.5
899.862	1622.785	4822.45	3939.9
900.0041	1624.54	4325.9	3443.55
900.1462	1626.2942	3877.2	2998.5
900.2883	1628.0477	3452.95	2574.55
900.4304	1629.8005	3104.65	2221.05
900.5725	1631.5525	2833.75	1954.85
900.7145	1633.3037	2615.05	1736.8
900.8566	1635.0542	2452.75	1577.2
900.9986	1636.804	2325	1447.4
901.1406	1638.553	2278.9	1340.65
901.2826	1640.3013	2149.75	1272.8
901.4245	1642.0488	2077	1199.5
901.5665	1643.7955	2030.05	1153.4
901.7085	1645.5416	1989.1	1112.6
901.8504	1647.2868	1946.25	1069.35
901.9923	1649.0313	1920.5	1043.15
902.1342	1650.7751	1906.65	1022.95
902.2761	1652.5181	1892	1014.25
902.4179	1654.2604	1893	1014.45
902.5598	1656.0019	1901.35	1025.75
902.7016	1657.7427	1953.75	1075.1
902.8434	1659.4828	2012.75	1134.9
902.9852	1661.222	2120.8	1243.5
903.127	1662.9606	2254.8	1379.05
903.2687	1664.6984	2425.95	1546.3
903.4105	1666.4354	2503.9	1624.55
903.5522	1668.1717	2497	1619.25
903.6939	1669.9072	2378.9	1501.15
903.8356	1671.642	2199.6	1321.4
903.9773	1673.3761	2028.9	1150.25
904.119	1675.1094	1883.4	1005
904.2606	1676.8419	1772.05	893.85
904.4022	1678.5737	1723	845.3
904.5439	1680.3048	1680.7	802.8
904.6855	1682.0351	1645.45	766.95
904.827	1683.7646	1617.25	736.7
904.9686	1685.4934	1603.15	724.75
905.1101	1687.2215	1584.25	705.15
905.2517	1688.9488	1572.4	693.45
905.3932	1690.6754	1560.6	683.55
905.5347	1692.4012	1557.1	681.05
905.6761	1694.1263	1552.85	676.9
905.8176	1695.8506	1547.1	669.8
905.9591	1697.5742	1539.45	663.6
906.1005	1699.297	1525.75	647.7
906.2419	1701.0191	1522.35	645.2
906.3833	1702.7404	1516.65	641.45
906.5246	1704.461	1506.6	629.3
906.666	1706.1808	1496.3	615.85
906.8073	1707.8999	1491.95	613.8
906.9487	1709.6182	1487.1	609.75
907.09	1711.3358	1484.2	607.25
907.2313	1713.0527	1481.15	604.75
907.3725	1714.7688	1477.3	595.7
907.5138	1716.4841	1470.65	589.8
907.655	1718.1987	1472.8	590.2
907.7962	1719.9126	1463.25	587.45
907.9374	1721.6257	1459.25	579.85
908.0786	1723.338	1456	580.2
908.2198	1725.0496	1456.1	578.65
908.3609	1726.7605	1449.05	569.9
908.502	1728.4706	1446.4	567.5
908.6431	1730.18	1443.3	563.85
908.7842	1731.8886	1438.8	561.45
908.9253	1733.5964	1455.75	557.45
909.0664	1735.3036	1429.5	551
909.2074	1737.0099	1425.15	547.9
909.3484	1738.7156	1429.4	551.05
909.4894	1740.4204	1420.95	539.2
909.6304	1742.1246	1430.1	549
909.7714	1743.8279	1420.95	543.55
909.9123	1745.5306	1422.1	545.45
910.0532	1747.2325	1414.25	534.8
910.1941	1748.9336	1417.5	540.25
910.335	1750.634	1414.85	536.65
910.4759	1752.3336	1410.95	532.2
910.6168	1754.0325	1402.7	528.4
910.7576	1755.7307	1399.15	520.95
910.8984	1757.4281	1400.9	522.75
911.0392	1759.1247	1412.35	525.8
911.18	1760.8206	1406.25	523.45
911.3208	1762.5158	1407.85	526.2
911.4615	1764.2102	1393.15	515.85
911.6022	1765.9039	1392.1	514.6
911.7429	1767.5968	1394.65	517.65
911.8836	1769.289	1394.25	515.95
912.0243	1770.9804	1397.75	518.85
912.1649	1772.6711	1389.25	510.7
912.3056	1774.361	1381.95	503.8
912.4462	1776.0502	1383.3	504.2
912.5868	1777.7386	1385.9	504.5
912.7274	1779.4263	1379.75	502.75
912.8679	1781.1132	1385.9	506.5
913.0084	1782.7994	1385.25	507.85
913.149	1784.4849	1381.7	504.95
913.2895	1786.1696	1393	498.75
913.4299	1787.8535	1369.35	491.55
913.5704	1789.5367	1374.05	495.45
913.7108	1791.2192	1369.4	491.65
913.8513	1792.9009	1379.3	487.95
913.9917	1794.5818	1361.3	483.3
914.132	1796.2621	1360.85	481.8
914.2724	1797.9415	1363.15	484.6
914.4128	1799.6202	1360.9	481.15
914.5531	1801.2982	1360.65	483.4
914.6934	1802.9755	1355.65	477.3
914.8337	1804.6519	1356.3	477
914.9739	1806.3277	1350.75	474.8
915.1142	1808.0027	1346.9	470.25
915.2544	1809.6769	1352.05	472.6
915.3946	1811.3504	1349.15	468.9
915.5348	1813.0231	1350.15	471.05
915.675	1814.6951	1344.05	465.8
915.8151	1816.3664	1351.25	472
915.9553	1818.0369	1350.45	472.2
916.0954	1819.7067	1343.85	466.6
916.2355	1821.3757	1345.5	465.5
916.3755	1823.044	1340.05	460.5
916.5156	1824.7115	1343.15	464.75
916.6556	1826.3783	1337.8	461.1
916.7956	1828.0443	1337.95	461.05
916.9356	1829.7096	1340.9	460.45
917.0756	1831.3741	1346.75	463
917.2155	1833.0379	1338.35	462.05
917.3555	1834.701	1340.05	461.25
917.4954	1836.3633	1330.65	452.45
917.6353	1838.0248	1332.1	451.5
917.7751	1839.6856	1336.8	459.3
917.915	1841.3457	1333.35	457.3
918.0548	1843.005	1332.75	456.5
918.1946	1844.6636	1328.25	449.3
918.3344	1846.3214	1322.5	443.7
918.4742	1847.9785	1328.85	452.45
918.6139	1849.6349	1326.15	445.35
918.7537	1851.2904	1335.1	447.85
918.8934	1852.9453	1333.15	455.25
919.0331	1854.5994	1331.45	451.1
919.1727	1856.2528	1329.5	445.3
919.3124	1857.9054	1323.35	443.55
919.452	1859.5572	1322.75	444.45
919.5916	1861.2083	1320.45	440.1
919.7312	1862.8587	1313.2	434.8
919.8708	1864.5084	1316.8	438.2
920.0103	1866.1572	1315.7	439.8
920.1498	1867.8054	1316.75	439.55
920.2893	1869.4528	1311.3	432.35
920.4288	1871.0994	1308.35	430.1
920.5683	1872.7453	1315.1	435.95
920.7077	1874.3905	1316.35	430.3
920.8471	1876.0349	1305.2	426.75
920.9865	1877.6786	1312.05	431.5
921.1259	1879.3215	1309.1	430.45
921.2653	1880.9637	1314.75	434.65
921.4046	1882.6051	1309.4	430.3
921.5439	1884.2458	1303.3	423.4
921.6832	1885.8858	1299.9	422.1
921.8225	1887.525	1306.45	427.85
921.9617	1889.1634	1298.1	422.75
922.101	1890.8011	1298	418.65
922.2402	1892.4381	1291.45	413.65
922.3794	1894.0743	1296.35	418.75
922.5185	1895.7098	1291.15	412.45
922.6577	1897.3446	1291.5	414.15
922.7968	1898.9786	1289.85	406.65
922.9359	1900.6118	1289.65	413.65
923.075	1902.2443	1286.75	405.3
923.214	1903.8761	1283.55	407.9
923.3531	1905.5071	1280.45	400.95
923.4921	1907.1374	1285.65	406.8
923.6311	1908.7669	1281.15	403.5
923.77	1910.3957	1279.35	400.75
923.909	1912.0237	1279.95	402.45
924.0479	1913.651	1278.5	399.8
924.1868	1915.2776	1274.55	396.2
924.3257	1916.9034	1270.8	395.15
924.4646	1918.5285	1269.95	391.9
924.6034	1920.1528	1273.6	392.5
924.7422	1921.7764	1267.3	389.4
924.881	1923.3992	1263.45	386.1
925.0198	1925.0213	1263.4	384.75
925.1586	1926.6427	1260.35	383.2
925.2973	1928.2633	1347.35	383.45
925.436	1929.8832	1264.3	386.8
925.5747	1931.5023	1253.2	374.75
925.7134	1933.1207	1255.8	377.7
925.852	1934.7383	1260.75	380.25
925.9906	1936.3552	1261.55	383.15
926.1292	1937.9714	1265	387.05
926.2678	1939.5868	1259	378
926.4064	1941.2015	1251.75	373
926.5449	1942.8154	1247.2	368.75
926.6834	1944.4286	1251.5	373.35
926.8219	1946.041	1284.5	371.3
926.9604	1947.6528	1254.75	371.1
927.0988	1949.2637	1248.5	371.45
927.2372	1950.8739	1247.3	368.6
927.3756	1952.4834	1250.85	372.55
927.514	1954.0921	1240.9	362.4
927.6523	1955.7001	1252	371.2
927.7907	1957.3074	1241.65	364.05
927.929	1958.9139	1238.1	361.1
928.0673	1960.5197	1235.45	354.25
928.2055	1962.1247	1239.45	362.35
928.3438	1963.729	1233.8	358.15
928.482	1965.3325	1261	357.2
928.6202	1966.9353	1233.3	357.1
928.7584	1968.5374	1231.1	351.3
928.8965	1970.1387	1230.75	353.75
929.0346	1971.7393	1229.35	351.95
929.1727	1973.3392	1224.25	344.15
929.3108	1974.9383	1226.3	348.45
929.4489	1976.5366	1219.25	340.6
929.5869	1978.1342	1224.8	346.5
929.7249	1979.7311	1222.8	342.75
929.8629	1981.3273	1220.9	345.1
930.0009	1982.9227	1217.8	336.65
930.1388	1984.5173	1221.05	343.85
930.2767	1986.1112	1217.65	340.4
930.4146	1987.7044	1217.3	340.5
930.5525	1989.2968	1218.7	340.55
930.6904	1990.8885	1222.15	339.9
930.8282	1992.4795	1216.9	337.45
930.966	1994.0697	1215.3	336.5
931.1038	1995.6592	1220.95	344.35
931.2415	1997.2479	1214.75	336.7
931.3793	1998.8359	1209.25	334.5
931.517	2000.4232	1205.15	328.25
931.6547	2002.0097	1208.05	331.3
931.7923	2003.5955	1205.35	327.65
931.93	2005.1805	1210.55	330.4
932.0676	2006.7648	1205.55	329.75
932.2052	2008.3484	1211	330.85
932.3427	2009.9312	1208.05	329.35
932.4803	2011.5133	1205.1	329.2
932.6178	2013.0946	1204.35	327.15
932.7553	2014.6752	1198.6	322.95
932.8928	2016.2551	1204.6	327.05
933.0302	2017.8342	1196.85	319.7
933.1676	2019.4126	1207.3	333.95
933.305	2020.9902	1198.05	322.05
933.4424	2022.5672	1203.4	324.35
933.5798	2024.1433	1204.4	322.25
933.7171	2025.7188	1199	322.4
933.8544	2027.2935	1197.25	319.35
933.9917	2028.8674	1191	314.15
934.129	2030.4406	1196.2	318.35
934.2662	2032.0131	1194	316.8
934.4034	2033.5849	1193.7	308.55
934.5406	2035.1559	1193.45	318.85
934.6778	2036.7261	1189.75	313.6
934.8149	2038.2957	1192.75	316.05
934.952	2039.8645	1183.8	306.35
935.0891	2041.4325	1194.05	312.35
935.2262	2042.9998	1183.2	306.55
935.3632	2044.5664	1188.45	309.35
935.5002	2046.1323	1181.5	304.45
935.6372	2047.6974	1185.45	309.3
935.7742	2049.2617	1184.9	308.6
935.9111	2050.8254	1217.05	304.1
936.048	2052.3883	1186.75	309.3
936.1849	2053.9504	1184.25	305.8
936.3218	2055.5118	1183.65	305.85
936.4586	2057.0725	1179.5	299.2
936.5955	2058.6325	1180.5	301.45
936.7323	2060.1917	1177.95	300.7
936.869	2061.7502	1190.3	308.4
937.0058	2063.3079	1175.05	300.25
937.1425	2064.8649	1183.35	301
937.2792	2066.4212	1178.35	299.75
937.4159	2067.9767	1178.85	301.5
937.5525	2069.5315	1177.15	299.85
937.6891	2071.0856	1182.75	305.55
937.8257	2072.6389	1173.5	294
937.9623	2074.1915	1170.85	295.9
938.0989	2075.7433	1170.95	291.65
938.2354	2077.2945	1167.4	292.7
938.3719	2078.8448	1168.8	290.9
938.5084	2080.3945	1171.05	292.1
938.6448	2081.9434	1175.05	298.95
938.7812	2083.4916	1170.1	292.3
938.9176	2085.039	1175.05	296.05
939.054	2086.5857	1167.15	289.2
939.1903	2088.1317	1167.4	289.75
939.3267	2089.677	1162.85	282.9
939.463	2091.2215	1164.05	288.35
939.5992	2092.7652	1166.05	286.15
939.7355	2094.3083	1166.8	291.25
939.8717	2095.8506	1161.6	283.75
940.0079	2097.3921	1164.05	288
940.1441	2098.933	1159.15	282.8
940.2802	2100.4731	1157.5	278.4
940.4163	2102.0124	1178.5	282.05
940.5524	2103.5511	1159.7	283.15
940.6885	2105.089	1162.1	281.45
940.8245	2106.6261	1155	276.7
940.9606	2108.1626	1167.2	288.65
941.0965	2109.6983	1184.65	281.3
941.2325	2111.2332	1158.8	280.4
941.3684	2112.7675	1157.3	277
941.5044	2114.301	1153.05	272.85
941.6403	2115.8337	1161.3	283.45
941.7761	2117.3657	1155.55	279.75
941.912	2118.897	1159.2	281.9
942.0478	2120.4276	1157.85	273.05
942.1835	2121.9575	1150.45	274.05
942.3193	2123.4866	1163.7	270.25
942.455	2125.0149	1154.35	275.6
942.5907	2126.5426	1147.1	269.8
942.7264	2128.0695	1150.75	270.1
942.8621	2129.5956	1151.3	275.75
942.9977	2131.1211	1149.35	265.65
943.1333	2132.6458	1146.95	270.45
943.2689	2134.1698	1143.8	265.2
943.4044	2135.693	1148.2	268.65
943.54	2137.2155	1146.15	266.65
943.6755	2138.7373	1145.25	269.15
943.8109	2140.2584	1148.1	270.2
943.9464	2141.7787	1148.9	265.5
944.0818	2143.2983	1145.6	267.55
944.2172	2144.8171	1140.05	264.45
944.3526	2146.3353	1144.3	266.55
944.4879	2147.8527	1142	265.3
944.6232	2149.3693	1145.9	268.55
944.7585	2150.8853	1143.35	263.4
944.8938	2152.4005	1145.85	269.3
945.029	2153.9149	1141.85	264.5
945.1642	2155.4287	1141.3	262.85
945.2994	2156.9417	1143.35	264.3
945.4346	2158.454	1142.3	262.55
945.5697	2159.9655	1137.05	261.65
945.7048	2161.4764	1139.4	263.05
945.8399	2162.9865	1139.65	262.55
945.9749	2164.4958	1136.5	259.4
946.1099	2166.0045	1142.5	261.2
946.2449	2167.5124	1137.6	260.35
946.3799	2169.0195	1136.1	258.5
946.5148	2170.526	1130.6	250.05
946.6498	2172.0317	1137.45	258.8
946.7846	2173.5367	1138.9	260.25
946.9195	2175.0409	1132.55	256.85
947.0543	2176.5445	1132.7	256.05
947.1891	2178.0473	1128.85	249.95
947.3239	2179.5494	1131.3	250.55
947.4587	2181.0507	1128.95	251.7
947.5934	2182.5513	1127.65	250.3
947.7281	2184.0512	1134.7	257.35
947.8628	2185.5504	1125.5	249.3
947.9974	2187.0488	1130.05	250.6
948.132	2188.5465	1126.85	250
948.2666	2190.0435	1131.45	255.15
948.4012	2191.5397	1126.65	248.55
948.5357	2193.0353	1125.15	250.2
948.6702	2194.5301	1126.15	246.25
948.8047	2196.0241	1127.65	248.7
948.9392	2197.5175	1126.05	249.6
949.0736	2199.0101	1130.4	249.85
949.208	2200.502	1124.6	247.9
949.3424	2201.9931	1125.65	249.85
949.4767	2203.4835	1126.75	245.95
949.611	2204.9733	1136.7	242.25
949.7453	2206.4622	1115.1	239.8
949.8796	2207.9505	1125.8	246.35
950.0138	2209.438	1116.6	240.45
950.148	2210.9248	1120.3	239.1
950.2822	2212.4109	1119.05	243
950.4164	2213.8962	1114.7	234.8
950.5505	2215.3809	1120	240.15
950.6846	2216.8648	1120.65	242.4
950.8186	2218.3479	1113.95	229.85
950.9527	2219.8304	1117.55	239.2
951.0867	2221.3121	1112.8	234.35
951.2207	2222.7931	1111.2	236.95
951.3546	2224.2733	1111.05	234.2
951.4886	2225.7529	1112.3	232.85
951.6225	2227.2317	1116.7	236.8
951.7563	2228.7098	1105.05	227.15
951.8902	2230.1872	1105.5	227.95
952.024	2231.6638	1109.75	233.8
952.1578	2233.1397	1112.35	230.25
952.2916	2234.6149	1111.7	235.65
952.4253	2236.0894	1110.25	231.4
952.559	2237.5632	1118.15	228.65
952.6927	2239.0362	1105	227.3
952.8263	2240.5085	1106.1	227.15
952.9599	2241.9801	1104.4	226.65
953.0935	2243.4509	1105.15	228.75
953.2271	2244.921	1102.65	224.7
953.3606	2246.3904	1099.75	220.55
953.4941	2247.8591	1096.85	220.75
953.6276	2249.3271	1099.85	224.7
953.7611	2250.7943	1097.2	218.35
953.8945	2252.2608	1100.9	222.75
954.0279	2253.7266	1099.7	222.85
954.1612	2255.1917	1091.3	213.7
954.2946	2256.656	1096.05	215.65
954.4279	2258.1197	1093.65	216.45
954.5612	2259.5826	1099.5	219.8
954.6944	2261.0447	1094.75	216.05
954.8276	2262.5062	1097.15	219.2
954.9608	2263.9669	1093.95	215.85
955.094	2265.4269	1089.95	213.15
955.2271	2266.8862	1093.65	215.35
955.3602	2268.3448	1092.8	214.35
955.4933	2269.8026	1092.4	214.2
955.6264	2271.2598	1087.8	210.6
955.7594	2272.7162	1090.55	215.6
955.8924	2274.1719	1088.45	213.8
956.0253	2275.6268	1091	216.1
956.1583	2277.0811	1088.25	209.35
956.2912	2278.5346	1086	209.3
956.4241	2279.9874	1093.15	216.55
956.5569	2281.4395	1086.3	207.9
956.6897	2282.8908	1093.7	211.6
956.8225	2284.3414	1093	212.9
956.9553	2285.7914	1086.95	209.95
957.088	2287.2406	1093.15	216.1
957.2207	2288.689	1089.45	213.65
957.3534	2290.1368	1090.55	212.8
957.486	2291.5838	1091.35	210.45
957.6186	2293.0302	1089.65	208.7
957.7512	2294.4758	1083.75	207.55
957.8838	2295.9206	1090.15	209
958.0163	2297.3648	1089.6	210.85
958.1488	2298.8082	1087.5	211
958.2813	2300.251	1083	203.4
958.4137	2301.693	1081.55	201.7
958.5461	2303.1343	1091.4	215
958.6785	2304.5748	1090.3	210.95
958.8108	2306.0147	1082.55	203.65
958.9432	2307.4538	1082.15	199.75
959.0754	2308.8922	1077.3	200.85
959.2077	2310.3299	1086.15	207.55
959.3399	2311.7669	1076.9	199.2
959.4721	2313.2031	1078.35	199.45
959.6043	2314.6387	1075.05	197.2
959.7365	2316.0735	1074.35	196.45
959.8686	2317.5076	1079.95	201.8
960.0006	2318.941	1080.25	202.5
960.1327	2320.3737	1082.4	206.3
960.2647	2321.8056	1078.75	197.75
960.3967	2323.2369	1079.75	201
960.5287	2324.6674	1079.25	199.1
960.6606	2326.0972	1080.35	201.9
960.7925	2327.5263	1084.55	209.5
960.9244	2328.9547	1084.85	206.45
961.0562	2330.3823	1083.25	206
961.1881	2331.8092	1080.15	199.1
961.3198	2333.2355	1073.8	195.85
961.4516	2334.661	1075.05	196.65
961.5833	2336.0858	1070.2	190.35
961.715	2337.5098	1073.25	195.2
961.8467	2338.9332	1077.1	198.35
961.9783	2340.3558	1075.45	195.5
962.1099	2341.7778	1074.3	196.95
962.2415	2343.199	1074.15	195.3
962.373	2344.6195	1071.05	192.8
962.5045	2346.0393	1068.75	192.7
962.636	2347.4583	1072.45	194.7
962.7675	2348.8767	1068.75	189.35
962.8989	2350.2943	1071.6	194.05
963.0303	2351.7113	1067	186.65
963.1617	2353.1275	1066.7	189.3
963.293	2354.543	1076.25	189.95
963.4243	2355.9578	1070	193.5
963.5556	2357.3718	1067.9	188.95
963.6868	2358.7852	1070.35	189.4
963.818	2360.1978	1065.45	188.4
963.9492	2361.6098	1067.3	187.95
964.0803	2363.021	1070.6	189.95
964.2114	2364.4315	1065.45	190.15
964.3425	2365.8413	1069.15	191.55
964.4736	2367.2504	1067.75	190.1
964.6046	2368.6587	1068	190.55
964.7356	2370.0664	1065.95	187.85
964.8666	2371.4733	1067.2	189.8
964.9975	2372.8795	1066.85	189.7
965.1284	2374.285	1069.25	191.8
965.2593	2375.6899	1061.75	183.95
965.3901	2377.0939	1068.55	190.55
965.5209	2378.4973	1064.05	187.05
965.6517	2379.9	1067.7	188.15
965.7825	2381.3019	1068.55	191.75
965.9132	2382.7032	1065.3	187.15
966.0439	2384.1037	1066.35	191.45
966.1745	2385.5035	1059.4	181.2
966.3051	2386.9027	1062.45	185.4
966.4357	2388.3011	1068.05	185.1
966.5663	2389.6987	1058.2	179.75
966.6968	2391.0957	1057.1	176.6
966.8273	2392.492	1056.8	180.4
966.9578	2393.8876	1054.35	176.6
967.0882	2395.2824	1059.3	183.1
967.2186	2396.6765	1054.8	178.7
967.349	2398.07	1054.85	177.6
967.4793	2399.4627	1058.85	179.95
967.6097	2400.8547	1053.8	175.2
967.7399	2402.246	1064.5	178.6
967.8702	2403.6366	1057.95	179.05
968.0004	2405.0265	1054.2	175
968.1306	2406.4156	1058.3	177.6
968.2607	2407.8041	1060.55	177.5
968.3909	2409.1918	1054.7	176.15
968.521	2410.5789	1057.35	178.9
968.651	2411.9652	1058.85	177.95
968.781	2413.3508	1054.25	173.05
968.911	2414.7358	1051.7	173.55
969.041	2416.12	1052.8	175.15
969.1709	2417.5035	1048.4	171.8
969.3008	2418.8863	1055.5	175.8
969.4307	2420.2684	1049.2	169.95
969.5606	2421.6497	1051.3	173.05
969.6904	2423.0304	1046.4	169.8
969.8201	2424.4104	1051.55	170.8
969.9499	2425.7896	1051.25	170.95
970.0796	2427.1682	1050.05	171.6
970.2093	2428.546	1049.9	169
970.3389	2429.9232	1050.35	170.4
970.4685	2431.2996	1050.4	172.9
970.5981	2432.6753	1048.4	169.85
970.7277	2434.0503	1048.75	167.65
970.8572	2435.4246	1047.75	171.4
970.9867	2436.7982	1054.75	173
971.1161	2438.1711	1045.05	169.05
971.2456	2439.5433	1048.3	170.55
971.375	2440.9148	1044.7	166.85
971.5043	2442.2856	1042.8	166.55
971.6336	2443.6557	1047.05	167.8
971.7629	2445.025	1047.2	170.95
971.8922	2446.3937	1044.75	166.75
972.0214	2447.7617	1043.15	163.1
972.1506	2449.1289	1044.35	166.75
972.2798	2450.4955	1045.95	163.8
972.4089	2451.8613	1042.45	163.6
972.538	2453.2265	1041.05	164
972.6671	2454.5909	1046.6	168.45
972.7961	2455.9546	1040.15	162.65
972.9251	2457.3177	1040.35	163.45
973.0541	2458.68	1043.95	165.75
973.1831	2460.0416	1040.25	161.05
973.312	2461.4025	1041.75	160.75
973.4408	2462.7627	1050.9	161.35
973.5697	2464.1222	1044.4	168.1
973.6985	2465.4811	1043.2	164.45
973.8273	2466.8392	1042.7	163.45
973.956	2468.1966	1048.15	168.2
974.0847	2469.5533	1046.55	167.25
974.2134	2470.9093	1039.6	163.05
974.3421	2472.2645	1042.05	162.7
974.4707	2473.6191	1038.25	159.3
974.5993	2474.973	1043.2	164.85
974.7278	2476.3262	1042.95	162.75
974.8563	2477.6787	1040.5	162
974.9848	2479.0305	1043.3	166.65
975.1132	2480.3816	1040	161.4
975.2417	2481.7319	1039.2	163.45
975.37	2483.0816	1041	161.6
975.4984	2484.4306	1041.45	162.3
975.6267	2485.7789	1039.8	162.05
975.755	2487.1264	1038.1	158.2
975.8833	2488.4733	1041.65	164.5
976.0115	2489.8195	1046.6	161.6
976.1397	2491.165	1046.6	166.15
976.2678	2492.5097	1043	163.9
976.3959	2493.8538	1039	162.25
976.524	2495.1972	1039.7	161.85
976.6521	2496.5398	1039.35	160.4
976.7801	2497.8818	1040.25	160.55
976.9081	2499.2231	1034.65	154.85
977.036	2500.5637	1032.05	151
977.164	2501.9035	1038.6	161.1
977.2918	2503.2427	1040.8	159.1
977.4197	2504.5812	1038.1	162.2
977.5475	2505.919	1038.35	158.25
977.6753	2507.256	1038.45	160.7
977.8031	2508.5924	1035.65	157
977.9308	2509.9281	1037.45	153.75
978.0585	2511.2631	1032	155.4
978.1861	2512.5974	1036.75	158.95
978.3137	2513.9309	1035.45	157.5
978.4413	2515.2638	1059.85	154
978.5689	2516.596	1034.35	155.75
978.6964	2517.9275	1032.9	153.9
978.8239	2519.2583	1030.7	151.8
978.9513	2520.5884	1030.25	150.05
979.0788	2521.9178	1034.65	154.4
979.2062	2523.2465	1032.1	154.15
979.3335	2524.5745	1031.1	152.65
979.4608	2525.9018	1030.75	151.65
979.5881	2527.2284	1030	153.6
979.7154	2528.5543	1033.45	157.35
979.8426	2529.8796	1029.6	153
979.9698	2531.2041	1034.35	157.25
980.0969	2532.5279	1031.2	153.15
980.224	2533.851	1029.25	150.45
980.3511	2535.1735	1028.7	150.2
980.4781	2536.4952	1029.25	150.2
980.6052	2537.8163	1031.5	152.5
980.7321	2539.1366	1027.1	149.45
980.8591	2540.4562	1031.4	151.55
980.986	2541.7752	1028.85	151.3
981.1129	2543.0935	1029.6	150.95
981.2397	2544.411	1028	147.8
981.3665	2545.7279	1030	152
981.4933	2547.0441	1024.5	146.35
981.62	2548.3596	1027.4	147.25
981.7467	2549.6744	1025.85	147.95
981.8734	2550.9885	1033.9	148.55
982.0001	2552.3019	1024.8	147.8
982.1267	2553.6146	1029.3	151.65
982.2532	2554.9266	1025.1	148.6
982.3798	2556.2379	1025.25	144.2
982.5063	2557.5485	1024.75	150.3
982.6327	2558.8585	1032.3	147.1
982.7592	2560.1677	1029.95	149
982.8856	2561.4762	1024.2	146.4
983.0119	2562.7841	1030.25	149.3
983.1383	2564.0913	1026.5	150.15
983.2646	2565.3977	1027.5	151.6
983.3908	2566.7035	1027.35	148.5
983.517	2568.0086	1025.25	144.5
983.6432	2569.313	1023.7	144.15
983.7694	2570.6167	1028.65	149
983.8955	2571.9197	1022.25	145.15
984.0216	2573.222	1025.45	142.3
984.1476	2574.5236	1023.85	144.2
984.2737	2575.8246	1022	141.05
984.3996	2577.1248	1027.2	147.75
984.5256	2578.4244	1028.05	151.55
984.6515	2579.7232	1025.4	147.4
984.7774	2581.0214	1047.1	142.8
984.9032	2582.3189	1021.45	145.05
985.029	2583.6157	1028.45	146.3
985.1548	2584.9118	1025.2	148.3
985.2806	2586.2072	1028.05	148.75
985.4063	2587.5019	1023.4	144.95
985.5319	2588.7959	1026.95	148.4
985.6576	2590.0893	1030.9	151.05
985.7832	2591.3819	1029.9	152.4
985.9087	2592.6739	1024.4	146.05
986.0343	2593.9652	1027.95	146.85
986.1597	2595.2557	1028.85	151.3
986.2852	2596.5456	1031.7	151
986.4106	2597.8348	1030.25	152.55
986.536	2599.1234	1030.85	153.15
986.6614	2600.4112	1033.65	156.55
986.7867	2601.6983	1037.65	155.95
986.912	2602.9848	1033.9	155.2
987.0372	2604.2705	1038.85	154.6
987.1624	2605.5556	1035.1	156.25
987.2876	2606.84	1033.7	156.5
987.4128	2608.1237	1032.3	151.85
987.5379	2609.4067	1029.7	150.35
987.6629	2610.689	1037.25	149.5
987.788	2611.9707	1032.6	152.65
987.913	2613.2516	1033.5	152.55
988.0379	2614.5319	1023.8	147.45
988.1629	2615.8115	1021.15	141.5
988.2878	2617.0903	1026.55	149.25
988.4126	2618.3685	1026.3	148.75
988.5375	2619.6461	1024.95	146.45
988.6622	2620.9229	1022.9	143.8
988.787	2622.199	1023.05	141.8
988.9117	2623.4745	1024.5	144.95
989.0364	2624.7493	1022.3	145.1
989.161	2626.0234	1021.15	145
989.2857	2627.2968	1024.35	146.05
989.4102	2628.5695	1024	144.65
989.5348	2629.8415	1020.3	142.4
989.6593	2631.1128	1021.6	140.95
989.7837	2632.3835	1020.25	143.65
989.9082	2633.6535	1019.35	142.3
990.0326	2634.9228	1021.7	144.1
990.1569	2636.1914	1018.15	139.95
990.2812	2637.4593	1020.6	140.35
990.4055	2638.7265	1019.55	139.75
990.5298	2639.9931	1025.25	150
990.654	2641.259	1021.85	142.85
990.7782	2642.5242	1024.25	146
990.9023	2643.7887	1021.15	144.05
991.0264	2645.0525	1012.9	134.9
991.1505	2646.3156	1017.35	138.25
991.2745	2647.5781	1016.2	139.25
991.3985	2648.8398	1009.95	129.55
991.5225	2650.1009	1051.55	135.85
991.6464	2651.3613	1017.3	138.65
991.7703	2652.6211	1016.6	139.95
991.8942	2653.8801	1012.9	137.05
992.018	2655.1385	1019.5	138.35
992.1418	2656.3961	1011.65	133.7
992.2655	2657.6531	1012.85	136.65
992.3892	2658.9094	1019.7	141.75
992.5129	2660.1651	1009.5	133.05
992.6366	2661.42	1010.9	134.45
992.7602	2662.6743	1014.9	137.2
992.8837	2663.9279	1013.05	134.65
993.0073	2665.1808	1016.35	137.65
993.1307	2666.433	1017.8	140.45
993.2542	2667.6846	1014.5	138
993.3776	2668.9354	1019.55	138.95
993.501	2670.1856	1024.2	145.4
993.6244	2671.4351	1021.7	145.8
993.7477	2672.6839	1022.4	144
993.8709	2673.9321	1023.55	147.8
993.9942	2675.1795	1028.25	149.95
994.1174	2676.4263	1025.55	147.15
994.2405	2677.6724	1023.95	146.85
994.3637	2678.9179	1028.8	149.15
994.4868	2680.1626	1024.95	148.2
994.6098	2681.4067	1022.6	143.75
994.7328	2682.6501	1023.5	147.1
994.8558	2683.8928	1021.9	142.45
994.9788	2685.1348	1016.45	138.55
995.1017	2686.3761	1019.2	141.65
995.2245	2687.6168	1013.15	135.05
995.3474	2688.8568	1015.95	134.95
995.4702	2690.0961	1012.55	136.75
995.5929	2691.3348	1017.8	139.95
995.7156	2692.5727	1009	133.35
995.8383	2693.81	1010.75	132.35
995.961	2695.0466	1007.05	128.55
996.0836	2696.2826	1011.25	132.35
996.2062	2697.5178	1014.2	132.25
996.3287	2698.7524	1013.5	134.55
996.4512	2699.9863	1016.65	135.1
996.5737	2701.2195	1008.8	131.65
996.6961	2702.452	1019.6	140.7
996.8185	2703.6839	1019.05	139.25
996.9408	2704.9151	1019.85	143.2
997.0631	2706.1456	1023.8	146.95
997.1854	2707.3755	1024.1	147.05
997.3077	2708.6046	1026.75	147.25
997.4299	2709.8331	1026.85	149.5
997.552	2711.0609	1027.1	149.8
997.6742	2712.2881	1025.1	147.1
997.7963	2713.5145	1035.15	154.4
997.9183	2714.7403	1031.5	156.8
998.0403	2715.9654	1040.2	161.85
998.1623	2717.1899	1055.55	163.9
998.2842	2718.4136	1042.45	163.4
998.4062	2719.6367	1046	166.4
998.528	2720.8591	1055.45	169.85
998.6498	2722.0809	1058.9	180.85
998.7716	2723.3019	1063.7	182.3
998.8934	2724.5223	1062.95	183.65
999.0151	2725.7421	1063.1	185.05
999.1368	2726.9611	1060	180.65
999.2584	2728.1795	1060.8	177.55
999.38	2729.3972	1050.3	173
999.5016	2730.6142	1051.95	167.5
999.6231	2731.8306	1036.45	157.7
999.7446	2733.0462	1034.8	154.2
999.8661	2734.2612	1039.05	156.8
999.9875	2735.4756	1028.6	149.7
1000.1089	2736.6892	1021.8	142.9
1000.2302	2737.9022	1023.05	145.5
1000.3515	2739.1145	1023.35	146.1
1000.4728	2740.3262	1028.7	142.45
1000.594	2741.5372	1020.05	143.85
1000.7152	2742.7475	1018	140.85
1000.8363	2743.9571	1012.1	134.05
1000.9575	2745.1661	1011.85	130.6
1001.0785	2746.3744	1008.75	129.4
1001.1996	2747.582	1003.7	126.6
1001.3206	2748.7889	1006	126.95
1001.4415	2749.9952	1002.05	122.35
1001.5625	2751.2008	1000.6	120.2
1001.6833	2752.4057	1002.85	122.25
1001.8042	2753.61	1001.5	120.95
1001.925	2754.8136	998.95	120.75
1002.0458	2756.0165	998.5	120.25
1002.1665	2757.2188	996.8	120.05
1002.2872	2758.4204	993.55	115.6
1002.4078	2759.6213	1000.65	120.15
1002.5285	2760.8215	996.5	113.95
1002.649	2762.0211	998.3	119.1
1002.7696	2763.22	999.4	119.25
1002.8901	2764.4182	995.9	115.45
1003.0106	2765.6158	994.45	116.4
1003.131	2766.8127	995.05	117.3
1003.2514	2768.009	990.65	112.55
1003.3717	2769.2045	996.15	118.8
1003.492	2770.3994	994.45	114.6
1003.6123	2771.5936	989.15	110.5
1003.7325	2772.7872	988.15	110.85
1003.8527	2773.9801	991.6	112.85
1003.9729	2775.1723	999.95	106.05
1004.093	2776.3639	989.2	113.3
1004.2131	2777.5548	987	106
1004.3331	2778.745	985.4	108.25
1004.4531	2779.9346	988.45	111.55
1004.5731	2781.1235	988.6	109.55
1004.693	2782.3117	988.3	111.8
1004.8129	2783.4992	987.35	111.25
1004.9328	2784.6861	988.45	110.15
1005.0526	2785.8723	991.25	112.2
1005.1723	2787.0579	989.95	110.65
1005.2921	2788.2428	991.05	112.1
1005.4118	2789.427	988.15	111.6
1005.5314	2790.6106	989.05	112.55
1005.651	2791.7935	991.55	113.15
1005.7706	2792.9757	989.45	111.6
1005.8902	2794.1573	995.65	115.05
1006.0097	2795.3382	998.2	119.55
1006.1291	2796.5184	994.9	117.25
1006.2485	2797.698	1000.35	121.15
1006.3679	2798.8769	997.8	118.4
1006.4873	2800.0551	999.25	120.95
1006.6066	2801.2327	1004.7	123.35
1006.7258	2802.4096	1000.85	124.9
1006.8451	2803.5859	1005.4	129.3
1006.9642	2804.7615	1007.1	129.6
1007.0834	2805.9364	1005.5	130.4
1007.2025	2807.1106	1013.9	137.3
1007.3216	2808.2842	1012.8	135.4
1007.4406	2809.4572	1021.8	143.2
1007.5596	2810.6294	1026.55	147.8
1007.6785	2811.801	1025.7	149.75
1007.7975	2812.972	1034.95	159.3
1007.9163	2814.1423	1042.7	165.1
1008.0352	2815.3119	1049.2	171.2
1008.154	2816.4808	1062.05	185.15
1008.2727	2817.6491	1071.2	191.7
1008.3914	2818.8167	1084.95	209.95
1008.5101	2819.9837	1107.45	225.25
1008.6288	2821.15	1127.4	250.9
1008.7474	2822.3157	1142.6	265.65
1008.8659	2823.4807	1174.95	295.95
1008.9844	2824.645	1206.45	329.15
1009.1029	2825.8086	1239.45	361.1
1009.2214	2826.9716	1263.65	387.75
1009.3398	2828.134	1305.7	428.8
1009.4581	2829.2957	1327.6	450.05
1009.5764	2830.4567	1347.4	470.45
1009.6947	2831.617	1365.85	486.7
1009.813	2832.7767	1373.55	497.25
1009.9312	2833.9358	1370.9	494
1010.0493	2835.0941	1373.4	494.2
1010.1675	2836.2519	1351.5	476.45
1010.2855	2837.4089	1342	464.3
1010.4036	2838.5653	1323.95	448.4
1010.5216	2839.7211	1321.7	446.15
1010.6396	2840.8761	1311.4	432.65
1010.7575	2842.0306	1302.85	428.05
1010.8754	2843.1843	1308.35	431.3
1010.9932	2844.3374	1318.6	440.65
1011.111	2845.4899	1325.45	446.1
1011.2288	2846.6417	1325.1	447.35
1011.3465	2847.7928	1336.9	459.95
1011.4642	2848.9433	1346.5	467.6
1011.5818	2850.0931	1341.8	462.9
1011.6995	2851.2422	1348.95	472.1
1011.817	2852.3907	1347.55	469.05
1011.9345	2853.5385	1353.05	474.4
1012.052	2854.6857	1385.15	480.25
1012.1695	2855.8323	1357.65	481.15
1012.2869	2856.9781	1373.95	495.95
1012.4042	2858.1233	1382.15	505.1
1012.5216	2859.2679	1404.95	528.55
1012.6389	2860.4118	1415.05	538
1012.7561	2861.555	1437.8	555.2
1012.8733	2862.6976	1443.45	564.45
1012.9905	2863.8395	1451.3	574.3
1013.1076	2864.9808	1460.45	584.65
1013.2247	2866.1214	1462.75	588.2
1013.3417	2867.2614	1478.55	600.6
1013.4587	2868.4007	1480.75	602
1013.5757	2869.5393	1490.9	609.35
1013.6926	2870.6773	1511.95	631.05
1013.8095	2871.8146	1514.75	634.8
1013.9263	2872.9513	1522.4	643.65
1014.0431	2874.0874	1528.15	651.6
1014.1599	2875.2227	1541.4	663.85
1014.2766	2876.3574	1550.85	672.8
1014.3933	2877.4915	1552.65	676.65
1014.51	2878.6249	1567.2	690.2
1014.6266	2879.7577	1573.55	694.4
1014.7431	2880.8898	1590.35	702.65
1014.8596	2882.0212	1596.35	721.4
1014.9761	2883.152	1600.9	722.5
1015.0925	2884.2821	1608.75	732.65
1015.2089	2885.4116	1620.95	744.55
1015.3253	2886.5405	1629.65	751.4
1015.4416	2887.6686	1636.1	755.55
1015.5579	2888.7962	1636.6	760
1015.6741	2889.923	1645.35	768.8
1015.7903	2891.0493	1634.2	757.6
1015.9065	2892.1748	1635.8	759.5
1016.0226	2893.2997	1630	750.95
1016.1387	2894.424	1622.9	747.3
1016.2547	2895.5476	1630.1	750.8
1016.3707	2896.6706	1626.95	749.4
1016.4866	2897.7929	1643.25	764.75
1016.6025	2898.9145	1634.1	755.55
1016.7184	2900.0355	1633.45	755.05
1016.8342	2901.1559	1625.8	747.1
1016.95	2902.2756	1624.9	742.85
1017.0658	2903.3946	1626.45	750.1
1017.1815	2904.513	1617	738.15
1017.2971	2905.6308	1612.15	734.05
1017.4127	2906.7479	1598.05	718.65
1017.5283	2907.8643	1610.3	733.1
1017.6439	2908.9801	1604.6	726.7
1017.7594	2910.0953	1604.8	728.15
1017.8748	2911.2098	1607.2	726.8
1017.9902	2912.3236	1613	729.5
1018.1056	2913.4368	1613	733.65
1018.2209	2914.5494	1599.15	721.05
1018.3362	2915.6613	1599.6	715.5
1018.4515	2916.7725	1584	704.85
1018.5667	2917.8831	1575.65	696.8
1018.6819	2918.9931	1564.45	685.55
1018.797	2920.1024	1544.1	664.8
1018.9121	2921.211	1545.25	667.55
1019.0271	2922.319	1533.3	654.6
1019.1421	2923.4264	1519.45	643
1019.2571	2924.5331	1512.75	636.25
1019.372	2925.6391	1521.5	645.6
1019.4869	2926.7445	1521.2	647.3
1019.6017	2927.8493	1517.45	639.95
1019.7165	2928.9534	1524.45	646.05
1019.8313	2930.0569	1528.5	647.05
1019.946	2931.1597	1531.45	652.4
1020.0606	2932.2619	1535.8	657.05
1020.1753	2933.3634	1543.25	666.45
1020.2899	2934.4643	1557.2	671
1020.4044	2935.5645	1557.35	673.95
1020.5189	2936.6641	1565.05	684.6
1020.6334	2937.763	1555.5	676.45
1020.7478	2938.8613	1560.6	684.05
1020.8622	2939.959	1554.35	671.9
1020.9765	2941.056	1532.75	655.45
1021.0908	2942.1523	1514.9	637.6
1021.2051	2943.248	1485.15	606.8
1021.3193	2944.3431	1455.75	578.45
1021.4334	2945.4375	1421.65	543.05
1021.5476	2946.5313	1393.35	516.95
1021.6617	2947.6244	1365.65	486.55
1021.7757	2948.7169	1343.15	463.5
1021.8897	2949.8087	1315.2	435.25
1022.0037	2950.8999	1287.45	409.15
1022.1176	2951.9904	1268.25	392.2
1022.2315	2953.0803	1247.5	368.85
1022.3453	2954.1696	1231.3	353.65
1022.4591	2955.2582	1218.45	343.05
1022.5728	2956.3462	1213.7	336.75
1022.6865	2957.4335	1204.2	326.65
1022.8002	2958.5202	1206	325.65
1022.9138	2959.6062	1203.2	325.1
1023.0274	2960.6916	1205.75	327.65
1023.141	2961.7764	1207.1	328.6
1023.2545	2962.8605	1208.15	330.55
1023.3679	2963.9439	1204.5	328.6
1023.4813	2965.0267	1205.15	328.35
1023.5947	2966.1089	1219.2	317.75
1023.708	2967.1905	1194.4	318.85
1023.8213	2968.2714	1188	312.75
1023.9346	2969.3516	1188.85	313.2
1024.0478	2970.4312	1190.45	306.6
1024.1609	2971.5102	1181.2	303.35
1024.274	2972.5885	1180.95	305.65
1024.3871	2973.6662	1195.2	311.7
1024.5002	2974.7432	1183.95	307.2
1024.6132	2975.8196	1186.55	309.9
1024.7261	2976.8954	1184.2	308.15
1024.839	2977.9705	1190.55	314
1024.9519	2979.045	1187.65	312.25
1025.0647	2980.1188	1183.95	306.95
1025.1775	2981.192	1178.1	302.05
1025.2902	2982.2645	1177.25	298.75
1025.4029	2983.3364	1168.85	292.2
1025.5156	2984.4077	1152.9	276.05
1025.6282	2985.4783	1154.05	271.25
1025.7407	2986.5483	1144.3	268.9
1025.8532	2987.6177	1128.9	253.6
1025.9657	2988.6864	1125.5	245.7
1026.0782	2989.7545	1118.3	239.15
1026.1906	2990.8219	1111.6	233.35
1026.3029	2991.8887	1101.1	221.8
1026.4152	2992.9548	1088.65	210.8
1026.5275	2994.0204	1083.5	207.05
1026.6397	2995.0852	1071.5	195.55
1026.7519	2996.1495	1057.05	178.1
1026.864	2997.2131	1046.35	170.2
1026.9761	2998.276	1039.7	162.05
1027.0882	2999.3383	1028.5	150.5
1027.2002	3000.4	1019.15	140.5
1027.3122	3001.4611	1016.05	140.85
1027.4241	3002.5215	1012.25	134.15
1027.536	3003.5812	1005.25	128.45
1027.6478	3004.6404	999.7	121.85
1027.7596	3005.6989	995.7	115.75
1027.8714	3006.7567	993.7	115.3
1027.9831	3007.8139	1018.15	110.9
1028.0947	3008.8705	983.15	106.8
1028.2064	3009.9264	983.75	102.2
1028.3179	3010.9818	978.7	101.65
1028.4295	3012.0364	977.35	99.3
1028.541	3013.0905	973.3	96.25
1028.6524	3014.1439	970.25	92.15
1028.7638	3015.1966	969.6	93.3
1028.8752	3016.2487	969.25	92.7
1028.9865	3017.3002	969.25	89.55
1029.0978	3018.3511	964.95	88.45
1029.209	3019.4013	964.7	85.55
1029.3202	3020.4509	966.4	89.9
1029.4314	3021.4998	962.9	83.2
1029.5425	3022.5481	963.1	84.45
1029.6535	3023.5958	958.75	82.35
1029.7645	3024.6428	962.8	83.35
1029.8755	3025.6892	961.55	86.3
1029.9864	3026.735	962.6	84.55
1030.0973	3027.7802	962.25	84.8
1030.2082	3028.8247	959.7	82.4
1030.319	3029.8685	961.6	85.7
1030.4297	3030.9118	961.15	81.3
1030.5404	3031.9544	959	81.55
1030.6511	3032.9963	961.05	84.35
1030.7617	3034.0376	960.95	82.75
1030.8723	3035.0783	961.7	82.45
1030.9829	3036.1184	961.55	83.7
1031.0934	3037.1578	960.1	82.4
1031.2038	3038.1966	962.25	84.5
1031.3142	3039.2348	960.4	84.25
1031.4246	3040.2723	970.45	83.45
1031.5349	3041.3092	962.75	87.1
1031.6452	3042.3455	964.65	87.35
1031.7554	3043.3811	963.55	86.2
1031.8656	3044.4161	964.4	87.5
1031.9758	3045.4505	966.8	90.4
1032.0859	3046.4842	966.25	88.95
1032.1959	3047.5173	964.85	86.4
1032.3059	3048.5498	966.5	90.1
1032.4159	3049.5816	964.7	86.9
1032.5258	3050.6128	965.15	88.15
1032.6357	3051.6434	967.1	90.05
1032.7455	3052.6734	967.55	91.15
1032.8553	3053.7027	966.05	89.9
1032.9651	3054.7314	968.4	91.05
1033.0748	3055.7594	967.75	92.1
1033.1845	3056.7868	969.85	90.3
1033.2941	3057.8136	966.65	90.9
1033.4037	3058.8398	968.4	92.2
1033.5132	3059.8653	964.2	86.4
1033.6227	3060.8902	973.3	97.5
1033.7321	3061.9145	971.25	92.95
1033.8415	3062.9381	969.7	92.15
1033.9509	3063.9612	988.75	94.6
1034.0602	3064.9835	979.45	102.8
1034.1694	3066.0053	977.7	99.15
1034.2787	3067.0264	975.25	97
1034.3878	3068.0469	976.75	96.95
1034.497	3069.0668	974.35	92.45
1034.6061	3070.086	971.9	96.6
1034.7151	3071.1046	971.9	92.7
1034.8241	3072.1226	971.1	92.15
1034.9331	3073.1399	970.25	95.15
1035.042	3074.1567	967.95	89.8
1035.1508	3075.1727	968.05	91.25
1035.2597	3076.1882	963.6	85.4
1035.3684	3077.203	964.3	87.4
1035.4772	3078.2173	961.1	82.8
1035.5859	3079.2308	960.65	78.75
1035.6945	3080.2438	954.7	73.95
1035.8031	3081.2561	950.7	72.85
1035.9117	3082.2678	948.75	72
1036.0202	3083.2789	946.1	69.9
1036.1286	3084.2893	948.55	72.9
1036.2371	3085.2991	947.1	71.55
1036.3454	3086.3083	950.6	70.1
1036.4538	3087.3169	943.9	65.2
1036.562	3088.3248	939.6	61.8
1036.6703	3089.3321	942.15	64.3
1036.7785	3090.3388	938.75	63.55
1036.8866	3091.3449	937.75	60.05
1036.9948	3092.3503	938.65	58.5
1037.1028	3093.3551	934.9	60.55
1037.2108	3094.3593	935.1	60.25
1037.3188	3095.3629	933.6	59.15
1037.4267	3096.3658	935.95	59.35
1037.5346	3097.3681	932.05	54.1
1037.6425	3098.3698	935.85	57.9
1037.7503	3099.3708	933.1	55.35
1037.858	3100.3713	932.7	55.2
1037.9657	3101.3711	928.6	49.95
1038.0734	3102.3702	1065.45	54
1038.181	3103.3688	931.65	54.55
1038.2886	3104.3667	926.05	51.15
1038.3961	3105.364	925.5	49.65
1038.5036	3106.3607	927.85	49.15
1038.611	3107.3568	927.55	51
1038.7184	3108.3522	925.6	51.7
1038.8257	3109.347	926.65	48.85
1038.933	3110.3412	928.4	47.1
1039.0403	3111.3348	924.55	47.4
1039.1475	3112.3277	924.7	48.2
1039.2547	3113.32	920.75	43.9
1039.3618	3114.3117	919.8	43.85
1039.4689	3115.3028	920.9	42.15
1039.5759	3116.2932	920.95	43.05
1039.6829	3117.2831	925.8	45.5
1039.7898	3118.2723	918.75	43.15
1039.8967	3119.2608	916.65	38.95
1040.0035	3120.2488	916.45	37.4
1040.1103	3121.2361	920.45	41.05
1040.2171	3122.2229	917.05	38.95
1040.3238	3123.209	918.2	40.8
1040.4305	3124.1944	917.8	41.5
1040.5371	3125.1793	916.9	40.5
1040.6437	3126.1635	914.2	38.85
1040.7502	3127.1471	913.55	35.9
1040.8567	3128.1301	913.65	37.9
1040.9631	3129.1125	913.45	36.1
1041.0695	3130.0942	913.8	38.2
1041.1759	3131.0753	921.9	35.95
1041.2822	3132.0558	913.85	35.35
1041.3884	3133.0357	910.4	31.05
1041.4946	3134.015	913.5	35.85
1041.6008	3134.9936	910.95	30.7
1041.7069	3135.9716	931.15	32.15
1041.813	3136.949	910.75	34.6
1041.919	3137.9258	925.7	30.45
1042.025	3138.902	915.9	33.8
1042.1309	3139.8775	907.75	32.7
1042.2368	3140.8524	905.4	27.95
1042.3427	3141.8267	911.35	34.15
1042.4485	3142.8004	906.9	29.4
1042.5542	3143.7735	914.55	31.95
1042.6599	3144.7459	907.4	27.4
1042.7656	3145.7178	904.5	26.15
1042.8712	3146.689	905.55	30.35
1042.9768	3147.6596	905	25.25
1043.0823	3148.6295	906.7	30.3
1043.1878	3149.5989	905.05	25.65
1043.2932	3150.5676	903.05	28.2
1043.3986	3151.5357	901.75	25.9
1043.5039	3152.5032	903.7	28.6
1043.6092	3153.4701	903.05	26.45
1043.7145	3154.4364	907.25	26.9
1043.8197	3155.402	904.1	28.95
1043.9248	3156.367	906.3	28.5
1044.03	3157.3315	937.45	21.35
1044.135	3158.2952	904.85	27.55
1044.24	3159.2584	902.05	26.85
1044.345	3160.221	902.9	25.15
1044.4499	3161.1829	903	26.2
1044.5548	3162.1442	902.95	26.4
1044.6596	3163.105	902.6	26.65
1044.7644	3164.065	902.65	27.2
1044.8692	3165.0245	906.25	25.55
1044.9739	3165.9834	900.55	26.65
1045.0785	3166.9416	903	26.4
1045.1831	3167.8993	900.15	22.5
1045.2877	3168.8563	901.35	24.1
1045.3922	3169.8127	902.5	25.5
1045.4966	3170.7684	900.8	24.05
1045.6011	3171.7236	902.55	23.95
1045.7054	3172.6782	899.2	22.6
1045.8098	3173.6321	902.8	24.4
1045.914	3174.5854	904.6	21.5
1046.0183	3175.5381	902.2	25.2
1046.1224	3176.4902	898.5	21.65
1046.2266	3177.4417	899.1	21.2
1046.3307	3178.3926	898.7	23.2
1046.4347	3179.3428	896.95	18.3
1046.5387	3180.2924	900.25	23.9
1046.6427	3181.2415	898.45	19.7
1046.7466	3182.1899	901.7	23.05
1046.8504	3183.1377	899.85	22.4
1046.9542	3184.0848	901.1	20.75
1047.058	3185.0314	899.5	23
1047.1617	3185.9773	899.2	20.45
1047.2654	3186.9227	897.65	19.1
1047.369	3187.8674	900.55	25.45
1047.4726	3188.8115	903.8	22.1
1047.5761	3189.755	898.7	21.75
1047.6796	3190.6979	896.05	18.95
1047.783	3191.6402	895.15	18.75
1047.8864	3192.5818	897.8	21.1
1047.9898	3193.5229	923.3	20.4
1048.0931	3194.4633	897.7	20.35
1048.1963	3195.4031	897	18.9
1048.2995	3196.3423	897.25	22.25
1048.4027	3197.2809	896.6	19.65
1048.5058	3198.2189	896	20.8
1048.6089	3199.1563	901.35	16.9
1048.7119	3200.0931	895.55	19.5
1048.8148	3201.0292	892.1	16.95
1048.9178	3201.9648	897.6	20.5
1049.0206	3202.8997	895.45	14.95
1049.1235	3203.834	894.9	19.6
1049.2262	3204.7677	894.3	17.05
1049.329	3205.7008	899.2	20.65
1049.4317	3206.6333	893.75	19.05
1049.5343	3207.5652	896.2	16.9
1049.6369	3208.4964	896.05	18.85
1049.7394	3209.4271	893.4	16.55
1049.8419	3210.3571	895.7	18.7
1049.9444	3211.2865	896.95	19.95
1050.0468	3212.2154	894.3	15.95
1050.1491	3213.1436	896.4	17.1
1050.2514	3214.0712	899.05	15.2
1050.3537	3214.9982	894.2	18.75
1050.4559	3215.9246	894.45	14.7
1050.5581	3216.8503	892.9	18.15
1050.6602	3217.7755	895.75	18.45
1050.7623	3218.7001	892	14.35
1050.8643	3219.624	894.45	16.6
1050.9663	3220.5473	894.5	19.6
1051.0682	3221.4701	896.15	16.9
1051.1701	3222.3922	893.9	16.95
1051.2719	3223.3137	893.35	16.7
1051.3737	3224.2346	895.2	17.15
1051.4754	3225.1549	893.35	16.35
1051.5771	3226.0746	892.15	14.95
1051.6788	3226.9937	891.85	16.45
1051.7804	3227.9121	891.15	16.2
1051.8819	3228.83	891.25	15.2
1051.9834	3229.7473	892.05	14.8
1052.0849	3230.6639	892.25	15.4
1052.1863	3231.5799	893.2	16.6
1052.2876	3232.4954	892.95	14.45
1052.3889	3233.4102	891.75	15.35
1052.4902	3234.3244	893	15.1
1052.5914	3235.238	890.5	12.7
1052.6926	3236.151	906.2	16.45
1052.7937	3237.0634	891.75	17.35
1052.8948	3237.9752	892.3	18.25
1052.9958	3238.8864	892.6	16
1053.0968	3239.797	892.55	16.45
1053.1977	3240.7069	891.25	13.4
1053.2986	3241.6163	893.05	15.75
1053.3994	3242.5251	890.55	17
1053.5002	3243.4332	889.85	12.25
1053.6009	3244.3408	890.3	13.3
1053.7016	3245.2477	887.2	10.1
1053.8022	3246.154	891.25	13.65
1053.9028	3247.0598	890.5	14.75
1054.0034	3247.9649	891.25	13.75
1054.1039	3248.8694	890.95	12.6
1054.2043	3249.7733	890.15	13.5
1054.3047	3250.6766	887.2	9.85
1054.4051	3251.5793	889.85	11.6
1054.5054	3252.4814	888.25	11.95
1054.6056	3253.3829	890.35	13.45
1054.7058	3254.2838	887.95	11.55
1054.806	3255.1841	889.55	12.8
1054.9061	3256.0838	889.35	11.8
1055.0061	3256.9829	889.45	13.85
1055.1062	3257.8814	890.3	12.5
1055.2061	3258.7792	890.35	10.8
1055.306	3259.6765	889.6	14.1
1055.4059	3260.5731	886.9	10.1
1055.5057	3261.4692	887.15	9.7
1055.6055	3262.3647	888.1	11.6
1055.7052	3263.2595	888.05	10
1055.8049	3264.1538	887.8	11.4
1055.9045	3265.0474	889.4	12.2
1056.0041	3265.9404	885.65	8.8
1056.1036	3266.8329	886.75	11.1
1056.2031	3267.7247	897.4	8.95
1056.3025	3268.616	885.7	8.1
1056.4019	3269.5066	888.1	11.05
1056.5013	3270.3966	888.3	8.75
1056.6005	3271.286	884.65	9.95
