Software Version:	3.9.2.0
Unit SN:	10000200
Spectrometer SN:	6960
Date:	3/8/2024 1:17:50 PM
Data Line Index:	25
Spectral Points:	2048
Integration time (ms):	125
Averages:	20
Delay (ms):	30000
Sequence Number:	1
Processing:	dark subtract
Laser Power (mW):	300
Laser Current (mA):	822
Laser Diode Temp (C):	25
Laser Case Temp (C):	26.1
System Temp (C):	26.1
Spectrometer Temp (C):	24
CCD Temp (C):	0.009
Secondary Temp (C):	20.013
Heatsink Temp (C):	20.761
CCDPCB Temp (C):	35.873
SecondaryPCB Temp (C):	29.159

Wavelength	RamanShift	Raw Counts	Dark Subtracted
787.061	30.1047	451.75	43.55
787.2016	32.3739	453	47.85
787.3422	34.6426	459.45	53.4
787.4828	36.9109	466.15	56.9
787.6235	39.1787	473.7	59.3
787.7642	41.4461	479.95	63.4
787.9049	43.7131	491.9	72.85
788.0456	45.9796	501.05	78.4
788.1863	48.2456	507.95	81.15
788.3271	50.5112	517.75	85.25
788.4679	52.7764	525	89.85
788.6087	55.0411	536.65	96.9
788.7496	57.3054	548.2	101.8
788.8904	59.5692	554.55	107.95
789.0313	61.8326	567.9	119.55
789.1722	64.0955	579	126.3
789.3132	66.3579	592.1	135.05
789.4541	68.6199	612.35	150.1
789.5951	70.8815	653	187.25
789.7361	73.1426	725.6	254.2
789.8771	75.4032	930.8	457.75
790.0181	77.6634	1430.6	950.3
790.1592	79.9231	2584.45	2094.85
790.3003	82.1824	5092.6	4585.35
790.4414	84.4412	9613.45	9073.7
790.5825	86.6995	15767.3	15187.75
790.7237	88.9574	21767.35	21149.75
790.8648	91.2148	25947.8	25305.3
791.006	93.4717	27748.2	27090.2
791.1472	95.7282	28088.95	27420.35
791.2885	97.9842	27914.85	27245.75
791.4297	100.2398	27318.7	26645.7
791.571	102.4949	26621.1	25947.9
791.7123	104.7495	25774.75	25100.35
791.8536	107.0036	24901.9	24223.55
791.9949	109.2573	24086.5	23411.6
792.1363	111.5105	23338.55	22658.3
792.2777	113.7632	22602.65	21919.1
792.4191	116.0154	22025.6	21332.25
792.5605	118.2672	21543.45	20852.15
792.7019	120.5185	21109.05	20421.85
792.8434	122.7693	20738.75	20046.9
792.9849	125.0197	20448.75	19752.8
793.1264	127.2696	20186.05	19489
793.2679	129.519	19973.45	19267.9
793.4094	131.7679	19741.9	19034.05
793.551	134.0163	19525.25	18814.15
793.6926	136.2642	19281.45	18568.85
793.8342	138.5117	19008.45	18292.7
793.9758	140.7587	18674.35	17958.25
794.1175	143.0052	18432.25	17715.85
794.2591	145.2512	18151.9	17437.3
794.4008	147.4967	17876.55	17156.9
794.5425	149.7417	17683.65	16961.55
794.6842	151.9863	17531.2	16802.35
794.826	154.2304	17495.8	16760.9
794.9677	156.4739	17315.95	16578.4
795.1095	158.717	17233.85	16496.2
795.2513	160.9596	17076.7	16333.1
795.3931	163.2017	16820	16073.6
795.535	165.4433	16504.6	15758.2
795.6768	167.6844	16165.75	15421.25
795.8187	169.925	15847.45	15094
795.9606	172.1651	15500.25	14748.75
796.1025	174.4047	15216.1	14463.5
796.2445	176.6439	14971.9	14219.1
796.3864	178.8825	14735.4	13977.85
796.5284	181.1206	14563.55	13796.85
796.6704	183.3582	14415.35	13642.15
796.8124	185.5954	14340	13569.35
796.9544	187.832	14230.75	13455.15
797.0965	190.0681	14195.65	13419.1
797.2386	192.3037	14201.95	13418.1
797.3806	194.5388	14206.5	13423.6
797.5228	196.7734	14236.15	13451.85
797.6649	199.0075	14327.8	13538.8
797.807	201.2411	14417.85	13627.55
797.9492	203.4742	14499.9	13707.6
798.0914	205.7068	14661.7	13863.45
798.2336	207.9389	14746.3	13951.75
798.3758	210.1704	14914.45	14124.75
798.518	212.4015	15013.8	14237.85
798.6603	214.632	15170.9	14399.35
798.8025	216.862	15363.9	14593.65
798.9448	219.0915	15514.95	14738.3
799.0871	221.3205	15670.65	14889.1
799.2294	223.549	15866.65	15093.05
799.3718	225.777	16086.25	15319
799.5141	228.0044	16351.7	15571.1
799.6565	230.2314	16694.2	15911.1
799.7989	232.4578	17028.05	16244.45
799.9413	234.6837	17311.8	16517.55
800.0837	236.909	17475.3	16682.25
800.2262	239.1339	17481.85	16659.4
800.3687	241.3582	17287.15	16475.8
800.5111	243.582	17043.85	16203
800.6536	245.8053	16800.7	15977.95
800.7961	248.0281	16569.35	15754.4
800.9387	250.2503	16415.85	15596.15
801.0812	252.472	16352.6	15526.7
801.2238	254.6932	16371.2	15552.8
801.3664	256.9139	16359.55	15535.1
801.509	259.134	16453.35	15624.1
801.6516	261.3536	16503.7	15679.55
801.7942	263.5727	16664.75	15835.15
801.9369	265.7912	16739.6	15915.25
802.0795	268.0092	16872.8	16046.5
802.2222	270.2267	16930	16103.85
802.3649	272.4436	16957.65	16125.2
802.5076	274.6601	16897.7	16058.25
802.6504	276.8759	16801.3	15965.2
802.7931	279.0913	16723.3	15887.5
802.9359	281.3061	16643.15	15805
803.0787	283.5204	16645	15800.4
803.2215	285.7341	16679	15831
803.3643	287.9473	16792.25	15940.25
803.5071	290.16	16946.35	16099.85
803.6499	292.3721	17211.45	16370.35
803.7928	294.5837	17589.15	16749.45
803.9357	296.7947	17921.45	17078.15
804.0786	299.0052	18073.5	17232.15
804.2215	301.2152	17965.15	17119.85
804.3644	303.4246	17656.4	16816.1
804.5074	305.6334	17201.8	16363.2
804.6503	307.8418	16718	15873.25
804.7933	310.0495	16292.4	15445.15
804.9363	312.2568	15903.1	15050.1
805.0793	314.4635	15655.25	14802.35
805.2223	316.6696	15488.9	14638.75
805.3653	318.8752	15376	14513.15
805.5084	321.0802	15395.35	14541.15
805.6514	323.2847	15456.25	14597.85
805.7945	325.4887	15520.25	14664.15
805.9376	327.692	15483.4	14623.9
806.0807	329.8949	15361.7	14501.35
806.2238	332.0972	15133.6	14273.35
806.367	334.2989	14878.15	14013.3
806.5101	336.5001	14624.05	13759.25
806.6533	338.7007	14421.85	13553.3
806.7965	340.9008	14277.15	13412.45
806.9397	343.1003	14132.65	13263
807.0829	345.2992	14093.2	13222.6
807.2261	347.4976	14012.3	13145.8
807.3693	349.6955	13985.2	13110.65
807.5126	351.8927	14023.2	13147.1
807.6559	354.0895	14008.65	13123.95
807.7991	356.2856	14012.75	13136.85
807.9424	358.4812	13979.05	13099.55
808.0857	360.6763	14025.8	13146.05
808.2291	362.8707	14007.1	13127
808.3724	365.0646	14043.85	13161.5
808.5158	367.258	14059.15	13174.75
808.6591	369.4508	14117.85	13233.45
808.8025	371.643	14232.3	13342.4
808.9459	373.8346	14254.65	13364
809.0893	376.0257	14277.4	13386.55
809.2327	378.2162	14210.3	13324.55
809.3762	380.4062	14127.25	13243.1
809.5196	382.5956	14020.8	13135.1
809.6631	384.7844	13901.5	13022.8
809.8066	386.9726	13766.7	12891.7
809.9501	389.1603	13700	12826.55
810.0936	391.3474	13697.25	12781.55
810.2371	393.5339	13661.1	12778.55
810.3806	395.7199	13621.9	12743.1
810.5241	397.9052	13652.55	12766.8
810.6677	400.09	13695.4	12814.6
810.8113	402.2743	13782	12896.1
810.9548	404.4579	13871	12989.85
811.0984	406.641	14068.4	13180.1
811.2421	408.8235	14306.55	13422.85
811.3857	411.0054	14585.15	13700.2
811.5293	413.1868	14903.45	14007.6
811.673	415.3675	15131.2	14232.65
811.8166	417.5477	15289.4	14391.7
811.9603	419.7273	15295.9	14397.65
812.104	421.9064	15202.25	14303.6
812.2477	424.0848	15120.15	14225.95
812.3914	426.2627	14891.25	13996.3
812.5351	428.4399	14661.55	13765.9
812.6788	430.6166	14289.8	13389.15
812.8226	432.7928	13937.1	13034.8
812.9663	434.9683	13625.55	12726.7
813.1101	437.1432	13381.7	12484.15
813.2539	439.3176	13212.5	12323.5
813.3977	441.4914	13114.8	12228.85
813.5415	443.6645	13107.55	12217.85
813.6853	445.8371	13022.5	12128.9
813.8291	448.0091	12975.95	12079.65
813.973	450.1806	12944.4	12052.75
814.1168	452.3514	12907.75	12015.7
814.2607	454.5216	12973.7	12069.7
814.4046	456.6913	12925	12026.9
814.5485	458.8603	12936.65	12041.65
814.6924	461.0288	12979.85	12089.55
814.8363	463.1967	12990.55	12105.45
814.9802	465.3639	13079.3	12189.55
815.1241	467.5306	13163.1	12268.15
815.2681	469.6967	13248.3	12359.95
815.412	471.8622	13343.1	12457.15
815.556	474.0271	13472.9	12584.75
815.7	476.1914	13513.15	12615.2
815.844	478.3551	13538.95	12639.7
815.988	480.5182	13534.5	12641.2
816.132	482.6807	13555.2	12671.95
816.276	484.8426	13690.5	12811.7
816.4201	487.0039	13991.25	13107
816.5641	489.1647	14403.3	13508.2
816.7082	491.3248	14827.7	13931.9
816.8522	493.4843	14948	14060
816.9963	495.6432	14947.6	14055.15
817.1404	497.8015	14850.8	13948
817.2845	499.9592	14807.9	13897.15
817.4286	502.1163	14674.3	13764.25
817.5727	504.2728	14404.5	13509.2
817.7168	506.4287	14108	13222.4
817.861	508.5839	13745.35	12857.15
818.0051	510.7386	13438.65	12541.8
818.1493	512.8927	13306.5	12398.3
818.2935	515.0461	13215.35	12314.4
818.4377	517.199	13229.05	12322.45
818.5818	519.3512	13319.95	12412.95
818.726	521.5029	13452.25	12541.85
818.8703	523.6539	13576.3	12672.2
819.0145	525.8043	13682.65	12774.85
819.1587	527.9541	13647.8	12735
819.303	530.1033	13580.4	12675.55
819.4472	532.2519	13537.95	12634.8
819.5915	534.3999	13604.3	12697
819.7357	536.5472	13799.7	12893.4
819.88	538.694	14143.2	13237.15
820.0243	540.8401	14613.9	13706.35
820.1686	542.9856	15020.1	14103.7
820.3129	545.1305	15166.4	14239.5
820.4572	547.2748	15038.25	14114
820.6016	549.4185	14752.35	13824.7
820.7459	551.5615	14477.25	13554.05
820.8902	553.704	14381.9	13454.85
821.0346	555.8458	14358.95	13440.8
821.1789	557.987	14446.6	13529.95
821.3233	560.1276	14538.1	13620.6
821.4677	562.2675	14717.85	13796.85
821.6121	564.4069	14890.05	13967.35
821.7565	566.5456	15104.1	14187.95
821.9009	568.6837	15073.7	14155.35
822.0453	570.8212	14805.45	13890.8
822.1897	572.958	14284	13364.9
822.3342	575.0942	13878.9	12967.25
822.4786	577.2299	13605.3	12697.1
822.6231	579.3648	13514.05	12618.2
822.7675	581.4992	13494.15	12610.75
822.912	583.6329	13686	12800.85
823.0565	585.766	13881.9	12988.45
823.201	587.8985	14045.1	13142.95
823.3454	590.0304	14066.65	13133.95
823.4899	592.1616	14015.7	13094
823.6345	594.2922	13881.25	12956.75
823.779	596.4222	13718.4	12791.7
823.9235	598.5515	13541.2	12615.45
824.068	600.6802	13361.45	12436.35
824.2126	602.8083	13183.35	12264.85
824.3571	604.9358	13173.1	12251.7
824.5017	607.0626	13143.5	12219.8
824.6462	609.1888	13170.35	12237.05
824.7908	611.3144	13212.2	12278.55
824.9354	613.4393	13163	12229.45
825.08	615.5636	13159.05	12224.7
825.2246	617.6873	13102.85	12171.1
825.3692	619.8103	13038.85	12110.65
825.5138	621.9327	12909.2	11984.35
825.6584	624.0544	12806	11884.8
825.803	626.1756	12705.4	11784.75
825.9477	628.2961	12630.2	11702.8
826.0923	630.4159	12586.65	11658.9
826.237	632.5351	12538.95	11608.05
826.3816	634.6537	12509.4	11577.65
826.5263	636.7716	12484	11552.95
826.6709	638.8889	12503.35	11565.1
826.8156	641.0056	12527.3	11587.1
826.9603	643.1216	12529.65	11591.95
827.105	645.237	12553.75	11622.2
827.2497	647.3518	12473.65	11547.3
827.3944	649.4659	12470.1	11548.55
827.5391	651.5793	12461.25	11543.05
827.6838	653.6922	12446.2	11519
827.8285	655.8043	12448	11519.4
827.9733	657.9159	12421.45	11489.75
828.118	660.0268	12381.5	11454.55
828.2627	662.137	12341.7	11409.8
828.4075	664.2466	12359.1	11419.5
828.5522	666.3556	12319.5	11383.4
828.697	668.4639	12306.45	11374.95
828.8418	670.5716	12323	11401.45
828.9865	672.6786	12362.35	11432
829.1313	674.785	12382.2	11448.25
829.2761	676.8907	12402.65	11472.65
829.4209	678.9958	12466.7	11540.35
829.5657	681.1002	12426.3	11493.6
829.7105	683.204	12424.55	11482.95
829.8553	685.3072	12400.3	11458.65
830.0001	687.4097	12360.8	11424.2
830.1449	689.5115	12328.45	11394.45
830.2898	691.6127	12286.95	11354.2
830.4346	693.7132	12243	11313.05
830.5794	695.8131	12225.1	11277.3
830.7243	697.9123	12236.55	11294.7
830.8691	700.0109	12216.75	11277.1
831.014	702.1089	12247.75	11310.45
831.1588	704.2061	12256.9	11321
831.3037	706.3028	12285.65	11344.95
831.4486	708.3987	12339.35	11397.55
831.5935	710.4941	12359.3	11423.1
831.7383	712.5887	12537.5	11602.15
831.8832	714.6827	12731.05	11791.95
832.0281	716.7761	12983.35	12052.35
832.173	718.8688	13295.65	12359.45
832.3179	720.9608	13492.5	12546.4
832.4628	723.0522	13571.6	12620.75
832.6077	725.1429	13471	12525
832.7527	727.233	13316.45	12371.55
832.8976	729.3224	13203.1	12261.85
833.0425	731.4112	13008.55	12065.45
833.1874	733.4993	12853.15	11911.7
833.3324	735.5867	12682.7	11741.95
833.4773	737.6735	12505.1	11562.15
833.6222	739.7596	12371.95	11428.15
833.7672	741.845	12329.35	11392.3
833.9122	743.9298	12272.35	11329.5
834.0571	746.014	12253.85	11310.9
834.2021	748.0974	12281.05	11331.65
834.347	750.1802	12294.15	11343.85
834.492	752.2624	12295.8	11347.45
834.637	754.3439	12335.7	11385.2
834.782	756.4247	12411.95	11456.9
834.9269	758.5048	12599.6	11654.65
835.0719	760.5843	12816	11867.7
835.2169	762.6631	13170.6	12222.9
835.3619	764.7413	13694.9	12747.4
835.5069	766.8188	14326.2	13378.75
835.6519	768.8956	14817.6	13864.25
835.7969	770.9718	15132.6	14187.35
835.9419	773.0473	15039.15	14090.3
836.0869	775.1221	14715.5	13767.8
836.232	777.1962	14379.35	13433.3
836.377	779.2697	14225.2	13277.7
836.522	781.3426	14279.1	13318.8
836.667	783.4147	14462.1	13509.9
836.8121	785.4862	14692.35	13740.1
836.9571	787.557	14647.85	13696.9
837.1021	789.6271	14286.8	13331.35
837.2472	791.6966	13688.9	12739.75
837.3922	793.7654	13122.1	12172.4
837.5373	795.8335	12790.35	11838.55
837.6823	797.901	12550.7	11603.55
837.8274	799.9678	12448.55	11497.4
837.9724	802.0339	12393.05	11440.05
838.1175	804.0993	12447.15	11483.2
838.2626	806.1641	12411.95	11457.85
838.4076	808.2282	12330.95	11378.35
838.5527	810.2916	12245.85	11293.85
838.6978	812.3544	12182.65	11233.2
838.8428	814.4164	12108.1	11159.05
838.9879	816.4778	12110.5	11152.75
839.133	818.5385	12137.2	11183.35
839.2781	820.5986	12247.2	11294.4
839.4232	822.658	12401	11444.1
839.5682	824.7166	12627	11676.1
839.7133	826.7747	12959.85	12005.15
839.8584	828.832	13272.45	12314.65
840.0035	830.8886	13504.6	12546.75
840.1486	832.9446	13668.05	12709.7
840.2937	834.9999	13613.1	12658.65
840.4388	837.0545	13513.2	12553.9
840.5839	839.1085	13363.25	12404.95
840.729	841.1618	13219.85	12262.05
840.8741	843.2143	13145.4	12190.9
841.0192	845.2662	12994.85	12042.75
841.1643	847.3175	12913.35	11956.5
841.3095	849.368	12801.35	11844.8
841.4546	851.4179	12706.3	11751.2
841.5997	853.467	12588.7	11632.6
841.7448	855.5155	12477.05	11517.15
841.8899	857.5633	12372.9	11416.15
842.0351	859.6105	12327.5	11372.65
842.1802	861.6569	12230.4	11273.85
842.3253	863.7027	12175.7	11215.4
842.4704	865.7478	12141.35	11182.55
842.6156	867.7922	12140.45	11179.25
842.7607	869.8359	12175.05	11215.95
842.9058	871.8789	12254.15	11293.75
843.0509	873.9212	12402.9	11413.2
843.1961	875.9629	12522.45	11566.2
843.3412	878.0039	12689.65	11730.9
843.4863	880.0441	12799.6	11848.3
843.6315	882.0837	12815.35	11860.4
843.7766	884.1226	12776.35	11817.45
843.9218	886.1609	12715.05	11762.45
844.0669	888.1984	12689.55	11730.95
844.212	890.2352	12735.2	11776.4
844.3572	892.2714	12733.9	11772.05
844.5023	894.3069	12679.6	11720.65
844.6475	896.3416	12583.6	11623.25
844.7926	898.3757	12545.1	11583.4
844.9377	900.4091	12492.45	11531.4
845.0829	902.4418	12503.15	11539.4
845.228	904.4739	12534.25	11568.9
845.3732	906.5052	12568.95	11605.65
845.5183	908.5358	12496.35	11532.35
845.6635	910.5658	12338.85	11375.25
845.8086	912.595	12145.4	11182.9
845.9538	914.6236	11978.7	11020.4
846.0989	916.6515	11890.65	10933.5
846.2441	918.6786	11850.45	10883.6
846.3892	920.7051	11905.95	10939.1
846.5344	922.7309	11984.7	11020
846.6795	924.756	12045.2	11080.65
846.8246	926.7804	12119.05	11160.45
846.9698	928.8041	12110.2	11150.45
847.1149	930.8272	12128.85	11171.75
847.2601	932.8495	12096.45	11136.75
847.4052	934.8711	12059.45	11093.6
847.5504	936.892	11976.2	11014.4
847.6955	938.9123	11872.4	10907.2
847.8407	940.9318	11786.5	10823.85
847.9858	942.9506	11727.6	10766.2
848.131	944.9688	11647.35	10683.6
848.2761	946.9862	11618.2	10656.8
848.4213	949.003	11493.6	10532.15
848.5664	951.019	11468.7	10505.85
848.7115	953.0344	11438.8	10475.65
848.8567	955.0491	11482.4	10518
849.0018	957.063	11533.7	10572
849.147	959.0763	11650.65	10688.1
849.2921	961.0888	11688.3	10720.9
849.4373	963.1007	11765.9	10805.4
849.5824	965.1119	11792.85	10843.05
849.7275	967.1223	11790.15	10844.05
849.8727	969.1321	11787.2	10844.8
850.0178	971.1412	11826.9	10878.75
850.1629	973.1495	11823.5	10871
850.3081	975.1572	11911.95	10901.5
850.4532	977.1641	11919.7	10956.5
850.5983	979.1704	11889.05	10927.8
850.7435	981.1759	11866.05	10901.85
850.8886	983.1808	11935.75	10973.1
851.0337	985.1849	11978.5	11007.4
851.1788	987.1884	12113.9	11149.9
851.324	989.1911	12270.95	11312.55
851.4691	991.1932	12334.85	11373.85
851.6142	993.1945	12391.4	11431.9
851.7593	995.1951	12381.7	11422.85
851.9045	997.1951	12338.1	11373
852.0496	999.1943	12239.3	11278.85
852.1947	1001.1928	12225.25	11262.45
852.3398	1003.1906	12259.45	11298.5
852.4849	1005.1877	12350.45	11390.1
852.63	1007.1841	12351.85	11394.7
852.7751	1009.1798	12345.85	11386.65
852.9202	1011.1748	12210.95	11251
853.0653	1013.1691	12041	11078.05
853.2104	1015.1627	11808.05	10847.4
853.3555	1017.1556	11608.95	10652.55
853.5006	1019.1477	11514.6	10558.25
853.6457	1021.1392	11402.2	10451.45
853.7908	1023.1299	11380.15	10433.35
853.9359	1025.12	11399	10459.3
854.081	1027.1093	11449.75	10524.05
854.2261	1029.0979	11533.2	10609.25
854.3712	1031.0859	11604.1	10672
854.5163	1033.0731	11649.45	10703.35
854.6613	1035.0596	11602.1	10655.45
854.8064	1037.0454	11472.7	10518.8
854.9515	1039.0304	11375.25	10417.5
855.0965	1041.0148	11256.65	10303
855.2416	1042.9985	11162.15	10204.6
855.3867	1044.9814	11134.4	10181.3
855.5317	1046.9636	11089.9	10136.8
855.6768	1048.9452	11048	10095.1
855.8219	1050.926	11090.9	10134.45
855.9669	1052.9061	11095.25	10136.9
856.112	1054.8855	11093.2	10135.8
856.257	1056.8642	11136.7	10175.95
856.4021	1058.8421	11196.95	10236.55
856.5471	1060.8194	11231.25	10269.1
856.6921	1062.7959	11253.2	10297.65
856.8372	1064.7717	11290.35	10334.7
856.9822	1066.7469	11368.95	10405
857.1272	1068.7213	11385.95	10426.6
857.2723	1070.695	11425.55	10471.85
857.4173	1072.6679	11387.1	10428.5
857.5623	1074.6402	11350.75	10391.25
857.7073	1076.6117	11333.85	10372.35
857.8523	1078.5826	11289	10326.7
857.9973	1080.5527	11239.35	10280.2
858.1423	1082.5221	11249.6	10291.25
858.2873	1084.4908	11389.7	10433.95
858.4323	1086.4587	11524.25	10564
858.5773	1088.426	11602.05	10640.3
858.7223	1090.3925	11606.8	10645.5
858.8673	1092.3584	11578.6	10621.1
859.0123	1094.3235	11511.4	10557.25
859.1573	1096.2879	11528.55	10571.95
859.3022	1098.2515	11564.95	10607.6
859.4472	1100.2145	11686.6	10731
859.5922	1102.1767	11810.45	10852.8
859.7371	1104.1382	11993.9	11037.1
859.8821	1106.099	12199.4	11239.9
860.027	1108.0591	12416.3	11460
860.172	1110.0185	12574.75	11616.25
860.3169	1111.9771	12639.75	11684.85
860.4619	1113.9351	12491.2	11532.85
860.6068	1115.8923	12256.55	11298.6
860.7517	1117.8488	12007.75	11051.5
860.8967	1119.8045	11745.55	10788.35
861.0416	1121.7596	11634.6	10682.1
861.1865	1123.7139	11554.6	10598.6
861.3314	1125.6675	11534.35	10581.8
861.4763	1127.6204	11597.9	10640.2
861.6212	1129.5726	11549.9	10594.15
861.7661	1131.524	11506.9	10548.95
861.911	1133.4748	11445.5	10487.6
862.0559	1135.4248	11390.7	10437.45
862.2008	1137.3741	11291.9	10337.6
862.3457	1139.3226	11241.55	10286.25
862.4905	1141.2705	11187.25	10229.65
862.6354	1143.2176	11076.3	10118
862.7803	1145.164	11063.7	10105.05
862.9251	1147.1097	11069.7	10112.55
863.07	1149.0546	11042.8	10083.9
863.2148	1150.9989	10949.2	9991.75
863.3597	1152.9424	10817.45	9861.35
863.5045	1154.8852	10667.7	9707.85
863.6493	1156.8272	10608.1	9652.75
863.7942	1158.7686	10577.85	9613.05
863.939	1160.7092	10581.15	9622.3
864.0838	1162.6491	10566.8	9609.55
864.2286	1164.5883	10687.3	9734.85
864.3734	1166.5267	10781.3	9826.95
864.5182	1168.4644	10942.05	9988.6
864.663	1170.4014	11106.5	10148.75
864.8078	1172.3377	11336.2	10386.7
864.9526	1174.2732	11610.95	10655.4
865.0974	1176.2081	11939.8	10989.4
865.2421	1178.1421	12267.5	11310.35
865.3869	1180.0755	12635.05	11682.4
865.5317	1182.0082	12826	11872.5
865.6764	1183.9401	12928.2	11975.95
865.8212	1185.8713	12799.85	11852.9
865.9659	1187.8017	12512.35	11573.8
866.1106	1189.7315	12208.35	11279.65
866.2554	1191.6605	11897.4	10970.05
866.4001	1193.5888	11642.6	10707.6
866.5448	1195.5163	11515.95	10571.1
866.6895	1197.4432	11453	10503.8
866.8342	1199.3693	11419.3	10465.65
866.9789	1201.2947	11390.85	10438.4
867.1236	1203.2193	11399.9	10450.4
867.2683	1205.1432	11372.3	10419.85
867.413	1207.0664	11391.35	10440.05
867.5576	1208.9889	11392.05	10438.85
867.7023	1210.9106	11427.2	10474.55
867.847	1212.8316	11451	10500.85
867.9916	1214.7519	11469.55	10511.25
868.1363	1216.6715	11483.4	10529.8
868.2809	1218.5903	11516.7	10565.6
868.4255	1220.5084	11578.8	10626.15
868.5701	1222.4257	11585.45	10640.05
868.7148	1224.3424	11574.55	10628.1
868.8594	1226.2583	11623.05	10671.05
869.004	1228.1735	11737.15	10786.9
869.1486	1230.0879	11853.35	10901.8
869.2932	1232.0016	11992.25	11040.8
869.4377	1233.9146	12057.3	11105.1
869.5823	1235.8269	12020.9	11073.9
869.7269	1237.7384	11919.2	10968.85
869.8715	1239.6492	11729.05	10780.7
870.016	1241.5592	11677.25	10726.7
870.1606	1243.4686	11622.45	10675.6
870.3051	1245.3772	11667.1	10716.25
870.4496	1247.285	11718.7	10771.15
870.5941	1249.1922	11774	10823.45
870.7387	1251.0986	11841	10893.15
870.8832	1253.0042	11868.05	10918.8
871.0277	1254.9092	11924.75	10976.75
871.1722	1256.8134	11987.85	11043.15
871.3167	1258.7169	12146.05	11196.7
871.4611	1260.6196	12313.4	11364.45
871.6056	1262.5216	12520.35	11569.85
871.7501	1264.4229	12711.25	11762.3
871.8945	1266.3234	12875.7	11925.05
872.039	1268.2232	12967.35	12017.45
872.1834	1270.1223	12989.65	12038
872.3278	1272.0207	13024.6	12074.55
872.4723	1273.9183	13007.65	12048.75
872.6167	1275.8151	12932.8	11982.55
872.7611	1277.7113	12886.45	11938.3
872.9055	1279.6067	12819.05	11876.2
873.0499	1281.5014	12864.65	11917.95
873.1943	1283.3953	12974.6	12022.2
873.3386	1285.2885	13164.95	12220.7
873.483	1287.181	13396.35	12450.45
873.6274	1289.0727	13622.95	12678.85
873.7717	1290.9637	13775.35	12830.7
873.9161	1292.854	13926.25	12980.35
874.0604	1294.7435	14007.95	13061.95
874.2047	1296.6323	14073.45	13126.7
874.349	1298.5204	14167.55	13215.45
874.4933	1300.4077	14223.7	13273.95
874.6376	1302.2943	14209.45	13261.95
874.7819	1304.1802	14135	13189.05
874.9262	1306.0653	13916.35	12968.55
875.0705	1307.9497	13623.75	12677.7
875.2147	1309.8333	13343.95	12401.95
875.359	1311.7162	13177.8	12232.4
875.5032	1313.5984	13078.9	12133.1
875.6475	1315.4798	13073.7	12124.7
875.7917	1317.3605	13071.85	12107.55
875.9359	1319.2405	13056.85	12107.25
876.0801	1321.1197	12965.95	12016.6
876.2243	1322.9982	12769.85	11817.55
876.3685	1324.876	12619.9	11675.15
876.5127	1326.753	12442.8	11494.9
876.6569	1328.6293	12354.05	11407.05
876.801	1330.5048	12318.45	11366.45
876.9452	1332.3796	12195.85	11250.5
877.0893	1334.2537	12168.35	11196.45
877.2335	1336.127	12093.65	11146.3
877.3776	1337.9996	12079.85	11131.5
877.5217	1339.8714	12063	11118.75
877.6658	1341.7426	12087.7	11096.8
877.8099	1343.6129	12037.65	11088.75
877.954	1345.4826	12038.75	11087.8
878.0981	1347.3515	12035.5	11086.65
878.2422	1349.2196	12008.35	11059.7
878.3862	1351.087	12011.8	11064.55
878.5303	1352.9537	12061.5	11114
878.6743	1354.8197	12144.05	11191.9
878.8184	1356.6849	12316.4	11369.2
878.9624	1358.5493	12431.65	11487.5
879.1064	1360.4131	12531.55	11587
879.2504	1362.276	12577.65	11634.1
879.3944	1364.1383	12487.8	11543.8
879.5384	1365.9998	12277.25	11324.9
879.6823	1367.8606	11954.35	11005.4
879.8263	1369.7206	11611.55	10661
879.9702	1371.5799	11326.8	10376.2
880.1142	1373.4384	11127.55	10179.65
880.2581	1375.2962	10946.45	9997.45
880.402	1377.1533	10646.65	9703.85
880.5459	1379.0096	10306.15	9362.2
880.6898	1380.8652	10016.6	9078.6
880.8337	1382.7201	9733.65	8793.35
880.9776	1384.5742	9497.05	8552.8
881.1215	1386.4275	9301	8355
881.2653	1388.2802	9185.8	8237.65
881.4092	1390.132	9055.6	8110.15
881.553	1391.9832	9011.05	8063.9
881.6968	1393.8336	8921.3	7975.7
881.8406	1395.6832	8891.95	7944.3
881.9844	1397.5322	8828.05	7881.75
882.1282	1399.3803	8821.1	7870.9
882.272	1401.2278	8785.25	7840.3
882.4158	1403.0745	8773.45	7834.7
882.5595	1404.9204	8771.7	7828.9
882.7033	1406.7656	8813.05	7868
882.847	1408.6101	8813.1	7869.25
882.9908	1410.4538	8850.15	7905.4
883.1345	1412.2968	8894.8	7951.6
883.2782	1414.139	8942.2	7998
883.4219	1415.9805	9025.85	8082.95
883.5656	1417.8213	9089.35	8137.75
883.7092	1419.6613	9202.65	8260.15
883.8529	1421.5006	9370.2	8427.75
883.9965	1423.3391	9595.55	8651.85
884.1402	1425.1769	9904.4	8956.95
884.2838	1427.0139	10342.35	9398.1
884.4274	1428.8502	10911.9	9969.15
884.571	1430.6858	11490.15	10547.4
884.7146	1432.5206	11860.35	10918.7
884.8582	1434.3547	12102.45	11160.5
885.0018	1436.188	12104.8	11164.45
885.1453	1438.0206	12044.6	11103.35
885.2889	1439.8524	11876.65	10935.2
885.4324	1441.6835	11757.15	10817.9
885.5759	1443.5139	11660.2	10716.15
885.7194	1445.3435	11575.5	10632.75
885.8629	1447.1724	11536.55	10598.1
886.0064	1449.0005	11486.8	10548.65
886.1499	1450.8279	11372.6	10432.4
886.2933	1452.6545	11353.5	10413.55
886.4368	1454.4804	11391.85	10455.8
886.5802	1456.3056	11360	10417.65
886.7237	1458.13	11280.05	10340.5
886.8671	1459.9536	11106.3	10168.7
887.0105	1461.7766	10793.65	9852.75
887.1539	1463.5987	10420.3	9479.1
887.2972	1465.4202	10047.15	9106.95
887.4406	1467.2409	9711.15	8772.05
887.584	1469.0608	9448.1	8508.95
887.7273	1470.88	9169.45	8228.6
887.8706	1472.6984	8929	7991.55
888.0139	1474.5161	8738.05	7797.15
888.1572	1476.3331	8561.7	7622.05
888.3005	1478.1493	8450.45	7509.1
888.4438	1479.9648	8371.55	7433
888.5871	1481.7795	8271.55	7328.9
888.7303	1483.5935	8193.55	7254.5
888.8736	1485.4067	8130.4	7189.4
889.0168	1487.2192	8097.05	7158.3
889.16	1489.031	8049.65	7108.95
889.3032	1490.842	8008	7069.65
889.4464	1492.6522	7983.55	7046.3
889.5896	1494.4618	7926.75	6987.2
889.7327	1496.2705	7939.65	6999.2
889.8759	1498.0785	7865.9	6929.3
890.019	1499.8858	7838.65	6899.05
890.1622	1501.6924	7818.3	6884.1
890.3053	1503.4981	7759.2	6820.85
890.4484	1505.3032	7716.15	6775.85
890.5914	1507.1075	7703.85	6764.35
890.7345	1508.911	7637.4	6697.4
890.8776	1510.7138	7618.65	6678.7
891.0206	1512.5159	7539.95	6601.35
891.1637	1514.3172	7522.45	6584.5
891.3067	1516.1178	7487	6551.25
891.4497	1517.9176	7456.5	6518.25
891.5927	1519.7166	7404.45	6468.05
891.7357	1521.515	7381.5	6438.8
891.8786	1523.3126	7365.2	6431.2
892.0216	1525.1094	7344.4	6406.8
892.1645	1526.9055	7302.7	6367.55
892.3074	1528.7008	7278.15	6342.2
892.4503	1530.4954	7215.4	6277.8
892.5932	1532.2893	7216.65	6287.5
892.7361	1534.0824	7192	6256.2
892.879	1535.8747	7199.25	6271.2
893.0218	1537.6663	7174.2	6243.35
893.1647	1539.4572	7151.35	6218.75
893.3075	1541.2473	7172.6	6242.1
893.4503	1543.0367	7154.4	6227.05
893.5931	1544.8253	7165.75	6230.15
893.7359	1546.6132	7189.25	6253.45
893.8787	1548.4003	7188.9	6246.9
894.0214	1550.1867	7233.5	6295.5
894.1642	1551.9723	7264.8	6332.9
894.3069	1553.7572	7326.25	6398.7
894.4496	1555.5414	7386.25	6460.6
894.5923	1557.3247	7464.4	6537.2
894.735	1559.1074	7570.8	6648.1
894.8777	1560.8893	7692.85	6767.35
895.0204	1562.6705	7795.05	6872.2
895.163	1564.4509	7869.5	6948.9
895.3056	1566.2305	7942.1	7024.5
895.4482	1568.0094	8005.5	7084.65
895.5908	1569.7876	8032.45	7109.25
895.7334	1571.565	8020	7095.4
895.876	1573.3417	7997.7	7074.3
896.0186	1575.1176	7993.45	7071.6
896.1611	1576.8928	7951.9	7033.35
896.3036	1578.6672	7883.5	6969.7
896.4461	1580.4409	7808.4	6897.8
896.5886	1582.2138	7764.45	6848.45
896.7311	1583.986	7739.35	6823.05
896.8736	1585.7575	7729.5	6808.75
897.0161	1587.5282	7686.05	6770.05
897.1585	1589.2981	7724.7	6811.65
897.3009	1591.0673	7747.25	6835.9
897.4433	1592.8358	7802.1	6889.3
897.5857	1594.6035	7863.3	6946.9
897.7281	1596.3704	7893.5	6972.1
897.8705	1598.1366	7950.25	7031.5
898.0128	1599.9021	8039.1	7123.9
898.1551	1601.6668	8118.55	7199.7
898.2975	1603.4308	8211.5	7292.9
898.4398	1605.194	8346.05	7423.95
898.5821	1606.9564	8494.25	7588.05
898.7243	1608.7182	8704.25	7800.45
898.8666	1610.4791	8891.7	7992.5
899.0088	1612.2394	9106.35	8206.8
899.1511	1613.9988	9334.1	8430.8
899.2933	1615.7576	9564.75	8656
899.4355	1617.5156	9776.1	8856.05
899.5776	1619.2728	9924.6	9007.1
899.7198	1621.0293	9965	9049.2
899.862	1622.785	9908.6	8992.2
900.0041	1624.54	9722.3	8816.05
900.1462	1626.2942	9490.6	8583.55
900.2883	1628.0477	9207.45	8296.4
900.4304	1629.8005	8959.8	8050.4
900.5725	1631.5525	8702.2	7793.95
900.7145	1633.3037	8499.95	7592
900.8566	1635.0542	8318.95	7412.05
900.9986	1636.804	8197.55	7289.95
901.1406	1638.553	8200.1	7215.95
901.2826	1640.3013	8078.75	7170.4
901.4245	1642.0488	8095.15	7186.4
901.5665	1643.7955	8116.05	7211.7
901.7085	1645.5416	8187.15	7283.1
901.8504	1647.2868	8272.95	7367.2
901.9923	1649.0313	8370.45	7460.1
902.1342	1650.7751	8557	7645.35
902.2761	1652.5181	8681.6	7777.5
902.4179	1654.2604	8853.25	7948.1
902.5598	1656.0019	9107	8202.7
902.7016	1657.7427	9373.95	8468
902.8434	1659.4828	9651.75	8741
902.9852	1661.222	9823.9	8914.25
903.127	1662.9606	9819.4	8911.1
903.2687	1664.6984	9581.8	8670.65
903.4105	1666.4354	9164.2	8250.45
903.5522	1668.1717	8643.25	7729
903.6939	1669.9072	8107.9	7195.95
903.8356	1671.642	7636.45	6723.75
903.9773	1673.3761	7260.15	6350.45
904.119	1675.1094	6953.25	6046.15
904.2606	1676.8419	6718.7	5812.55
904.4022	1678.5737	6529.95	5620.35
904.5439	1680.3048	6392.55	5482.5
904.6855	1682.0351	6273	5360.95
904.827	1683.7646	6172.5	5259.6
904.9686	1685.4934	6094.2	5184
905.1101	1687.2215	6018.9	5111.9
905.2517	1688.9488	5937.7	5031.05
905.3932	1690.6754	5879.25	4973.65
905.5347	1692.4012	5850.15	4942.4
905.6761	1694.1263	5817.7	4909.4
905.8176	1695.8506	5777.75	4869.2
905.9591	1697.5742	5736.85	4832.95
906.1005	1699.297	5708.15	4805.05
906.2419	1701.0191	5640.8	4740.1
906.3833	1702.7404	5621.1	4720.65
906.5246	1704.461	5591.45	4683.3
906.666	1706.1808	5550.25	4644.25
906.8073	1707.8999	5531	4630.2
906.9487	1709.6182	5499.5	4598.8
907.09	1711.3358	5458.7	4560.8
907.2313	1713.0527	5453.8	4559.35
907.3725	1714.7688	5424.7	4519.1
907.5138	1716.4841	5397.75	4495.85
907.655	1718.1987	5391.05	4487.2
907.7962	1719.9126	5341.9	4443.4
907.9374	1721.6257	5344.9	4444.95
908.0786	1723.338	5316.7	4419.7
908.2198	1725.0496	5316.1	4417
908.3609	1726.7605	5296.45	4394.75
908.502	1728.4706	5284.95	4385.85
908.6431	1730.18	5250.6	4352.7
908.7842	1731.8886	5240.2	4342.95
908.9253	1733.5964	5239.25	4320.3
909.0664	1735.3036	5203.45	4302.4
909.2074	1737.0099	5178.9	4281.4
909.3484	1738.7156	5161.05	4264.1
909.4894	1740.4204	5111.95	4212.2
909.6304	1742.1246	5114.1	4212.6
909.7714	1743.8279	5087.5	4188.5
909.9123	1745.5306	5074.6	4179
910.0532	1747.2325	5063.85	4166.8
910.1941	1748.9336	5035.6	4135.55
910.335	1750.634	5029.8	4128.4
910.4759	1752.3336	4998.7	4101.45
910.6168	1754.0325	4991.05	4097.15
910.7576	1755.7307	4962.7	4067.5
910.8984	1757.4281	4977.9	4078.75
911.0392	1759.1247	4981.8	4074.1
911.18	1760.8206	4949.5	4041.5
911.3208	1762.5158	4941.85	4036.65
911.4615	1764.2102	4935.85	4036
911.6022	1765.9039	4895.85	3998.75
911.7429	1767.5968	4875.65	3983.75
911.8836	1769.289	4852.55	3957.05
912.0243	1770.9804	4850	3952.45
912.1649	1772.6711	4852.7	3953.45
912.3056	1774.361	4835.8	3935.5
912.4462	1776.0502	4839.6	3937.8
912.5868	1777.7386	4817.9	3913.65
912.7274	1779.4263	4803	3903.7
912.8679	1781.1132	4793.15	3899.45
913.0084	1782.7994	4781.95	3889.7
913.149	1784.4849	4786.2	3893.6
913.2895	1786.1696	4757.65	3859.05
913.4299	1787.8535	4751.85	3860.95
913.5704	1789.5367	4746.35	3855.5
913.7108	1791.2192	4722.5	3830.95
913.8513	1792.9009	4711.95	3790.15
913.9917	1794.5818	4697.55	3798.1
914.132	1796.2621	4707.85	3811.45
914.2724	1797.9415	4694.8	3798
914.4128	1799.6202	4670.8	3772
914.5531	1801.2982	4680.1	3782
914.6934	1802.9755	4646.15	3747.4
914.8337	1804.6519	4642.25	3745.05
914.9739	1806.3277	4611.85	3718.45
915.1142	1808.0027	4620.75	3729.15
915.2544	1809.6769	4611.35	3719.3
915.3946	1811.3504	4595.4	3704.1
915.5348	1813.0231	4601.45	3710.95
915.675	1814.6951	4602.4	3710.25
915.8151	1816.3664	4589.8	3692.3
915.9553	1818.0369	4562.1	3664.25
916.0954	1819.7067	4557.5	3662.45
916.2355	1821.3757	4565.4	3666.9
916.3755	1823.044	4551.3	3654.05
916.5156	1824.7115	4541.6	3641.45
916.6556	1826.3783	4526.9	3630.1
916.7956	1828.0443	4515.8	3619.85
916.9356	1829.7096	4497.25	3601.35
917.0756	1831.3741	4513.65	3615.95
917.2155	1833.0379	4492.5	3600.9
917.3555	1834.701	4471.8	3579.35
917.4954	1836.3633	4475.7	3584.95
917.6353	1838.0248	4463.9	3570.85
917.7751	1839.6856	4452.3	3556.75
917.915	1841.3457	4444.55	3550.45
918.0548	1843.005	4443.25	3546.2
918.1946	1844.6636	4427	3533.8
918.3344	1846.3214	4422.85	3527.85
918.4742	1847.9785	4414.7	3520.25
918.6139	1849.6349	4395.75	3497.95
918.7537	1851.2904	4410.1	3503.25
918.8934	1852.9453	4399.05	3498.95
919.0331	1854.5994	4394.4	3496.45
919.1727	1856.2528	4388.6	3487.45
919.3124	1857.9054	4359.05	3462.1
919.452	1859.5572	4369.4	3473.3
919.5916	1861.2083	4371.4	3476.3
919.7312	1862.8587	4340.65	3444.7
919.8708	1864.5084	4345.65	3448.15
920.0103	1866.1572	4344.95	3446.5
920.1498	1867.8054	4320.5	3422.45
920.2893	1869.4528	4310.7	3412.2
920.4288	1871.0994	4300.8	3402.25
920.5683	1872.7453	4305.35	3407.95
920.7077	1874.3905	4299.7	3386.65
920.8471	1876.0349	4279.75	3382.45
920.9865	1877.6786	4275.25	3376.6
921.1259	1879.3215	4266.7	3373.6
921.2653	1880.9637	4245.2	3349.5
921.4046	1882.6051	4250.15	3354.6
921.5439	1884.2458	4237.45	3337.75
921.6832	1885.8858	4215.25	3319.1
921.8225	1887.525	4211.85	3314.05
921.9617	1889.1634	4204	3308.35
922.101	1890.8011	4195.4	3298.2
922.2402	1892.4381	4195.95	3299.45
922.3794	1894.0743	4176.8	3283.6
922.5185	1895.7098	4169.5	3277.5
922.6577	1897.3446	4164.15	3267.2
922.7968	1898.9786	4159.25	3260.3
922.9359	1900.6118	4140.05	3245.4
923.075	1902.2443	4117	3221.2
923.214	1903.8761	4123.55	3227.3
923.3531	1905.5071	4108.15	3212.25
923.4921	1907.1374	4096.05	3200.65
923.6311	1908.7669	4078.65	3184.05
923.77	1910.3957	4080.05	3186.7
923.909	1912.0237	4056.55	3164.45
924.0479	1913.651	4055.25	3159.4
924.1868	1915.2776	4056.4	3163.1
924.3257	1916.9034	4022.2	3127.05
924.4646	1918.5285	4011.6	3119.05
924.6034	1920.1528	4007.05	3111.25
924.7422	1921.7764	4006.2	3112.7
924.881	1923.3992	3990.5	3095
925.0198	1925.0213	3971.95	3074.4
925.1586	1926.6427	3951.05	3056.6
925.2973	1928.2633	4115.9	3020.05
925.436	1929.8832	3968.75	3070.35
925.5747	1931.5023	3925.1	3031.65
925.7134	1933.1207	3925.5	3028.95
925.852	1934.7383	3922.4	3026
925.9906	1936.3552	3898.6	3007.85
926.1292	1937.9714	3886.7	2992.5
926.2678	1939.5868	3870.7	2974.85
926.4064	1941.2015	3859.5	2964.7
926.5449	1942.8154	3851.1	2955.5
926.6834	1944.4286	3832	2934.5
926.8219	1946.041	3859	2946.05
926.9604	1947.6528	3806.2	2905.7
927.0988	1949.2637	3804.2	2910.75
927.2372	1950.8739	3805.05	2911.65
927.3756	1952.4834	3795	2903.4
927.514	1954.0921	3787.55	2893.7
927.6523	1955.7001	3776.95	2882.65
927.7907	1957.3074	3757.4	2867.4
927.929	1958.9139	3742.5	2854.7
928.0673	1960.5197	3737.55	2846.95
928.2055	1962.1247	3730.95	2839.8
928.3438	1963.729	3702.5	2812.85
928.482	1965.3325	3707.7	2814.35
928.6202	1966.9353	3691	2803.65
928.7584	1968.5374	3678.8	2788.05
928.8965	1970.1387	3677.15	2788
929.0346	1971.7393	3657.1	2768.45
929.1727	1973.3392	3648.4	2760.45
929.3108	1974.9383	3641.3	2752.8
929.4489	1976.5366	3628.15	2740.05
929.5869	1978.1342	3625.7	2738.2
929.7249	1979.7311	3624.15	2736.45
929.8629	1981.3273	3606.05	2720.15
930.0009	1982.9227	3593.25	2706.75
930.1388	1984.5173	3577.5	2692
930.2767	1986.1112	3568	2682.85
930.4146	1987.7044	3565.2	2678.35
930.5525	1989.2968	3572.75	2683.95
930.6904	1990.8885	3563.1	2674.95
930.8282	1992.4795	3554.7	2671.85
930.966	1994.0697	3529.3	2645.95
931.1038	1995.6592	3514.15	2627.9
931.2415	1997.2479	3528.6	2643.65
931.3793	1998.8359	3516.4	2631.2
931.517	2000.4232	3507.7	2626.7
931.6547	2002.0097	3484.5	2604.55
931.7923	2003.5955	3471.6	2591
931.93	2005.1805	3470.6	2585.85
932.0676	2006.7648	3469.85	2585.85
932.2052	2008.3484	3457.45	2575.5
932.3427	2009.9312	3465.7	2584.05
932.4803	2011.5133	3450.9	2572.65
932.6178	2013.0946	3441.7	2561.5
932.7553	2014.6752	3423.7	2544.25
932.8928	2016.2551	3429.1	2547.2
933.0302	2017.8342	3421.9	2538.05
933.1676	2019.4126	3404.05	2523.55
933.305	2020.9902	3389.15	2509.6
933.4424	2022.5672	3380.8	2502.3
933.5798	2024.1433	3391.35	2508.3
933.7171	2025.7188	3377.5	2499.4
933.8544	2027.2935	3364.05	2485.35
933.9917	2028.8674	3358.95	2480.9
934.129	2030.4406	3339.85	2461.9
934.2662	2032.0131	3334.6	2457.25
934.4034	2033.5849	3345.4	2465.3
934.5406	2035.1559	3340.25	2463.1
934.6778	2036.7261	3320.65	2439.6
934.8149	2038.2957	3335.5	2451.5
934.952	2039.8645	3315.9	2432.9
935.0891	2041.4325	3307.45	2420.15
935.2262	2042.9998	3296.55	2415.05
935.3632	2044.5664	3308.75	2424.35
935.5002	2046.1323	3294.05	2415
935.6372	2047.6974	3276.2	2397.2
935.7742	2049.2617	3280.65	2401.8
935.9111	2050.8254	3296.7	2383.05
936.048	2052.3883	3280.35	2396.9
936.1849	2053.9504	3268.5	2385.4
936.3218	2055.5118	3254.35	2371.3
936.4586	2057.0725	3229.25	2342.95
936.5955	2058.6325	3255.9	2374.45
936.7323	2060.1917	3220.85	2339.85
936.869	2061.7502	3217.8	2334.75
937.0058	2063.3079	3216.65	2338.9
937.1425	2064.8649	3208.5	2329.15
937.2792	2066.4212	3208.45	2325.55
937.4159	2067.9767	3198.15	2316.85
937.5525	2069.5315	3179.95	2299.1
937.6891	2071.0856	3176.65	2294.7
937.8257	2072.6389	3168.4	2288.4
937.9623	2074.1915	3133.2	2253.75
938.0989	2075.7433	3144.9	2264.75
938.2354	2077.2945	3130.95	2251
938.3719	2078.8448	3132.75	2249.55
938.5084	2080.3945	3129.1	2245.95
938.6448	2081.9434	3119.45	2234.55
938.7812	2083.4916	3119.2	2234.75
938.9176	2085.039	3114.55	2226
939.054	2086.5857	3109.95	2219.2
939.1903	2088.1317	3102.9	2212.6
939.3267	2089.677	3091.1	2201.9
939.463	2091.2215	3082.65	2191.85
939.5992	2092.7652	3088.4	2195.8
939.7355	2094.3083	3067.95	2178.6
939.8717	2095.8506	3075.4	2187.85
940.0079	2097.3921	3059.35	2173.6
940.1441	2098.933	3050.7	2162.9
940.2802	2100.4731	3043.1	2158.6
940.4163	2102.0124	3046.4	2150.4
940.5524	2103.5511	3039.85	2153.5
940.6885	2105.089	3029.85	2141.5
940.8245	2106.6261	3030.8	2145
940.9606	2108.1626	3024.5	2137.3
941.0965	2109.6983	3037.2	2123.05
941.2325	2111.2332	3029.2	2141.2
941.3684	2112.7675	3003.6	2114.6
941.5044	2114.301	3008.05	2118.35
941.6403	2115.8337	3001.9	2113.05
941.7761	2117.3657	2994.85	2105.95
941.912	2118.897	3003.15	2112.8
942.0478	2120.4276	2989.8	2095.95
942.1835	2121.9575	2963.65	2074.85
942.3193	2123.4866	2970.35	2078.85
942.455	2125.0149	2956.65	2067.55
942.5907	2126.5426	2946.6	2065.4
942.7264	2128.0695	2935.85	2052.05
942.8621	2129.5956	2931.05	2051.5
942.9977	2131.1211	2938.7	2050.35
943.1333	2132.6458	2937.3	2053.65
943.2689	2134.1698	2929.5	2039.85
943.4044	2135.693	2911.75	2018.2
943.54	2137.2155	2914.95	2023.95
943.6755	2138.7373	2926.55	2040.8
943.8109	2140.2584	2912.75	2029.45
943.9464	2141.7787	2889.9	2005.35
944.0818	2143.2983	2887.95	2010.15
944.2172	2144.8171	2870.9	1992.5
944.3526	2146.3353	2858.4	1975.5
944.4879	2147.8527	2865.35	1980.95
944.6232	2149.3693	2860.95	1972.45
944.7585	2150.8853	2853.55	1964.85
944.8938	2152.4005	2854.2	1964.8
945.029	2153.9149	2850.45	1959.9
945.1642	2155.4287	2842.05	1951.75
945.2994	2156.9417	2842.2	1953.25
945.4346	2158.454	2835.65	1948.4
945.5697	2159.9655	2832.85	1947.95
945.7048	2161.4764	2819.85	1937.7
945.8399	2162.9865	2812.9	1928.8
945.9749	2164.4958	2806.45	1922.05
946.1099	2166.0045	2803.25	1916.75
946.2449	2167.5124	2803	1918.7
946.3799	2169.0195	2789.45	1904.2
946.5148	2170.526	2790.15	1900.6
946.6498	2172.0317	2804.05	1917.65
946.7846	2173.5367	2787.8	1898.9
946.9195	2175.0409	2776.85	1891.15
947.0543	2176.5445	2759.7	1870.9
947.1891	2178.0473	2770	1878.95
947.3239	2179.5494	2758.2	1867.35
947.4587	2181.0507	2756.9	1870.3
947.5934	2182.5513	2738.8	1850.9
947.7281	2184.0512	2746.85	1858.7
947.8628	2185.5504	2742.5	1857.95
947.9974	2187.0488	2730.15	1846.7
948.132	2188.5465	2715.45	1832.9
948.2666	2190.0435	2715.65	1828.4
948.4012	2191.5397	2708.4	1820.1
948.5357	2193.0353	2709.6	1820.55
948.6702	2194.5301	2704.2	1812.5
948.8047	2196.0241	2708.55	1813.75
948.9392	2197.5175	2691.5	1797.5
949.0736	2199.0101	2689.95	1795.1
949.208	2200.502	2674.2	1786.4
949.3424	2201.9931	2669.05	1785.75
949.4767	2203.4835	2663.6	1780.15
949.611	2204.9733	2655	1765.05
949.7453	2206.4622	2638.6	1758.55
949.8796	2207.9505	2643.85	1761
950.0138	2209.438	2632.3	1752.25
950.148	2210.9248	2623	1737.6
950.2822	2212.4109	2634.5	1746.65
950.4164	2213.8962	2616.3	1726.4
950.5505	2215.3809	2630.3	1738.25
950.6846	2216.8648	2616.4	1722.25
950.8186	2218.3479	2616.55	1718.7
950.9527	2219.8304	2598	1699.6
951.0867	2221.3121	2593.7	1699.55
951.2207	2222.7931	2594.75	1704.1
951.3546	2224.2733	2576.85	1685.55
951.4886	2225.7529	2577.25	1687.25
951.6225	2227.2317	2565.5	1677.35
951.7563	2228.7098	2563.55	1679.35
951.8902	2230.1872	2562.4	1680.35
952.024	2231.6638	2543.95	1662.9
952.1578	2233.1397	2542.3	1654.55
952.2916	2234.6149	2540.75	1656.4
952.4253	2236.0894	2537.8	1653.2
952.559	2237.5632	2541.8	1648.35
952.6927	2239.0362	2535.55	1646.6
952.8263	2240.5085	2509.3	1622.45
952.9599	2241.9801	2513.8	1626.5
953.0935	2243.4509	2522.9	1632.65
953.2271	2244.921	2514.9	1621.95
953.3606	2246.3904	2511.65	1617.45
953.4941	2247.8591	2488.45	1599.5
953.6276	2249.3271	2482.05	1594
953.7611	2250.7943	2490.2	1600.85
953.8945	2252.2608	2481.35	1591.25
954.0279	2253.7266	2483.9	1593.25
954.1612	2255.1917	2467.15	1576.75
954.2946	2256.656	2451.15	1565.55
954.4279	2258.1197	2441.95	1558.3
954.5612	2259.5826	2454.9	1565.1
954.6944	2261.0447	2449.35	1561.35
954.8276	2262.5062	2441.05	1549.95
954.9608	2263.9669	2442.55	1549.65
955.094	2265.4269	2432.55	1542.6
955.2271	2266.8862	2437.35	1549.6
955.3602	2268.3448	2424.95	1537.35
955.4933	2269.8026	2418.65	1531.75
955.6264	2271.2598	2414.05	1528.6
955.7594	2272.7162	2413.25	1527.05
955.8924	2274.1719	2409.85	1521.45
956.0253	2275.6268	2396.55	1505.55
956.1583	2277.0811	2400	1510.75
956.2912	2278.5346	2396.65	1509.05
956.4241	2279.9874	2405.4	1518.25
956.5569	2281.4395	2396.85	1513.45
956.6897	2282.8908	2393.95	1503.5
956.8225	2284.3414	2391.15	1501.5
956.9553	2285.7914	2378.85	1491
957.088	2287.2406	2375.6	1484.55
957.2207	2288.689	2381.3	1491.05
957.3534	2290.1368	2371.75	1476.7
957.486	2291.5838	2364.6	1467
957.6186	2293.0302	2361.95	1467.35
957.7512	2294.4758	2361.5	1467.85
957.8838	2295.9206	2357.6	1465.9
958.0163	2297.3648	2341	1454.75
958.1488	2298.8082	2358.15	1471.45
958.2813	2300.251	2344.25	1454.3
958.4137	2301.693	2355	1460.2
958.5461	2303.1343	2336	1444.55
958.6785	2304.5748	2330.35	1441.2
958.8108	2306.0147	2316.8	1430.6
958.9432	2307.4538	2323.95	1437.65
959.0754	2308.8922	2316.9	1435.9
959.2077	2310.3299	2307.35	1422.7
959.3399	2311.7669	2301.35	1416.65
959.4721	2313.2031	2295.4	1408.85
959.6043	2314.6387	2296.65	1406
959.7365	2316.0735	2290.2	1399.75
959.8686	2317.5076	2288.65	1400.45
960.0006	2318.941	2286.5	1394.5
960.1327	2320.3737	2274.6	1382.65
960.2647	2321.8056	2263.35	1370.6
960.3967	2323.2369	2271.1	1381.55
960.5287	2324.6674	2268.75	1378.25
960.6606	2326.0972	2258.65	1369.8
960.7925	2327.5263	2250.9	1360.55
960.9244	2328.9547	2263.8	1375.65
961.0562	2330.3823	2248.45	1354.5
961.1881	2331.8092	2262.4	1366
961.3198	2333.2355	2244.7	1352.8
961.4516	2334.661	2239.5	1346.75
961.5833	2336.0858	2234.05	1341.75
961.715	2337.5098	2228.95	1337.7
961.8467	2338.9332	2237.1	1347.25
961.9783	2340.3558	2230.65	1339.4
962.1099	2341.7778	2213.1	1326.2
962.2415	2343.199	2216.9	1327.6
962.373	2344.6195	2209.4	1322.4
962.5045	2346.0393	2210.35	1324.8
962.636	2347.4583	2218.6	1328.95
962.7675	2348.8767	2218.6	1328.2
962.8989	2350.2943	2206.55	1312.25
963.0303	2351.7113	2200.95	1307.1
963.1617	2353.1275	2190.85	1298.2
963.293	2354.543	2214.1	1314.3
963.4243	2355.9578	2190.05	1301.3
963.5556	2357.3718	2187	1299.9
963.6868	2358.7852	2184.95	1296.6
963.818	2360.1978	2176.2	1288.7
963.9492	2361.6098	2164.75	1278.4
964.0803	2363.021	2176.05	1284.1
964.2114	2364.4315	2168.6	1278.9
964.3425	2365.8413	2154.45	1264.35
964.4736	2367.2504	2155.45	1269.85
964.6046	2368.6587	2153.75	1269.4
964.7356	2370.0664	2146.65	1260.65
964.8666	2371.4733	2136.9	1250.65
964.9975	2372.8795	2133.05	1243.7
965.1284	2374.285	2133.7	1245.65
965.2593	2375.6899	2130.9	1242.75
965.3901	2377.0939	2124	1236.15
965.5209	2378.4973	2112.5	1228.65
965.6517	2379.9	2115.6	1232.45
965.7825	2381.3019	2123.3	1238.8
965.9132	2382.7032	2114.1	1229.25
966.0439	2384.1037	2093.1	1210.55
966.1745	2385.5035	2098.6	1216
966.3051	2386.9027	2093.75	1212.35
966.4357	2388.3011	2086.85	1199.9
966.5663	2389.6987	2083.15	1199.3
966.6968	2391.0957	2082.3	1200.25
966.8273	2392.492	2080.05	1196.05
966.9578	2393.8876	2068.2	1183.95
967.0882	2395.2824	2058.7	1174.2
967.2186	2396.6765	2048.9	1163.55
967.349	2398.07	2057.55	1171.65
967.4793	2399.4627	2059.6	1173.15
967.6097	2400.8547	2051.95	1165.4
967.7399	2402.246	2049.15	1157.45
967.8702	2403.6366	2041.45	1156.1
968.0004	2405.0265	2033.3	1150.2
968.1306	2406.4156	2044.1	1154.5
968.2607	2407.8041	2038.75	1151.35
968.3909	2409.1918	2029.5	1141
968.521	2410.5789	2025.9	1137.75
968.651	2411.9652	2023.9	1136
968.781	2413.3508	2018.1	1131.25
968.911	2414.7358	2016.35	1130.5
969.041	2416.12	2001.2	1116.2
969.1709	2417.5035	2002.85	1118.6
969.3008	2418.8863	2005.4	1120.05
969.4307	2420.2684	2001.6	1114
969.5606	2421.6497	1997.1	1110.85
969.6904	2423.0304	1993.6	1107.1
969.8201	2424.4104	1985.1	1098.9
969.9499	2425.7896	1987.2	1100.45
970.0796	2427.1682	1976.7	1090
970.2093	2428.546	1981.4	1094.95
970.3389	2429.9232	1983.1	1095.2
970.4685	2431.2996	1959.9	1073.6
970.5981	2432.6753	1970	1084.35
970.7277	2434.0503	1973.8	1085.8
970.8572	2435.4246	1970.9	1085.25
970.9867	2436.7982	1970	1080.3
971.1161	2438.1711	1954.7	1068.35
971.2456	2439.5433	1955.8	1070.15
971.375	2440.9148	1956.3	1065.5
971.5043	2442.2856	1940.35	1055.95
971.6336	2443.6557	1941.35	1053.75
971.7629	2445.025	1931.55	1045.6
971.8922	2446.3937	1925.7	1036.8
972.0214	2447.7617	1938.8	1050.35
972.1506	2449.1289	1935.7	1048.5
972.2798	2450.4955	1940.35	1051.35
972.4089	2451.8613	1917.4	1033.5
972.538	2453.2265	1917.85	1032.75
972.6671	2454.5909	1910.9	1024.9
972.7961	2455.9546	1908.6	1022.6
972.9251	2457.3177	1909.3	1024.5
973.0541	2458.68	1905.95	1018
973.1831	2460.0416	1909.2	1023.85
973.312	2461.4025	1906.95	1020.65
973.4408	2462.7627	1912.8	1017.45
973.5697	2464.1222	1894.6	1010.85
973.6985	2465.4811	1892.05	1006.75
973.8273	2466.8392	1891.95	1007.85
973.956	2468.1966	1890.5	1001.4
974.0847	2469.5533	1896.35	1010.1
974.2134	2470.9093	1893.9	1008.55
974.3421	2472.2645	1891.35	1003.2
974.4707	2473.6191	1886.75	1002.55
974.5993	2474.973	1889.15	1001.35
974.7278	2476.3262	1879	992.85
974.8563	2477.6787	1883.8	998.9
974.9848	2479.0305	1865.7	980.8
975.1132	2480.3816	1865.9	980.6
975.2417	2481.7319	1867.65	982.55
975.37	2483.0816	1873.5	984.4
975.4984	2484.4306	1852.65	965.6
975.6267	2485.7789	1848.8	960
975.755	2487.1264	1850.55	964.2
975.8833	2488.4733	1848.05	964.05
976.0115	2489.8195	1848.95	954.15
976.1397	2491.165	1849.95	961.6
976.2678	2492.5097	1846.35	961.55
976.3959	2493.8538	1829.3	943.25
976.524	2495.1972	1823.35	937.25
976.6521	2496.5398	1813.05	925.3
976.7801	2497.8818	1825.25	936.95
976.9081	2499.2231	1825.65	938.75
977.036	2500.5637	1823.1	932.05
977.164	2501.9035	1817.65	929.35
977.2918	2503.2427	1812.8	921.7
977.4197	2504.5812	1802.65	915
977.5475	2505.919	1811.65	921.25
977.6753	2507.256	1805	917.9
977.8031	2508.5924	1799.5	915.9
977.9308	2509.9281	1811.05	919.05
978.0585	2511.2631	1801.95	914.2
978.1861	2512.5974	1795.5	911.3
978.3137	2513.9309	1798	912.35
978.4413	2515.2638	1806.45	896.1
978.5689	2516.596	1788.8	900.25
978.6964	2517.9275	1780.2	892.6
978.8239	2519.2583	1784	896.8
978.9513	2520.5884	1781.8	892.95
979.0788	2521.9178	1770.3	884.2
979.2062	2523.2465	1767.55	880.8
979.3335	2524.5745	1765.2	879.9
979.4608	2525.9018	1769.8	883.85
979.5881	2527.2284	1765.25	878.85
979.7154	2528.5543	1763.2	878.35
979.8426	2529.8796	1763.1	877.15
979.9698	2531.2041	1763.2	877.25
980.0969	2532.5279	1753.3	869.55
980.224	2533.851	1751	864.15
980.3511	2535.1735	1750.9	865.75
980.4781	2536.4952	1749.35	863.35
980.6052	2537.8163	1754.05	864
980.7321	2539.1366	1742.15	855.85
980.8591	2540.4562	1737.95	850.35
980.986	2541.7752	1741.15	854.05
981.1129	2543.0935	1743.1	853
981.2397	2544.411	1738.45	849.5
981.3665	2545.7279	1746.45	861.1
981.4933	2547.0441	1745.15	858.7
981.62	2548.3596	1735.05	845.85
981.7467	2549.6744	1735.95	848.6
981.8734	2550.9885	1733.3	844.05
982.0001	2552.3019	1721.95	835.05
982.1267	2553.6146	1730.25	842.65
982.2532	2554.9266	1724.05	838.7
982.3798	2556.2379	1719.8	831.15
982.5063	2557.5485	1716.2	829.25
982.6327	2558.8585	1723.4	830.5
982.7592	2560.1677	1722.7	831.05
982.8856	2561.4762	1712.95	825.45
983.0119	2562.7841	1721.3	830.45
983.1383	2564.0913	1715.25	827.25
983.2646	2565.3977	1710.2	822.55
983.3908	2566.7035	1704.9	818
983.517	2568.0086	1713.75	824.05
983.6432	2569.313	1709.75	818.95
983.7694	2570.6167	1703	811.45
983.8955	2571.9197	1696.75	809.85
984.0216	2573.222	1706.15	816.9
984.1476	2574.5236	1693.65	805.45
984.2737	2575.8246	1696.8	807.1
984.3996	2577.1248	1694.05	803.7
984.5256	2578.4244	1693.9	806.6
984.6515	2579.7232	1693.25	805.2
984.7774	2581.0214	1703.05	788.5
984.9032	2582.3189	1692.8	806.15
985.029	2583.6157	1694.35	802.75
985.1548	2584.9118	1693.55	805
985.2806	2586.2072	1692.35	807.7
985.4063	2587.5019	1681.15	796.5
985.5319	2588.7959	1692.3	805.25
985.6576	2590.0893	1694.1	803.65
985.7832	2591.3819	1699.2	811.95
985.9087	2592.6739	1684.05	797.95
986.0343	2593.9652	1685	796.2
986.1597	2595.2557	1693	806.35
986.2852	2596.5456	1698.8	810.25
986.4106	2597.8348	1685.4	797.95
986.536	2599.1234	1690.05	803.8
986.6614	2600.4112	1688.95	802.75
986.7867	2601.6983	1691.1	800.95
986.912	2602.9848	1682.85	796
987.0372	2604.2705	1694.8	802.5
987.1624	2605.5556	1687.45	800.95
987.2876	2606.84	1677.05	792.2
987.4128	2608.1237	1678	792.75
987.5379	2609.4067	1671.55	784
987.6629	2610.689	1666.55	770
987.788	2611.9707	1670.8	782.25
987.913	2613.2516	1665.4	775.1
988.0379	2614.5319	1655.55	769.8
988.1629	2615.8115	1654.9	767.75
988.2878	2617.0903	1652.1	763
988.4126	2618.3685	1646.55	758.3
988.5375	2619.6461	1649.95	760.75
988.6622	2620.9229	1642.85	757.55
988.787	2622.199	1647.05	760.3
988.9117	2623.4745	1645.95	759.4
989.0364	2624.7493	1631.35	746.15
989.161	2626.0234	1640.55	755.15
989.2857	2627.2968	1643	758
989.4102	2628.5695	1639.6	753.75
989.5348	2629.8415	1628	742.8
989.6593	2631.1128	1635.95	746.2
989.7837	2632.3835	1628.7	743.75
989.9082	2633.6535	1632.6	746.95
990.0326	2634.9228	1630.8	745.45
990.1569	2636.1914	1632.1	749.3
990.2812	2637.4593	1628.7	740.4
990.4055	2638.7265	1626.9	739.3
990.5298	2639.9931	1624.2	738.5
990.654	2641.259	1623.2	736.3
990.7782	2642.5242	1618.5	733
990.9023	2643.7887	1619.55	734.1
991.0264	2645.0525	1617.5	732.3
991.1505	2646.3156	1615.3	729.85
991.2745	2647.5781	1612.1	726.9
991.3985	2648.8398	1607.2	724.5
991.5225	2650.1009	1630.2	706.45
991.6464	2651.3613	1600.4	714.7
991.7703	2652.6211	1595.45	708.15
991.8942	2653.8801	1599.8	715.6
992.018	2655.1385	1603.65	714.85
992.1418	2656.3961	1601.1	715
992.2655	2657.6531	1598.65	713.05
992.3892	2658.9094	1596.85	708.55
992.5129	2660.1651	1595.8	710.95
992.6366	2661.42	1586.9	700.7
992.7602	2662.6743	1598.25	712.2
992.8837	2663.9279	1594.4	709.25
993.0073	2665.1808	1595.85	709.6
993.1307	2666.433	1602.45	714.3
993.2542	2667.6846	1604.25	719.85
993.3776	2668.9354	1601.8	712.05
993.501	2670.1856	1603.3	717.35
993.6244	2671.4351	1604.3	717.3
993.7477	2672.6839	1616.1	731.4
993.8709	2673.9321	1608.05	723.85
993.9942	2675.1795	1604.05	718.7
994.1174	2676.4263	1601.3	719.4
994.2405	2677.6724	1604	719
994.3637	2678.9179	1603.9	718.15
994.4868	2680.1626	1604.6	721
994.6098	2681.4067	1611.3	723.05
994.7328	2682.6501	1606.7	721
994.8558	2683.8928	1602.4	715.7
994.9788	2685.1348	1592.8	706.7
995.1017	2686.3761	1597.1	712.75
995.2245	2687.6168	1586.3	701.65
995.3474	2688.8568	1584.85	701.45
995.4702	2690.0961	1580	696.35
995.5929	2691.3348	1579.6	694.55
995.7156	2692.5727	1579.65	695.3
995.8383	2693.81	1574.25	690.1
995.961	2695.0466	1571.15	685.55
996.0836	2696.2826	1575.4	687.35
996.2062	2697.5178	1567.15	679.65
996.3287	2698.7524	1564.1	678.2
996.4512	2699.9863	1577.55	693
996.5737	2701.2195	1573	689.4
996.6961	2702.452	1582.9	695.4
996.8185	2703.6839	1577.65	691.8
996.9408	2704.9151	1586.15	704
997.0631	2706.1456	1591.4	706.7
997.1854	2707.3755	1584.7	699.6
997.3077	2708.6046	1602.35	714.15
997.4299	2709.8331	1608.95	722.6
997.552	2711.0609	1604.35	720.3
997.6742	2712.2881	1617.85	731.8
997.7963	2713.5145	1629.15	742.6
997.9183	2714.7403	1632.25	750.1
998.0403	2715.9654	1640.15	754.4
998.1623	2717.1899	1669.3	774
998.2842	2718.4136	1660.5	777.35
998.4062	2719.6367	1669.75	785.75
998.528	2720.8591	1691.1	799.8
998.6498	2722.0809	1686.2	801
998.7716	2723.3019	1704.3	814.65
998.8934	2724.5223	1715.45	829.5
999.0151	2725.7421	1710.05	823.35
999.1368	2726.9611	1719.7	833.9
999.2584	2728.1795	1720.6	833.1
999.38	2729.3972	1706.35	823.6
999.5016	2730.6142	1706.45	810.45
999.6231	2731.8306	1683.9	800.2
999.7446	2733.0462	1663.3	778.25
999.8661	2734.2612	1645.2	756.5
999.9875	2735.4756	1629.2	744.5
1000.1089	2736.6892	1610.7	725.7
1000.2302	2737.9022	1598.75	715.4
1000.3515	2739.1145	1581.95	696.65
1000.4728	2740.3262	1582.5	690.65
1000.594	2741.5372	1562.2	678.9
1000.7152	2742.7475	1548.85	663.4
1000.8363	2743.9571	1546	662.6
1000.9575	2745.1661	1536.3	647.6
1001.0785	2746.3744	1528	645.6
1001.1996	2747.582	1508.15	625.4
1001.3206	2748.7889	1511.6	627.9
1001.4415	2749.9952	1498.1	613.95
1001.5625	2751.2008	1494.05	610.2
1001.6833	2752.4057	1492.4	605.95
1001.8042	2753.61	1482.95	598.9
1001.925	2754.8136	1481.05	596.2
1002.0458	2756.0165	1476.1	594.15
1002.1665	2757.2188	1475.85	592.85
1002.2872	2758.4204	1481.75	600.1
1002.4078	2759.6213	1481.35	595.7
1002.5285	2760.8215	1486.85	600.4
1002.649	2762.0211	1473.35	589.4
1002.7696	2763.22	1467.4	580.95
1002.8901	2764.4182	1476.25	592.4
1003.0106	2765.6158	1470.4	586.2
1003.131	2766.8127	1470.1	584.9
1003.2514	2768.009	1460.45	576.25
1003.3717	2769.2045	1459.35	575.25
1003.492	2770.3994	1463.95	576.7
1003.6123	2771.5936	1453.55	570.8
1003.7325	2772.7872	1449.2	566.75
1003.8527	2773.9801	1452.45	568.4
1003.9729	2775.1723	1461.9	561.4
1004.093	2776.3639	1443.3	563
1004.2131	2777.5548	1453.45	570.4
1004.3331	2778.745	1447.65	564.4
1004.4531	2779.9346	1445.45	563.05
1004.5731	2781.1235	1449	565.55
1004.693	2782.3117	1451.5	569.85
1004.8129	2783.4992	1453.25	570.7
1004.9328	2784.6861	1455.25	572.65
1005.0526	2785.8723	1456.45	572.4
1005.1723	2787.0579	1465	581.05
1005.2921	2788.2428	1471	588.65
1005.4118	2789.427	1474.95	592.75
1005.5314	2790.6106	1479.45	597.2
1005.651	2791.7935	1495.15	614.1
1005.7706	2792.9757	1499.4	617.9
1005.8902	2794.1573	1502.4	617.4
1006.0097	2795.3382	1512.9	628.4
1006.1291	2796.5184	1527.05	649.2
1006.2485	2797.698	1539.75	656.35
1006.3679	2798.8769	1552.2	671.2
1006.4873	2800.0551	1574.05	690.8
1006.6066	2801.2327	1586.4	703.6
1006.7258	2802.4096	1596.7	715.95
1006.8451	2803.5859	1618.95	737.6
1006.9642	2804.7615	1629.55	746.35
1007.0834	2805.9364	1653.7	771.35
1007.2025	2807.1106	1681.5	800.65
1007.3216	2808.2842	1711.2	826.45
1007.4406	2809.4572	1730.8	848
1007.5596	2810.6294	1764.95	880.95
1007.6785	2811.801	1798.85	917.65
1007.7975	2812.972	1839.45	958.6
1007.9163	2814.1423	1883.85	1001.3
1008.0352	2815.3119	1931.95	1050.95
1008.154	2816.4808	1972.35	1091.35
1008.2727	2817.6491	2024.65	1141.6
1008.3914	2818.8167	2059.7	1179.8
1008.5101	2819.9837	2126.4	1238.6
1008.6288	2821.15	2176.15	1294.7
1008.7474	2822.3157	2225.05	1344.8
1008.8659	2823.4807	2280	1398.25
1008.9844	2824.645	2318.65	1435.45
1009.1029	2825.8086	2373.25	1492.4
1009.2214	2826.9716	2420.15	1538.85
1009.3398	2828.134	2467	1589.25
1009.4581	2829.2957	2504.4	1620.5
1009.5764	2830.4567	2536.35	1658.3
1009.6947	2831.617	2565.1	1683.1
1009.813	2832.7767	2568.75	1687.7
1009.9312	2833.9358	2571.6	1691.95
1010.0493	2835.0941	2581.1	1698.2
1010.1675	2836.2519	2549.7	1668.2
1010.2855	2837.4089	2544	1663.7
1010.4036	2838.5653	2523.25	1640.8
1010.5216	2839.7211	2524.1	1644.85
1010.6396	2840.8761	2524.3	1640.3
1010.7575	2842.0306	2552.6	1673.8
1010.8754	2843.1843	2579.7	1696.9
1010.9932	2844.3374	2615.3	1733.55
1011.111	2845.4899	2658.25	1776
1011.2288	2846.6417	2723.55	1842.7
1011.3465	2847.7928	2789.55	1908.55
1011.4642	2848.9433	2862.5	1982.95
1011.5818	2850.0931	2934.55	2054.3
1011.6995	2851.2422	3003	2121.1
1011.817	2852.3907	3057.75	2176.4
1011.9345	2853.5385	3131.2	2248.75
1012.052	2854.6857	3184.1	2291.2
1012.1695	2855.8323	3223	2341.6
1012.2869	2856.9781	3271.05	2392.15
1012.4042	2858.1233	3325.75	2444.6
1012.5216	2859.2679	3364.65	2485.1
1012.6389	2860.4118	3423.8	2545.7
1012.7561	2861.555	3469.9	2584.15
1012.8733	2862.6976	3502.3	2619.75
1012.9905	2863.8395	3521.95	2642.1
1013.1076	2864.9808	3565.15	2682.4
1013.2247	2866.1214	3588.95	2710.45
1013.3417	2867.2614	3601.8	2721.1
1013.4587	2868.4007	3611.1	2731.15
1013.5757	2869.5393	3608.75	2726.8
1013.6926	2870.6773	3631	2747.3
1013.8095	2871.8146	3652.9	2768.7
1013.9263	2872.9513	3656.5	2771.55
1014.0431	2874.0874	3643.55	2762.05
1014.1599	2875.2227	3642.55	2760.85
1014.2766	2876.3574	3609.95	2729.35
1014.3933	2877.4915	3584.45	2706.3
1014.51	2878.6249	3576.9	2697.9
1014.6266	2879.7577	3540	2657.4
1014.7431	2880.8898	3524.5	2633.15
1014.8596	2882.0212	3498.45	2619.05
1014.9761	2883.152	3505.55	2624.6
1015.0925	2884.2821	3469.8	2589.8
1015.2089	2885.4116	3461.85	2581.9
1015.3253	2886.5405	3462.45	2583.95
1015.4416	2887.6686	3474.65	2591.3
1015.5579	2888.7962	3493.6	2616.45
1015.6741	2889.923	3499.5	2619.5
1015.7903	2891.0493	3510	2631.35
1015.9065	2892.1748	3515.6	2635.55
1016.0226	2893.2997	3529	2649.15
1016.1387	2894.424	3543.4	2665.85
1016.2547	2895.5476	3570.8	2691.15
1016.3707	2896.6706	3585.95	2708.2
1016.4866	2897.7929	3607.45	2727.6
1016.6025	2898.9145	3642.1	2762.05
1016.7184	2900.0355	3658.75	2776.85
1016.8342	2901.1559	3695.9	2818.85
1016.95	2902.2756	3720.95	2840.35
1017.0658	2903.3946	3750.7	2871.6
1017.1815	2904.513	3784.35	2901.65
1017.2971	2905.6308	3801.1	2922.9
1017.4127	2906.7479	3822.9	2944.1
1017.5283	2907.8643	3864.7	2984.25
1017.6439	2908.9801	3877.35	2998.55
1017.7594	2910.0953	3869.6	2990.85
1017.8748	2911.2098	3876.65	2994.85
1017.9902	2912.3236	3873.95	2985.15
1018.1056	2913.4368	3855.55	2974.1
1018.2209	2914.5494	3826.75	2948.6
1018.3362	2915.6613	3818.15	2932.35
1018.4515	2916.7725	3782.85	2900.45
1018.5667	2917.8831	3749	2870.55
1018.6819	2918.9931	3720.5	2835.75
1018.797	2920.1024	3703.4	2823.6
1018.9121	2921.211	3681.05	2799.5
1019.0271	2922.319	3643.2	2763.55
1019.1421	2923.4264	3643.85	2765.85
1019.2571	2924.5331	3627.25	2747.85
1019.372	2925.6391	3605.6	2727.7
1019.4869	2926.7445	3610.1	2733.1
1019.6017	2927.8493	3617.7	2739.3
1019.7165	2928.9534	3605.4	2725.45
1019.8313	2930.0569	3609	2726.65
1019.946	2931.1597	3600.85	2722
1020.0606	2932.2619	3604.45	2725.8
1020.1753	2933.3634	3599	2720.9
1020.2899	2934.4643	3612	2727.45
1020.4044	2935.5645	3589.3	2704.95
1020.5189	2936.6641	3549.4	2667.85
1020.6334	2937.763	3520.2	2641.45
1020.7478	2938.8613	3473.6	2596.55
1020.8622	2939.959	3426.25	2541.85
1020.9765	2941.056	3368.2	2489.7
1021.0908	2942.1523	3275.15	2396.3
1021.2051	2943.248	3197.9	2318.6
1021.3193	2944.3431	3111.3	2232.7
1021.4334	2945.4375	3001.75	2124.1
1021.5476	2946.5313	2903.4	2025.35
1021.6617	2947.6244	2804.25	1927
1021.7757	2948.7169	2708.6	1828.55
1021.8897	2949.8087	2620.8	1743
1022.0037	2950.8999	2527.95	1649.3
1022.1176	2951.9904	2437.9	1561.7
1022.2315	2953.0803	2383.35	1502.95
1022.3453	2954.1696	2318.8	1440
1022.4591	2955.2582	2269.95	1392.05
1022.5728	2956.3462	2213.65	1335.4
1022.6865	2957.4335	2172.7	1292.5
1022.8002	2958.5202	2147.5	1268.2
1022.9138	2959.6062	2110.75	1235.7
1023.0274	2960.6916	2099.35	1222.6
1023.141	2961.7764	2068.75	1188.9
1023.2545	2962.8605	2052.75	1175.7
1023.3679	2963.9439	2052.95	1176.95
1023.4813	2965.0267	2034.9	1156.55
1023.5947	2966.1089	2051.6	1153.2
1023.708	2967.1905	2008.15	1130.7
1023.8213	2968.2714	2018.5	1141.05
1023.9346	2969.3516	2013.15	1134.9
1024.0478	2970.4312	2026.65	1139.5
1024.1609	2971.5102	2017.45	1140.85
1024.274	2972.5885	2018	1141.5
1024.3871	2973.6662	2012.2	1129.15
1024.5002	2974.7432	2018.05	1141.1
1024.6132	2975.8196	2015.5	1136.25
1024.7261	2976.8954	2007.2	1130.45
1024.839	2977.9705	1996.85	1118.05
1024.9519	2979.045	1970.8	1094.35
1025.0647	2980.1188	1963.85	1086.6
1025.1775	2981.192	1951.3	1075.2
1025.2902	2982.2645	1935.9	1058.2
1025.4029	2983.3364	1905	1027.55
1025.5156	2984.4077	1872.4	994.15
1025.6282	2985.4783	1855.65	974.35
1025.7407	2986.5483	1822.4	944.75
1025.8532	2987.6177	1778.2	900.7
1025.9657	2988.6864	1758.6	880.05
1026.0782	2989.7545	1718.45	840.1
1026.1906	2990.8219	1682.15	805.95
1026.3029	2991.8887	1655.7	773.4
1026.4152	2992.9548	1627.25	752.35
1026.5275	2994.0204	1595.65	718.4
1026.6397	2995.0852	1570.2	695.4
1026.7519	2996.1495	1551.65	672.65
1026.864	2997.2131	1511.1	634.65
1026.9761	2998.276	1491.55	614
1027.0882	2999.3383	1477.1	598.3
1027.2002	3000.4	1452.3	575.85
1027.3122	3001.4611	1434.6	555.9
1027.4241	3002.5215	1418.65	540.15
1027.536	3003.5812	1401.7	523.5
1027.6478	3004.6404	1392.25	514.75
1027.7596	3005.6989	1379.85	497.9
1027.8714	3006.7567	1371.3	494.6
1027.9831	3007.8139	1383.15	476.15
1028.0947	3008.8705	1353.2	477.45
1028.2064	3009.9264	1354.1	475.25
1028.3179	3010.9818	1335.85	459.15
1028.4295	3012.0364	1328.15	451.4
1028.541	3013.0905	1334.45	456.05
1028.6524	3014.1439	1324.65	447.15
1028.7638	3015.1966	1321.65	445.65
1028.8752	3016.2487	1317.8	439
1028.9865	3017.3002	1329.9	446
1029.0978	3018.3511	1311.7	437.2
1029.209	3019.4013	1314.5	436.75
1029.3202	3020.4509	1315.85	439.45
1029.4314	3021.4998	1309.45	430.9
1029.5425	3022.5481	1308.4	431.55
1029.6535	3023.5958	1311.1	434.4
1029.7645	3024.6428	1310.15	432.3
1029.8755	3025.6892	1309.3	433.25
1029.9864	3026.735	1308.35	431.25
1030.0973	3027.7802	1309.55	430.8
1030.2082	3028.8247	1312.15	438.75
1030.319	3029.8685	1308.4	429.8
1030.4297	3030.9118	1321.2	444.6
1030.5404	3031.9544	1315.35	440.05
1030.6511	3032.9963	1318.3	441.95
1030.7617	3034.0376	1329.25	453.35
1030.8723	3035.0783	1329.75	449.65
1030.9829	3036.1184	1324.8	446.55
1031.0934	3037.1578	1333.4	455.05
1031.2038	3038.1966	1338.9	458.65
1031.3142	3039.2348	1334.45	459.6
1031.4246	3040.2723	1343.75	459.25
1031.5349	3041.3092	1331.15	456.65
1031.6452	3042.3455	1345.8	469.3
1031.7554	3043.3811	1331.1	451.8
1031.8656	3044.4161	1332.1	456.25
1031.9758	3045.4505	1329.4	453.15
1032.0859	3046.4842	1324.2	445.75
1032.1959	3047.5173	1313.25	439.3
1032.3059	3048.5498	1317.2	440.55
1032.4159	3049.5816	1307.9	432.65
1032.5258	3050.6128	1301.3	423.6
1032.6357	3051.6434	1300.2	423.1
1032.7455	3052.6734	1293.95	416.1
1032.8553	3053.7027	1289.85	411.1
1032.9651	3054.7314	1289.2	412.65
1033.0748	3055.7594	1280.55	406.45
1033.1845	3056.7868	1276.25	399.55
1033.2941	3057.8136	1276.4	398.8
1033.4037	3058.8398	1269.8	392.6
1033.5132	3059.8653	1264.4	389.3
1033.6227	3060.8902	1259.65	382.95
1033.7321	3061.9145	1256.05	377.9
1033.8415	3062.9381	1246.1	369.15
1033.9509	3063.9612	1265.65	374.75
1034.0602	3064.9835	1246.6	370.1
1034.1694	3066.0053	1238.8	360.45
1034.2787	3067.0264	1233.5	358
1034.3878	3068.0469	1234.1	356.75
1034.497	3069.0668	1224.75	346
1034.6061	3070.086	1215.65	340.65
1034.7151	3071.1046	1209.75	334.35
1034.8241	3072.1226	1202	324.4
1034.9331	3073.1399	1198.55	322.45
1035.042	3074.1567	1189.7	312.9
1035.1508	3075.1727	1180.55	301.9
1035.2597	3076.1882	1169.4	293.15
1035.3684	3077.203	1159.15	282.25
1035.4772	3078.2173	1156.25	278.65
1035.5859	3079.2308	1159.15	282.75
1035.6945	3080.2438	1142.8	264.6
1035.8031	3081.2561	1141.05	264.15
1035.9117	3082.2678	1127.25	250.25
1036.0202	3083.2789	1125.1	250.45
1036.1286	3084.2893	1119.25	243.35
1036.2371	3085.2991	1108.2	232.2
1036.3454	3086.3083	1114.9	236.45
1036.4538	3087.3169	1106.05	229.2
1036.562	3088.3248	1100.1	222.4
1036.6703	3089.3321	1095.8	217.35
1036.7785	3090.3388	1095.55	219.5
1036.8866	3091.3449	1084.8	209.45
1036.9948	3092.3503	1082.25	200.7
1037.1028	3093.3551	1076.95	204.35
1037.2108	3094.3593	1077.9	203.4
1037.3188	3095.3629	1074.9	198.1
1037.4267	3096.3658	1070.7	195.45
1037.5346	3097.3681	1066.8	190.4
1037.6425	3098.3698	1066.45	189.15
1037.7503	3099.3708	1070.9	187.4
1037.858	3100.3713	1057.8	183.15
1037.9657	3101.3711	1058.7	181.15
1038.0734	3102.3702	1186.75	172.8
1038.181	3103.3688	1057.35	178.75
1038.2886	3104.3667	1047.8	174.2
1038.3961	3105.364	1050.55	175.65
1038.5036	3106.3607	1047.95	170.45
1038.611	3107.3568	1046.4	170.2
1038.7184	3108.3522	1040.6	165.75
1038.8257	3109.347	1045	167.5
1038.933	3110.3412	1037.4	159.15
1039.0403	3111.3348	1036.65	162.55
1039.1475	3112.3277	1034.2	160.45
1039.2547	3113.32	1027.9	152.4
1039.3618	3114.3117	1031.55	154.55
1039.4689	3115.3028	1027.65	150.4
1039.5759	3116.2932	1030	154.55
1039.6829	3117.2831	1036.5	154.7
1039.7898	3118.2723	1024	149.25
1039.8967	3119.2608	1022.1	146.9
1040.0035	3120.2488	1023.25	145.45
1040.1103	3121.2361	1020.85	145.95
1040.2171	3122.2229	1021.8	146
1040.3238	3123.209	1019.1	144
1040.4305	3124.1944	1019.3	145.2
1040.5371	3125.1793	1017.1	139.15
1040.6437	3126.1635	1012.4	138.9
1040.7502	3127.1471	1015.85	142.3
1040.8567	3128.1301	1011.7	134.55
1040.9631	3129.1125	1013.25	138.4
1041.0695	3130.0942	1010.65	136.9
1041.1759	3131.0753	1017.75	132.05
1041.2822	3132.0558	1010.35	130.7
1041.3884	3133.0357	1007.45	130.8
1041.4946	3134.015	1006.15	130.2
1041.6008	3134.9936	1007.5	129.8
1041.7069	3135.9716	1027.85	130.15
1041.813	3136.949	1002.8	128.85
1041.919	3137.9258	1019.7	124.9
1042.025	3138.902	1008	127.9
1042.1309	3139.8775	996.5	120.9
1042.2368	3140.8524	997.25	121.4
1042.3427	3141.8267	998.1	120.1
1042.4485	3142.8004	994.9	119.9
1042.5542	3143.7735	1005.6	122.4
1042.6599	3144.7459	1000.35	124.25
1042.7656	3145.7178	997.6	122.1
1042.8712	3146.689	992.25	118.65
1042.9768	3147.6596	995	117.35
1043.0823	3148.6295	988.75	113.9
1043.1878	3149.5989	991.05	116.85
1043.2932	3150.5676	987.85	113.2
1043.3986	3151.5357	986.75	112.35
1043.5039	3152.5032	988.85	115.9
1043.6092	3153.4701	986.05	110.1
1043.7145	3154.4364	987.3	108.15
1043.8197	3155.402	986.1	112.6
1043.9248	3156.367	984.95	107.8
1044.03	3157.3315	1014.65	108.3
1044.135	3158.2952	981.45	104.75
1044.24	3159.2584	983.45	109
1044.345	3160.221	981.5	104.5
1044.4499	3161.1829	977.9	104.5
1044.5548	3162.1442	978.9	104.4
1044.6596	3163.105	977.65	103.85
1044.7644	3164.065	977.55	104.1
1044.8692	3165.0245	979.35	101.6
1044.9739	3165.9834	974.75	99.75
1045.0785	3166.9416	976	100.75
1045.1831	3167.8993	974.25	99.2
1045.2877	3168.8563	969.5	94.4
1045.3922	3169.8127	970.65	95.4
1045.4966	3170.7684	969.65	95.1
1045.6011	3171.7236	973.35	94.9
1045.7054	3172.6782	971.45	96.95
1045.8098	3173.6321	971.85	97.9
1045.914	3174.5854	977.1	97.55
1046.0183	3175.5381	969.7	94.95
1046.1224	3176.4902	968.05	95.15
1046.2266	3177.4417	962.55	88.8
1046.3307	3178.3926	967.85	92.85
1046.4347	3179.3428	967.6	96.05
1046.5387	3180.2924	964.25	90.3
1046.6427	3181.2415	965.5	90.05
1046.7466	3182.1899	967.95	90.95
1046.8504	3183.1377	964.7	91
1046.9542	3184.0848	965.8	86.75
1047.058	3185.0314	961.9	88.05
1047.1617	3185.9773	962.8	87.45
1047.2654	3186.9227	962.6	86.95
1047.369	3187.8674	961.95	89.15
1047.4726	3188.8115	965.35	85.8
1047.5761	3189.755	962.2	88.8
1047.6796	3190.6979	961.4	86.85
1047.783	3191.6402	959.05	83.6
1047.8864	3192.5818	958.95	84.05
1047.9898	3193.5229	977.45	83.45
1048.0931	3194.4633	958.8	83.9
1048.1963	3195.4031	955.9	80.4
1048.2995	3196.3423	956.15	81.3
1048.4027	3197.2809	958.8	85.15
1048.5058	3198.2189	955.15	80.5
1048.6089	3199.1563	960.5	80.6
1048.7119	3200.0931	951.5	78.7
1048.8148	3201.0292	952.05	77.9
1048.9178	3201.9648	951.3	77.35
1049.0206	3202.8997	957.5	80
1049.1235	3203.834	952.85	78.05
1049.2262	3204.7677	952.6	80.55
1049.329	3205.7008	953.35	78.85
1049.4317	3206.6333	949.55	77.3
1049.5343	3207.5652	957.6	82.05
1049.6369	3208.4964	947.85	73.5
1049.7394	3209.4271	950.65	75.35
1049.8419	3210.3571	949.5	75.75
1049.9444	3211.2865	948.95	73.4
1050.0468	3212.2154	952.1	78.65
1050.1491	3213.1436	953.2	75.85
1050.2514	3214.0712	957.55	77.2
1050.3537	3214.9982	950.15	76.35
1050.4559	3215.9246	946.25	71.95
1050.5581	3216.8503	946.95	72.4
1050.6602	3217.7755	948.65	74.95
1050.7623	3218.7001	945.15	71.85
1050.8643	3219.624	945.2	71.3
1050.9663	3220.5473	945	71.05
1051.0682	3221.4701	946.4	72.1
1051.1701	3222.3922	947	70.35
1051.2719	3223.3137	945.2	72.5
1051.3737	3224.2346	943.25	69.55
1051.4754	3225.1549	943.85	72.6
1051.5771	3226.0746	944.1	71.35
1051.6788	3226.9937	942.95	68.1
1051.7804	3227.9121	940.15	64.4
1051.8819	3228.83	941.35	67
1051.9834	3229.7473	938.45	64.1
1052.0849	3230.6639	944.45	69.55
1052.1863	3231.5799	940.75	68.25
1052.2876	3232.4954	939.45	64.65
1052.3889	3233.4102	939.45	63.7
1052.4902	3234.3244	937.75	63.7
1052.5914	3235.238	940.9	67.8
1052.6926	3236.151	963.9	66.85
1052.7937	3237.0634	938.55	66.2
1052.8948	3237.9752	936.95	62.35
1052.9958	3238.8864	937.6	64.2
1053.0968	3239.797	938.9	63.7
1053.1977	3240.7069	939.4	64.85
1053.2986	3241.6163	939.85	65.5
1053.3994	3242.5251	934.75	62
1053.5002	3243.4332	932.2	61.2
1053.6009	3244.3408	935	63.25
1053.7016	3245.2477	932.65	60.3
1053.8022	3246.154	934.8	61.85
1053.9028	3247.0598	935.15	59.9
1054.0034	3247.9649	932.95	59.45
1054.1039	3248.8694	930.3	55.4
1054.2043	3249.7733	931.6	59.5
1054.3047	3250.6766	932.55	60.2
1054.4051	3251.5793	932.8	59
1054.5054	3252.4814	928.9	54.5
1054.6056	3253.3829	927.1	54.55
1054.7058	3254.2838	930.1	56.65
1054.806	3255.1841	928.15	55.85
1054.9061	3256.0838	927.9	54.3
1055.0061	3256.9829	926.8	53.9
1055.1062	3257.8814	929.25	52.95
1055.2061	3258.7792	927.35	52.55
1055.306	3259.6765	925.65	51.25
1055.4059	3260.5731	923.55	51.1
1055.5057	3261.4692	924.3	49.45
1055.6055	3262.3647	927	53.7
1055.7052	3263.2595	921.9	48.9
1055.8049	3264.1538	922.1	48.85
1055.9045	3265.0474	922.5	49.45
1056.0041	3265.9404	920.4	48.6
1056.1036	3266.8329	918.6	45.3
1056.2031	3267.7247	925.1	41.75
1056.3025	3268.616	918.4	48.05
1056.4019	3269.5066	916.4	42.95
1056.5013	3270.3966	916.35	40.35
1056.6005	3271.286	914.05	41.3
