Software Version:	3.9.2.0
Unit SN:	10000200
Spectrometer SN:	6960
Date:	3/8/2024 2:02:46 PM
Data Line Index:	25
Spectral Points:	2048
Integration time (ms):	125
Averages:	20
Delay (ms):	30000
Sequence Number:	1
Processing:	dark subtract
Laser Power (mW):	300
Laser Current (mA):	822
Laser Diode Temp (C):	25
Laser Case Temp (C):	26.2
System Temp (C):	26.2
Spectrometer Temp (C):	24.1
CCD Temp (C):	0.009
Secondary Temp (C):	20.007
Heatsink Temp (C):	20.681
CCDPCB Temp (C):	36.251
SecondaryPCB Temp (C):	30.416

Wavelength	RamanShift	Raw Counts	Dark Subtracted
787.061	30.1047	461.65	56.15
787.2016	32.3739	461.6	58.7
787.3422	34.6426	470.85	64.35
787.4828	36.9109	479.2	69.95
787.6235	39.1787	484.35	74.2
787.7642	41.4461	496.6	79.7
787.9049	43.7131	501.25	82.55
788.0456	45.9796	511.25	88.95
788.1863	48.2456	519.6	93.75
788.3271	50.5112	529.9	99.05
788.4679	52.7764	543.7	109.2
788.6087	55.0411	553.65	114.45
788.7496	57.3054	567.05	121.9
788.8904	59.5692	577.9	132.2
789.0313	61.8326	586.7	139.45
789.1722	64.0955	598.4	145.7
789.3132	66.3579	619.15	162.25
789.4541	68.6199	641.2	180.4
789.5951	70.8815	676.3	208.85
789.7361	73.1426	763.65	294.15
789.8771	75.4032	969.45	495.6
790.0181	77.6634	1497.6	1019.6
790.1592	79.9231	2737.2	2252.6
790.3003	82.1824	5467.05	4963
790.4414	84.4412	10338.6	9807.5
790.5825	86.6995	17025.9	16458.1
790.7237	88.9574	23547.25	22946.55
790.8648	91.2148	28053.55	27438.15
791.006	93.4717	30142	29510.95
791.1472	95.7282	30661.05	30022.65
791.2885	97.9842	30617.6	29976.4
791.4297	100.2398	30132.5	29486.45
791.571	102.4949	29580.7	28931.75
791.7123	104.7495	28864.1	28210.85
791.8536	107.0036	28043.65	27391.25
791.9949	109.2573	27320.25	26669.05
792.1363	111.5105	26587.55	25933
792.2777	113.7632	25895.6	25238
792.4191	116.0154	25290.45	24624.2
792.5605	118.2672	24854.1	24189.8
792.7019	120.5185	24385.1	23720.6
792.8434	122.7693	24059.25	23388.4
792.9849	125.0197	23746.85	23076.15
793.1264	127.2696	23508.85	22834
793.2679	129.519	23381.9	22701.3
793.4094	131.7679	23155.95	22473.6
793.551	134.0163	23065.2	22380.9
793.6926	136.2642	22844.8	22157.85
793.8342	138.5117	22655.05	21962.75
793.9758	140.7587	22441.65	21748.55
794.1175	143.0052	22268.4	21574.1
794.2591	145.2512	22047.8	21355.4
794.4008	147.4967	21842.7	21144.85
794.5425	149.7417	21702.3	21003.6
794.6842	151.9863	21598.5	20896.2
794.826	154.2304	21574.9	20866.2
794.9677	156.4739	21390.55	20675.6
795.1095	158.717	21326.6	20615.35
795.2513	160.9596	21213.2	20494.9
795.3931	163.2017	20990.35	20273.75
795.535	165.4433	20693	19975.3
795.6768	167.6844	20379.65	19657.25
795.8187	169.925	20101.7	19375.5
795.9606	172.1651	19721.8	18996.1
796.1025	174.4047	19457.9	18727.85
796.2445	176.6439	19183.85	18450.55
796.3864	178.8825	18972.5	18239.65
796.5284	181.1206	18844.1	18100.75
796.6704	183.3582	18720.5	17972.55
796.8124	185.5954	18579.6	17833.25
796.9544	187.832	18509.15	17757.1
797.0965	190.0681	18503.1	17745.85
797.2386	192.3037	18503.05	17745.7
797.3806	194.5388	18525.75	17765
797.5228	196.7734	18578.95	17816.2
797.6649	199.0075	18667.8	17907.8
797.807	201.2411	18828.55	18063.8
797.9492	203.4742	18882.3	18112.5
798.0914	205.7068	19043.15	18268.25
798.2336	207.9389	19178.6	18409.9
798.3758	210.1704	19366.65	18602.35
798.518	212.4015	19463.2	18714.7
798.6603	214.632	19663.75	18912.55
798.8025	216.862	19862.85	19113.85
798.9448	219.0915	20028	19279
799.0871	221.3205	20264.05	19508.05
799.2294	223.549	20536.6	19785.9
799.3718	225.777	20862.85	20110.75
799.5141	228.0044	21299.9	20542.4
799.6565	230.2314	21733.95	20972.9
799.7989	232.4578	22109.15	21346.8
799.9413	234.6837	22516.85	21748.95
800.0837	236.909	22772.05	22001.95
800.2262	239.1339	22747.85	21953.5
800.3687	241.3582	22542.1	21760.05
800.5111	243.582	22225.5	21411.1
800.6536	245.8053	21891.3	21089.9
800.7961	248.0281	21600.4	20809.05
800.9387	250.2503	21348.9	20552.2
801.0812	252.472	21218.7	20422.05
801.2238	254.6932	21168.75	20372.95
801.3664	256.9139	21084.6	20286.3
801.509	259.134	21112.8	20311.7
801.6516	261.3536	21098.4	20297.05
801.7942	263.5727	21165.05	20360.35
801.9369	265.7912	21135.1	20333.6
802.0795	268.0092	21165.65	20367.5
802.2222	270.2267	21120.35	20318.55
802.3649	272.4436	21109.85	20306.7
802.5076	274.6601	21099.1	20286.75
802.6504	276.8759	21018.5	20209.65
802.7931	279.0913	21000.45	20194.3
802.9359	281.3061	20926.35	20112.2
803.0787	283.5204	21013.6	20198.85
803.2215	285.7341	21107.25	20289.35
803.3643	287.9473	21336.35	20506.55
803.5071	290.16	21569.95	20750.7
803.6499	292.3721	21857.5	21046.25
803.7928	294.5837	22328.9	21509.8
803.9357	296.7947	22646.75	21830.4
804.0786	299.0052	22885.5	22062.85
804.2215	301.2152	22783.2	21964.7
804.3644	303.4246	22485.8	21668.15
804.5074	305.6334	21904.3	21089.1
804.6503	307.8418	21404.35	20588.95
804.7933	310.0495	20997.9	20173.95
804.9363	312.2568	20676.5	19852.05
805.0793	314.4635	20464.45	19638.15
805.2223	316.6696	20412.3	19584.9
805.3653	318.8752	20359.6	19523.7
805.5084	321.0802	20432.15	19604.15
805.6514	323.2847	20545.05	19712.5
805.7945	325.4887	20586.25	19752.2
805.9376	327.692	20523.9	19691.7
806.0807	329.8949	20479.2	19644.25
806.2238	332.0972	20231	19397.45
806.367	334.2989	19963.05	19126.5
806.5101	336.5001	19699.8	18861.35
806.6533	338.7007	19503.1	18661.95
806.7965	340.9008	19394.15	18549.3
806.9397	343.1003	19260.8	18419.45
807.0829	345.2992	19228.15	18380.6
807.2261	347.4976	19218.9	18378.75
807.3693	349.6955	19222.5	18372.95
807.5126	351.8927	19352.15	18501.5
807.6559	354.0895	19299.35	18435.5
807.7991	356.2856	19376.15	18526.1
807.9424	358.4812	19349.95	18499.15
808.0857	360.6763	19408.35	18554.75
808.2291	362.8707	19403.3	18547.75
808.3724	365.0646	19481.35	18626.3
808.5158	367.258	19490.2	18637.7
808.6591	369.4508	19499.2	18639.4
808.8025	371.643	19619.4	18758.65
808.9459	373.8346	19604.4	18741
809.0893	376.0257	19606.6	18741.45
809.2327	378.2162	19512.65	18653.4
809.3762	380.4062	19417.85	18557.5
809.5196	382.5956	19279.7	18425.25
809.6631	384.7844	19218.25	18365.75
809.8066	386.9726	19053.5	18203.6
809.9501	389.1603	19050.45	18199.8
810.0936	391.3474	19050.5	18174.4
810.2371	393.5339	19023.85	18164.25
810.3806	395.7199	18995.5	18139.75
810.5241	397.9052	19020.65	18162.2
810.6677	400.09	19050.15	18195
810.8113	402.2743	19133.3	18279.8
810.9548	404.4579	19220	18361.9
811.0984	406.641	19382.8	18526.75
811.2421	408.8235	19626.4	18765.2
811.3857	411.0054	19957.5	19095.9
811.5293	413.1868	20424.5	19561.45
811.673	415.3675	20736.3	19865.3
811.8166	417.5477	20946.9	20073.1
811.9603	419.7273	20988.2	20115.95
812.104	421.9064	20885.25	20004.85
812.2477	424.0848	20768.75	19897.4
812.3914	426.2627	20560.25	19689.05
812.5351	428.4399	20281.45	19408.8
812.6788	430.6166	19955.35	19076.55
812.8226	432.7928	19568.9	18696.25
812.9663	434.9683	19250.55	18378.35
813.1101	437.1432	19022.45	18151.05
813.2539	439.3176	18857.15	17991.75
813.3977	441.4914	18741.5	17877.75
813.5415	443.6645	18751.65	17880.6
813.6853	445.8371	18683.85	17810.4
813.8291	448.0091	18651.7	17781.35
813.973	450.1806	18585.6	17716.5
814.1168	452.3514	18545.2	17676.3
814.2607	454.5216	18578.45	17695.8
814.4046	456.6913	18497.25	17622.25
814.5485	458.8603	18555.25	17684.4
814.6924	461.0288	18621.45	17755
814.8363	463.1967	18628.75	17763.75
814.9802	465.3639	18791.15	17920.3
815.1241	467.5306	18884.4	18012.65
815.2681	469.6967	19015.8	18149.4
815.412	471.8622	19180.95	18313.9
815.556	474.0271	19361	18493.75
815.7	476.1914	19433.05	18556.2
815.844	478.3551	19425.4	18548.05
815.988	480.5182	19430.25	18561.85
816.132	482.6807	19473.9	18609.65
816.276	484.8426	19552.1	18692.05
816.4201	487.0039	19829.7	18966.35
816.5641	489.1647	20274.75	19401.25
816.7082	491.3248	20708	19833.9
816.8522	493.4843	20900.5	20030.55
816.9963	495.6432	20894.35	20019.9
817.1404	497.8015	20830.1	19949.35
817.2845	499.9592	20886.2	19996.9
817.4286	502.1163	20841.6	19956.95
817.5727	504.2728	20609.15	19728.5
817.7168	506.4287	20285.65	19416.25
817.861	508.5839	19888.45	19019.3
818.0051	510.7386	19555.15	18681.3
818.1493	512.8927	19418.4	18537.25
818.2935	515.0461	19308.1	18424.75
818.4377	517.199	19271.55	18388.35
818.5818	519.3512	19252.9	18362.9
818.726	521.5029	19362.2	18473.9
818.8703	523.6539	19391.25	18505.35
819.0145	525.8043	19473.85	18589.65
819.1587	527.9541	19498.95	18609.35
819.303	530.1033	19530.4	18647.95
819.4472	532.2519	19539.5	18654.35
819.5915	534.3999	19708.75	18822.85
819.7357	536.5472	19940.75	19054.1
819.88	538.694	20426.15	19544.95
820.0243	540.8401	21066.95	20177.55
820.1686	542.9856	21578.65	20680.85
820.3129	545.1305	21769.8	20868.45
820.4572	547.2748	21651.7	20746.4
820.6016	549.4185	21278.75	20376.7
820.7459	551.5615	20943.3	20041.7
820.8902	553.704	20814.65	19913.1
821.0346	555.8458	20708.1	19812.05
821.1789	557.987	20801.4	19904.35
821.3233	560.1276	20773.6	19875.65
821.4677	562.2675	20805.65	19908.55
821.6121	564.4069	20839.05	19942.45
821.7565	566.5456	20857.25	19960.9
821.9009	568.6837	20788.15	19894.15
822.0453	570.8212	20505.95	19612.1
822.1897	572.958	20213.75	19317.75
822.3342	575.0942	19919	19026.15
822.4786	577.2299	19689.25	18800
822.6231	579.3648	19676.9	18795.25
822.7675	581.4992	19725.7	18856.95
822.912	583.6329	19991.1	19123.55
823.0565	585.766	20186.7	19310.4
823.201	587.8985	20323.8	19444.2
823.3454	590.0304	20371.15	19469.95
823.4899	592.1616	20293.75	19397.35
823.6345	594.2922	20219.45	19318.45
823.779	596.4222	20082.9	19180.15
823.9235	598.5515	19914.65	19010.5
824.068	600.6802	19760.65	18853.75
824.2126	602.8083	19546.35	18644.35
824.3571	604.9358	19512	18611.9
824.5017	607.0626	19454.35	18547.5
824.6462	609.1888	19416.25	18503.85
824.7908	611.3144	19405.95	18494.6
824.9354	613.4393	19308.25	18398.15
825.08	615.5636	19214.9	18308.05
825.2246	617.6873	19130.2	18224.4
825.3692	619.8103	19114.05	18203.8
825.5138	621.9327	19015	18109.5
825.6584	624.0544	18975.3	18076.2
825.803	626.1756	18962.6	18061.55
825.9477	628.2961	18943.3	18036.7
826.0923	630.4159	18852.8	17941.1
826.237	632.5351	18880.3	17970.65
826.3816	634.6537	18815.3	17905.5
826.5263	636.7716	18815.15	17901.95
826.6709	638.8889	18844.9	17929.75
826.8156	641.0056	18885.2	17967.5
826.9603	643.1216	18882.2	17967.7
827.105	645.237	18939.2	18029.6
827.2497	647.3518	18902.05	17998.2
827.3944	649.4659	18935.65	18038.6
827.5391	651.5793	18980	18080.5
827.6838	653.6922	18952.2	18045.85
827.8285	655.8043	18959.7	18052.05
827.9733	657.9159	18959.65	18053.6
828.118	660.0268	18908.05	18000.75
828.2627	662.137	18829.8	17919.15
828.4075	664.2466	18800.85	17885.35
828.5522	666.3556	18847.95	17930.1
828.697	668.4639	18844.9	17935.5
828.8418	670.5716	18905.25	18000.2
828.9865	672.6786	18968.55	18052.4
829.1313	674.785	18999.9	18084.25
829.2761	676.8907	19094.65	18184.5
829.4209	678.9958	19179.75	18272.75
829.5657	681.1002	19146.85	18235.4
829.7105	683.204	19168.4	18245.9
829.8553	685.3072	19134.85	18213.85
830.0001	687.4097	19073.9	18158.9
830.1449	689.5115	19034.5	18117.85
830.2898	691.6127	19001.75	18086.4
830.4346	693.7132	18948	18035.75
830.5794	695.8131	18927.2	17995.2
830.7243	697.9123	18924.75	18001.95
830.8691	700.0109	18934.4	18012.9
831.014	702.1089	18909.7	17992.3
831.1588	704.2061	18924.85	18007.25
831.3037	706.3028	18964.05	18043.3
831.4486	708.3987	19016.55	18094.85
831.5935	710.4941	19132.45	18216.35
831.7383	712.5887	19278.9	18360.25
831.8832	714.6827	19611.3	18688.85
832.0281	716.7761	19958.05	19044.35
832.173	718.8688	20323.95	19405
832.3179	720.9608	20564.7	19639.25
832.4628	723.0522	20624.65	19693.8
832.6077	725.1429	20442.75	19522.2
832.7527	727.233	20222.4	19299.25
832.8976	729.3224	19939.95	19019.05
833.0425	731.4112	19687.95	18766.75
833.1874	733.4993	19482.5	18558.6
833.3324	735.5867	19331.05	18412.3
833.4773	737.6735	19236.55	18315.45
833.6222	739.7596	19154.45	18233.2
833.7672	741.845	19172.4	18251.35
833.9122	743.9298	19134.6	18211.95
834.0571	746.014	19144.55	18220.75
834.2021	748.0974	19185.4	18256.35
834.347	750.1802	19136.3	18207.8
834.492	752.2624	19156.35	18230.45
834.637	754.3439	19159.75	18230
834.782	756.4247	19284.5	18353.35
834.9269	758.5048	19397.15	18468.15
835.0719	760.5843	19631.15	18701.85
835.2169	762.6631	19911.6	18983.6
835.3619	764.7413	20350.3	19420.25
835.5069	766.8188	20968.4	20040.5
835.6519	768.8956	21387.55	20459.45
835.7969	770.9718	21731.3	20803.95
835.9419	773.0473	21581.7	20654.8
836.0869	775.1221	21288.4	20361.15
836.232	777.1962	20949.95	20021.7
836.377	779.2697	20755.55	19823.9
836.522	781.3426	20806.15	19859.65
836.667	783.4147	21034.15	20104.4
836.8121	785.4862	21343.6	20415.7
836.9571	787.557	21369.5	20435.2
837.1021	789.6271	21044.7	20113.2
837.2472	791.6966	20504.85	19574.95
837.3922	793.7654	19987.45	19056.55
837.5373	795.8335	19711.2	18781
837.6823	797.901	19495.05	18567.3
837.8274	799.9678	19435.4	18502.65
837.9724	802.0339	19432.9	18500.5
838.1175	804.0993	19524.8	18582.25
838.2626	806.1641	19506.8	18570.85
838.4076	808.2282	19474.55	18546.2
838.5527	810.2916	19425.9	18496.6
838.6978	812.3544	19321.6	18396
838.8428	814.4164	19245.7	18318.3
838.9879	816.4778	19280.55	18345.55
839.133	818.5385	19214.3	18278.9
839.2781	820.5986	19325.8	18392.15
839.4232	822.658	19456.8	18519.95
839.5682	824.7166	19534.35	18598.7
839.7133	826.7747	19808.4	18876
839.8584	828.832	20031.95	19099.2
840.0035	830.8886	20115.8	19177.8
840.1486	832.9446	20306.15	19371.5
840.2937	834.9999	20322.15	19388.05
840.4388	837.0545	20411.65	19469.3
840.5839	839.1085	20373.1	19435.85
840.729	841.1618	20354.4	19416.85
840.8741	843.2143	20312.9	19378.2
841.0192	845.2662	20197.8	19259.2
841.1643	847.3175	20197.7	19263.65
841.3095	849.368	20038.55	19106.1
841.4546	851.4179	19951.4	19017.55
841.5997	853.467	19837.4	18902.3
841.7448	855.5155	19734.4	18797.4
841.8899	857.5633	19645.9	18706.05
842.0351	859.6105	19531.75	18594.65
842.1802	861.6569	19466.15	18531.45
842.3253	863.7027	19450.65	18512.25
842.4704	865.7478	19444.2	18508.2
842.6156	867.7922	19490.9	18550.3
842.7607	869.8359	19532.5	18595.2
842.9058	871.8789	19672.75	18735.75
843.0509	873.9212	19860.9	18894.35
843.1961	875.9629	19988.3	19051.05
843.3412	878.0039	20198.8	19263.45
843.4863	880.0441	20254.5	19319.45
843.6315	882.0837	20277.7	19341.15
843.7766	884.1226	20253.9	19320.6
843.9218	886.1609	20134.55	19197
844.0669	888.1984	20082.8	19149.3
844.212	890.2352	20102.5	19164.95
844.3572	892.2714	20097.55	19157.5
844.5023	894.3069	20103.15	19165.3
844.6475	896.3416	19969.2	19028.95
844.7926	898.3757	19973.15	19034.7
844.9377	900.4091	19986.2	19045.25
845.0829	902.4418	20006.15	19060.35
845.228	904.4739	19969.3	19022.4
845.3732	906.5052	20044.35	19102
845.5183	908.5358	19914.5	18972.75
845.6635	910.5658	19789.65	18844.6
845.8086	912.595	19633.45	18688.45
845.9538	914.6236	19497.1	18555.8
846.0989	916.6515	19461.6	18520.25
846.2441	918.6786	19423.75	18483.75
846.3892	920.7051	19519.95	18577.05
846.5344	922.7309	19671.85	18729.8
846.6795	924.756	19661	18718.9
846.8246	926.7804	19799.5	18857.25
846.9698	928.8041	19731.6	18788.45
847.1149	930.8272	19778.25	18834.75
847.2601	932.8495	19720	18774.65
847.4052	934.8711	19642.15	18695.45
847.5504	936.892	19524.05	18581.45
847.6955	938.9123	19368.5	18423.85
847.8407	940.9318	19291.85	18351.5
847.9858	942.9506	19176.35	18235.65
848.131	944.9688	19075.5	18136.2
848.2761	946.9862	19027.1	18082.7
848.4213	949.003	18940.7	17998.15
848.5664	951.019	18948.95	18004.6
848.7115	953.0344	18973.4	18030
848.8567	955.0491	19010.8	18067.05
849.0018	957.063	19113.25	18168.2
849.147	959.0763	19246.5	18303.55
849.2921	961.0888	19280.6	18339.95
849.4373	963.1007	19362.1	18424
849.5824	965.1119	19446.35	18511.4
849.7275	967.1223	19438.35	18509.55
849.8727	969.1321	19441.7	18515.05
850.0178	971.1412	19525.8	18589.65
850.1629	973.1495	19547.35	18610
850.3081	975.1572	19608.7	18611.5
850.4532	977.1641	19676	18737.2
850.5983	979.1704	19598.55	18656.45
850.7435	981.1759	19571.15	18623.2
850.8886	983.1808	19664.2	18723.15
851.0337	985.1849	19777	18821.95
851.1788	987.1884	19914.65	18974.25
851.324	989.1911	20086.8	19145.6
851.4691	991.1932	20218.35	19276.2
851.6142	993.1945	20250.6	19309.8
851.7593	995.1951	20176	19232.75
851.9045	997.1951	20180.7	19235.6
852.0496	999.1943	20100.15	19159.8
852.1947	1001.1928	20038.2	19095.45
852.3398	1003.1906	20024.2	19083.75
852.4849	1005.1877	20062.7	19117.25
852.63	1007.1841	20052.5	19110.1
852.7751	1009.1798	19947.6	19006.8
852.9202	1011.1748	19761.75	18821.6
853.0653	1013.1691	19598.6	18655.2
853.2104	1015.1627	19390.9	18447
853.3555	1017.1556	19141.75	18203.35
853.5006	1019.1477	19066.3	18129.05
853.6457	1021.1392	18945.1	18014.9
853.7908	1023.1299	18888.9	17958.75
853.9359	1025.12	18947.4	18019.4
854.081	1027.1093	18965.9	18051.6
854.2261	1029.0979	19088.6	18175.7
854.3712	1031.0859	19128	18207.5
854.5163	1033.0731	19119.9	18194.15
854.6613	1035.0596	19065.1	18130.25
854.8064	1037.0454	18879.8	17943.45
854.9515	1039.0304	18803.65	17864.75
855.0965	1041.0148	18624.65	17689.1
855.2416	1042.9985	18565	17623.35
855.3867	1044.9814	18575.1	17634.95
855.5317	1046.9636	18491.4	17551.2
855.6768	1048.9452	18456.45	17519.75
855.8219	1050.926	18484.35	17546.4
855.9669	1052.9061	18471.9	17534.75
856.112	1054.8855	18463.25	17523.3
856.257	1056.8642	18519.2	17579.75
856.4021	1058.8421	18570.15	17624.4
856.5471	1060.8194	18585.5	17642.55
856.6921	1062.7959	18624.95	17684.85
856.8372	1064.7717	18646.55	17706.65
856.9822	1066.7469	18661.7	17722.85
857.1272	1068.7213	18644.75	17702.75
857.2723	1070.695	18657.3	17717.15
857.4173	1072.6679	18577.4	17636.05
857.5623	1074.6402	18571.4	17629.5
857.7073	1076.6117	18555.95	17612.9
857.8523	1078.5826	18526.4	17583.65
857.9973	1080.5527	18561.45	17617.4
858.1423	1082.5221	18644.6	17702.95
858.2873	1084.4908	18836.7	17901.75
858.4323	1086.4587	18986.95	18050.2
858.5773	1088.426	19132.65	18193.7
858.7223	1090.3925	19139.8	18191.95
858.8673	1092.3584	19051.25	18107.1
859.0123	1094.3235	18942.65	18005.1
859.1573	1096.2879	18899.4	17957.8
859.3022	1098.2515	18870.3	17932.95
859.4472	1100.2145	18930.65	17993.95
859.5922	1102.1767	19036.65	18096.45
859.7371	1104.1382	19165.95	18231.55
859.8821	1106.099	19360.95	18422.4
860.027	1108.0591	19595.35	18659.5
860.172	1110.0185	19718.6	18777.85
860.3169	1111.9771	19784.1	18846.45
860.4619	1113.9351	19523.05	18585.9
860.6068	1115.8923	19231.85	18287.9
860.7517	1117.8488	18923.05	17983.85
860.8967	1119.8045	18673.2	17735.5
861.0416	1121.7596	18555.95	17620.65
861.1865	1123.7139	18438.4	17501.45
861.3314	1125.6675	18439	17500.55
861.4763	1127.6204	18553.75	17617.2
861.6212	1129.5726	18522.45	17581.4
861.7661	1131.524	18514.2	17575.35
861.911	1133.4748	18511.1	17570.5
862.0559	1135.4248	18476.75	17536.75
862.2008	1137.3741	18433.9	17496.9
862.3457	1139.3226	18436.25	17497.85
862.4905	1141.2705	18391.8	17450.75
862.6354	1143.2176	18286	17343.3
862.7803	1145.164	18309.25	17369.45
862.9251	1147.1097	18293.15	17349.9
863.07	1149.0546	18310.7	17371.9
863.2148	1150.9989	18205.7	17265.45
863.3597	1152.9424	18102	17163.35
863.5045	1154.8852	17963.35	17024.15
863.6493	1156.8272	17851.85	16914.8
863.7942	1158.7686	17760.9	16813.05
863.939	1160.7092	17753.7	16810.95
864.0838	1162.6491	17704.85	16761.45
864.2286	1164.5883	17789.5	16852.6
864.3734	1166.5267	17886.85	16947
864.5182	1168.4644	17993.75	17056.15
864.663	1170.4014	18198.6	17257.4
864.8078	1172.3377	18462.3	17527
864.9526	1174.2732	18663.25	17725.9
865.0974	1176.2081	18931.55	17996.1
865.2421	1178.1421	19146.65	18204.45
865.3869	1180.0755	19394.95	18458.35
865.5317	1182.0082	19447.4	18512.2
865.6764	1183.9401	19462	18527.5
865.8212	1185.8713	19325.35	18394.2
865.9659	1187.8017	19073.75	18148.9
866.1106	1189.7315	18811.85	17894.25
866.2554	1191.6605	18476.45	17560.15
866.4001	1193.5888	18270.75	17346.9
866.5448	1195.5163	18178.45	17247.55
866.6895	1197.4432	18093.85	17157.55
866.8342	1199.3693	18035.75	17101.25
866.9789	1201.2947	18003.75	17063.7
867.1236	1203.2193	17961	17025.85
867.2683	1205.1432	17997.6	17061.05
867.413	1207.0664	18005.9	17069.55
867.5576	1208.9889	17999.5	17062.9
867.7023	1210.9106	18038.4	17100.6
867.847	1212.8316	18100.7	17167.3
867.9916	1214.7519	18115.25	17172.25
868.1363	1216.6715	18108.85	17176.7
868.2809	1218.5903	18134.95	17201.55
868.4255	1220.5084	18102.7	17165.85
868.5701	1222.4257	18114.25	17180.7
868.7148	1224.3424	18023.15	17094.45
868.8594	1226.2583	18035.75	17095.75
869.004	1228.1735	18153.7	17219.9
869.1486	1230.0879	18257.25	17321.1
869.2932	1232.0016	18336.8	17402.75
869.4377	1233.9146	18378.15	17444.55
869.5823	1235.8269	18272.05	17340.25
869.7269	1237.7384	18182.4	17244.55
869.8715	1239.6492	17967.85	17033.5
870.016	1241.5592	17869.2	16933.15
870.1606	1243.4686	17782.55	16847.45
870.3051	1245.3772	17756.7	16821.65
870.4496	1247.285	17731.4	16797.85
870.5941	1249.1922	17699.1	16770.35
870.7387	1251.0986	17663	16732.9
870.8832	1253.0042	17676.6	16742.3
871.0277	1254.9092	17724.6	16790.65
871.1722	1256.8134	17811.8	16882.3
871.3167	1258.7169	17922.3	16987.5
871.4611	1260.6196	18062.2	17130.1
871.6056	1262.5216	18270.15	17333.55
871.7501	1264.4229	18424.1	17493.5
871.8945	1266.3234	18591.8	17658.45
872.039	1268.2232	18625.5	17689.95
872.1834	1270.1223	18637.65	17702.4
872.3278	1272.0207	18577.55	17644.3
872.4723	1273.9183	18569.35	17629.35
872.6167	1275.8151	18470.3	17538.85
872.7611	1277.7113	18425.7	17491.75
872.9055	1279.6067	18301.55	17370
873.0499	1281.5014	18169.05	17237.15
873.1943	1283.3953	18135	17198.25
873.3386	1285.2885	18143.55	17210.7
873.483	1287.181	18190.95	17258.65
873.6274	1289.0727	18322.8	17394.9
873.7717	1290.9637	18353.15	17421.75
873.9161	1292.854	18485.2	17553.95
874.0604	1294.7435	18580.5	17645.15
874.2047	1296.6323	18756.25	17822.15
874.349	1298.5204	18980	18046.15
874.4933	1300.4077	19197.75	18264.25
874.6376	1302.2943	19352.85	18420.4
874.7819	1304.1802	19417.2	18486.2
874.9262	1306.0653	19251.8	18318.35
875.0705	1307.9497	19081.7	18152.1
875.2147	1309.8333	18890.1	17961.05
875.359	1311.7162	18780.3	17849.15
875.5032	1313.5984	18780.25	17845.4
875.6475	1315.4798	18825.65	17882.15
875.7917	1317.3605	18912.75	17966.1
875.9359	1319.2405	18979.65	18044
876.0801	1321.1197	18896.6	17961.9
876.2243	1322.9982	18771.25	17835.75
876.3685	1324.876	18708.55	17779.5
876.5127	1326.753	18586.25	17653.65
876.6569	1328.6293	18590.8	17655.5
876.801	1330.5048	18550.9	17616
876.9452	1332.3796	18486.55	17554.2
877.0893	1334.2537	18476.8	17521.2
877.2335	1336.127	18380.3	17447.95
877.3776	1337.9996	18384.2	17453.7
877.5217	1339.8714	18358.1	17423.05
877.6658	1341.7426	18282.1	17304.55
877.8099	1343.6129	18228.8	17294.1
877.954	1345.4826	18205.65	17275.35
878.0981	1347.3515	18188.3	17252.2
878.2422	1349.2196	18072.4	17138.8
878.3862	1351.087	18124.95	17190.3
878.5303	1352.9537	18145.75	17214.2
878.6743	1354.8197	18283.9	17348.55
878.8184	1356.6849	18431.6	17498.95
878.9624	1358.5493	18514.15	17582.05
879.1064	1360.4131	18540.8	17609.7
879.2504	1362.276	18448.55	17517.65
879.3944	1364.1383	18321.9	17392.95
879.5384	1365.9998	18090.7	17151.3
879.6823	1367.8606	17729	16791.95
879.8263	1369.7206	17412.85	16482.55
879.9702	1371.5799	17224.2	16292.4
880.1142	1373.4384	17040.1	16106.45
880.2581	1375.2962	16923.15	15991.7
880.402	1377.1533	16612.05	15682.7
880.5459	1379.0096	16278.35	15352.85
880.6898	1380.8652	15975.6	15051.35
880.8337	1382.7201	15736.6	14805.6
880.9776	1384.5742	15466.75	14538.85
881.1215	1386.4275	15285	14352.05
881.2653	1388.2802	15177.9	14247.45
881.4092	1390.132	15051.35	14118.25
881.553	1391.9832	15003.3	14068.9
881.6968	1393.8336	14845.3	13913.4
881.8406	1395.6832	14811.45	13876.9
881.9844	1397.5322	14739.55	13808.8
882.1282	1399.3803	14709.15	13770
882.272	1401.2278	14671	13740.9
882.4158	1403.0745	14656.55	13727.15
882.5595	1404.9204	14606.75	13679.45
882.7033	1406.7656	14588.3	13658.35
882.847	1408.6101	14615.5	13681.5
882.9908	1410.4538	14603.6	13675.1
883.1345	1412.2968	14644.05	13714.2
883.2782	1414.139	14639.5	13710.7
883.4219	1415.9805	14732.1	13802.05
883.5656	1417.8213	14770.15	13837.4
883.7092	1419.6613	14837.9	13911.9
883.8529	1421.5006	15047.95	14121.1
883.9965	1423.3391	15253.8	14324.55
884.1402	1425.1769	15583.95	14653.05
884.2838	1427.0139	16075.75	15146.7
884.4274	1428.8502	16630.75	15697.8
884.571	1430.6858	17188.4	16258.7
884.7146	1432.5206	17571.85	16642.95
884.8582	1434.3547	17795.95	16869.2
885.0018	1436.188	17800.75	16868.15
885.1453	1438.0206	17729.05	16799.85
885.2889	1439.8524	17534.9	16608.25
885.4324	1441.6835	17443.75	16514.3
885.5759	1443.5139	17361.05	16429.2
885.7194	1445.3435	17208.15	16281.65
885.8629	1447.1724	17193.15	16264.5
886.0064	1449.0005	17124.2	16199.15
886.1499	1450.8279	17025.7	16097.75
886.2933	1452.6545	16975.35	16048.7
886.4368	1454.4804	17002.9	16076.4
886.5802	1456.3056	16954.15	16022.4
886.7237	1458.13	16838.85	15915.85
886.8671	1459.9536	16643.35	15716
887.0105	1461.7766	16305.55	15377.35
887.1539	1463.5987	15916.95	14988.05
887.2972	1465.4202	15497.95	14569.15
887.4406	1467.2409	15105	14177.45
887.584	1469.0608	14838.25	13911
887.7273	1470.88	14563.65	13636.55
887.8706	1472.6984	14353.25	13429.5
888.0139	1474.5161	14111.7	13181
888.1572	1476.3331	13973	13047.65
888.3005	1478.1493	13808.45	12880.6
888.4438	1479.9648	13729	12798.9
888.5871	1481.7795	13610	12683.95
888.7303	1483.5935	13553.95	12626.15
888.8736	1485.4067	13476.45	12550.1
889.0168	1487.2192	13408.8	12482.7
889.16	1489.031	13378.75	12448.55
889.3032	1490.842	13308.4	12384.75
889.4464	1492.6522	13249.1	12320.85
889.5896	1494.4618	13217.8	12290.55
889.7327	1496.2705	13197.55	12272.25
889.8759	1498.0785	13143.85	12215.9
890.019	1499.8858	13111.8	12184
890.1622	1501.6924	13037.4	12109
890.3053	1503.4981	13028.45	12103.5
890.4484	1505.3032	13012.45	12085.6
890.5914	1507.1075	12956.85	12030.65
890.7345	1508.911	12918.35	11993.55
890.8776	1510.7138	12870.15	11940.65
891.0206	1512.5159	12786.75	11860.95
891.1637	1514.3172	12739.25	11811.95
891.3067	1516.1178	12662.15	11737.7
891.4497	1517.9176	12614.15	11686.25
891.5927	1519.7166	12572.3	11649.35
891.7357	1521.515	12540.9	11611.95
891.8786	1523.3126	12496.5	11573.4
892.0216	1525.1094	12457.65	11533.4
892.1645	1526.9055	12421.6	11499.85
892.3074	1528.7008	12372.75	11448.3
892.4503	1530.4954	12285.4	11363.3
892.5932	1532.2893	12272.05	11352.7
892.7361	1534.0824	12225.55	11302.75
892.879	1535.8747	12252.75	11333.95
893.0218	1537.6663	12166.7	11245.8
893.1647	1539.4572	12142.9	11222.1
893.3075	1541.2473	12132.1	11213.3
893.4503	1543.0367	12120.6	11200.9
893.5931	1544.8253	12088.75	11160.85
893.7359	1546.6132	12099.15	11177.8
893.8787	1548.4003	12080.9	11149.65
894.0214	1550.1867	12083.3	11155.55
894.1642	1551.9723	12077.85	11153.35
894.3069	1553.7572	12097.7	11181.8
894.4496	1555.5414	12129.1	11213.15
894.5923	1557.3247	12160.95	11244.55
894.735	1559.1074	12223.7	11312.2
894.8777	1560.8893	12273.1	11359.7
895.0204	1562.6705	12327	11415.55
895.163	1564.4509	12384.65	11471.95
895.3056	1566.2305	12420.3	11512.6
895.4482	1568.0094	12501.7	11593
895.5908	1569.7876	12551.7	11640.8
895.7334	1571.565	12550.4	11635.9
895.876	1573.3417	12559.75	11647.65
896.0186	1575.1176	12509.8	11594.95
896.1611	1576.8928	12484	11575.15
896.3036	1578.6672	12381.2	11474.5
896.4461	1580.4409	12288.45	11383.75
896.5886	1582.2138	12163.95	11254.2
896.7311	1583.986	12074.75	11165.3
896.8736	1585.7575	11984.9	11077.5
897.0161	1587.5282	11894.2	10987.85
897.1585	1589.2981	11860.15	10954.3
897.3009	1591.0673	11810.85	10906.5
897.4433	1592.8358	11800.55	10894.25
897.5857	1594.6035	11807.35	10898.35
897.7281	1596.3704	11801.3	10890.05
897.8705	1598.1366	11818.15	10908.85
898.0128	1599.9021	11874.7	10967.55
898.1551	1601.6668	11866.2	10957.7
898.2975	1603.4308	11933.1	11021.85
898.4398	1605.194	12024.3	11112.5
898.5821	1606.9564	12135.65	11231.85
898.7243	1608.7182	12266.6	11368.7
898.8666	1610.4791	12405.2	11511.4
899.0088	1612.2394	12527.4	11635.9
899.1511	1613.9988	12737.5	11841.5
899.2933	1615.7576	12939.7	12038.85
899.4355	1617.5156	13151.95	12240.4
899.5776	1619.2728	13305.85	12393.65
899.7198	1621.0293	13434.35	12527.7
899.862	1622.785	13463.7	12557.1
900.0041	1624.54	13323.55	12420.7
900.1462	1626.2942	13185.05	12284.2
900.2883	1628.0477	12904.45	12001.25
900.4304	1629.8005	12648.05	11741.45
900.5725	1631.5525	12434.7	11538.1
900.7145	1633.3037	12236.5	11335.05
900.8566	1635.0542	12087.4	11189.45
900.9986	1636.804	11969.5	11067.75
901.1406	1638.553	11963.15	10978.2
901.2826	1640.3013	11826.25	10924.6
901.4245	1642.0488	11797.3	10896.3
901.5665	1643.7955	11821.65	10925.75
901.7085	1645.5416	11846.05	10945.95
901.8504	1647.2868	11938.35	11038.4
901.9923	1649.0313	12008.95	11108.05
902.1342	1650.7751	12160.9	11256.85
902.2761	1652.5181	12297.75	11398.35
902.4179	1654.2604	12464.45	11565.9
902.5598	1656.0019	12703.75	11803.05
902.7016	1657.7427	12997.95	12098.8
902.8434	1659.4828	13331.9	12430.7
902.9852	1661.222	13502.7	12601.95
903.127	1662.9606	13477.3	12574.35
903.2687	1664.6984	13282.9	12378.15
903.4105	1666.4354	12898.15	11994.05
903.5522	1668.1717	12374.55	11466.7
903.6939	1669.9072	11845.55	10941.1
903.8356	1671.642	11427.1	10520.2
903.9773	1673.3761	11078.3	10174.7
904.119	1675.1094	10786.2	9886.4
904.2606	1676.8419	10570.15	9670.1
904.4022	1678.5737	10368.15	9465.85
904.5439	1680.3048	10221	9316.65
904.6855	1682.0351	10117.95	9215.6
904.827	1683.7646	10005.2	9099.8
904.9686	1685.4934	9935.95	9036
905.1101	1687.2215	9854.5	8953.8
905.2517	1688.9488	9767.25	8867.45
905.3932	1690.6754	9697.2	8797.3
905.5347	1692.4012	9650.95	8750.65
905.6761	1694.1263	9625.45	8722.25
905.8176	1695.8506	9567.35	8665.7
905.9591	1697.5742	9517.75	8620.2
906.1005	1699.297	9467.45	8569.45
906.2419	1701.0191	9411.4	8517.45
906.3833	1702.7404	9353.25	8457.55
906.5246	1704.461	9335	8434.3
906.666	1706.1808	9249.7	8351.4
906.8073	1707.8999	9242.95	8344.5
906.9487	1709.6182	9193.2	8300.75
907.09	1711.3358	9174.2	8283.15
907.2313	1713.0527	9114.35	8224.8
907.3725	1714.7688	9105.95	8205.95
907.5138	1716.4841	9060.8	8162.4
907.655	1718.1987	9053.65	8154.6
907.7962	1719.9126	8998.05	8105.8
907.9374	1721.6257	8931.9	8039.65
908.0786	1723.338	8940.5	8051.75
908.2198	1725.0496	8892.25	8001.05
908.3609	1726.7605	8884.95	7989.3
908.502	1728.4706	8833.65	7938.25
908.6431	1730.18	8823.55	7929.75
908.7842	1731.8886	8774.4	7885.25
908.9253	1733.5964	8767.25	7853.4
909.0664	1735.3036	8718.55	7821.8
909.2074	1737.0099	8708.25	7814
909.3484	1738.7156	8683.85	7794.5
909.4894	1740.4204	8631.35	7736.8
909.6304	1742.1246	8620.8	7727.1
909.7714	1743.8279	8589.85	7695.75
909.9123	1745.5306	8572.15	7679.25
910.0532	1747.2325	8539.6	7644.65
910.1941	1748.9336	8498.25	7604.9
910.335	1750.634	8468	7572.75
910.4759	1752.3336	8456.85	7564.55
910.6168	1754.0325	8424.15	7533.9
910.7576	1755.7307	8403.3	7512
910.8984	1757.4281	8399.15	7507.15
911.0392	1759.1247	8398.35	7495.05
911.18	1760.8206	8362.55	7464.05
911.3208	1762.5158	8340.7	7438.15
911.4615	1764.2102	8312.05	7417.8
911.6022	1765.9039	8292.85	7400.05
911.7429	1767.5968	8258.75	7370.1
911.8836	1769.289	8223.55	7332.7
912.0243	1770.9804	8213.6	7321.6
912.1649	1772.6711	8178.05	7281.65
912.3056	1774.361	8182.2	7284.35
912.4462	1776.0502	8153.3	7256.9
912.5868	1777.7386	8128.8	7231.8
912.7274	1779.4263	8094.35	7202.3
912.8679	1781.1132	8097.95	7208.1
913.0084	1782.7994	8060.65	7171.8
913.149	1784.4849	8044.7	7157.15
913.2895	1786.1696	8032.6	7137.2
913.4299	1787.8535	8024.35	7137.2
913.5704	1789.5367	7997.55	7111.6
913.7108	1791.2192	7990.5	7101.1
913.8513	1792.9009	7967.6	7050.95
913.9917	1794.5818	7933.6	7037.65
914.132	1796.2621	7909.8	7018.3
914.2724	1797.9415	7898.1	7004.35
914.4128	1799.6202	7889.55	6994.6
914.5531	1801.2982	7872.4	6977.95
914.6934	1802.9755	7847.8	6953.05
914.8337	1804.6519	7803.45	6911.15
914.9739	1806.3277	7800.2	6910.95
915.1142	1808.0027	7760.35	6875.4
915.2544	1809.6769	7734.3	6846.65
915.3946	1811.3504	7740.3	6853.2
915.5348	1813.0231	7715.3	6827.4
915.675	1814.6951	7691.95	6800.65
915.8151	1816.3664	7692.2	6797.25
915.9553	1818.0369	7666.5	6776.35
916.0954	1819.7067	7646.7	6753.4
916.2355	1821.3757	7622.7	6727
916.3755	1823.044	7634.05	6742.7
916.5156	1824.7115	7602.45	6710.6
916.6556	1826.3783	7586.3	6697.25
916.7956	1828.0443	7544.3	6654
916.9356	1829.7096	7541.05	6648.75
917.0756	1831.3741	7527.4	6632.7
917.2155	1833.0379	7501.45	6614
917.3555	1834.701	7482.35	6592.65
917.4954	1836.3633	7466.85	6580.4
917.6353	1838.0248	7441.9	6553.1
917.7751	1839.6856	7450.65	6563.25
917.915	1841.3457	7437.3	6548.65
918.0548	1843.005	7409.65	6517.5
918.1946	1844.6636	7401.25	6510.6
918.3344	1846.3214	7388.45	6498.05
918.4742	1847.9785	7375.6	6485.3
918.6139	1849.6349	7340.6	6446.55
918.7537	1851.2904	7354.85	6453.75
918.8934	1852.9453	7324.4	6431.25
919.0331	1854.5994	7309.05	6415.15
919.1727	1856.2528	7320.1	6423
919.3124	1857.9054	7284.25	6391.85
919.452	1859.5572	7305.7	6415.15
919.5916	1861.2083	7274	6381.4
919.7312	1862.8587	7250.3	6360.05
919.8708	1864.5084	7238.7	6343.8
920.0103	1866.1572	7212.25	6318.55
920.1498	1867.8054	7188.25	6295.6
920.2893	1869.4528	7162.9	6268.4
920.4288	1871.0994	7132.75	6240.15
920.5683	1872.7453	7138.8	6245.6
920.7077	1874.3905	7129.7	6219.45
920.8471	1876.0349	7094.15	6199.1
920.9865	1877.6786	7073.55	6178.25
921.1259	1879.3215	7082.6	6190.75
921.2653	1880.9637	7064.4	6172.9
921.4046	1882.6051	7052.6	6162.65
921.5439	1884.2458	7018.4	6125.65
921.6832	1885.8858	6996.25	6106.2
921.8225	1887.525	6985.75	6093.9
921.9617	1889.1634	6958.55	6067.25
922.101	1890.8011	6940.15	6045.65
922.2402	1892.4381	6931.9	6040.05
922.3794	1894.0743	6932.8	6041.2
922.5185	1895.7098	6890.95	5998.25
922.6577	1897.3446	6895.15	6003.45
922.7968	1898.9786	6854.5	5959.9
922.9359	1900.6118	6866.5	5976.95
923.075	1902.2443	6829.65	5941
923.214	1903.8761	6792.9	5903.85
923.3531	1905.5071	6766.3	5875.05
923.4921	1907.1374	6756.2	5863.5
923.6311	1908.7669	6745.8	5856.9
923.77	1910.3957	6733.7	5842.45
923.909	1912.0237	6696.7	5804.55
924.0479	1913.651	6684.4	5792.25
924.1868	1915.2776	6673.3	5782.25
924.3257	1916.9034	6638.1	5752.05
924.4646	1918.5285	6611.1	5724.05
924.6034	1920.1528	6594.65	5702.85
924.7422	1921.7764	6580.8	5691.8
924.881	1923.3992	6554.65	5664.25
925.0198	1925.0213	6505.5	5616.85
925.1586	1926.6427	6480.7	5592.2
925.2973	1928.2633	6561.45	5572.45
925.436	1929.8832	6491.95	5600.5
925.5747	1931.5023	6446.35	5553.95
925.7134	1933.1207	6415.35	5527.25
925.852	1934.7383	6405.45	5517.6
925.9906	1936.3552	6388.3	5501.25
926.1292	1937.9714	6373.7	5484.4
926.2678	1939.5868	6333.55	5440.1
926.4064	1941.2015	6308.25	5416.6
926.5449	1942.8154	6292.9	5402.3
926.6834	1944.4286	6285.8	5395.55
926.8219	1946.041	6283.95	5366.2
926.9604	1947.6528	6230.9	5333.9
927.0988	1949.2637	6208.55	5318.45
927.2372	1950.8739	6191.65	5302.3
927.3756	1952.4834	6170.85	5281.6
927.514	1954.0921	6165.9	5279
927.6523	1955.7001	6147.15	5254.1
927.7907	1957.3074	6130.7	5245.95
927.929	1958.9139	6102.5	5217.6
928.0673	1960.5197	6083.25	5196.25
928.2055	1962.1247	6059.45	5171.4
928.3438	1963.729	6038.85	5153.35
928.482	1965.3325	6009.65	5116.5
928.6202	1966.9353	5992.2	5108.25
928.7584	1968.5374	5973.65	5085.8
928.8965	1970.1387	5968.2	5084.3
929.0346	1971.7393	5945.5	5056.45
929.1727	1973.3392	5931.55	5046.55
929.3108	1974.9383	5910.65	5025.6
929.4489	1976.5366	5880.5	4994.65
929.5869	1978.1342	5860.15	4976.6
929.7249	1979.7311	5849.5	4964.25
929.8629	1981.3273	5828.75	4942.95
930.0009	1982.9227	5817.9	4934.7
930.1388	1984.5173	5794.3	4911.05
930.2767	1986.1112	5782.15	4899.6
930.4146	1987.7044	5772.35	4890.45
930.5525	1989.2968	5761.1	4876.6
930.6904	1990.8885	5734.9	4850.1
930.8282	1992.4795	5730.95	4846.25
930.966	1994.0697	5696.45	4813.65
931.1038	1995.6592	5681.25	4798.95
931.2415	1997.2479	5661.4	4776.45
931.3793	1998.8359	5663.6	4781.35
931.517	2000.4232	5616	4737.75
931.6547	2002.0097	5615.05	4737.45
931.7923	2003.5955	5596.6	4717.25
931.93	2005.1805	5599.25	4717.9
932.0676	2006.7648	5575.85	4694.1
932.2052	2008.3484	5566.1	4684.65
932.3427	2009.9312	5563.75	4683.65
932.4803	2011.5133	5539.9	4661.95
932.6178	2013.0946	5514.55	4633.55
932.7553	2014.6752	5514.4	4633.75
932.8928	2016.2551	5499.55	4617.3
933.0302	2017.8342	5458.75	4577.7
933.1676	2019.4126	5440.2	4560.05
933.305	2020.9902	5423.75	4545.15
933.4424	2022.5672	5439.8	4561.55
933.5798	2024.1433	5433.05	4550.1
933.7171	2025.7188	5394.2	4517.6
933.8544	2027.2935	5378.1	4499.05
933.9917	2028.8674	5369.75	4491.4
934.129	2030.4406	5364.05	4485.8
934.2662	2032.0131	5323.45	4447.7
934.4034	2033.5849	5312.45	4424.9
934.5406	2035.1559	5307.45	4430.35
934.6778	2036.7261	5312.85	4432.5
934.8149	2038.2957	5304.1	4422.85
934.952	2039.8645	5290	4404.7
935.0891	2041.4325	5280.8	4394.4
935.2262	2042.9998	5262.1	4381.2
935.3632	2044.5664	5257.35	4375.4
935.5002	2046.1323	5225.05	4345.1
935.6372	2047.6974	5220.6	4343
935.7742	2049.2617	5190.2	4312.45
935.9111	2050.8254	5189.9	4305.6
936.048	2052.3883	5183.15	4304.75
936.1849	2053.9504	5167.2	4283.85
936.3218	2055.5118	5160.35	4277.6
936.4586	2057.0725	5145.3	4259.9
936.5955	2058.6325	5129.55	4247.15
936.7323	2060.1917	5096.15	4217.95
936.869	2061.7502	5101.5	4220.1
937.0058	2063.3079	5075.85	4198.25
937.1425	2064.8649	5061.75	4179.1
937.2792	2066.4212	5065.45	4184.9
937.4159	2067.9767	5045.25	4164.2
937.5525	2069.5315	5010.05	4128.9
937.6891	2071.0856	5009.85	4132
937.8257	2072.6389	4995.15	4113.15
937.9623	2074.1915	4963.7	4086.75
938.0989	2075.7433	4967.5	4085.05
938.2354	2077.2945	4954.15	4075.3
938.3719	2078.8448	4926.8	4041.9
938.5084	2080.3945	4918.5	4037
938.6448	2081.9434	4914.2	4032.05
938.7812	2083.4916	4886.5	4003.6
938.9176	2085.039	4882.65	3993.75
939.054	2086.5857	4864.55	3975.55
939.1903	2088.1317	4876.15	3985.65
939.3267	2089.677	4863.05	3974
939.463	2091.2215	4851.55	3962.7
939.5992	2092.7652	4836.7	3943.4
939.7355	2094.3083	4817.35	3928.4
939.8717	2095.8506	4807.4	3920.65
940.0079	2097.3921	4791.85	3908.25
940.1441	2098.933	4790.9	3908.65
940.2802	2100.4731	4760.15	3877.5
940.4163	2102.0124	4777.9	3875.65
940.5524	2103.5511	4767.45	3881.95
940.6885	2105.089	4734.7	3849.25
940.8245	2106.6261	4734.25	3853.15
940.9606	2108.1626	4733.55	3848.75
941.0965	2109.6983	4751.3	3839
941.2325	2111.2332	4722.45	3835.1
941.3684	2112.7675	4704.2	3816.45
941.5044	2114.301	4700.8	3811.05
941.6403	2115.8337	4683.45	3797.35
941.7761	2117.3657	4664.3	3781.9
941.912	2118.897	4672.4	3784.2
942.0478	2120.4276	4649.95	3758.4
942.1835	2121.9575	4636	3749.45
942.3193	2123.4866	4639.4	3736.25
942.455	2125.0149	4607.85	3719.3
942.5907	2126.5426	4585	3702.4
942.7264	2128.0695	4581.45	3698.15
942.8621	2129.5956	4567.55	3686.9
942.9977	2131.1211	4569.35	3681.95
943.1333	2132.6458	4548.3	3664.45
943.2689	2134.1698	4554.2	3665.7
943.4044	2135.693	4533.35	3642.8
943.54	2137.2155	4534.45	3644.5
943.6755	2138.7373	4527.45	3642.65
943.8109	2140.2584	4495.2	3613.35
943.9464	2141.7787	4477.4	3593.75
944.0818	2143.2983	4468.35	3592.6
944.2172	2144.8171	4409.35	3531.4
944.3526	2146.3353	4435.65	3553.65
944.4879	2147.8527	4416.4	3534.95
944.6232	2149.3693	4423.85	3539.1
944.7585	2150.8853	4418.1	3530.8
944.8938	2152.4005	4400.35	3511.8
945.029	2153.9149	4384.7	3498.2
945.1642	2155.4287	4386.35	3500.5
945.2994	2156.9417	4364.45	3478.45
945.4346	2158.454	4360.5	3475.5
945.5697	2159.9655	4354.55	3472.05
945.7048	2161.4764	4350.9	3466.2
945.8399	2162.9865	4325.6	3443.55
945.9749	2164.4958	4323.65	3441.35
946.1099	2166.0045	4315.6	3430.8
946.2449	2167.5124	4312.8	3430.15
946.3799	2169.0195	4295.95	3410.5
946.5148	2170.526	4285.55	3398.25
946.6498	2172.0317	4284.5	3397.8
946.7846	2173.5367	4273.45	3387.6
946.9195	2175.0409	4258.25	3375
947.0543	2176.5445	4250.6	3365.15
947.1891	2178.0473	4236.3	3348.45
947.3239	2179.5494	4226.1	3336.1
947.4587	2181.0507	4222.05	3335.7
947.5934	2182.5513	4213.6	3328.9
947.7281	2184.0512	4188.8	3302.05
947.8628	2185.5504	4180.25	3295.05
947.9974	2187.0488	4162.4	3277.5
948.132	2188.5465	4161.25	3277.65
948.2666	2190.0435	4136.2	3251.9
948.4012	2191.5397	4130.05	3243.45
948.5357	2193.0353	4107.95	3221.9
948.6702	2194.5301	4107.5	3218.2
948.8047	2196.0241	4086.6	3196.05
948.9392	2197.5175	4093.9	3203.5
949.0736	2199.0101	4077.6	3184.65
949.208	2200.502	4056.95	3170.8
949.3424	2201.9931	4047	3162.9
949.4767	2203.4835	4018.05	3135.85
949.611	2204.9733	4015.9	3126.85
949.7453	2206.4622	4016.85	3135.05
949.8796	2207.9505	4004.8	3119.3
950.0138	2209.438	3979.45	3100.75
950.148	2210.9248	3972.8	3088.35
950.2822	2212.4109	3980	3096.45
950.4164	2213.8962	3951.9	3057.95
950.5505	2215.3809	3956.1	3065.25
950.6846	2216.8648	3946.95	3056.9
950.8186	2218.3479	3938.6	3042.25
950.9527	2219.8304	3914.75	3019.95
951.0867	2221.3121	3906.5	3014.9
951.2207	2222.7931	3910.9	3022.75
951.3546	2224.2733	3881	2992.5
951.4886	2225.7529	3885.2	2999.55
951.6225	2227.2317	3866.6	2979.45
951.7563	2228.7098	3850.9	2970.4
951.8902	2230.1872	3836.85	2953.95
952.024	2231.6638	3838.75	2954.1
952.1578	2233.1397	3817.15	2929.7
952.2916	2234.6149	3808.3	2928.05
952.4253	2236.0894	3781.85	2897.65
952.559	2237.5632	3810.4	2916.4
952.6927	2239.0362	3777.45	2893
952.8263	2240.5085	3771.95	2887.75
952.9599	2241.9801	3757.8	2873.05
953.0935	2243.4509	3757.8	2871
953.2271	2244.921	3743.2	2850.65
953.3606	2246.3904	3736.4	2846.2
953.4941	2247.8591	3724.9	2836.5
953.6276	2249.3271	3722.3	2836.25
953.7611	2250.7943	3706.6	2818.7
953.8945	2252.2608	3681.85	2795.85
954.0279	2253.7266	3690.6	2802.1
954.1612	2255.1917	3669.05	2781.8
954.2946	2256.656	3655.3	2767.15
954.4279	2258.1197	3660.25	2778.2
954.5612	2259.5826	3646.65	2758.95
954.6944	2261.0447	3639.4	2752.1
954.8276	2262.5062	3639.55	2750.4
954.9608	2263.9669	3620.35	2730.4
955.094	2265.4269	3618.3	2731.3
955.2271	2266.8862	3591.55	2704.15
955.3602	2268.3448	3591.45	2704.35
955.4933	2269.8026	3596.2	2713.15
955.6264	2271.2598	3589.2	2706.1
955.7594	2272.7162	3588.55	2704.55
955.8924	2274.1719	3567.25	2681.25
956.0253	2275.6268	3567.8	2679
956.1583	2277.0811	3554.5	2666.7
956.2912	2278.5346	3545.7	2660.25
956.4241	2279.9874	3541.1	2657.25
956.5569	2281.4395	3547.95	2664.95
956.6897	2282.8908	3525.65	2635.95
956.8225	2284.3414	3510.55	2624.3
956.9553	2285.7914	3498.45	2613.05
957.088	2287.2406	3500.05	2611.15
957.2207	2288.689	3506.6	2617.55
957.3534	2290.1368	3482.15	2588.4
957.486	2291.5838	3473.15	2578.75
957.6186	2293.0302	3462.15	2569.55
957.7512	2294.4758	3459.05	2569
957.8838	2295.9206	3442	2552.2
958.0163	2297.3648	3446.85	2562.6
958.1488	2298.8082	3438.6	2552.8
958.2813	2300.251	3437.2	2550.8
958.4137	2301.693	3443.6	2554.95
958.5461	2303.1343	3434.75	2544.45
958.6785	2304.5748	3427.25	2539.95
958.8108	2306.0147	3402.05	2516.55
958.9432	2307.4538	3395.2	2509.35
959.0754	2308.8922	3386.35	2505.2
959.2077	2310.3299	3382.3	2499.4
959.3399	2311.7669	3368.9	2486.45
959.4721	2313.2031	3359.8	2473.35
959.6043	2314.6387	3352.45	2464.35
959.7365	2316.0735	3339.4	2450.75
959.8686	2317.5076	3340.8	2452.8
960.0006	2318.941	3322.05	2432.55
960.1327	2320.3737	3321.8	2430.5
960.2647	2321.8056	3301.9	2409.85
960.3967	2323.2369	3289	2401.7
960.5287	2324.6674	3282.45	2395.75
960.6606	2326.0972	3284.2	2395.1
960.7925	2327.5263	3282.7	2395.35
960.9244	2328.9547	3278.3	2387.2
961.0562	2330.3823	3252.45	2358.85
961.1881	2331.8092	3277.75	2384.8
961.3198	2333.2355	3250.8	2360.65
961.4516	2334.661	3252.2	2363.2
961.5833	2336.0858	3245.15	2354.4
961.715	2337.5098	3231	2341.45
961.8467	2338.9332	3231	2345.4
961.9783	2340.3558	3217.4	2327.05
962.1099	2341.7778	3203.9	2319.15
962.2415	2343.199	3200.4	2311.95
962.373	2344.6195	3180.85	2296.2
962.5045	2346.0393	3177.2	2291.05
962.636	2347.4583	3195.15	2306.3
962.7675	2348.8767	3183.65	2297.85
962.8989	2350.2943	3183.3	2293.95
963.0303	2351.7113	3176.95	2284.75
963.1617	2353.1275	3167.8	2279
963.293	2354.543	3172.15	2273.5
963.4243	2355.9578	3164.15	2273.25
963.5556	2357.3718	3138.35	2252.25
963.6868	2358.7852	3124.7	2238.3
963.818	2360.1978	3121.9	2236.1
963.9492	2361.6098	3103.65	2218.85
964.0803	2363.021	3104.4	2214.05
964.2114	2364.4315	3097.35	2212.9
964.3425	2365.8413	3084.65	2198.05
964.4736	2367.2504	3075.5	2190.85
964.6046	2368.6587	3063.95	2180.7
964.7356	2370.0664	3055.25	2169.75
964.8666	2371.4733	3058.25	2174
964.9975	2372.8795	3045.2	2160.15
965.1284	2374.285	3048.35	2164.05
965.2593	2375.6899	3029.95	2144.95
965.3901	2377.0939	3015.65	2131.95
965.5209	2378.4973	3011.4	2129.5
965.6517	2379.9	3009.2	2122.35
965.7825	2381.3019	2979.65	2096.75
965.9132	2382.7032	2994.55	2112.95
966.0439	2384.1037	2963.1	2082.45
966.1745	2385.5035	2973.8	2091.75
966.3051	2386.9027	2976.65	2095.8
966.4357	2388.3011	2962.55	2078.9
966.5663	2389.6987	2953.45	2069.85
966.6968	2391.0957	2945.95	2063.15
966.8273	2392.492	2939.45	2057.85
966.9578	2393.8876	2923.45	2041.7
967.0882	2395.2824	2912.15	2031.15
967.2186	2396.6765	2901.3	2018.65
967.349	2398.07	2889.05	2004.6
967.4793	2399.4627	2903.6	2019.35
967.6097	2400.8547	2901.55	2017.5
967.7399	2402.246	2882.8	1994.2
967.8702	2403.6366	2886.35	2003.35
968.0004	2405.0265	2869.2	1987.15
968.1306	2406.4156	2851.1	1966.05
968.2607	2407.8041	2850.85	1965.5
968.3909	2409.1918	2850.5	1966.5
968.521	2410.5789	2828.3	1946.6
968.651	2411.9652	2832.2	1945.15
968.781	2413.3508	2821.3	1936.2
968.911	2414.7358	2812.15	1929.15
969.041	2416.12	2807.2	1924.9
969.1709	2417.5035	2794.7	1910.75
969.3008	2418.8863	2781.4	1896.8
969.4307	2420.2684	2791.05	1907.3
969.5606	2421.6497	2774.75	1892.65
969.6904	2423.0304	2765.85	1883.25
969.8201	2424.4104	2766.1	1882.7
969.9499	2425.7896	2752.35	1869.15
970.0796	2427.1682	2755.35	1874.75
970.2093	2428.546	2758.35	1874.65
970.3389	2429.9232	2755.25	1871.25
970.4685	2431.2996	2737.35	1854.3
970.5981	2432.6753	2733.1	1846.4
970.7277	2434.0503	2734.9	1852.4
970.8572	2435.4246	2717.45	1833.9
970.9867	2436.7982	2704.7	1816.6
971.1161	2438.1711	2706.3	1821.6
971.2456	2439.5433	2708.4	1823.25
971.375	2440.9148	2692.75	1804.7
971.5043	2442.2856	2672.35	1789
971.6336	2443.6557	2683.4	1797.85
971.7629	2445.025	2670.1	1786.55
971.8922	2446.3937	2668.2	1783.35
972.0214	2447.7617	2657.1	1772.5
972.1506	2449.1289	2651.4	1769.2
972.2798	2450.4955	2651.55	1762.75
972.4089	2451.8613	2639.2	1757.55
972.538	2453.2265	2632.75	1747.85
972.6671	2454.5909	2641.45	1758.6
972.7961	2455.9546	2625.95	1739.7
972.9251	2457.3177	2628.8	1745.85
973.0541	2458.68	2623.35	1735.65
973.1831	2460.0416	2618.75	1734.85
973.312	2461.4025	2624.05	1738.65
973.4408	2462.7627	2631.65	1736.45
973.5697	2464.1222	2605.65	1723.3
973.6985	2465.4811	2597.7	1716.35
973.8273	2466.8392	2598.9	1716.9
973.956	2468.1966	2591.3	1704.6
974.0847	2469.5533	2600.25	1713.45
974.2134	2470.9093	2594.7	1710.1
974.3421	2472.2645	2575.05	1689.85
974.4707	2473.6191	2566.7	1683.1
974.5993	2474.973	2561.05	1676.1
974.7278	2476.3262	2562.5	1675.6
974.8563	2477.6787	2552.25	1669.35
974.9848	2479.0305	2538.1	1654.25
975.1132	2480.3816	2549.2	1662.6
975.2417	2481.7319	2533.65	1646.9
975.37	2483.0816	2522.25	1638.45
975.4984	2484.4306	2538.3	1653
975.6267	2485.7789	2509.95	1627.45
975.755	2487.1264	2503.5	1616.35
975.8833	2488.4733	2488.9	1604.45
976.0115	2489.8195	2500.85	1609.75
976.1397	2491.165	2480.95	1593.5
976.2678	2492.5097	2481.9	1596.7
976.3959	2493.8538	2473.45	1591.4
976.524	2495.1972	2477.8	1592.1
976.6521	2496.5398	2479.6	1594.3
976.7801	2497.8818	2467.15	1579.45
976.9081	2499.2231	2452.6	1567.15
977.036	2500.5637	2452.1	1566.75
977.164	2501.9035	2453.55	1566
977.2918	2503.2427	2434.8	1545.75
977.4197	2504.5812	2431.15	1545.15
977.5475	2505.919	2424.05	1538
977.6753	2507.256	2422.55	1538.85
977.8031	2508.5924	2408.3	1522.45
977.9308	2509.9281	2422.6	1534.05
978.0585	2511.2631	2403.15	1518.7
978.1861	2512.5974	2396.8	1511.35
978.3137	2513.9309	2408.5	1522.85
978.4413	2515.2638	2420.1	1507.45
978.5689	2516.596	2405.7	1521.95
978.6964	2517.9275	2378.5	1492.4
978.8239	2519.2583	2374.95	1489.2
978.9513	2520.5884	2374.2	1488.15
979.0788	2521.9178	2363.85	1478.75
979.2062	2523.2465	2356.5	1474.65
979.3335	2524.5745	2362.85	1480.6
979.4608	2525.9018	2352.25	1467.45
979.5881	2527.2284	2338	1453.55
979.7154	2528.5543	2336.6	1451.1
979.8426	2529.8796	2347.75	1463.9
979.9698	2531.2041	2330.6	1448.15
980.0969	2532.5279	2339.2	1456.85
980.224	2533.851	2327.55	1441.15
980.3511	2535.1735	2328.1	1443.15
980.4781	2536.4952	2327.85	1442.15
980.6052	2537.8163	2323.6	1438.75
980.7321	2539.1366	2315.8	1429.8
980.8591	2540.4562	2317.1	1432.35
980.986	2541.7752	2304.4	1418.3
981.1129	2543.0935	2310.5	1425.7
981.2397	2544.411	2308.6	1421
981.3665	2545.7279	2296.3	1410.3
981.4933	2547.0441	2291.55	1406.8
981.62	2548.3596	2290.7	1401.3
981.7467	2549.6744	2290	1404.35
981.8734	2550.9885	2290.05	1395.75
982.0001	2552.3019	2286.85	1402.85
982.1267	2553.6146	2270.6	1383.3
982.2532	2554.9266	2259.05	1375.25
982.3798	2556.2379	2266.35	1380.8
982.5063	2557.5485	2264.75	1380.55
982.6327	2558.8585	2267.4	1375.5
982.7592	2560.1677	2259.05	1368.85
982.8856	2561.4762	2250.95	1364.4
983.0119	2562.7841	2253.65	1364.55
983.1383	2564.0913	2238.9	1352.65
983.2646	2565.3977	2246.9	1361.9
983.3908	2566.7035	2236.5	1351.25
983.517	2568.0086	2241.25	1354.5
983.6432	2569.313	2228.1	1342.05
983.7694	2570.6167	2236.6	1346.95
983.8955	2571.9197	2221	1337.05
984.0216	2573.222	2225.3	1334.3
984.1476	2574.5236	2227.95	1340.25
984.2737	2575.8246	2217.25	1329.15
984.3996	2577.1248	2223.35	1334.8
984.5256	2578.4244	2209.4	1322.5
984.6515	2579.7232	2206.7	1320.45
984.7774	2581.0214	2227.75	1316.6
984.9032	2582.3189	2205.75	1319.65
985.029	2583.6157	2206.5	1318.2
985.1548	2584.9118	2205.6	1319.4
985.2806	2586.2072	2201.65	1317.1
985.4063	2587.5019	2197.95	1312.2
985.5319	2588.7959	2200.2	1315.05
985.6576	2590.0893	2200.4	1311.15
985.7832	2591.3819	2187	1301.35
985.9087	2592.6739	2185.3	1301
986.0343	2593.9652	2185.95	1297.65
986.1597	2595.2557	2186.5	1300.1
986.2852	2596.5456	2184.6	1294.95
986.4106	2597.8348	2175.65	1288.8
986.536	2599.1234	2173.95	1286.9
986.6614	2600.4112	2181.15	1295.55
986.7867	2601.6983	2170.2	1280.7
986.912	2602.9848	2179.5	1294.45
987.0372	2604.2705	2166.4	1273.85
987.1624	2605.5556	2158.85	1272.8
987.2876	2606.84	2156.8	1273.2
987.4128	2608.1237	2153.85	1264.85
987.5379	2609.4067	2142.6	1254.85
987.6629	2610.689	2148.4	1254.6
987.788	2611.9707	2135.35	1247.8
987.913	2613.2516	2130.45	1239.8
988.0379	2614.5319	2129.5	1246.4
988.1629	2615.8115	2127.5	1242.65
988.2878	2617.0903	2120.3	1232.65
988.4126	2618.3685	2112.05	1225.55
988.5375	2619.6461	2105.4	1218.15
988.6622	2620.9229	2109.35	1224.1
988.787	2622.199	2097.4	1211.75
988.9117	2623.4745	2089	1200.85
989.0364	2624.7493	2103.05	1217.1
989.161	2626.0234	2090.2	1204.5
989.2857	2627.2968	2094.35	1208.05
989.4102	2628.5695	2082.85	1194.95
989.5348	2629.8415	2082.2	1198.3
989.6593	2631.1128	2086.2	1199.9
989.7837	2632.3835	2067.35	1183.6
989.9082	2633.6535	2074.35	1188.2
990.0326	2634.9228	2068.5	1183.4
990.1569	2636.1914	2063.7	1179.95
990.2812	2637.4593	2065.1	1178.6
990.4055	2638.7265	2060	1173.55
990.5298	2639.9931	2054.1	1169.45
990.654	2641.259	2058.1	1170.2
990.7782	2642.5242	2056.6	1170.35
990.9023	2643.7887	2053.65	1169.95
991.0264	2645.0525	2037.75	1153.8
991.1505	2646.3156	2029.65	1143.55
991.2745	2647.5781	2034.5	1150.4
991.3985	2648.8398	2031.7	1148.5
991.5225	2650.1009	2032.1	1140.75
991.6464	2651.3613	2025.3	1138.75
991.7703	2652.6211	2021.9	1137.75
991.8942	2653.8801	2002.8	1117.35
992.018	2655.1385	2003	1111.95
992.1418	2656.3961	2013.1	1128.45
992.2655	2657.6531	2004.9	1122.45
992.3892	2658.9094	1995.75	1110.75
992.5129	2660.1651	1998.8	1116
992.6366	2661.42	2000.15	1114.95
992.7602	2662.6743	2011.9	1126.8
992.8837	2663.9279	1993	1109.8
993.0073	2665.1808	2003.05	1116.8
993.1307	2666.433	1986.65	1098.65
993.2542	2667.6846	1993.8	1110.05
993.3776	2668.9354	1995.45	1104.65
993.501	2670.1856	1992.15	1107.7
993.6244	2671.4351	1989.5	1104.8
993.7477	2672.6839	1999.9	1113.35
993.8709	2673.9321	1998.75	1112.8
993.9942	2675.1795	2000.45	1113.65
994.1174	2676.4263	1989.8	1107.9
994.2405	2677.6724	1990.55	1105.5
994.3637	2678.9179	1996.7	1112.05
994.4868	2680.1626	1996	1109.2
994.6098	2681.4067	1995.15	1108.05
994.7328	2682.6501	1993.35	1109.45
994.8558	2683.8928	1982.8	1097.4
994.9788	2685.1348	1978.6	1094.85
995.1017	2686.3761	1972.6	1088.5
995.2245	2687.6168	1967.15	1083.3
995.3474	2688.8568	1957.15	1073
995.4702	2690.0961	1955.75	1072.45
995.5929	2691.3348	1947.65	1064.85
995.7156	2692.5727	1951.05	1065.3
995.8383	2693.81	1937.5	1052.9
995.961	2695.0466	1940.5	1056.35
996.0836	2696.2826	1940.45	1052.25
996.2062	2697.5178	1938.05	1047.6
996.3287	2698.7524	1935.65	1051.05
996.4512	2699.9863	1943.75	1059.05
996.5737	2701.2195	1922.8	1039.3
996.6961	2702.452	1940.75	1053.4
996.8185	2703.6839	1932.55	1048.1
996.9408	2704.9151	1929.6	1047.8
997.0631	2706.1456	1945.2	1060.8
997.1854	2707.3755	1944.55	1061.4
997.3077	2708.6046	1948.95	1060.55
997.4299	2709.8331	1958.65	1074.15
997.552	2711.0609	1957.4	1071.8
997.6742	2712.2881	1961.25	1076.8
997.7963	2713.5145	1972.7	1085.15
997.9183	2714.7403	1975.35	1091.6
998.0403	2715.9654	1986.15	1101.05
998.1623	2717.1899	2000.4	1101.35
998.2842	2718.4136	2002.35	1116.6
998.4062	2719.6367	1997.8	1113.8
998.528	2720.8591	2021.35	1131.5
998.6498	2722.0809	2025	1140.65
998.7716	2723.3019	2037.25	1149.65
998.8934	2724.5223	2044	1158
999.0151	2725.7421	2044	1160.05
999.1368	2726.9611	2037.65	1153.05
999.2584	2728.1795	2043.9	1155.2
999.38	2729.3972	2036.7	1151.55
999.5016	2730.6142	2032.4	1133.25
999.6231	2731.8306	1997.1	1113.1
999.7446	2733.0462	1986.2	1100.5
999.8661	2734.2612	1965.3	1077.15
999.9875	2735.4756	1947.1	1061.5
1000.1089	2736.6892	1933.25	1047.55
1000.2302	2737.9022	1920.05	1036.3
1000.3515	2739.1145	1901.75	1015.3
1000.4728	2740.3262	1894.15	1001.45
1000.594	2741.5372	1867.25	985.6
1000.7152	2742.7475	1852.75	967.95
1000.8363	2743.9571	1849.5	964.55
1000.9575	2745.1661	1849.55	961.55
1001.0785	2746.3744	1831.2	944.9
1001.1996	2747.582	1818.2	933.75
1001.3206	2748.7889	1804.3	919.35
1001.4415	2749.9952	1802.5	919.75
1001.5625	2751.2008	1787.95	903.5
1001.6833	2752.4057	1788.75	901.2
1001.8042	2753.61	1779.6	896.45
1001.925	2754.8136	1782.4	894.85
1002.0458	2756.0165	1773.35	889.6
1002.1665	2757.2188	1767.45	882.95
1002.2872	2758.4204	1767.6	885.75
1002.4078	2759.6213	1766.2	878.55
1002.5285	2760.8215	1771.05	884.8
1002.649	2762.0211	1771	886.05
1002.7696	2763.22	1762.15	877.9
1002.8901	2764.4182	1751.9	867.5
1003.0106	2765.6158	1750.35	866.65
1003.131	2766.8127	1743.25	861.55
1003.2514	2768.009	1743.2	858.95
1003.3717	2769.2045	1737.1	853.05
1003.492	2770.3994	1740.6	856.25
1003.6123	2771.5936	1727.8	843.15
1003.7325	2772.7872	1727.55	845.15
1003.8527	2773.9801	1722.3	835.65
1003.9729	2775.1723	1733.45	832.25
1004.093	2776.3639	1722.3	840.8
1004.2131	2777.5548	1720.1	835.6
1004.3331	2778.745	1717	831.2
1004.4531	2779.9346	1713.65	829.55
1004.5731	2781.1235	1716.1	833.15
1004.693	2782.3117	1714.85	833.2
1004.8129	2783.4992	1718.4	835.2
1004.9328	2784.6861	1723.3	838.9
1005.0526	2785.8723	1731.05	848.3
1005.1723	2787.0579	1729.55	844.95
1005.2921	2788.2428	1735.65	853.15
1005.4118	2789.427	1737.35	852.95
1005.5314	2790.6106	1745.55	864.55
1005.651	2791.7935	1761	878.35
1005.7706	2792.9757	1768.4	887.85
1005.8902	2794.1573	1778.35	893.35
1006.0097	2795.3382	1786.7	906
1006.1291	2796.5184	1794.1	912.25
1006.2485	2797.698	1806.35	921.5
1006.3679	2798.8769	1829.05	946.7
1006.4873	2800.0551	1835.9	952.1
1006.6066	2801.2327	1848.5	961.75
1006.7258	2802.4096	1861.75	982.45
1006.8451	2803.5859	1887.1	1003.5
1006.9642	2804.7615	1908.75	1025.95
1007.0834	2805.9364	1920.35	1036.35
1007.2025	2807.1106	1953.35	1073.65
1007.3216	2808.2842	1984.35	1099.4
1007.4406	2809.4572	2005.15	1123.5
1007.5596	2810.6294	2040.9	1156.55
1007.6785	2811.801	2083.65	1203.1
1007.7975	2812.972	2124.3	1241.75
1007.9163	2814.1423	2160.1	1277.05
1008.0352	2815.3119	2213.35	1330.35
1008.154	2816.4808	2255.4	1373.1
1008.2727	2817.6491	2298.05	1415.45
1008.3914	2818.8167	2345.1	1462.95
1008.5101	2819.9837	2398.85	1513.35
1008.6288	2821.15	2436.1	1553.55
1008.7474	2822.3157	2493.8	1612.05
1008.8659	2823.4807	2539.4	1657.6
1008.9844	2824.645	2586.35	1702.3
1009.1029	2825.8086	2628.7	1748.85
1009.2214	2826.9716	2676.8	1793.95
1009.3398	2828.134	2713.5	1834.5
1009.4581	2829.2957	2751.65	1869.6
1009.5764	2830.4567	2766.15	1887.05
1009.6947	2831.617	2794.95	1913.55
1009.813	2832.7767	2804.55	1922.2
1009.9312	2833.9358	2812.5	1929.55
1010.0493	2835.0941	2803.5	1921.6
1010.1675	2836.2519	2786.55	1905.1
1010.2855	2837.4089	2781.5	1899.6
1010.4036	2838.5653	2777.45	1896.55
1010.5216	2839.7211	2760.6	1879.85
1010.6396	2840.8761	2784.5	1901.35
1010.7575	2842.0306	2792	1911.4
1010.8754	2843.1843	2833.8	1950.1
1010.9932	2844.3374	2876.25	1995.35
1011.111	2845.4899	2936.65	2053.05
1011.2288	2846.6417	2991.3	2111.05
1011.3465	2847.7928	3069.45	2189.15
1011.4642	2848.9433	3143.5	2263.1
1011.5818	2850.0931	3217	2336.9
1011.6995	2851.2422	3305.15	2424
1011.817	2852.3907	3367.45	2485.85
1011.9345	2853.5385	3439.6	2556
1012.052	2854.6857	3510	2601.7
1012.1695	2855.8323	3519.8	2638.6
1012.2869	2856.9781	3569.05	2688
1012.4042	2858.1233	3631.45	2749.9
1012.5216	2859.2679	3684	2803.05
1012.6389	2860.4118	3712.3	2829.8
1012.7561	2861.555	3754.35	2869.55
1012.8733	2862.6976	3787.8	2904.85
1012.9905	2863.8395	3809.9	2929.3
1013.1076	2864.9808	3847.65	2967.4
1013.2247	2866.1214	3864.5	2985.8
1013.3417	2867.2614	3865.15	2980.3
1013.4587	2868.4007	3884.05	2999.75
1013.5757	2869.5393	3898.8	3013.2
1013.6926	2870.6773	3913.05	3028.05
1013.8095	2871.8146	3924.3	3038.2
1013.9263	2872.9513	3923.55	3036.8
1014.0431	2874.0874	3907.95	3025.65
1014.1599	2875.2227	3901.95	3020.15
1014.2766	2876.3574	3879.4	2998.45
1014.3933	2877.4915	3855.8	2975.3
1014.51	2878.6249	3839.7	2959.65
1014.6266	2879.7577	3811.75	2927.7
1014.7431	2880.8898	3801.2	2909.4
1014.8596	2882.0212	3783.4	2903.5
1014.9761	2883.152	3766.85	2885.45
1015.0925	2884.2821	3740.95	2861.95
1015.2089	2885.4116	3733.85	2852.4
1015.3253	2886.5405	3746.8	2866.4
1015.4416	2887.6686	3740.9	2857.65
1015.5579	2888.7962	3760.95	2883.15
1015.6741	2889.923	3770.8	2890.7
1015.7903	2891.0493	3772.45	2893.95
1015.9065	2892.1748	3776.8	2895.85
1016.0226	2893.2997	3774.1	2893.1
1016.1387	2894.424	3793.85	2914.15
1016.2547	2895.5476	3815.3	2934.7
1016.3707	2896.6706	3843.4	2964
1016.4866	2897.7929	3855.25	2973.3
1016.6025	2898.9145	3900.95	3021.3
1016.7184	2900.0355	3925.85	3046.8
1016.8342	2901.1559	3948.6	3067.05
1016.95	2902.2756	3975.35	3096.65
1017.0658	2903.3946	4016.25	3135.2
1017.1815	2904.513	4055.75	3172.4
1017.2971	2905.6308	4079	3199.4
1017.4127	2906.7479	4087.95	3206.95
1017.5283	2907.8643	4120.25	3237.9
1017.6439	2908.9801	4137.2	3256.5
1017.7594	2910.0953	4140.2	3260.3
1017.8748	2911.2098	4145.7	3263.2
1017.9902	2912.3236	4148.8	3261.05
1018.1056	2913.4368	4129.2	3246.2
1018.2209	2914.5494	4095	3214.45
1018.3362	2915.6613	4068.95	3181.35
1018.4515	2916.7725	4030	3146.25
1018.5667	2917.8831	4015.8	3133
1018.6819	2918.9931	3994.05	3112.3
1018.797	2920.1024	3946.7	3065.45
1018.9121	2921.211	3927.95	3047.3
1019.0271	2922.319	3901.4	3020.85
1019.1421	2923.4264	3896.25	3015.8
1019.2571	2924.5331	3883.6	3004.2
1019.372	2925.6391	3861.95	2983.75
1019.4869	2926.7445	3868.55	2987.6
1019.6017	2927.8493	3850.1	2970.3
1019.7165	2928.9534	3840.6	2960.7
1019.8313	2930.0569	3843.45	2961.35
1019.946	2931.1597	3831.8	2949.55
1020.0606	2932.2619	3831.95	2950.95
1020.1753	2933.3634	3816.55	2935.45
1020.2899	2934.4643	3819.15	2933.9
1020.4044	2935.5645	3803.2	2917.3
1020.5189	2936.6641	3761.9	2878.75
1020.6334	2937.763	3715.05	2835.35
1020.7478	2938.8613	3678.25	2798.2
1020.8622	2939.959	3610.9	2725.6
1020.9765	2941.056	3524.65	2643.45
1021.0908	2942.1523	3457.1	2576.3
1021.2051	2943.248	3382.7	2500.55
1021.3193	2944.3431	3285.85	2403
1021.4334	2945.4375	3176.5	2296.3
1021.5476	2946.5313	3084.1	2205.8
1021.6617	2947.6244	2974.15	2093.55
1021.7757	2948.7169	2863.25	1983.55
1021.8897	2949.8087	2771.8	1891.25
1022.0037	2950.8999	2676.65	1797.95
1022.1176	2951.9904	2583.15	1703.45
1022.2315	2953.0803	2530.15	1650.45
1022.3453	2954.1696	2459.8	1580.5
1022.4591	2955.2582	2410.05	1530.15
1022.5728	2956.3462	2357.65	1479.35
1022.6865	2957.4335	2321.6	1441.5
1022.8002	2958.5202	2284.7	1402.75
1022.9138	2959.6062	2268.35	1387.25
1023.0274	2960.6916	2233.95	1354.25
1023.141	2961.7764	2214.75	1335.9
1023.2545	2962.8605	2189.25	1307.55
1023.3679	2963.9439	2184.85	1307.1
1023.4813	2965.0267	2177.4	1296.4
1023.5947	2966.1089	2189.1	1289.55
1023.708	2967.1905	2160.9	1280.5
1023.8213	2968.2714	2158.65	1277.95
1023.9346	2969.3516	2160.65	1280.7
1024.0478	2970.4312	2163.8	1276
1024.1609	2971.5102	2151.1	1270.6
1024.274	2972.5885	2146.6	1268.05
1024.3871	2973.6662	2159.9	1275.6
1024.5002	2974.7432	2150.1	1271.9
1024.6132	2975.8196	2144.55	1266.45
1024.7261	2976.8954	2128.75	1249.7
1024.839	2977.9705	2110	1231.35
1024.9519	2979.045	2101.6	1222.85
1025.0647	2980.1188	2083.4	1203.7
1025.1775	2981.192	2063.5	1186.75
1025.2902	2982.2645	2046.9	1167
1025.4029	2983.3364	2016.55	1135.9
1025.5156	2984.4077	1987.1	1106.45
1025.6282	2985.4783	1962.9	1079.95
1025.7407	2986.5483	1924.8	1046.65
1025.8532	2987.6177	1892.25	1012.7
1025.9657	2988.6864	1860.6	980.55
1026.0782	2989.7545	1822.1	943.1
1026.1906	2990.8219	1793.3	913.5
1026.3029	2991.8887	1757.25	874.7
1026.4152	2992.9548	1725.2	845.7
1026.5275	2994.0204	1693.85	816.25
1026.6397	2995.0852	1674	798.9
1026.7519	2996.1495	1638.65	758.85
1026.864	2997.2131	1624.35	746
1026.9761	2998.276	1593.3	713.6
1027.0882	2999.3383	1579.7	701.75
1027.2002	3000.4	1560.85	681.85
1027.3122	3001.4611	1540.4	662.5
1027.4241	3002.5215	1529.5	650.15
1027.536	3003.5812	1513.45	633.35
1027.6478	3004.6404	1495.45	615.65
1027.7596	3005.6989	1485.75	604.9
1027.8714	3006.7567	1475.45	598.25
1027.9831	3007.8139	1496.85	585.7
1028.0947	3008.8705	1464.2	585.25
1028.2064	3009.9264	1453.35	570.5
1028.3179	3010.9818	1446.8	567.65
1028.4295	3012.0364	1446.8	567.4
1028.541	3013.0905	1438.35	559.65
1028.6524	3014.1439	1429.6	549.4
1028.7638	3015.1966	1429.25	550.6
1028.8752	3016.2487	1429.85	553.9
1028.9865	3017.3002	1428.85	547.15
1029.0978	3018.3511	1432.25	556.9
1029.209	3019.4013	1423.05	545.35
1029.3202	3020.4509	1422.85	546.15
1029.4314	3021.4998	1431.75	550.6
1029.5425	3022.5481	1425.1	547.5
1029.6535	3023.5958	1427.25	548.45
1029.7645	3024.6428	1422.05	541.7
1029.8755	3025.6892	1423.7	546.9
1029.9864	3026.735	1424.15	547.4
1030.0973	3027.7802	1430.2	549.45
1030.2082	3028.8247	1429.15	551.1
1030.319	3029.8685	1430.25	550.75
1030.4297	3030.9118	1428.7	549.45
1030.5404	3031.9544	1438.4	560.55
1030.6511	3032.9963	1432.85	553.75
1030.7617	3034.0376	1441.95	565.8
1030.8723	3035.0783	1452.8	572.3
1030.9829	3036.1184	1460	583.1
1031.0934	3037.1578	1455.85	577.95
1031.2038	3038.1966	1449.55	571.5
1031.3142	3039.2348	1453.35	577.85
1031.4246	3040.2723	1461.2	573.1
1031.5349	3041.3092	1457.85	579.45
1031.6452	3042.3455	1443.35	564.85
1031.7554	3043.3811	1446.4	566.8
1031.8656	3044.4161	1444.15	564.3
1031.9758	3045.4505	1436.35	559.5
1032.0859	3046.4842	1430.45	552.8
1032.1959	3047.5173	1430.6	554
1032.3059	3048.5498	1417.6	536.7
1032.4159	3049.5816	1407.7	529.35
1032.5258	3050.6128	1407.35	530.2
1032.6357	3051.6434	1404.2	527.45
1032.7455	3052.6734	1393.4	515
1032.8553	3053.7027	1391.5	514
1032.9651	3054.7314	1375.2	496.25
1033.0748	3055.7594	1372.75	494.85
1033.1845	3056.7868	1380.45	504.05
1033.2941	3057.8136	1370.55	492.1
1033.4037	3058.8398	1362.1	484.95
1033.5132	3059.8653	1358.15	479.85
1033.6227	3060.8902	1353.2	475.5
1033.7321	3061.9145	1345.25	468.25
1033.8415	3062.9381	1342.5	463.7
1033.9509	3063.9612	1348.55	454.65
1034.0602	3064.9835	1328.85	451.2
1034.1694	3066.0053	1327.95	449.65
1034.2787	3067.0264	1313.8	436.9
1034.3878	3068.0469	1314.25	436.3
1034.497	3069.0668	1314.25	432
1034.6061	3070.086	1294.6	418.9
1034.7151	3071.1046	1288.9	411.35
1034.8241	3072.1226	1286.45	409.3
1034.9331	3073.1399	1272.2	395.15
1035.042	3074.1567	1256.65	381.3
1035.1508	3075.1727	1258.7	377.85
1035.2597	3076.1882	1244.15	367
1035.3684	3077.203	1240.6	363.65
1035.4772	3078.2173	1220.1	341.2
1035.5859	3079.2308	1225.75	346.3
1035.6945	3080.2438	1218.6	339.6
1035.8031	3081.2561	1203.9	325.6
1035.9117	3082.2678	1196.65	320.1
1036.0202	3083.2789	1193.3	318.3
1036.1286	3084.2893	1182.65	305
1036.2371	3085.2991	1180.2	301.75
1036.3454	3086.3083	1181.5	300.95
1036.4538	3087.3169	1165.55	285.1
1036.562	3088.3248	1166.45	285.7
1036.6703	3089.3321	1158	278.15
1036.7785	3090.3388	1151.45	272.9
1036.8866	3091.3449	1151	275.7
1036.9948	3092.3503	1147.2	265
1037.1028	3093.3551	1139.4	264.3
1037.2108	3094.3593	1135.35	258.75
1037.3188	3095.3629	1135.1	257.95
1037.4267	3096.3658	1133.4	254.05
1037.5346	3097.3681	1129.4	252.6
1037.6425	3098.3698	1130.15	252.25
1037.7503	3099.3708	1126.4	242.75
1037.858	3100.3713	1120.3	243.6
1037.9657	3101.3711	1113.75	234.35
1038.0734	3102.3702	1248.6	230.8
1038.181	3103.3688	1109.95	229.75
1038.2886	3104.3667	1107.45	231.55
1038.3961	3105.364	1110.6	235.25
1038.5036	3106.3607	1106.15	226.45
1038.611	3107.3568	1106.85	228.8
1038.7184	3108.3522	1101.9	224.2
1038.8257	3109.347	1098.15	221.95
1038.933	3110.3412	1099.95	218.95
1039.0403	3111.3348	1091.85	213.95
1039.1475	3112.3277	1092	213.95
1039.2547	3113.32	1087.25	211.6
1039.3618	3114.3117	1088.85	211.85
1039.4689	3115.3028	1087.05	209.95
1039.5759	3116.2932	1084	206.05
1039.6829	3117.2831	1092.8	212.3
1039.7898	3118.2723	1077.45	200.05
1039.8967	3119.2608	1085.25	209.3
1040.0035	3120.2488	1079.35	201.85
1040.1103	3121.2361	1078.75	202
1040.2171	3122.2229	1074.5	196.5
1040.3238	3123.209	1077.35	199.85
1040.4305	3124.1944	1069.15	193.35
1040.5371	3125.1793	1071.3	190.3
1040.6437	3126.1635	1072.05	196.7
1040.7502	3127.1471	1069.95	194.85
1040.8567	3128.1301	1062.05	188.3
1040.9631	3129.1125	1066.9	190.05
1041.0695	3130.0942	1066.95	189.15
1041.1759	3131.0753	1072.65	189.05
1041.2822	3132.0558	1063.05	184.5
1041.3884	3133.0357	1061.1	181.65
1041.4946	3134.015	1053.05	174.9
1041.6008	3134.9936	1055.6	177.1
1041.7069	3135.9716	1080.75	184.35
1041.813	3136.949	1054.2	178.2
1041.919	3137.9258	1071.25	174.9
1042.025	3138.902	1056.9	174
1042.1309	3139.8775	1049.6	173.15
1042.2368	3140.8524	1049.95	173.4
1042.3427	3141.8267	1050.85	174.5
1042.4485	3142.8004	1048.65	173.4
1042.5542	3143.7735	1050.05	167.2
1042.6599	3144.7459	1054.5	178.5
1042.7656	3145.7178	1045.05	167.3
1042.8712	3146.689	1039.35	164.15
1042.9768	3147.6596	1042.5	163.95
1043.0823	3148.6295	1040.15	164.2
1043.1878	3149.5989	1040.95	164.2
1043.2932	3150.5676	1033.9	157.95
1043.3986	3151.5357	1033.4	159.05
1043.5039	3152.5032	1027	150.9
1043.6092	3153.4701	1033.5	158.15
1043.7145	3154.4364	1038.55	160.45
1043.8197	3155.402	1027.65	153.95
1043.9248	3156.367	1032.95	154.35
1044.03	3157.3315	1054.2	150.75
1044.135	3158.2952	1026.7	152
1044.24	3159.2584	1027.65	152.7
1044.345	3160.221	1022.15	146.65
1044.4499	3161.1829	1023.85	148.2
1044.5548	3162.1442	1026.2	151.25
1044.6596	3163.105	1020.65	144.8
1044.7644	3164.065	1020.4	145.05
1044.8692	3165.0245	1023.55	142.85
1044.9739	3165.9834	1021.05	145.05
1045.0785	3166.9416	1014.4	137.3
1045.1831	3167.8993	1016.6	139
1045.2877	3168.8563	1016.9	138.95
1045.3922	3169.8127	1008.85	132.5
1045.4966	3170.7684	1014.05	137.95
1045.6011	3171.7236	1012.4	135.7
1045.7054	3172.6782	1016.8	140.25
1045.8098	3173.6321	1011.65	135.1
1045.914	3174.5854	1014.9	133.8
1046.0183	3175.5381	1003.3	127.05
1046.1224	3176.4902	1012.6	136.2
1046.2266	3177.4417	1009.95	134.25
1046.3307	3178.3926	1005.5	129.1
1046.4347	3179.3428	1007.35	130.95
1046.5387	3180.2924	1005.25	129.95
1046.6427	3181.2415	1005.3	127.9
1046.7466	3182.1899	1005.25	128.75
1046.8504	3183.1377	1003.1	126.65
1046.9542	3184.0848	1005.85	125.75
1047.058	3185.0314	1002.3	127
1047.1617	3185.9773	1001.6	124.3
1047.2654	3186.9227	1000.15	123.8
1047.369	3187.8674	999.05	122.35
1047.4726	3188.8115	998.5	120.95
1047.5761	3189.755	1001.05	126
1047.6796	3190.6979	992.4	118.55
1047.783	3191.6402	992.4	118.55
1047.8864	3192.5818	994.2	118
1047.9898	3193.5229	1002.35	120.4
1048.0931	3194.4633	995.4	118.7
1048.1963	3195.4031	993.85	116.1
1048.2995	3196.3423	992.65	115.65
1048.4027	3197.2809	993.25	116.9
1048.5058	3198.2189	989.8	116.15
1048.6089	3199.1563	1006.45	114.15
1048.7119	3200.0931	988.25	115.05
1048.8148	3201.0292	985.8	111.2
1048.9178	3201.9648	987.1	112
1049.0206	3202.8997	989.7	111.6
1049.1235	3203.834	989.4	113.6
1049.2262	3204.7677	986.15	110.65
1049.329	3205.7008	984.25	110.3
1049.4317	3206.6333	984.9	112.3
1049.5343	3207.5652	985.9	108.65
1049.6369	3208.4964	985	110.25
1049.7394	3209.4271	982.65	106.3
1049.8419	3210.3571	983.95	109.3
1049.9444	3211.2865	983.1	105.95
1050.0468	3212.2154	981.8	106.15
1050.1491	3213.1436	986.4	105.7
1050.2514	3214.0712	988.25	103.5
1050.3537	3214.9982	979.4	105
1050.4559	3215.9246	982.1	106.65
1050.5581	3216.8503	978.3	105.95
1050.6602	3217.7755	981	106.05
1050.7623	3218.7001	977.8	101.6
1050.8643	3219.624	976.2	99.65
1050.9663	3220.5473	973.7	98.75
1051.0682	3221.4701	978.75	102.65
1051.1701	3222.3922	977.15	99.7
1051.2719	3223.3137	975.45	98.1
1051.3737	3224.2346	974.05	100.05
1051.4754	3225.1549	976.9	102.35
1051.5771	3226.0746	971.35	96.4
1051.6788	3226.9937	973.1	96.6
1051.7804	3227.9121	974.25	100.35
1051.8819	3228.83	970.25	95.2
1051.9834	3229.7473	966.3	90.7
1052.0849	3230.6639	970.25	96
1052.1863	3231.5799	967.2	91.15
1052.2876	3232.4954	971.45	95.8
1052.3889	3233.4102	967.55	93.7
1052.4902	3234.3244	967.9	92.45
1052.5914	3235.238	965.2	91.15
1052.6926	3236.151	991.25	91.45
1052.7937	3237.0634	966.95	93.95
1052.8948	3237.9752	961.95	87.75
1052.9958	3238.8864	963.9	88.75
1053.0968	3239.797	962.65	86.7
1053.1977	3240.7069	964.25	88
1053.2986	3241.6163	963.9	86.9
1053.3994	3242.5251	961.9	89.35
1053.5002	3243.4332	961.9	89.75
1053.6009	3244.3408	959.4	83
1053.7016	3245.2477	960.95	85.1
1053.8022	3246.154	961.35	86.55
1053.9028	3247.0598	959.55	84.3
1054.0034	3247.9649	958.9	83
1054.1039	3248.8694	961	86
1054.2043	3249.7733	958.2	82.9
1054.3047	3250.6766	957.2	82.5
1054.4051	3251.5793	955.9	81.2
1054.5054	3252.4814	952.3	79
1054.6056	3253.3829	951.25	77.3
1054.7058	3254.2838	951.25	76.3
1054.806	3255.1841	954.7	81.1
1054.9061	3256.0838	952.7	77.15
1055.0061	3256.9829	951.5	78.7
1055.1062	3257.8814	951.95	77.15
1055.2061	3258.7792	952.05	75.85
1055.306	3259.6765	951.45	76.35
1055.4059	3260.5731	946.05	71.95
1055.5057	3261.4692	947.2	72.8
1055.6055	3262.3647	947.45	73.35
1055.7052	3263.2595	943.4	67.55
1055.8049	3264.1538	945.15	69.65
1055.9045	3265.0474	944.25	69.1
1056.0041	3265.9404	941.25	66.65
1056.1036	3266.8329	940.6	67.75
1056.2031	3267.7247	947.15	63.1
1056.3025	3268.616	938.4	64.3
1056.4019	3269.5066	936.45	61.5
1056.5013	3270.3966	935.7	59
1056.6005	3271.286	930.6	58.35
