Software Version:	3.9.2.0
Unit SN:	10000200
Spectrometer SN:	6960
Date:	3/8/2024 1:29:39 PM
Data Line Index:	25
Spectral Points:	2048
Integration time (ms):	125
Averages:	20
Delay (ms):	30000
Sequence Number:	1
Processing:	dark subtract
Laser Power (mW):	305
Laser Current (mA):	822
Laser Diode Temp (C):	25
Laser Case Temp (C):	26.3
System Temp (C):	26.3
Spectrometer Temp (C):	24.1
CCD Temp (C):	0.005
Secondary Temp (C):	20.007
Heatsink Temp (C):	21.095
CCDPCB Temp (C):	36.285
SecondaryPCB Temp (C):	31.805

Wavelength	RamanShift	Raw Counts	Dark Subtracted
787.061	30.1047	450.35	43.85
787.2016	32.3739	450.5	45.55
787.3422	34.6426	454.8	50.35
787.4828	36.9109	460.05	50.55
787.6235	39.1787	468.9	56.15
787.7642	41.4461	478.9	59.8
787.9049	43.7131	487.9	66.9
788.0456	45.9796	492.95	68.95
788.1863	48.2456	503.35	75.85
788.3271	50.5112	513.4	80.55
788.4679	52.7764	522.05	86.15
788.6087	55.0411	531	91.4
788.7496	57.3054	543.9	97.2
788.8904	59.5692	553.25	107.3
789.0313	61.8326	564.85	114.65
789.1722	64.0955	572.95	119.7
789.3132	66.3579	588.7	129.9
789.4541	68.6199	610.6	147.75
789.5951	70.8815	641.2	174.45
789.7361	73.1426	719.45	250.45
789.8771	75.4032	907.65	434.25
790.0181	77.6634	1376.6	899.25
790.1592	79.9231	2480.3	1991.95
790.3003	82.1824	4884.2	4378.25
790.4414	84.4412	9196.6	8660.6
790.5825	86.6995	15161.4	14585.15
790.7237	88.9574	20929.95	20319.5
790.8648	91.2148	24927	24292.2
791.006	93.4717	26726.85	26077.4
791.1472	95.7282	27126.8	26470.9
791.2885	97.9842	26940.6	26280.3
791.4297	100.2398	26357.9	25694.45
791.571	102.4949	25662.65	24995.4
791.7123	104.7495	24855.85	24185.85
791.8536	107.0036	24020.8	23356.3
791.9949	109.2573	23244.8	22579.1
792.1363	111.5105	22508	21837.15
792.2777	113.7632	21766.1	21091.3
792.4191	116.0154	21187.7	20503.75
792.5605	118.2672	20697.4	20021.25
792.7019	120.5185	20231.85	19554.15
792.8434	122.7693	19864.4	19184.15
792.9849	125.0197	19546.95	18859.4
793.1264	127.2696	19272.7	18583.8
793.2679	129.519	19078.7	18382.2
793.4094	131.7679	18882.8	18184
793.551	134.0163	18659.05	17957.55
793.6926	136.2642	18390.6	17691
793.8342	138.5117	18158.65	17454.3
793.9758	140.7587	17900.8	17194.6
794.1175	143.0052	17645.8	16934.4
794.2591	145.2512	17364.7	16654.4
794.4008	147.4967	17118.55	16406.5
794.5425	149.7417	16944.75	16229.65
794.6842	151.9863	16808.75	16090.95
794.826	154.2304	16743.55	16016.35
794.9677	156.4739	16597.55	15869.4
795.1095	158.717	16529.95	15802.85
795.2513	160.9596	16368.45	15636
795.3931	163.2017	16091	15359.45
795.535	165.4433	15783.5	15043.75
795.6768	167.6844	15484.2	14748.15
795.8187	169.925	15133.9	14394.8
795.9606	172.1651	14769.65	14027.9
796.1025	174.4047	14476.7	13730.5
796.2445	176.6439	14238.45	13495.35
796.3864	178.8825	13978.85	13228.15
796.5284	181.1206	13833.15	13079
796.6704	183.3582	13681.8	12918.55
796.8124	185.5954	13589.4	12829.95
796.9544	187.832	13475.75	12709.35
797.0965	190.0681	13472.8	12709.6
797.2386	192.3037	13430.6	12655.15
797.3806	194.5388	13433.45	12656.95
797.5228	196.7734	13466.15	12689.45
797.6649	199.0075	13535.5	12753.2
797.807	201.2411	13662.05	12880.95
797.9492	203.4742	13734.75	12949.75
798.0914	205.7068	13850.4	13061.5
798.2336	207.9389	13950.75	13162.55
798.3758	210.1704	14118.2	13339.2
798.518	212.4015	14201.1	13427.95
798.6603	214.632	14359.95	13589.65
798.8025	216.862	14547.9	13784.6
798.9448	219.0915	14687	13922.45
799.0871	221.3205	14863.75	14092.95
799.2294	223.549	15104.3	14338.85
799.3718	225.777	15318.05	14553.15
799.5141	228.0044	15642.95	14870.6
799.6565	230.2314	16017.7	15247.9
799.7989	232.4578	16357.15	15583.8
799.9413	234.6837	16687.7	15904.1
800.0837	236.909	16886.45	16101.75
800.2262	239.1339	16866.7	16053.5
800.3687	241.3582	16677.85	15879.25
800.5111	243.582	16403.35	15577.6
800.6536	245.8053	16140.65	15329.15
800.7961	248.0281	15842.25	15035.6
800.9387	250.2503	15666.55	14856.3
801.0812	252.472	15533.5	14724.45
801.2238	254.6932	15524.5	14710.2
801.3664	256.9139	15495	14682.95
801.509	259.134	15534.25	14714.4
801.6516	261.3536	15556.45	14737.1
801.7942	263.5727	15666.15	14848.75
801.9369	265.7912	15718.25	14903.8
802.0795	268.0092	15764.65	14946.55
802.2222	270.2267	15780.35	14958.2
802.3649	272.4436	15801.5	14983
802.5076	274.6601	15776.95	14946.9
802.6504	276.8759	15649.65	14825.55
802.7931	279.0913	15607.75	14783.65
802.9359	281.3061	15516.3	14683.65
803.0787	283.5204	15541.75	14706.45
803.2215	285.7341	15572.75	14738.2
803.3643	287.9473	15704.3	14862.1
803.5071	290.16	15901.65	15066.5
803.6499	292.3721	16147.25	15317.7
803.7928	294.5837	16507.15	15673.15
803.9357	296.7947	16856.85	16020.75
804.0786	299.0052	17068.8	16233.3
804.2215	301.2152	16946.15	16112.05
804.3644	303.4246	16610.75	15780
804.5074	305.6334	16161.2	15334
804.6503	307.8418	15636.85	14802.6
804.7933	310.0495	15217.3	14378.15
804.9363	312.2568	14889.55	14053
805.0793	314.4635	14617.15	13774.05
805.2223	316.6696	14463.7	13621.25
805.3653	318.8752	14365.1	13515.05
805.5084	321.0802	14378.35	13535.1
805.6514	323.2847	14476.8	13628.65
805.7945	325.4887	14521.3	13674.9
805.9376	327.692	14492.5	13645.3
806.0807	329.8949	14407.95	13555.1
806.2238	332.0972	14135.75	13283.7
806.367	334.2989	13873.85	13013.95
806.5101	336.5001	13597	12741.3
806.6533	338.7007	13415.85	12559.85
806.7965	340.9008	13276.65	12416.5
806.9397	343.1003	13152.3	12292.75
807.0829	345.2992	13082.1	12225.4
807.2261	347.4976	13050.4	12191.9
807.3693	349.6955	13014.3	12151.95
807.5126	351.8927	13062.85	12199.75
807.6559	354.0895	13017.5	12141.7
807.7991	356.2856	13065.25	12200.8
807.9424	358.4812	13027.85	12160.65
808.0857	360.6763	13077.75	12212.15
808.2291	362.8707	13025.15	12155.25
808.3724	365.0646	13053.1	12180.95
808.5158	367.258	13093.65	12223.9
808.6591	369.4508	13124.4	12250.85
808.8025	371.643	13256.3	12381.05
808.9459	373.8346	13227.2	12347.9
809.0893	376.0257	13211	12328.95
809.2327	378.2162	13160.55	12282.45
809.3762	380.4062	13111.65	12233.6
809.5196	382.5956	12941.45	12063.8
809.6631	384.7844	12864.15	11990.05
809.8066	386.9726	12727.35	11857.85
809.9501	389.1603	12693.65	11826.3
810.0936	391.3474	12666.6	11765.45
810.2371	393.5339	12639.5	11765.8
810.3806	395.7199	12582.7	11713.15
810.5241	397.9052	12602.15	11733.7
810.6677	400.09	12618.25	11744.3
810.8113	402.2743	12711.7	11842.2
810.9548	404.4579	12809.5	11936.8
811.0984	406.641	12977.65	12103.65
811.2421	408.8235	13175.9	12296.7
811.3857	411.0054	13451.8	12577
811.5293	413.1868	13827.35	12946.6
811.673	415.3675	14101.7	13219
811.8166	417.5477	14281.25	13398.4
811.9603	419.7273	14296.75	13413.5
812.104	421.9064	14210.35	13321.15
812.2477	424.0848	14077.1	13188.9
812.3914	426.2627	13884.2	12999.95
812.5351	428.4399	13634.5	12745.8
812.6788	430.6166	13273.75	12381.5
812.8226	432.7928	12917.5	12025.25
812.9663	434.9683	12591.85	11698.35
813.1101	437.1432	12335.9	11450.15
813.2539	439.3176	12212	11330.15
813.3977	441.4914	12066.7	11185.35
813.5415	443.6645	12066.2	11181.9
813.6853	445.8371	11989.25	11102.05
813.8291	448.0091	11949.9	11059.65
813.973	450.1806	11935.85	11048.4
814.1168	452.3514	11888.85	11000.2
814.2607	454.5216	11921.65	11026.85
814.4046	456.6913	11839.1	10947.1
814.5485	458.8603	11890.55	11004.05
814.6924	461.0288	11941.65	11061.8
814.8363	463.1967	11947.9	11071.6
814.9802	465.3639	12043.15	11158.75
815.1241	467.5306	12109	11218.55
815.2681	469.6967	12235.1	11349.55
815.412	471.8622	12322.55	11442.25
815.556	474.0271	12489.3	11603.3
815.7	476.1914	12561.2	11672.55
815.844	478.3551	12553.45	11664
815.988	480.5182	12555.6	11669.2
816.132	482.6807	12549.75	11671.35
816.276	484.8426	12655.45	11784.1
816.4201	487.0039	12932.25	12054.2
816.5641	489.1647	13359.5	12470.85
816.7082	491.3248	13714.8	12826.2
816.8522	493.4843	13915.35	13036.05
816.9963	495.6432	13891.55	13005.9
817.1404	497.8015	13780.85	12887
817.2845	499.9592	13750.8	12845.9
817.4286	502.1163	13686.15	12784.05
817.5727	504.2728	13442.4	12545.35
817.7168	506.4287	13127.85	12242.9
817.861	508.5839	12718.7	11838.1
818.0051	510.7386	12425.5	11535.35
818.1493	512.8927	12266.25	11366.2
818.2935	515.0461	12200.95	11300.65
818.4377	517.199	12172.65	11274.15
818.5818	519.3512	12189	11285.65
818.726	521.5029	12290.3	11386.9
818.8703	523.6539	12411.35	11511.55
819.0145	525.8043	12504.3	11604.35
819.1587	527.9541	12475.6	11573.25
819.303	530.1033	12423.3	11521.2
819.4472	532.2519	12393.95	11491
819.5915	534.3999	12484.25	11581.3
819.7357	536.5472	12687.15	11789
819.88	538.694	13100.15	12202.7
820.0243	540.8401	13601.75	12698.5
820.1686	542.9856	14054.2	13141.05
820.3129	545.1305	14196.1	13275.5
820.4572	547.2748	14074	13149.5
820.6016	549.4185	13728.2	12806.8
820.7459	551.5615	13435.7	12515.8
820.8902	553.704	13328	12412.05
821.0346	555.8458	13274.75	12363.05
821.1789	557.987	13347.85	12440.5
821.3233	560.1276	13371.65	12462.05
821.4677	562.2675	13473.35	12557.7
821.6121	564.4069	13641.5	12727.25
821.7565	566.5456	13771.2	12860.05
821.9009	568.6837	13728.6	12816.55
822.0453	570.8212	13436.55	12528.6
822.1897	572.958	12997.85	12089.25
822.3342	575.0942	12625.9	11719.75
822.4786	577.2299	12387.55	11488.1
822.6231	579.3648	12301.35	11412.15
822.7675	581.4992	12341.1	11461.1
822.912	583.6329	12516.95	11634.75
823.0565	585.766	12778.6	11890.6
823.201	587.8985	12914.1	12022.1
823.3454	590.0304	12922.05	11992
823.4899	592.1616	12862.5	11950.3
823.6345	594.2922	12730.65	11815.95
823.779	596.4222	12576.7	11659.75
823.9235	598.5515	12414.45	11496.25
824.068	600.6802	12228.1	11305.5
824.2126	602.8083	12076.1	11160.95
824.3571	604.9358	12036	11122.65
824.5017	607.0626	12006.6	11088.3
824.6462	609.1888	12003.05	11074.25
824.7908	611.3144	12000.3	11076.45
824.9354	613.4393	11942.6	11019.9
825.08	615.5636	11890.4	10962.6
825.2246	617.6873	11831.4	10908.75
825.3692	619.8103	11760.65	10838.8
825.5138	621.9327	11645.45	10728.3
825.6584	624.0544	11531.75	10616.05
825.803	626.1756	11498.45	10582.25
825.9477	628.2961	11420.6	10499
826.0923	630.4159	11365.9	10443.85
826.237	632.5351	11348.35	10423.6
826.3816	634.6537	11288.05	10363.7
826.5263	636.7716	11266.1	10336.05
826.6709	638.8889	11278.55	10350.2
826.8156	641.0056	11303.1	10375.45
826.9603	643.1216	11288.75	10361.25
827.105	645.237	11300.5	10374.15
827.2497	647.3518	11252.1	10331.15
827.3944	649.4659	11266	10351.55
827.5391	651.5793	11225.8	10310.15
827.6838	653.6922	11233.8	10312.55
827.8285	655.8043	11214.6	10295.85
827.9733	657.9159	11204.75	10287
828.118	660.0268	11162.2	10239.65
828.2627	662.137	11148.4	10223.85
828.4075	664.2466	11118.55	10189.2
828.5522	666.3556	11087.2	10154.95
828.697	668.4639	11033.15	10107.85
828.8418	670.5716	11058.6	10142.85
828.9865	672.6786	11133.3	10205.1
829.1313	674.785	11130.05	10199.75
829.2761	676.8907	11196.9	10268.25
829.4209	678.9958	11265.65	10341.95
829.5657	681.1002	11250.55	10325.95
829.7105	683.204	11212.65	10276.7
829.8553	685.3072	11190.7	10256.1
830.0001	687.4097	11139.55	10211.75
830.1449	689.5115	11112.55	10182.1
830.2898	691.6127	11066.6	10140.75
830.4346	693.7132	11008.8	10085.45
830.5794	695.8131	10995.6	10056.05
830.7243	697.9123	10969.35	10032.15
830.8691	700.0109	10959.3	10020
831.014	702.1089	10955.2	10023
831.1588	704.2061	10974.25	10041.3
831.3037	706.3028	10964.95	10030.15
831.4486	708.3987	11034.15	10097.9
831.5935	710.4941	11124.2	10191.05
831.7383	712.5887	11243.15	10310.65
831.8832	714.6827	11502.5	10567.45
832.0281	716.7761	11764	10835.65
832.173	718.8688	12079.65	11152.5
832.3179	720.9608	12287	11345.85
832.4628	723.0522	12337.95	11392.25
832.6077	725.1429	12243	11306
832.7527	727.233	12057.8	11121.7
832.8976	729.3224	11900.3	10963.4
833.0425	731.4112	11643.75	10707.85
833.1874	733.4993	11460.75	10523.75
833.3324	735.5867	11316.9	10380.55
833.4773	737.6735	11147.4	10210.65
833.6222	739.7596	11062.35	10126.5
833.7672	741.845	10991	10056.2
833.9122	743.9298	10958.65	10021.35
834.0571	746.014	10976.9	10044.9
834.2021	748.0974	10979.55	10036.65
834.347	750.1802	10959.25	10015.2
834.492	752.2624	11010.25	10067.9
834.637	754.3439	11026.3	10085.4
834.782	756.4247	11115.85	10166.95
834.9269	758.5048	11250.9	10306.8
835.0719	760.5843	11497.9	10553.05
835.2169	762.6631	11828.95	10886.55
835.3619	764.7413	12313.25	11372.85
835.5069	766.8188	12932.7	11990.8
835.6519	768.8956	13396.9	12456.15
835.7969	770.9718	13695.9	12753.45
835.9419	773.0473	13575.45	12634.4
836.0869	775.1221	13271.6	12328.15
836.232	777.1962	12927.5	11984.75
836.377	779.2697	12759.1	11814.95
836.522	781.3426	12818.15	11864.95
836.667	783.4147	13011.4	12067.35
836.8121	785.4862	13260.9	12316.5
836.9571	787.557	13263.1	12316.65
837.1021	789.6271	12901.1	11952.5
837.2472	791.6966	12327.6	11384.4
837.3922	793.7654	11783.45	10838.65
837.5373	795.8335	11436.4	10492.5
837.6823	797.901	11222.35	10279.25
837.8274	799.9678	11155.65	10207.7
837.9724	802.0339	11144.5	10199.5
838.1175	804.0993	11152.2	10195.05
838.2626	806.1641	11128.4	10182.7
838.4076	808.2282	11068.45	10124.3
838.5527	810.2916	10995.75	10048.8
838.6978	812.3544	10921.35	9977.65
838.8428	814.4164	10813.25	9872.25
838.9879	816.4778	10847.55	9898.35
839.133	818.5385	10848.3	9900.3
839.2781	820.5986	10930.35	9980.55
839.4232	822.658	11069.4	10119.35
839.5682	824.7166	11238.6	10292.75
839.7133	826.7747	11536.35	10587.8
839.8584	828.832	11797.75	10844.7
840.0035	830.8886	12009.35	11055
840.1486	832.9446	12148.05	11194.9
840.2937	834.9999	12141.7	11193.2
840.4388	837.0545	12060.55	11108.45
840.5839	839.1085	11984.7	11036.4
840.729	841.1618	11891.9	10937.25
840.8741	843.2143	11801.4	10852.3
841.0192	845.2662	11690.6	10742.3
841.1643	847.3175	11589.15	10639.1
841.3095	849.368	11494.3	10542.15
841.4546	851.4179	11417.8	10471.9
841.5997	853.467	11254.55	10300.8
841.7448	855.5155	11178.8	10231.9
841.8899	857.5633	11084.7	10133.85
842.0351	859.6105	11004.35	10053.9
842.1802	861.6569	10930.8	9983.5
842.3253	863.7027	10871.35	9918.05
842.4704	865.7478	10851.1	9895.5
842.6156	867.7922	10848.1	9899.7
842.7607	869.8359	10853.55	9905.65
842.9058	871.8789	10966.6	10017.2
843.0509	873.9212	11121	10138.15
843.1961	875.9629	11261.1	10307
843.3412	878.0039	11394.2	10441.4
843.4863	880.0441	11515.9	10570.1
843.6315	882.0837	11522.15	10568.4
843.7766	884.1226	11464.1	10511.05
843.9218	886.1609	11402.65	10453.8
844.0669	888.1984	11363	10410.35
844.212	890.2352	11376.35	10423.9
844.3572	892.2714	11373.95	10418
844.5023	894.3069	11334	10381.1
844.6475	896.3416	11235.05	10282.95
844.7926	898.3757	11190	10239.7
844.9377	900.4091	11131.05	10175.4
845.0829	902.4418	11176.85	10214.25
845.228	904.4739	11188.9	10232.6
845.3732	906.5052	11188.1	10231.4
845.5183	908.5358	11115.15	10161.9
845.6635	910.5658	10957.95	9999.95
845.8086	912.595	10804.5	9850.25
845.9538	914.6236	10624.4	9670.65
846.0989	916.6515	10577.95	9623.45
846.2441	918.6786	10532.15	9574.2
846.3892	920.7051	10595.75	9637.55
846.5344	922.7309	10675.25	9721.95
846.6795	924.756	10716.55	9763.95
846.8246	926.7804	10815.3	9861.1
846.9698	928.8041	10805.5	9850.55
847.1149	930.8272	10824.25	9868.4
847.2601	932.8495	10797.65	9841.15
847.4052	934.8711	10745.9	9791.5
847.5504	936.892	10646.55	9687.45
847.6955	938.9123	10514.45	9557.9
847.8407	940.9318	10449.3	9493.25
847.9858	942.9506	10369.7	9414.85
848.131	944.9688	10310.25	9356.5
848.2761	946.9862	10235.9	9280.85
848.4213	949.003	10165.5	9210.5
848.5664	951.019	10160.2	9203.3
848.7115	953.0344	10131.55	9174.2
848.8567	955.0491	10178.55	9222.95
849.0018	957.063	10243.6	9287.55
849.147	959.0763	10339.3	9382.5
849.2921	961.0888	10400.9	9446.3
849.4373	963.1007	10470.9	9518.5
849.5824	965.1119	10493.7	9551.25
849.7275	967.1223	10519.6	9581.6
849.8727	969.1321	10536.2	9600.3
850.0178	971.1412	10545.3	9602.95
850.1629	973.1495	10552.2	9603.55
850.3081	975.1572	10644.3	9642.15
850.4532	977.1641	10648	9691.2
850.5983	979.1704	10625.2	9667.3
850.7435	981.1759	10579.3	9618.6
850.8886	983.1808	10666.85	9710
851.0337	985.1849	10720	9765.35
851.1788	987.1884	10818.75	9863.45
851.324	989.1911	10986.05	10032.8
851.4691	991.1932	11105.5	10148.25
851.6142	993.1945	11149.95	10199.5
851.7593	995.1951	11118.3	10166.45
851.9045	997.1951	11100.15	10137.3
852.0496	999.1943	11046.8	10089.55
852.1947	1001.1928	11041.15	10084.8
852.3398	1003.1906	11038.7	10087.95
852.4849	1005.1877	11122.3	10164.1
852.63	1007.1841	11115.6	10160.65
852.7751	1009.1798	11051	10101.7
852.9202	1011.1748	10891.75	9936.15
853.0653	1013.1691	10731.6	9777.3
853.2104	1015.1627	10522.2	9569.1
853.3555	1017.1556	10345.85	9393
853.5006	1019.1477	10228.95	9278.35
853.6457	1021.1392	10143.9	9197.7
853.7908	1023.1299	10121.5	9181.6
853.9359	1025.12	10145.5	9211.3
854.081	1027.1093	10170.7	9245.15
854.2261	1029.0979	10291.4	9370.75
854.3712	1031.0859	10356.3	9427.15
854.5163	1033.0731	10406.05	9466.95
854.6613	1035.0596	10340.05	9396.05
854.8064	1037.0454	10233.8	9287.55
854.9515	1039.0304	10114.45	9165.8
855.0965	1041.0148	9995.7	9048.35
855.2416	1042.9985	9903.85	8953.8
855.3867	1044.9814	9865.9	8913.05
855.5317	1046.9636	9808.2	8856.95
855.6768	1048.9452	9795.4	8846.45
855.8219	1050.926	9845.85	8896.05
855.9669	1052.9061	9839	8886.9
856.112	1054.8855	9864.1	8911.15
856.257	1056.8642	9877.4	8927.05
856.4021	1058.8421	9929.2	8972.6
856.5471	1060.8194	9981.05	9026
856.6921	1062.7959	10012.05	9062.1
856.8372	1064.7717	10044.7	9087.35
856.9822	1066.7469	10109.8	9155.75
857.1272	1068.7213	10125.6	9166.35
857.2723	1070.695	10134.1	9181.1
857.4173	1072.6679	10086.35	9134.45
857.5623	1074.6402	10081	9128.05
857.7073	1076.6117	10044.15	9087.4
857.8523	1078.5826	9996.1	9042.15
857.9973	1080.5527	9981.05	9026.75
858.1423	1082.5221	10032.5	9081.05
858.2873	1084.4908	10157	9204.65
858.4323	1086.4587	10303.8	9351.65
858.5773	1088.426	10429.5	9475.45
858.7223	1090.3925	10468.6	9507.35
858.8673	1092.3584	10417.95	9462.45
859.0123	1094.3235	10322.4	9371.2
859.1573	1096.2879	10290.75	9337.75
859.3022	1098.2515	10321.9	9369.1
859.4472	1100.2145	10413.2	9463.05
859.5922	1102.1767	10538.05	9585.65
859.7371	1104.1382	10713.7	9762.05
859.8821	1106.099	10892.85	9939.45
860.027	1108.0591	11129.15	10181.6
860.172	1110.0185	11285.45	10334.45
860.3169	1111.9771	11329.65	10379.25
860.4619	1113.9351	11154.35	10199.9
860.6068	1115.8923	10908.5	9959.3
860.7517	1117.8488	10656.8	9705.25
860.8967	1119.8045	10408.85	9459.2
861.0416	1121.7596	10295.85	9347.4
861.1865	1123.7139	10229.05	9281.7
861.3314	1125.6675	10224.55	9273.8
861.4763	1127.6204	10265.25	9316.05
861.6212	1129.5726	10248.75	9294.5
861.7661	1131.524	10232.7	9284.85
861.911	1133.4748	10172.75	9222.95
862.0559	1135.4248	10109.2	9155.4
862.2008	1137.3741	10070.4	9122.75
862.3457	1139.3226	10000.8	9046.25
862.4905	1141.2705	9970.65	9018.2
862.6354	1143.2176	9872.35	8915.6
862.7803	1145.164	9879.5	8926.95
862.9251	1147.1097	9890.75	8938.35
863.07	1149.0546	9833.95	8883.2
863.2148	1150.9989	9736.85	8783.75
863.3597	1152.9424	9640.55	8687.1
863.5045	1154.8852	9483.8	8534.7
863.6493	1156.8272	9399.05	8447.6
863.7942	1158.7686	9380.9	8421.85
863.939	1160.7092	9337.25	8387.65
864.0838	1162.6491	9356.4	8404.15
864.2286	1164.5883	9453.1	8505.05
864.3734	1166.5267	9523.45	8569.45
864.5182	1168.4644	9669.85	8720.35
864.663	1170.4014	9842.1	8891.45
864.8078	1172.3377	10091.75	9143.75
864.9526	1174.2732	10327.85	9378.95
865.0974	1176.2081	10635.7	9685.6
865.2421	1178.1421	10926.45	9972.3
865.3869	1180.0755	11234.1	10288.15
865.5317	1182.0082	11392.65	10446.4
865.6764	1183.9401	11456.2	10508
865.8212	1185.8713	11326.55	10388.55
865.9659	1187.8017	11076.3	10142.7
866.1106	1189.7315	10823.85	9898.75
866.2554	1191.6605	10490.45	9564.2
866.4001	1193.5888	10281	9346.25
866.5448	1195.5163	10168.5	9229.55
866.6895	1197.4432	10084.95	9142.15
866.8342	1199.3693	10038.05	9093.6
866.9789	1201.2947	10020.5	9074.5
867.1236	1203.2193	10001.3	9053.3
867.2683	1205.1432	10046.6	9102.9
867.413	1207.0664	10044.95	9098.1
867.5576	1208.9889	10067.7	9118.65
867.7023	1210.9106	10100.1	9153.35
867.847	1212.8316	10104.45	9157.95
867.9916	1214.7519	10188.7	9234.85
868.1363	1216.6715	10184.65	9238.85
868.2809	1218.5903	10233.5	9285.1
868.4255	1220.5084	10200.45	9252.95
868.5701	1222.4257	10248.35	9303
868.7148	1224.3424	10247.25	9306
868.8594	1226.2583	10285.55	9340.25
869.004	1228.1735	10387.55	9441.6
869.1486	1230.0879	10505.15	9560.55
869.2932	1232.0016	10616.5	9672.3
869.4377	1233.9146	10686.5	9739
869.5823	1235.8269	10627.05	9684.1
869.7269	1237.7384	10527.8	9583.85
869.8715	1239.6492	10349.45	9404.6
870.016	1241.5592	10266	9320.35
870.1606	1243.4686	10241	9296.95
870.3051	1245.3772	10243.7	9298.85
870.4496	1247.285	10273.2	9327.3
870.5941	1249.1922	10290.05	9345.7
870.7387	1251.0986	10326.5	9383.7
870.8832	1253.0042	10305.9	9363.65
871.0277	1254.9092	10400.9	9455.85
871.1722	1256.8134	10471.9	9529.2
871.3167	1258.7169	10626	9682.65
871.4611	1260.6196	10761.45	9819.2
871.6056	1262.5216	11010.8	10068
871.7501	1264.4229	11180.6	10239.35
871.8945	1266.3234	11357.35	10415.25
872.039	1268.2232	11437	10492.4
872.1834	1270.1223	11426.7	10479.45
872.3278	1272.0207	11451.1	10505.75
872.4723	1273.9183	11428.55	10477
872.6167	1275.8151	11335.4	10393.15
872.7611	1277.7113	11307.15	10366.35
872.9055	1279.6067	11203.25	10262.85
873.0499	1281.5014	11204.55	10260
873.1943	1283.3953	11263.05	10314.45
873.3386	1285.2885	11388.1	10444.5
873.483	1287.181	11523.4	10578.95
873.6274	1289.0727	11716.7	10774.55
873.7717	1290.9637	11826.1	10882.85
873.9161	1292.854	11988.9	11048.65
874.0604	1294.7435	12088.15	11144.15
874.2047	1296.6323	12205.8	11264.6
874.349	1298.5204	12320.7	11372.75
874.4933	1300.4077	12461.15	11517.6
874.6376	1302.2943	12485.65	11543.25
874.7819	1304.1802	12498.45	11556.25
874.9262	1306.0653	12275.1	11331.65
875.0705	1307.9497	12018.45	11076.45
875.2147	1309.8333	11817.2	10875.3
875.359	1311.7162	11665.7	10726.45
875.5032	1313.5984	11632.5	10686.45
875.6475	1315.4798	11651.85	10709.55
875.7917	1317.3605	11682.1	10724.05
875.9359	1319.2405	11683.05	10742.2
876.0801	1321.1197	11597.1	10650.8
876.2243	1322.9982	11463.7	10519.3
876.3685	1324.876	11338.3	10395.55
876.5127	1326.753	11191.75	10247.9
876.6569	1328.6293	11146.6	10201.7
876.801	1330.5048	11102.25	10156.75
876.9452	1332.3796	11003.4	10061.65
877.0893	1334.2537	10992.95	10025.95
877.2335	1336.127	10902.2	9958.7
877.3776	1337.9996	10882.25	9940.5
877.5217	1339.8714	10869	9927.25
877.6658	1341.7426	10905.9	9917.85
877.8099	1343.6129	10893.1	9950.7
877.954	1345.4826	10829.35	9883.35
878.0981	1347.3515	10820.25	9874.5
878.2422	1349.2196	10795.15	9850.65
878.3862	1351.087	10793.55	9847.15
878.5303	1352.9537	10850.55	9907.65
878.6743	1354.8197	10970.6	10027.55
878.8184	1356.6849	11125.95	10183.15
878.9624	1358.5493	11239.5	10297.7
879.1064	1360.4131	11305.75	10362.8
879.2504	1362.276	11313.9	10372.75
879.3944	1364.1383	11232.5	10290.7
879.5384	1365.9998	11001.55	10052.7
879.6823	1367.8606	10671.8	9726.85
879.8263	1369.7206	10365.9	9421.75
879.9702	1371.5799	10117.25	9175.7
880.1142	1373.4384	9914.2	8969.45
880.2581	1375.2962	9783.35	8841.6
880.402	1377.1533	9488.9	8545.9
880.5459	1379.0096	9170.85	8230.45
880.6898	1380.8652	8856.55	7920.3
880.8337	1382.7201	8607	7668.55
880.9776	1384.5742	8382.75	7443.3
881.1215	1386.4275	8238.7	7296.55
881.2653	1388.2802	8109.25	7168.45
881.4092	1390.132	7994.25	7051.7
881.553	1391.9832	7938.65	6992.05
881.6968	1393.8336	7858.8	6917.05
881.8406	1395.6832	7804.7	6862.8
881.9844	1397.5322	7764.45	6823.15
882.1282	1399.3803	7759.95	6813.8
882.272	1401.2278	7737	6796.95
882.4158	1403.0745	7746.45	6806.5
882.5595	1404.9204	7747.45	6807.9
882.7033	1406.7656	7745.2	6805.1
882.847	1408.6101	7779.7	6843.85
882.9908	1410.4538	7812.3	6872.25
883.1345	1412.2968	7861.8	6923.65
883.2782	1414.139	7887.75	6947.7
883.4219	1415.9805	7965.2	7025.65
883.5656	1417.8213	8066.3	7119.9
883.7092	1419.6613	8180	7243.35
883.8529	1421.5006	8333.05	7393.45
883.9965	1423.3391	8590.65	7656
884.1402	1425.1769	8886.65	7946.65
884.2838	1427.0139	9373.7	8432.75
884.4274	1428.8502	9926.3	8985.95
884.571	1430.6858	10499.25	9561.15
884.7146	1432.5206	10873.1	9935.1
884.8582	1434.3547	11093.95	10155.6
885.0018	1436.188	11137.8	10200.2
885.1453	1438.0206	11056.35	10115.3
885.2889	1439.8524	10882.4	9943.45
885.4324	1441.6835	10804.9	9863.8
885.5759	1443.5139	10715	9774.25
885.7194	1445.3435	10633.95	9697.5
885.8629	1447.1724	10606.05	9668
886.0064	1449.0005	10530.3	9596.3
886.1499	1450.8279	10436.15	9499.7
886.2933	1452.6545	10403.8	9467.95
886.4368	1454.4804	10435.05	9500.65
886.5802	1456.3056	10398.6	9458.2
886.7237	1458.13	10325.55	9390.9
886.8671	1459.9536	10124.7	9190.9
887.0105	1461.7766	9819.7	8881.85
887.1539	1463.5987	9457.4	8517.15
887.2972	1465.4202	9094.25	8155.15
887.4406	1467.2409	8734.35	7796.8
887.584	1469.0608	8455.25	7517.55
887.7273	1470.88	8176.05	7237.1
887.8706	1472.6984	7959.9	7024.9
888.0139	1474.5161	7763.5	6827.65
888.1572	1476.3331	7634.3	6697.75
888.3005	1478.1493	7526.5	6591.85
888.4438	1479.9648	7407.8	6469.85
888.5871	1481.7795	7332.1	6394.25
888.7303	1483.5935	7256.45	6321.7
888.8736	1485.4067	7201.5	6265.45
889.0168	1487.2192	7143	6206.65
889.16	1489.031	7099.25	6160.85
889.3032	1490.842	7044.7	6108.7
889.4464	1492.6522	7035.5	6101.5
889.5896	1494.4618	7003.6	6063.9
889.7327	1496.2705	6956.9	6021.05
889.8759	1498.0785	6944.15	6006.75
890.019	1499.8858	6906.15	5969.2
890.1622	1501.6924	6872.75	5936.25
890.3053	1503.4981	6828.35	5893.15
890.4484	1505.3032	6811.9	5877
890.5914	1507.1075	6776.05	5839.05
890.7345	1508.911	6760.6	5825.35
890.8776	1510.7138	6705.25	5769.6
891.0206	1512.5159	6664.4	5731.4
891.1637	1514.3172	6624.55	5690.65
891.3067	1516.1178	6584.65	5648.45
891.4497	1517.9176	6554.75	5619.45
891.5927	1519.7166	6533.95	5597.15
891.7357	1521.515	6510.55	5571.95
891.8786	1523.3126	6475.5	5540.1
892.0216	1525.1094	6473	5536.2
892.1645	1526.9055	6434.5	5503.75
892.3074	1528.7008	6422.1	5490.95
892.4503	1530.4954	6382.85	5449.95
892.5932	1532.2893	6376.05	5448.15
892.7361	1534.0824	6337.25	5403.9
892.879	1535.8747	6340.15	5412.9
893.0218	1537.6663	6322.65	5393.95
893.1647	1539.4572	6321.9	5391.7
893.3075	1541.2473	6305.8	5377.65
893.4503	1543.0367	6304.15	5376.05
893.5931	1544.8253	6312.6	5379.65
893.7359	1546.6132	6339.4	5407.2
893.8787	1548.4003	6338.95	5397
894.0214	1550.1867	6367.9	5430.2
894.1642	1551.9723	6406.1	5474.05
894.3069	1553.7572	6468.6	5543.6
894.4496	1555.5414	6487.85	5562.2
894.5923	1557.3247	6584.15	5659.35
894.735	1559.1074	6677.8	5756.1
894.8777	1560.8893	6777.25	5855.75
895.0204	1562.6705	6883.45	5960.95
895.163	1564.4509	6963.3	6041.5
895.3056	1566.2305	7008.75	6091.4
895.4482	1568.0094	7076.85	6158.15
895.5908	1569.7876	7094	6172.75
895.7334	1571.565	7110.65	6189.65
895.876	1573.3417	7106.05	6180.9
896.0186	1575.1176	7099.6	6179
896.1611	1576.8928	7067.85	6153.6
896.3036	1578.6672	6991.2	6078.95
896.4461	1580.4409	6927.1	6016.45
896.5886	1582.2138	6852.3	5935.4
896.7311	1583.986	6794.95	5879.15
896.8736	1585.7575	6767.3	5850.6
897.0161	1587.5282	6728.5	5812.55
897.1585	1589.2981	6753.3	5846.45
897.3009	1591.0673	6736.55	5826.7
897.4433	1592.8358	6769.15	5856.5
897.5857	1594.6035	6804.85	5888.7
897.7281	1596.3704	6838.3	5918
897.8705	1598.1366	6892.25	5977.35
898.0128	1599.9021	6956.75	6042.85
898.1551	1601.6668	7041.45	6126.6
898.2975	1603.4308	7144.65	6226.4
898.4398	1605.194	7283.2	6364.25
898.5821	1606.9564	7405.7	6500.5
898.7243	1608.7182	7560.15	6653.2
898.8666	1610.4791	7782.5	6880.1
899.0088	1612.2394	7949.7	7049.9
899.1511	1613.9988	8152.35	7249.65
899.2933	1615.7576	8389.8	7481.95
899.4355	1617.5156	8592.15	7672.7
899.5776	1619.2728	8771	7855.3
899.7198	1621.0293	8838.3	7924.6
899.862	1622.785	8824.45	7911.65
900.0041	1624.54	8668.6	7758.9
900.1462	1626.2942	8497.8	7589.45
900.2883	1628.0477	8220.15	7308.55
900.4304	1629.8005	7967.95	7057.05
900.5725	1631.5525	7733.95	6824.75
900.7145	1633.3037	7567.35	6661.55
900.8566	1635.0542	7413.95	6508.05
900.9986	1636.804	7303.95	6399.05
901.1406	1638.553	7280.45	6310.2
901.2826	1640.3013	7216.85	6307.25
901.4245	1642.0488	7193.95	6286.8
901.5665	1643.7955	7218.55	6313.15
901.7085	1645.5416	7276.75	6368.25
901.8504	1647.2868	7388.95	6481.7
901.9923	1649.0313	7477.15	6566.7
902.1342	1650.7751	7636.55	6724.3
902.2761	1652.5181	7811.6	6906.45
902.4179	1654.2604	7974.75	7070.45
902.5598	1656.0019	8219.3	7314.8
902.7016	1657.7427	8496.9	7589.1
902.8434	1659.4828	8790.3	7881.75
902.9852	1661.222	8973.75	8063.05
903.127	1662.9606	8970.7	8064.75
903.2687	1664.6984	8741	7829.3
903.4105	1666.4354	8342.05	7429.6
903.5522	1668.1717	7829.45	6915.75
903.6939	1669.9072	7295.05	6383.75
903.8356	1671.642	6865.1	5950.95
903.9773	1673.3761	6501.25	5593.2
904.119	1675.1094	6224.3	5316.4
904.2606	1676.8419	6001.75	5094.05
904.4022	1678.5737	5823.45	4913.5
904.5439	1680.3048	5693.4	4783.45
904.6855	1682.0351	5578.4	4666.35
904.827	1683.7646	5477.65	4564.35
904.9686	1685.4934	5393.6	4485.5
905.1101	1687.2215	5341.4	4434.45
905.2517	1688.9488	5277.25	4371.9
905.3932	1690.6754	5240.05	4334.2
905.5347	1692.4012	5192.2	4285.8
905.6761	1694.1263	5144.25	4238.55
905.8176	1695.8506	5126.15	4220
905.9591	1697.5742	5088.15	4182.4
906.1005	1699.297	5052.9	4149.55
906.2419	1701.0191	5017.3	4114.95
906.3833	1702.7404	4995.6	4093.15
906.5246	1704.461	4973.25	4064.45
906.666	1706.1808	4938.35	4031.65
906.8073	1707.8999	4904.65	4003.25
906.9487	1709.6182	4896.85	3993.55
907.09	1711.3358	4877.45	3979.15
907.2313	1713.0527	4851.85	3954.85
907.3725	1714.7688	4828.9	3925.1
907.5138	1716.4841	4803.4	3897.5
907.655	1718.1987	4802.75	3892.9
907.7962	1719.9126	4770.65	3871.45
907.9374	1721.6257	4748.6	3849.95
908.0786	1723.338	4731.15	3834.1
908.2198	1725.0496	4700.6	3798.5
908.3609	1726.7605	4702.9	3800.45
908.502	1728.4706	4686.25	3784.85
908.6431	1730.18	4669.05	3769.8
908.7842	1731.8886	4651.15	3753.3
908.9253	1733.5964	4643.7	3725.35
909.0664	1735.3036	4633.6	3729.15
909.2074	1737.0099	4627.05	3729.9
909.3484	1738.7156	4591.85	3694.9
909.4894	1740.4204	4551.2	3651.5
909.6304	1742.1246	4547.35	3647.7
909.7714	1743.8279	4533.85	3633.15
909.9123	1745.5306	4528.95	3629.1
910.0532	1747.2325	4505.05	3608.8
910.1941	1748.9336	4480.4	3580.35
910.335	1750.634	4462.55	3561.2
910.4759	1752.3336	4456.8	3556.75
910.6168	1754.0325	4442.15	3547.15
910.7576	1755.7307	4409.5	3514.95
910.8984	1757.4281	4429.65	3531.65
911.0392	1759.1247	4414.3	3502.7
911.18	1760.8206	4405.55	3496.45
911.3208	1762.5158	4413.5	3505.45
911.4615	1764.2102	4391.2	3491.3
911.6022	1765.9039	4361	3463.3
911.7429	1767.5968	4344.1	3449.4
911.8836	1769.289	4339.35	3441.3
912.0243	1770.9804	4327.75	3427.1
912.1649	1772.6711	4324.8	3420.75
912.3056	1774.361	4320.2	3417.55
912.4462	1776.0502	4301.2	3397.75
912.5868	1777.7386	4298	3393.75
912.7274	1779.4263	4292.35	3392.85
912.8679	1781.1132	4276.2	3379
913.0084	1782.7994	4269.7	3373.1
913.149	1784.4849	4267.45	3373.35
913.2895	1786.1696	4265.55	3349.35
913.4299	1787.8535	4252.2	3359.6
913.5704	1789.5367	4239.35	3345.7
913.7108	1791.2192	4229.55	3335.65
913.8513	1792.9009	4225.9	3307.05
913.9917	1794.5818	4207.7	3305.6
914.132	1796.2621	4196.75	3296.8
914.2724	1797.9415	4181.25	3281.65
914.4128	1799.6202	4163.95	3265.95
914.5531	1801.2982	4156.6	3257.7
914.6934	1802.9755	4161.05	3261.3
914.8337	1804.6519	4158.6	3258.5
914.9739	1806.3277	4129.1	3233.45
915.1142	1808.0027	4111.4	3218.2
915.2544	1809.6769	4103.5	3212.15
915.3946	1811.3504	4109.7	3217.7
915.5348	1813.0231	4106.3	3212.7
915.675	1814.6951	4091.95	3192.4
915.8151	1816.3664	4099.15	3199.9
915.9553	1818.0369	4082.25	3184.6
916.0954	1819.7067	4089.25	3192.75
916.2355	1821.3757	4077.1	3177.75
916.3755	1823.044	4057.65	3157.65
916.5156	1824.7115	4056.1	3156
916.6556	1826.3783	4049.6	3152.1
916.7956	1828.0443	4047.15	3151.4
916.9356	1829.7096	4033.9	3134.9
917.0756	1831.3741	4019.4	3118.9
917.2155	1833.0379	4018.55	3123.45
917.3555	1834.701	4005.25	3110.9
917.4954	1836.3633	3999.3	3106.3
917.6353	1838.0248	4002.55	3107.7
917.7751	1839.6856	3975.45	3079
917.915	1841.3457	3971.85	3075.8
918.0548	1843.005	3967.45	3070
918.1946	1844.6636	3957.9	3058.5
918.3344	1846.3214	3948.45	3049.9
918.4742	1847.9785	3960.8	3064.5
918.6139	1849.6349	3951.55	3052.8
918.7537	1851.2904	3945.55	3036.4
918.8934	1852.9453	3928.8	3029.8
919.0331	1854.5994	3924.95	3024.1
919.1727	1856.2528	3940.7	3037.65
919.3124	1857.9054	3905.5	3007.7
919.452	1859.5572	3914.85	3017.55
919.5916	1861.2083	3900.45	3001.85
919.7312	1862.8587	3899.35	3001.5
919.8708	1864.5084	3891.1	2991.15
920.0103	1866.1572	3891.7	2991.25
920.1498	1867.8054	3855.9	2956.8
920.2893	1869.4528	3873.95	2977.25
920.4288	1871.0994	3848.7	2949.6
920.5683	1872.7453	3843.15	2944
920.7077	1874.3905	3858.9	2944.55
920.8471	1876.0349	3830	2931.45
920.9865	1877.6786	3826.7	2927.5
921.1259	1879.3215	3834.45	2936.45
921.2653	1880.9637	3806.1	2909.45
921.4046	1882.6051	3801	2903.3
921.5439	1884.2458	3810.1	2912.4
921.6832	1885.8858	3783.85	2887.05
921.8225	1887.525	3778.35	2881.5
921.9617	1889.1634	3769	2872.35
922.101	1890.8011	3770.05	2871.9
922.2402	1892.4381	3759.6	2863.85
922.3794	1894.0743	3751.6	2854.25
922.5185	1895.7098	3738	2841
922.6577	1897.3446	3732.55	2834.95
922.7968	1898.9786	3725.15	2825.25
922.9359	1900.6118	3721.15	2827.2
923.075	1902.2443	3711.55	2816.1
923.214	1903.8761	3698.8	2802.55
923.3531	1905.5071	3680.3	2784.1
923.4921	1907.1374	3673.55	2776.1
923.6311	1908.7669	3679.1	2784.35
923.77	1910.3957	3656.35	2761.05
923.909	1912.0237	3644.5	2751.3
924.0479	1913.651	3635.2	2737.6
924.1868	1915.2776	3635.25	2741.6
924.3257	1916.9034	3626.35	2731.65
924.4646	1918.5285	3606.5	2711.5
924.6034	1920.1528	3601.35	2705.95
924.7422	1921.7764	3594.55	2700.95
924.881	1923.3992	3577.65	2681.95
925.0198	1925.0213	3573.85	2679.85
925.1586	1926.6427	3568.1	2674.45
925.2973	1928.2633	3701.05	2602.7
925.436	1929.8832	3566.55	2669.45
925.5747	1931.5023	3545.1	2648.15
925.7134	1933.1207	3532.3	2638.25
925.852	1934.7383	3530.8	2635.55
925.9906	1936.3552	3512.95	2619.6
926.1292	1937.9714	3511.1	2617.7
926.2678	1939.5868	3499.75	2603.45
926.4064	1941.2015	3487.05	2589.05
926.5449	1942.8154	3484.3	2588.5
926.6834	1944.4286	3465.55	2568.25
926.8219	1946.041	3469.8	2553.5
926.9604	1947.6528	3439.65	2539.1
927.0988	1949.2637	3435.8	2541.35
927.2372	1950.8739	3413.8	2518.95
927.3756	1952.4834	3421	2527.7
927.514	1954.0921	3400.5	2506.25
927.6523	1955.7001	3403.8	2505.35
927.7907	1957.3074	3385.15	2493.05
927.929	1958.9139	3391.65	2501.6
928.0673	1960.5197	3380	2486.5
928.2055	1962.1247	3365.75	2472.55
928.3438	1963.729	3354.6	2461.5
928.482	1965.3325	3340.5	2443.4
928.6202	1966.9353	3322.85	2432.55
928.7584	1968.5374	3319.2	2427.65
928.8965	1970.1387	3306.15	2413
929.0346	1971.7393	3298.55	2406.9
929.1727	1973.3392	3298.05	2406.05
929.3108	1974.9383	3277.05	2387.15
929.4489	1976.5366	3272.1	2382.95
929.5869	1978.1342	3267.9	2379.75
929.7249	1979.7311	3259.95	2369.45
929.8629	1981.3273	3258.3	2369.55
930.0009	1982.9227	3249.5	2359.4
930.1388	1984.5173	3236.7	2346.7
930.2767	1986.1112	3230.35	2339.95
930.4146	1987.7044	3226.8	2339.65
930.5525	1989.2968	3228.05	2340.95
930.6904	1990.8885	3209.85	2319.15
930.8282	1992.4795	3211.2	2323.75
930.966	1994.0697	3194.05	2307.15
931.1038	1995.6592	3195.95	2308.85
931.2415	1997.2479	3190.65	2301.75
931.3793	1998.8359	3166.6	2281.9
931.517	2000.4232	3158.9	2275.75
931.6547	2002.0097	3151.85	2270.1
931.7923	2003.5955	3138.3	2254.55
931.93	2005.1805	3156.95	2268.4
932.0676	2006.7648	3144.5	2261.05
932.2052	2008.3484	3135.3	2250.6
932.3427	2009.9312	3130.4	2242.6
932.4803	2011.5133	3115.05	2232.05
932.6178	2013.0946	3114.45	2230.2
932.7553	2014.6752	3101.2	2217
932.8928	2016.2551	3117.55	2229.95
933.0302	2017.8342	3087.75	2200.4
933.1676	2019.4126	3089.35	2205.25
933.305	2020.9902	3072.05	2191.1
933.4424	2022.5672	3070.65	2185.3
933.5798	2024.1433	3067.5	2181.35
933.7171	2025.7188	3046.15	2165.65
933.8544	2027.2935	3040.7	2159.4
933.9917	2028.8674	3048.65	2164.35
934.129	2030.4406	3039	2159.15
934.2662	2032.0131	3032.3	2150.6
934.4034	2033.5849	3023.3	2135
934.5406	2035.1559	3021.1	2141.7
934.6778	2036.7261	3011.1	2127
934.8149	2038.2957	3015.45	2127.65
934.952	2039.8645	3013.95	2125.9
935.0891	2041.4325	3014.45	2124.45
935.2262	2042.9998	3004.5	2120.3
935.3632	2044.5664	2993.85	2111.85
935.5002	2046.1323	2967.35	2084.5
935.6372	2047.6974	2964.55	2082.7
935.7742	2049.2617	2953.2	2072
935.9111	2050.8254	2992.35	2079.7
936.048	2052.3883	2971.85	2083.9
936.1849	2053.9504	2958.9	2070.65
936.3218	2055.5118	2944.85	2056.75
936.4586	2057.0725	2948	2060.4
936.5955	2058.6325	2934.55	2050.05
936.7323	2060.1917	2920.95	2037.9
936.869	2061.7502	2923.45	2038.5
937.0058	2063.3079	2914.25	2032.3
937.1425	2064.8649	2900.85	2013.25
937.2792	2066.4212	2912.4	2026.45
937.4159	2067.9767	2902.6	2015.45
937.5525	2069.5315	2896.95	2010.85
937.6891	2071.0856	2884.15	1999.95
937.8257	2072.6389	2874.55	1991.95
937.9623	2074.1915	2860.9	1981.2
938.0989	2075.7433	2875	1990.35
938.2354	2077.2945	2856.65	1972.95
938.3719	2078.8448	2849.65	1962.45
938.5084	2080.3945	2844.55	1957
938.6448	2081.9434	2843.75	1957.2
938.7812	2083.4916	2830.05	1941
938.9176	2085.039	2817.2	1921.9
939.054	2086.5857	2833.95	1939.15
939.1903	2088.1317	2820.25	1925.4
939.3267	2089.677	2821	1926.95
939.463	2091.2215	2815.45	1921.9
939.5992	2092.7652	2802.1	1906.9
939.7355	2094.3083	2797.15	1903.5
939.8717	2095.8506	2799.4	1909.5
940.0079	2097.3921	2784.7	1896
940.1441	2098.933	2783.05	1892.55
940.2802	2100.4731	2776.25	1885.35
940.4163	2102.0124	2781.55	1884.3
940.5524	2103.5511	2774.35	1883.2
940.6885	2105.089	2768.45	1877.2
940.8245	2106.6261	2749.95	1860.7
940.9606	2108.1626	2753.4	1863.55
941.0965	2109.6983	2767.15	1849
941.2325	2111.2332	2755.5	1865.55
941.3684	2112.7675	2736.05	1841.4
941.5044	2114.301	2745.45	1852.65
941.6403	2115.8337	2735.75	1843.45
941.7761	2117.3657	2724.5	1834.55
941.912	2118.897	2738.3	1849.45
942.0478	2120.4276	2721.4	1825.1
942.1835	2121.9575	2713.35	1821.15
942.3193	2123.4866	2721	1826.65
942.455	2125.0149	2700.7	1808.65
942.5907	2126.5426	2686.75	1801.45
942.7264	2128.0695	2678.75	1788.15
942.8621	2129.5956	2672.1	1790.65
942.9977	2131.1211	2670.7	1780.35
943.1333	2132.6458	2669.3	1779.2
943.2689	2134.1698	2684.25	1793
943.4044	2135.693	2670.45	1774.3
943.54	2137.2155	2671.2	1776
943.6755	2138.7373	2665.35	1776.9
943.8109	2140.2584	2650.3	1766.6
943.9464	2141.7787	2650.75	1761.75
944.0818	2143.2983	2638.75	1756
944.2172	2144.8171	2622.85	1739.15
944.3526	2146.3353	2628.35	1744.4
944.4879	2147.8527	2620.85	1735.6
944.6232	2149.3693	2631.45	1740.2
944.7585	2150.8853	2611.6	1719.1
944.8938	2152.4005	2611.9	1717.6
945.029	2153.9149	2604.95	1712.05
945.1642	2155.4287	2606.1	1714.35
945.2994	2156.9417	2607.7	1715.3
945.4346	2158.454	2585.95	1698.6
945.5697	2159.9655	2582.7	1695.45
945.7048	2161.4764	2581.5	1691.8
945.8399	2162.9865	2572.5	1686.1
945.9749	2164.4958	2575.7	1690.3
946.1099	2166.0045	2568.65	1678.45
946.2449	2167.5124	2566.35	1677.15
946.3799	2169.0195	2554.4	1663.95
946.5148	2170.526	2555.95	1661.25
946.6498	2172.0317	2559.1	1669.55
946.7846	2173.5367	2545.15	1655.2
946.9195	2175.0409	2548.15	1658.5
947.0543	2176.5445	2555.5	1665.45
947.1891	2178.0473	2543.95	1652.85
947.3239	2179.5494	2533.85	1639.15
947.4587	2181.0507	2531.45	1639.75
947.5934	2182.5513	2529.35	1640.25
947.7281	2184.0512	2523.1	1631.7
947.8628	2185.5504	2502.75	1612.25
947.9974	2187.0488	2500.2	1615
948.132	2188.5465	2496.45	1611.2
948.2666	2190.0435	2493.2	1602.1
948.4012	2191.5397	2493.8	1605.25
948.5357	2193.0353	2479.4	1587.55
948.6702	2194.5301	2483.05	1587.25
948.8047	2196.0241	2477	1579.2
948.9392	2197.5175	2484.7	1590.2
949.0736	2199.0101	2469.85	1572.5
949.208	2200.502	2455.85	1565.35
949.3424	2201.9931	2458.7	1571.3
949.4767	2203.4835	2445.1	1557.3
949.611	2204.9733	2448.3	1555.3
949.7453	2206.4622	2434.25	1549.6
949.8796	2207.9505	2435.9	1545.15
950.0138	2209.438	2413.95	1531.3
950.148	2210.9248	2408.35	1521
950.2822	2212.4109	2423.95	1536.05
950.4164	2213.8962	2416.85	1523.6
950.5505	2215.3809	2414.95	1518.5
950.6846	2216.8648	2413.2	1519.05
950.8186	2218.3479	2411.4	1510.75
950.9527	2219.8304	2407.8	1507.75
951.0867	2221.3121	2398.2	1501.15
951.2207	2222.7931	2391	1495.25
951.3546	2224.2733	2379.85	1486.6
951.4886	2225.7529	2374.45	1482.35
951.6225	2227.2317	2371.9	1480.8
951.7563	2228.7098	2367.9	1481.7
951.8902	2230.1872	2353	1465
952.024	2231.6638	2349.1	1462.3
952.1578	2233.1397	2352.3	1461.7
952.2916	2234.6149	2338.6	1450.4
952.4253	2236.0894	2346.6	1458.8
952.559	2237.5632	2349.15	1449.45
952.6927	2239.0362	2326	1437.2
952.8263	2240.5085	2319.2	1429.25
952.9599	2241.9801	2316.45	1424.25
953.0935	2243.4509	2325.6	1433.25
953.2271	2244.921	2313.65	1419.35
953.3606	2246.3904	2317.2	1421.75
953.4941	2247.8591	2297	1404.95
953.6276	2249.3271	2306.85	1412.95
953.7611	2250.7943	2294.2	1399.45
953.8945	2252.2608	2284	1392.7
954.0279	2253.7266	2287.8	1396.4
954.1612	2255.1917	2279.35	1389.05
954.2946	2256.656	2270.6	1378.75
954.4279	2258.1197	2254.2	1366.3
954.5612	2259.5826	2266.1	1376.85
954.6944	2261.0447	2263.4	1370.2
954.8276	2262.5062	2245.35	1351.85
954.9608	2263.9669	2259.25	1362.9
955.094	2265.4269	2252.2	1359.9
955.2271	2266.8862	2255.35	1365.6
955.3602	2268.3448	2241.8	1353.65
955.4933	2269.8026	2241.1	1354.75
955.6264	2271.2598	2231.35	1341.05
955.7594	2272.7162	2232.2	1343.85
955.8924	2274.1719	2230.95	1339.35
956.0253	2275.6268	2234.1	1339.6
956.1583	2277.0811	2231.2	1337.9
956.2912	2278.5346	2221.45	1331.9
956.4241	2279.9874	2212.55	1325.55
956.5569	2281.4395	2214.45	1327
956.6897	2282.8908	2206.85	1312.3
956.8225	2284.3414	2209.35	1316.5
956.9553	2285.7914	2202.35	1310.8
957.088	2287.2406	2204.35	1312
957.2207	2288.689	2208.65	1317.7
957.3534	2290.1368	2200.45	1303.05
957.486	2291.5838	2203.15	1306.05
957.6186	2293.0302	2193.3	1293.55
957.7512	2294.4758	2194.75	1297.2
957.8838	2295.9206	2169.6	1272.25
958.0163	2297.3648	2173.95	1282.6
958.1488	2298.8082	2182.3	1291.7
958.2813	2300.251	2179.15	1286.7
958.4137	2301.693	2169.15	1272.7
958.5461	2303.1343	2169.7	1274.2
958.6785	2304.5748	2154.65	1262.45
958.8108	2306.0147	2158.15	1268.35
958.9432	2307.4538	2155.1	1264.75
959.0754	2308.8922	2148.15	1263.75
959.2077	2310.3299	2141.1	1252.8
959.3399	2311.7669	2133.85	1244.3
959.4721	2313.2031	2136.45	1246.55
959.6043	2314.6387	2132.6	1240.65
959.7365	2316.0735	2130.35	1237.8
959.8686	2317.5076	2128.1	1235.2
960.0006	2318.941	2118.55	1224.9
960.1327	2320.3737	2122.75	1226.25
960.2647	2321.8056	2129.35	1233.45
960.3967	2323.2369	2108.15	1212.35
960.5287	2324.6674	2103.6	1211.15
960.6606	2326.0972	2103.2	1210.4
960.7925	2327.5263	2107.75	1215.25
960.9244	2328.9547	2101.8	1207.75
961.0562	2330.3823	2085	1189.6
961.1881	2331.8092	2095	1196.7
961.3198	2333.2355	2084.4	1189
961.4516	2334.661	2086.3	1190.75
961.5833	2336.0858	2081.45	1185.5
961.715	2337.5098	2080.35	1188.65
961.8467	2338.9332	2081	1189.1
961.9783	2340.3558	2065.25	1171.75
962.1099	2341.7778	2068.3	1178.75
962.2415	2343.199	2060.05	1167.55
962.373	2344.6195	2055.5	1165.1
962.5045	2346.0393	2056.3	1167.45
962.636	2347.4583	2058.9	1165.15
962.7675	2348.8767	2049.3	1154.45
962.8989	2350.2943	2054.85	1160.55
963.0303	2351.7113	2062.2	1165.05
963.1617	2353.1275	2043.7	1147.9
963.293	2354.543	2052.55	1147.85
963.4243	2355.9578	2050.35	1157.1
963.5556	2357.3718	2027.45	1136.45
963.6868	2358.7852	2030.65	1139.4
963.818	2360.1978	2028.65	1138.3
963.9492	2361.6098	2025.8	1136.55
964.0803	2363.021	2021.05	1127.65
964.2114	2364.4315	2022.85	1133
964.3425	2365.8413	2014.7	1122.9
964.4736	2367.2504	2007.6	1120.5
964.6046	2368.6587	2006.4	1119.65
964.7356	2370.0664	2000.95	1112.3
964.8666	2371.4733	2001.55	1113.95
964.9975	2372.8795	1994.85	1104.6
965.1284	2374.285	1989.75	1098.9
965.2593	2375.6899	1987.95	1098.8
965.3901	2377.0939	1977.05	1087.9
965.5209	2378.4973	1976.05	1087.35
965.6517	2379.9	1975.45	1085.95
965.7825	2381.3019	1972.1	1084.45
965.9132	2382.7032	1963.1	1074.65
966.0439	2384.1037	1963.8	1080.4
966.1745	2385.5035	1959.95	1076.95
966.3051	2386.9027	1956.4	1069.55
966.4357	2388.3011	1950.8	1060.8
966.5663	2389.6987	1946.9	1059.6
966.6968	2391.0957	1941.85	1052.7
966.8273	2392.492	1932.55	1045.2
966.9578	2393.8876	1931.3	1044.1
967.0882	2395.2824	1928.5	1041.95
967.2186	2396.6765	1922	1034.05
967.349	2398.07	1917.4	1029.35
967.4793	2399.4627	1930.5	1040.6
967.6097	2400.8547	1916.55	1028.85
967.7399	2402.246	1913.75	1018.75
967.8702	2403.6366	1917.4	1029
968.0004	2405.0265	1914.8	1026.05
968.1306	2406.4156	1909.3	1020.2
968.2607	2407.8041	1897.4	1005.75
968.3909	2409.1918	1897.3	1007.35
968.521	2410.5789	1890.05	1002.75
968.651	2411.9652	1890.4	997.85
968.781	2413.3508	1889.75	1002.65
968.911	2414.7358	1887.1	997.25
969.041	2416.12	1883.45	996.35
969.1709	2417.5035	1875.3	990.05
969.3008	2418.8863	1884.75	996.95
969.4307	2420.2684	1874.25	986.9
969.5606	2421.6497	1870.8	978.65
969.6904	2423.0304	1861.7	974.95
969.8201	2424.4104	1863.15	975.4
969.9499	2425.7896	1856.75	966.65
970.0796	2427.1682	1854.6	968.45
970.2093	2428.546	1863.8	975.55
970.3389	2429.9232	1862.1	971.25
970.4685	2431.2996	1847.25	958.05
970.5981	2432.6753	1855.7	967.6
970.7277	2434.0503	1849.75	959.75
970.8572	2435.4246	1842.7	954.25
970.9867	2436.7982	1837.75	946.85
971.1161	2438.1711	1836.8	949.75
971.2456	2439.5433	1834.1	942.5
971.375	2440.9148	1832.25	937.3
971.5043	2442.2856	1827.05	940
971.6336	2443.6557	1823.05	932
971.7629	2445.025	1818.8	930.1
971.8922	2446.3937	1834.85	945.2
972.0214	2447.7617	1812.4	922.4
972.1506	2449.1289	1807.5	918.8
972.2798	2450.4955	1809.45	917.35
972.4089	2451.8613	1802.6	915
972.538	2453.2265	1808.2	918.85
972.6671	2454.5909	1800.5	910.25
972.7961	2455.9546	1799.95	910.6
972.9251	2457.3177	1800.05	911.6
973.0541	2458.68	1803.1	911.8
973.1831	2460.0416	1795.45	906.5
973.312	2461.4025	1788.55	898.6
973.4408	2462.7627	1798.05	900.35
973.5697	2464.1222	1792.85	907.6
973.6985	2465.4811	1786.35	899.05
973.8273	2466.8392	1786.5	897.05
973.956	2468.1966	1792.1	899.15
974.0847	2469.5533	1785.85	896.1
974.2134	2470.9093	1780.35	891.25
974.3421	2472.2645	1773.85	881.6
974.4707	2473.6191	1771.75	884.9
974.5993	2474.973	1778	889.5
974.7278	2476.3262	1773.1	883
974.8563	2477.6787	1763.7	875.85
974.9848	2479.0305	1761.15	873
975.1132	2480.3816	1763.05	873.95
975.2417	2481.7319	1760.5	870.3
975.37	2483.0816	1753.5	860.5
975.4984	2484.4306	1751.95	863.65
975.6267	2485.7789	1744.1	857.3
975.755	2487.1264	1741.35	853.6
975.8833	2488.4733	1742.3	854.4
976.0115	2489.8195	1753.95	848.65
976.1397	2491.165	1741.9	848.3
976.2678	2492.5097	1742.15	851.75
976.3959	2493.8538	1733.85	847.05
976.524	2495.1972	1733.55	843.65
976.6521	2496.5398	1721.35	832.2
976.7801	2497.8818	1720.2	828.95
976.9081	2499.2231	1729.7	839.1
977.036	2500.5637	1721.3	829.75
977.164	2501.9035	1719.5	829.95
977.2918	2503.2427	1715.35	821.3
977.4197	2504.5812	1709.15	820.35
977.5475	2505.919	1713.8	825.55
977.6753	2507.256	1708.4	820.5
977.8031	2508.5924	1706	815.9
977.9308	2509.9281	1702.9	805.6
978.0585	2511.2631	1701.65	812.05
978.1861	2512.5974	1698.35	809.3
978.3137	2513.9309	1698.5	810.9
978.4413	2515.2638	1724.5	808.7
978.5689	2516.596	1697.55	810.5
978.6964	2517.9275	1690.1	802.45
978.8239	2519.2583	1688.45	798.35
978.9513	2520.5884	1688.5	799.1
979.0788	2521.9178	1683.25	792.65
979.2062	2523.2465	1669.7	779.45
979.3335	2524.5745	1674.05	784.15
979.4608	2525.9018	1671.05	781
979.5881	2527.2284	1673.5	786.25
979.7154	2528.5543	1670.85	779.7
979.8426	2529.8796	1668.05	779.8
979.9698	2531.2041	1661.7	773.85
980.0969	2532.5279	1671.4	781.75
980.224	2533.851	1668.75	780.5
980.3511	2535.1735	1661.4	770.6
980.4781	2536.4952	1665.45	773.85
980.6052	2537.8163	1661	770.5
980.7321	2539.1366	1666.65	777.1
980.8591	2540.4562	1650.05	758.9
980.986	2541.7752	1656.85	766.25
981.1129	2543.0935	1653.15	762.7
981.2397	2544.411	1653.95	762.6
981.3665	2545.7279	1654.2	764
981.4933	2547.0441	1648.1	756.4
981.62	2548.3596	1655.95	762.15
981.7467	2549.6744	1654.5	763.15
981.8734	2550.9885	1647.5	753.85
982.0001	2552.3019	1645.45	754.25
982.1267	2553.6146	1638.05	747.75
982.2532	2554.9266	1639.55	750.3
982.3798	2556.2379	1637.65	748.1
982.5063	2557.5485	1636.95	749.8
982.6327	2558.8585	1638.05	740.5
982.7592	2560.1677	1630.8	738.35
982.8856	2561.4762	1636.35	744.8
983.0119	2562.7841	1628.65	735.35
983.1383	2564.0913	1617.65	729.3
983.2646	2565.3977	1629.3	739.25
983.3908	2566.7035	1624.6	734.15
983.517	2568.0086	1617.9	726.5
983.6432	2569.313	1620.6	729.2
983.7694	2570.6167	1624.9	731.55
983.8955	2571.9197	1615.4	724.35
984.0216	2573.222	1620.8	727.3
984.1476	2574.5236	1611.15	721.35
984.2737	2575.8246	1619	725.75
984.3996	2577.1248	1615.65	724.7
984.5256	2578.4244	1607.4	716.6
984.6515	2579.7232	1609.05	721.5
984.7774	2581.0214	1639.45	723.1
984.9032	2582.3189	1610.5	721.15
985.029	2583.6157	1614.25	719.7
985.1548	2584.9118	1618.1	728
985.2806	2586.2072	1602.1	710.6
985.4063	2587.5019	1611.3	722.6
985.5319	2588.7959	1605.55	713.25
985.6576	2590.0893	1619.9	728.85
985.7832	2591.3819	1615.95	726.45
985.9087	2592.6739	1604.4	714.5
986.0343	2593.9652	1604.3	712.8
986.1597	2595.2557	1607.8	715.7
986.2852	2596.5456	1608.1	715.65
986.4106	2597.8348	1609.1	719.85
986.536	2599.1234	1608.4	717.65
986.6614	2600.4112	1612.7	721.7
986.7867	2601.6983	1612.9	720.65
986.912	2602.9848	1604.05	714.3
987.0372	2604.2705	1608.4	711.65
987.1624	2605.5556	1602.9	712.35
987.2876	2606.84	1600.5	712
987.4128	2608.1237	1595.7	703.75
987.5379	2609.4067	1599	709.45
987.6629	2610.689	1600.05	704.15
987.788	2611.9707	1591.05	698.15
987.913	2613.2516	1595.05	700.4
988.0379	2614.5319	1580.85	690.6
988.1629	2615.8115	1585.6	696.9
988.2878	2617.0903	1578.25	688.3
988.4126	2618.3685	1575.3	684.65
988.5375	2619.6461	1573.9	684.95
988.6622	2620.9229	1573.55	685
988.787	2622.199	1573.1	681.7
988.9117	2623.4745	1573.95	685.45
989.0364	2624.7493	1568.95	679.75
989.161	2626.0234	1573.45	685.2
989.2857	2627.2968	1574.2	686.2
989.4102	2628.5695	1579.55	689.85
989.5348	2629.8415	1568.1	680.5
989.6593	2631.1128	1563	671.25
989.7837	2632.3835	1562.8	674.85
989.9082	2633.6535	1565.7	677.65
990.0326	2634.9228	1559.15	671.55
990.1569	2636.1914	1552.8	665.1
990.2812	2637.4593	1567.2	678.5
990.4055	2638.7265	1564.55	672.6
990.5298	2639.9931	1557.4	668.15
990.654	2641.259	1554.15	663.1
990.7782	2642.5242	1551.85	663.3
990.9023	2643.7887	1545.55	656.15
991.0264	2645.0525	1550.55	664.15
991.1505	2646.3156	1548.95	659.6
991.2745	2647.5781	1544.45	653.6
991.3985	2648.8398	1541.55	653.95
991.5225	2650.1009	1552.9	654.1
991.6464	2651.3613	1539.15	651.5
991.7703	2652.6211	1537.05	650.1
991.8942	2653.8801	1529	641.1
992.018	2655.1385	1535.7	646.4
992.1418	2656.3961	1539.1	649.35
992.2655	2657.6531	1535.1	647.8
992.3892	2658.9094	1536.7	649.55
992.5129	2660.1651	1533.65	646.85
992.6366	2661.42	1534.85	648.65
992.7602	2662.6743	1535.95	647.5
992.8837	2663.9279	1537.75	650.45
993.0073	2665.1808	1540.2	650.95
993.1307	2666.433	1538.9	648.45
993.2542	2667.6846	1538	651.75
993.3776	2668.9354	1546.1	654.9
993.501	2670.1856	1539.8	649.3
993.6244	2671.4351	1542.6	653.9
993.7477	2672.6839	1546.85	657.65
993.8709	2673.9321	1541.9	654.55
993.9942	2675.1795	1545.4	656.85
994.1174	2676.4263	1551.8	663.9
994.2405	2677.6724	1549	660.1
994.3637	2678.9179	1554.05	665.35
994.4868	2680.1626	1546	658.45
994.6098	2681.4067	1541.65	652.2
994.7328	2682.6501	1550.9	663.95
994.8558	2683.8928	1549.25	659.25
994.9788	2685.1348	1541.6	653.85
995.1017	2686.3761	1545.7	658.65
995.2245	2687.6168	1536.45	649.7
995.3474	2688.8568	1529.5	639.95
995.4702	2690.0961	1525.8	640.4
995.5929	2691.3348	1521.7	633.1
995.7156	2692.5727	1526.35	638.25
995.8383	2693.81	1517.3	629.9
995.961	2695.0466	1518.6	630.05
996.0836	2696.2826	1516.95	629.1
996.2062	2697.5178	1512.75	618.6
996.3287	2698.7524	1514.9	627.35
996.4512	2699.9863	1524.9	634.4
996.5737	2701.2195	1521.45	635.3
996.6961	2702.452	1516.05	629.75
996.8185	2703.6839	1527.05	637.35
996.9408	2704.9151	1529.3	641.35
997.0631	2706.1456	1532.3	645.25
997.1854	2707.3755	1532.15	641.6
997.3077	2708.6046	1548.6	659.7
997.4299	2709.8331	1549.45	660.15
997.552	2711.0609	1560.6	673
997.6742	2712.2881	1563.4	673.85
997.7963	2713.5145	1570.7	680
997.9183	2714.7403	1588.8	702
998.0403	2715.9654	1592.35	703.2
998.1623	2717.1899	1612	712.45
998.2842	2718.4136	1608.15	722.45
998.4062	2719.6367	1616.9	727.45
998.528	2720.8591	1636.55	743.05
998.6498	2722.0809	1636.5	747.35
998.7716	2723.3019	1649.95	760.2
998.8934	2724.5223	1660.7	771.8
999.0151	2725.7421	1664.45	776.15
999.1368	2726.9611	1665.75	776.8
999.2584	2728.1795	1665.85	772.15
999.38	2729.3972	1649.75	763.1
999.5016	2730.6142	1655.8	756.15
999.6231	2731.8306	1634.8	748.05
999.7446	2733.0462	1616.45	729.6
999.8661	2734.2612	1597.3	706.45
999.9875	2735.4756	1591	700.8
1000.1089	2736.6892	1568.2	682.5
1000.2302	2737.9022	1554.1	666.95
1000.3515	2739.1145	1536.15	648.6
1000.4728	2740.3262	1537.4	641.9
1000.594	2741.5372	1509.45	624.5
1000.7152	2742.7475	1506.7	618.35
1000.8363	2743.9571	1495.6	604.8
1000.9575	2745.1661	1490.55	599.85
1001.0785	2746.3744	1476.9	589.75
1001.1996	2747.582	1463.5	576.25
1001.3206	2748.7889	1459.15	571
1001.4415	2749.9952	1454.6	566.9
1001.5625	2751.2008	1453.15	566.15
1001.6833	2752.4057	1442.85	554.5
1001.8042	2753.61	1441.9	555.1
1001.925	2754.8136	1442.1	551.5
1002.0458	2756.0165	1442.4	556.65
1002.1665	2757.2188	1432.55	546.15
1002.2872	2758.4204	1441.25	555.1
1002.4078	2759.6213	1439.8	550.2
1002.5285	2760.8215	1443.2	553.55
1002.649	2762.0211	1440.85	552.65
1002.7696	2763.22	1435.6	544.6
1002.8901	2764.4182	1430.8	542.3
1003.0106	2765.6158	1434.85	547.65
1003.131	2766.8127	1427.4	541.35
1003.2514	2768.009	1413.05	526.1
1003.3717	2769.2045	1411.1	522.4
1003.492	2770.3994	1417.7	529.2
1003.6123	2771.5936	1412.45	524.6
1003.7325	2772.7872	1410.6	524.45
1003.8527	2773.9801	1411.45	521.9
1003.9729	2775.1723	1419.55	514.5
1004.093	2776.3639	1414.7	530.5
1004.2131	2777.5548	1409.5	522.35
1004.3331	2778.745	1412.05	526.65
1004.4531	2779.9346	1405.7	522.25
1004.5731	2781.1235	1409.3	522.35
1004.693	2782.3117	1400.9	515.4
1004.8129	2783.4992	1413.5	524.2
1004.9328	2784.6861	1416.4	532.1
1005.0526	2785.8723	1419.9	533.2
1005.1723	2787.0579	1429.45	543.65
1005.2921	2788.2428	1428.35	543.95
1005.4118	2789.427	1432.1	545.6
1005.5314	2790.6106	1446.6	561.7
1005.651	2791.7935	1456.5	571.05
1005.7706	2792.9757	1464.3	577.2
1005.8902	2794.1573	1477.5	590.5
1006.0097	2795.3382	1488.05	601.4
1006.1291	2796.5184	1497.85	612.75
1006.2485	2797.698	1509.8	623.6
1006.3679	2798.8769	1522.05	635.6
1006.4873	2800.0551	1543.2	658.25
1006.6066	2801.2327	1550.7	661.5
1006.7258	2802.4096	1571.3	685.3
1006.8451	2803.5859	1591.55	705.45
1006.9642	2804.7615	1612.2	724.1
1007.0834	2805.9364	1625.4	740.9
1007.2025	2807.1106	1650.95	764.2
1007.3216	2808.2842	1676.2	792
1007.4406	2809.4572	1706.55	820.9
1007.5596	2810.6294	1746.45	861.05
1007.6785	2811.801	1778.9	896.05
1007.7975	2812.972	1815.25	931.9
1007.9163	2814.1423	1854.75	970.65
1008.0352	2815.3119	1908.7	1023.1
1008.154	2816.4808	1949.2	1065.25
1008.2727	2817.6491	1996.55	1109.05
1008.3914	2818.8167	2045.35	1158.8
1008.5101	2819.9837	2096.15	1206.35
1008.6288	2821.15	2143.1	1258.9
1008.7474	2822.3157	2184.2	1300.05
1008.8659	2823.4807	2237.05	1351.8
1008.9844	2824.645	2293.55	1407.5
1009.1029	2825.8086	2331.35	1447.7
1009.2214	2826.9716	2383.95	1500
1009.3398	2828.134	2425.35	1540.2
1009.4581	2829.2957	2466.1	1582.5
1009.5764	2830.4567	2498.7	1615.25
1009.6947	2831.617	2533.15	1645.25
1009.813	2832.7767	2524.6	1638.75
1009.9312	2833.9358	2533.25	1650.15
1010.0493	2835.0941	2525.65	1638.75
1010.1675	2836.2519	2515.75	1632.6
1010.2855	2837.4089	2498.1	1611.7
1010.4036	2838.5653	2491.75	1607.65
1010.5216	2839.7211	2492.55	1610.8
1010.6396	2840.8761	2499.15	1612.2
1010.7575	2842.0306	2512.5	1627
1010.8754	2843.1843	2540.85	1655.2
1010.9932	2844.3374	2590.2	1707.05
1011.111	2845.4899	2642.85	1755.3
1011.2288	2846.6417	2695	1809.8
1011.3465	2847.7928	2760.9	1876.1
1011.4642	2848.9433	2838.7	1955.65
1011.5818	2850.0931	2910.55	2026.85
1011.6995	2851.2422	2981.75	2094.45
1011.817	2852.3907	3053.45	2166.9
1011.9345	2853.5385	3113.65	2226.2
1012.052	2854.6857	3169.5	2272.7
1012.1695	2855.8323	3214.15	2332.5
1012.2869	2856.9781	3273.6	2391.5
1012.4042	2858.1233	3307.45	2423.7
1012.5216	2859.2679	3338.55	2455.65
1012.6389	2860.4118	3418.35	2531.1
1012.7561	2861.555	3452.5	2564.4
1012.8733	2862.6976	3484.65	2597.45
1012.9905	2863.8395	3510.05	2626
1013.1076	2864.9808	3542.95	2659.35
1013.2247	2866.1214	3554.05	2670.05
1013.3417	2867.2614	3562.2	2678.25
1013.4587	2868.4007	3589.9	2704.3
1013.5757	2869.5393	3590.5	2704.15
1013.6926	2870.6773	3613.5	2727.2
1013.8095	2871.8146	3631.35	2741.4
1013.9263	2872.9513	3613.8	2727.95
1014.0431	2874.0874	3615.45	2728.9
1014.1599	2875.2227	3599.25	2715.45
1014.2766	2876.3574	3597.25	2713.05
1014.3933	2877.4915	3572.5	2688.6
1014.51	2878.6249	3544.85	2661.7
1014.6266	2879.7577	3532.75	2647.2
1014.7431	2880.8898	3509.35	2612.45
1014.8596	2882.0212	3482.7	2600.15
1014.9761	2883.152	3462.1	2575.45
1015.0925	2884.2821	3465.6	2583.9
1015.2089	2885.4116	3460.3	2575.25
1015.3253	2886.5405	3453.8	2569.6
1015.4416	2887.6686	3477.05	2591.2
1015.5579	2888.7962	3459.3	2577.55
1015.6741	2889.923	3462.25	2580.45
1015.7903	2891.0493	3490.6	2607.65
1015.9065	2892.1748	3492.25	2609.6
1016.0226	2893.2997	3513.95	2630.7
1016.1387	2894.424	3520.05	2638.05
1016.2547	2895.5476	3541.5	2658.2
1016.3707	2896.6706	3550.55	2667.1
1016.4866	2897.7929	3575.25	2690.5
1016.6025	2898.9145	3608.1	2725.6
1016.7184	2900.0355	3648	2761.5
1016.8342	2901.1559	3682.45	2797.05
1016.95	2902.2756	3704.7	2823.35
1017.0658	2903.3946	3736.2	2852.95
1017.1815	2904.513	3768.35	2881.9
1017.2971	2905.6308	3792.55	2910.3
1017.4127	2906.7479	3821.5	2937.45
1017.5283	2907.8643	3854.55	2970.55
1017.6439	2908.9801	3851.35	2966.4
1017.7594	2910.0953	3865.25	2981.35
1017.8748	2911.2098	3858.8	2973
1017.9902	2912.3236	3857	2964.9
1018.1056	2913.4368	3859.5	2974.55
1018.2209	2914.5494	3832.7	2948.1
1018.3362	2915.6613	3800.6	2913.4
1018.4515	2916.7725	3779.45	2894.2
1018.5667	2917.8831	3739.2	2855.2
1018.6819	2918.9931	3711.4	2825.75
1018.797	2920.1024	3665.25	2780.4
1018.9121	2921.211	3652.3	2770.05
1019.0271	2922.319	3635	2751.65
1019.1421	2923.4264	3633.6	2750.5
1019.2571	2924.5331	3619.15	2738.5
1019.372	2925.6391	3601.9	2718.9
1019.4869	2926.7445	3613.95	2732.8
1019.6017	2927.8493	3608.85	2726.95
1019.7165	2928.9534	3602.6	2716.1
1019.8313	2930.0569	3594.45	2709.55
1019.946	2931.1597	3581.6	2695.4
1020.0606	2932.2619	3574.6	2692.2
1020.1753	2933.3634	3580.15	2696.85
1020.2899	2934.4643	3572.4	2682.45
1020.4044	2935.5645	3553.7	2662.9
1020.5189	2936.6641	3535.6	2648.8
1020.6334	2937.763	3484.4	2601.8
1020.7478	2938.8613	3454.65	2571.85
1020.8622	2939.959	3395.35	2506.9
1020.9765	2941.056	3333.55	2452.6
1021.0908	2942.1523	3253	2367.6
1021.2051	2943.248	3168.35	2283.85
1021.3193	2944.3431	3080.55	2198.65
1021.4334	2945.4375	2987.1	2102.45
1021.5476	2946.5313	2877.95	1998.4
1021.6617	2947.6244	2775.95	1891.85
1021.7757	2948.7169	2683.7	1800.15
1021.8897	2949.8087	2581.9	1699.05
1022.0037	2950.8999	2506.1	1624.75
1022.1176	2951.9904	2419.05	1539.75
1022.2315	2953.0803	2352.85	1467.25
1022.3453	2954.1696	2292.8	1411.95
1022.4591	2955.2582	2231.75	1350.2
1022.5728	2956.3462	2191.05	1308.45
1022.6865	2957.4335	2145.95	1264.9
1022.8002	2958.5202	2118.65	1231.1
1022.9138	2959.6062	2098.1	1217.65
1023.0274	2960.6916	2056.05	1175.15
1023.141	2961.7764	2051.35	1168.65
1023.2545	2962.8605	2028.7	1146.7
1023.3679	2963.9439	2023.2	1141
1023.4813	2965.0267	2015.15	1130.7
1023.5947	2966.1089	2025.55	1120.75
1023.708	2967.1905	1999.55	1117.15
1023.8213	2968.2714	1998.45	1116.9
1023.9346	2969.3516	1993.7	1112.8
1024.0478	2970.4312	1995.65	1107.55
1024.1609	2971.5102	1998.3	1115.85
1024.274	2972.5885	2003.4	1121.65
1024.3871	2973.6662	1998.55	1112.5
1024.5002	2974.7432	1999.5	1119.5
1024.6132	2975.8196	1984.9	1103.75
1024.7261	2976.8954	1976.4	1097.1
1024.839	2977.9705	1973.9	1093
1024.9519	2979.045	1951.85	1071.3
1025.0647	2980.1188	1948.65	1065.65
1025.1775	2981.192	1927.15	1046.4
1025.2902	2982.2645	1908.5	1025.5
1025.4029	2983.3364	1882.6	1000.3
1025.5156	2984.4077	1855.35	973.6
1025.6282	2985.4783	1830.7	941.7
1025.7407	2986.5483	1797.25	915.3
1025.8532	2987.6177	1767.05	886.1
1025.9657	2988.6864	1728.5	845
1026.0782	2989.7545	1696.7	813.05
1026.1906	2990.8219	1665.1	781.85
1026.3029	2991.8887	1637.25	752.9
1026.4152	2992.9548	1599.2	715.35
1026.5275	2994.0204	1567.1	686.15
1026.6397	2995.0852	1545.8	665.9
1026.7519	2996.1495	1525.5	641.35
1026.864	2997.2131	1496	613.95
1026.9761	2998.276	1472.55	592.3
1027.0882	2999.3383	1454.2	571.95
1027.2002	3000.4	1432.85	551.5
1027.3122	3001.4611	1421.95	541.95
1027.4241	3002.5215	1414.1	530.75
1027.536	3003.5812	1390.35	508.35
1027.6478	3004.6404	1378.1	496.15
1027.7596	3005.6989	1378.05	495.7
1027.8714	3006.7567	1359.85	478.5
1027.9831	3007.8139	1375.8	464.35
1028.0947	3008.8705	1340.7	458.75
1028.2064	3009.9264	1344.55	459.65
1028.3179	3010.9818	1325.45	444.15
1028.4295	3012.0364	1329.25	447.3
1028.541	3013.0905	1322.55	440.95
1028.6524	3014.1439	1316.6	434.95
1028.7638	3015.1966	1307.5	425.75
1028.8752	3016.2487	1312.4	431.5
1028.9865	3017.3002	1315.9	426.5
1029.0978	3018.3511	1306.85	427.35
1029.209	3019.4013	1307.4	424.7
1029.3202	3020.4509	1303.55	423.1
1029.4314	3021.4998	1302.7	419.95
1029.5425	3022.5481	1303.8	425.15
1029.6535	3023.5958	1306.9	425.25
1029.7645	3024.6428	1307.45	425.2
1029.8755	3025.6892	1303.3	423.2
1029.9864	3026.735	1308.25	425.9
1030.0973	3027.7802	1305.1	423.7
1030.2082	3028.8247	1313.85	433.2
1030.319	3029.8685	1311.4	430.45
1030.4297	3030.9118	1305.9	424.8
1030.5404	3031.9544	1317.05	435.15
1030.6511	3032.9963	1315.7	435.2
1030.7617	3034.0376	1325.1	443.15
1030.8723	3035.0783	1327.95	447.45
1030.9829	3036.1184	1322.55	443.2
1031.0934	3037.1578	1331.25	452
1031.2038	3038.1966	1336.1	453.15
1031.3142	3039.2348	1334.4	453.5
1031.4246	3040.2723	1337.55	444.65
1031.5349	3041.3092	1328.15	449.65
1031.6452	3042.3455	1331.65	451.85
1031.7554	3043.3811	1332.2	452.45
1031.8656	3044.4161	1327.7	445.7
1031.9758	3045.4505	1316.9	438.2
1032.0859	3046.4842	1323.7	439
1032.1959	3047.5173	1318.2	440.25
1032.3059	3048.5498	1307.15	428.6
1032.4159	3049.5816	1301.3	420.5
1032.5258	3050.6128	1295.8	413.25
1032.6357	3051.6434	1295.3	414
1032.7455	3052.6734	1292.55	411.65
1032.8553	3053.7027	1278.85	396.85
1032.9651	3054.7314	1274.25	392.55
1033.0748	3055.7594	1274.35	394.6
1033.1845	3056.7868	1274.5	391.75
1033.2941	3057.8136	1270.35	390.2
1033.4037	3058.8398	1261.65	382
1033.5132	3059.8653	1258.8	378.5
1033.6227	3060.8902	1251.35	371.5
1033.7321	3061.9145	1251.65	369.6
1033.8415	3062.9381	1243.65	363.3
1033.9509	3063.9612	1259.25	363.95
1034.0602	3064.9835	1241.05	360.75
1034.1694	3066.0053	1234.8	349.65
1034.2787	3067.0264	1227.7	347.7
1034.3878	3068.0469	1223.2	341.2
1034.497	3069.0668	1219.75	338.55
1034.6061	3070.086	1208.25	327.9
1034.7151	3071.1046	1201.8	320
1034.8241	3072.1226	1198.35	316.25
1034.9331	3073.1399	1181.25	301.85
1035.042	3074.1567	1175.05	292.55
1035.1508	3075.1727	1173.95	292.75
1035.2597	3076.1882	1161.3	282.5
1035.3684	3077.203	1155.7	276.8
1035.4772	3078.2173	1149.8	269
1035.5859	3079.2308	1140.7	257
1035.6945	3080.2438	1134.75	251.4
1035.8031	3081.2561	1128.75	249.4
1035.9117	3082.2678	1122.45	242.5
1036.0202	3083.2789	1113.85	235.65
1036.1286	3084.2893	1106.6	226.6
1036.2371	3085.2991	1103.85	224.45
1036.3454	3086.3083	1099.35	214.3
1036.4538	3087.3169	1096.1	214.5
1036.562	3088.3248	1091.45	208.9
1036.6703	3089.3321	1087.55	204.7
1036.7785	3090.3388	1079.8	199.25
1036.8866	3091.3449	1071.55	192.05
1036.9948	3092.3503	1073.1	190.7
1037.1028	3093.3551	1069.05	189.8
1037.2108	3094.3593	1066.05	188.95
1037.3188	3095.3629	1061.8	182.7
1037.4267	3096.3658	1064.55	183.9
1037.5346	3097.3681	1060.7	178.9
1037.6425	3098.3698	1055.9	173.5
1037.7503	3099.3708	1055.95	169.5
1037.858	3100.3713	1056.05	176.4
1037.9657	3101.3711	1049.45	168.05
1038.0734	3102.3702	1182.95	168.1
1038.181	3103.3688	1048.35	166.85
1038.2886	3104.3667	1039.9	161.15
1038.3961	3105.364	1038.1	159.65
1038.5036	3106.3607	1038.95	158.05
1038.611	3107.3568	1039.2	158.4
1038.7184	3108.3522	1034.7	155.65
1038.8257	3109.347	1033	151.15
1038.933	3110.3412	1037.25	153.45
1039.0403	3111.3348	1031.65	152.2
1039.1475	3112.3277	1026.95	147.5
1039.2547	3113.32	1025.2	147.3
1039.3618	3114.3117	1025.05	147.25
1039.4689	3115.3028	1018.6	140.55
1039.5759	3116.2932	1025.45	144.7
1039.6829	3117.2831	1025.75	139.4
1039.7898	3118.2723	1020.6	140.9
1039.8967	3119.2608	1014.45	135.7
1040.0035	3120.2488	1016.25	135.4
1040.1103	3121.2361	1017.8	137.65
1040.2171	3122.2229	1014.5	133.3
1040.3238	3123.209	1015.7	134.85
1040.4305	3124.1944	1013.25	133
1040.5371	3125.1793	1013.05	131.55
1040.6437	3126.1635	1013.15	136
1040.7502	3127.1471	1011.35	133.95
1040.8567	3128.1301	1008.3	128.15
1040.9631	3129.1125	1005.25	127.2
1041.0695	3130.0942	1005.9	125.65
1041.1759	3131.0753	1013.5	125.65
1041.2822	3132.0558	1005.75	123.45
1041.3884	3133.0357	1004.25	122.4
1041.4946	3134.015	1000.75	118.4
1041.6008	3134.9936	999.75	117.65
1041.7069	3135.9716	1018.85	120.15
1041.813	3136.949	997.5	119.25
1041.919	3137.9258	1012.65	115.8
1042.025	3138.902	1003.75	119.1
1042.1309	3139.8775	996.5	116.85
1042.2368	3140.8524	992.2	113.3
1042.3427	3141.8267	988	106.15
1042.4485	3142.8004	997.3	115.2
1042.5542	3143.7735	997.2	111.05
1042.6599	3144.7459	990.55	109
1042.7656	3145.7178	990.85	113.25
1042.8712	3146.689	987.9	107.55
1042.9768	3147.6596	988.55	107
1043.0823	3148.6295	985.9	106.8
1043.1878	3149.5989	985.25	106.85
1043.2932	3150.5676	984.65	109.3
1043.3986	3151.5357	982.35	103.45
1043.5039	3152.5032	980.75	100.75
1043.6092	3153.4701	983.2	103.1
1043.7145	3154.4364	980.85	98.85
1043.8197	3155.402	977.2	98.35
1043.9248	3156.367	981.3	101.3
1044.03	3157.3315	1009.45	99.35
1044.135	3158.2952	979.4	100.9
1044.24	3159.2584	975.55	98.5
1044.345	3160.221	975.2	96.4
1044.4499	3161.1829	978.25	97.5
1044.5548	3162.1442	973.65	95.45
1044.6596	3163.105	973.25	93.35
1044.7644	3164.065	971.1	91.55
1044.8692	3165.0245	973.95	92.95
1044.9739	3165.9834	968.7	91.75
1045.0785	3166.9416	968.85	90
1045.1831	3167.8993	968.6	89.65
1045.2877	3168.8563	969.05	89.95
1045.3922	3169.8127	970.3	92.8
1045.4966	3170.7684	972.75	93.25
1045.6011	3171.7236	971.1	92.2
1045.7054	3172.6782	970.65	93.2
1045.8098	3173.6321	969.9	91.05
1045.914	3174.5854	967.65	85
1046.0183	3175.5381	967.6	86.45
1046.1224	3176.4902	965.2	87.1
1046.2266	3177.4417	964	85.65
1046.3307	3178.3926	964.3	86.45
1046.4347	3179.3428	960.05	82.25
1046.5387	3180.2924	965.1	86.1
1046.6427	3181.2415	959.8	81.4
1046.7466	3182.1899	962.2	83.3
1046.8504	3183.1377	960.65	81.55
1046.9542	3184.0848	963.6	83.3
1047.058	3185.0314	963.8	85.05
1047.1617	3185.9773	964.5	85.8
1047.2654	3186.9227	959.5	79.1
1047.369	3187.8674	959.2	81.35
1047.4726	3188.8115	962	79.45
1047.5761	3189.755	955.65	76.65
1047.6796	3190.6979	952.75	73.6
1047.783	3191.6402	956.9	79.95
1047.8864	3192.5818	953.95	75.75
1047.9898	3193.5229	975.3	78.35
1048.0931	3194.4633	955.05	75.45
1048.1963	3195.4031	952.4	71.35
1048.2995	3196.3423	954.1	73.65
1048.4027	3197.2809	954.6	76.75
1048.5058	3198.2189	955.05	77.75
1048.6089	3199.1563	959.1	74.3
1048.7119	3200.0931	950.85	72.8
1048.8148	3201.0292	951.9	72.7
1048.9178	3201.9648	951.7	73.95
1049.0206	3202.8997	951.35	71.5
1049.1235	3203.834	949.2	70.05
1049.2262	3204.7677	950.65	72
1049.329	3205.7008	951.85	71.4
1049.4317	3206.6333	947.25	70.85
1049.5343	3207.5652	952.45	72
1049.6369	3208.4964	951.05	72.8
1049.7394	3209.4271	947.45	70.6
1049.8419	3210.3571	946	68.4
1049.9444	3211.2865	948.6	68.85
1050.0468	3212.2154	950.15	70.8
1050.1491	3213.1436	948.7	65.05
1050.2514	3214.0712	952.55	68.9
1050.3537	3214.9982	944.8	65.75
1050.4559	3215.9246	944.6	65.5
1050.5581	3216.8503	943.45	66.3
1050.6602	3217.7755	941.3	63.05
1050.7623	3218.7001	941.85	64.35
1050.8643	3219.624	944.65	65.45
1050.9663	3220.5473	944.65	67.9
1051.0682	3221.4701	944.25	64.15
1051.1701	3222.3922	942.4	65.05
1051.2719	3223.3137	940.45	62.6
1051.3737	3224.2346	944.8	67.8
1051.4754	3225.1549	941.1	63.65
1051.5771	3226.0746	942.35	65.5
1051.6788	3226.9937	943.9	65.2
1051.7804	3227.9121	937.2	61.65
1051.8819	3228.83	938.8	59.55
1051.9834	3229.7473	942.3	66.05
1052.0849	3230.6639	940.25	60.5
1052.1863	3231.5799	938.75	62.25
1052.2876	3232.4954	940	60.9
1052.3889	3233.4102	937.95	60.1
1052.4902	3234.3244	939.45	62.15
1052.5914	3235.238	936.65	58.25
1052.6926	3236.151	960.95	58.1
1052.7937	3237.0634	937.55	60.9
1052.8948	3237.9752	937.95	61.6
1052.9958	3238.8864	934	54.85
1053.0968	3239.797	933.75	55.5
1053.1977	3240.7069	936.5	57.65
1053.2986	3241.6163	938	58.75
1053.3994	3242.5251	932.1	55.7
1053.5002	3243.4332	933.2	56.3
1053.6009	3244.3408	938.3	61.75
1053.7016	3245.2477	933.1	53.75
1053.8022	3246.154	932.5	54
1053.9028	3247.0598	936.6	58.95
1054.0034	3247.9649	931.6	54.55
1054.1039	3248.8694	929.75	50.45
1054.2043	3249.7733	930.5	55.25
1054.3047	3250.6766	932.8	56.2
1054.4051	3251.5793	929.45	50.1
1054.5054	3252.4814	930.45	51.3
1054.6056	3253.3829	929.15	50.7
1054.7058	3254.2838	930.4	53.95
1054.806	3255.1841	927.5	51.35
1054.9061	3256.0838	929.9	53.15
1055.0061	3256.9829	926.75	49.3
1055.1062	3257.8814	929.6	52.15
1055.2061	3258.7792	929.55	48.2
1055.306	3259.6765	924.65	46.9
1055.4059	3260.5731	925.75	47.8
1055.5057	3261.4692	926.1	47.1
1055.6055	3262.3647	924.2	46.5
1055.7052	3263.2595	923.15	46.35
1055.8049	3264.1538	923.2	47.85
1055.9045	3265.0474	923.55	46.45
1056.0041	3265.9404	919.4	42.65
1056.1036	3266.8329	918.15	42.65
1056.2031	3267.7247	929	40.6
1056.3025	3268.616	917.6	41.9
1056.4019	3269.5066	916.15	36.75
1056.5013	3270.3966	917.5	39.05
1056.6005	3271.286	912.05	34.9
