Software Version:	3.9.2.0
Unit SN:	10000200
Spectrometer SN:	6960
Date:	3/8/2024 12:47:06 PM
Data Line Index:	25
Spectral Points:	2048
Integration time (ms):	125
Averages:	20
Delay (ms):	30000
Sequence Number:	1
Processing:	dark subtract
Laser Power (mW):	300
Laser Current (mA):	823
Laser Diode Temp (C):	25.1
Laser Case Temp (C):	26.1
System Temp (C):	26.1
Spectrometer Temp (C):	23.9
CCD Temp (C):	0.002
Secondary Temp (C):	20.007
Heatsink Temp (C):	20.977
CCDPCB Temp (C):	36.318
SecondaryPCB Temp (C):	30.282

Wavelength	RamanShift	Raw Counts	Dark Subtracted
787.061	30.1047	453.2	44.35
787.2016	32.3739	454.75	48.75
787.3422	34.6426	459.8	53.15
787.4828	36.9109	465.1	55.75
787.6235	39.1787	471.1	57.5
787.7642	41.4461	483.05	65
787.9049	43.7131	491.7	69.9
788.0456	45.9796	502.15	78.35
788.1863	48.2456	510.35	81.6
788.3271	50.5112	520.3	86.15
788.4679	52.7764	528.7	92.7
788.6087	55.0411	535.85	94.6
788.7496	57.3054	549.3	103.6
788.8904	59.5692	560	112.2
789.0313	61.8326	566.2	115.9
789.1722	64.0955	579.6	125.45
789.3132	66.3579	595.9	137.4
789.4541	68.6199	617.9	153.75
789.5951	70.8815	651.4	183.95
789.7361	73.1426	740.3	269.45
789.8771	75.4032	955.5	479.65
790.0181	77.6634	1478.5	996.9
790.1592	79.9231	2719.5	2230.45
790.3003	82.1824	5399.35	4886.4
790.4414	84.4412	10165.45	9618.3
790.5825	86.6995	16699.8	16108.1
790.7237	88.9574	22928.3	22298.4
790.8648	91.2148	27216.35	26555.7
791.006	93.4717	29100.5	28420.65
791.1472	95.7282	29284.3	28598.45
791.2885	97.9842	28936.9	28247
791.4297	100.2398	28176.3	27483.55
791.571	102.4949	27289.3	26597.2
791.7123	104.7495	26276.6	25580.25
791.8536	107.0036	25339.15	24645.15
791.9949	109.2573	24490.05	23789.6
792.1363	111.5105	23706.3	23005.3
792.2777	113.7632	22996.4	22292.65
792.4191	116.0154	22432.05	21718.1
792.5605	118.2672	22004.4	21296.1
792.7019	120.5185	21579.15	20868.85
792.8434	122.7693	21256.05	20543.8
792.9849	125.0197	20995.8	20278.2
793.1264	127.2696	20653	19929.75
793.2679	129.519	20498.45	19772.65
793.4094	131.7679	20210.85	19484.85
793.551	134.0163	19933.75	19202.15
793.6926	136.2642	19569.7	18839.45
793.8342	138.5117	19182.1	18444.1
793.9758	140.7587	18788.3	18056.35
794.1175	143.0052	18429.95	17690.8
794.2591	145.2512	18071.95	17333.35
794.4008	147.4967	17736.65	16997.15
794.5425	149.7417	17505.35	16760.65
794.6842	151.9863	17325.5	16577.2
794.826	154.2304	17237.45	16485.55
794.9677	156.4739	17035.9	16280.1
795.1095	158.717	16916.3	16159.6
795.2513	160.9596	16761.45	15998.65
795.3931	163.2017	16446.1	15680.7
795.535	165.4433	16168.1	15398.25
795.6768	167.6844	15855	15087.05
795.8187	169.925	15524.35	14753.15
795.9606	172.1651	15136.2	14366.7
796.1025	174.4047	14846.15	14074.55
796.2445	176.6439	14583.25	13810.7
796.3864	178.8825	14415.75	13637.1
796.5284	181.1206	14251.75	13467.55
796.6704	183.3582	14101.1	13308.35
796.8124	185.5954	13991.35	13198.55
796.9544	187.832	13959.2	13163.65
797.0965	190.0681	13919.75	13118.1
797.2386	192.3037	13892.75	13091.3
797.3806	194.5388	13894.9	13093.75
797.5228	196.7734	13929.35	13123.35
797.6649	199.0075	13991.45	13186.9
797.807	201.2411	14088.2	13279.45
797.9492	203.4742	14208	13400.35
798.0914	205.7068	14372	13554.25
798.2336	207.9389	14494.6	13676.6
798.3758	210.1704	14650.4	13836.35
798.518	212.4015	14753.15	13949.6
798.6603	214.632	14891	14095.05
798.8025	216.862	15043.1	14251.15
798.9448	219.0915	15156.9	14365.5
799.0871	221.3205	15279.6	14484.3
799.2294	223.549	15385.55	14593.3
799.3718	225.777	15474.3	14680.65
799.5141	228.0044	15595.25	14794.5
799.6565	230.2314	15772.6	14969.8
799.7989	232.4578	15928.4	15129.75
799.9413	234.6837	16041.3	15233.45
800.0837	236.909	16129.85	15317.1
800.2262	239.1339	16129.8	15292.45
800.3687	241.3582	16051.3	15225.4
800.5111	243.582	15946.9	15094.45
800.6536	245.8053	15854.6	15011.75
800.7961	248.0281	15761	14922.9
800.9387	250.2503	15714.95	14874.7
801.0812	252.472	15758.4	14919.95
801.2238	254.6932	15876.65	15035.4
801.3664	256.9139	15969.55	15136.3
801.509	259.134	16171.55	15324.75
801.6516	261.3536	16419.7	15574.15
801.7942	263.5727	16722.6	15870
801.9369	265.7912	17016.45	16170.8
802.0795	268.0092	17292	16447.5
802.2222	270.2267	17444.35	16597.85
802.3649	272.4436	17559.85	16712.25
802.5076	274.6601	17585.95	16728.6
802.6504	276.8759	17507.9	16655.4
802.7931	279.0913	17420.5	16568.1
802.9359	281.3061	17253.05	16401
803.0787	283.5204	17185.3	16320.55
803.2215	285.7341	17192.05	16326.75
803.3643	287.9473	17217.75	16345.25
803.5071	290.16	17290.75	16427.3
803.6499	292.3721	17372.5	16512.2
803.7928	294.5837	17620.5	16755.2
803.9357	296.7947	17856.8	16996.25
804.0786	299.0052	18047.4	17184.05
804.2215	301.2152	17980.5	17118.3
804.3644	303.4246	17805.55	16947.2
804.5074	305.6334	17438.5	16582.7
804.6503	307.8418	17003.55	16145
804.7933	310.0495	16610.45	15745.7
804.9363	312.2568	16163.65	15294.15
805.0793	314.4635	15741.8	14874.9
805.2223	316.6696	15463.6	14594.55
805.3653	318.8752	15243.05	14362.85
805.5084	321.0802	15177.6	14305.8
805.6514	323.2847	15157.9	14279.25
805.7945	325.4887	15213.2	14338.5
805.9376	327.692	15185.7	14311.25
806.0807	329.8949	15141.1	14263.3
806.2238	332.0972	14952.75	14074.9
806.367	334.2989	14750.3	13864.75
806.5101	336.5001	14465.15	13584
806.6533	338.7007	14261.9	13383.85
806.7965	340.9008	14088.05	13203
806.9397	343.1003	13967.3	13084.8
807.0829	345.2992	13831.25	12947.05
807.2261	347.4976	13749.4	12865.15
807.3693	349.6955	13655.65	12762.8
807.5126	351.8927	13667.4	12777.1
807.6559	354.0895	13565.4	12664.5
807.7991	356.2856	13528.7	12632.3
807.9424	358.4812	13516.3	12622
808.0857	360.6763	13509.35	12614.5
808.2291	362.8707	13473.2	12578.7
808.3724	365.0646	13540.8	12643.95
808.5158	367.258	13560.35	12660.45
808.6591	369.4508	13655.55	12751.4
808.8025	371.643	13747.35	12844.65
808.9459	373.8346	13831.5	12927.65
809.0893	376.0257	13942.5	13038.1
809.2327	378.2162	13935.25	13033.55
809.3762	380.4062	13949.7	13049.9
809.5196	382.5956	13794.25	12897.05
809.6631	384.7844	13712.8	12821.1
809.8066	386.9726	13572.45	12678.65
809.9501	389.1603	13455.05	12564.9
810.0936	391.3474	13436.8	12516.25
810.2371	393.5339	13380.15	12480.2
810.3806	395.7199	13315.55	12416.35
810.5241	397.9052	13386.75	12491.1
810.6677	400.09	13477.15	12579.4
810.8113	402.2743	13639.2	12742.7
810.9548	404.4579	13784.5	12884.55
811.0984	406.641	13980.7	13080.9
811.2421	408.8235	14189.4	13291.3
811.3857	411.0054	14323.45	13422.7
811.5293	413.1868	14554.45	13642.85
811.673	415.3675	14608.5	13698.2
811.8166	417.5477	14614.05	13704.4
811.9603	419.7273	14583.9	13674.95
812.104	421.9064	14506.2	13593.5
812.2477	424.0848	14439.45	13528.1
812.3914	426.2627	14284.95	13375.25
812.5351	428.4399	14062.85	13150.9
812.6788	430.6166	13709.2	12796.6
812.8226	432.7928	13359.25	12442.35
812.9663	434.9683	13047.05	12133.85
813.1101	437.1432	12820.5	11907
813.2539	439.3176	12608.6	11701.9
813.3977	441.4914	12507.65	11604.1
813.5415	443.6645	12485.45	11580.2
813.6853	445.8371	12437	11528.65
813.8291	448.0091	12367.8	11455.3
813.973	450.1806	12342.35	11434.55
814.1168	452.3514	12346.45	11437.95
814.2607	454.5216	12384.6	11461.2
814.4046	456.6913	12366.75	11452.45
814.5485	458.8603	12407.45	11499.3
814.6924	461.0288	12440.15	11535.6
814.8363	463.1967	12416.75	11516.35
814.9802	465.3639	12491.25	11589.35
815.1241	467.5306	12479.5	11568.05
815.2681	469.6967	12496.5	11592.9
815.412	471.8622	12481.8	11581
815.556	474.0271	12572.2	11665.75
815.7	476.1914	12609.7	11700.8
815.844	478.3551	12636.15	11725.3
815.988	480.5182	12687.15	11778.65
816.132	482.6807	12764.4	11865.6
816.276	484.8426	12928.3	12038.25
816.4201	487.0039	13275.3	12376.85
816.5641	489.1647	13656.9	12747.45
816.7082	491.3248	14030.15	13116.1
816.8522	493.4843	14122.5	13216.15
816.9963	495.6432	14081.15	13176.3
817.1404	497.8015	13920.3	13000.15
817.2845	499.9592	13845.65	12919.45
817.4286	502.1163	13649.5	12726.2
817.5727	504.2728	13314.9	12398.1
817.7168	506.4287	13035.25	12133.75
817.861	508.5839	12701.1	11800.5
818.0051	510.7386	12471.25	11560.35
818.1493	512.8927	12391.4	11469.5
818.2935	515.0461	12378.5	11462.45
818.4377	517.199	12466.1	11543.25
818.5818	519.3512	12631.25	11709.65
818.726	521.5029	12893.15	11966.75
818.8703	523.6539	13144.1	12228.45
819.0145	525.8043	13250.8	12331.35
819.1587	527.9541	13189.25	12264.9
819.303	530.1033	12994.65	12075.75
819.4472	532.2519	12852.6	11933.35
819.5915	534.3999	12801.05	11878.5
819.7357	536.5472	12874.05	11951.05
819.88	538.694	13094.65	12178.45
820.0243	540.8401	13374.4	12450.25
820.1686	542.9856	13607	12674.55
820.3129	545.1305	13656.6	12719.2
820.4572	547.2748	13586.35	12642.7
820.6016	549.4185	13371.6	12427
820.7459	551.5615	13197.85	12256.1
820.8902	553.704	13224.4	12290.3
821.0346	555.8458	13333.75	12402.25
821.1789	557.987	13490.95	12559.55
821.3233	560.1276	13719.75	12788.25
821.4677	562.2675	14095	13164.8
821.6121	564.4069	14581.85	13645.95
821.7565	566.5456	15056.15	14125.45
821.9009	568.6837	15175.05	14243.9
822.0453	570.8212	14776.55	13848.9
822.1897	572.958	14098.35	13170.05
822.3342	575.0942	13442.3	12514.7
822.4786	577.2299	12990.6	12069.2
822.6231	579.3648	12771.35	11863.45
822.7675	581.4992	12718.85	11823.85
822.912	583.6329	12815.25	11919.1
823.0565	585.766	12971.45	12067.8
823.201	587.8985	13124.85	12210.75
823.3454	590.0304	13208.65	12257.55
823.4899	592.1616	13153.5	12221.65
823.6345	594.2922	13030.6	12096.55
823.779	596.4222	12833.7	11891.75
823.9235	598.5515	12637.55	11696.15
824.068	600.6802	12442.15	11503.35
824.2126	602.8083	12269.55	11335.75
824.3571	604.9358	12266.35	11332.7
824.5017	607.0626	12269.75	11331.2
824.6462	609.1888	12388.9	11445.3
824.7908	611.3144	12532.5	11585.65
824.9354	613.4393	12628.45	11677.5
825.08	615.5636	12755.95	11805.65
825.2246	617.6873	12773.6	11831.55
825.3692	619.8103	12679.85	11738.2
825.5138	621.9327	12502.35	11560.05
825.6584	624.0544	12271.55	11334.4
825.803	626.1756	12108.8	11169.4
825.9477	628.2961	11966	11026.6
826.0923	630.4159	11891.75	10950.65
826.237	632.5351	11840.75	10895.4
826.3816	634.6537	11803.5	10859.25
826.5263	636.7716	11841.1	10888.9
826.6709	638.8889	11843.3	10890
826.8156	641.0056	11886.1	10934.1
826.9603	643.1216	11858.4	10910.2
827.105	645.237	11840.9	10892.5
827.2497	647.3518	11710.1	10772.3
827.3944	649.4659	11657.4	10719.4
827.5391	651.5793	11619	10685.9
827.6838	653.6922	11596.55	10658.55
827.8285	655.8043	11572.25	10636.9
827.9733	657.9159	11585.95	10645.25
828.118	660.0268	11552.5	10611.75
828.2627	662.137	11546.35	10601.75
828.4075	664.2466	11567	10615.5
828.5522	666.3556	11525.5	10573
828.697	668.4639	11483.45	10537.45
828.8418	670.5716	11421.1	10485.2
828.9865	672.6786	11421.8	10477.2
829.1313	674.785	11367.6	10419.35
829.2761	676.8907	11357.25	10409.6
829.4209	678.9958	11362.65	10422.2
829.5657	681.1002	11355.4	10409.5
829.7105	683.204	11317.65	10361.2
829.8553	685.3072	11309.05	10359.8
830.0001	687.4097	11290.95	10342.45
830.1449	689.5115	11295.1	10341.7
830.2898	691.6127	11272.7	10330.8
830.4346	693.7132	11283.6	10344.8
830.5794	695.8131	11288.85	10324.1
830.7243	697.9123	11293.25	10339.1
830.8691	700.0109	11318.05	10359.95
831.014	702.1089	11328.85	10376.85
831.1588	704.2061	11382.25	10431.85
831.3037	706.3028	11452.75	10496.45
831.4486	708.3987	11508.3	10550.6
831.5935	710.4941	11536.7	10586.85
831.7383	712.5887	11588.6	10637.55
831.8832	714.6827	11680.85	10728.95
832.0281	716.7761	11816.6	10869.35
832.173	718.8688	12007.7	11056.45
832.3179	720.9608	12137.75	11181.25
832.4628	723.0522	12309.65	11346.3
832.6077	725.1429	12343.9	11382.45
832.7527	727.233	12397.15	11440.25
832.8976	729.3224	12438.9	11484.35
833.0425	731.4112	12359.75	11409.1
833.1874	733.4993	12225.7	11274.25
833.3324	735.5867	11980.9	11029.15
833.4773	737.6735	11756.3	10800
833.6222	739.7596	11562.35	10608.1
833.7672	741.845	11434.5	10476.4
833.9122	743.9298	11331.55	10376.45
834.0571	746.014	11306.35	10353.2
834.2021	748.0974	11288.1	10326.55
834.347	750.1802	11295.2	10332.8
834.492	752.2624	11308.45	10352
834.637	754.3439	11377.55	10418.6
834.782	756.4247	11476.45	10512.05
834.9269	758.5048	11642.9	10682.8
835.0719	760.5843	11940.45	10977.85
835.2169	762.6631	12369.6	11409.45
835.3619	764.7413	12959.75	11999.6
835.5069	766.8188	13685.05	12721.7
835.6519	768.8956	14294.7	13329.4
835.7969	770.9718	14687.65	13730.4
835.9419	773.0473	14593.3	13633.6
836.0869	775.1221	14353.25	13392.55
836.232	777.1962	14068.4	13113.05
836.377	779.2697	13952.65	12986.95
836.522	781.3426	13998.8	13022.5
836.667	783.4147	14143.15	13175.6
836.8121	785.4862	14212.3	13252.55
836.9571	787.557	14012.05	13048.6
837.1021	789.6271	13533.35	12569.15
837.2472	791.6966	12912	11951.4
837.3922	793.7654	12267.6	11306.25
837.5373	795.8335	11862.25	10896.4
837.6823	797.901	11577.95	10618.3
837.8274	799.9678	11381.2	10410.35
837.9724	802.0339	11306.65	10339.95
838.1175	804.0993	11254.3	10278.7
838.2626	806.1641	11194.85	10228.6
838.4076	808.2282	11117.95	10156.4
838.5527	810.2916	11065.5	10100.6
838.6978	812.3544	10973.3	10011.35
838.8428	814.4164	10897.85	9934.15
838.9879	816.4778	10956.4	9985.4
839.133	818.5385	10992.85	10026.2
839.2781	820.5986	11119.9	10152.9
839.4232	822.658	11378.5	10409.9
839.5682	824.7166	11728.65	10762.2
839.7133	826.7747	12249.9	11282.8
839.8584	828.832	12784.65	11818.05
840.0035	830.8886	13163.85	12194.75
840.1486	832.9446	13341.95	12374.5
840.2937	834.9999	13199	12233.75
840.4388	837.0545	12915.9	11944.4
840.5839	839.1085	12559.05	11589.8
840.729	841.1618	12255.5	11281.75
840.8741	843.2143	11970.55	11000.9
841.0192	845.2662	11777.9	10810.4
841.1643	847.3175	11638.6	10672.65
841.3095	849.368	11511.5	10541.2
841.4546	851.4179	11476.8	10513.3
841.5997	853.467	11329.9	10362.45
841.7448	855.5155	11267.25	10302.3
841.8899	857.5633	11169.45	10198.7
842.0351	859.6105	11086.35	10119.25
842.1802	861.6569	11017.3	10047.8
842.3253	863.7027	10936.55	9965.35
842.4704	865.7478	10879.55	9910.7
842.6156	867.7922	10875.65	9906.05
842.7607	869.8359	10855.7	9885.7
842.9058	871.8789	10889.1	9915.3
843.0509	873.9212	10990.15	9986.1
843.1961	875.9629	11026.9	10052.55
843.3412	878.0039	11141.25	10170.75
843.4863	880.0441	11270.85	10306.95
843.6315	882.0837	11292.9	10323.5
843.7766	884.1226	11343.05	10370.95
843.9218	886.1609	11389.45	10420.6
844.0669	888.1984	11483.95	10511.35
844.212	890.2352	11620	10651.4
844.3572	892.2714	11625.15	10650
844.5023	894.3069	11576.75	10606
844.6475	896.3416	11432.85	10462.7
844.7926	898.3757	11279.65	10310.3
844.9377	900.4091	11189.3	10211
845.0829	902.4418	11177.75	10200.15
845.228	904.4739	11207.4	10230.9
845.3732	906.5052	11242.75	10269.35
845.5183	908.5358	11211.8	10238.3
845.6635	910.5658	11091.85	10114.15
845.8086	912.595	10861.35	9887.7
845.9538	914.6236	10652.75	9677.1
846.0989	916.6515	10488.7	9517.2
846.2441	918.6786	10429.85	9460.6
846.3892	920.7051	10427.15	9453.2
846.5344	922.7309	10470.75	9499.95
846.6795	924.756	10493.5	9522.25
846.8246	926.7804	10580	9609.35
846.9698	928.8041	10541.2	9569.35
847.1149	930.8272	10629.7	9657.75
847.2601	932.8495	10604.2	9628.95
847.4052	934.8711	10591.15	9617.55
847.5504	936.892	10513.3	9541.55
847.6955	938.9123	10531.4	9556.05
847.8407	940.9318	10564.1	9590.65
847.9858	942.9506	10515.25	9543.1
848.131	944.9688	10458.95	9489.35
848.2761	946.9862	10359.05	9388
848.4213	949.003	10226.85	9253.45
848.5664	951.019	10126.6	9155.2
848.7115	953.0344	10088.3	9114.1
848.8567	955.0491	10062.75	9088.85
849.0018	957.063	10093.35	9116.85
849.147	959.0763	10185.85	9213.1
849.2921	961.0888	10231.95	9258.85
849.4373	963.1007	10265.5	9295.85
849.5824	965.1119	10301.3	9341
849.7275	967.1223	10285.85	9332.45
849.8727	969.1321	10265.1	9309.85
850.0178	971.1412	10254.1	9292.6
850.1629	973.1495	10246.9	9280.75
850.3081	975.1572	10298.8	9283.65
850.4532	977.1641	10285.65	9314.1
850.5983	979.1704	10246.75	9272.9
850.7435	981.1759	10236.45	9261.45
850.8886	983.1808	10232.7	9259.15
851.0337	985.1849	10279.35	9296.3
851.1788	987.1884	10333.45	9362.8
851.324	989.1911	10444.95	9473.1
851.4691	991.1932	10478.35	9510.05
851.6142	993.1945	10515.25	9544.85
851.7593	995.1951	10477.55	9505.2
851.9045	997.1951	10480.95	9503.35
852.0496	999.1943	10402.55	9427.95
852.1947	1001.1928	10394.85	9421.4
852.3398	1003.1906	10466.6	9493.2
852.4849	1005.1877	10575.95	9600.9
852.63	1007.1841	10645.45	9677.05
852.7751	1009.1798	10690.35	9722.75
852.9202	1011.1748	10594.65	9623.95
853.0653	1013.1691	10454.6	9482.95
853.2104	1015.1627	10252.1	9280.3
853.3555	1017.1556	10025.25	9055.15
853.5006	1019.1477	9898.2	8931
853.6457	1021.1392	9770.55	8809.35
853.7908	1023.1299	9713.95	8759.85
853.9359	1025.12	9761.8	8811.1
854.081	1027.1093	9799.9	8865.05
854.2261	1029.0979	9918.3	8985.2
854.3712	1031.0859	10011.95	9071.05
854.5163	1033.0731	10044.35	9091.25
854.6613	1035.0596	10003.35	9044.4
854.8064	1037.0454	9891.65	8929.75
854.9515	1039.0304	9804.35	8835.2
855.0965	1041.0148	9683.1	8715.2
855.2416	1042.9985	9601	8634.65
855.3867	1044.9814	9547.75	8583.1
855.5317	1046.9636	9482.85	8517.65
855.6768	1048.9452	9457.15	8494.2
855.8219	1050.926	9515.9	8551.95
855.9669	1052.9061	9538.95	8572.45
856.112	1054.8855	9580.9	8615.9
856.257	1056.8642	9605.05	8638.2
856.4021	1058.8421	9654.7	8681.45
856.5471	1060.8194	9732.45	8762.1
856.6921	1062.7959	9765.05	8793.65
856.8372	1064.7717	9808.4	8841.3
856.9822	1066.7469	9893.5	8926.6
857.1272	1068.7213	9974.75	9004.45
857.2723	1070.695	10028.35	9061.55
857.4173	1072.6679	10073.3	9104.5
857.5623	1074.6402	10085.1	9119.2
857.7073	1076.6117	10046.75	9072.75
857.8523	1078.5826	9957.7	8990.5
857.9973	1080.5527	9811.25	8840.25
858.1423	1082.5221	9698.35	8734.6
858.2873	1084.4908	9688.6	8719.75
858.4323	1086.4587	9714.65	8748.75
858.5773	1088.426	9757.7	8788.5
858.7223	1090.3925	9785.55	8811.95
858.8673	1092.3584	9812.55	8843.25
859.0123	1094.3235	9790.9	8827.35
859.1573	1096.2879	9911.9	8946
859.3022	1098.2515	10038.45	9071.05
859.4472	1100.2145	10194.8	9230.65
859.5922	1102.1767	10359.4	9389.45
859.7371	1104.1382	10641.45	9678.15
859.8821	1106.099	10882.8	9912.7
860.027	1108.0591	11118.2	10155.25
860.172	1110.0185	11273.45	10303.5
860.3169	1111.9771	11353.6	10389.3
860.4619	1113.9351	11258.3	10293.1
860.6068	1115.8923	11106.7	10138.85
860.7517	1117.8488	10956.35	9986.5
860.8967	1119.8045	10767.1	9801.3
861.0416	1121.7596	10627.2	9663.5
861.1865	1123.7139	10492.25	9532.15
861.3314	1125.6675	10430.15	9468.5
861.4763	1127.6204	10475.55	9513.3
861.6212	1129.5726	10415.3	9447.6
861.7661	1131.524	10293.7	9328.05
861.911	1133.4748	10194.05	9226.1
862.0559	1135.4248	10006.7	9038.65
862.2008	1137.3741	9856.05	8893.5
862.3457	1139.3226	9721.15	8753.65
862.4905	1141.2705	9693.95	8727.05
862.6354	1143.2176	9581.3	8610.1
862.7803	1145.164	9556.85	8593.7
862.9251	1147.1097	9480.7	8515.4
863.07	1149.0546	9412.95	8444.15
863.2148	1150.9989	9285.9	8319.75
863.3597	1152.9424	9191	8229.4
863.5045	1154.8852	9104.05	8138.05
863.6493	1156.8272	9082.75	8114.05
863.7942	1158.7686	9068.95	8095.8
863.939	1160.7092	9081.35	8115.85
864.0838	1162.6491	9130.65	8162.25
864.2286	1164.5883	9250.1	8287.8
864.3734	1166.5267	9364.5	8401.35
864.5182	1168.4644	9520.75	8556.35
864.663	1170.4014	9730.75	8767.25
864.8078	1172.3377	9990.3	9027.3
864.9526	1174.2732	10324.95	9360.95
865.0974	1176.2081	10753.3	9789.75
865.2421	1178.1421	11241.85	10273.9
865.3869	1180.0755	11788.3	10823.95
865.5317	1182.0082	12183.6	11222.15
865.6764	1183.9401	12320.3	11363.45
865.8212	1185.8713	12171.6	11217.25
865.9659	1187.8017	11823.8	10877.8
866.1106	1189.7315	11422.4	10486.2
866.2554	1191.6605	11030.2	10096
866.4001	1193.5888	10724.2	9781
866.5448	1195.5163	10582.65	9628.15
866.6895	1197.4432	10467.6	9510.7
866.8342	1199.3693	10428.9	9468.3
866.9789	1201.2947	10390.25	9422.3
867.1236	1203.2193	10354	9392.6
867.2683	1205.1432	10344.8	9386.15
867.413	1207.0664	10313.2	9354.5
867.5576	1208.9889	10266.85	9309.1
867.7023	1210.9106	10271.9	9312.65
867.847	1212.8316	10264.45	9306.35
867.9916	1214.7519	10316.15	9348.65
868.1363	1216.6715	10331.5	9372.45
868.2809	1218.5903	10423.65	9464.4
868.4255	1220.5084	10510.75	9550.7
868.5701	1222.4257	10635.7	9675.15
868.7148	1224.3424	10662.7	9707.25
868.8594	1226.2583	10799.5	9842.25
869.004	1228.1735	10924.15	9966.2
869.1486	1230.0879	11081.65	10122.4
869.2932	1232.0016	11292.05	10333.9
869.4377	1233.9146	11428.05	10467.05
869.5823	1235.8269	11441.35	10482.6
869.7269	1237.7384	11395.75	10435.05
869.8715	1239.6492	11267.55	10310.65
870.016	1241.5592	11255.85	10295.65
870.1606	1243.4686	11306.15	10347.4
870.3051	1245.3772	11505.85	10547.15
870.4496	1247.285	11720.1	10762.2
870.5941	1249.1922	11908.7	10947.8
870.7387	1251.0986	12085.85	11131.45
870.8832	1253.0042	12159.85	11204.8
871.0277	1254.9092	12267.15	11309.6
871.1722	1256.8134	12364.05	11409.8
871.3167	1258.7169	12486.5	11527.4
871.4611	1260.6196	12675.5	11723.45
871.6056	1262.5216	12908.45	11948.35
871.7501	1264.4229	13107.35	12153.95
871.8945	1266.3234	13316.65	12359.95
872.039	1268.2232	13466.7	12506.5
872.1834	1270.1223	13516.8	12555.8
872.3278	1272.0207	13567.8	12610.45
872.4723	1273.9183	13532.4	12569.8
872.6167	1275.8151	13474.85	12520
872.7611	1277.7113	13477.9	12522.35
872.9055	1279.6067	13579.5	12625.4
873.0499	1281.5014	13821.75	12861.65
873.1943	1283.3953	14235.3	13278.6
873.3386	1285.2885	14766.45	13812.2
873.483	1287.181	15275.25	14318.5
873.6274	1289.0727	15835.5	14886.05
873.7717	1290.9637	16180.75	15226.45
873.9161	1292.854	16385.65	15429.65
874.0604	1294.7435	16377.55	15420.3
874.2047	1296.6323	16249.6	15293.05
874.349	1298.5204	16100.25	15140.6
874.4933	1300.4077	15864.9	14908.8
874.6376	1302.2943	15637	14682.9
874.7819	1304.1802	15265.35	14311.4
874.9262	1306.0653	14788.5	13831.3
875.0705	1307.9497	14313.55	13357.75
875.2147	1309.8333	13858.05	12904.65
875.359	1311.7162	13511.5	12557.05
875.5032	1313.5984	13304.1	12347.5
875.6475	1315.4798	13159.9	12191.25
875.7917	1317.3605	13081.35	12122.9
875.9359	1319.2405	12929.95	11973.3
876.0801	1321.1197	12679.9	11723.9
876.2243	1322.9982	12370	11409.75
876.3685	1324.876	12061.75	11106.1
876.5127	1326.753	11760.05	10808.45
876.6569	1328.6293	11540.25	10582.9
876.801	1330.5048	11382.45	10422.7
876.9452	1332.3796	11205.9	10250.1
877.0893	1334.2537	11104.5	10121.95
877.2335	1336.127	10995.95	10039.45
877.3776	1337.9996	10980.5	10025.4
877.5217	1339.8714	10960.45	10002.75
877.6658	1341.7426	11012.55	10012.75
877.8099	1343.6129	11002.35	10043.4
877.954	1345.4826	10989.8	10033.35
878.0981	1347.3515	10994.45	10037.8
878.2422	1349.2196	10978.7	10021.15
878.3862	1351.087	10996.15	10041.45
878.5303	1352.9537	11054.35	10097.4
878.6743	1354.8197	11149.9	10190.75
878.8184	1356.6849	11329.75	10374.35
878.9624	1358.5493	11511.2	10556.6
879.1064	1360.4131	11682.8	10728.05
879.2504	1362.276	11822.8	10870.3
879.3944	1364.1383	11829.7	10873.2
879.5384	1365.9998	11654.75	10693.85
879.6823	1367.8606	11306.85	10349.7
879.8263	1369.7206	10952.5	9998.95
879.9702	1371.5799	10595.95	9637.75
880.1142	1373.4384	10309.05	9355
880.2581	1375.2962	10060.9	9104.65
880.402	1377.1533	9733.7	8781.7
880.5459	1379.0096	9353.65	8404.35
880.6898	1380.8652	9019.15	8074.15
880.8337	1382.7201	8724.9	7774.2
880.9776	1384.5742	8469	7515.9
881.1215	1386.4275	8300.7	7344.95
881.2653	1388.2802	8124.95	7170.25
881.4092	1390.132	8033.8	7079.75
881.553	1391.9832	7933.9	6977.3
881.6968	1393.8336	7845	6892.45
881.8406	1395.6832	7812.1	6856.7
881.9844	1397.5322	7775.6	6822.35
882.1282	1399.3803	7743.65	6785.1
882.272	1401.2278	7693.2	6741.6
882.4158	1403.0745	7690.2	6743.55
882.5595	1404.9204	7647.3	6702.9
882.7033	1406.7656	7699.45	6746.75
882.847	1408.6101	7705.4	6755.4
882.9908	1410.4538	7726.55	6774.1
883.1345	1412.2968	7763.3	6813.75
883.2782	1414.139	7822.45	6873.15
883.4219	1415.9805	7910.3	6960.8
883.5656	1417.8213	7991.5	7037.85
883.7092	1419.6613	8089.15	7140.3
883.8529	1421.5006	8237.75	7288.75
883.9965	1423.3391	8424.85	7475
884.1402	1425.1769	8730.9	7780.85
884.2838	1427.0139	9156.9	8205.1
884.4274	1428.8502	9707.85	8759.4
884.571	1430.6858	10236.1	9286.6
884.7146	1432.5206	10636.6	9689.5
884.8582	1434.3547	10852.85	9902.95
885.0018	1436.188	10890.25	9941.65
885.1453	1438.0206	10795.65	9846.05
885.2889	1439.8524	10654.05	9702.15
885.4324	1441.6835	10533.65	9582.2
885.5759	1443.5139	10433.9	9480.1
885.7194	1445.3435	10352.85	9404.7
885.8629	1447.1724	10304.15	9356.5
886.0064	1449.0005	10289.4	9345.6
886.1499	1450.8279	10225.2	9278.05
886.2933	1452.6545	10197.4	9253.15
886.4368	1454.4804	10221.35	9277.9
886.5802	1456.3056	10235.05	9284.45
886.7237	1458.13	10132.7	9188
886.8671	1459.9536	9985.65	9039.4
887.0105	1461.7766	9708.65	8763.85
887.1539	1463.5987	9385.6	8437.65
887.2972	1465.4202	9033.4	8086.3
887.4406	1467.2409	8727.35	7778.8
887.584	1469.0608	8414.7	7467.15
887.7273	1470.88	8134.1	7184.45
887.8706	1472.6984	7908.75	6961.3
888.0139	1474.5161	7722.45	6771.4
888.1572	1476.3331	7557.55	6613.6
888.3005	1478.1493	7442.2	6495.2
888.4438	1479.9648	7353.8	6405.55
888.5871	1481.7795	7263.15	6314.1
888.7303	1483.5935	7213.95	6267.6
888.8736	1485.4067	7152.3	6205.4
889.0168	1487.2192	7128.45	6180
889.16	1489.031	7079.8	6134
889.3032	1490.842	7053.45	6104.65
889.4464	1492.6522	7022.95	6075.4
889.5896	1494.4618	6978.8	6032.25
889.7327	1496.2705	6946.05	6001.6
889.8759	1498.0785	6901.25	5954
890.019	1499.8858	6856.95	5912.15
890.1622	1501.6924	6814.85	5872.05
890.3053	1503.4981	6779.2	5832.1
890.4484	1505.3032	6746.7	5799.65
890.5914	1507.1075	6711.8	5765.4
890.7345	1508.911	6645.85	5702
890.8776	1510.7138	6604.95	5656.9
891.0206	1512.5159	6559.1	5616.25
891.1637	1514.3172	6517.3	5576.15
891.3067	1516.1178	6475.85	5532.25
891.4497	1517.9176	6439.3	5493.95
891.5927	1519.7166	6398.3	5456.3
891.7357	1521.515	6372.8	5423.6
891.8786	1523.3126	6324.65	5381.15
892.0216	1525.1094	6307.2	5361
892.1645	1526.9055	6290.25	5347.75
892.3074	1528.7008	6261.6	5317.75
892.4503	1530.4954	6220.95	5279.05
892.5932	1532.2893	6227.2	5285.9
892.7361	1534.0824	6200.05	5255.3
892.879	1535.8747	6211.35	5274.35
893.0218	1537.6663	6184.1	5249.6
893.1647	1539.4572	6196.05	5256.35
893.3075	1541.2473	6187	5247.25
893.4503	1543.0367	6195.7	5259.6
893.5931	1544.8253	6201.4	5262.45
893.7359	1546.6132	6240.35	5300.05
893.8787	1548.4003	6263.55	5314.7
894.0214	1550.1867	6309.9	5363.85
894.1642	1551.9723	6398.45	5458.45
894.3069	1553.7572	6487.85	5554.65
894.4496	1555.5414	6616.1	5683.1
894.5923	1557.3247	6765.75	5831.65
894.735	1559.1074	6931	6001.95
894.8777	1560.8893	7082.75	6149.5
895.0204	1562.6705	7290.8	6360.05
895.163	1564.4509	7403.45	6477.05
895.3056	1566.2305	7474.9	6548.15
895.4482	1568.0094	7522.6	6597.5
895.5908	1569.7876	7504.85	6578.05
895.7334	1571.565	7490.25	6558.45
895.876	1573.3417	7479.75	6552
896.0186	1575.1176	7465.45	6535.85
896.1611	1576.8928	7473.7	6551.5
896.3036	1578.6672	7453.8	6534.6
896.4461	1580.4409	7483.25	6567.15
896.5886	1582.2138	7514.25	6591.5
896.7311	1583.986	7575.55	6651.25
896.8736	1585.7575	7662.35	6737.25
897.0161	1587.5282	7750.8	6831.05
897.1585	1589.2981	7878.55	6959.2
897.3009	1591.0673	7970.4	7051.65
897.4433	1592.8358	8093.45	7172.65
897.5857	1594.6035	8216.8	7293.85
897.7281	1596.3704	8301.9	7375.25
897.8705	1598.1366	8410.45	7485.3
898.0128	1599.9021	8488.35	7568.95
898.1551	1601.6668	8594.5	7670.05
898.2975	1603.4308	8751.7	7827.8
898.4398	1605.194	8916.8	7990.4
898.5821	1606.9564	9138.85	8225.35
898.7243	1608.7182	9397.35	8487.05
898.8666	1610.4791	9707.9	8802.5
899.0088	1612.2394	9990.2	9084.2
899.1511	1613.9988	10362.95	9455.65
899.2933	1615.7576	10657.6	9745
899.4355	1617.5156	10874.4	9949.5
899.5776	1619.2728	10948.35	10025.95
899.7198	1621.0293	10889.8	9967.65
899.862	1622.785	10607.9	9691
900.0041	1624.54	10266.05	9351
900.1462	1626.2942	9864.65	8952
900.2883	1628.0477	9431.35	8514.7
900.4304	1629.8005	9046.6	8129.65
900.5725	1631.5525	8712.9	7799.05
900.7145	1633.3037	8415.4	7504
900.8566	1635.0542	8171.75	7259.6
900.9986	1636.804	7990.75	7078.3
901.1406	1638.553	7941.4	6937.45
901.2826	1640.3013	7791.2	6877.85
901.4245	1642.0488	7736.2	6822.1
901.5665	1643.7955	7759.1	6847.55
901.7085	1645.5416	7818.05	6907.45
901.8504	1647.2868	7919.4	7007.7
901.9923	1649.0313	8027.9	7112.5
902.1342	1650.7751	8164.2	7245.75
902.2761	1652.5181	8318.2	7405.8
902.4179	1654.2604	8504.6	7596.85
902.5598	1656.0019	8745.3	7833.15
902.7016	1657.7427	8995.3	8080.95
902.8434	1659.4828	9268.4	8354.35
902.9852	1661.222	9420.15	8505.85
903.127	1662.9606	9401.4	8486.95
903.2687	1664.6984	9157.35	8238.85
903.4105	1666.4354	8727.35	7808.2
903.5522	1668.1717	8141.25	7223.15
903.6939	1669.9072	7561.2	6644
903.8356	1671.642	7068	6148.7
903.9773	1673.3761	6672.35	5754.65
904.119	1675.1094	6353.25	5439.2
904.2606	1676.8419	6090.15	5175.8
904.4022	1678.5737	5900.3	4986
904.5439	1680.3048	5727.45	4810.8
904.6855	1682.0351	5586.6	4670.35
904.827	1683.7646	5478.5	4558.95
904.9686	1685.4934	5381.75	4465.5
905.1101	1687.2215	5303	4388.75
905.2517	1688.9488	5210.4	4298.4
905.3932	1690.6754	5154.1	4240.25
905.5347	1692.4012	5109.75	4194.25
905.6761	1694.1263	5056.7	4141.6
905.8176	1695.8506	5025.05	4110.05
905.9591	1697.5742	4989.45	4080.7
906.1005	1699.297	4926	4017.15
906.2419	1701.0191	4878.05	3972.7
906.3833	1702.7404	4837.15	3929.15
906.5246	1704.461	4806.9	3895.35
906.666	1706.1808	4778.85	3867.8
906.8073	1707.8999	4743.8	3834.5
906.9487	1709.6182	4704.8	3800.5
907.09	1711.3358	4691.85	3788.25
907.2313	1713.0527	4673.05	3768.85
907.3725	1714.7688	4643.8	3731.9
907.5138	1716.4841	4610.6	3700.45
907.655	1718.1987	4603.8	3692.1
907.7962	1719.9126	4576.8	3672.05
907.9374	1721.6257	4552.3	3647.3
908.0786	1723.338	4544.85	3644.45
908.2198	1725.0496	4514.65	3609.25
908.3609	1726.7605	4519.05	3611.5
908.502	1728.4706	4509	3605.1
908.6431	1730.18	4483.95	3577.3
908.7842	1731.8886	4462.4	3561.1
908.9253	1733.5964	4466.7	3540.65
909.0664	1735.3036	4438.35	3533.65
909.2074	1737.0099	4424.15	3518.6
909.3484	1738.7156	4394.05	3488.45
909.4894	1740.4204	4357.9	3451.3
909.6304	1742.1246	4346.2	3439.25
909.7714	1743.8279	4326.2	3420.55
909.9123	1745.5306	4302.1	3400.4
910.0532	1747.2325	4277.35	3374.65
910.1941	1748.9336	4243.45	3340.8
910.335	1750.634	4239.75	3333.45
910.4759	1752.3336	4235.3	3332.5
910.6168	1754.0325	4230.55	3329.95
910.7576	1755.7307	4206.15	3304.5
910.8984	1757.4281	4214.15	3310.35
911.0392	1759.1247	4205.75	3289.45
911.18	1760.8206	4205.5	3292.25
911.3208	1762.5158	4186.75	3273.9
911.4615	1764.2102	4154	3245.9
911.6022	1765.9039	4147.75	3244.55
911.7429	1767.5968	4138.8	3236.4
911.8836	1769.289	4114.3	3212.45
912.0243	1770.9804	4121.65	3213.7
912.1649	1772.6711	4116.85	3205.8
912.3056	1774.361	4103.25	3194.05
912.4462	1776.0502	4101.05	3192.95
912.5868	1777.7386	4095.35	3187
912.7274	1779.4263	4080.7	3177.05
912.8679	1781.1132	4059.05	3159.85
913.0084	1782.7994	4061.8	3160.65
913.149	1784.4849	4048.85	3150.75
913.2895	1786.1696	4046.6	3126.75
913.4299	1787.8535	4031.65	3133.6
913.5704	1789.5367	4022.6	3125
913.7108	1791.2192	4021.45	3122.35
913.8513	1792.9009	4037.1	3108.1
913.9917	1794.5818	4005.75	3099.4
914.132	1796.2621	4000.9	3096.65
914.2724	1797.9415	3967.1	3061.05
914.4128	1799.6202	3970.6	3064.9
914.5531	1801.2982	3962.1	3056.7
914.6934	1802.9755	3957.8	3052.85
914.8337	1804.6519	3948.3	3045.3
914.9739	1806.3277	3941.3	3041.75
915.1142	1808.0027	3914.55	3016.5
915.2544	1809.6769	3904	3005.8
915.3946	1811.3504	3905.3	3006.3
915.5348	1813.0231	3901.85	3002.1
915.675	1814.6951	3886.85	2986.65
915.8151	1816.3664	3890	2987.1
915.9553	1818.0369	3884.3	2980.6
916.0954	1819.7067	3872.1	2968.05
916.2355	1821.3757	3876.3	2969.95
916.3755	1823.044	3866.45	2960.05
916.5156	1824.7115	3842.9	2936.6
916.6556	1826.3783	3844	2939.8
916.7956	1828.0443	3835.5	2933.95
916.9356	1829.7096	3828.95	2925.05
917.0756	1831.3741	3824.85	2921.95
917.2155	1833.0379	3823.3	2924.15
917.3555	1834.701	3800.75	2901.7
917.4954	1836.3633	3801.65	2902
917.6353	1838.0248	3801.75	2899.4
917.7751	1839.6856	3789.15	2890.2
917.915	1841.3457	3787.65	2887.6
918.0548	1843.005	3778.95	2877.05
918.1946	1844.6636	3777.45	2876.4
918.3344	1846.3214	3766.2	2863.25
918.4742	1847.9785	3759.1	2857.5
918.6139	1849.6349	3754.5	2848.5
918.7537	1851.2904	3757.25	2842.95
918.8934	1852.9453	3740.5	2834.75
919.0331	1854.5994	3733.05	2825.3
919.1727	1856.2528	3741.75	2830.55
919.3124	1857.9054	3713.4	2808.5
919.452	1859.5572	3725.9	2825.6
919.5916	1861.2083	3713.65	2813
919.7312	1862.8587	3722.4	2820.55
919.8708	1864.5084	3705.2	2798.7
920.0103	1866.1572	3710.3	2803
920.1498	1867.8054	3686.4	2778
920.2893	1869.4528	3681.35	2773.6
920.4288	1871.0994	3660.4	2754.55
920.5683	1872.7453	3670.2	2763.45
920.7077	1874.3905	3659.55	2752.6
920.8471	1876.0349	3652.6	2749.15
920.9865	1877.6786	3646.1	2739.55
921.1259	1879.3215	3638.25	2735.1
921.2653	1880.9637	3638.7	2736.2
921.4046	1882.6051	3635.1	2735.7
921.5439	1884.2458	3618.45	2716.8
921.6832	1885.8858	3604.75	2702.55
921.8225	1887.525	3606.05	2702.7
921.9617	1889.1634	3599.3	2697.45
922.101	1890.8011	3603.9	2699.7
922.2402	1892.4381	3586.5	2681.35
922.3794	1894.0743	3570.6	2668.65
922.5185	1895.7098	3571.6	2667.95
922.6577	1897.3446	3556.15	2652.2
922.7968	1898.9786	3545.55	2640.35
922.9359	1900.6118	3551.25	2651.55
923.075	1902.2443	3529.95	2627.1
923.214	1903.8761	3520.7	2619.05
923.3531	1905.5071	3510.95	2608.8
923.4921	1907.1374	3528.8	2627
923.6311	1908.7669	3496.8	2595.6
923.77	1910.3957	3495.35	2595.5
923.909	1912.0237	3471.25	2571.4
924.0479	1913.651	3468.9	2567.6
924.1868	1915.2776	3477.85	2578.75
924.3257	1916.9034	3458.9	2559.5
924.4646	1918.5285	3449.15	2550.15
924.6034	1920.1528	3443.85	2542.9
924.7422	1921.7764	3430.3	2530
924.881	1923.3992	3421.95	2518.8
925.0198	1925.0213	3412.75	2512.35
925.1586	1926.6427	3397.2	2496.85
925.2973	1928.2633	3460.15	2482.7
925.436	1929.8832	3396.45	2492.55
925.5747	1931.5023	3372.1	2468.85
925.7134	1933.1207	3363.1	2462.15
925.852	1934.7383	3368.85	2468.8
925.9906	1936.3552	3337.4	2438.25
926.1292	1937.9714	3329.85	2430.2
926.2678	1939.5868	3340.5	2437.35
926.4064	1941.2015	3333.15	2430.6
926.5449	1942.8154	3312.65	2409.15
926.6834	1944.4286	3299.65	2394.8
926.8219	1946.041	3307.6	2387.85
926.9604	1947.6528	3287.25	2378.9
927.0988	1949.2637	3273.35	2374.25
927.2372	1950.8739	3276.55	2374.95
927.3756	1952.4834	3258.35	2357.95
927.514	1954.0921	3262.75	2361.55
927.6523	1955.7001	3265.45	2361.15
927.7907	1957.3074	3248.95	2351.15
927.929	1958.9139	3227.75	2333.15
928.0673	1960.5197	3223.1	2325.4
928.2055	1962.1247	3213.3	2316.85
928.3438	1963.729	3201.95	2304.9
928.482	1965.3325	3193.65	2293.75
928.6202	1966.9353	3180.85	2286.7
928.7584	1968.5374	3170.95	2274.25
928.8965	1970.1387	3167.8	2272.55
929.0346	1971.7393	3168	2272.55
929.1727	1973.3392	3153.9	2259.45
929.3108	1974.9383	3136.8	2244.9
929.4489	1976.5366	3129.85	2235.95
929.5869	1978.1342	3119.8	2226
929.7249	1979.7311	3131.2	2236.15
929.8629	1981.3273	3125.65	2233.15
930.0009	1982.9227	3120.9	2226.9
930.1388	1984.5173	3092.5	2200.3
930.2767	1986.1112	3092.85	2201.3
930.4146	1987.7044	3098.4	2207.9
930.5525	1989.2968	3091.8	2198.25
930.6904	1990.8885	3076.5	2180.3
930.8282	1992.4795	3066.3	2173.35
930.966	1994.0697	3059.2	2171.6
931.1038	1995.6592	3056.5	2165.8
931.2415	1997.2479	3060.8	2168.45
931.3793	1998.8359	3052.4	2161.85
931.517	2000.4232	3031.3	2144.75
931.6547	2002.0097	3017	2133.8
931.7923	2003.5955	3007.7	2122.45
931.93	2005.1805	3010.35	2119
932.0676	2006.7648	2998.45	2109.5
932.2052	2008.3484	2993.65	2104.5
932.3427	2009.9312	2999.7	2111.15
932.4803	2011.5133	2993.9	2108.9
932.6178	2013.0946	2974.6	2088.4
932.7553	2014.6752	2985.75	2100.7
932.8928	2016.2551	2963	2075
933.0302	2017.8342	2962.15	2074.65
933.1676	2019.4126	2951.8	2067.15
933.305	2020.9902	2948.65	2064.7
933.4424	2022.5672	2941.9	2057.75
933.5798	2024.1433	2937.5	2049.05
933.7171	2025.7188	2932.8	2049.75
933.8544	2027.2935	2931.75	2048.4
933.9917	2028.8674	2937.3	2054.9
934.129	2030.4406	2925.8	2045.3
934.2662	2032.0131	2905.5	2024.15
934.4034	2033.5849	2896.45	2010.3
934.5406	2035.1559	2890.95	2008.4
934.6778	2036.7261	2904.05	2015.8
934.8149	2038.2957	2881.35	1991.05
934.952	2039.8645	2882.5	1991.45
935.0891	2041.4325	2897.8	2004.3
935.2262	2042.9998	2868.25	1983.5
935.3632	2044.5664	2871.75	1985.85
935.5002	2046.1323	2870.6	1986.4
935.6372	2047.6974	2859.5	1976.35
935.7742	2049.2617	2830.55	1945.85
935.9111	2050.8254	2861.25	1952.6
936.048	2052.3883	2855	1965
936.1849	2053.9504	2837.45	1949.6
936.3218	2055.5118	2833.35	1943.2
936.4586	2057.0725	2835.55	1943.65
936.5955	2058.6325	2811.8	1926.05
936.7323	2060.1917	2816.5	1931.9
936.869	2061.7502	2811.7	1924.85
937.0058	2063.3079	2810.1	1929.45
937.1425	2064.8649	2798.85	1912.35
937.2792	2066.4212	2787.45	1900.6
937.4159	2067.9767	2779.8	1891.7
937.5525	2069.5315	2776.1	1887.3
937.6891	2071.0856	2764.6	1879.9
937.8257	2072.6389	2771.45	1885.75
937.9623	2074.1915	2759.15	1879.25
938.0989	2075.7433	2751.1	1863.75
938.2354	2077.2945	2742.25	1856.75
938.3719	2078.8448	2745.15	1857.95
938.5084	2080.3945	2739.55	1849.2
938.6448	2081.9434	2729.05	1837.35
938.7812	2083.4916	2732.25	1839.65
938.9176	2085.039	2724.1	1829.05
939.054	2086.5857	2722.7	1824.4
939.1903	2088.1317	2716.4	1818.3
939.3267	2089.677	2718.7	1820.25
939.463	2091.2215	2708.95	1813.9
939.5992	2092.7652	2709.25	1810.35
939.7355	2094.3083	2699.95	1803.2
939.8717	2095.8506	2698.55	1803.9
940.0079	2097.3921	2676.65	1784
940.1441	2098.933	2677.9	1785.2
940.2802	2100.4731	2680.15	1787.25
940.4163	2102.0124	2693.05	1781.5
940.5524	2103.5511	2670.7	1777.2
940.6885	2105.089	2679.3	1785.45
940.8245	2106.6261	2665.8	1776.4
940.9606	2108.1626	2663.15	1774.1
941.0965	2109.6983	2685.05	1765.8
941.2325	2111.2332	2665.55	1771.8
941.3684	2112.7675	2648.5	1754.7
941.5044	2114.301	2625.55	1728.8
941.6403	2115.8337	2641.3	1747.95
941.7761	2117.3657	2632.25	1740.65
941.912	2118.897	2634.5	1739
942.0478	2120.4276	2636.8	1737.5
942.1835	2121.9575	2620.55	1726.75
942.3193	2123.4866	2615.9	1720.05
942.455	2125.0149	2622.9	1728
942.5907	2126.5426	2612.3	1724.15
942.7264	2128.0695	2603.3	1713.6
942.8621	2129.5956	2585.15	1703.25
942.9977	2131.1211	2586.25	1693.75
943.1333	2132.6458	2582.1	1691.1
943.2689	2134.1698	2571.3	1675.6
943.4044	2135.693	2580.9	1681.9
943.54	2137.2155	2579.15	1681.3
943.6755	2138.7373	2556.4	1664.25
943.8109	2140.2584	2552.8	1666.15
943.9464	2141.7787	2559.45	1668.75
944.0818	2143.2983	2540.65	1657.15
944.2172	2144.8171	2541.8	1659.5
944.3526	2146.3353	2526.5	1636.45
944.4879	2147.8527	2527.95	1638.5
944.6232	2149.3693	2532.85	1640.6
944.7585	2150.8853	2539.65	1642.7
944.8938	2152.4005	2513.85	1619.45
945.029	2153.9149	2524.5	1630.1
945.1642	2155.4287	2517.4	1621.8
945.2994	2156.9417	2505.65	1610.9
945.4346	2158.454	2502.45	1612.55
945.5697	2159.9655	2481.15	1593.05
945.7048	2161.4764	2493.95	1606.25
945.8399	2162.9865	2493.35	1604.45
945.9749	2164.4958	2481	1591.1
946.1099	2166.0045	2474.2	1582.25
946.2449	2167.5124	2478.95	1590.4
946.3799	2169.0195	2469.35	1575.45
946.5148	2170.526	2471.4	1579.65
946.6498	2172.0317	2468.8	1576.95
946.7846	2173.5367	2464.65	1571.55
946.9195	2175.0409	2458.45	1567.7
947.0543	2176.5445	2466.65	1574.5
947.1891	2178.0473	2443.8	1547.5
947.3239	2179.5494	2447.1	1547.95
947.4587	2181.0507	2439.95	1546.75
947.5934	2182.5513	2433.4	1541.85
947.7281	2184.0512	2439.1	1546.05
947.8628	2185.5504	2432.65	1542.1
947.9974	2187.0488	2413.25	1525.75
948.132	2188.5465	2418.3	1532.1
948.2666	2190.0435	2414.9	1525.75
948.4012	2191.5397	2402.4	1509.7
948.5357	2193.0353	2416.8	1521.65
948.6702	2194.5301	2415.6	1517.55
948.8047	2196.0241	2408.8	1508.65
948.9392	2197.5175	2402.3	1505.55
949.0736	2199.0101	2391.95	1492.4
949.208	2200.502	2375.65	1483.35
949.3424	2201.9931	2365.8	1477.45
949.4767	2203.4835	2365.95	1476.6
949.611	2204.9733	2386.25	1482.8
949.7453	2206.4622	2358.5	1470.7
949.8796	2207.9505	2357.4	1467.5
950.0138	2209.438	2347.1	1462.75
950.148	2210.9248	2340	1452.25
950.2822	2212.4109	2337.35	1444.75
950.4164	2213.8962	2345.95	1447.4
950.5505	2215.3809	2334.75	1434.35
950.6846	2216.8648	2335.25	1437.05
950.8186	2218.3479	2328.85	1425.4
950.9527	2219.8304	2329.9	1427.2
951.0867	2221.3121	2319.4	1418.05
951.2207	2222.7931	2318.75	1421.15
951.3546	2224.2733	2315.1	1420.95
951.4886	2225.7529	2296.8	1405.3
951.6225	2227.2317	2297.85	1401.65
951.7563	2228.7098	2294.2	1406.45
951.8902	2230.1872	2274.1	1384.65
952.024	2231.6638	2274.2	1385.85
952.1578	2233.1397	2274.6	1381.1
952.2916	2234.6149	2267.65	1381.15
952.4253	2236.0894	2261.1	1371.45
952.559	2237.5632	2277.55	1374.8
952.6927	2239.0362	2257.5	1366.45
952.8263	2240.5085	2262.4	1372.55
952.9599	2241.9801	2257.5	1365.05
953.0935	2243.4509	2251	1354.3
953.2271	2244.921	2243.7	1347.35
953.3606	2246.3904	2241.4	1343.25
953.4941	2247.8591	2236.75	1342.85
953.6276	2249.3271	2222.1	1327.3
953.7611	2250.7943	2235	1341
953.8945	2252.2608	2221.75	1324.6
954.0279	2253.7266	2212.95	1319.9
954.1612	2255.1917	2214.35	1321.45
954.2946	2256.656	2204.4	1312.75
954.4279	2258.1197	2194.9	1307.3
954.5612	2259.5826	2195.25	1303.85
954.6944	2261.0447	2203.9	1311.4
954.8276	2262.5062	2197.2	1298.95
954.9608	2263.9669	2199.85	1302.3
955.094	2265.4269	2185.2	1290.95
955.2271	2266.8862	2174.75	1282.55
955.3602	2268.3448	2183.55	1293.2
955.4933	2269.8026	2180.15	1291.05
955.6264	2271.2598	2163	1272.7
955.7594	2272.7162	2170.1	1280.75
955.8924	2274.1719	2169.8	1275.35
956.0253	2275.6268	2174.35	1278.65
956.1583	2277.0811	2160.05	1264.5
956.2912	2278.5346	2166.7	1273.35
956.4241	2279.9874	2157.95	1266.8
956.5569	2281.4395	2155.35	1266.2
956.6897	2282.8908	2158.75	1262.65
956.8225	2284.3414	2146.1	1251.2
956.9553	2285.7914	2139.9	1247.3
957.088	2287.2406	2143.95	1248.25
957.2207	2288.689	2142.95	1248.35
957.3534	2290.1368	2138.9	1236.6
957.486	2291.5838	2142.05	1240.3
957.6186	2293.0302	2135.95	1234.2
957.7512	2294.4758	2134	1237.5
957.8838	2295.9206	2126.1	1230.85
958.0163	2297.3648	2115	1220.8
958.1488	2298.8082	2114.45	1219.4
958.2813	2300.251	2116.45	1222.7
958.4137	2301.693	2122.05	1221.45
958.5461	2303.1343	2114.25	1217.7
958.6785	2304.5748	2108.6	1214.15
958.8108	2306.0147	2090.35	1198.45
958.9432	2307.4538	2095.55	1202.8
959.0754	2308.8922	2083	1198
959.2077	2310.3299	2084.35	1194.95
959.3399	2311.7669	2084.6	1194.2
959.4721	2313.2031	2084.95	1191.1
959.6043	2314.6387	2073.55	1178.9
959.7365	2316.0735	2074.3	1177.7
959.8686	2317.5076	2068.1	1173
960.0006	2318.941	2073.75	1180.2
960.1327	2320.3737	2075	1178.65
960.2647	2321.8056	2060.75	1163.6
960.3967	2323.2369	2056.15	1159.4
960.5287	2324.6674	2048.5	1153.2
960.6606	2326.0972	2053.85	1158.55
960.7925	2327.5263	2046.55	1153.35
960.9244	2328.9547	2047.5	1150.85
961.0562	2330.3823	2046.1	1147.75
961.1881	2331.8092	2045.3	1145.95
961.3198	2333.2355	2039.25	1141.55
961.4516	2334.661	2048.25	1151.75
961.5833	2336.0858	2032.5	1134.4
961.715	2337.5098	2030.95	1134.45
961.8467	2338.9332	2026.6	1131.35
961.9783	2340.3558	2025	1130.15
962.1099	2341.7778	2024.2	1132.45
962.2415	2343.199	2011.95	1119.2
962.373	2344.6195	2011.5	1119.45
962.5045	2346.0393	2006.95	1114.95
962.636	2347.4583	2021.4	1126.75
962.7675	2348.8767	2015.85	1119.55
962.8989	2350.2943	2004.05	1106.05
963.0303	2351.7113	2003.85	1104
963.1617	2353.1275	2006.95	1105.5
963.293	2354.543	2014.25	1108.2
963.4243	2355.9578	2005.75	1108.6
963.5556	2357.3718	1988.25	1095.2
963.6868	2358.7852	1989.25	1096.05
963.818	2360.1978	1981.75	1089.1
963.9492	2361.6098	1980.7	1088.4
964.0803	2363.021	1990.85	1094.25
964.2114	2364.4315	1971.1	1075.7
964.3425	2365.8413	1971.45	1075.9
964.4736	2367.2504	1969.4	1077.85
964.6046	2368.6587	1969.15	1078.7
964.7356	2370.0664	1961.55	1071.5
964.8666	2371.4733	1946.1	1050.7
964.9975	2372.8795	1952.5	1057.95
965.1284	2374.285	1952.2	1056.3
965.2593	2375.6899	1944	1049.2
965.3901	2377.0939	1943.4	1049
965.5209	2378.4973	1936.8	1043.8
965.6517	2379.9	1938.65	1045.65
965.7825	2381.3019	1931.6	1039.25
965.9132	2382.7032	1929.15	1037.65
966.0439	2384.1037	1926.55	1040.05
966.1745	2385.5035	1918.7	1032.05
966.3051	2386.9027	1919.75	1031.5
966.4357	2388.3011	1921.2	1029
966.5663	2389.6987	1907.4	1014.35
966.6968	2391.0957	1916.7	1026
966.8273	2392.492	1904.35	1013.5
966.9578	2393.8876	1896.5	1003.1
967.0882	2395.2824	1896.5	1005.05
967.2186	2396.6765	1898.3	1007.55
967.349	2398.07	1884.7	992.6
967.4793	2399.4627	1892.6	996.65
967.6097	2400.8547	1889.1	994.1
967.7399	2402.246	1891.55	992.65
967.8702	2403.6366	1879.85	986.35
968.0004	2405.0265	1875.45	982.35
968.1306	2406.4156	1877.05	979.8
968.2607	2407.8041	1879.3	981.05
968.3909	2409.1918	1872.7	977.35
968.521	2410.5789	1853.6	959.15
968.651	2411.9652	1865.35	968
968.781	2413.3508	1865.3	970.95
968.911	2414.7358	1854.95	959.75
969.041	2416.12	1854	960.55
969.1709	2417.5035	1853.45	959.05
969.3008	2418.8863	1850.05	955.95
969.4307	2420.2684	1841.45	947.15
969.5606	2421.6497	1846.2	952.75
969.6904	2423.0304	1838.9	946.65
969.8201	2424.4104	1833.1	941.05
969.9499	2425.7896	1841.65	942.05
970.0796	2427.1682	1830.65	938.95
970.2093	2428.546	1826.7	932
970.3389	2429.9232	1822.35	926.45
970.4685	2431.2996	1819.15	926
970.5981	2432.6753	1825.95	932
970.7277	2434.0503	1819.25	924.4
970.8572	2435.4246	1822.25	928.35
970.9867	2436.7982	1818.65	920.75
971.1161	2438.1711	1804.55	908.65
971.2456	2439.5433	1815.15	921.65
971.375	2440.9148	1811.95	911.4
971.5043	2442.2856	1795.75	902.2
971.6336	2443.6557	1791.75	897.2
971.7629	2445.025	1788.35	896.2
971.8922	2446.3937	1788.45	893.15
972.0214	2447.7617	1791.15	897.55
972.1506	2449.1289	1792.9	899.35
972.2798	2450.4955	1787.9	892.35
972.4089	2451.8613	1779.45	886.15
972.538	2453.2265	1783.9	891.4
972.6671	2454.5909	1775.8	880.9
972.7961	2455.9546	1775.5	882.55
972.9251	2457.3177	1771.75	879
973.0541	2458.68	1768.75	873.55
973.1831	2460.0416	1766.15	872.15
973.312	2461.4025	1774.9	882
973.4408	2462.7627	1775.8	871.2
973.5697	2464.1222	1751.45	860.4
973.6985	2465.4811	1759.45	869.1
973.8273	2466.8392	1757.65	864.55
973.956	2468.1966	1763.9	869.3
974.0847	2469.5533	1770.6	876
974.2134	2470.9093	1750.4	858.3
974.3421	2472.2645	1751.7	857.4
974.4707	2473.6191	1749.7	857.3
974.5993	2474.973	1750.4	856.25
974.7278	2476.3262	1748.15	852.6
974.8563	2477.6787	1748.8	855
974.9848	2479.0305	1742	849.1
975.1132	2480.3816	1744.2	850.2
975.2417	2481.7319	1738.75	845.4
975.37	2483.0816	1732.8	840.95
975.4984	2484.4306	1733.6	840.55
975.6267	2485.7789	1720.75	831.7
975.755	2487.1264	1723.35	830.95
975.8833	2488.4733	1723.4	834.95
976.0115	2489.8195	1724.95	826.6
976.1397	2491.165	1724.05	829.6
976.2678	2492.5097	1713.2	820.3
976.3959	2493.8538	1709.2	819.3
976.524	2495.1972	1704.95	810.7
976.6521	2496.5398	1703.25	808
976.7801	2497.8818	1702.25	805.75
976.9081	2499.2231	1698.9	806.5
977.036	2500.5637	1698.4	802.3
977.164	2501.9035	1704.85	809.9
977.2918	2503.2427	1688.2	793.25
977.4197	2504.5812	1686.4	793.85
977.5475	2505.919	1696.15	800.9
977.6753	2507.256	1689.45	797.95
977.8031	2508.5924	1683	790.15
977.9308	2509.9281	1691.95	793.85
978.0585	2511.2631	1687.9	796
978.1861	2512.5974	1676.4	783.95
978.3137	2513.9309	1678.9	788.2
978.4413	2515.2638	1696.2	778.2
978.5689	2516.596	1677.5	785.8
978.6964	2517.9275	1666.25	772.7
978.8239	2519.2583	1669.4	775.3
978.9513	2520.5884	1666.8	771.4
979.0788	2521.9178	1665.9	774.55
979.2062	2523.2465	1654	762.4
979.3335	2524.5745	1662.6	774
979.4608	2525.9018	1653.65	760.3
979.5881	2527.2284	1659.35	767.55
979.7154	2528.5543	1654.2	761.9
979.8426	2529.8796	1656.45	762.5
979.9698	2531.2041	1646.45	753.6
980.0969	2532.5279	1651.2	759.1
980.224	2533.851	1650.8	756.6
980.3511	2535.1735	1644.9	753.25
980.4781	2536.4952	1645.7	752.3
980.6052	2537.8163	1647.4	751.45
980.7321	2539.1366	1645.9	751.8
980.8591	2540.4562	1649.75	754.15
980.986	2541.7752	1643.6	749.55
981.1129	2543.0935	1640.2	746.6
981.2397	2544.411	1644.45	750.65
981.3665	2545.7279	1643.7	751.1
981.4933	2547.0441	1637.25	745.35
981.62	2548.3596	1641.25	744.2
981.7467	2549.6744	1631.5	738
981.8734	2550.9885	1636.35	740.5
982.0001	2552.3019	1633.45	739.45
982.1267	2553.6146	1633.2	740.35
982.2532	2554.9266	1628.95	734.2
982.3798	2556.2379	1613.95	720.65
982.5063	2557.5485	1623.8	733.95
982.6327	2558.8585	1631.25	731.7
982.7592	2560.1677	1624.1	726.9
982.8856	2561.4762	1623.85	729.85
983.0119	2562.7841	1619.6	724.35
983.1383	2564.0913	1616.85	724.8
983.2646	2565.3977	1619.2	727.15
983.3908	2566.7035	1623.2	730.95
983.517	2568.0086	1616.3	722.2
983.6432	2569.313	1605	710.55
983.7694	2570.6167	1607.65	708.4
983.8955	2571.9197	1606.3	712
984.0216	2573.222	1614.65	718.65
984.1476	2574.5236	1609.5	716.05
984.2737	2575.8246	1602.15	707
984.3996	2577.1248	1600.1	702.7
984.5256	2578.4244	1604.45	712
984.6515	2579.7232	1614.75	720.4
984.7774	2581.0214	1636.5	718.55
984.9032	2582.3189	1605.7	714.1
985.029	2583.6157	1612.05	714.15
985.1548	2584.9118	1602.65	709.4
985.2806	2586.2072	1596.55	702.85
985.4063	2587.5019	1600.35	706.15
985.5319	2588.7959	1602.85	708.85
985.6576	2590.0893	1608.2	713.85
985.7832	2591.3819	1600.7	710
985.9087	2592.6739	1598.05	706.2
986.0343	2593.9652	1602.9	709.35
986.1597	2595.2557	1599.65	707.05
986.2852	2596.5456	1608.4	711.1
986.4106	2597.8348	1596.1	704.1
986.536	2599.1234	1596.85	705.6
986.6614	2600.4112	1595.5	703.35
986.7867	2601.6983	1598.05	702.95
986.912	2602.9848	1596.65	704.2
987.0372	2604.2705	1598.4	699.25
987.1624	2605.5556	1595.65	703.8
987.2876	2606.84	1590.55	697.35
987.4128	2608.1237	1585.6	693.1
987.5379	2609.4067	1589.65	701.75
987.6629	2610.689	1592.4	691.2
987.788	2611.9707	1583.05	689.65
987.913	2613.2516	1583.1	687.45
988.0379	2614.5319	1564.75	674.9
988.1629	2615.8115	1569.55	676.35
988.2878	2617.0903	1569.3	677.75
988.4126	2618.3685	1569.4	677.35
988.5375	2619.6461	1570.65	677.6
988.6622	2620.9229	1561.7	670.6
988.787	2622.199	1559.8	668.5
988.9117	2623.4745	1560.9	668.8
989.0364	2624.7493	1556.65	665.7
989.161	2626.0234	1560.45	671.95
989.2857	2627.2968	1554.2	664.5
989.4102	2628.5695	1556.6	662.95
989.5348	2629.8415	1549.25	658.4
989.6593	2631.1128	1551.7	658.4
989.7837	2632.3835	1547.05	653.8
989.9082	2633.6535	1553.1	660.35
990.0326	2634.9228	1545.2	655.25
990.1569	2636.1914	1547.55	657.55
990.2812	2637.4593	1551.9	660.3
990.4055	2638.7265	1540.95	650.05
990.5298	2639.9931	1539.9	650.35
990.654	2641.259	1540.5	650.6
990.7782	2642.5242	1534.6	642.8
990.9023	2643.7887	1537.15	647.55
991.0264	2645.0525	1531.35	640.2
991.1505	2646.3156	1526.15	634.1
991.2745	2647.5781	1522.9	633.65
991.3985	2648.8398	1522.05	631.3
991.5225	2650.1009	1561.8	633.05
991.6464	2651.3613	1526.85	636.4
991.7703	2652.6211	1518.85	628.95
991.8942	2653.8801	1519.1	630.65
992.018	2655.1385	1521.5	628.95
992.1418	2656.3961	1520.05	631.9
992.2655	2657.6531	1523	632.35
992.3892	2658.9094	1525.75	634.75
992.5129	2660.1651	1525.2	634.05
992.6366	2661.42	1516.2	626.15
992.7602	2662.6743	1520.8	631.2
992.8837	2663.9279	1517.55	629.05
993.0073	2665.1808	1517	624.95
993.1307	2666.433	1521.65	631.45
993.2542	2667.6846	1532.05	642.75
993.3776	2668.9354	1537.55	644.55
993.501	2670.1856	1525.7	635.3
993.6244	2671.4351	1535.85	648.3
993.7477	2672.6839	1538.6	646.5
993.8709	2673.9321	1527.9	638.4
993.9942	2675.1795	1538	647.7
994.1174	2676.4263	1527.15	637.3
994.2405	2677.6724	1531.45	641.8
994.3637	2678.9179	1533.2	641.55
994.4868	2680.1626	1536.35	649.15
994.6098	2681.4067	1529.05	639.05
994.7328	2682.6501	1539.3	648.75
994.8558	2683.8928	1526.25	637.45
994.9788	2685.1348	1523.5	637.05
995.1017	2686.3761	1523.4	635.35
995.2245	2687.6168	1509.2	622.85
995.3474	2688.8568	1512.4	620.85
995.4702	2690.0961	1508.1	618
995.5929	2691.3348	1513.35	624.5
995.7156	2692.5727	1505.25	616.55
995.8383	2693.81	1505.4	616.8
995.961	2695.0466	1504.6	618.5
996.0836	2696.2826	1505.55	613.7
996.2062	2697.5178	1511.2	619
996.3287	2698.7524	1506.8	615.05
996.4512	2699.9863	1505.4	614.55
996.5737	2701.2195	1502.05	615.45
996.6961	2702.452	1513.65	622.45
996.8185	2703.6839	1510.7	619.55
996.9408	2704.9151	1513.75	627
997.0631	2706.1456	1519.25	629.15
997.1854	2707.3755	1530.3	640.2
997.3077	2708.6046	1534.55	643.35
997.4299	2709.8331	1543.55	653.35
997.552	2711.0609	1542.9	654.1
997.6742	2712.2881	1553.45	662.45
997.7963	2713.5145	1562.95	670
997.9183	2714.7403	1563.6	675.55
998.0403	2715.9654	1575.3	686.95
998.1623	2717.1899	1599.5	697.5
998.2842	2718.4136	1594.4	706.5
998.4062	2719.6367	1607.5	718.4
998.528	2720.8591	1625.25	728.05
998.6498	2722.0809	1622.5	731.55
998.7716	2723.3019	1639.3	747.2
998.8934	2724.5223	1642.5	751.4
999.0151	2725.7421	1648.7	760.25
999.1368	2726.9611	1656.65	765
999.2584	2728.1795	1661.2	769.35
999.38	2729.3972	1642.45	752.55
999.5016	2730.6142	1639.4	736.65
999.6231	2731.8306	1614.5	725.65
999.7446	2733.0462	1600.7	709.05
999.8661	2734.2612	1585.9	692.8
999.9875	2735.4756	1574.7	683.35
1000.1089	2736.6892	1558.3	668.8
1000.2302	2737.9022	1540.8	653.85
1000.3515	2739.1145	1532.1	643.5
1000.4728	2740.3262	1523.8	628
1000.594	2741.5372	1503.35	614.45
1000.7152	2742.7475	1491.05	603.15
1000.8363	2743.9571	1486.15	597.2
1000.9575	2745.1661	1484.5	593.8
1001.0785	2746.3744	1471.3	582.15
1001.1996	2747.582	1464.95	575.7
1001.3206	2748.7889	1461.05	569.1
1001.4415	2749.9952	1445	557.45
1001.5625	2751.2008	1440.9	553.7
1001.6833	2752.4057	1442.65	550
1001.8042	2753.61	1432	542.55
1001.925	2754.8136	1425.4	535.1
1002.0458	2756.0165	1426.95	539.2
1002.1665	2757.2188	1424.55	536.5
1002.2872	2758.4204	1420.45	534.3
1002.4078	2759.6213	1427.45	538.8
1002.5285	2760.8215	1427.9	535.1
1002.649	2762.0211	1434.2	543.65
1002.7696	2763.22	1431.65	538.5
1002.8901	2764.4182	1426.5	537.35
1003.0106	2765.6158	1421.4	534.4
1003.131	2766.8127	1417.4	529.55
1003.2514	2768.009	1411.1	525.7
1003.3717	2769.2045	1409.65	520.9
1003.492	2770.3994	1406.3	516.95
1003.6123	2771.5936	1402.9	517.25
1003.7325	2772.7872	1394.9	509.15
1003.8527	2773.9801	1396.8	508.4
1003.9729	2775.1723	1415.25	510.6
1004.093	2776.3639	1397	511.6
1004.2131	2777.5548	1399.8	509.3
1004.3331	2778.745	1395.35	506.05
1004.4531	2779.9346	1393.2	507.3
1004.5731	2781.1235	1395.1	505.7
1004.693	2782.3117	1396.3	509.85
1004.8129	2783.4992	1396.95	510.85
1004.9328	2784.6861	1407	521.25
1005.0526	2785.8723	1404.2	515.25
1005.1723	2787.0579	1408.2	519.1
1005.2921	2788.2428	1406.45	519.05
1005.4118	2789.427	1417.3	532
1005.5314	2790.6106	1430.55	543.4
1005.651	2791.7935	1437.35	549.65
1005.7706	2792.9757	1434.5	545.9
1005.8902	2794.1573	1447.25	557.95
1006.0097	2795.3382	1449.75	564.55
1006.1291	2796.5184	1461.6	577.1
1006.2485	2797.698	1474.6	587.5
1006.3679	2798.8769	1475.85	591.75
1006.4873	2800.0551	1485.25	595.3
1006.6066	2801.2327	1510.05	621.35
1006.7258	2802.4096	1517.15	630.95
1006.8451	2803.5859	1532.35	646.2
1006.9642	2804.7615	1552.65	667.8
1007.0834	2805.9364	1566.4	680.95
1007.2025	2807.1106	1588.15	703.35
1007.3216	2808.2842	1603.95	716.65
1007.4406	2809.4572	1643.7	755.35
1007.5596	2810.6294	1663.55	774.7
1007.6785	2811.801	1707.4	823.6
1007.7975	2812.972	1734.7	849.45
1007.9163	2814.1423	1772.6	886.2
1008.0352	2815.3119	1816.75	930.85
1008.154	2816.4808	1858.45	972.65
1008.2727	2817.6491	1913.95	1027.1
1008.3914	2818.8167	1972.55	1088.75
1008.5101	2819.9837	2027.1	1138.05
1008.6288	2821.15	2072.55	1185.4
1008.7474	2822.3157	2121.35	1236.85
1008.8659	2823.4807	2188.35	1300.45
1008.9844	2824.645	2246.95	1361.3
1009.1029	2825.8086	2301.1	1414.85
1009.2214	2826.9716	2361	1474.55
1009.3398	2828.134	2415.35	1529.75
1009.4581	2829.2957	2461.05	1575.15
1009.5764	2830.4567	2503.95	1620.5
1009.6947	2831.617	2521.5	1635.6
1009.813	2832.7767	2532.95	1649.35
1009.9312	2833.9358	2523.5	1637.1
1010.0493	2835.0941	2515.85	1626.2
1010.1675	2836.2519	2505.05	1618.1
1010.2855	2837.4089	2490.85	1606.4
1010.4036	2838.5653	2471.7	1586.85
1010.5216	2839.7211	2458.45	1572.7
1010.6396	2840.8761	2463.05	1577.8
1010.7575	2842.0306	2475.65	1590.65
1010.8754	2843.1843	2489.25	1606.7
1010.9932	2844.3374	2505.6	1620.95
1011.111	2845.4899	2560.7	1675.4
1011.2288	2846.6417	2622.8	1738.55
1011.3465	2847.7928	2674.5	1789.8
1011.4642	2848.9433	2733.9	1849.45
1011.5818	2850.0931	2791.15	1906.9
1011.6995	2851.2422	2864.4	1980.2
1011.817	2852.3907	2902.05	2018.45
1011.9345	2853.5385	2967	2081.7
1012.052	2854.6857	3028.25	2115.25
1012.1695	2855.8323	3069.6	2184.8
1012.2869	2856.9781	3126.3	2240.4
1012.4042	2858.1233	3176.05	2289.9
1012.5216	2859.2679	3219.35	2334.9
1012.6389	2860.4118	3262.35	2374.95
1012.7561	2861.555	3321.85	2431.6
1012.8733	2862.6976	3352.35	2465.5
1012.9905	2863.8395	3395.05	2509.95
1013.1076	2864.9808	3432.95	2548.8
1013.2247	2866.1214	3438.65	2553.6
1013.3417	2867.2614	3464.7	2578.5
1013.4587	2868.4007	3488.7	2601.7
1013.5757	2869.5393	3496.55	2608.6
1013.6926	2870.6773	3497.85	2610.4
1013.8095	2871.8146	3525.1	2636.85
1013.9263	2872.9513	3530.9	2640.85
1014.0431	2874.0874	3510.9	2622.55
1014.1599	2875.2227	3495.85	2611.05
1014.2766	2876.3574	3482.75	2600.25
1014.3933	2877.4915	3467.85	2582.45
1014.51	2878.6249	3433.9	2553.1
1014.6266	2879.7577	3408.35	2521.05
1014.7431	2880.8898	3399.35	2504.85
1014.8596	2882.0212	3376.05	2493.4
1014.9761	2883.152	3364.25	2479.9
1015.0925	2884.2821	3346.7	2462.7
1015.2089	2885.4116	3344.95	2460.15
1015.3253	2886.5405	3348.85	2464.4
1015.4416	2887.6686	3351.1	2465.3
1015.5579	2888.7962	3350.75	2469.25
1015.6741	2889.923	3371.1	2489.65
1015.7903	2891.0493	3361.6	2480.3
1015.9065	2892.1748	3392.3	2508.7
1016.0226	2893.2997	3385.4	2503.05
1016.1387	2894.424	3414.8	2531.15
1016.2547	2895.5476	3426.4	2544.3
1016.3707	2896.6706	3440.2	2555.6
1016.4866	2897.7929	3470.75	2585.65
1016.6025	2898.9145	3491.2	2609
1016.7184	2900.0355	3519.05	2633.55
1016.8342	2901.1559	3543.3	2661
1016.95	2902.2756	3590.7	2702.5
1017.0658	2903.3946	3620.9	2737.7
1017.1815	2904.513	3639	2753.5
1017.2971	2905.6308	3666.1	2783.35
1017.4127	2906.7479	3679.25	2793.85
1017.5283	2907.8643	3709.6	2827.5
1017.6439	2908.9801	3719.2	2836.85
1017.7594	2910.0953	3714.1	2831.6
1017.8748	2911.2098	3734.9	2846.9
1017.9902	2912.3236	3723.7	2835.6
1018.1056	2913.4368	3707.9	2821.15
1018.2209	2914.5494	3692.4	2808.7
1018.3362	2915.6613	3663.65	2773.65
1018.4515	2916.7725	3634.75	2748.85
1018.5667	2917.8831	3590.8	2704.6
1018.6819	2918.9931	3580.35	2693.65
1018.797	2920.1024	3549.05	2664.85
1018.9121	2921.211	3527.8	2644.35
1019.0271	2922.319	3517.55	2633.35
1019.1421	2923.4264	3493.95	2611.95
1019.2571	2924.5331	3482.8	2600.2
1019.372	2925.6391	3475.3	2593.5
1019.4869	2926.7445	3482.55	2598.8
1019.6017	2927.8493	3482.3	2598.2
1019.7165	2928.9534	3480.05	2595
1019.8313	2930.0569	3474.05	2589.2
1019.946	2931.1597	3480.65	2595.1
1020.0606	2932.2619	3487.7	2605.25
1020.1753	2933.3634	3497.8	2615.15
1020.2899	2934.4643	3500.5	2612.05
1020.4044	2935.5645	3486.55	2598.3
1020.5189	2936.6641	3478.45	2590.4
1020.6334	2937.763	3434.6	2551.85
1020.7478	2938.8613	3400.15	2517.3
1020.8622	2939.959	3362.05	2475.25
1020.9765	2941.056	3302.1	2420.85
1021.0908	2942.1523	3217.95	2333.45
1021.2051	2943.248	3147.35	2265.15
1021.3193	2944.3431	3068.1	2187.55
1021.4334	2945.4375	2973.95	2090.3
1021.5476	2946.5313	2869.35	1986.7
1021.6617	2947.6244	2775.65	1891.45
1021.7757	2948.7169	2674.4	1790
1021.8897	2949.8087	2585.75	1701.35
1022.0037	2950.8999	2493.4	1609.55
1022.1176	2951.9904	2410.2	1529.4
1022.2315	2953.0803	2342.9	1459.25
1022.3453	2954.1696	2289.1	1405.8
1022.4591	2955.2582	2231.75	1349.25
1022.5728	2956.3462	2179.9	1296.2
1022.6865	2957.4335	2152	1269.3
1022.8002	2958.5202	2114.6	1230.65
1022.9138	2959.6062	2083.9	1200.2
1023.0274	2960.6916	2058.75	1178
1023.141	2961.7764	2041.4	1159.2
1023.2545	2962.8605	2029.65	1146.35
1023.3679	2963.9439	2021.75	1141.2
1023.4813	2965.0267	2004.1	1121.35
1023.5947	2966.1089	2010.8	1106.15
1023.708	2967.1905	1989.2	1108
1023.8213	2968.2714	1981.65	1100.3
1023.9346	2969.3516	1974.6	1093.8
1024.0478	2970.4312	1991.85	1100.85
1024.1609	2971.5102	1992.3	1111.9
1024.274	2972.5885	1990.8	1109.3
1024.3871	2973.6662	1998.65	1111.25
1024.5002	2974.7432	1991.75	1108.75
1024.6132	2975.8196	1990.2	1108.25
1024.7261	2976.8954	1978.3	1095.3
1024.839	2977.9705	1974.35	1092.5
1024.9519	2979.045	1960.4	1079.05
1025.0647	2980.1188	1950.15	1068.8
1025.1775	2981.192	1937.95	1056.8
1025.2902	2982.2645	1919.05	1035.35
1025.4029	2983.3364	1894.8	1013.15
1025.5156	2984.4077	1860.4	978.55
1025.6282	2985.4783	1852.75	966.15
1025.7407	2986.5483	1812.25	930.7
1025.8532	2987.6177	1783.6	900.45
1025.9657	2988.6864	1740.95	857.9
1026.0782	2989.7545	1715.95	833.6
1026.1906	2990.8219	1679.85	798.45
1026.3029	2991.8887	1650.55	768.25
1026.4152	2992.9548	1626.95	744.7
1026.5275	2994.0204	1589.2	706.4
1026.6397	2995.0852	1558.2	677.8
1026.7519	2996.1495	1534.85	650.4
1026.864	2997.2131	1506.1	625.85
1026.9761	2998.276	1486.75	604.65
1027.0882	2999.3383	1468.9	586.1
1027.2002	3000.4	1437.95	556.15
1027.3122	3001.4611	1424	543.15
1027.4241	3002.5215	1408.35	525.8
1027.536	3003.5812	1390.75	510.25
1027.6478	3004.6404	1375.7	493.7
1027.7596	3005.6989	1365.05	479.95
1027.8714	3006.7567	1351.55	468.95
1027.9831	3007.8139	1373.25	459.9
1028.0947	3008.8705	1337.3	456.7
1028.2064	3009.9264	1328.45	443.35
1028.3179	3010.9818	1314.75	431.3
1028.4295	3012.0364	1310.9	427.7
1028.541	3013.0905	1299.55	417.8
1028.6524	3014.1439	1295.1	414.9
1028.7638	3015.1966	1290.8	408.5
1028.8752	3016.2487	1294.8	411.9
1028.9865	3017.3002	1291.45	402.75
1029.0978	3018.3511	1278.4	399.4
1029.209	3019.4013	1282.25	400.8
1029.3202	3020.4509	1275.5	394.45
1029.4314	3021.4998	1270.3	388.35
1029.5425	3022.5481	1274.1	393.1
1029.6535	3023.5958	1276.3	394.8
1029.7645	3024.6428	1270.9	388.8
1029.8755	3025.6892	1267.8	387.75
1029.9864	3026.735	1272.25	391.75
1030.0973	3027.7802	1272.5	390.85
1030.2082	3028.8247	1265.95	385.7
1030.319	3029.8685	1269.3	388.5
1030.4297	3030.9118	1273.95	393.95
1030.5404	3031.9544	1279.8	398.45
1030.6511	3032.9963	1275	394.2
1030.7617	3034.0376	1271.95	391.2
1030.8723	3035.0783	1276.95	395.95
1030.9829	3036.1184	1274.5	393.6
1031.0934	3037.1578	1282.65	400.95
1031.2038	3038.1966	1283.75	402.65
1031.3142	3039.2348	1281.4	398.8
1031.4246	3040.2723	1290.75	400.15
1031.5349	3041.3092	1284.45	405.25
1031.6452	3042.3455	1288.65	408.1
1031.7554	3043.3811	1283.3	401.95
1031.8656	3044.4161	1285.5	404
1031.9758	3045.4505	1282.1	401.85
1032.0859	3046.4842	1278.4	396.2
1032.1959	3047.5173	1273.4	393.45
1032.3059	3048.5498	1271.3	390.75
1032.4159	3049.5816	1268.4	387.4
1032.5258	3050.6128	1270.5	387.5
1032.6357	3051.6434	1267.1	385.95
1032.7455	3052.6734	1259.05	378.4
1032.8553	3053.7027	1258.55	378.2
1032.9651	3054.7314	1256.15	377.8
1033.0748	3055.7594	1249.35	371.8
1033.1845	3056.7868	1250.55	368.2
1033.2941	3057.8136	1243.45	363.75
1033.4037	3058.8398	1241.65	361.25
1033.5132	3059.8653	1242.1	363.25
1033.6227	3060.8902	1235.3	355.3
1033.7321	3061.9145	1238.6	357.65
1033.8415	3062.9381	1237.2	358.45
1033.9509	3063.9612	1248.3	350.7
1034.0602	3064.9835	1229.95	349.55
1034.1694	3066.0053	1224.35	342
1034.2787	3067.0264	1224.7	345.7
1034.3878	3068.0469	1226.2	345.2
1034.497	3069.0668	1218.45	336.9
1034.6061	3070.086	1204.2	326.45
1034.7151	3071.1046	1204.35	323.55
1034.8241	3072.1226	1198.05	313.2
1034.9331	3073.1399	1190.6	312.95
1035.042	3074.1567	1191	308.9
1035.1508	3075.1727	1176.6	294.15
1035.2597	3076.1882	1168.25	287.9
1035.3684	3077.203	1169	288.35
1035.4772	3078.2173	1161.15	278.95
1035.5859	3079.2308	1152.9	269.55
1035.6945	3080.2438	1152.1	271.05
1035.8031	3081.2561	1142.3	263.1
1035.9117	3082.2678	1132.8	252.65
1036.0202	3083.2789	1127.25	246.2
1036.1286	3084.2893	1124.25	244.95
1036.2371	3085.2991	1117.5	235.3
1036.3454	3086.3083	1116.3	231.4
1036.4538	3087.3169	1104.7	222.65
1036.562	3088.3248	1112.35	229.9
1036.6703	3089.3321	1101.4	220.15
1036.7785	3090.3388	1095.4	216.9
1036.8866	3091.3449	1090.3	211.65
1036.9948	3092.3503	1090.3	208.05
1037.1028	3093.3551	1085.7	204.8
1037.2108	3094.3593	1079.05	201.1
1037.3188	3095.3629	1079.8	202.35
1037.4267	3096.3658	1076.05	195.2
1037.5346	3097.3681	1071.4	191.95
1037.6425	3098.3698	1072.7	189.5
1037.7503	3099.3708	1070.35	184.05
1037.858	3100.3713	1062.5	182.3
1037.9657	3101.3711	1062.45	182.5
1038.0734	3102.3702	1171.05	177.55
1038.181	3103.3688	1058.55	177.45
1038.2886	3104.3667	1057.95	179.15
1038.3961	3105.364	1056.15	176.55
1038.5036	3106.3607	1052.5	170.4
1038.611	3107.3568	1051.4	170.95
1038.7184	3108.3522	1049.25	171.15
1038.8257	3109.347	1044.35	163.75
1038.933	3110.3412	1045.55	162.75
1039.0403	3111.3348	1036.75	156.6
1039.1475	3112.3277	1039.9	158.75
1039.2547	3113.32	1039.55	160.7
1039.3618	3114.3117	1035.35	153.25
1039.4689	3115.3028	1032.95	151.65
1039.5759	3116.2932	1037.25	154.05
1039.6829	3117.2831	1035.15	150.15
1039.7898	3118.2723	1026.5	147
1039.8967	3119.2608	1027.25	148
1040.0035	3120.2488	1025.55	145.7
1040.1103	3121.2361	1023.25	143.35
1040.2171	3122.2229	1019.1	138.9
1040.3238	3123.209	1024.05	143.2
1040.4305	3124.1944	1019.6	140.8
1040.5371	3125.1793	1019	138.35
1040.6437	3126.1635	1017.7	138.9
1040.7502	3127.1471	1014.4	136.9
1040.8567	3128.1301	1014.8	134.45
1040.9631	3129.1125	1012.4	134.45
1041.0695	3130.0942	1014.85	135.3
1041.1759	3131.0753	1018	128.15
1041.2822	3132.0558	1008.6	126.95
1041.3884	3133.0357	1012.4	131.95
1041.4946	3134.015	1006.9	125.6
1041.6008	3134.9936	1009.75	129
1041.7069	3135.9716	1023.6	123.35
1041.813	3136.949	1002.35	123.8
1041.919	3137.9258	1025	126.9
1042.025	3138.902	1007.15	122.7
1042.1309	3139.8775	1002.75	125.55
1042.2368	3140.8524	1002.45	122.75
1042.3427	3141.8267	1000.9	120
1042.4485	3142.8004	1000.6	120.95
1042.5542	3143.7735	1005.8	119.65
1042.6599	3144.7459	999.75	119.05
1042.7656	3145.7178	1000.95	118.95
1042.8712	3146.689	992.45	114.25
1042.9768	3147.6596	995.45	113.45
1043.0823	3148.6295	994.1	113.25
1043.1878	3149.5989	991.4	112.3
1043.2932	3150.5676	989.6	110.4
1043.3986	3151.5357	988.95	110.1
1043.5039	3152.5032	988.85	109.15
1043.6092	3153.4701	985.2	104.15
1043.7145	3154.4364	990.1	108.4
1043.8197	3155.402	985.95	107.25
1043.9248	3156.367	987.1	105.1
1044.03	3157.3315	1022.1	108.25
1044.135	3158.2952	984.7	105.75
1044.24	3159.2584	983.65	105.4
1044.345	3160.221	983.95	105.3
1044.4499	3161.1829	981.8	101.05
1044.5548	3162.1442	980	100.9
1044.6596	3163.105	981	101.05
1044.7644	3164.065	977.55	99
1044.8692	3165.0245	981.45	98
1044.9739	3165.9834	979.55	101.45
1045.0785	3166.9416	974.85	97.3
1045.1831	3167.8993	978.65	98.75
1045.2877	3168.8563	977.25	97.45
1045.3922	3169.8127	980.75	100.45
1045.4966	3170.7684	974.85	94.6
1045.6011	3171.7236	973.1	92.85
1045.7054	3172.6782	972.75	93.45
1045.8098	3173.6321	973.7	94.3
1045.914	3174.5854	980.15	96.9
1046.0183	3175.5381	973.45	94.15
1046.1224	3176.4902	970.15	91.25
1046.2266	3177.4417	968.4	91.05
1046.3307	3178.3926	968.45	88.6
1046.4347	3179.3428	967.65	89.2
1046.5387	3180.2924	969.1	88.85
1046.6427	3181.2415	968.6	90.1
1046.7466	3182.1899	968.2	88.65
1046.8504	3183.1377	968.55	90.3
1046.9542	3184.0848	970	89.35
1047.058	3185.0314	966.05	85.3
1047.1617	3185.9773	966.55	87.65
1047.2654	3186.9227	962.8	82.3
1047.369	3187.8674	965.95	86
1047.4726	3188.8115	969.35	87.9
1047.5761	3189.755	963.8	85.35
1047.6796	3190.6979	961.15	83.8
1047.783	3191.6402	960.2	82.75
1047.8864	3192.5818	960.6	83.05
1047.9898	3193.5229	964.95	81.4
1048.0931	3194.4633	961.8	82.6
1048.1963	3195.4031	959.7	79.45
1048.2995	3196.3423	959.35	79.85
1048.4027	3197.2809	959.7	81
1048.5058	3198.2189	957.9	78.85
1048.6089	3199.1563	974.15	77.9
1048.7119	3200.0931	959.85	82.05
1048.8148	3201.0292	957.05	80.2
1048.9178	3201.9648	956.35	76.15
1049.0206	3202.8997	956.7	74.35
1049.1235	3203.834	955.9	78.7
1049.2262	3204.7677	954.15	77.35
1049.329	3205.7008	955.4	74.55
1049.4317	3206.6333	952.1	77.4
1049.5343	3207.5652	951.8	71
1049.6369	3208.4964	953.45	75.35
1049.7394	3209.4271	952.55	72.55
1049.8419	3210.3571	951.05	73.35
1049.9444	3211.2865	951.1	70.05
1050.0468	3212.2154	955.1	75.75
1050.1491	3213.1436	955.1	72.85
1050.2514	3214.0712	958.85	74.7
1050.3537	3214.9982	952.4	75.65
1050.4559	3215.9246	953.1	73.3
1050.5581	3216.8503	949.6	71.1
1050.6602	3217.7755	949.2	69.25
1050.7623	3218.7001	950.45	72.45
1050.8643	3219.624	947.6	69.05
1050.9663	3220.5473	950.15	71.45
1051.0682	3221.4701	948.95	69.45
1051.1701	3222.3922	948.4	67.5
1051.2719	3223.3137	947.05	68.2
1051.3737	3224.2346	947	68.55
1051.4754	3225.1549	947.25	68.55
1051.5771	3226.0746	946.65	70.25
1051.6788	3226.9937	947.1	68.9
1051.7804	3227.9121	945.9	69.2
1051.8819	3228.83	948.05	71.25
1051.9834	3229.7473	943.25	62.75
1052.0849	3230.6639	941.95	62.75
1052.1863	3231.5799	944.6	68.5
1052.2876	3232.4954	944.9	64.75
1052.3889	3233.4102	943.75	66.55
1052.4902	3234.3244	943.1	61.9
1052.5914	3235.238	943.35	65.7
1052.6926	3236.151	965.3	62.65
1052.7937	3237.0634	941.15	64.85
1052.8948	3237.9752	940.4	62.45
1052.9958	3238.8864	939.65	62.25
1053.0968	3239.797	938.55	61.4
1053.1977	3240.7069	941.9	63.65
1053.2986	3241.6163	937.25	56.1
1053.3994	3242.5251	935.15	58.1
1053.5002	3243.4332	933	53.5
1053.6009	3244.3408	934.8	54.3
1053.7016	3245.2477	936.9	57.85
1053.8022	3246.154	938.4	61.25
1053.9028	3247.0598	936.3	56.65
1054.0034	3247.9649	934.9	55.5
1054.1039	3248.8694	933.5	56.35
1054.2043	3249.7733	933	56.7
1054.3047	3250.6766	933.9	54.95
1054.4051	3251.5793	934.65	55.3
1054.5054	3252.4814	933.05	54.3
1054.6056	3253.3829	931.8	53.1
1054.7058	3254.2838	930.7	54.5
1054.806	3255.1841	926.3	50.6
1054.9061	3256.0838	930.35	51.75
1055.0061	3256.9829	928	50.45
1055.1062	3257.8814	931.45	49.1
1055.2061	3258.7792	930.05	50.65
1055.306	3259.6765	929.5	49.9
1055.4059	3260.5731	928.2	50.65
1055.5057	3261.4692	926.7	47.95
1055.6055	3262.3647	925.75	45.9
1055.7052	3263.2595	925.3	48.2
1055.8049	3264.1538	924.35	46.85
1055.9045	3265.0474	923.35	44.1
1056.0041	3265.9404	923.35	46
1056.1036	3266.8329	920.65	42.6
1056.2031	3267.7247	930	42
1056.3025	3268.616	920.75	44.85
1056.4019	3269.5066	918.15	39.55
1056.5013	3270.3966	920.8	43.55
1056.6005	3271.286	916.5	38.75
