Software Version:	3.9.2.0
Unit SN:	10000200
Spectrometer SN:	6960
Date:	3/8/2024 11:25:25 AM
Data Line Index:	25
Spectral Points:	2048
Integration time (ms):	125
Averages:	20
Delay (ms):	30000
Sequence Number:	1
Processing:	dark subtract
Laser Power (mW):	300
Laser Current (mA):	823
Laser Diode Temp (C):	25
Laser Case Temp (C):	25
System Temp (C):	24.9
Spectrometer Temp (C):	22.7
CCD Temp (C):	0.012
Secondary Temp (C):	20.007
Heatsink Temp (C):	19.443
CCDPCB Temp (C):	33.539
SecondaryPCB Temp (C):	26.97

Wavelength	RamanShift	Raw Counts	Dark Subtracted
787.061	30.1047	415.8	5.8
787.2016	32.3739	415.7	8.2
787.3422	34.6426	415.2	7.2
787.4828	36.9109	416.65	7.1
787.6235	39.1787	421.2	6.85
787.7642	41.4461	427.05	7.85
787.9049	43.7131	433.45	11.15
788.0456	45.9796	435.65	12.25
788.1863	48.2456	440.85	13.05
788.3271	50.5112	444.5	13.5
788.4679	52.7764	446.6	11.55
788.6087	55.0411	453.55	13.1
788.7496	57.3054	457.55	11.55
788.8904	59.5692	460.2	13.9
789.0313	61.8326	464.35	14.75
789.1722	64.0955	468.45	16.05
789.3132	66.3579	475.2	16.95
789.4541	68.6199	483.75	22.8
789.5951	70.8815	491.2	25.25
789.7361	73.1426	513.65	44.65
789.8771	75.4032	545.65	71.7
790.0181	77.6634	624.95	147.5
790.1592	79.9231	801.7	321.3
790.3003	82.1824	1175.1	687.1
790.4414	84.4412	1783.8	1278
790.5825	86.6995	2547.7	2025.4
790.7237	88.9574	3291.25	2754.3
790.8648	91.2148	3796.15	3251.55
791.006	93.4717	4018.2	3464.3
791.1472	95.7282	4056.65	3496.95
791.2885	97.9842	4038.45	3479.25
791.4297	100.2398	3981.7	3418.95
791.571	102.4949	3939.25	3375.1
791.7123	104.7495	3900.15	3332.7
791.8536	107.0036	3856.4	3286.8
791.9949	109.2573	3770.7	3204.15
792.1363	111.5105	3684.9	3112.85
792.2777	113.7632	3602.75	3027.8
792.4191	116.0154	3507.7	2923.9
792.5605	118.2672	3405.55	2827.8
792.7019	120.5185	3290.5	2711.45
792.8434	122.7693	3191.95	2608.5
792.9849	125.0197	3114.8	2526.45
793.1264	127.2696	3017.1	2427.5
793.2679	129.519	2981.75	2389.05
793.4094	131.7679	2945.5	2348.85
793.551	134.0163	2928.2	2330.05
793.6926	136.2642	2905.5	2302.4
793.8342	138.5117	2927.9	2321.25
793.9758	140.7587	2890.2	2283.4
794.1175	143.0052	2838.9	2232.4
794.2591	145.2512	2801.5	2191.3
794.4008	147.4967	2739.7	2128.6
794.5425	149.7417	2691.85	2078.6
794.6842	151.9863	2650.15	2032.25
794.826	154.2304	2652.7	2029.35
794.9677	156.4739	2637.75	2009.3
795.1095	158.717	2644.05	2017.6
795.2513	160.9596	2690.7	2056.1
795.3931	163.2017	2707.9	2072.35
795.535	165.4433	2729.95	2091.45
795.6768	167.6844	2718.55	2080.2
795.8187	169.925	2708.2	2067.8
795.9606	172.1651	2652.9	2009.3
796.1025	174.4047	2587.6	1938.25
796.2445	176.6439	2555.9	1905.35
796.3864	178.8825	2525.05	1870.35
796.5284	181.1206	2511.2	1856.55
796.6704	183.3582	2491.3	1829.9
796.8124	185.5954	2487.2	1825.6
796.9544	187.832	2490.25	1823.45
797.0965	190.0681	2496.1	1827.3
797.2386	192.3037	2498.95	1825.15
797.3806	194.5388	2500	1825.35
797.5228	196.7734	2520.85	1844.2
797.6649	199.0075	2538.4	1860.55
797.807	201.2411	2556.7	1875.7
797.9492	203.4742	2579.95	1900.25
798.0914	205.7068	2617.7	1931.55
798.2336	207.9389	2634.95	1946.45
798.3758	210.1704	2632.3	1950.6
798.518	212.4015	2641.9	1971.95
798.6603	214.632	2647.7	1981.45
798.8025	216.862	2652.35	1989.7
798.9448	219.0915	2647.8	1981.9
799.0871	221.3205	2672.4	2003.25
799.2294	223.549	2672.45	2008.65
799.3718	225.777	2673.5	2013.15
799.5141	228.0044	2678.4	2006.4
799.6565	230.2314	2675.4	2002.35
799.7989	232.4578	2654.65	1977.55
799.9413	234.6837	2646.85	1961.65
800.0837	236.909	2637.75	1950.25
800.2262	239.1339	2642.7	1936.15
800.3687	241.3582	2617.35	1919.1
800.5111	243.582	2644.2	1916.25
800.6536	245.8053	2640.2	1926.7
800.7961	248.0281	2651.8	1946.4
800.9387	250.2503	2648	1936.9
801.0812	252.472	2649	1934.55
801.2238	254.6932	2667.4	1952.1
801.3664	256.9139	2664.9	1946.15
801.509	259.134	2697.35	1976.5
801.6516	261.3536	2700.15	1983.95
801.7942	263.5727	2759.6	2042.35
801.9369	265.7912	2801.05	2082.4
802.0795	268.0092	2853.05	2133.7
802.2222	270.2267	2918.3	2198.6
802.3649	272.4436	2962.75	2241.25
802.5076	274.6601	3002.45	2270.2
802.6504	276.8759	3025.75	2298.3
802.7931	279.0913	3055.35	2325.15
802.9359	281.3061	3071.3	2342.7
803.0787	283.5204	3097.5	2363.85
803.2215	285.7341	3126.05	2391.3
803.3643	287.9473	3140.1	2400.4
803.5071	290.16	3149	2410.1
803.6499	292.3721	3098.1	2363.2
803.7928	294.5837	3057.8	2321.9
803.9357	296.7947	3026.55	2291.95
804.0786	299.0052	3007.3	2268.5
804.2215	301.2152	2990.75	2250.85
804.3644	303.4246	2982.5	2246.3
804.5074	305.6334	2961.95	2226
804.6503	307.8418	2953.95	2212.75
804.7933	310.0495	2930.45	2189.75
804.9363	312.2568	2895.2	2151.05
805.0793	314.4635	2849.75	2104.95
805.2223	316.6696	2801.85	2055.45
805.3653	318.8752	2750.4	1994.05
805.5084	321.0802	2713.45	1966.05
805.6514	323.2847	2706.2	1958.25
805.7945	325.4887	2714.1	1965.45
805.9376	327.692	2743.6	1992.5
806.0807	329.8949	2777.65	2022.75
806.2238	332.0972	2823.95	2069.3
806.367	334.2989	2856.5	2099.75
806.5101	336.5001	2867.45	2108.55
806.6533	338.7007	2841.75	2082.45
806.7965	340.9008	2785.05	2024.05
806.9397	343.1003	2724.8	1961.75
807.0829	345.2992	2670	1904.65
807.2261	347.4976	2617.55	1855.5
807.3693	349.6955	2588.3	1816.9
807.5126	351.8927	2570.25	1801.9
807.6559	354.0895	2551.7	1770.45
807.7991	356.2856	2531	1756.5
807.9424	358.4812	2522	1749.95
808.0857	360.6763	2519.8	1743.7
808.2291	362.8707	2515.8	1741.45
808.3724	365.0646	2518.85	1740.1
808.5158	367.258	2528.6	1749.2
808.6591	369.4508	2535.75	1752.45
808.8025	371.643	2568.7	1784.8
808.9459	373.8346	2607.25	1822.75
809.0893	376.0257	2641.2	1851.65
809.2327	378.2162	2669.45	1884.9
809.3762	380.4062	2686.95	1900.4
809.5196	382.5956	2666.8	1882.15
809.6631	384.7844	2621.15	1839.9
809.8066	386.9726	2559.2	1779.1
809.9501	389.1603	2527.3	1750.6
810.0936	391.3474	2538.35	1729.1
810.2371	393.5339	2516.7	1735.55
810.3806	395.7199	2524.35	1743.65
810.5241	397.9052	2548.3	1767.45
810.6677	400.09	2580.95	1796.6
810.8113	402.2743	2649.95	1869.45
810.9548	404.4579	2690.95	1906.95
811.0984	406.641	2733.85	1949.55
811.2421	408.8235	2777.55	1992.7
811.3857	411.0054	2828.15	2039
811.5293	413.1868	2884.9	2092.6
811.673	415.3675	2946.3	2150.15
811.8166	417.5477	2949.25	2153.4
811.9603	419.7273	2888.45	2088.9
812.104	421.9064	2801.75	1997.2
812.2477	424.0848	2745.25	1946.9
812.3914	426.2627	2671.6	1873.25
812.5351	428.4399	2602	1800.1
812.6788	430.6166	2542.15	1737.2
812.8226	432.7928	2489.65	1685.85
812.9663	434.9683	2446.9	1644.55
813.1101	437.1432	2423.15	1617.45
813.2539	439.3176	2403.3	1599.15
813.3977	441.4914	2388.35	1584.3
813.5415	443.6645	2379.8	1574.8
813.6853	445.8371	2386.4	1579.5
813.8291	448.0091	2382	1572.7
813.973	450.1806	2382.45	1577.1
814.1168	452.3514	2375.95	1568.35
814.2607	454.5216	2385.3	1568.45
814.4046	456.6913	2370.4	1558.4
814.5485	458.8603	2370.35	1558.3
814.6924	461.0288	2381.25	1573.3
814.8363	463.1967	2379.8	1571.1
814.9802	465.3639	2379.7	1570.25
815.1241	467.5306	2375.4	1564
815.2681	469.6967	2361.2	1548.45
815.412	471.8622	2352.4	1542.7
815.556	474.0271	2343.6	1534.4
815.7	476.1914	2350.35	1533.95
815.844	478.3551	2339.5	1525.6
815.988	480.5182	2344.4	1530.55
816.132	482.6807	2335.15	1521.85
816.276	484.8426	2370.5	1559.7
816.4201	487.0039	2409.85	1597.2
816.5641	489.1647	2462.1	1645.55
816.7082	491.3248	2510.1	1693.55
816.8522	493.4843	2529.35	1716.3
816.9963	495.6432	2533.6	1718.6
817.1404	497.8015	2493.25	1672.7
817.2845	499.9592	2444.8	1620.8
817.4286	502.1163	2385.2	1563
817.5727	504.2728	2351.5	1530.7
817.7168	506.4287	2315.95	1497.5
817.861	508.5839	2306.55	1487.75
818.0051	510.7386	2289.75	1470.4
818.1493	512.8927	2304.85	1475.5
818.2935	515.0461	2314.45	1491.65
818.4377	517.199	2329.65	1504.05
818.5818	519.3512	2372.05	1547.5
818.726	521.5029	2438.1	1608.6
818.8703	523.6539	2504.85	1678.15
819.0145	525.8043	2511.7	1686.1
819.1587	527.9541	2452.75	1623.75
819.303	530.1033	2384.05	1551.7
819.4472	532.2519	2329.3	1499.6
819.5915	534.3999	2306.75	1474.85
819.7357	536.5472	2297.1	1469.6
819.88	538.694	2297.1	1468.35
820.0243	540.8401	2310.35	1477.35
820.1686	542.9856	2333.5	1501.25
820.3129	545.1305	2350.35	1513.55
820.4572	547.2748	2355.95	1520.5
820.6016	549.4185	2376.45	1538.8
820.7459	551.5615	2380	1543.95
820.8902	553.704	2400.25	1565.15
821.0346	555.8458	2420.35	1587.5
821.1789	557.987	2421.35	1587.05
821.3233	560.1276	2459.45	1626.3
821.4677	562.2675	2522.6	1690.4
821.6121	564.4069	2610.85	1775.35
821.7565	566.5456	2641.8	1808.95
821.9009	568.6837	2627.15	1792.8
822.0453	570.8212	2544	1709.75
822.1897	572.958	2442.25	1603.85
822.3342	575.0942	2382.75	1547.5
822.4786	577.2299	2334.7	1499.7
822.6231	579.3648	2309.5	1477.9
822.7675	581.4992	2291.45	1460.8
822.912	583.6329	2303.4	1472.05
823.0565	585.766	2340.45	1509.1
823.201	587.8985	2378.7	1547.4
823.3454	590.0304	2438.9	1588.25
823.4899	592.1616	2477.3	1635.55
823.6345	594.2922	2478.65	1635.9
823.779	596.4222	2443.9	1601.4
823.9235	598.5515	2384.75	1540.9
824.068	600.6802	2316.8	1476.8
824.2126	602.8083	2255.3	1413.95
824.3571	604.9358	2250.9	1406.7
824.5017	607.0626	2239.75	1394.6
824.6462	609.1888	2255.45	1410.8
824.7908	611.3144	2285.45	1439.55
824.9354	613.4393	2326.15	1478.8
825.08	615.5636	2372.9	1526.05
825.2246	617.6873	2434.95	1588.95
825.3692	619.8103	2466.5	1615.9
825.5138	621.9327	2473.35	1622.75
825.6584	624.0544	2428.2	1580.9
825.803	626.1756	2370.1	1525.7
825.9477	628.2961	2305.8	1458.5
826.0923	630.4159	2284.9	1437.05
826.237	632.5351	2266.9	1414.95
826.3816	634.6537	2255.95	1403.45
826.5263	636.7716	2244.75	1391.7
826.6709	638.8889	2251.05	1398.3
826.8156	641.0056	2266.9	1413.4
826.9603	643.1216	2274.9	1423.35
827.105	645.237	2270	1416.35
827.2497	647.3518	2256.4	1407.5
827.3944	649.4659	2212.8	1363.85
827.5391	651.5793	2183.2	1334.05
827.6838	653.6922	2180.65	1330.05
827.8285	655.8043	2166.5	1316.3
827.9733	657.9159	2150.55	1298
828.118	660.0268	2151.5	1295.5
828.2627	662.137	2147.1	1292.65
828.4075	664.2466	2154.95	1298.35
828.5522	666.3556	2155.9	1297.1
828.697	668.4639	2147	1288.45
828.8418	670.5716	2129.9	1275.75
828.9865	672.6786	2127.05	1270.5
829.1313	674.785	2116.7	1257.9
829.2761	676.8907	2103.05	1245.8
829.4209	678.9958	2119.5	1264.4
829.5657	681.1002	2116.05	1257.65
829.7105	683.204	2126.7	1264.15
829.8553	685.3072	2115.5	1257.45
830.0001	687.4097	2109.3	1248.9
830.1449	689.5115	2110.7	1247.95
830.2898	691.6127	2100.85	1243
830.4346	693.7132	2095.95	1237.8
830.5794	695.8131	2117.15	1244.25
830.7243	697.9123	2105.5	1244.15
830.8691	700.0109	2098.95	1237.5
831.014	702.1089	2119.65	1256.65
831.1588	704.2061	2133.7	1271.55
831.3037	706.3028	2166.3	1301.85
831.4486	708.3987	2185.9	1320.15
831.5935	710.4941	2196.5	1334.7
831.7383	712.5887	2200.9	1338.15
831.8832	714.6827	2198.95	1333.1
832.0281	716.7761	2193.95	1332.75
832.173	718.8688	2190.4	1325.6
832.3179	720.9608	2190.95	1321.45
832.4628	723.0522	2208.45	1336.4
832.6077	725.1429	2217.85	1350.65
832.7527	727.233	2268.1	1401.25
832.8976	729.3224	2330.65	1465.95
833.0425	731.4112	2386.8	1520.5
833.1874	733.4993	2406.05	1539
833.3324	735.5867	2354.6	1489.4
833.4773	737.6735	2272.2	1402.55
833.6222	739.7596	2207.65	1336.7
833.7672	741.845	2171.15	1303.8
833.9122	743.9298	2178.9	1309.95
834.0571	746.014	2171.15	1303.05
834.2021	748.0974	2177.6	1308.15
834.347	750.1802	2185.05	1314.05
834.492	752.2624	2174.65	1303.55
834.637	754.3439	2162.4	1294.75
834.782	756.4247	2171.9	1294.85
834.9269	758.5048	2168.45	1298.8
835.0719	760.5843	2183.05	1311.2
835.2169	762.6631	2216.45	1345.55
835.3619	764.7413	2266.5	1394.8
835.5069	766.8188	2378.45	1504.3
835.6519	768.8956	2446.7	1575.65
835.7969	770.9718	2511.8	1642
835.9419	773.0473	2501.95	1631.15
836.0869	775.1221	2456.2	1584.7
836.232	777.1962	2444.65	1574
836.377	779.2697	2507.1	1633.55
836.522	781.3426	2642.35	1750
836.667	783.4147	2701.7	1829.3
836.8121	785.4862	2693.35	1821.2
836.9571	787.557	2605.9	1732.55
837.1021	789.6271	2452.65	1579.8
837.2472	791.6966	2322.85	1449.1
837.3922	793.7654	2209.45	1334.05
837.5373	795.8335	2150.25	1278.15
837.6823	797.901	2105.15	1232.75
837.8274	799.9678	2110.3	1234.05
837.9724	802.0339	2096.35	1222.55
838.1175	804.0993	2108.7	1223.75
838.2626	806.1641	2099.2	1224.5
838.4076	808.2282	2074.75	1199.4
838.5527	810.2916	2056.95	1180.85
838.6978	812.3544	2044.65	1169.9
838.8428	814.4164	2041.9	1167.7
838.9879	816.4778	2038.25	1161.4
839.133	818.5385	2050.25	1170.05
839.2781	820.5986	2093.45	1216.4
839.4232	822.658	2146	1267.3
839.5682	824.7166	2213.1	1337.4
839.7133	826.7747	2305.9	1429.6
839.8584	828.832	2386.35	1508.2
840.0035	830.8886	2464.3	1584.95
840.1486	832.9446	2493	1616.85
840.2937	834.9999	2458.75	1581.35
840.4388	837.0545	2376.95	1495.45
840.5839	839.1085	2287.6	1405.2
840.729	841.1618	2205.6	1321.6
840.8741	843.2143	2134.05	1254.05
841.0192	845.2662	2098	1216.7
841.1643	847.3175	2084.75	1204.8
841.3095	849.368	2073.55	1194.4
841.4546	851.4179	2068.1	1188.9
841.5997	853.467	2057.5	1178.5
841.7448	855.5155	2080.95	1199.55
841.8899	857.5633	2078.75	1197.95
842.0351	859.6105	2078.1	1198.2
842.1802	861.6569	2063.1	1182.45
842.3253	863.7027	2047.4	1163.95
842.4704	865.7478	2033.05	1149.65
842.6156	867.7922	2021.15	1142
842.7607	869.8359	2014.75	1134.85
842.9058	871.8789	2005.45	1122
843.0509	873.9212	2019.25	1106.8
843.1961	875.9629	2011.85	1129.35
843.3412	878.0039	2021.95	1137.75
843.4863	880.0441	2049.25	1167.15
843.6315	882.0837	2060	1177.2
843.7766	884.1226	2081.75	1199.15
843.9218	886.1609	2124.6	1242.55
844.0669	888.1984	2177	1295.3
844.212	890.2352	2235.8	1351.2
844.3572	892.2714	2237	1348.25
844.5023	894.3069	2218.95	1334.95
844.6475	896.3416	2158.95	1273.6
844.7926	898.3757	2110.9	1226.45
844.9377	900.4091	2084.05	1199.3
845.0829	902.4418	2084.45	1195.1
845.228	904.4739	2112.7	1224.1
845.3732	906.5052	2128.5	1240.1
845.5183	908.5358	2125.7	1241.4
845.6635	910.5658	2099.55	1212.45
845.8086	912.595	2053.1	1168.1
845.9538	914.6236	2021.3	1137.5
846.0989	916.6515	1976.7	1092.5
846.2441	918.6786	1966.85	1079.45
846.3892	920.7051	1958.85	1072.2
846.5344	922.7309	1955.5	1067.55
846.6795	924.756	1954.25	1067.5
846.8246	926.7804	1966.35	1078.25
846.9698	928.8041	1978.1	1088.65
847.1149	930.8272	2004.95	1117.95
847.2601	932.8495	2014.9	1128.95
847.4052	934.8711	2009.1	1121.7
847.5504	936.892	2014.2	1126.85
847.6955	938.9123	2048.2	1160.55
847.8407	940.9318	2072.4	1184.45
847.9858	942.9506	2098.5	1208.4
848.131	944.9688	2078.9	1191.55
848.2761	946.9862	2051.65	1163.8
848.4213	949.003	2013.7	1124.35
848.5664	951.019	1987.65	1100.45
848.7115	953.0344	1966.15	1078
848.8567	955.0491	1953.15	1066.95
849.0018	957.063	1950.25	1060.95
849.147	959.0763	1947.1	1059.85
849.2921	961.0888	1938.8	1046.05
849.4373	963.1007	1950.35	1061.95
849.5824	965.1119	1924.5	1040.3
849.7275	967.1223	1912.6	1031.7
849.8727	969.1321	1910.35	1027.45
850.0178	971.1412	1913.25	1028.9
850.1629	973.1495	1904.4	1018.65
850.3081	975.1572	1931.45	1011.25
850.4532	977.1641	1909.1	1020.3
850.5983	979.1704	1913.15	1022.1
850.7435	981.1759	1908.3	1017.65
850.8886	983.1808	1899.9	1007.7
851.0337	985.1849	1895.3	994.95
851.1788	987.1884	1891.75	1002.7
851.324	989.1911	1887.55	996.95
851.4691	991.1932	1904.55	1014.5
851.6142	993.1945	1903.4	1017.9
851.7593	995.1951	1898.35	1008.55
851.9045	997.1951	1914.3	1019.15
852.0496	999.1943	1890.65	1001.25
852.1947	1001.1928	1892.15	1001.6
852.3398	1003.1906	1904.95	1015.95
852.4849	1005.1877	1928.75	1037
852.63	1007.1841	1946.45	1056.95
852.7751	1009.1798	1988.7	1101.2
852.9202	1011.1748	1965.8	1077.8
853.0653	1013.1691	1938.05	1046.55
853.2104	1015.1627	1900.1	1009.8
853.3555	1017.1556	1866.3	979.6
853.5006	1019.1477	1854.25	963.9
853.6457	1021.1392	1830.65	945.55
853.7908	1023.1299	1820.55	936.1
853.9359	1025.12	1825.15	937.05
854.081	1027.1093	1816.35	933.8
854.2261	1029.0979	1841.8	962.7
854.3712	1031.0859	1859.7	978.3
854.5163	1033.0731	1882.05	996.5
854.6613	1035.0596	1887.5	1002.75
854.8064	1037.0454	1881.8	993.1
854.9515	1039.0304	1857.9	969.45
855.0965	1041.0148	1832.15	941.95
855.2416	1042.9985	1823.2	932.35
855.3867	1044.9814	1801.4	911.25
855.5317	1046.9636	1799.75	909.05
855.6768	1048.9452	1811.45	924.5
855.8219	1050.926	1826.2	936.3
855.9669	1052.9061	1852.95	962.25
856.112	1054.8855	1849.8	957.2
856.257	1056.8642	1856.8	965.35
856.4021	1058.8421	1847.85	953.85
856.5471	1060.8194	1847.45	956.1
856.6921	1062.7959	1849.3	959
856.8372	1064.7717	1853.3	960.3
856.9822	1066.7469	1836.3	943.4
857.1272	1068.7213	1851.6	956.9
857.2723	1070.695	1854.6	963.4
857.4173	1072.6679	1875.4	982.55
857.5623	1074.6402	1915.4	1023.3
857.7073	1076.6117	1927.5	1031.8
857.8523	1078.5826	1899.25	1007.55
857.9973	1080.5527	1859.1	961.65
858.1423	1082.5221	1819.35	927.1
858.2873	1084.4908	1794.1	902.2
858.4323	1086.4587	1777.55	885.35
858.5773	1088.426	1766.65	871.9
858.7223	1090.3925	1765.05	864.4
858.8673	1092.3584	1770.65	879.7
859.0123	1094.3235	1775.55	884.75
859.1573	1096.2879	1800.05	910.1
859.3022	1098.2515	1830.2	937.95
859.4472	1100.2145	1853.4	962.85
859.5922	1102.1767	1886.85	995.35
859.7371	1104.1382	1935	1042.3
859.8821	1106.099	1996.95	1103.25
860.027	1108.0591	2037	1145.8
860.172	1110.0185	2083.9	1190.55
860.3169	1111.9771	2126.45	1233.7
860.4619	1113.9351	2175.75	1282
860.6068	1115.8923	2251	1357.8
860.7517	1117.8488	2283.25	1392
860.8967	1119.8045	2241.8	1348.05
861.0416	1121.7596	2134.05	1241.2
861.1865	1123.7139	2013.9	1121.75
861.3314	1125.6675	1956.75	1065.4
861.4763	1127.6204	1946.8	1055.95
861.6212	1129.5726	1973.95	1079.35
861.7661	1131.524	1962.55	1072.65
861.911	1133.4748	1935.45	1043.75
862.0559	1135.4248	1874.15	981.95
862.2008	1137.3741	1811.1	918.75
862.3457	1139.3226	1781.6	887.9
862.4905	1141.2705	1777.8	883.7
862.6354	1143.2176	1786.05	885.95
862.7803	1145.164	1803.3	908.35
862.9251	1147.1097	1801	907.15
863.07	1149.0546	1784.1	889.05
863.2148	1150.9989	1752.35	862.5
863.3597	1152.9424	1739.6	845.4
863.5045	1154.8852	1716.9	821.05
863.6493	1156.8272	1712	820.05
863.7942	1158.7686	1708.65	807.5
863.939	1160.7092	1712	818
864.0838	1162.6491	1714.7	816.9
864.2286	1164.5883	1725.7	830.8
864.3734	1166.5267	1738.3	843.2
864.5182	1168.4644	1761.1	867.6
864.663	1170.4014	1793.2	899.9
864.8078	1172.3377	1838.4	946.2
864.9526	1174.2732	1886.35	995.5
865.0974	1176.2081	1990.45	1098.25
865.2421	1178.1421	2112.6	1216.4
865.3869	1180.0755	2255.15	1362.95
865.5317	1182.0082	2331.05	1438.05
865.6764	1183.9401	2321.4	1427.2
865.8212	1185.8713	2214.35	1323.65
865.9659	1187.8017	2078.1	1189.05
866.1106	1189.7315	1944.4	1058.65
866.2554	1191.6605	1881.95	967.3
866.4001	1193.5888	1813.55	924.2
866.5448	1195.5163	1781.5	892.25
866.6895	1197.4432	1755.2	861.75
866.8342	1199.3693	1747.3	855.35
866.9789	1201.2947	1717.55	821.95
867.1236	1203.2193	1717.9	824.2
867.2683	1205.1432	1714.2	819.8
867.413	1207.0664	1704.9	810.95
867.5576	1208.9889	1714.2	817.2
867.7023	1210.9106	1712.55	819.7
867.847	1212.8316	1711.9	819.8
867.9916	1214.7519	1734.1	832.2
868.1363	1216.6715	1731.15	837.1
868.2809	1218.5903	1751.55	857.7
868.4255	1220.5084	1766.85	875.7
868.5701	1222.4257	1778.2	886.05
868.7148	1224.3424	1794	902.7
868.8594	1226.2583	1813.65	916.75
869.004	1228.1735	1842.2	945
869.1486	1230.0879	1864.05	968.3
869.2932	1232.0016	1922.2	1027.25
869.4377	1233.9146	1959.75	1065.1
869.5823	1235.8269	1976.25	1083.5
869.7269	1237.7384	1981.9	1085
869.8715	1239.6492	1976.2	1082.75
870.016	1241.5592	2001.45	1107.4
870.1606	1243.4686	2046.4	1151.95
870.3051	1245.3772	2113.25	1221.1
870.4496	1247.285	2208.8	1313.15
870.5941	1249.1922	2305.7	1409.95
870.7387	1251.0986	2377.05	1484.55
870.8832	1253.0042	2443.65	1548.15
871.0277	1254.9092	2538.35	1644.05
871.1722	1256.8134	2641.4	1749.25
871.3167	1258.7169	2736.2	1841.45
871.4611	1260.6196	2784.45	1892.15
871.6056	1262.5216	2830.05	1933.65
871.7501	1264.4229	2799.95	1905.15
871.8945	1266.3234	2783.05	1888.2
872.039	1268.2232	2719.85	1822.7
872.1834	1270.1223	2654.35	1758.35
872.3278	1272.0207	2606.45	1710.7
872.4723	1273.9183	2597.55	1699.05
872.6167	1275.8151	2582.9	1689.65
872.7611	1277.7113	2637.6	1743.3
872.9055	1279.6067	2705.1	1811.25
873.0499	1281.5014	2855.3	1959.75
873.1943	1283.3953	3060.7	2161.05
873.3386	1285.2885	3280.6	2387.75
873.483	1287.181	3433.15	2536.4
873.6274	1289.0727	3503.65	2611.85
873.7717	1290.9637	3455.6	2560.85
873.9161	1292.854	3349.45	2452.85
874.0604	1294.7435	3195.1	2298.6
874.2047	1296.6323	3061.5	2168.4
874.349	1298.5204	2964	2064.45
874.4933	1300.4077	2882.5	1986.35
874.6376	1302.2943	2813.45	1920.15
874.7819	1304.1802	2765.75	1872
874.9262	1306.0653	2739.4	1844.2
875.0705	1307.9497	2702.3	1805.1
875.2147	1309.8333	2657	1760.95
875.359	1311.7162	2632.1	1736.3
875.5032	1313.5984	2608.35	1709.45
875.6475	1315.4798	2584.05	1676
875.7917	1317.3605	2574.75	1675.85
875.9359	1319.2405	2582.3	1687.2
876.0801	1321.1197	2578.35	1681.8
876.2243	1322.9982	2520.7	1621.75
876.3685	1324.876	2463.85	1570.9
876.5127	1326.753	2355.9	1462
876.6569	1328.6293	2258.15	1360
876.801	1330.5048	2172.6	1273.75
876.9452	1332.3796	2078.3	1183
877.0893	1334.2537	2031.65	1113.25
877.2335	1336.127	1963.6	1068.15
877.3776	1337.9996	1939.15	1042.75
877.5217	1339.8714	1889.75	993.5
877.6658	1341.7426	1923.95	985.3
877.8099	1343.6129	1878.2	982.15
877.954	1345.4826	1852.65	956.1
878.0981	1347.3515	1842	945.2
878.2422	1349.2196	1818.2	920.95
878.3862	1351.087	1807.25	911.9
878.5303	1352.9537	1797.15	900.9
878.6743	1354.8197	1818.75	923.3
878.8184	1356.6849	1813.3	915.9
878.9624	1358.5493	1830.75	933.45
879.1064	1360.4131	1855.65	960.2
879.2504	1362.276	1897.05	1003.1
879.3944	1364.1383	1938.25	1044.9
879.5384	1365.9998	1956.55	1055.9
879.6823	1367.8606	1945.85	1045.4
879.8263	1369.7206	1929.1	1031.1
879.9702	1371.5799	1930.55	1033.15
880.1142	1373.4384	1930.7	1035.1
880.2581	1375.2962	1889.7	992.65
880.402	1377.1533	1844.2	948.75
880.5459	1379.0096	1789.65	893.8
880.6898	1380.8652	1752.75	859.9
880.8337	1382.7201	1724.65	831.6
880.9776	1384.5742	1694.4	799.85
881.1215	1386.4275	1682.6	785.95
881.2653	1388.2802	1647.9	754.3
881.4092	1390.132	1637.5	742.05
881.553	1391.9832	1635.65	738.2
881.6968	1393.8336	1622.3	727.3
881.8406	1395.6832	1624.15	726.45
881.9844	1397.5322	1609.15	715.25
882.1282	1399.3803	1598	695.55
882.272	1401.2278	1585	688.45
882.4158	1403.0745	1576	681.15
882.5595	1404.9204	1571	677.7
882.7033	1406.7656	1561.45	665.9
882.847	1408.6101	1558.65	660.6
882.9908	1410.4538	1565.5	672.45
883.1345	1412.2968	1558.75	664.45
883.2782	1414.139	1552.95	658.25
883.4219	1415.9805	1570.75	675.45
883.5656	1417.8213	1587.65	685.9
883.7092	1419.6613	1592.7	699.45
883.8529	1421.5006	1628.3	732.6
883.9965	1423.3391	1675.85	781.85
884.1402	1425.1769	1717.4	819.9
884.2838	1427.0139	1802.8	903.9
884.4274	1428.8502	1899.75	1002.6
884.571	1430.6858	1976.7	1080.8
884.7146	1432.5206	2001.2	1104.6
884.8582	1434.3547	1997.05	1100.15
885.0018	1436.188	1975.1	1078.4
885.1453	1438.0206	1956.9	1062.75
885.2889	1439.8524	1940.95	1043.5
885.4324	1441.6835	1942.55	1045.45
885.5759	1443.5139	1942	1044
885.7194	1445.3435	1950	1054.7
885.8629	1447.1724	1951.3	1056.85
886.0064	1449.0005	1943.6	1049
886.1499	1450.8279	1921.45	1027.85
886.2933	1452.6545	1919.45	1024.35
886.4368	1454.4804	1924.8	1028.55
886.5802	1456.3056	1927.25	1025.7
886.7237	1458.13	1899.95	1007.15
886.8671	1459.9536	1871.55	976.95
887.0105	1461.7766	1826.75	932.55
887.1539	1463.5987	1793.95	896.35
887.2972	1465.4202	1757.4	861.55
887.4406	1467.2409	1709.35	814.55
887.584	1469.0608	1679	783.25
887.7273	1470.88	1648.55	753.5
887.8706	1472.6984	1619.5	724.35
888.0139	1474.5161	1587	687.85
888.1572	1476.3331	1566.55	671.65
888.3005	1478.1493	1562.7	665.95
888.4438	1479.9648	1555.45	659.4
888.5871	1481.7795	1550.9	655.9
888.7303	1483.5935	1548.95	653.7
888.8736	1485.4067	1560	664.1
889.0168	1487.2192	1555.7	659.65
889.16	1489.031	1559.3	664.15
889.3032	1490.842	1556.95	662.05
889.4464	1492.6522	1554.9	660.25
889.5896	1494.4618	1547.1	652.8
889.7327	1496.2705	1552.55	656.35
889.8759	1498.0785	1550	654.75
890.019	1499.8858	1536.55	641.8
890.1622	1501.6924	1528.75	633.4
890.3053	1503.4981	1531.35	639.55
890.4484	1505.3032	1522.75	627.45
890.5914	1507.1075	1518.4	621.35
890.7345	1508.911	1504.8	609
890.8776	1510.7138	1498.3	604.95
891.0206	1512.5159	1485.6	589.7
891.1637	1514.3172	1487.7	593
891.3067	1516.1178	1482.05	589.35
891.4497	1517.9176	1483	587.25
891.5927	1519.7166	1468.15	572.65
891.7357	1521.515	1470.75	568.45
891.8786	1523.3126	1454.05	558.65
892.0216	1525.1094	1455.25	559.95
892.1645	1526.9055	1447.6	554.15
892.3074	1528.7008	1438.6	542.25
892.4503	1530.4954	1441.1	538.65
892.5932	1532.2893	1438.05	546
892.7361	1534.0824	1444.8	546.05
892.879	1535.8747	1437.1	543.2
893.0218	1537.6663	1428.4	535.15
893.1647	1539.4572	1425.95	533.2
893.3075	1541.2473	1426.55	531.55
893.4503	1543.0367	1429.2	536.8
893.5931	1544.8253	1435.1	535.45
893.7359	1546.6132	1439.85	544
893.8787	1548.4003	1450.05	544.3
894.0214	1550.1867	1458.6	557.35
894.1642	1551.9723	1458.3	562.15
894.3069	1553.7572	1474.35	580.75
894.4496	1555.5414	1487.85	595.1
894.5923	1557.3247	1521.1	628.8
894.735	1559.1074	1550.35	657.1
894.8777	1560.8893	1595.05	701.95
895.0204	1562.6705	1635.3	741.5
895.163	1564.4509	1660.7	768.2
895.3056	1566.2305	1670.5	782.75
895.4482	1568.0094	1682.4	792.05
895.5908	1569.7876	1674.05	782.85
895.7334	1571.565	1672.25	781
895.876	1573.3417	1679.5	790.15
896.0186	1575.1176	1683.85	790.85
896.1611	1576.8928	1693.55	802.85
896.3036	1578.6672	1728.9	838.7
896.4461	1580.4409	1754	864.65
896.5886	1582.2138	1792.75	902.75
896.7311	1583.986	1830.05	940.6
896.8736	1585.7575	1875.05	984.3
897.0161	1587.5282	1903.9	1016.25
897.1585	1589.2981	1945.6	1058.5
897.3009	1591.0673	1946.25	1057.5
897.4433	1592.8358	1953.25	1064.7
897.5857	1594.6035	1963.2	1073
897.7281	1596.3704	1961.35	1067.5
897.8705	1598.1366	1929.35	1038.5
898.0128	1599.9021	1904.5	1014.55
898.1551	1601.6668	1869.4	975.85
898.2975	1603.4308	1850.55	957.35
898.4398	1605.194	1857.95	963.15
898.5821	1606.9564	1881.1	993.25
898.7243	1608.7182	1934.85	1044.6
898.8666	1610.4791	2019.8	1135.1
899.0088	1612.2394	2123.65	1238.55
899.1511	1613.9988	2241.55	1355
899.2933	1615.7576	2326.4	1439.45
899.4355	1617.5156	2373.65	1479.2
899.5776	1619.2728	2338.9	1446.05
899.7198	1621.0293	2259.6	1369
899.862	1622.785	2132.3	1241.55
900.0041	1624.54	2002.15	1112.25
900.1462	1626.2942	1877.1	989.8
900.2883	1628.0477	1762.25	871.45
900.4304	1629.8005	1676.4	782.4
900.5725	1631.5525	1607.95	721.9
900.7145	1633.3037	1547.5	660.8
900.8566	1635.0542	1502.8	614.6
900.9986	1636.804	1472.7	585.1
901.1406	1638.553	1494.6	543.35
901.2826	1640.3013	1414.65	525.65
901.4245	1642.0488	1403	512
901.5665	1643.7955	1385.2	496.7
901.7085	1645.5416	1369.4	479.95
901.8504	1647.2868	1355.8	468.05
901.9923	1649.0313	1353.85	465.2
902.1342	1650.7751	1351	458.95
902.2761	1652.5181	1340.25	450.55
902.4179	1654.2604	1343.4	454.25
902.5598	1656.0019	1345.25	457.4
902.7016	1657.7427	1364.2	475.55
902.8434	1659.4828	1381.4	490.95
902.9852	1661.222	1413.25	521.25
903.127	1662.9606	1443.9	554.9
903.2687	1664.6984	1488.15	598.7
903.4105	1666.4354	1498.75	607.65
903.5522	1668.1717	1483.85	593.65
903.6939	1669.9072	1435.8	543.75
903.8356	1671.642	1394.8	499.8
903.9773	1673.3761	1346.5	457.65
904.119	1675.1094	1320.9	430.85
904.2606	1676.8419	1288	397.7
904.4022	1678.5737	1274.8	384.55
904.5439	1680.3048	1266.1	377.3
904.6855	1682.0351	1256.15	366.35
904.827	1683.7646	1251.5	359.9
904.9686	1685.4934	1244.3	357
905.1101	1687.2215	1238.55	349.1
905.2517	1688.9488	1234	346.1
905.3932	1690.6754	1227.2	336.2
905.5347	1692.4012	1229.75	339.55
905.6761	1694.1263	1226.1	336.8
905.8176	1695.8506	1228.1	336.1
905.9591	1697.5742	1216.55	328.8
906.1005	1699.297	1216.55	328.25
906.2419	1701.0191	1210.55	324.25
906.3833	1702.7404	1210.2	323.35
906.5246	1704.461	1212.7	321.7
906.666	1706.1808	1204.15	312.05
906.8073	1707.8999	1203.15	312.95
906.9487	1709.6182	1200.45	311.65
907.09	1711.3358	1196.4	310.45
907.2313	1713.0527	1195.65	308.3
907.3725	1714.7688	1194.55	301.35
907.5138	1716.4841	1195.95	306.15
907.655	1718.1987	1195.8	302.55
907.7962	1719.9126	1196.45	311.35
907.9374	1721.6257	1190.3	301.25
908.0786	1723.338	1187.1	300.05
908.2198	1725.0496	1180	291
908.3609	1726.7605	1183.3	295.4
908.502	1728.4706	1182.2	292.7
908.6431	1730.18	1181.15	290.55
908.7842	1731.8886	1176.4	289.85
908.9253	1733.5964	1197.15	291.1
909.0664	1735.3036	1178.3	287.25
909.2074	1737.0099	1172	284.15
909.3484	1738.7156	1178.05	293.05
909.4894	1740.4204	1176.45	287.1
909.6304	1742.1246	1177.9	290
909.7714	1743.8279	1168.65	280.1
909.9123	1745.5306	1176.55	289.8
910.0532	1747.2325	1169.65	281
910.1941	1748.9336	1176.05	286.65
910.335	1750.634	1172.1	281.05
910.4759	1752.3336	1169	277.4
910.6168	1754.0325	1168.55	282.65
910.7576	1755.7307	1163.55	275.75
910.8984	1757.4281	1170.65	282.75
911.0392	1759.1247	1175.7	278.65
911.18	1760.8206	1166.05	273.6
911.3208	1762.5158	1166.85	276
911.4615	1764.2102	1168.25	279.35
911.6022	1765.9039	1161	273.2
911.7429	1767.5968	1160.75	274.75
911.8836	1769.289	1163.6	279.45
912.0243	1770.9804	1160.65	271.55
912.1649	1772.6711	1165.85	275.4
912.3056	1774.361	1168.4	278.65
912.4462	1776.0502	1164.1	276.6
912.5868	1777.7386	1167.7	274.75
912.7274	1779.4263	1157.45	268.55
912.8679	1781.1132	1158.05	270.9
913.0084	1782.7994	1157	269.55
913.149	1784.4849	1156.4	270.5
913.2895	1786.1696	1172.8	265.1
913.4299	1787.8535	1150.25	265.85
913.5704	1789.5367	1148.15	263.85
913.7108	1791.2192	1143.55	257.15
913.8513	1792.9009	1181.25	266.95
913.9917	1794.5818	1151	261.95
914.132	1796.2621	1151.2	265.05
914.2724	1797.9415	1151.75	263.45
914.4128	1799.6202	1149.55	260.25
914.5531	1801.2982	1144.45	253.45
914.6934	1802.9755	1148.2	256.15
914.8337	1804.6519	1147.5	257.35
914.9739	1806.3277	1147.45	261.5
915.1142	1808.0027	1142.4	257.1
915.2544	1809.6769	1141.25	255.8
915.3946	1811.3504	1145.55	260.6
915.5348	1813.0231	1135.6	245.95
915.675	1814.6951	1138.15	253.55
915.8151	1816.3664	1144.2	255.75
915.9553	1818.0369	1139.6	251.95
916.0954	1819.7067	1136.4	250.35
916.2355	1821.3757	1139	247.85
916.3755	1823.044	1137.3	250.95
916.5156	1824.7115	1135.2	247.7
916.6556	1826.3783	1135.9	249.35
916.7956	1828.0443	1133.5	246.4
916.9356	1829.7096	1135.6	247.15
917.0756	1831.3741	1133.8	244.85
917.2155	1833.0379	1132.45	247.55
917.3555	1834.701	1135.15	248.45
917.4954	1836.3633	1133.35	247.55
917.6353	1838.0248	1129.55	242.25
917.7751	1839.6856	1127.6	240.85
917.915	1841.3457	1127.35	240.4
918.0548	1843.005	1130.1	241.35
918.1946	1844.6636	1133.6	247.25
918.3344	1846.3214	1123.45	236.5
918.4742	1847.9785	1127.45	242.8
918.6139	1849.6349	1133.6	246.4
918.7537	1851.2904	1132.05	234.3
918.8934	1852.9453	1127.9	240.4
919.0331	1854.5994	1128.9	236.35
919.1727	1856.2528	1131.55	237.65
919.3124	1857.9054	1128.95	240.85
919.452	1859.5572	1122.5	234.6
919.5916	1861.2083	1119.25	231.05
919.7312	1862.8587	1125.1	236.95
919.8708	1864.5084	1124.55	236.4
920.0103	1866.1572	1118.15	231.4
920.1498	1867.8054	1120.35	230.1
920.2893	1869.4528	1119.15	230.9
920.4288	1871.0994	1122.15	232.75
920.5683	1872.7453	1119.6	230.25
920.7077	1874.3905	1125.15	230.45
920.8471	1876.0349	1116.05	225.2
920.9865	1877.6786	1124.1	235.7
921.1259	1879.3215	1113.05	223.85
921.2653	1880.9637	1121.7	230.95
921.4046	1882.6051	1117.4	229.6
921.5439	1884.2458	1116.05	226.35
921.6832	1885.8858	1109.45	222.4
921.8225	1887.525	1112.75	223.05
921.9617	1889.1634	1111.1	224.55
922.101	1890.8011	1113	224.15
922.2402	1892.4381	1109.95	220.35
922.3794	1894.0743	1112.3	222.9
922.5185	1895.7098	1109.85	222.85
922.6577	1897.3446	1110.15	221.95
922.7968	1898.9786	1111.35	221.55
922.9359	1900.6118	1107.05	219.45
923.075	1902.2443	1108.45	219.35
923.214	1903.8761	1110.05	222.7
923.3531	1905.5071	1100.5	211.8
923.4921	1907.1374	1107.95	218.7
923.6311	1908.7669	1104.05	214.6
923.77	1910.3957	1101.15	214.6
923.909	1912.0237	1101.55	212.3
924.0479	1913.651	1103.1	214.7
924.1868	1915.2776	1098.95	214.3
924.3257	1916.9034	1100.65	213.6
924.4646	1918.5285	1099.05	214.65
924.6034	1920.1528	1102.65	215.45
924.7422	1921.7764	1095.7	208.7
924.881	1923.3992	1097.45	209.15
925.0198	1925.0213	1096.3	207.65
925.1586	1926.6427	1095.65	209.95
925.2973	1928.2633	1306.65	203.25
925.436	1929.8832	1097.4	204.8
925.5747	1931.5023	1095.2	204.65
925.7134	1933.1207	1091.55	204
925.852	1934.7383	1098.85	210.35
925.9906	1936.3552	1095.25	209.4
926.1292	1937.9714	1088.05	200
926.2678	1939.5868	1091.5	202.75
926.4064	1941.2015	1094.95	206.85
926.5449	1942.8154	1090.3	199.3
926.6834	1944.4286	1091.65	203.05
926.8219	1946.041	1116.85	204.8
926.9604	1947.6528	1092.85	201.3
927.0988	1949.2637	1089.45	201.25
927.2372	1950.8739	1085.5	198.2
927.3756	1952.4834	1082.85	196
927.514	1954.0921	1086.9	198.45
927.6523	1955.7001	1089.7	198.5
927.7907	1957.3074	1087	201.15
927.929	1958.9139	1078.7	192.75
928.0673	1960.5197	1084.9	198.2
928.2055	1962.1247	1082	194.85
928.3438	1963.729	1082.95	195.9
928.482	1965.3325	1102.15	193.6
928.6202	1966.9353	1077.5	192
928.7584	1968.5374	1082.25	195.35
928.8965	1970.1387	1078.55	190.4
929.0346	1971.7393	1077.9	192.85
929.1727	1973.3392	1076.85	192
929.3108	1974.9383	1075.2	191.55
929.4489	1976.5366	1073.5	189.2
929.5869	1978.1342	1071.05	186.4
929.7249	1979.7311	1073	188.5
929.8629	1981.3273	1075.1	192.4
930.0009	1982.9227	1072.7	184.8
930.1388	1984.5173	1074.95	190.85
930.2767	1986.1112	1071.7	188.15
930.4146	1987.7044	1070	187.85
930.5525	1989.2968	1070.35	185.15
930.6904	1990.8885	1073.2	187.25
930.8282	1992.4795	1075.25	192.65
930.966	1994.0697	1066.05	182.85
931.1038	1995.6592	1066.95	184.55
931.2415	1997.2479	1067.4	183.75
931.3793	1998.8359	1067.1	182.9
931.517	2000.4232	1063.35	181
931.6547	2002.0097	1062.1	181.3
931.7923	2003.5955	1065.3	181.85
931.93	2005.1805	1068.45	184.6
932.0676	2006.7648	1064.3	182.65
932.2052	2008.3484	1064.25	182.6
932.3427	2009.9312	1062.25	179.75
932.4803	2011.5133	1058.25	178.1
932.6178	2013.0946	1060.75	178.8
932.7553	2014.6752	1058.1	174.7
932.8928	2016.2551	1059.1	175.5
933.0302	2017.8342	1061.3	179.5
933.1676	2019.4126	1060.15	179.15
933.305	2020.9902	1055.6	175.95
933.4424	2022.5672	1056.15	173.55
933.5798	2024.1433	1062.75	175.55
933.7171	2025.7188	1055.45	176.4
933.8544	2027.2935	1059.05	175.95
933.9917	2028.8674	1051.85	170.55
934.129	2030.4406	1055	174.65
934.2662	2032.0131	1054.65	175.05
934.4034	2033.5849	1059.25	174.6
934.5406	2035.1559	1056.55	177.2
934.6778	2036.7261	1056.95	175.15
934.8149	2038.2957	1052.25	170.4
934.952	2039.8645	1054.45	171.45
935.0891	2041.4325	1059	171.5
935.2262	2042.9998	1051.15	169.55
935.3632	2044.5664	1051	165.9
935.5002	2046.1323	1050.9	171.15
935.6372	2047.6974	1049.15	169.45
935.7742	2049.2617	1050.9	171
935.9111	2050.8254	1060	173.6
936.048	2052.3883	1055.45	172.6
936.1849	2053.9504	1053.9	171.75
936.3218	2055.5118	1053.05	170.55
936.4586	2057.0725	1049.65	164.4
936.5955	2058.6325	1051.7	169.1
936.7323	2060.1917	1050	169
936.869	2061.7502	1051.35	167.35
937.0058	2063.3079	1047.3	169.55
937.1425	2064.8649	1048.6	164.45
937.2792	2066.4212	1047.7	165.35
937.4159	2067.9767	1047.4	165.2
937.5525	2069.5315	1049.3	167.75
937.6891	2071.0856	1049	168.75
937.8257	2072.6389	1050.6	169.9
937.9623	2074.1915	1045.35	165.25
938.0989	2075.7433	1046.65	164.05
938.2354	2077.2945	1048.45	167.3
938.3719	2078.8448	1046.7	165.3
938.5084	2080.3945	1049.15	168.15
938.6448	2081.9434	1046.25	163.35
938.7812	2083.4916	1044.1	161.5
938.9176	2085.039	1048.5	160.85
939.054	2086.5857	1046.05	160.2
939.1903	2088.1317	1049.3	164.95
939.3267	2089.677	1047.35	163.45
939.463	2091.2215	1041.25	156.7
939.5992	2092.7652	1047.25	160.65
939.7355	2094.3083	1048.15	165.4
939.8717	2095.8506	1046.3	164.1
940.0079	2097.3921	1045.9	162.85
940.1441	2098.933	1041.65	159.6
940.2802	2100.4731	1041.65	157.15
940.4163	2102.0124	1063.9	161.6
940.5524	2103.5511	1045.3	162.35
940.6885	2105.089	1048.05	165.05
940.8245	2106.6261	1043.4	162.65
940.9606	2108.1626	1040.55	157.05
941.0965	2109.6983	1070.95	162.55
941.2325	2111.2332	1045.55	162.3
941.3684	2112.7675	1042.85	157.25
941.5044	2114.301	1046.9	162.15
941.6403	2115.8337	1044.55	160.9
941.7761	2117.3657	1042.75	160.15
941.912	2118.897	1044.15	159.15
942.0478	2120.4276	1044.2	154.25
942.1835	2121.9575	1040.25	158.55
942.3193	2123.4866	1053.7	154.65
942.455	2125.0149	1042.25	155.8
942.5907	2126.5426	1035.6	154.15
942.7264	2128.0695	1039	152.85
942.8621	2129.5956	1040.05	160.05
942.9977	2131.1211	1044.45	159.25
943.1333	2132.6458	1034.9	152.95
943.2689	2134.1698	1039	156.85
943.4044	2135.693	1045	156.95
943.54	2137.2155	1043.8	159.9
943.6755	2138.7373	1040.65	155.7
943.8109	2140.2584	1035.7	152.4
943.9464	2141.7787	1042.95	156.1
944.0818	2143.2983	1032.9	152.85
944.2172	2144.8171	1031.45	152.15
944.3526	2146.3353	1038.6	154.9
944.4879	2147.8527	1031.6	151.4
944.6232	2149.3693	1035.95	152.6
944.7585	2150.8853	1035.95	151.2
944.8938	2152.4005	1034	150.9
945.029	2153.9149	1037.75	154.45
945.1642	2155.4287	1034.3	150.25
945.2994	2156.9417	1039.4	156.95
945.4346	2158.454	1039.05	155.05
945.5697	2159.9655	1034.65	154.2
945.7048	2161.4764	1033.45	150.75
945.8399	2162.9865	1032.55	149.5
945.9749	2164.4958	1032.2	150.9
946.1099	2166.0045	1033.4	149.8
946.2449	2167.5124	1029.75	150.45
946.3799	2169.0195	1034.25	151.9
946.5148	2170.526	1033.2	149.2
946.6498	2172.0317	1030.4	146.4
946.7846	2173.5367	1030.1	149.15
946.9195	2175.0409	1030.8	147.5
947.0543	2176.5445	1030.85	149.45
947.1891	2178.0473	1032.25	148.55
947.3239	2179.5494	1032	145.4
947.4587	2181.0507	1033.05	150.95
947.5934	2182.5513	1027.35	144.7
947.7281	2184.0512	1025.2	142.45
947.8628	2185.5504	1030.8	147.8
947.9974	2187.0488	1025.05	143.5
948.132	2188.5465	1026.7	144.1
948.2666	2190.0435	1028.15	146.55
948.4012	2191.5397	1027.7	144.05
948.5357	2193.0353	1026.4	144.05
948.6702	2194.5301	1027.75	143.5
948.8047	2196.0241	1026.65	142.9
948.9392	2197.5175	1027.95	143.05
949.0736	2199.0101	1032.05	144
949.208	2200.502	1026.6	145.7
949.3424	2201.9931	1021	138.7
949.4767	2203.4835	1022.55	139.85
949.611	2204.9733	1037.5	140.55
949.7453	2206.4622	1021.45	142.8
949.8796	2207.9505	1025.15	142.75
950.0138	2209.438	1017.45	140.4
950.148	2210.9248	1023.9	141.55
950.2822	2212.4109	1020.75	138.35
950.4164	2213.8962	1021.05	134.45
950.5505	2215.3809	1022.5	137.65
950.6846	2216.8648	1022.35	138.6
950.8186	2218.3479	1027.65	139.6
950.9527	2219.8304	1023.8	136.2
951.0867	2221.3121	1021.85	136.8
951.2207	2222.7931	1016.05	134
951.3546	2224.2733	1018.5	135.4
951.4886	2225.7529	1018.95	134.8
951.6225	2227.2317	1021.25	134.2
951.7563	2228.7098	1017.2	135.5
951.8902	2230.1872	1016.4	135.7
952.024	2231.6638	1015.75	134.55
952.1578	2233.1397	1020.85	134
952.2916	2234.6149	1011.2	130.75
952.4253	2236.0894	1011.7	129.6
952.559	2237.5632	1023.3	132.65
952.6927	2239.0362	1014.35	132.35
952.8263	2240.5085	1016.7	134.8
952.9599	2241.9801	1017.15	131.5
953.0935	2243.4509	1013.4	129.5
953.2271	2244.921	1012.4	130
953.3606	2246.3904	1014.65	127.85
953.4941	2247.8591	1008.55	126.8
953.6276	2249.3271	1012.45	130.95
953.7611	2250.7943	1011.4	126.45
953.8945	2252.2608	1008.5	125.5
954.0279	2253.7266	1013.65	129.05
954.1612	2255.1917	1009.15	127.25
954.2946	2256.656	1011.75	130.2
954.4279	2258.1197	1007.4	127.35
954.5612	2259.5826	1007.75	125.35
954.6944	2261.0447	1010	127.15
954.8276	2262.5062	1007.1	122.3
954.9608	2263.9669	1010	125.05
955.094	2265.4269	1005.1	123.45
955.2271	2266.8862	1007.7	124.55
955.3602	2268.3448	1005.75	121.85
955.4933	2269.8026	1008.85	127.4
955.6264	2271.2598	1001.15	119.6
955.7594	2272.7162	1006.4	127.4
955.8924	2274.1719	1004.35	122.4
956.0253	2275.6268	1004.9	122.75
956.1583	2277.0811	1006.7	124.25
956.2912	2278.5346	1001.75	120.8
956.4241	2279.9874	1001.55	119
956.5569	2281.4395	1005.2	122.75
956.6897	2282.8908	1012.8	125.8
956.8225	2284.3414	1004	124.1
956.9553	2285.7914	998.5	115.05
957.088	2287.2406	1002.85	118.65
957.2207	2288.689	1002.1	119.45
957.3534	2290.1368	1004.15	117.75
957.486	2291.5838	1006.4	121.3
957.6186	2293.0302	1008.5	122.05
957.7512	2294.4758	1004.35	120.05
957.8838	2295.9206	1002.2	118
958.0163	2297.3648	1002.85	120.8
958.1488	2298.8082	1007.45	125.5
958.2813	2300.251	1003.7	120.95
958.4137	2301.693	1000.9	114.9
958.5461	2303.1343	1002.4	120.6
958.6785	2304.5748	1000.05	116.15
958.8108	2306.0147	999.35	114.35
958.9432	2307.4538	1000.5	117.25
959.0754	2308.8922	996.35	116
959.2077	2310.3299	996.8	115.45
959.3399	2311.7669	998.45	117.65
959.4721	2313.2031	999.9	117.05
959.6043	2314.6387	999.4	116.1
959.7365	2316.0735	1001.75	118.9
959.8686	2317.5076	998.1	114.9
960.0006	2318.941	996.1	113.5
960.1327	2320.3737	998.85	114.55
960.2647	2321.8056	997.15	111.75
960.3967	2323.2369	997	111.5
960.5287	2324.6674	1001.6	116.6
960.6606	2326.0972	1003.85	117.15
960.7925	2327.5263	1006.05	122.25
960.9244	2328.9547	1009.25	125
961.0562	2330.3823	1007.7	125.25
961.1881	2331.8092	1008.25	120.95
961.3198	2333.2355	998.95	114.45
961.4516	2334.661	994.7	110.05
961.5833	2336.0858	1000.2	116
961.715	2337.5098	992.2	108.25
961.8467	2338.9332	996.9	113.5
961.9783	2340.3558	998.55	113.6
962.1099	2341.7778	993.05	110.25
962.2415	2343.199	994.1	107.45
962.373	2344.6195	992.35	109.2
962.5045	2346.0393	991.8	108.5
962.636	2347.4583	994.85	110.15
962.7675	2348.8767	996.3	111.8
962.8989	2350.2943	993.6	109.6
963.0303	2351.7113	996.15	112.05
963.1617	2353.1275	993.9	109.2
963.293	2354.543	1021.9	112.8
963.4243	2355.9578	992.35	107.95
963.5556	2357.3718	992.65	111.5
963.6868	2358.7852	996.75	111.5
963.818	2360.1978	988.55	105.2
963.9492	2361.6098	989.45	107.75
964.0803	2363.021	993	103.9
964.2114	2364.4315	994.15	111.5
964.3425	2365.8413	994.4	103.95
964.4736	2367.2504	984.75	102.15
964.6046	2368.6587	985.9	102.55
964.7356	2370.0664	988.7	105.5
964.8666	2371.4733	986.65	99.9
964.9975	2372.8795	987.9	105.05
965.1284	2374.285	990.4	106.15
965.2593	2375.6899	989.6	107.15
965.3901	2377.0939	990.3	108.2
965.5209	2378.4973	990.05	105.5
965.6517	2379.9	993.4	109.4
965.7825	2381.3019	985.25	100.35
965.9132	2382.7032	982.1	98.6
966.0439	2384.1037	986.75	102.55
966.1745	2385.5035	986.25	103.05
966.3051	2386.9027	982.05	100
966.4357	2388.3011	983.45	97.6
966.5663	2389.6987	982.75	100.75
966.6968	2391.0957	984.75	100.05
966.8273	2392.492	984.95	102.05
966.9578	2393.8876	984.25	98.95
967.0882	2395.2824	981.2	97
967.2186	2396.6765	982.85	97.45
967.349	2398.07	980.6	95.15
967.4793	2399.4627	983.3	96.4
967.6097	2400.8547	981.75	95.25
967.7399	2402.246	987.6	97.1
967.8702	2403.6366	984.6	100.6
968.0004	2405.0265	983.2	100.1
968.1306	2406.4156	985.65	96.7
968.2607	2407.8041	983.2	94.3
968.3909	2409.1918	983.15	97.25
968.521	2410.5789	983.25	97.25
968.651	2411.9652	986.2	98.1
968.781	2413.3508	982.65	96.95
968.911	2414.7358	984.25	98.9
969.041	2416.12	978.5	94.15
969.1709	2417.5035	978.5	95.2
969.3008	2418.8863	977.6	92.5
969.4307	2420.2684	978.95	95.35
969.5606	2421.6497	977.05	89.5
969.6904	2423.0304	977.5	93.25
969.8201	2424.4104	980.1	96.25
969.9499	2425.7896	979.7	88.8
970.0796	2427.1682	977.6	93.5
970.2093	2428.546	979	93
970.3389	2429.9232	979.9	93.8
970.4685	2431.2996	978.7	93.65
970.5981	2432.6753	976.5	91.45
970.7277	2434.0503	973.1	88.65
970.8572	2435.4246	975.35	91.45
970.9867	2436.7982	974.8	89.5
971.1161	2438.1711	975.55	91.65
971.2456	2439.5433	974.85	87.9
971.375	2440.9148	976.3	92.8
971.5043	2442.2856	972.65	87.15
971.6336	2443.6557	974.65	87.4
971.7629	2445.025	972	88.95
971.8922	2446.3937	972.1	87.8
972.0214	2447.7617	976.85	90.15
972.1506	2449.1289	973.65	89.65
972.2798	2450.4955	974.25	84.25
972.4089	2451.8613	969.05	86.5
972.538	2453.2265	974.05	88.3
972.6671	2454.5909	974.25	87.7
972.7961	2455.9546	974.5	89.95
972.9251	2457.3177	970.55	88.45
973.0541	2458.68	970.5	86.2
973.1831	2460.0416	969	83.9
973.312	2461.4025	972.8	86.95
973.4408	2462.7627	984.65	89.9
973.5697	2464.1222	968.35	87.9
973.6985	2465.4811	968.5	84.55
973.8273	2466.8392	972.9	89.6
973.956	2468.1966	971.75	85.35
974.0847	2469.5533	973.65	87.95
974.2134	2470.9093	971.3	86.15
974.3421	2472.2645	971	85.15
974.4707	2473.6191	968.2	85.05
974.5993	2474.973	970.6	85.2
974.7278	2476.3262	968.7	84.15
974.8563	2477.6787	970	86.55
974.9848	2479.0305	967.15	82.75
975.1132	2480.3816	973.2	87.9
975.2417	2481.7319	965.7	80.75
975.37	2483.0816	969.15	84.1
975.4984	2484.4306	972.15	87.25
975.6267	2485.7789	966.05	83.95
975.755	2487.1264	966.75	82.5
975.8833	2488.4733	965.4	81.5
976.0115	2489.8195	977.35	85.7
976.1397	2491.165	971.8	85.8
976.2678	2492.5097	969.45	84.9
976.3959	2493.8538	963.9	81.35
976.524	2495.1972	964.65	79.15
976.6521	2496.5398	967.45	82.45
976.7801	2497.8818	965.9	79.15
976.9081	2499.2231	967.7	83.2
977.036	2500.5637	968.3	81.3
977.164	2501.9035	966.55	79.5
977.2918	2503.2427	969.4	80.45
977.4197	2504.5812	966.5	79.95
977.5475	2505.919	967.65	83.45
977.6753	2507.256	964.3	79.85
977.8031	2508.5924	962.3	77.7
977.9308	2509.9281	967.9	79.05
978.0585	2511.2631	964.95	81.3
978.1861	2512.5974	962.4	79.3
978.3137	2513.9309	964.9	80.45
978.4413	2515.2638	988.9	77.55
978.5689	2516.596	961.2	78.1
978.6964	2517.9275	961.95	76.8
978.8239	2519.2583	963.85	80.9
978.9513	2520.5884	963.1	76.75
979.0788	2521.9178	963	78.35
979.2062	2523.2465	959.8	77.25
979.3335	2524.5745	961.75	76.4
979.4608	2525.9018	960.75	77.9
979.5881	2527.2284	962.75	80.95
979.7154	2528.5543	960.4	77.15
979.8426	2529.8796	961.8	77.2
979.9698	2531.2041	959.3	75.6
980.0969	2532.5279	958.15	75.4
980.224	2533.851	959.6	75.65
980.3511	2535.1735	957.45	70.95
980.4781	2536.4952	962.25	78.85
980.6052	2537.8163	961.95	75.45
980.7321	2539.1366	959.45	74.85
980.8591	2540.4562	959.35	74.4
980.986	2541.7752	958.55	75.75
981.1129	2543.0935	958.35	75.95
981.2397	2544.411	961	76.35
981.3665	2545.7279	956.9	73.7
981.4933	2547.0441	957.65	75.15
981.62	2548.3596	962.05	72.5
981.7467	2549.6744	959.2	76.5
981.8734	2550.9885	970.75	76.15
982.0001	2552.3019	957.3	74.2
982.1267	2553.6146	956.1	70.05
982.2532	2554.9266	956.65	70.9
982.3798	2556.2379	957.3	70.45
982.5063	2557.5485	956.6	74.55
982.6327	2558.8585	964.85	73.95
982.7592	2560.1677	959.35	71.25
982.8856	2561.4762	955.3	70.65
983.0119	2562.7841	958.8	71.65
983.1383	2564.0913	955.2	72.4
983.2646	2565.3977	956.2	69.8
983.3908	2566.7035	956.3	73.35
983.517	2568.0086	960.35	74.4
983.6432	2569.313	956.6	72.9
983.7694	2570.6167	959.4	72.7
983.8955	2571.9197	954.95	70.1
984.0216	2573.222	956.15	68.15
984.1476	2574.5236	955.85	73.5
984.2737	2575.8246	956.7	72
984.3996	2577.1248	957	70.95
984.5256	2578.4244	956.8	71.9
984.6515	2579.7232	955.45	72.75
984.7774	2581.0214	988.25	77.4
984.9032	2582.3189	954.15	71
985.029	2583.6157	958.25	68.8
985.1548	2584.9118	955.55	70.85
985.2806	2586.2072	951.6	66.05
985.4063	2587.5019	954.15	69.95
985.5319	2588.7959	952.55	69.25
985.6576	2590.0893	956.75	70.25
985.7832	2591.3819	956.3	72.65
985.9087	2592.6739	952.85	71.6
986.0343	2593.9652	957.3	73.3
986.1597	2595.2557	955.7	72.3
986.2852	2596.5456	958	72.95
986.4106	2597.8348	954.1	68.55
986.536	2599.1234	951.15	70.15
986.6614	2600.4112	953.9	68.85
986.7867	2601.6983	958.1	71.95
986.912	2602.9848	957.5	74.9
987.0372	2604.2705	956.3	65.1
987.1624	2605.5556	954.55	71.25
987.2876	2606.84	954.75	72.7
987.4128	2608.1237	956	71.35
987.5379	2609.4067	957.45	73.2
987.6629	2610.689	960.9	66.3
987.788	2611.9707	954.65	65.15
987.913	2613.2516	959.05	70.5
988.0379	2614.5319	951.1	67.15
988.1629	2615.8115	951.75	69.8
988.2878	2617.0903	951.1	63.9
988.4126	2618.3685	951.05	67.5
988.5375	2619.6461	950.55	66.4
988.6622	2620.9229	951.2	67.9
988.787	2622.199	949.05	63.65
988.9117	2623.4745	952.4	67.4
989.0364	2624.7493	946.6	62.1
989.161	2626.0234	949.65	64.85
989.2857	2627.2968	949.15	63.35
989.4102	2628.5695	949.95	63.6
989.5348	2629.8415	949.8	67.05
989.6593	2631.1128	949.65	64.7
989.7837	2632.3835	948.95	67.05
989.9082	2633.6535	946.95	62.55
990.0326	2634.9228	948.1	66
990.1569	2636.1914	945.9	61
990.2812	2637.4593	947.95	64.4
990.4055	2638.7265	948.1	66.6
990.5298	2639.9931	947.15	61.1
990.654	2641.259	945.4	60.9
990.7782	2642.5242	946.45	62.75
990.9023	2643.7887	947.25	62.9
991.0264	2645.0525	943.9	59.3
991.1505	2646.3156	947.65	63.15
991.2745	2647.5781	941.95	58.1
991.3985	2648.8398	944.3	61.45
991.5225	2650.1009	987	66.1
991.6464	2651.3613	944.8	59.05
991.7703	2652.6211	946.05	62.95
991.8942	2653.8801	943.15	60.35
992.018	2655.1385	944.25	57.75
992.1418	2656.3961	943.85	60.8
992.2655	2657.6531	943.7	59.95
992.3892	2658.9094	945.35	59.45
992.5129	2660.1651	944.7	61.95
992.6366	2661.42	944.45	64.2
992.7602	2662.6743	944.75	61.7
992.8837	2663.9279	942.7	63.5
993.0073	2665.1808	943.85	61.4
993.1307	2666.433	943.7	60.3
993.2542	2667.6846	944.25	62.4
993.3776	2668.9354	949.65	63.65
993.501	2670.1856	947.6	63.5
993.6244	2671.4351	941.7	60.9
993.7477	2672.6839	946.55	60.25
993.8709	2673.9321	946.55	62.95
993.9942	2675.1795	943.75	58.95
994.1174	2676.4263	944.9	63.65
994.2405	2677.6724	945.15	62.25
994.3637	2678.9179	947.75	64.35
994.4868	2680.1626	942.75	61.85
994.6098	2681.4067	943.85	59.95
994.7328	2682.6501	944.9	63.3
994.8558	2683.8928	944.15	61.3
994.9788	2685.1348	940.6	56.95
995.1017	2686.3761	941.05	58.5
995.2245	2687.6168	940	56.45
995.3474	2688.8568	942.2	62.05
995.4702	2690.0961	942.85	60.25
995.5929	2691.3348	943.5	61.15
995.7156	2692.5727	938.45	57.3
995.8383	2693.81	940.65	55.4
995.961	2695.0466	937.55	56.15
996.0836	2696.2826	941.3	56.2
996.2062	2697.5178	944.35	61.1
996.3287	2698.7524	938.1	56.9
996.4512	2699.9863	941.4	56.3
996.5737	2701.2195	938.45	56.4
996.6961	2702.452	942.75	58.1
996.8185	2703.6839	942.1	57.85
996.9408	2704.9151	942	58.6
997.0631	2706.1456	941.2	56.9
997.1854	2707.3755	941.8	59.75
997.3077	2708.6046	944.95	58.75
997.4299	2709.8331	947.9	65.65
997.552	2711.0609	941.3	57.3
997.6742	2712.2881	942.3	56.35
997.7963	2713.5145	945.5	59.75
997.9183	2714.7403	941.15	56.85
998.0403	2715.9654	943.6	60.95
998.1623	2717.1899	960.15	63.45
998.2842	2718.4136	947.55	64.15
998.4062	2719.6367	946.2	62.85
998.528	2720.8591	955.7	67.45
998.6498	2722.0809	950.65	67.75
998.7716	2723.3019	954.9	67.4
998.8934	2724.5223	954.8	70.4
999.0151	2725.7421	948.95	64.2
999.1368	2726.9611	955.6	71.75
999.2584	2728.1795	953.4	65.65
999.38	2729.3972	948.7	65.4
999.5016	2730.6142	956.3	59.95
999.6231	2731.8306	946.7	64.35
999.7446	2733.0462	946.75	63.2
999.8661	2734.2612	949.35	62.45
999.9875	2735.4756	941.8	58.5
1000.1089	2736.6892	942.8	59.9
1000.2302	2737.9022	938.5	58.05
1000.3515	2739.1145	937.3	54.85
1000.4728	2740.3262	946.5	56.25
1000.594	2741.5372	941.6	60.8
1000.7152	2742.7475	936.9	55.9
1000.8363	2743.9571	937.55	53.35
1000.9575	2745.1661	939.1	52.8
1001.0785	2746.3744	933.35	50.95
1001.1996	2747.582	933.5	52.65
1001.3206	2748.7889	934.65	50.3
1001.4415	2749.9952	931.65	50.45
1001.5625	2751.2008	932.2	49.05
1001.6833	2752.4057	933.3	49.05
1001.8042	2753.61	933.1	49.65
1001.925	2754.8136	932.15	49.25
1002.0458	2756.0165	929.8	46.9
1002.1665	2757.2188	929.9	49.6
1002.2872	2758.4204	932.85	51.75
1002.4078	2759.6213	935.2	51.05
1002.5285	2760.8215	932.8	46
1002.649	2762.0211	934.3	50.6
1002.7696	2763.22	934.15	50.35
1002.8901	2764.4182	931.6	48.1
1003.0106	2765.6158	933.8	52.1
1003.131	2766.8127	930.9	47.95
1003.2514	2768.009	929.55	47.7
1003.3717	2769.2045	928.45	46.85
1003.492	2770.3994	928.8	47.9
1003.6123	2771.5936	929.7	47.7
1003.7325	2772.7872	928.1	46.8
1003.8527	2773.9801	928.55	45.55
1003.9729	2775.1723	944.55	46.35
1004.093	2776.3639	928.95	47
1004.2131	2777.5548	927.75	43.95
1004.3331	2778.745	929.9	46.55
1004.4531	2779.9346	927.1	46.85
1004.5731	2781.1235	924.75	44.4
1004.693	2782.3117	925.3	43.95
1004.8129	2783.4992	924.65	45.05
1004.9328	2784.6861	926.4	46.4
1005.0526	2785.8723	928.85	46.15
1005.1723	2787.0579	924.55	43.75
1005.2921	2788.2428	927.8	46
1005.4118	2789.427	929.25	48.7
1005.5314	2790.6106	926.65	44.4
1005.651	2791.7935	928.2	46.25
1005.7706	2792.9757	926.25	47.35
1005.8902	2794.1573	928.45	45.8
1006.0097	2795.3382	927.95	46.75
1006.1291	2796.5184	927.15	46.5
1006.2485	2797.698	929.15	46.8
1006.3679	2798.8769	927.55	46.5
1006.4873	2800.0551	930	48.05
1006.6066	2801.2327	930.6	46
1006.7258	2802.4096	929.35	49.25
1006.8451	2803.5859	930.95	48.05
1006.9642	2804.7615	930.95	50
1007.0834	2805.9364	931.75	51.55
1007.2025	2807.1106	933.2	53.7
1007.3216	2808.2842	933.65	51.8
1007.4406	2809.4572	937.05	55.1
1007.5596	2810.6294	940.2	57.7
1007.6785	2811.801	936.1	55.15
1007.7975	2812.972	937.15	57.05
1007.9163	2814.1423	936.7	55.85
1008.0352	2815.3119	943.5	62.5
1008.154	2816.4808	942.8	63.2
1008.2727	2817.6491	947.5	65.55
1008.3914	2818.8167	949.75	70.7
1008.5101	2819.9837	964.65	80.5
1008.6288	2821.15	965.25	83.2
1008.7474	2822.3157	968.7	88.2
1008.8659	2823.4807	976.25	94.4
1008.9844	2824.645	980.5	98
1009.1029	2825.8086	988.05	106.2
1009.2214	2826.9716	999.65	118.35
1009.3398	2828.134	1009.15	129.65
1009.4581	2829.2957	1015.4	132.05
1009.5764	2830.4567	1021.5	143.65
1009.6947	2831.617	1023.95	143.35
1009.813	2832.7767	1031.65	151.45
1009.9312	2833.9358	1027.15	146.45
1010.0493	2835.0941	1025.05	141.35
1010.1675	2836.2519	1024.55	144.3
1010.2855	2837.4089	1020.05	138.45
1010.4036	2838.5653	1018.5	138.75
1010.5216	2839.7211	1011.3	129.5
1010.6396	2840.8761	1009.35	127.1
1010.7575	2842.0306	1007.8	127.15
1010.8754	2843.1843	1006	124.35
1010.9932	2844.3374	1010.6	131.15
1011.111	2845.4899	1011.5	130.35
1011.2288	2846.6417	1014.35	135.35
1011.3465	2847.7928	1015.85	137.45
1011.4642	2848.9433	1015.6	135.4
1011.5818	2850.0931	1017.3	136.15
1011.6995	2851.2422	1021.05	137.8
1011.817	2852.3907	1020.55	139.55
1011.9345	2853.5385	1022.9	137.1
1012.052	2854.6857	1050.65	142.9
1012.1695	2855.8323	1023.55	143.75
1012.2869	2856.9781	1025.05	143.45
1012.4042	2858.1233	1027.3	145.7
1012.5216	2859.2679	1036.35	158.05
1012.6389	2860.4118	1040.35	158.1
1012.7561	2861.555	1043.15	158
1012.8733	2862.6976	1044.05	160.6
1012.9905	2863.8395	1040.8	160.5
1013.1076	2864.9808	1050.4	169.8
1013.2247	2866.1214	1053.2	171.95
1013.3417	2867.2614	1050.3	167.45
1013.4587	2868.4007	1058.3	175.25
1013.5757	2869.5393	1057.65	174.5
1013.6926	2870.6773	1060.55	176.9
1013.8095	2871.8146	1059.95	176.8
1013.9263	2872.9513	1071.4	187.05
1014.0431	2874.0874	1059.7	180.65
1014.1599	2875.2227	1068.8	186.85
1014.2766	2876.3574	1065	182.6
1014.3933	2877.4915	1067.55	187.05
1014.51	2878.6249	1072.35	193.5
1014.6266	2879.7577	1079.05	196.5
1014.7431	2880.8898	1083.35	195.45
1014.8596	2882.0212	1081.05	202.15
1014.9761	2883.152	1081.35	200.1
1015.0925	2884.2821	1085.9	206.4
1015.2089	2885.4116	1086.6	206.65
1015.3253	2886.5405	1087.4	207.25
1015.4416	2887.6686	1090.7	206.1
1015.5579	2888.7962	1091.5	212.3
1015.6741	2889.923	1088.55	207.65
1015.7903	2891.0493	1092	212.35
1015.9065	2892.1748	1084.35	203.65
1016.0226	2893.2997	1086.85	204.6
1016.1387	2894.424	1087.95	205.85
1016.2547	2895.5476	1087.15	207.65
1016.3707	2896.6706	1089.95	208.8
1016.4866	2897.7929	1086.8	205.8
1016.6025	2898.9145	1093.35	212.25
1016.7184	2900.0355	1093.05	211.75
1016.8342	2901.1559	1090.85	210.95
1016.95	2902.2756	1094.85	209.9
1017.0658	2903.3946	1086.75	205.75
1017.1815	2904.513	1090.8	207.55
1017.2971	2905.6308	1082.7	202.7
1017.4127	2906.7479	1088.15	206.6
1017.5283	2907.8643	1084.75	202.3
1017.6439	2908.9801	1084.05	203.75
1017.7594	2910.0953	1079.75	198.65
1017.8748	2911.2098	1092.25	207.9
1017.9902	2912.3236	1092.25	203.25
1018.1056	2913.4368	1086.9	203
1018.2209	2914.5494	1082.3	199.85
1018.3362	2915.6613	1085.75	200.55
1018.4515	2916.7725	1079.85	197.7
1018.5667	2917.8831	1076.95	194.45
1018.6819	2918.9931	1077.25	195.5
1018.797	2920.1024	1070.65	190.5
1018.9121	2921.211	1067.85	187.2
1019.0271	2922.319	1060.25	180.2
1019.1421	2923.4264	1063.4	183.05
1019.2571	2924.5331	1062.45	183.6
1019.372	2925.6391	1057.35	177.05
1019.4869	2926.7445	1065.55	186.45
1019.6017	2927.8493	1061.75	179.95
1019.7165	2928.9534	1064.65	185.6
1019.8313	2930.0569	1068	184.8
1019.946	2931.1597	1070	186.75
1020.0606	2932.2619	1065.5	186.25
1020.1753	2933.3634	1065.4	185.5
1020.2899	2934.4643	1074.7	187.75
1020.4044	2935.5645	1075.9	190
1020.5189	2936.6641	1072.9	188.45
1020.6334	2937.763	1076.4	198.15
1020.7478	2938.8613	1071.05	191.25
1020.8622	2939.959	1074.95	186.5
1020.9765	2941.056	1062.25	181.4
1021.0908	2942.1523	1061.35	177.6
1021.2051	2943.248	1050.65	170
1021.3193	2944.3431	1045.4	164.8
1021.4334	2945.4375	1036.5	153.75
1021.5476	2946.5313	1023.7	144.6
1021.6617	2947.6244	1021.2	141.2
1021.7757	2948.7169	1013.7	134.35
1021.8897	2949.8087	1005.7	126.75
1022.0037	2950.8999	995.8	113.7
1022.1176	2951.9904	990.45	110
1022.2315	2953.0803	988.45	108.55
1022.3453	2954.1696	982.25	101.7
1022.4591	2955.2582	982	101.3
1022.5728	2956.3462	979.55	99.25
1022.6865	2957.4335	974.25	93.2
1022.8002	2958.5202	976.75	94.8
1022.9138	2959.6062	971.6	92.1
1023.0274	2960.6916	974.85	94.35
1023.141	2961.7764	973.85	93.35
1023.2545	2962.8605	976.2	95.1
1023.3679	2963.9439	973.65	93.3
1023.4813	2965.0267	976.5	94.3
1023.5947	2966.1089	994.5	93.15
1023.708	2967.1905	973.75	93.75
1023.8213	2968.2714	970.65	92
1023.9346	2969.3516	967.35	88.05
1024.0478	2970.4312	975.2	87.7
1024.1609	2971.5102	972	94.1
1024.274	2972.5885	964.95	83
1024.3871	2973.6662	976.25	91.75
1024.5002	2974.7432	971.55	91.6
1024.6132	2975.8196	971	90.95
1024.7261	2976.8954	966.85	85.9
1024.839	2977.9705	967.85	88.65
1024.9519	2979.045	970.85	90.2
1025.0647	2980.1188	971.2	90.95
1025.1775	2981.192	965	86.95
1025.2902	2982.2645	970.05	88.85
1025.4029	2983.3364	966.25	85.7
1025.5156	2984.4077	959.25	78.35
1025.6282	2985.4783	964.25	79.1
1025.7407	2986.5483	961.4	82.25
1025.8532	2987.6177	955.3	77
1025.9657	2988.6864	955.55	76.8
1026.0782	2989.7545	951.7	70.15
1026.1906	2990.8219	950.8	70.85
1026.3029	2991.8887	948.65	66.5
1026.4152	2992.9548	944.3	64.2
1026.5275	2994.0204	939.15	60.05
1026.6397	2995.0852	932.75	56.15
1026.7519	2996.1495	935.2	54.75
1026.864	2997.2131	932.7	52.75
1026.9761	2998.276	927.65	49.2
1027.0882	2999.3383	925.65	43.95
1027.2002	3000.4	928.2	46.75
1027.3122	3001.4611	924.25	46.15
1027.4241	3002.5215	924.3	45.15
1027.536	3003.5812	921.55	42.3
1027.6478	3004.6404	919.7	39.35
1027.7596	3005.6989	918.55	36.35
1027.8714	3006.7567	916.35	35.7
1027.9831	3007.8139	939.55	32.05
1028.0947	3008.8705	915.75	35.3
1028.2064	3009.9264	931.5	34.1
1028.3179	3010.9818	913.95	35.4
1028.4295	3012.0364	915.7	37.15
1028.541	3013.0905	912.5	31.95
1028.6524	3014.1439	911.4	30.55
1028.7638	3015.1966	912.65	34.35
1028.8752	3016.2487	910.65	30.55
1028.9865	3017.3002	914.1	30.8
1029.0978	3018.3511	908.2	30.3
1029.209	3019.4013	908.8	29.75
1029.3202	3020.4509	909.1	30.3
1029.4314	3021.4998	909.9	31.05
1029.5425	3022.5481	906.95	26.55
1029.6535	3023.5958	908.55	28.8
1029.7645	3024.6428	909.3	26.75
1029.8755	3025.6892	908.2	29.8
1029.9864	3026.735	909.65	30.1
1030.0973	3027.7802	908.8	28.85
1030.2082	3028.8247	907.35	27.6
1030.319	3029.8685	909.35	27.25
1030.4297	3030.9118	907	26.65
1030.5404	3031.9544	909.05	29.65
1030.6511	3032.9963	907.35	28.2
1030.7617	3034.0376	907.15	26.65
1030.8723	3035.0783	909.25	25.95
1030.9829	3036.1184	910.3	30
1031.0934	3037.1578	907.65	26.25
1031.2038	3038.1966	907.95	28.7
1031.3142	3039.2348	903.85	23.5
1031.4246	3040.2723	915.45	26.7
1031.5349	3041.3092	908.1	31.25
1031.6452	3042.3455	908.6	28.1
1031.7554	3043.3811	907.4	25.65
1031.8656	3044.4161	910.75	30.4
1031.9758	3045.4505	906	27.45
1032.0859	3046.4842	905.95	26
1032.1959	3047.5173	908.6	29.9
1032.3059	3048.5498	908	30.55
1032.4159	3049.5816	907.35	26.25
1032.5258	3050.6128	911.1	31.75
1032.6357	3051.6434	908.75	28.3
1032.7455	3052.6734	911.5	30.6
1032.8553	3053.7027	908.05	29.6
1032.9651	3054.7314	909.55	31.15
1033.0748	3055.7594	907.55	29.45
1033.1845	3056.7868	912.3	32.5
1033.2941	3057.8136	909.1	31.25
1033.4037	3058.8398	908.35	30.3
1033.5132	3059.8653	910.05	30.6
1033.6227	3060.8902	909.9	30.95
1033.7321	3061.9145	911.75	32.55
1033.8415	3062.9381	909.4	30.3
1033.9509	3063.9612	925.95	30.5
1034.0602	3064.9835	908.35	28.7
1034.1694	3066.0053	911.95	29.95
1034.2787	3067.0264	910.65	30.95
1034.3878	3068.0469	912	32.85
1034.497	3069.0668	910.7	28.95
1034.6061	3070.086	909.8	31.85
1034.7151	3071.1046	906.8	27.7
1034.8241	3072.1226	910.25	29.4
1034.9331	3073.1399	908.3	27.65
1035.042	3074.1567	909.25	30.45
1035.1508	3075.1727	912.65	32.85
1035.2597	3076.1882	905.8	27.05
1035.3684	3077.203	907.5	29.2
1035.4772	3078.2173	906.55	25.5
1035.5859	3079.2308	908.5	27
1035.6945	3080.2438	908.1	25
1035.8031	3081.2561	903.6	24
1035.9117	3082.2678	904.8	26
1036.0202	3083.2789	903.9	25.35
1036.1286	3084.2893	902.65	22.65
1036.2371	3085.2991	902.3	21.3
1036.3454	3086.3083	905.7	22.35
1036.4538	3087.3169	903.55	23.2
1036.562	3088.3248	905.45	25.2
1036.6703	3089.3321	903.7	23.1
1036.7785	3090.3388	897.65	17.55
1036.8866	3091.3449	900.85	20.4
1036.9948	3092.3503	903.35	20.55
1037.1028	3093.3551	899.1	21.4
1037.2108	3094.3593	901.4	24.8
1037.3188	3095.3629	899.5	22.6
1037.4267	3096.3658	900.3	19.1
1037.5346	3097.3681	900.4	21.8
1037.6425	3098.3698	899.75	18.75
1037.7503	3099.3708	900.05	21.55
1037.858	3100.3713	897.4	19.15
1037.9657	3101.3711	900.75	20.1
1038.0734	3102.3702	1034.55	21.3
1038.181	3103.3688	899	18.85
1038.2886	3104.3667	896	16.35
1038.3961	3105.364	898.65	18.75
1038.5036	3106.3607	897.65	16.4
1038.611	3107.3568	899.25	19.7
1038.7184	3108.3522	896	18.3
1038.8257	3109.347	897.05	17.75
1038.933	3110.3412	902.45	20.6
1039.0403	3111.3348	896.3	16.9
1039.1475	3112.3277	894.7	16.4
1039.2547	3113.32	894.1	15.95
1039.3618	3114.3117	894.95	14.55
1039.4689	3115.3028	895.2	16.8
1039.5759	3116.2932	899.9	18.75
1039.6829	3117.2831	901.65	20.2
1039.7898	3118.2723	894.95	17
1039.8967	3119.2608	893.2	12.5
1040.0035	3120.2488	895	15.95
1040.1103	3121.2361	894	14.35
1040.2171	3122.2229	891.75	12.75
1040.3238	3123.209	894.8	14.75
1040.4305	3124.1944	893.05	15.25
1040.5371	3125.1793	896.65	16.8
1040.6437	3126.1635	892.3	14.55
1040.7502	3127.1471	891.1	12.15
1040.8567	3128.1301	892.25	14.35
1040.9631	3129.1125	892.2	15.65
1041.0695	3130.0942	891.45	14.65
1041.1759	3131.0753	899	12.6
1041.2822	3132.0558	895.05	13.25
1041.3884	3133.0357	893.6	14.65
1041.4946	3134.015	892.05	10.4
1041.6008	3134.9936	893	11.75
1041.7069	3135.9716	910.95	9.65
1041.813	3136.949	891.4	11.75
1041.919	3137.9258	910.55	14.1
1042.025	3138.902	895.5	9.95
1042.1309	3139.8775	891.45	13.55
1042.2368	3140.8524	890.55	12.3
1042.3427	3141.8267	891.85	9.25
1042.4485	3142.8004	891.45	10.4
1042.5542	3143.7735	895.05	8.4
1042.6599	3144.7459	892.8	14.25
1042.7656	3145.7178	890.5	8.45
1042.8712	3146.689	889.45	10
1042.9768	3147.6596	891.35	9.9
1043.0823	3148.6295	890.75	11.65
1043.1878	3149.5989	888.9	10.3
1043.2932	3150.5676	887	9.2
1043.3986	3151.5357	888.45	10.6
1043.5039	3152.5032	890.3	11.95
1043.6092	3153.4701	887.9	9.95
1043.7145	3154.4364	891.9	10.4
1043.8197	3155.402	888.5	9.15
1043.9248	3156.367	893.95	14.55
1044.03	3157.3315	932.05	9.15
1044.135	3158.2952	889.35	10.05
1044.24	3159.2584	889.75	11.25
1044.345	3160.221	890.1	10.6
1044.4499	3161.1829	889.75	9.5
1044.5548	3162.1442	889.75	12.85
1044.6596	3163.105	888.2	8.7
1044.7644	3164.065	887.55	7.7
1044.8692	3165.0245	889.6	8.8
1044.9739	3165.9834	885.45	6.9
1045.0785	3166.9416	888.5	9.9
1045.1831	3167.8993	889.3	9.7
1045.2877	3168.8563	888.7	8.4
1045.3922	3169.8127	888	8.8
1045.4966	3170.7684	887.6	8.3
1045.6011	3171.7236	889.1	8.8
1045.7054	3172.6782	889	9.9
1045.8098	3173.6321	890.3	10.85
1045.914	3174.5854	894.35	9.75
1046.0183	3175.5381	887.9	10.1
1046.1224	3176.4902	889.4	12.2
1046.2266	3177.4417	888.45	10.6
1046.3307	3178.3926	887.35	7.9
1046.4347	3179.3428	886.95	7.5
1046.5387	3180.2924	887.45	8
1046.6427	3181.2415	887.95	8.5
1046.7466	3182.1899	890.15	11
1046.8504	3183.1377	888.1	7.35
1046.9542	3184.0848	890.45	7.25
1047.058	3185.0314	888.9	9.2
1047.1617	3185.9773	889.65	10.2
1047.2654	3186.9227	887.45	9.5
1047.369	3187.8674	886.25	7.15
1047.4726	3188.8115	890.1	8.1
1047.5761	3189.755	887.7	9.85
1047.6796	3190.6979	887.85	9.6
1047.783	3191.6402	885.45	8.65
1047.8864	3192.5818	886.95	8.15
1047.9898	3193.5229	914.55	11.15
1048.0931	3194.4633	886.85	8.6
1048.1963	3195.4031	886.6	6.4
1048.2995	3196.3423	885.35	6.4
1048.4027	3197.2809	888	8.05
1048.5058	3198.2189	886.05	6.85
1048.6089	3199.1563	894.25	8.2
1048.7119	3200.0931	886.45	8.1
1048.8148	3201.0292	885.55	9
1048.9178	3201.9648	886.25	6.85
1049.0206	3202.8997	890.3	10.7
1049.1235	3203.834	888.05	8.85
1049.2262	3204.7677	885.35	5.05
1049.329	3205.7008	889.3	9.9
1049.4317	3206.6333	886.8	7.95
1049.5343	3207.5652	889.8	10.9
1049.6369	3208.4964	886.95	7.85
1049.7394	3209.4271	887.45	10.55
1049.8419	3210.3571	885.8	9.15
1049.9444	3211.2865	887.4	7.15
1050.0468	3212.2154	887.3	6.95
1050.1491	3213.1436	891.4	10.8
1050.2514	3214.0712	892.55	8.75
1050.3537	3214.9982	885.85	7.15
1050.4559	3215.9246	887.85	9
1050.5581	3216.8503	886.1	8.8
1050.6602	3217.7755	885.25	5.75
1050.7623	3218.7001	886.5	5.85
1050.8643	3219.624	884.3	5.95
1050.9663	3220.5473	884.8	4.9
1051.0682	3221.4701	887	7.1
1051.1701	3222.3922	888.25	9.75
1051.2719	3223.3137	883.25	4.65
1051.3737	3224.2346	884.15	7.9
1051.4754	3225.1549	885.25	6.5
1051.5771	3226.0746	886.05	8.55
1051.6788	3226.9937	887.45	8
1051.7804	3227.9121	886.8	11.05
1051.8819	3228.83	883.05	6.05
1051.9834	3229.7473	883.5	2.5
1052.0849	3230.6639	885.9	4.6
1052.1863	3231.5799	883.9	4.1
1052.2876	3232.4954	884.7	5
1052.3889	3233.4102	885.2	7.05
1052.4902	3234.3244	887.3	8.05
1052.5914	3235.238	884.7	4.95
1052.6926	3236.151	908.55	7.95
1052.7937	3237.0634	885.95	10.3
1052.8948	3237.9752	884.5	5.4
1052.9958	3238.8864	884.55	5.6
1053.0968	3239.797	885	8.25
1053.1977	3240.7069	883.05	4.2
1053.2986	3241.6163	887.35	7.95
1053.3994	3242.5251	883.95	8.15
1053.5002	3243.4332	885.35	6.5
1053.6009	3244.3408	885.1	7.1
1053.7016	3245.2477	882.2	5.35
1053.8022	3246.154	887.4	8.4
1053.9028	3247.0598	886.45	6.35
1054.0034	3247.9649	882.4	5.05
1054.1039	3248.8694	885.3	4.65
1054.2043	3249.7733	884.15	8.05
1054.3047	3250.6766	884.3	5.45
1054.4051	3251.5793	885.05	7.05
1054.5054	3252.4814	883.05	5.05
1054.6056	3253.3829	883.1	6.55
1054.7058	3254.2838	883.35	4.9
1054.806	3255.1841	883.25	4.15
1054.9061	3256.0838	883.6	5.35
1055.0061	3256.9829	883.45	5.75
1055.1062	3257.8814	885.6	4.35
1055.2061	3258.7792	885.3	5.65
1055.306	3259.6765	885.05	5.45
1055.4059	3260.5731	885.1	7.5
1055.5057	3261.4692	883.15	2.65
1055.6055	3262.3647	884.3	4.2
1055.7052	3263.2595	882.6	4.65
1055.8049	3264.1538	879.6	0.95
1055.9045	3265.0474	883.4	3.2
1056.0041	3265.9404	883.1	4.4
1056.1036	3266.8329	882.9	4.25
1056.2031	3267.7247	893.3	3.2
1056.3025	3268.616	881.1	4.8
1056.4019	3269.5066	883.7	4.7
1056.5013	3270.3966	884.5	5.2
1056.6005	3271.286	881.2	1.8
