Software Version:	3.9.2.0
Unit SN:	10000200
Spectrometer SN:	6960
Date:	3/8/2024 12:44:44 PM
Data Line Index:	25
Spectral Points:	2048
Integration time (ms):	125
Averages:	20
Delay (ms):	30000
Sequence Number:	1
Processing:	dark subtract
Laser Power (mW):	300
Laser Current (mA):	822
Laser Diode Temp (C):	25.1
Laser Case Temp (C):	26.1
System Temp (C):	26.1
Spectrometer Temp (C):	23.9
CCD Temp (C):	0.009
Secondary Temp (C):	20.004
Heatsink Temp (C):	20.929
CCDPCB Temp (C):	36.207
SecondaryPCB Temp (C):	30.482

Wavelength	RamanShift	Raw Counts	Dark Subtracted
787.061	30.1047	454.3	43.05
787.2016	32.3739	455.6	47.25
787.3422	34.6426	461.5	53.3
787.4828	36.9109	468.5	58.1
787.6235	39.1787	475.8	61.5
787.7642	41.4461	485.9	67.95
787.9049	43.7131	495.2	73.8
788.0456	45.9796	500.15	76
788.1863	48.2456	511.4	81.45
788.3271	50.5112	521.95	86.6
788.4679	52.7764	528.3	91.15
788.6087	55.0411	538.1	96.15
788.7496	57.3054	552.3	107.75
788.8904	59.5692	561.1	114.75
789.0313	61.8326	569.35	118.1
789.1722	64.0955	581.2	126.75
789.3132	66.3579	598.85	138.75
789.4541	68.6199	620.45	160.35
789.5951	70.8815	655.7	189.3
789.7361	73.1426	741.9	270.9
789.8771	75.4032	954.75	478.4
790.0181	77.6634	1490	1010.6
790.1592	79.9231	2728.35	2238.1
790.3003	82.1824	5422.9	4912.5
790.4414	84.4412	10228.95	9681.9
790.5825	86.6995	16794.45	16200.7
790.7237	88.9574	23090.35	22457.95
790.8648	91.2148	27304.95	26644.75
791.006	93.4717	29179.75	28499.2
791.1472	95.7282	29380.8	28692.65
791.2885	97.9842	29059.6	28364.55
791.4297	100.2398	28249.5	27559.3
791.571	102.4949	27363.55	26668.35
791.7123	104.7495	26361.55	25666.45
791.8536	107.0036	25404.1	24706.6
791.9949	109.2573	24522	23829.55
792.1363	111.5105	23712.6	23012.5
792.2777	113.7632	23014.15	22312.1
792.4191	116.0154	22460.25	21746.95
792.5605	118.2672	22041.5	21329.35
792.7019	120.5185	21634.35	20926.65
792.8434	122.7693	21296.95	20589.6
792.9849	125.0197	21047.3	20328.35
793.1264	127.2696	20768.1	20053.05
793.2679	129.519	20553.8	19832.95
793.4094	131.7679	20257.95	19531.7
793.551	134.0163	19979.45	19246.35
793.6926	136.2642	19627.1	18892.95
793.8342	138.5117	19253.45	18508.95
793.9758	140.7587	18829.6	18090.35
794.1175	143.0052	18454.8	17714.8
794.2591	145.2512	18138.5	17400.65
794.4008	147.4967	17773.25	17033.15
794.5425	149.7417	17536.9	16792.85
794.6842	151.9863	17360.55	16614.3
794.826	154.2304	17208.7	16450.75
794.9677	156.4739	17051.95	16295.5
795.1095	158.717	16949.45	16189.6
795.2513	160.9596	16736.65	15976.55
795.3931	163.2017	16475.1	15709.2
795.535	165.4433	16172.25	15406.8
795.6768	167.6844	15833.65	15068.2
795.8187	169.925	15509.5	14742.15
795.9606	172.1651	15135.5	14365.7
796.1025	174.4047	14881.45	14108.3
796.2445	176.6439	14624.2	13850.45
796.3864	178.8825	14407.3	13625.65
796.5284	181.1206	14268.95	13486
796.6704	183.3582	14128.65	13339.5
796.8124	185.5954	14059.55	13268.55
796.9544	187.832	13986.45	13193.75
797.0965	190.0681	13941.8	13147.15
797.2386	192.3037	13916.1	13114.9
797.3806	194.5388	13935.9	13129.7
797.5228	196.7734	13952.2	13146.85
797.6649	199.0075	14006.65	13198.2
797.807	201.2411	14121.25	13314.1
797.9492	203.4742	14220.45	13411.9
798.0914	205.7068	14419.5	13605.9
798.2336	207.9389	14515.8	13696
798.3758	210.1704	14677.45	13864.6
798.518	212.4015	14768	13968.75
798.6603	214.632	14936.25	14144.05
798.8025	216.862	15078.7	14286.2
798.9448	219.0915	15192.9	14396.55
799.0871	221.3205	15290.55	14496.25
799.2294	223.549	15379.6	14588.95
799.3718	225.777	15495.65	14703.45
799.5141	228.0044	15596.85	14797.95
799.6565	230.2314	15728.2	14930
799.7989	232.4578	15825.4	15024.95
799.9413	234.6837	15996.65	15190.6
800.0837	236.909	16070.7	15255.95
800.2262	239.1339	16038.5	15200.85
800.3687	241.3582	15968.8	15145.05
800.5111	243.582	15856.35	15000.5
800.6536	245.8053	15769.45	14934
800.7961	248.0281	15711.35	14879.75
800.9387	250.2503	15715.65	14875.85
801.0812	252.472	15765.55	14920
801.2238	254.6932	15874.9	15036.4
801.3664	256.9139	16008.8	15168.3
801.509	259.134	16204.9	15358.2
801.6516	261.3536	16445.65	15598.7
801.7942	263.5727	16771	15928.2
801.9369	265.7912	17008.85	16164.1
802.0795	268.0092	17291.65	16443.4
802.2222	270.2267	17517.9	16672.8
802.3649	272.4436	17666.2	16820.5
802.5076	274.6601	17677.15	16818.8
802.6504	276.8759	17575.65	16722.15
802.7931	279.0913	17532.5	16681.65
802.9359	281.3061	17356.8	16502.15
803.0787	283.5204	17300.45	16445.1
803.2215	285.7341	17291	16431.2
803.3643	287.9473	17295.35	16419.95
803.5071	290.16	17392.8	16529.95
803.6499	292.3721	17481.55	16624.35
803.7928	294.5837	17682.4	16819.45
803.9357	296.7947	17888.6	17031.55
804.0786	299.0052	18072.85	17209.05
804.2215	301.2152	18055.6	17196.9
804.3644	303.4246	17841.35	16987.4
804.5074	305.6334	17509.1	16653.1
804.6503	307.8418	17119.65	16254.7
804.7933	310.0495	16662.8	15799.95
804.9363	312.2568	16269.5	15403.15
805.0793	314.4635	15849.5	14980.2
805.2223	316.6696	15551.2	14687.15
805.3653	318.8752	15286.35	14408.55
805.5084	321.0802	15199.3	14325.55
805.6514	323.2847	15228.9	14354.25
805.7945	325.4887	15247.8	14374.4
805.9376	327.692	15258.45	14382.1
806.0807	329.8949	15217.6	14340.45
806.2238	332.0972	15029.45	14155.8
806.367	334.2989	14809.75	13928.85
806.5101	336.5001	14556.45	13677.95
806.6533	338.7007	14359.6	13480.15
806.7965	340.9008	14189.55	13308.95
806.9397	343.1003	13998	13116.2
807.0829	345.2992	13887.7	13006.1
807.2261	347.4976	13778.7	12899.2
807.3693	349.6955	13682.25	12798.3
807.5126	351.8927	13654.4	12761.5
807.6559	354.0895	13608.75	12705.75
807.7991	356.2856	13584.85	12691.95
807.9424	358.4812	13531.85	12643.4
808.0857	360.6763	13517.25	12626.45
808.2291	362.8707	13506.15	12613.45
808.3724	365.0646	13563.1	12671.6
808.5158	367.258	13617.1	12718.95
808.6591	369.4508	13657.25	12754.25
808.8025	371.643	13774.1	12870.4
808.9459	373.8346	13884.75	12982.45
809.0893	376.0257	13977.45	13073.65
809.2327	378.2162	13976.6	13073.25
809.3762	380.4062	13964.1	13062.55
809.5196	382.5956	13862.4	12964.2
809.6631	384.7844	13734.85	12838.5
809.8066	386.9726	13617.95	12726.2
809.9501	389.1603	13513	12620.55
810.0936	391.3474	13492.8	12570.4
810.2371	393.5339	13442.45	12546.25
810.3806	395.7199	13368.5	12472.75
810.5241	397.9052	13443	12546.3
810.6677	400.09	13542.85	12645.25
810.8113	402.2743	13697.1	12801.7
810.9548	404.4579	13860.95	12967.85
811.0984	406.641	14104.3	13204.8
811.2421	408.8235	14226.75	13323.9
811.3857	411.0054	14380.3	13478.75
811.5293	413.1868	14584	13674.9
811.673	415.3675	14647.05	13733.75
811.8166	417.5477	14653.35	13742.35
811.9603	419.7273	14600.75	13685.5
812.104	421.9064	14509.5	13594.9
812.2477	424.0848	14451.1	13544.35
812.3914	426.2627	14301.8	13392.4
812.5351	428.4399	14032.95	13121.25
812.6788	430.6166	13728.4	12811.1
812.8226	432.7928	13384.1	12467.5
812.9663	434.9683	13066.45	12152.85
813.1101	437.1432	12848.4	11938.6
813.2539	439.3176	12672.8	11769.8
813.3977	441.4914	12551.15	11654.2
813.5415	443.6645	12507.35	11603.5
813.6853	445.8371	12445.55	11534.65
813.8291	448.0091	12416.55	11503.75
813.973	450.1806	12383.05	11476.05
814.1168	452.3514	12369.05	11468.2
814.2607	454.5216	12416.9	11497.05
814.4046	456.6913	12381.45	11469.75
814.5485	458.8603	12450.9	11542.15
814.6924	461.0288	12497.85	11594.6
814.8363	463.1967	12486.25	11585.15
814.9802	465.3639	12514.05	11611.25
815.1241	467.5306	12511.45	11602.4
815.2681	469.6967	12511.75	11611.3
815.412	471.8622	12546.55	11646.75
815.556	474.0271	12591.65	11686.35
815.7	476.1914	12626.15	11714.15
815.844	478.3551	12614.1	11702.15
815.988	480.5182	12668.95	11766.4
816.132	482.6807	12737	11840.7
816.276	484.8426	12930.85	12041.5
816.4201	487.0039	13276.25	12378.9
816.5641	489.1647	13666.35	12759.15
816.7082	491.3248	14033.5	13122.2
816.8522	493.4843	14155.9	13249.8
816.9963	495.6432	14083.75	13176.85
817.1404	497.8015	13951.9	13034.05
817.2845	499.9592	13816.95	12892.85
817.4286	502.1163	13638.95	12714.75
817.5727	504.2728	13312.35	12397.65
817.7168	506.4287	13024.45	12122.75
817.861	508.5839	12709.45	11807.2
818.0051	510.7386	12465.1	11555.1
818.1493	512.8927	12388.35	11467.65
818.2935	515.0461	12377.5	11456.6
818.4377	517.199	12485.6	11566.65
818.5818	519.3512	12625.55	11702.4
818.726	521.5029	12907.05	11985.55
818.8703	523.6539	13159.4	12239.65
819.0145	525.8043	13308.65	12389.55
819.1587	527.9541	13235.15	12311.9
819.303	530.1033	13034.75	12115.3
819.4472	532.2519	12864.5	11943.45
819.5915	534.3999	12783.1	11862.35
819.7357	536.5472	12838.15	11917.35
819.88	538.694	13060.85	12145.8
820.0243	540.8401	13333.3	12410.35
820.1686	542.9856	13553.7	12617.8
820.3129	545.1305	13603.05	12664.4
820.4572	547.2748	13532.35	12590.05
820.6016	549.4185	13350.25	12406.65
820.7459	551.5615	13199.7	12262.1
820.8902	553.704	13208.75	12267.4
821.0346	555.8458	13270.75	12341.8
821.1789	557.987	13465.5	12537.3
821.3233	560.1276	13699.55	12769.1
821.4677	562.2675	14116.6	13180.85
821.6121	564.4069	14632.95	13702.85
821.7565	566.5456	15099.8	14167.55
821.9009	568.6837	15275.45	14345.6
822.0453	570.8212	14834.2	13905.15
822.1897	572.958	14153.05	13221.6
822.3342	575.0942	13494.65	12564.35
822.4786	577.2299	13019.25	12095.3
822.6231	579.3648	12797.2	11885.05
822.7675	581.4992	12716.95	11814.8
822.912	583.6329	12846.25	11948.4
823.0565	585.766	13014.4	12111.2
823.201	587.8985	13160.2	12245
823.3454	590.0304	13232.75	12286.85
823.4899	592.1616	13154.05	12220.8
823.6345	594.2922	13031.2	12098.4
823.779	596.4222	12818.25	11879.35
823.9235	598.5515	12628.65	11688.05
824.068	600.6802	12466	11531.25
824.2126	602.8083	12290.85	11359.65
824.3571	604.9358	12296.7	11364.45
824.5017	607.0626	12305.05	11364.9
824.6462	609.1888	12431.4	11490.2
824.7908	611.3144	12561.65	11614.9
824.9354	613.4393	12687.05	11743.1
825.08	615.5636	12815.15	11868.85
825.2246	617.6873	12847.1	11905.45
825.3692	619.8103	12781.9	11839.3
825.5138	621.9327	12587.95	11650.75
825.6584	624.0544	12337.35	11403.05
825.803	626.1756	12142.7	11207.65
825.9477	628.2961	11994.05	11055.6
826.0923	630.4159	11912.4	10969.65
826.237	632.5351	11910.25	10964.9
826.3816	634.6537	11876.9	10930.7
826.5263	636.7716	11866.5	10919.15
826.6709	638.8889	11871.4	10916.95
826.8156	641.0056	11904.4	10952.55
826.9603	643.1216	11886.15	10934.95
827.105	645.237	11854.8	10909.85
827.2497	647.3518	11757.3	10819.95
827.3944	649.4659	11699.2	10766.5
827.5391	651.5793	11609.6	10675.3
827.6838	653.6922	11605.8	10668.9
827.8285	655.8043	11611	10674.55
827.9733	657.9159	11563.05	10620.05
828.118	660.0268	11545.05	10604.7
828.2627	662.137	11560.15	10614.1
828.4075	664.2466	11576.65	10626.3
828.5522	666.3556	11587.45	10639.35
828.697	668.4639	11525.8	10585.25
828.8418	670.5716	11467.55	10528.65
828.9865	672.6786	11452.55	10509.75
829.1313	674.785	11399.3	10452.75
829.2761	676.8907	11365.05	10422.05
829.4209	678.9958	11368.25	10427.4
829.5657	681.1002	11348.5	10403.25
829.7105	683.204	11354	10398.75
829.8553	685.3072	11313.8	10360.1
830.0001	687.4097	11280.45	10333.55
830.1449	689.5115	11287.1	10335.85
830.2898	691.6127	11285.65	10339.65
830.4346	693.7132	11283.15	10340.4
830.5794	695.8131	11278.2	10312.85
830.7243	697.9123	11290.6	10333.85
830.8691	700.0109	11326.85	10369.9
831.014	702.1089	11358.2	10406.15
831.1588	704.2061	11413.05	10458.35
831.3037	706.3028	11496.4	10545.8
831.4486	708.3987	11534.9	10582.5
831.5935	710.4941	11570.8	10617
831.7383	712.5887	11588.7	10641.65
831.8832	714.6827	11710.25	10757
832.0281	716.7761	11828.1	10879.25
832.173	718.8688	11976.2	11029.15
832.3179	720.9608	12125.6	11168.65
832.4628	723.0522	12281.35	11314.55
832.6077	725.1429	12336.65	11377.65
832.7527	727.233	12394.75	11440.1
832.8976	729.3224	12464.85	11511.2
833.0425	731.4112	12431.2	11475.45
833.1874	733.4993	12280.5	11324.2
833.3324	735.5867	12030.35	11078.6
833.4773	737.6735	11798.7	10845.2
833.6222	739.7596	11619.75	10661.65
833.7672	741.845	11442	10487.7
833.9122	743.9298	11364.4	10411.35
834.0571	746.014	11340.95	10383.85
834.2021	748.0974	11324.65	10362.45
834.347	750.1802	11340.1	10376.05
834.492	752.2624	11347.65	10385.3
834.637	754.3439	11382.6	10419.05
834.782	756.4247	11524.75	10555.6
834.9269	758.5048	11661.55	10705.15
835.0719	760.5843	11979.3	11018.65
835.2169	762.6631	12388.9	11426.55
835.3619	764.7413	12967.5	12004.3
835.5069	766.8188	13710.35	12744.65
835.6519	768.8956	14300.6	13337.95
835.7969	770.9718	14696.7	13737.05
835.9419	773.0473	14692.7	13732.6
836.0869	775.1221	14421.1	13465.4
836.232	777.1962	14132.85	13174.15
836.377	779.2697	14040.8	13078.85
836.522	781.3426	14118	13145.55
836.667	783.4147	14203.95	13241.55
836.8121	785.4862	14271.85	13310.55
836.9571	787.557	14089.15	13126.05
837.1021	789.6271	13586.75	12623.05
837.2472	791.6966	12958.9	11999.55
837.3922	793.7654	12348.75	11385
837.5373	795.8335	11874.15	10913.75
837.6823	797.901	11583.45	10624.25
837.8274	799.9678	11408.9	10439.6
837.9724	802.0339	11319	10350.4
838.1175	804.0993	11281.7	10305.7
838.2626	806.1641	11202.95	10239
838.4076	808.2282	11150.05	10189.5
838.5527	810.2916	11038.9	10075.05
838.6978	812.3544	10985.75	10027.05
838.8428	814.4164	10914.75	9955.7
838.9879	816.4778	10949.85	9982
839.133	818.5385	10985.45	10017.75
839.2781	820.5986	11126.45	10157.65
839.4232	822.658	11371.05	10403.75
839.5682	824.7166	11748.65	10782.45
839.7133	826.7747	12272.05	11305.45
839.8584	828.832	12823.1	11855.3
840.0035	830.8886	13250.3	12281.95
840.1486	832.9446	13452.1	12481.3
840.2937	834.9999	13299.1	12331.8
840.4388	837.0545	12957.45	11989.65
840.5839	839.1085	12624.25	11660.05
840.729	841.1618	12276.2	11305.25
840.8741	843.2143	12005.25	11035.65
841.0192	845.2662	11788.2	10822
841.1643	847.3175	11663.25	10695.6
841.3095	849.368	11521.2	10555.25
841.4546	851.4179	11445.65	10475.55
841.5997	853.467	11337.6	10371.95
841.7448	855.5155	11265.8	10297.6
841.8899	857.5633	11198.9	10228.2
842.0351	859.6105	11095.55	10128.6
842.1802	861.6569	11029.8	10063.05
842.3253	863.7027	10941.75	9968.65
842.4704	865.7478	10922.95	9947.35
842.6156	867.7922	10875.25	9904.25
842.7607	869.8359	10848.45	9876
842.9058	871.8789	10854.45	9886.7
843.0509	873.9212	10953.75	9952.05
843.1961	875.9629	11011.8	10041.95
843.3412	878.0039	11142.75	10171.65
843.4863	880.0441	11200.55	10238.1
843.6315	882.0837	11273.75	10306.55
843.7766	884.1226	11336.65	10370.65
843.9218	886.1609	11398.25	10432.35
844.0669	888.1984	11494.75	10526.95
844.212	890.2352	11645.65	10675.35
844.3572	892.2714	11693.95	10717.85
844.5023	894.3069	11609.1	10640.5
844.6475	896.3416	11445.5	10475.1
844.7926	898.3757	11303.7	10332.75
844.9377	900.4091	11161.15	10188.35
845.0829	902.4418	11165.5	10187.3
845.228	904.4739	11202.05	10226.5
845.3732	906.5052	11248.65	10274.35
845.5183	908.5358	11209.55	10238.25
845.6635	910.5658	11078.8	10107.1
845.8086	912.595	10890.4	9916.15
845.9538	914.6236	10653.2	9684.55
846.0989	916.6515	10500.6	9526.25
846.2441	918.6786	10418	9441.15
846.3892	920.7051	10400.1	9424.8
846.5344	922.7309	10466.5	9491.1
846.6795	924.756	10481.35	9511.45
846.8246	926.7804	10564.35	9593
846.9698	928.8041	10543.6	9571
847.1149	930.8272	10631.9	9662.25
847.2601	932.8495	10599.45	9631.6
847.4052	934.8711	10560.95	9591.5
847.5504	936.892	10542.45	9570.6
847.6955	938.9123	10513.25	9537.65
847.8407	940.9318	10538.65	9563.8
847.9858	942.9506	10559.7	9586.45
848.131	944.9688	10480.15	9510.3
848.2761	946.9862	10380.5	9412.45
848.4213	949.003	10231.6	9257.4
848.5664	951.019	10138.25	9164.3
848.7115	953.0344	10065.7	9094.5
848.8567	955.0491	10036.35	9060.05
849.0018	957.063	10067.6	9093.85
849.147	959.0763	10173.65	9201.7
849.2921	961.0888	10212.65	9243.7
849.4373	963.1007	10262.85	9293.65
849.5824	965.1119	10261.5	9304
849.7275	967.1223	10243.55	9289.15
849.8727	969.1321	10216.7	9265.2
850.0178	971.1412	10217.25	9256.75
850.1629	973.1495	10227.65	9264.5
850.3081	975.1572	10260.1	9239.7
850.4532	977.1641	10269.8	9297.4
850.5983	979.1704	10237.55	9263.9
850.7435	981.1759	10201.4	9227.25
850.8886	983.1808	10203.8	9232
851.0337	985.1849	10228.2	9243.65
851.1788	987.1884	10287.9	9315.35
851.324	989.1911	10363.7	9390.8
851.4691	991.1932	10444.9	9475.05
851.6142	993.1945	10454.15	9487.05
851.7593	995.1951	10421.9	9452.2
851.9045	997.1951	10430.2	9453.85
852.0496	999.1943	10365.5	9394.95
852.1947	1001.1928	10326.75	9352.4
852.3398	1003.1906	10404.75	9437.55
852.4849	1005.1877	10523.85	9553.55
852.63	1007.1841	10610.5	9641.2
852.7751	1009.1798	10652.4	9681.65
852.9202	1011.1748	10567.65	9599.8
853.0653	1013.1691	10438.3	9471.25
853.2104	1015.1627	10195.65	9224.75
853.3555	1017.1556	9974.75	9010
853.5006	1019.1477	9863.45	8901.25
853.6457	1021.1392	9769	8807.45
853.7908	1023.1299	9713.05	8757.2
853.9359	1025.12	9726.85	8778.5
854.081	1027.1093	9789.05	8854.7
854.2261	1029.0979	9879.75	8946.9
854.3712	1031.0859	9971.3	9029.3
854.5163	1033.0731	10011.85	9056.8
854.6613	1035.0596	10001.35	9045.65
854.8064	1037.0454	9878.7	8916.25
854.9515	1039.0304	9768.55	8801.3
855.0965	1041.0148	9660.25	8692.05
855.2416	1042.9985	9550.05	8583.3
855.3867	1044.9814	9519.75	8551.5
855.5317	1046.9636	9465.85	8499.95
855.6768	1048.9452	9459.85	8496.05
855.8219	1050.926	9497.85	8533.65
855.9669	1052.9061	9525.6	8558.5
856.112	1054.8855	9547.95	8579.95
856.257	1056.8642	9621.95	8653.35
856.4021	1058.8421	9634.3	8663.15
856.5471	1060.8194	9657.1	8685.4
856.6921	1062.7959	9713	8744.15
856.8372	1064.7717	9781.8	8811.7
856.9822	1066.7469	9851.55	8885.75
857.1272	1068.7213	9944.05	8974.7
857.2723	1070.695	10024.15	9058.85
857.4173	1072.6679	10063.75	9096.5
857.5623	1074.6402	10107.85	9141.55
857.7073	1076.6117	10042.6	9068.1
857.8523	1078.5826	9956.15	8989.6
857.9973	1080.5527	9803.05	8831.4
858.1423	1082.5221	9698	8734.35
858.2873	1084.4908	9685	8719.4
858.4323	1086.4587	9663.85	8691.25
858.5773	1088.426	9711.2	8741.6
858.7223	1090.3925	9705.4	8733.45
858.8673	1092.3584	9742	8775.8
859.0123	1094.3235	9777.3	8812.5
859.1573	1096.2879	9858.4	8889.6
859.3022	1098.2515	9978.85	9011.8
859.4472	1100.2145	10160.85	9196.7
859.5922	1102.1767	10357.95	9388.95
859.7371	1104.1382	10589.7	9624.85
859.8821	1106.099	10870.6	9900.85
860.027	1108.0591	11124.4	10159.25
860.172	1110.0185	11270.55	10301.35
860.3169	1111.9771	11332.85	10369.65
860.4619	1113.9351	11258.55	10295.8
860.6068	1115.8923	11101.65	10139.9
860.7517	1117.8488	10957.65	9990.3
860.8967	1119.8045	10766.55	9803.95
861.0416	1121.7596	10632.55	9670.5
861.1865	1123.7139	10486.4	9524.85
861.3314	1125.6675	10448.95	9483.85
861.4763	1127.6204	10487.9	9520.45
861.6212	1129.5726	10427.9	9463.15
861.7661	1131.524	10352.1	9387.05
861.911	1133.4748	10199.25	9231.65
862.0559	1135.4248	9994.4	9027.65
862.2008	1137.3741	9867.45	8899.1
862.3457	1139.3226	9729.35	8764.5
862.4905	1141.2705	9656	8689.8
862.6354	1143.2176	9583	8613.85
862.7803	1145.164	9546.05	8579.25
862.9251	1147.1097	9467.4	8502.05
863.07	1149.0546	9356.45	8388.9
863.2148	1150.9989	9270.1	8305.75
863.3597	1152.9424	9144.5	8181.05
863.5045	1154.8852	9069.6	8104.7
863.6493	1156.8272	9051.35	8085.45
863.7942	1158.7686	9071.8	8098.35
863.939	1160.7092	9075.15	8105.65
864.0838	1162.6491	9106.5	8141.35
864.2286	1164.5883	9234	8267.05
864.3734	1166.5267	9351.65	8384.45
864.5182	1168.4644	9519.2	8554.35
864.663	1170.4014	9701.25	8734.7
864.8078	1172.3377	9965.1	9002.15
864.9526	1174.2732	10291.1	9331.05
865.0974	1176.2081	10729.45	9765.35
865.2421	1178.1421	11246.5	10278.75
865.3869	1180.0755	11796	10832.95
865.5317	1182.0082	12198.3	11237.8
865.6764	1183.9401	12377	11415.8
865.8212	1185.8713	12250.95	11295.9
865.9659	1187.8017	11898.35	10953.2
866.1106	1189.7315	11468.85	10530.75
866.2554	1191.6605	11029.65	10090.9
866.4001	1193.5888	10723.9	9779.3
866.5448	1195.5163	10565.2	9612.95
866.6895	1197.4432	10445.9	9488.05
866.8342	1199.3693	10422	9465.65
866.9789	1201.2947	10392	9426.15
867.1236	1203.2193	10348.2	9389.65
867.2683	1205.1432	10347.1	9383.8
867.413	1207.0664	10306.1	9344.55
867.5576	1208.9889	10265.6	9301.75
867.7023	1210.9106	10261.8	9302.4
867.847	1212.8316	10260.6	9300.5
867.9916	1214.7519	10316.4	9349.85
868.1363	1216.6715	10323.15	9366.85
868.2809	1218.5903	10402.7	9447.7
868.4255	1220.5084	10488.4	9532.35
868.5701	1222.4257	10598.95	9640.6
868.7148	1224.3424	10673.9	9716.2
868.8594	1226.2583	10777.1	9823.5
869.004	1228.1735	10954.7	9997.2
869.1486	1230.0879	11120.6	10161.35
869.2932	1232.0016	11303.4	10341.3
869.4377	1233.9146	11449.05	10488.25
869.5823	1235.8269	11476.7	10515.1
869.7269	1237.7384	11460.4	10501.25
869.8715	1239.6492	11320.85	10362.75
870.016	1241.5592	11309.3	10349.95
870.1606	1243.4686	11375.85	10417.3
870.3051	1245.3772	11589.45	10630.8
870.4496	1247.285	11793.95	10834.2
870.5941	1249.1922	12015.7	11062.75
870.7387	1251.0986	12200.15	11241.9
870.8832	1253.0042	12287.7	11331.9
871.0277	1254.9092	12435.55	11480.7
871.1722	1256.8134	12524.7	11570.25
871.3167	1258.7169	12680.55	11722.7
871.4611	1260.6196	12832.15	11875.65
871.6056	1262.5216	13067.65	12112.6
871.7501	1264.4229	13289.8	12333.55
871.8945	1266.3234	13465.75	12511.4
872.039	1268.2232	13651.7	12695.4
872.1834	1270.1223	13715.5	12756.25
872.3278	1272.0207	13768.65	12810.9
872.4723	1273.9183	13707	12743.65
872.6167	1275.8151	13631.65	12670.7
872.7611	1277.7113	13637.75	12684.75
872.9055	1279.6067	13751.9	12797.85
873.0499	1281.5014	14013.65	13058.45
873.1943	1283.3953	14461.95	13501.65
873.3386	1285.2885	15030.3	14075.15
873.483	1287.181	15592.65	14635.8
873.6274	1289.0727	16163	15212.85
873.7717	1290.9637	16532.9	15573.85
873.9161	1292.854	16749.7	15794.8
874.0604	1294.7435	16721.35	15767.1
874.2047	1296.6323	16578.6	15626.75
874.349	1298.5204	16393.45	15435.25
874.4933	1300.4077	16152.5	15197.55
874.6376	1302.2943	15885.3	14931.45
874.7819	1304.1802	15556.65	14602.6
874.9262	1306.0653	15033.45	14078.9
875.0705	1307.9497	14503.9	13550.9
875.2147	1309.8333	14021.65	13066.35
875.359	1311.7162	13696.35	12744.35
875.5032	1313.5984	13469.6	12512.45
875.6475	1315.4798	13301.65	12333.3
875.7917	1317.3605	13195.55	12236.1
875.9359	1319.2405	13039.8	12082.45
876.0801	1321.1197	12802.6	11844.95
876.2243	1322.9982	12461.4	11501.4
876.3685	1324.876	12133.35	11178.9
876.5127	1326.753	11803.95	10852.6
876.6569	1328.6293	11597.5	10637.25
876.801	1330.5048	11389.35	10429.2
876.9452	1332.3796	11213.35	10254.85
877.0893	1334.2537	11129	10148.2
877.2335	1336.127	11008.85	10054.3
877.3776	1337.9996	10953.35	9997.5
877.5217	1339.8714	10957.75	9999.05
877.6658	1341.7426	10996.75	9997.6
877.8099	1343.6129	10986.45	10029.9
877.954	1345.4826	10965.95	10012.05
878.0981	1347.3515	10984.65	10022.7
878.2422	1349.2196	10976.8	10020.05
878.3862	1351.087	10979	10020
878.5303	1352.9537	11028.6	10070
878.6743	1354.8197	11178.6	10222.1
878.8184	1356.6849	11297.35	10341.3
878.9624	1358.5493	11493.65	10536.8
879.1064	1360.4131	11696.65	10741.55
879.2504	1362.276	11829.85	10875.6
879.3944	1364.1383	11875.5	10925.45
879.5384	1365.9998	11708.95	10749.2
879.6823	1367.8606	11363.8	10403.85
879.8263	1369.7206	10996.3	10041.35
879.9702	1371.5799	10628	9668.65
880.1142	1373.4384	10350.9	9392.85
880.2581	1375.2962	10101.2	9143.95
880.402	1377.1533	9761.6	8807.55
880.5459	1379.0096	9398.6	8451.6
880.6898	1380.8652	9029.15	8080
880.8337	1382.7201	8763.15	7813.3
880.9776	1384.5742	8481.95	7531.9
881.1215	1386.4275	8288.1	7333.55
881.2653	1388.2802	8118.4	7160.85
881.4092	1390.132	8009.4	7054
881.553	1391.9832	7934.8	6976.4
881.6968	1393.8336	7846.75	6891.9
881.8406	1395.6832	7813.85	6859.2
881.9844	1397.5322	7772	6821.05
882.1282	1399.3803	7730.65	6772.3
882.272	1401.2278	7694.5	6740.2
882.4158	1403.0745	7682.8	6733.55
882.5595	1404.9204	7639.6	6690.5
882.7033	1406.7656	7679.3	6727
882.847	1408.6101	7704.55	6746.35
882.9908	1410.4538	7721	6766.9
883.1345	1412.2968	7776.6	6822.75
883.2782	1414.139	7817.8	6865.45
883.4219	1415.9805	7880.55	6931.8
883.5656	1417.8213	7941.4	6980.75
883.7092	1419.6613	8050.05	7102.95
883.8529	1421.5006	8206.6	7255.6
883.9965	1423.3391	8434.75	7484.4
884.1402	1425.1769	8702.85	7747.15
884.2838	1427.0139	9129.4	8178.25
884.4274	1428.8502	9671	8720.3
884.571	1430.6858	10227.65	9275.1
884.7146	1432.5206	10614.15	9659.5
884.8582	1434.3547	10823.35	9871.6
885.0018	1436.188	10863.35	9914.5
885.1453	1438.0206	10785.65	9833.7
885.2889	1439.8524	10607.35	9658.05
885.4324	1441.6835	10505.25	9558.8
885.5759	1443.5139	10395	9443.55
885.7194	1445.3435	10348.6	9398.3
885.8629	1447.1724	10296.45	9347.75
886.0064	1449.0005	10278.85	9331.65
886.1499	1450.8279	10202.4	9256.35
886.2933	1452.6545	10185.45	9241.25
886.4368	1454.4804	10220.25	9273.95
886.5802	1456.3056	10204.9	9252.35
886.7237	1458.13	10134.3	9190.4
886.8671	1459.9536	9967.35	9019.95
887.0105	1461.7766	9676.95	8728.8
887.1539	1463.5987	9385.45	8435.2
887.2972	1465.4202	9055.35	8106
887.4406	1467.2409	8724.15	7776.3
887.584	1469.0608	8450.55	7503.15
887.7273	1470.88	8147.25	7196.6
887.8706	1472.6984	7914.9	6969.7
888.0139	1474.5161	7709.25	6758.3
888.1572	1476.3331	7554.9	6607.1
888.3005	1478.1493	7446.85	6497.95
888.4438	1479.9648	7362.65	6414.2
888.5871	1481.7795	7270.35	6323.55
888.7303	1483.5935	7209.3	6263.35
888.8736	1485.4067	7172.45	6225.85
889.0168	1487.2192	7144.45	6196.8
889.16	1489.031	7084.25	6134.5
889.3032	1490.842	7065	6121.1
889.4464	1492.6522	7019.5	6077.35
889.5896	1494.4618	6974.8	6026.6
889.7327	1496.2705	6957.85	6012.8
889.8759	1498.0785	6911.3	5963.85
890.019	1499.8858	6881.75	5935.3
890.1622	1501.6924	6802.05	5855.9
890.3053	1503.4981	6772.1	5824.2
890.4484	1505.3032	6734.9	5790.95
890.5914	1507.1075	6681.15	5733.6
890.7345	1508.911	6656.15	5711.7
890.8776	1510.7138	6594.6	5651.05
891.0206	1512.5159	6550.4	5605.15
891.1637	1514.3172	6512.55	5568.75
891.3067	1516.1178	6457.65	5514.6
891.4497	1517.9176	6435.45	5491.3
891.5927	1519.7166	6375.8	5432.85
891.7357	1521.515	6371.9	5421
891.8786	1523.3126	6340.3	5400.15
892.0216	1525.1094	6324.8	5380.95
892.1645	1526.9055	6287.2	5346.3
892.3074	1528.7008	6269.25	5329.25
892.4503	1530.4954	6231.05	5288.85
892.5932	1532.2893	6247.25	5308.1
892.7361	1534.0824	6185.15	5243.2
892.879	1535.8747	6186.4	5250.7
893.0218	1537.6663	6190.45	5255.3
893.1647	1539.4572	6186.1	5248.7
893.3075	1541.2473	6196.9	5258.9
893.4503	1543.0367	6218.85	5280.5
893.5931	1544.8253	6224.65	5282.15
893.7359	1546.6132	6259.65	5319
893.8787	1548.4003	6280.45	5332.55
894.0214	1550.1867	6339.8	5398.3
894.1642	1551.9723	6397.4	5458.3
894.3069	1553.7572	6488.35	5551.1
894.4496	1555.5414	6620.95	5688.15
894.5923	1557.3247	6758.7	5827.05
894.735	1559.1074	6931.8	6001.75
894.8777	1560.8893	7114.1	6182.05
895.0204	1562.6705	7293.55	6363.4
895.163	1564.4509	7434.35	6505
895.3056	1566.2305	7510.6	6583.6
895.4482	1568.0094	7559.4	6633.2
895.5908	1569.7876	7548.75	6621.4
895.7334	1571.565	7536.85	6605.75
895.876	1573.3417	7508.05	6576.75
896.0186	1575.1176	7510.55	6581.1
896.1611	1576.8928	7483.7	6559.8
896.3036	1578.6672	7505.55	6584.2
896.4461	1580.4409	7537.55	6620.3
896.5886	1582.2138	7572.45	6647.25
896.7311	1583.986	7643.25	6718.1
896.8736	1585.7575	7751.75	6826.3
897.0161	1587.5282	7854.3	6934.75
897.1585	1589.2981	7956.5	7038.3
897.3009	1591.0673	8066.8	7147.1
897.4433	1592.8358	8216.1	7295.7
897.5857	1594.6035	8315.35	7391.55
897.7281	1596.3704	8441	7513.55
897.8705	1598.1366	8520.55	7596.95
898.0128	1599.9021	8645	7722.85
898.1551	1601.6668	8732.5	7808.6
898.2975	1603.4308	8863.4	7935.65
898.4398	1605.194	9056.9	8127.85
898.5821	1606.9564	9254.8	8341.8
898.7243	1608.7182	9515.85	8605.35
898.8666	1610.4791	9847.95	8942.25
899.0088	1612.2394	10188.15	9284.05
899.1511	1613.9988	10523.45	9615.55
899.2933	1615.7576	10812.8	9898.55
899.4355	1617.5156	11033.7	10104.3
899.5776	1619.2728	11145.9	10221.05
899.7198	1621.0293	11013.15	10090.95
899.862	1622.785	10791	9870.6
900.0041	1624.54	10410	9493.25
900.1462	1626.2942	9995.3	9081.55
900.2883	1628.0477	9550.85	8633
900.4304	1629.8005	9142.4	8225.05
900.5725	1631.5525	8768.15	7852.6
900.7145	1633.3037	8459.4	7546.25
900.8566	1635.0542	8222.15	7308.6
900.9986	1636.804	8019.9	7104.95
901.1406	1638.553	7949.85	6943.55
901.2826	1640.3013	7810.45	6895.6
901.4245	1642.0488	7752.5	6837.3
901.5665	1643.7955	7778.35	6868.35
901.7085	1645.5416	7823.75	6911.8
901.8504	1647.2868	7913.1	6999.95
901.9923	1649.0313	8017.15	7100.65
902.1342	1650.7751	8202.65	7285.55
902.2761	1652.5181	8334.25	7422.8
902.4179	1654.2604	8513.35	7600.6
902.5598	1656.0019	8736.9	7825.3
902.7016	1657.7427	9002.2	8087.65
902.8434	1659.4828	9269.7	8354.95
902.9852	1661.222	9421.35	8503.1
903.127	1662.9606	9430.4	8514.65
903.2687	1664.6984	9176.45	8259.75
903.4105	1666.4354	8739.5	7818.1
903.5522	1668.1717	8179.6	7262.1
903.6939	1669.9072	7588.05	6667.75
903.8356	1671.642	7101.35	6178.2
903.9773	1673.3761	6703.6	5787.4
904.119	1675.1094	6366.8	5453.45
904.2606	1676.8419	6105.45	5190.75
904.4022	1678.5737	5874.65	4958.05
904.5439	1680.3048	5726.75	4808.8
904.6855	1682.0351	5602.45	4686.8
904.827	1683.7646	5486.05	4567.4
904.9686	1685.4934	5368.2	4453
905.1101	1687.2215	5291.05	4376
905.2517	1688.9488	5222.75	4310.55
905.3932	1690.6754	5153.85	4241
905.5347	1692.4012	5098.1	4182.7
905.6761	1694.1263	5048.55	4132.45
905.8176	1695.8506	4990.75	4074.55
905.9591	1697.5742	4947.95	4037.75
906.1005	1699.297	4909.05	4001.25
906.2419	1701.0191	4881.6	3975.05
906.3833	1702.7404	4839.3	3932
906.5246	1704.461	4782.9	3870.95
906.666	1706.1808	4757.2	3843
906.8073	1707.8999	4718.9	3809.7
906.9487	1709.6182	4695.55	3789.7
907.09	1711.3358	4669.85	3765
907.2313	1713.0527	4650.75	3750.45
907.3725	1714.7688	4625.1	3711.5
907.5138	1716.4841	4599.7	3689.2
907.655	1718.1987	4589.1	3673.1
907.7962	1719.9126	4559.05	3654.55
907.9374	1721.6257	4547.1	3639.6
908.0786	1723.338	4543.8	3637.4
908.2198	1725.0496	4504.5	3596.8
908.3609	1726.7605	4499.75	3590.5
908.502	1728.4706	4489.2	3583.1
908.6431	1730.18	4471.9	3566.6
908.7842	1731.8886	4448.75	3545.35
908.9253	1733.5964	4464.05	3538.95
909.0664	1735.3036	4425.65	3515.5
909.2074	1737.0099	4403.8	3496.65
909.3484	1738.7156	4387.35	3484.6
909.4894	1740.4204	4340.9	3434
909.6304	1742.1246	4323.5	3413.25
909.7714	1743.8279	4310.65	3408
909.9123	1745.5306	4292.1	3388.45
910.0532	1747.2325	4273.05	3369.4
910.1941	1748.9336	4242.55	3337.7
910.335	1750.634	4235.3	3326.65
910.4759	1752.3336	4238.25	3333.75
910.6168	1754.0325	4212.1	3308.3
910.7576	1755.7307	4196.45	3294.55
910.8984	1757.4281	4190.4	3287.35
911.0392	1759.1247	4205.7	3289.3
911.18	1760.8206	4183.95	3273.8
911.3208	1762.5158	4178.05	3267.35
911.4615	1764.2102	4156.65	3248.3
911.6022	1765.9039	4142.5	3237.5
911.7429	1767.5968	4137.75	3235.4
911.8836	1769.289	4110.75	3208.4
912.0243	1770.9804	4103.35	3196.45
912.1649	1772.6711	4109.1	3198.7
912.3056	1774.361	4099	3187.75
912.4462	1776.0502	4077.85	3168.8
912.5868	1777.7386	4078.95	3168.55
912.7274	1779.4263	4057.2	3152.05
912.8679	1781.1132	4065.55	3166.15
913.0084	1782.7994	4036.3	3134.35
913.149	1784.4849	4034.7	3135.75
913.2895	1786.1696	4029.5	3111.15
913.4299	1787.8535	4029.55	3129.3
913.5704	1789.5367	3991.95	3091.5
913.7108	1791.2192	3998.6	3099.25
913.8513	1792.9009	4021.25	3090.25
913.9917	1794.5818	3986.3	3078.7
914.132	1796.2621	3982.2	3076.55
914.2724	1797.9415	3959.25	3052.85
914.4128	1799.6202	3957.1	3050.65
914.5531	1801.2982	3953.2	3047.15
914.6934	1802.9755	3934.45	3026.85
914.8337	1804.6519	3932.05	3025.2
914.9739	1806.3277	3918.4	3015.45
915.1142	1808.0027	3905.6	3006.4
915.2544	1809.6769	3904.75	3006.85
915.3946	1811.3504	3868.05	2970
915.5348	1813.0231	3879.4	2979.2
915.675	1814.6951	3873.45	2973.05
915.8151	1816.3664	3879.85	2975.55
915.9553	1818.0369	3877.2	2971.05
916.0954	1819.7067	3866.7	2964.25
916.2355	1821.3757	3865.4	2960.05
916.3755	1823.044	3854.7	2947.6
916.5156	1824.7115	3847.4	2940.85
916.6556	1826.3783	3832.6	2927.9
916.7956	1828.0443	3809.05	2907.15
916.9356	1829.7096	3818.75	2913.35
917.0756	1831.3741	3816.35	2908.95
917.2155	1833.0379	3799.15	2900.2
917.3555	1834.701	3791.2	2890.95
917.4954	1836.3633	3794.1	2894.7
917.6353	1838.0248	3783.5	2880.45
917.7751	1839.6856	3783.3	2881.75
917.915	1841.3457	3770.1	2867.65
918.0548	1843.005	3776.1	2875.15
918.1946	1844.6636	3757.7	2855.55
918.3344	1846.3214	3740	2835.95
918.4742	1847.9785	3756.3	2853.1
918.6139	1849.6349	3748.2	2843.4
918.7537	1851.2904	3762.6	2845.5
918.8934	1852.9453	3744.15	2838.95
919.0331	1854.5994	3710.35	2805
919.1727	1856.2528	3730.15	2818.95
919.3124	1857.9054	3717.1	2815.15
919.452	1859.5572	3716.6	2814.55
919.5916	1861.2083	3706.95	2802.75
919.7312	1862.8587	3706.2	2801.9
919.8708	1864.5084	3709.6	2805.15
920.0103	1866.1572	3681.7	2776.8
920.1498	1867.8054	3678.5	2770.8
920.2893	1869.4528	3663.9	2757.15
920.4288	1871.0994	3659.3	2751.85
920.5683	1872.7453	3653.75	2748.05
920.7077	1874.3905	3645.65	2735.35
920.8471	1876.0349	3631.45	2726.35
920.9865	1877.6786	3634.3	2730.1
921.1259	1879.3215	3617.9	2709.55
921.2653	1880.9637	3624.8	2720.9
921.4046	1882.6051	3618.55	2717.85
921.5439	1884.2458	3614.95	2711.5
921.6832	1885.8858	3607.15	2703.85
921.8225	1887.525	3595.75	2693.2
921.9617	1889.1634	3589.4	2686.5
922.101	1890.8011	3565	2659.65
922.2402	1892.4381	3587.05	2682.2
922.3794	1894.0743	3573.5	2670.9
922.5185	1895.7098	3544.35	2642.35
922.6577	1897.3446	3551.45	2646.6
922.7968	1898.9786	3548.4	2641.85
922.9359	1900.6118	3523.2	2620.3
923.075	1902.2443	3505.5	2601.5
923.214	1903.8761	3518.3	2614.3
923.3531	1905.5071	3499.85	2596.85
923.4921	1907.1374	3503.75	2599.7
923.6311	1908.7669	3495.75	2593.85
923.77	1910.3957	3486.05	2585.2
923.909	1912.0237	3462.6	2562.15
924.0479	1913.651	3465.7	2560.55
924.1868	1915.2776	3439.1	2539.3
924.3257	1916.9034	3435.95	2537.05
924.4646	1918.5285	3421.1	2520.25
924.6034	1920.1528	3414.95	2514.25
924.7422	1921.7764	3404.95	2500.3
924.881	1923.3992	3411.65	2511.2
925.0198	1925.0213	3394.25	2491.8
925.1586	1926.6427	3380.75	2477.9
925.2973	1928.2633	3455.85	2476.4
925.436	1929.8832	3381.05	2477.75
925.5747	1931.5023	3362.55	2460.15
925.7134	1933.1207	3351.35	2450.9
925.852	1934.7383	3362.75	2459.3
925.9906	1936.3552	3339.15	2440.45
926.1292	1937.9714	3328.4	2426.8
926.2678	1939.5868	3322.95	2418.8
926.4064	1941.2015	3311.3	2408.45
926.5449	1942.8154	3304.15	2403.65
926.6834	1944.4286	3290.25	2387.4
926.8219	1946.041	3287.4	2364.85
926.9604	1947.6528	3273.6	2366.65
927.0988	1949.2637	3264.65	2363.8
927.2372	1950.8739	3265.9	2364.9
927.3756	1952.4834	3242	2341.4
927.514	1954.0921	3253.7	2355
927.6523	1955.7001	3235.95	2331.75
927.7907	1957.3074	3236.65	2339.45
927.929	1958.9139	3223.4	2324.2
928.0673	1960.5197	3215.8	2318.6
928.2055	1962.1247	3203.65	2305.9
928.3438	1963.729	3196.25	2298.45
928.482	1965.3325	3187.2	2282.95
928.6202	1966.9353	3171.1	2277.8
928.7584	1968.5374	3158.45	2259.95
928.8965	1970.1387	3163.3	2267.1
929.0346	1971.7393	3145.15	2245.65
929.1727	1973.3392	3150	2253.95
929.3108	1974.9383	3137.3	2241.65
929.4489	1976.5366	3125.4	2233.65
929.5869	1978.1342	3120.5	2226.9
929.7249	1979.7311	3115.9	2221.45
929.8629	1981.3273	3118.65	2225.15
930.0009	1982.9227	3099.4	2205.15
930.1388	1984.5173	3088.4	2195.8
930.2767	1986.1112	3088.05	2196.9
930.4146	1987.7044	3084.15	2191.9
930.5525	1989.2968	3075.25	2180.3
930.6904	1990.8885	3065.05	2168
930.8282	1992.4795	3060.35	2167.95
930.966	1994.0697	3057.8	2167.1
931.1038	1995.6592	3048.65	2159.2
931.2415	1997.2479	3023.65	2132.85
931.3793	1998.8359	3025	2134.05
931.517	2000.4232	3014.4	2126.8
931.6547	2002.0097	3003.6	2117.6
931.7923	2003.5955	2997.6	2111.05
931.93	2005.1805	3015	2126.5
932.0676	2006.7648	3006.95	2118.1
932.2052	2008.3484	3004.8	2115.65
932.3427	2009.9312	2990.1	2101.75
932.4803	2011.5133	2974.15	2089.95
932.6178	2013.0946	2969.95	2083.05
932.7553	2014.6752	2962.35	2073.55
932.8928	2016.2551	2975.75	2083.6
933.0302	2017.8342	2964.05	2073.2
933.1676	2019.4126	2950.25	2063.2
933.305	2020.9902	2940.8	2055.3
933.4424	2022.5672	2938.3	2052.35
933.5798	2024.1433	2936.85	2044.95
933.7171	2025.7188	2933.55	2050.1
933.8544	2027.2935	2923.3	2039.6
933.9917	2028.8674	2905.75	2020.2
934.129	2030.4406	2909.4	2027.9
934.2662	2032.0131	2894.95	2011.05
934.4034	2033.5849	2897.2	2012.9
934.5406	2035.1559	2885.9	2002.2
934.6778	2036.7261	2897.45	2010
934.8149	2038.2957	2899.2	2008
934.952	2039.8645	2885.2	1991.9
935.0891	2041.4325	2890.3	1995
935.2262	2042.9998	2860.25	1971.35
935.3632	2044.5664	2851.6	1965.8
935.5002	2046.1323	2850.8	1966.55
935.6372	2047.6974	2842.25	1959.5
935.7742	2049.2617	2832.5	1947.2
935.9111	2050.8254	2863.2	1953.15
936.048	2052.3883	2841.25	1950.5
936.1849	2053.9504	2836.5	1947.4
936.3218	2055.5118	2826.4	1935.95
936.4586	2057.0725	2806.7	1915.25
936.5955	2058.6325	2819.3	1932.65
936.7323	2060.1917	2796.6	1912.65
936.869	2061.7502	2790.1	1901.6
937.0058	2063.3079	2787.25	1901.35
937.1425	2064.8649	2787.85	1898.95
937.2792	2066.4212	2787.1	1900.05
937.4159	2067.9767	2777.85	1888.55
937.5525	2069.5315	2774	1886.75
937.6891	2071.0856	2771.4	1883.85
937.8257	2072.6389	2759.55	1872.6
937.9623	2074.1915	2742.7	1858.65
938.0989	2075.7433	2739.15	1851.4
938.2354	2077.2945	2736.9	1851.85
938.3719	2078.8448	2736.9	1845.55
938.5084	2080.3945	2735.5	1843.05
938.6448	2081.9434	2720.35	1830.25
938.7812	2083.4916	2714.55	1819.85
938.9176	2085.039	2723.35	1826.8
939.054	2086.5857	2713.9	1815.8
939.1903	2088.1317	2710	1812.7
939.3267	2089.677	2712	1813.4
939.463	2091.2215	2702.65	1804.75
939.5992	2092.7652	2689.55	1789.2
939.7355	2094.3083	2672.65	1773.25
939.8717	2095.8506	2671.95	1776.3
940.0079	2097.3921	2684	1791.15
940.1441	2098.933	2676.6	1783.95
940.2802	2100.4731	2672.65	1778.55
940.4163	2102.0124	2685.15	1774.8
940.5524	2103.5511	2674.35	1781
940.6885	2105.089	2657.2	1763.25
940.8245	2106.6261	2654.25	1760.2
940.9606	2108.1626	2660.7	1770.1
941.0965	2109.6983	2668.4	1749.4
941.2325	2111.2332	2637.6	1744.3
941.3684	2112.7675	2639.4	1743.25
941.5044	2114.301	2637.45	1742.35
941.6403	2115.8337	2631.2	1735.35
941.7761	2117.3657	2630.1	1734.4
941.912	2118.897	2623	1729.15
942.0478	2120.4276	2607.1	1706.45
942.1835	2121.9575	2605.5	1708.9
942.3193	2123.4866	2623.35	1726.25
942.455	2125.0149	2600.55	1703.55
942.5907	2126.5426	2593.15	1703.35
942.7264	2128.0695	2586.05	1694.25
942.8621	2129.5956	2574	1687.55
942.9977	2131.1211	2588.15	1697.8
943.1333	2132.6458	2577.8	1686.25
943.2689	2134.1698	2570.85	1675.2
943.4044	2135.693	2569.2	1668.25
943.54	2137.2155	2562.3	1664.15
943.6755	2138.7373	2564.6	1670
943.8109	2140.2584	2552.3	1662.35
943.9464	2141.7787	2538.65	1645.8
944.0818	2143.2983	2529.6	1646.7
944.2172	2144.8171	2522.9	1638.5
944.3526	2146.3353	2528.45	1638.45
944.4879	2147.8527	2517.1	1628.4
944.6232	2149.3693	2520.85	1627.25
944.7585	2150.8853	2519.5	1624.3
944.8938	2152.4005	2508.45	1609.9
945.029	2153.9149	2516.75	1619.05
945.1642	2155.4287	2507.95	1614.25
945.2994	2156.9417	2499.85	1606.2
945.4346	2158.454	2484.5	1591.95
945.5697	2159.9655	2477.7	1588.85
945.7048	2161.4764	2480	1589.4
945.8399	2162.9865	2488.05	1598.15
945.9749	2164.4958	2475.2	1586.15
946.1099	2166.0045	2484	1593.35
946.2449	2167.5124	2475.05	1583.9
946.3799	2169.0195	2462.95	1570.2
946.5148	2170.526	2466.65	1572.3
946.6498	2172.0317	2470.95	1576.2
946.7846	2173.5367	2454.4	1561.25
946.9195	2175.0409	2463.4	1572
947.0543	2176.5445	2440.75	1548.1
947.1891	2178.0473	2448.6	1554.25
947.3239	2179.5494	2448.25	1550.45
947.4587	2181.0507	2441.9	1550.85
947.5934	2182.5513	2429.8	1537.3
947.7281	2184.0512	2426.35	1529.2
947.8628	2185.5504	2424.9	1533.55
947.9974	2187.0488	2408.9	1518.65
948.132	2188.5465	2407.15	1518.5
948.2666	2190.0435	2402.9	1512.95
948.4012	2191.5397	2399.7	1504.95
948.5357	2193.0353	2403.15	1509.3
948.6702	2194.5301	2398.05	1499.15
948.8047	2196.0241	2385.9	1487.6
948.9392	2197.5175	2394.9	1496.45
949.0736	2199.0101	2385.7	1486.75
949.208	2200.502	2372.55	1479.2
949.3424	2201.9931	2366.15	1475.4
949.4767	2203.4835	2357	1467.6
949.611	2204.9733	2369.25	1462.4
949.7453	2206.4622	2362.6	1473.9
949.8796	2207.9505	2343.95	1452.9
950.0138	2209.438	2327.35	1441.6
950.148	2210.9248	2332	1443
950.2822	2212.4109	2332.8	1440.05
950.4164	2213.8962	2333.5	1435.15
950.5505	2215.3809	2336.4	1436.4
950.6846	2216.8648	2329.55	1429.35
950.8186	2218.3479	2329.85	1423.65
950.9527	2219.8304	2321.65	1419.5
951.0867	2221.3121	2313.15	1412.6
951.2207	2222.7931	2305.6	1409.35
951.3546	2224.2733	2292	1396.5
951.4886	2225.7529	2293.45	1399.1
951.6225	2227.2317	2289.5	1396.25
951.7563	2228.7098	2282.4	1393.45
951.8902	2230.1872	2275.7	1386.7
952.024	2231.6638	2257.25	1366.55
952.1578	2233.1397	2274.7	1380.95
952.2916	2234.6149	2264	1373.65
952.4253	2236.0894	2265.75	1373.65
952.559	2237.5632	2277.1	1377.25
952.6927	2239.0362	2252.95	1361.6
952.8263	2240.5085	2244.8	1351.9
952.9599	2241.9801	2249.05	1357.9
953.0935	2243.4509	2238.1	1341.3
953.2271	2244.921	2248.05	1349.9
953.3606	2246.3904	2230.35	1327.6
953.4941	2247.8591	2230.25	1331.1
953.6276	2249.3271	2223.55	1329.8
953.7611	2250.7943	2228.05	1332
953.8945	2252.2608	2211.45	1314.35
954.0279	2253.7266	2212.35	1316.3
954.1612	2255.1917	2211.4	1317.95
954.2946	2256.656	2201.65	1309.5
954.4279	2258.1197	2190.2	1298.45
954.5612	2259.5826	2192.15	1300.25
954.6944	2261.0447	2192	1296.75
954.8276	2262.5062	2186.75	1290.35
954.9608	2263.9669	2189.25	1290.35
955.094	2265.4269	2180.9	1285.25
955.2271	2266.8862	2175.55	1281.6
955.3602	2268.3448	2168.45	1277.45
955.4933	2269.8026	2168.6	1277.95
955.6264	2271.2598	2172.3	1283
955.7594	2272.7162	2165.95	1275.1
955.8924	2274.1719	2166.55	1271.1
956.0253	2275.6268	2157.6	1260.05
956.1583	2277.0811	2158.95	1262.5
956.2912	2278.5346	2145.8	1254.05
956.4241	2279.9874	2144.55	1255
956.5569	2281.4395	2155.8	1265
956.6897	2282.8908	2150.35	1253.35
956.8225	2284.3414	2150.1	1253.95
956.9553	2285.7914	2138.35	1245.7
957.088	2287.2406	2143.8	1245.8
957.2207	2288.689	2131.05	1233.35
957.3534	2290.1368	2130.8	1231.85
957.486	2291.5838	2123.2	1221.7
957.6186	2293.0302	2135.65	1233.75
957.7512	2294.4758	2123.35	1226.8
957.8838	2295.9206	2118.25	1220.65
958.0163	2297.3648	2111.3	1219.2
958.1488	2298.8082	2105.1	1210.5
958.2813	2300.251	2105.15	1208.95
958.4137	2301.693	2106.35	1205.3
958.5461	2303.1343	2114	1214.15
958.6785	2304.5748	2092.8	1200.3
958.8108	2306.0147	2094.75	1201.4
958.9432	2307.4538	2084.75	1193.65
959.0754	2308.8922	2085.35	1196.85
959.2077	2310.3299	2073	1181.05
959.3399	2311.7669	2071.1	1179.95
959.4721	2313.2031	2081.45	1190.55
959.6043	2314.6387	2068.55	1174.05
959.7365	2316.0735	2068.6	1172.6
959.8686	2317.5076	2071.05	1172.7
960.0006	2318.941	2064.85	1166.5
960.1327	2320.3737	2053.3	1153.55
960.2647	2321.8056	2058.65	1160.65
960.3967	2323.2369	2047.4	1153.4
960.5287	2324.6674	2054.45	1158.85
960.6606	2326.0972	2057.35	1164.6
960.7925	2327.5263	2046.1	1150.85
960.9244	2328.9547	2049.4	1153.75
961.0562	2330.3823	2048.75	1149.4
961.1881	2331.8092	2039.65	1135.4
961.3198	2333.2355	2027.8	1128.45
961.4516	2334.661	2019.35	1122
961.5833	2336.0858	2035.1	1136.8
961.715	2337.5098	2022.7	1128.85
961.8467	2338.9332	2023.55	1126.15
961.9783	2340.3558	2022.95	1125.5
962.1099	2341.7778	2006.55	1113.05
962.2415	2343.199	2002.6	1107.95
962.373	2344.6195	2001.7	1108.8
962.5045	2346.0393	2004.2	1109.1
962.636	2347.4583	2005.55	1111.25
962.7675	2348.8767	1995.45	1098.4
962.8989	2350.2943	2009	1110.4
963.0303	2351.7113	2003.7	1102.25
963.1617	2353.1275	2004.15	1103.7
963.293	2354.543	2006.1	1098
963.4243	2355.9578	1991.75	1094.8
963.5556	2357.3718	1980.4	1085.7
963.6868	2358.7852	1981.85	1090.2
963.818	2360.1978	1973.4	1080.5
963.9492	2361.6098	1987.55	1091.55
964.0803	2363.021	1980.1	1078.75
964.2114	2364.4315	1971.8	1074.8
964.3425	2365.8413	1967.6	1071.75
964.4736	2367.2504	1975.5	1081.4
964.6046	2368.6587	1961.6	1067.05
964.7356	2370.0664	1962.7	1067.3
964.8666	2371.4733	1949.05	1053.75
964.9975	2372.8795	1959.4	1064.3
965.1284	2374.285	1954.9	1057
965.2593	2375.6899	1949.55	1054.85
965.3901	2377.0939	1941.15	1047.05
965.5209	2378.4973	1934.95	1040.25
965.6517	2379.9	1938.75	1044.45
965.7825	2381.3019	1932.65	1038.95
965.9132	2382.7032	1925.75	1034.7
966.0439	2384.1037	1922.15	1034.55
966.1745	2385.5035	1919.8	1027.05
966.3051	2386.9027	1908.5	1019.05
966.4357	2388.3011	1913.05	1018.05
966.5663	2389.6987	1906.95	1014.75
966.6968	2391.0957	1911.7	1019.3
966.8273	2392.492	1902.5	1009.2
966.9578	2393.8876	1890.25	999.2
967.0882	2395.2824	1886.5	991.75
967.2186	2396.6765	1883.75	992.3
967.349	2398.07	1879.65	986.65
967.4793	2399.4627	1886.45	991.8
967.6097	2400.8547	1888.15	992.7
967.7399	2402.246	1880.95	977.35
967.8702	2403.6366	1877.1	981.5
968.0004	2405.0265	1871.4	980.05
968.1306	2406.4156	1868.65	971.95
968.2607	2407.8041	1872.95	974.65
968.3909	2409.1918	1868.35	970.4
968.521	2410.5789	1856.6	959.7
968.651	2411.9652	1859.6	962.45
968.781	2413.3508	1850.9	954.55
968.911	2414.7358	1844.55	948.2
969.041	2416.12	1854.1	959.25
969.1709	2417.5035	1847.75	955.2
969.3008	2418.8863	1839.75	944.2
969.4307	2420.2684	1842.2	946.15
969.5606	2421.6497	1842.7	947.25
969.6904	2423.0304	1838.2	944.3
969.8201	2424.4104	1827.25	932.95
969.9499	2425.7896	1840.7	941.45
970.0796	2427.1682	1824.6	931.4
970.2093	2428.546	1830.95	936.75
970.3389	2429.9232	1828.45	930.75
970.4685	2431.2996	1822.6	925.65
970.5981	2432.6753	1819.8	924.1
970.7277	2434.0503	1807.1	912.05
970.8572	2435.4246	1813.35	918.1
970.9867	2436.7982	1814.3	915.8
971.1161	2438.1711	1808.05	911.9
971.2456	2439.5433	1806.8	910.45
971.375	2440.9148	1805.35	905.8
971.5043	2442.2856	1796.3	901.7
971.6336	2443.6557	1796.9	901.6
971.7629	2445.025	1782.55	886.7
971.8922	2446.3937	1792.2	895.95
972.0214	2447.7617	1779.9	885.15
972.1506	2449.1289	1784.5	889.8
972.2798	2450.4955	1782.95	886.05
972.4089	2451.8613	1780.2	887.95
972.538	2453.2265	1779.35	887.05
972.6671	2454.5909	1779.55	884.1
972.7961	2455.9546	1770.55	878.25
972.9251	2457.3177	1757.25	863.3
973.0541	2458.68	1757.45	858.5
973.1831	2460.0416	1768.9	872.6
973.312	2461.4025	1760.4	865.15
973.4408	2462.7627	1770.45	866.85
973.5697	2464.1222	1757.5	868.1
973.6985	2465.4811	1751.45	858.9
973.8273	2466.8392	1748.75	858.05
973.956	2468.1966	1755.9	860.05
974.0847	2469.5533	1751.05	853.95
974.2134	2470.9093	1752.9	858.25
974.3421	2472.2645	1752.7	856.45
974.4707	2473.6191	1751.15	859.9
974.5993	2474.973	1739.3	844.05
974.7278	2476.3262	1741.2	843.15
974.8563	2477.6787	1741.15	848.2
974.9848	2479.0305	1733	837.6
975.1132	2480.3816	1745.1	849.3
975.2417	2481.7319	1733.9	839.95
975.37	2483.0816	1735.2	836.45
975.4984	2484.4306	1735.55	842.05
975.6267	2485.7789	1723	831.55
975.755	2487.1264	1717.05	821.95
975.8833	2488.4733	1717.8	826.4
976.0115	2489.8195	1726.85	825.1
976.1397	2491.165	1712.1	815.45
976.2678	2492.5097	1712.3	818.45
976.3959	2493.8538	1714.3	821.45
976.524	2495.1972	1705.5	811.2
976.6521	2496.5398	1693.35	797
976.7801	2497.8818	1712.35	818.25
976.9081	2499.2231	1701.3	806.65
977.036	2500.5637	1692.7	794.5
977.164	2501.9035	1698.5	802.65
977.2918	2503.2427	1697.65	799.2
977.4197	2504.5812	1687.15	789.4
977.5475	2505.919	1695	799.4
977.6753	2507.256	1680.15	784.15
977.8031	2508.5924	1675.9	780.85
977.9308	2509.9281	1675.7	777.5
978.0585	2511.2631	1677.9	785.8
978.1861	2512.5974	1678.1	785.65
978.3137	2513.9309	1666.65	771
978.4413	2515.2638	1698.5	779.05
978.5689	2516.596	1673.3	778.95
978.6964	2517.9275	1667.4	774.3
978.8239	2519.2583	1668.25	774.65
978.9513	2520.5884	1663.6	768.25
979.0788	2521.9178	1661.95	771.4
979.2062	2523.2465	1657.85	766.55
979.3335	2524.5745	1652.95	761.15
979.4608	2525.9018	1649.35	754.25
979.5881	2527.2284	1650.7	757.55
979.7154	2528.5543	1653.6	759.75
979.8426	2529.8796	1643.9	748.8
979.9698	2531.2041	1651.45	756.2
980.0969	2532.5279	1648.15	756.3
980.224	2533.851	1649.55	755.35
980.3511	2535.1735	1652.9	760.45
980.4781	2536.4952	1644.75	752.2
980.6052	2537.8163	1639.15	745.45
980.7321	2539.1366	1640.75	746.95
980.8591	2540.4562	1639.65	741.95
980.986	2541.7752	1640.6	746.5
981.1129	2543.0935	1637.35	740.6
981.2397	2544.411	1637.2	742.3
981.3665	2545.7279	1637.7	743.1
981.4933	2547.0441	1635.5	741.4
981.62	2548.3596	1640.45	742.9
981.7467	2549.6744	1638.4	743.45
981.8734	2550.9885	1649.45	746.85
982.0001	2552.3019	1629.1	733.75
982.1267	2553.6146	1628.05	733.3
982.2532	2554.9266	1631.5	737.15
982.3798	2556.2379	1629.5	733.2
982.5063	2557.5485	1613.25	723.1
982.6327	2558.8585	1631.4	731.1
982.7592	2560.1677	1629.5	732.25
982.8856	2561.4762	1614.4	719.5
983.0119	2562.7841	1615	718.85
983.1383	2564.0913	1604.75	712.8
983.2646	2565.3977	1616.75	723.8
983.3908	2566.7035	1613.6	719.05
983.517	2568.0086	1626.15	730.05
983.6432	2569.313	1608.05	712
983.7694	2570.6167	1618.2	719.2
983.8955	2571.9197	1609.45	717.6
984.0216	2573.222	1607.55	708.55
984.1476	2574.5236	1605.3	710.5
984.2737	2575.8246	1609.5	713
984.3996	2577.1248	1605.35	708.9
984.5256	2578.4244	1607.8	714.05
984.6515	2579.7232	1601.5	706.3
984.7774	2581.0214	1626.3	704.45
984.9032	2582.3189	1596.55	703.5
985.029	2583.6157	1598.95	703.45
985.1548	2584.9118	1597.8	703.55
985.2806	2586.2072	1598.5	703.5
985.4063	2587.5019	1596	700.1
985.5319	2588.7959	1598.55	704
985.6576	2590.0893	1603	707.85
985.7832	2591.3819	1602.9	711.9
985.9087	2592.6739	1596.85	703.9
986.0343	2593.9652	1602.55	707.25
986.1597	2595.2557	1601.25	707.45
986.2852	2596.5456	1599.25	704
986.4106	2597.8348	1604.95	714.05
986.536	2599.1234	1597.1	704.35
986.6614	2600.4112	1605.2	712.55
986.7867	2601.6983	1588.35	692.95
986.912	2602.9848	1594.15	701.1
987.0372	2604.2705	1595.9	695.25
987.1624	2605.5556	1604.05	711.15
987.2876	2606.84	1588.05	695.9
987.4128	2608.1237	1590.4	697.5
987.5379	2609.4067	1586.05	692.2
987.6629	2610.689	1587.5	685.8
987.788	2611.9707	1580.6	682.25
987.913	2613.2516	1576.35	681.4
988.0379	2614.5319	1570.05	676.65
988.1629	2615.8115	1577.1	682.85
988.2878	2617.0903	1571.25	675.6
988.4126	2618.3685	1566.55	673.35
988.5375	2619.6461	1556.85	664.7
988.6622	2620.9229	1561.55	671.35
988.787	2622.199	1561.45	670.15
988.9117	2623.4745	1568.45	676.6
989.0364	2624.7493	1561.2	669.35
989.161	2626.0234	1553.25	662.5
989.2857	2627.2968	1550.2	657.15
989.4102	2628.5695	1556.6	662.85
989.5348	2629.8415	1547.7	657.45
989.6593	2631.1128	1543.1	651.3
989.7837	2632.3835	1545.45	654.8
989.9082	2633.6535	1545.95	656.75
990.0326	2634.9228	1541.25	650.25
990.1569	2636.1914	1540.6	647.95
990.2812	2637.4593	1546.2	651.85
990.4055	2638.7265	1546.05	654.1
990.5298	2639.9931	1544.05	652.55
990.654	2641.259	1529.65	637.5
990.7782	2642.5242	1534.95	642.55
990.9023	2643.7887	1535.15	644.55
991.0264	2645.0525	1529.55	638.75
991.1505	2646.3156	1529.25	638.6
991.2745	2647.5781	1530.2	640.3
991.3985	2648.8398	1525.3	632.1
991.5225	2650.1009	1557.75	629.6
991.6464	2651.3613	1519.45	625.2
991.7703	2652.6211	1514.55	623.4
991.8942	2653.8801	1513.5	624.35
992.018	2655.1385	1517.75	624.4
992.1418	2656.3961	1515.8	622.95
992.2655	2657.6531	1524.45	633.1
992.3892	2658.9094	1520.7	627.6
992.5129	2660.1651	1519	629.4
992.6366	2661.42	1518.85	625.65
992.7602	2662.6743	1517.95	626.75
992.8837	2663.9279	1522.1	631.25
993.0073	2665.1808	1518.8	627.65
993.1307	2666.433	1518	627.9
993.2542	2667.6846	1525.2	633
993.3776	2668.9354	1520.3	621.35
993.501	2670.1856	1529.75	636.7
993.6244	2671.4351	1524.6	633.6
993.7477	2672.6839	1531.5	639.1
993.8709	2673.9321	1534.6	642.4
993.9942	2675.1795	1533.55	642.45
994.1174	2676.4263	1533.45	642.7
994.2405	2677.6724	1537.3	647.35
994.3637	2678.9179	1536.1	647.05
994.4868	2680.1626	1535.85	644.4
994.6098	2681.4067	1531.25	640.25
994.7328	2682.6501	1528.8	637.7
994.8558	2683.8928	1527.6	638.45
994.9788	2685.1348	1526.55	636.8
995.1017	2686.3761	1516.35	624.9
995.2245	2687.6168	1514.4	622.7
995.3474	2688.8568	1514	622.6
995.4702	2690.0961	1514.9	627
995.5929	2691.3348	1503.9	612.8
995.7156	2692.5727	1503.45	613.45
995.8383	2693.81	1504.4	613.4
995.961	2695.0466	1509.3	619.95
996.0836	2696.2826	1503.05	611.25
996.2062	2697.5178	1504.15	609.3
996.3287	2698.7524	1501.4	612.1
996.4512	2699.9863	1511.2	619.3
996.5737	2701.2195	1508.45	618.1
996.6961	2702.452	1511.5	619.45
996.8185	2703.6839	1509.55	616.8
996.9408	2704.9151	1519.1	630.55
997.0631	2706.1456	1523.45	634.55
997.1854	2707.3755	1524.5	635.2
997.3077	2708.6046	1535.5	643.25
997.4299	2709.8331	1537.25	647.05
997.552	2711.0609	1540.55	649.6
997.6742	2712.2881	1547.3	656.1
997.7963	2713.5145	1553.15	661.55
997.9183	2714.7403	1560.3	669.35
998.0403	2715.9654	1572.05	681.75
998.1623	2717.1899	1586.2	679.55
998.2842	2718.4136	1586.55	697.7
998.4062	2719.6367	1597.45	706.35
998.528	2720.8591	1614.2	719.3
998.6498	2722.0809	1629.55	741.35
998.7716	2723.3019	1642	750.65
998.8934	2724.5223	1651.45	759.65
999.0151	2725.7421	1659	768
999.1368	2726.9611	1655.15	763.25
999.2584	2728.1795	1655.45	760.25
999.38	2729.3972	1635.95	744.5
999.5016	2730.6142	1641.4	740.4
999.6231	2731.8306	1628.3	734.85
999.7446	2733.0462	1599.1	707.5
999.8661	2734.2612	1590.7	696
999.9875	2735.4756	1569	680.45
1000.1089	2736.6892	1547.05	656.35
1000.2302	2737.9022	1536.85	649.7
1000.3515	2739.1145	1527.55	635.45
1000.4728	2740.3262	1520.2	621.7
1000.594	2741.5372	1506.25	618.35
1000.7152	2742.7475	1499.1	609.1
1000.8363	2743.9571	1482.75	593.1
1000.9575	2745.1661	1484.2	590.75
1001.0785	2746.3744	1469.75	580.15
1001.1996	2747.582	1459.15	568.4
1001.3206	2748.7889	1454.3	562.1
1001.4415	2749.9952	1438.9	550.55
1001.5625	2751.2008	1437.65	547
1001.6833	2752.4057	1441.7	550.4
1001.8042	2753.61	1434.25	544.55
1001.925	2754.8136	1426.95	537.6
1002.0458	2756.0165	1426.35	539.1
1002.1665	2757.2188	1426.1	537.8
1002.2872	2758.4204	1422.95	534
1002.4078	2759.6213	1430.1	538.5
1002.5285	2760.8215	1430.65	535.05
1002.649	2762.0211	1430.25	539.8
1002.7696	2763.22	1420.8	529.45
1002.8901	2764.4182	1426.8	535.85
1003.0106	2765.6158	1412	523.6
1003.131	2766.8127	1407.2	517.85
1003.2514	2768.009	1414.3	527.1
1003.3717	2769.2045	1406.65	517.15
1003.492	2770.3994	1406.8	515.2
1003.6123	2771.5936	1405.45	515.25
1003.7325	2772.7872	1403.7	517.25
1003.8527	2773.9801	1393.2	502.6
1003.9729	2775.1723	1407.45	501.8
1004.093	2776.3639	1385.7	496.25
1004.2131	2777.5548	1391.3	501.45
1004.3331	2778.745	1392.3	501.05
1004.4531	2779.9346	1393.8	506.05
1004.5731	2781.1235	1400.7	512.3
1004.693	2782.3117	1395.5	507.75
1004.8129	2783.4992	1401.15	512.55
1004.9328	2784.6861	1391.85	504.4
1005.0526	2785.8723	1408.95	520.9
1005.1723	2787.0579	1408	520.5
1005.2921	2788.2428	1415.35	526.9
1005.4118	2789.427	1418.15	529.95
1005.5314	2790.6106	1409.85	521.35
1005.651	2791.7935	1422.65	535.8
1005.7706	2792.9757	1431.8	545.4
1005.8902	2794.1573	1430.4	540.75
1006.0097	2795.3382	1448.65	560.95
1006.1291	2796.5184	1448.7	561.85
1006.2485	2797.698	1469.3	579.85
1006.3679	2798.8769	1475.1	588.25
1006.4873	2800.0551	1477.8	589.4
1006.6066	2801.2327	1500.7	612
1006.7258	2802.4096	1508	623.05
1006.8451	2803.5859	1518.2	630.2
1006.9642	2804.7615	1537.2	648.25
1007.0834	2805.9364	1559.65	674.7
1007.2025	2807.1106	1582.35	695.85
1007.3216	2808.2842	1600.85	714.95
1007.4406	2809.4572	1619.45	730.3
1007.5596	2810.6294	1660.7	771.7
1007.6785	2811.801	1689.6	800.35
1007.7975	2812.972	1729.75	845.3
1007.9163	2814.1423	1761.4	875.55
1008.0352	2815.3119	1803.6	914.65
1008.154	2816.4808	1855.5	968.65
1008.2727	2817.6491	1912.25	1023.55
1008.3914	2818.8167	1951.05	1064.9
1008.5101	2819.9837	2006.05	1115.6
1008.6288	2821.15	2052.7	1166.4
1008.7474	2822.3157	2113.5	1228.8
1008.8659	2823.4807	2177.55	1288.8
1008.9844	2824.645	2240.25	1351.1
1009.1029	2825.8086	2296.6	1409.7
1009.2214	2826.9716	2345.25	1460.45
1009.3398	2828.134	2406	1521.2
1009.4581	2829.2957	2454.35	1566.5
1009.5764	2830.4567	2487.15	1601.65
1009.6947	2831.617	2506.75	1621
1009.813	2832.7767	2526.7	1640.6
1009.9312	2833.9358	2532.9	1647.25
1010.0493	2835.0941	2515.5	1624.1
1010.1675	2836.2519	2504	1617.7
1010.2855	2837.4089	2471.55	1584.65
1010.4036	2838.5653	2461.25	1574.15
1010.5216	2839.7211	2458.2	1573.8
1010.6396	2840.8761	2447.9	1560.05
1010.7575	2842.0306	2469.05	1585.45
1010.8754	2843.1843	2475.65	1588.6
1010.9932	2844.3374	2515.45	1627.15
1011.111	2845.4899	2549.75	1661.95
1011.2288	2846.6417	2600.7	1713.9
1011.3465	2847.7928	2650.35	1765.3
1011.4642	2848.9433	2708.5	1821.4
1011.5818	2850.0931	2781.25	1892.8
1011.6995	2851.2422	2837.25	1948.75
1011.817	2852.3907	2902.35	2016.75
1011.9345	2853.5385	2958.65	2070.75
1012.052	2854.6857	3024.7	2110.95
1012.1695	2855.8323	3050.95	2164.85
1012.2869	2856.9781	3103.8	2216.8
1012.4042	2858.1233	3151.8	2267.75
1012.5216	2859.2679	3194.8	2310.6
1012.6389	2860.4118	3246.3	2363.55
1012.7561	2861.555	3286.35	2397.55
1012.8733	2862.6976	3321.95	2432.7
1012.9905	2863.8395	3359.05	2473.95
1013.1076	2864.9808	3404.65	2518.4
1013.2247	2866.1214	3419.05	2533.85
1013.3417	2867.2614	3445.6	2558.15
1013.4587	2868.4007	3453.45	2566
1013.5757	2869.5393	3476.1	2586.3
1013.6926	2870.6773	3489	2599.8
1013.8095	2871.8146	3506.8	2615.5
1013.9263	2872.9513	3503.7	2613.25
1014.0431	2874.0874	3493.75	2605.7
1014.1599	2875.2227	3484.9	2600
1014.2766	2876.3574	3464.45	2578.7
1014.3933	2877.4915	3432.15	2548.2
1014.51	2878.6249	3414.5	2528.9
1014.6266	2879.7577	3384.25	2495.35
1014.7431	2880.8898	3368.85	2472.9
1014.8596	2882.0212	3351.7	2467.2
1014.9761	2883.152	3336.8	2452.75
1015.0925	2884.2821	3325.35	2440.95
1015.2089	2885.4116	3327.55	2443
1015.3253	2886.5405	3319	2435.05
1015.4416	2887.6686	3333.55	2447.55
1015.5579	2888.7962	3331.8	2447
1015.6741	2889.923	3342.45	2457.95
1015.7903	2891.0493	3361.45	2477.3
1015.9065	2892.1748	3366.4	2478.95
1016.0226	2893.2997	3375.5	2490.45
1016.1387	2894.424	3386	2503
1016.2547	2895.5476	3416.65	2531.5
1016.3707	2896.6706	3429.2	2545.4
1016.4866	2897.7929	3445.6	2560.25
1016.6025	2898.9145	3474.75	2590.1
1016.7184	2900.0355	3500.4	2616.2
1016.8342	2901.1559	3524.1	2640.2
1016.95	2902.2756	3550.75	2661.8
1017.0658	2903.3946	3582.05	2699.15
1017.1815	2904.513	3610.05	2723.05
1017.2971	2905.6308	3634.6	2750.45
1017.4127	2906.7479	3660.9	2776.45
1017.5283	2907.8643	3690.9	2804.15
1017.6439	2908.9801	3706.25	2823.9
1017.7594	2910.0953	3700.9	2817.5
1017.8748	2911.2098	3706.9	2818.85
1017.9902	2912.3236	3714.2	2822.3
1018.1056	2913.4368	3692.95	2807.35
1018.2209	2914.5494	3671.9	2786.75
1018.3362	2915.6613	3646.6	2754.05
1018.4515	2916.7725	3615.1	2726.8
1018.5667	2917.8831	3580.55	2695.2
1018.6819	2918.9931	3548.55	2661.85
1018.797	2920.1024	3522.85	2638.85
1018.9121	2921.211	3507.55	2623.55
1019.0271	2922.319	3485.4	2600.75
1019.1421	2923.4264	3470.8	2587.95
1019.2571	2924.5331	3472.05	2587.15
1019.372	2925.6391	3450.2	2565.5
1019.4869	2926.7445	3461	2577.1
1019.6017	2927.8493	3470.55	2585.7
1019.7165	2928.9534	3462.9	2578.95
1019.8313	2930.0569	3471.05	2583.85
1019.946	2931.1597	3481.25	2595.1
1020.0606	2932.2619	3475.5	2592.15
1020.1753	2933.3634	3490.75	2606.65
1020.2899	2934.4643	3483.75	2592.45
1020.4044	2935.5645	3480.9	2592.1
1020.5189	2936.6641	3458	2571.3
1020.6334	2937.763	3431.9	2549
1020.7478	2938.8613	3389.5	2506.35
1020.8622	2939.959	3351.2	2461.25
1020.9765	2941.056	3293.95	2410.7
1021.0908	2942.1523	3204.6	2317.85
1021.2051	2943.248	3149.55	2266.15
1021.3193	2944.3431	3057.45	2171.15
1021.4334	2945.4375	2962.5	2077.45
1021.5476	2946.5313	2860.8	1977.25
1021.6617	2947.6244	2755.2	1871.55
1021.7757	2948.7169	2670.85	1788.1
1021.8897	2949.8087	2572.4	1688.75
1022.0037	2950.8999	2494.6	1611.25
1022.1176	2951.9904	2422	1539.85
1022.2315	2953.0803	2346.15	1462.05
1022.3453	2954.1696	2281.3	1398
1022.4591	2955.2582	2233	1352
1022.5728	2956.3462	2186.5	1301.6
1022.6865	2957.4335	2144.7	1259.75
1022.8002	2958.5202	2111.6	1223.7
1022.9138	2959.6062	2073.4	1190.5
1023.0274	2960.6916	2057.85	1173.7
1023.141	2961.7764	2037.5	1152.8
1023.2545	2962.8605	2024.1	1140.35
1023.3679	2963.9439	2002.9	1118.7
1023.4813	2965.0267	1989.1	1105.35
1023.5947	2966.1089	2009.8	1104.35
1023.708	2967.1905	1995.6	1114.1
1023.8213	2968.2714	1976.1	1091.7
1023.9346	2969.3516	1982.55	1098.6
1024.0478	2970.4312	1985.6	1095.4
1024.1609	2971.5102	1982.45	1098.9
1024.274	2972.5885	1987.6	1107.35
1024.3871	2973.6662	1997.45	1110.1
1024.5002	2974.7432	1990.45	1108.65
1024.6132	2975.8196	1983.9	1100.65
1024.7261	2976.8954	1975.55	1093.4
1024.839	2977.9705	1977.3	1094.3
1024.9519	2979.045	1969.85	1087.15
1025.0647	2980.1188	1945.55	1061.7
1025.1775	2981.192	1938.95	1054.75
1025.2902	2982.2645	1924	1042.05
1025.4029	2983.3364	1890.8	1006.8
1025.5156	2984.4077	1865.75	985.4
1025.6282	2985.4783	1846.45	958.3
1025.7407	2986.5483	1811.2	928.6
1025.8532	2987.6177	1783.1	901.7
1025.9657	2988.6864	1750.5	865.8
1026.0782	2989.7545	1712.6	828.95
1026.1906	2990.8219	1691.75	808.45
1026.3029	2991.8887	1647.3	762
1026.4152	2992.9548	1620.9	739.45
1026.5275	2994.0204	1587.7	704.65
1026.6397	2995.0852	1554.35	671.4
1026.7519	2996.1495	1535.5	650.6
1026.864	2997.2131	1509.55	623.8
1026.9761	2998.276	1485.6	602.2
1027.0882	2999.3383	1462.95	580.35
1027.2002	3000.4	1444.05	561.05
1027.3122	3001.4611	1426.35	542.6
1027.4241	3002.5215	1405.2	524.2
1027.536	3003.5812	1390.05	510.05
1027.6478	3004.6404	1375.1	493.75
1027.7596	3005.6989	1363.4	480.4
1027.8714	3006.7567	1351.25	468.6
1027.9831	3007.8139	1372.95	458.5
1028.0947	3008.8705	1332.15	448.85
1028.2064	3009.9264	1327.7	442.2
1028.3179	3010.9818	1316.45	433.7
1028.4295	3012.0364	1305.95	422.3
1028.541	3013.0905	1298.95	416.8
1028.6524	3014.1439	1294.5	411.4
1028.7638	3015.1966	1291.8	409.9
1028.8752	3016.2487	1286.45	402.8
1028.9865	3017.3002	1290.55	402.45
1029.0978	3018.3511	1273.75	394.65
1029.209	3019.4013	1276.25	392.6
1029.3202	3020.4509	1274.65	393.05
1029.4314	3021.4998	1272.9	389.95
1029.5425	3022.5481	1275	392.85
1029.6535	3023.5958	1267.8	385.7
1029.7645	3024.6428	1266.55	383.8
1029.8755	3025.6892	1269.1	387.15
1029.9864	3026.735	1265.35	384.95
1030.0973	3027.7802	1261.9	380.35
1030.2082	3028.8247	1266.3	384.7
1030.319	3029.8685	1266.95	386.2
1030.4297	3030.9118	1265.15	383.85
1030.5404	3031.9544	1266.4	385.15
1030.6511	3032.9963	1268.8	385.25
1030.7617	3034.0376	1264.25	382.85
1030.8723	3035.0783	1269.45	382.15
1030.9829	3036.1184	1270.8	387.25
1031.0934	3037.1578	1270.45	389.55
1031.2038	3038.1966	1277.3	393.55
1031.3142	3039.2348	1277.3	398.55
1031.4246	3040.2723	1288.8	399.65
1031.5349	3041.3092	1274.65	394.15
1031.6452	3042.3455	1271.85	389.9
1031.7554	3043.3811	1282.25	397.8
1031.8656	3044.4161	1275.75	392.95
1031.9758	3045.4505	1270.45	391.2
1032.0859	3046.4842	1274.65	390.25
1032.1959	3047.5173	1268.35	387.9
1032.3059	3048.5498	1268.1	386.2
1032.4159	3049.5816	1261.75	379.4
1032.5258	3050.6128	1265.4	381.3
1032.6357	3051.6434	1260	375.9
1032.7455	3052.6734	1260.35	376.9
1032.8553	3053.7027	1258.9	375.85
1032.9651	3054.7314	1243.8	361.75
1033.0748	3055.7594	1245.9	365.65
1033.1845	3056.7868	1241.7	359.8
1033.2941	3057.8136	1243.7	362.95
1033.4037	3058.8398	1237.9	358
1033.5132	3059.8653	1234.1	353.3
1033.6227	3060.8902	1238.85	357.35
1033.7321	3061.9145	1234.45	351.9
1033.8415	3062.9381	1234.35	352.05
1033.9509	3063.9612	1244.7	346.2
1034.0602	3064.9835	1228.1	344.7
1034.1694	3066.0053	1232.8	350.2
1034.2787	3067.0264	1220.95	340.5
1034.3878	3068.0469	1222.3	340.75
1034.497	3069.0668	1215.8	330.5
1034.6061	3070.086	1196.75	317.5
1034.7151	3071.1046	1201.8	320.45
1034.8241	3072.1226	1197.95	314.2
1034.9331	3073.1399	1192.35	311.7
1035.042	3074.1567	1185.65	302.6
1035.1508	3075.1727	1184.75	299.85
1035.2597	3076.1882	1173.2	293.25
1035.3684	3077.203	1161.5	278.95
1035.4772	3078.2173	1167.4	284.15
1035.5859	3079.2308	1157.35	273.65
1035.6945	3080.2438	1152.15	269.95
1035.8031	3081.2561	1144.75	263.9
1035.9117	3082.2678	1135.7	252.95
1036.0202	3083.2789	1129.75	249.25
1036.1286	3084.2893	1125.8	246.85
1036.2371	3085.2991	1119.8	239.3
1036.3454	3086.3083	1119.1	233
1036.4538	3087.3169	1110.4	227.6
1036.562	3088.3248	1109.25	226.25
1036.6703	3089.3321	1102	218.45
1036.7785	3090.3388	1098.65	220.15
1036.8866	3091.3449	1091.7	210.6
1036.9948	3092.3503	1093.8	211.15
1037.1028	3093.3551	1084.1	205.05
1037.2108	3094.3593	1080.7	201.35
1037.3188	3095.3629	1083.05	202.05
1037.4267	3096.3658	1081.75	199.6
1037.5346	3097.3681	1071.45	190.9
1037.6425	3098.3698	1076.05	194.7
1037.7503	3099.3708	1070.35	184.2
1037.858	3100.3713	1065.95	185.05
1037.9657	3101.3711	1067.6	185.85
1038.0734	3102.3702	1176.1	179.95
1038.181	3103.3688	1060.95	179.05
1038.2886	3104.3667	1056.55	176.45
1038.3961	3105.364	1055.05	172.5
1038.5036	3106.3607	1055.25	172.85
1038.611	3107.3568	1048.95	165.8
1038.7184	3108.3522	1047.8	168.65
1038.8257	3109.347	1047.75	166.6
1038.933	3110.3412	1050.05	165.4
1039.0403	3111.3348	1042.45	159.5
1039.1475	3112.3277	1039.65	159.9
1039.2547	3113.32	1035.4	155.1
1039.3618	3114.3117	1039.3	157.3
1039.4689	3115.3028	1036	154.9
1039.5759	3116.2932	1031.6	149.8
1039.6829	3117.2831	1039.3	156.05
1039.7898	3118.2723	1030.3	150.05
1039.8967	3119.2608	1030.4	149.85
1040.0035	3120.2488	1026.5	145.15
1040.1103	3121.2361	1023.85	142.75
1040.2171	3122.2229	1023.55	143.05
1040.3238	3123.209	1024	141.55
1040.4305	3124.1944	1021.8	142.85
1040.5371	3125.1793	1022.05	139.5
1040.6437	3126.1635	1017.9	137.85
1040.7502	3127.1471	1016.55	137.3
1040.8567	3128.1301	1010.9	130.8
1040.9631	3129.1125	1013.3	132.7
1041.0695	3130.0942	1014.85	133.35
1041.1759	3131.0753	1019.35	128.75
1041.2822	3132.0558	1012.5	128.7
1041.3884	3133.0357	1013.45	131.75
1041.4946	3134.015	1005.35	123.55
1041.6008	3134.9936	1007	124.7
1041.7069	3135.9716	1025.4	121.6
1041.813	3136.949	1008.9	128.4
1041.919	3137.9258	1021.15	123.55
1042.025	3138.902	1013	128.35
1042.1309	3139.8775	1000.9	122.6
1042.2368	3140.8524	1001.95	121.75
1042.3427	3141.8267	1000.8	118.35
1042.4485	3142.8004	998.5	116.95
1042.5542	3143.7735	998.7	112.4
1042.6599	3144.7459	999.3	116.75
1042.7656	3145.7178	996.95	117
1042.8712	3146.689	994.8	116.7
1042.9768	3147.6596	995.2	112.55
1043.0823	3148.6295	997.6	116.55
1043.1878	3149.5989	993.9	114.15
1043.2932	3150.5676	991.7	112.6
1043.3986	3151.5357	989.85	111.2
1043.5039	3152.5032	989	108.55
1043.6092	3153.4701	991.05	109.75
1043.7145	3154.4364	987.95	105.95
1043.8197	3155.402	986.55	106.3
1043.9248	3156.367	987.9	108
1044.03	3157.3315	1021.2	104.5
1044.135	3158.2952	984.85	105.4
1044.24	3159.2584	980.1	100.95
1044.345	3160.221	987.35	106
1044.4499	3161.1829	984.25	103.6
1044.5548	3162.1442	984.15	106.1
1044.6596	3163.105	983.8	104.4
1044.7644	3164.065	980.75	101.15
1044.8692	3165.0245	979.3	95.95
1044.9739	3165.9834	974.2	97.15
1045.0785	3166.9416	981.5	100.3
1045.1831	3167.8993	977.25	95.5
1045.2877	3168.8563	974.65	95
1045.3922	3169.8127	976.55	97.6
1045.4966	3170.7684	978.65	97.55
1045.6011	3171.7236	979.25	96.35
1045.7054	3172.6782	974	95.25
1045.8098	3173.6321	975.1	95.9
1045.914	3174.5854	978.55	96.4
1046.0183	3175.5381	972.65	92.95
1046.1224	3176.4902	971.85	90.7
1046.2266	3177.4417	977	95.45
1046.3307	3178.3926	972.4	94.2
1046.4347	3179.3428	968.15	88.85
1046.5387	3180.2924	972.05	91.6
1046.6427	3181.2415	970	89.55
1046.7466	3182.1899	969.25	87.45
1046.8504	3183.1377	967.9	88.55
1046.9542	3184.0848	968.9	86.65
1047.058	3185.0314	967.65	87.05
1047.1617	3185.9773	968.25	89.4
1047.2654	3186.9227	968	86.4
1047.369	3187.8674	964.6	85.7
1047.4726	3188.8115	970.4	85.95
1047.5761	3189.755	964.05	83.95
1047.6796	3190.6979	960.1	81.05
1047.783	3191.6402	962.6	84.45
1047.8864	3192.5818	963.4	82.9
1047.9898	3193.5229	969.85	82.3
1048.0931	3194.4633	964.8	82.95
1048.1963	3195.4031	963.45	83.75
1048.2995	3196.3423	960.9	81.25
1048.4027	3197.2809	959.15	80.25
1048.5058	3198.2189	960.25	80.1
1048.6089	3199.1563	976.95	79.8
1048.7119	3200.0931	957.65	78.55
1048.8148	3201.0292	955.1	75.7
1048.9178	3201.9648	957.1	77.7
1049.0206	3202.8997	961.15	76.95
1049.1235	3203.834	954.75	74.95
1049.2262	3204.7677	955.15	75.15
1049.329	3205.7008	958.3	77.1
1049.4317	3206.6333	954.8	75.8
1049.5343	3207.5652	953.45	73
1049.6369	3208.4964	953.8	73.65
1049.7394	3209.4271	955.3	77.8
1049.8419	3210.3571	951	71.55
1049.9444	3211.2865	955.25	73.4
1050.0468	3212.2154	955.2	74.3
1050.1491	3213.1436	958.45	75.65
1050.2514	3214.0712	958.95	72
1050.3537	3214.9982	952	72.75
1050.4559	3215.9246	953.4	74.5
1050.5581	3216.8503	947.25	69.25
1050.6602	3217.7755	951.75	69.45
1050.7623	3218.7001	950.9	72.1
1050.8643	3219.624	951.9	73.55
1050.9663	3220.5473	948.7	68.5
1051.0682	3221.4701	949.85	70.85
1051.1701	3222.3922	951.9	71.15
1051.2719	3223.3137	945.4	65.95
1051.3737	3224.2346	947.45	68.85
1051.4754	3225.1549	947.15	66.7
1051.5771	3226.0746	945.85	67.2
1051.6788	3226.9937	944.95	63.6
1051.7804	3227.9121	944.4	65.85
1051.8819	3228.83	946	66.95
1051.9834	3229.7473	946.15	65.9
1052.0849	3230.6639	948.25	66.85
1052.1863	3231.5799	945.05	67.8
1052.2876	3232.4954	948.45	68.05
1052.3889	3233.4102	939.6	62.4
1052.4902	3234.3244	945.25	65.65
1052.5914	3235.238	941.65	61.95
1052.6926	3236.151	966.15	63.3
1052.7937	3237.0634	941.75	62.7
1052.8948	3237.9752	940.55	59.35
1052.9958	3238.8864	940.5	60.95
1053.0968	3239.797	939.9	61
1053.1977	3240.7069	940.8	60.35
1053.2986	3241.6163	938.75	56.5
1053.3994	3242.5251	936.1	58.95
1053.5002	3243.4332	938.1	59.85
1053.6009	3244.3408	939.75	60.95
1053.7016	3245.2477	934.7	55.85
1053.8022	3246.154	936.05	55.2
1053.9028	3247.0598	936.05	55.6
1054.0034	3247.9649	936.1	57.55
1054.1039	3248.8694	935.9	55.1
1054.2043	3249.7733	936.45	55.35
1054.3047	3250.6766	935.25	56.85
1054.4051	3251.5793	934.6	54.65
1054.5054	3252.4814	932.8	55.3
1054.6056	3253.3829	932.85	55.1
1054.7058	3254.2838	930.65	51.75
1054.806	3255.1841	930.9	52.7
1054.9061	3256.0838	930.1	50.6
1055.0061	3256.9829	932.2	54.65
1055.1062	3257.8814	932.45	52.15
1055.2061	3258.7792	930.4	49.45
1055.306	3259.6765	927.3	46.75
1055.4059	3260.5731	929	50.1
1055.5057	3261.4692	927.85	46.95
1055.6055	3262.3647	927.15	46.25
1055.7052	3263.2595	926.1	48.2
1055.8049	3264.1538	925.2	46.1
1055.9045	3265.0474	925.55	47
1056.0041	3265.9404	920.8	43.5
1056.1036	3266.8329	922.9	44.8
1056.2031	3267.7247	932.75	45.15
1056.3025	3268.616	921.2	45.8
1056.4019	3269.5066	924.05	43.85
1056.5013	3270.3966	918.8	39.4
1056.6005	3271.286	914.6	38.15
