Software Version:	3.9.2.0
Unit SN:	10000200
Spectrometer SN:	6960
Date:	3/8/2024 12:16:24 PM
Data Line Index:	25
Spectral Points:	2048
Integration time (ms):	125
Averages:	20
Delay (ms):	30000
Sequence Number:	1
Processing:	dark subtract
Laser Power (mW):	300
Laser Current (mA):	822
Laser Diode Temp (C):	25.1
Laser Case Temp (C):	25.7
System Temp (C):	25.7
Spectrometer Temp (C):	23.6
CCD Temp (C):	0.012
Secondary Temp (C):	20.003
Heatsink Temp (C):	20.31
CCDPCB Temp (C):	34.795
SecondaryPCB Temp (C):	28.137

Wavelength	RamanShift	Raw Counts	Dark Subtracted
787.061	30.1047	431.3	21.75
787.2016	32.3739	432.25	24.6
787.3422	34.6426	434.15	25.75
787.4828	36.9109	438.95	29.15
787.6235	39.1787	444.9	31.7
787.7642	41.4461	452.1	33.15
787.9049	43.7131	460.85	40.3
788.0456	45.9796	463.3	39.5
788.1863	48.2456	471.6	42.8
788.3271	50.5112	477.15	45.35
788.4679	52.7764	484.6	49.2
788.6087	55.0411	492.9	54.2
788.7496	57.3054	501.75	57.8
788.8904	59.5692	507.6	61.65
789.0313	61.8326	513.15	62.65
789.1722	64.0955	523.95	71.75
789.3132	66.3579	533.4	75.1
789.4541	68.6199	548.8	87.7
789.5951	70.8815	575.4	109.25
789.7361	73.1426	628.25	157.45
789.8771	75.4032	763.55	290
790.0181	77.6634	1092.9	616.05
790.1592	79.9231	1877.65	1394.8
790.3003	82.1824	3497	3005.25
790.4414	84.4412	6328.5	5815.85
790.5825	86.6995	10117.45	9585.55
790.7237	88.9574	13658.85	13103.15
790.8648	91.2148	16003.85	15434.9
791.006	93.4717	17013.4	16437.05
791.1472	95.7282	17048.85	16469.9
791.2885	97.9842	16772.4	16190.25
791.4297	100.2398	16215.7	15632.45
791.571	102.4949	15636.8	15048.3
791.7123	104.7495	14964.55	14371.1
791.8536	107.0036	14334.95	13744.7
791.9949	109.2573	13748.55	13156
792.1363	111.5105	13260.6	12665.65
792.2777	113.7632	12793.05	12197.8
792.4191	116.0154	12419.2	11812.55
792.5605	118.2672	12141.65	11537.95
792.7019	120.5185	11859.5	11254.95
792.8434	122.7693	11683.35	11075.1
792.9849	125.0197	11505.3	10895.1
793.1264	127.2696	11300.2	10684.45
793.2679	129.519	11167.6	10546.25
793.4094	131.7679	10973.95	10353.75
793.551	134.0163	10780.95	10157.8
793.6926	136.2642	10521.8	9898.65
793.8342	138.5117	10283.05	9649.05
793.9758	140.7587	9990.9	9360.5
794.1175	143.0052	9743.4	9108.45
794.2591	145.2512	9483.5	8849.75
794.4008	147.4967	9273.95	8639.1
794.5425	149.7417	9107.5	8470.6
794.6842	151.9863	8986.9	8344.4
794.826	154.2304	8891.3	8242.6
794.9677	156.4739	8800.5	8147.65
795.1095	158.717	8693.35	8041.6
795.2513	160.9596	8606.3	7948.35
795.3931	163.2017	8442.4	7781.8
795.535	165.4433	8254.8	7593.25
795.6768	167.6844	8040.4	7377.95
795.8187	169.925	7852	7184.75
795.9606	172.1651	7623.65	6956.35
796.1025	174.4047	7440.1	6769.1
796.2445	176.6439	7303.95	6632.8
796.3864	178.8825	7143.75	6468.4
796.5284	181.1206	7065.8	6384.4
796.6704	183.3582	6977.3	6294.7
796.8124	185.5954	6926.05	6241.95
796.9544	187.832	6869.4	6180.2
797.0965	190.0681	6850.75	6156.75
797.2386	192.3037	6844.6	6149.5
797.3806	194.5388	6833.15	6134.95
797.5228	196.7734	6862.55	6162.75
797.6649	199.0075	6897.25	6195.6
797.807	201.2411	6969.75	6267.95
797.9492	203.4742	7003.65	6300
798.0914	205.7068	7138.95	6430.35
798.2336	207.9389	7194.6	6484.5
798.3758	210.1704	7273.05	6570.95
798.518	212.4015	7349.95	6651.7
798.6603	214.632	7428.4	6737.9
798.8025	216.862	7507.7	6823.2
798.9448	219.0915	7550.25	6861.4
799.0871	221.3205	7595.9	6901.85
799.2294	223.549	7643.65	6955.25
799.3718	225.777	7642.7	6953.4
799.5141	228.0044	7677.95	6983.95
799.6565	230.2314	7739.55	7045.25
799.7989	232.4578	7750.05	7048.2
799.9413	234.6837	7784.4	7076.25
800.0837	236.909	7820.95	7109.55
800.2262	239.1339	7828.45	7093
800.3687	241.3582	7780.8	7059.3
800.5111	243.582	7751.85	7002.45
800.6536	245.8053	7731.5	6993.1
800.7961	248.0281	7706	6975.65
800.9387	250.2503	7732.25	6994.35
801.0812	252.472	7787.75	7050.9
801.2238	254.6932	7885.95	7150.85
801.3664	256.9139	7967.85	7229.3
801.509	259.134	8131.7	7389.05
801.6516	261.3536	8294.7	7554.4
801.7942	263.5727	8538.75	7797.85
801.9369	265.7912	8722.9	7980.5
802.0795	268.0092	8956.7	8217.75
802.2222	270.2267	9108.55	8362.4
802.3649	272.4436	9245.45	8499.8
802.5076	274.6601	9293.3	8540.4
802.6504	276.8759	9262.15	8512.45
802.7931	279.0913	9174.35	8423.05
802.9359	281.3061	9101.5	8349.1
803.0787	283.5204	9070.15	8313.1
803.2215	285.7341	9047.4	8284.1
803.3643	287.9473	9043.8	8284.65
803.5071	290.16	9069.1	8305.6
803.6499	292.3721	9083.7	8328.4
803.7928	294.5837	9116	8359.9
803.9357	296.7947	9244.5	8485.1
804.0786	299.0052	9334.2	8576.6
804.2215	301.2152	9332.75	8568.95
804.3644	303.4246	9296.65	8539.95
804.5074	305.6334	9105.1	8348.85
804.6503	307.8418	8875.55	8114.35
804.7933	310.0495	8623.8	7862.8
804.9363	312.2568	8348.9	7584.1
805.0793	314.4635	8084	7317.45
805.2223	316.6696	7844.65	7074.55
805.3653	318.8752	7668.25	6891.35
805.5084	321.0802	7591.05	6816.8
805.6514	323.2847	7587.15	6815.7
805.7945	325.4887	7614.85	6843.2
805.9376	327.692	7623.05	6846.9
806.0807	329.8949	7592.25	6817.7
806.2238	332.0972	7509.5	6730.4
806.367	334.2989	7377.25	6597.55
806.5101	336.5001	7241.9	6460.75
806.6533	338.7007	7103.15	6322.65
806.7965	340.9008	6980.65	6197.3
806.9397	343.1003	6864.55	6081.45
807.0829	345.2992	6775	5989.75
807.2261	347.4976	6707.05	5921.65
807.3693	349.6955	6653.1	5862.55
807.5126	351.8927	6621.5	5829.4
807.6559	354.0895	6549	5745
807.7991	356.2856	6502.75	5710.7
807.9424	358.4812	6469.85	5679.35
808.0857	360.6763	6468.8	5672
808.2291	362.8707	6465.6	5669.8
808.3724	365.0646	6476.7	5674.3
808.5158	367.258	6504.9	5698.95
808.6591	369.4508	6572.5	5769.8
808.8025	371.643	6653.75	5848.15
808.9459	373.8346	6736.75	5932.05
809.0893	376.0257	6819.75	6009.45
809.2327	378.2162	6847.55	6041.4
809.3762	380.4062	6861.7	6053.4
809.5196	382.5956	6788.35	5983.4
809.6631	384.7844	6711.05	5908.05
809.8066	386.9726	6630.05	5831.7
809.9501	389.1603	6558.75	5757.85
810.0936	391.3474	6554.7	5725
810.2371	393.5339	6500.95	5698.7
810.3806	395.7199	6503.1	5702.7
810.5241	397.9052	6549.1	5750.05
810.6677	400.09	6619.6	5816.9
810.8113	402.2743	6734.65	5930.75
810.9548	404.4579	6846.45	6039.9
811.0984	406.641	7008.05	6201.1
811.2421	408.8235	7100.45	6293.85
811.3857	411.0054	7189.6	6379.55
811.5293	413.1868	7268	6454.75
811.673	415.3675	7301.45	6485.35
811.8166	417.5477	7251.75	6433.7
811.9603	419.7273	7201.45	6380.2
812.104	421.9064	7126.75	6302.65
812.2477	424.0848	7072.8	6255.75
812.3914	426.2627	6989.65	6168.6
812.5351	428.4399	6863.5	6044.7
812.6788	430.6166	6673.95	5847.95
812.8226	432.7928	6454	5626.15
812.9663	434.9683	6251.65	5426.25
813.1101	437.1432	6106.5	5279.4
813.2539	439.3176	6021.45	5196.6
813.3977	441.4914	5923.65	5104.1
813.5415	443.6645	5914.8	5094.8
813.6853	445.8371	5894.45	5071.1
813.8291	448.0091	5885.8	5061.95
813.973	450.1806	5889.85	5063.4
814.1168	452.3514	5870.6	5045.6
814.2607	454.5216	5900.4	5064.8
814.4046	456.6913	5884.9	5059.05
814.5485	458.8603	5930.4	5104.25
814.6924	461.0288	5933.65	5107.65
814.8363	463.1967	5938.05	5117.3
814.9802	465.3639	5932.05	5108
815.1241	467.5306	5918.4	5090.35
815.2681	469.6967	5909.25	5084
815.412	471.8622	5897.9	5075.8
815.556	474.0271	5910	5080.4
815.7	476.1914	5939.7	5108.5
815.844	478.3551	5947.35	5117.45
815.988	480.5182	5989.05	5160.25
816.132	482.6807	6054.05	5228.8
816.276	484.8426	6186.45	5363.25
816.4201	487.0039	6388.3	5559
816.5641	489.1647	6640.5	5808.8
816.7082	491.3248	6829.05	5996.05
816.8522	493.4843	6879.35	6046.6
816.9963	495.6432	6830.45	6002.1
817.1404	497.8015	6755.55	5917.75
817.2845	499.9592	6666.95	5828.95
817.4286	502.1163	6505.25	5666.75
817.5727	504.2728	6333.1	5496.25
817.7168	506.4287	6147.25	5317.85
817.861	508.5839	5972.65	5138.65
818.0051	510.7386	5842.1	5006.75
818.1493	512.8927	5807.4	4965.95
818.2935	515.0461	5817.95	4977.7
818.4377	517.199	5897.65	5055.9
818.5818	519.3512	6026.25	5183.2
818.726	521.5029	6243	5397.15
818.8703	523.6539	6428.45	5585.4
819.0145	525.8043	6499.75	5658.8
819.1587	527.9541	6435.05	5586.35
819.303	530.1033	6284	5438.45
819.4472	532.2519	6135.85	5293.05
819.5915	534.3999	6105.95	5261.6
819.7357	536.5472	6103.15	5257.35
819.88	538.694	6193.15	5349.15
820.0243	540.8401	6312.85	5467.25
820.1686	542.9856	6407.2	5554.4
820.3129	545.1305	6422.3	5567.15
820.4572	547.2748	6400.25	5544
820.6016	549.4185	6306.6	5450.75
820.7459	551.5615	6262.45	5406.35
820.8902	553.704	6263.1	5407.75
821.0346	555.8458	6340.5	5488.8
821.1789	557.987	6484.1	5634.85
821.3233	560.1276	6652.6	5797.45
821.4677	562.2675	6946.15	6094
821.6121	564.4069	7318.1	6464.7
821.7565	566.5456	7712.85	6863.45
821.9009	568.6837	7809.7	6959.05
822.0453	570.8212	7549.1	6699.9
822.1897	572.958	7080.1	6227.3
822.3342	575.0942	6624.8	5777.2
822.4786	577.2299	6319.95	5473.15
822.6231	579.3648	6128.35	5281.5
822.7675	581.4992	6089.4	5250.85
822.912	583.6329	6135.1	5295.65
823.0565	585.766	6236.7	5394.35
823.201	587.8985	6358.55	5512.4
823.3454	590.0304	6421.6	5550.2
823.4899	592.1616	6407.5	5552.75
823.6345	594.2922	6334.6	5477.7
823.779	596.4222	6195.55	5337.15
823.9235	598.5515	6045	5186.8
824.068	600.6802	5942.35	5081.9
824.2126	602.8083	5858.55	5002
824.3571	604.9358	5848.9	4988.85
824.5017	607.0626	5884.3	5024.6
824.6462	609.1888	5969.95	5109.5
824.7908	611.3144	6087.9	5225.45
824.9354	613.4393	6226.55	5365.65
825.08	615.5636	6312.75	5449.2
825.2246	617.6873	6355.1	5492.15
825.3692	619.8103	6306.7	5439.6
825.5138	621.9327	6181.6	5316.85
825.6584	624.0544	6022.8	5163.3
825.803	626.1756	5860.15	4998.7
825.9477	628.2961	5751.85	4887.7
826.0923	630.4159	5712.95	4846.15
826.237	632.5351	5709.85	4845.05
826.3816	634.6537	5708.8	4844.1
826.5263	636.7716	5703.5	4838.95
826.6709	638.8889	5711.35	4842.3
826.8156	641.0056	5732.75	4862.15
826.9603	643.1216	5718.6	4851.25
827.105	645.237	5699.05	4828.55
827.2497	647.3518	5607.75	4742.1
827.3944	649.4659	5562.55	4703.05
827.5391	651.5793	5525.5	4665
827.6838	653.6922	5492.1	4627
827.8285	655.8043	5494.95	4629.3
827.9733	657.9159	5493.1	4629.65
828.118	660.0268	5484.45	4617.3
828.2627	662.137	5508.65	4643.15
828.4075	664.2466	5525.7	4652.75
828.5522	666.3556	5507.7	4635.25
828.697	668.4639	5474.65	4605.45
828.8418	670.5716	5446.6	4577
828.9865	672.6786	5414.3	4543.6
829.1313	674.785	5360.95	4488.6
829.2761	676.8907	5324.2	4454.9
829.4209	678.9958	5321.05	4453.9
829.5657	681.1002	5301.25	4428.4
829.7105	683.204	5326.9	4449.7
829.8553	685.3072	5286.95	4411
830.0001	687.4097	5282.25	4404.85
830.1449	689.5115	5294.7	4419.1
830.2898	691.6127	5298	4425.1
830.4346	693.7132	5298.95	4428.9
830.5794	695.8131	5318.85	4432.05
830.7243	697.9123	5338.65	4462.05
830.8691	700.0109	5354.1	4474
831.014	702.1089	5386.35	4509.75
831.1588	704.2061	5446.85	4571.55
831.3037	706.3028	5507.6	4629.85
831.4486	708.3987	5530.5	4653.25
831.5935	710.4941	5540.65	4666.15
831.7383	712.5887	5547.45	4671.3
831.8832	714.6827	5560	4677.35
832.0281	716.7761	5610.4	4734
832.173	718.8688	5694.75	4820.05
832.3179	720.9608	5745.3	4862.9
832.4628	723.0522	5851.85	4966.4
832.6077	725.1429	5953.1	5074.75
832.7527	727.233	6041.75	5160.85
832.8976	729.3224	6137.35	5259.55
833.0425	731.4112	6118.2	5237.7
833.1874	733.4993	6041.85	5159.95
833.3324	735.5867	5903.55	5021.8
833.4773	737.6735	5725.5	4842.8
833.6222	739.7596	5597.8	4716.8
833.7672	741.845	5501.9	4620.45
833.9122	743.9298	5439.65	4557.1
834.0571	746.014	5433.9	4553.35
834.2021	748.0974	5415.15	4532.05
834.347	750.1802	5432	4547.6
834.492	752.2624	5425.6	4542.3
834.637	754.3439	5488.35	4602.9
834.782	756.4247	5537.3	4642.15
834.9269	758.5048	5642.35	4757.75
835.0719	760.5843	5814.85	4925.65
835.2169	762.6631	6077.85	5191.75
835.3619	764.7413	6455.1	5572.25
835.5069	766.8188	6910.05	6024.3
835.6519	768.8956	7327.25	6438.8
835.7969	770.9718	7596.1	6712.1
835.9419	773.0473	7600	6713.05
836.0869	775.1221	7467.2	6581.45
836.232	777.1962	7300.4	6414.7
836.377	779.2697	7290.4	6401.8
836.522	781.3426	7388.55	6486.4
836.667	783.4147	7450.4	6560.2
836.8121	785.4862	7446.1	6559.45
836.9571	787.557	7267.7	6378.75
837.1021	789.6271	6921.75	6032.5
837.2472	791.6966	6502.6	5615.8
837.3922	793.7654	6127.3	5238.3
837.5373	795.8335	5825.95	4937.45
837.6823	797.901	5620.4	4732.6
837.8274	799.9678	5511.05	4619.85
837.9724	802.0339	5429.25	4541.1
838.1175	804.0993	5380.55	4481.1
838.2626	806.1641	5352.95	4463.25
838.4076	808.2282	5315.55	4426.55
838.5527	810.2916	5271.5	4380.5
838.6978	812.3544	5226.55	4339.35
838.8428	814.4164	5202.25	4318.05
838.9879	816.4778	5207.6	4316.05
839.133	818.5385	5244.8	4355.6
839.2781	820.5986	5348.85	4459.75
839.4232	822.658	5515.15	4623.05
839.5682	824.7166	5752.4	4863
839.7133	826.7747	6140.7	5248.8
839.8584	828.832	6528.65	5640.25
840.0035	830.8886	6835.95	5942.05
840.1486	832.9446	6951.5	6057.55
840.2937	834.9999	6876.1	5985.85
840.4388	837.0545	6648.45	5756.55
840.5839	839.1085	6354.65	5462.35
840.729	841.1618	6109.35	5212
840.8741	843.2143	5909.7	5018.35
841.0192	845.2662	5754.55	4862.45
841.1643	847.3175	5660.4	4767.45
841.3095	849.368	5607.55	4714.65
841.4546	851.4179	5555.35	4663.6
841.5997	853.467	5477.15	4583.7
841.7448	855.5155	5455.9	4564.85
841.8899	857.5633	5431.15	4537.2
842.0351	859.6105	5374.4	4479.8
842.1802	861.6569	5321.4	4428.05
842.3253	863.7027	5265.7	4368.95
842.4704	865.7478	5231.5	4335.2
842.6156	867.7922	5195.8	4300.55
842.7607	869.8359	5185.6	4292.45
842.9058	871.8789	5175.8	4279.75
843.0509	873.9212	5236.55	4310.55
843.1961	875.9629	5250.65	4353.3
843.3412	878.0039	5326.5	4428.5
843.4863	880.0441	5361.35	4472
843.6315	882.0837	5416.3	4518.3
843.7766	884.1226	5465.6	4572.2
843.9218	886.1609	5549.6	4654.85
844.0669	888.1984	5635.5	4740.2
844.212	890.2352	5757.25	4859.3
844.3572	892.2714	5770.6	4872.7
844.5023	894.3069	5749.75	4857.05
844.6475	896.3416	5616.25	4723.4
844.7926	898.3757	5513.9	4616.85
844.9377	900.4091	5429.45	4531.6
845.0829	902.4418	5421.3	4520.9
845.228	904.4739	5437.4	4535.85
845.3732	906.5052	5481.85	4583.05
845.5183	908.5358	5493.6	4595.05
845.6635	910.5658	5401.3	4500.1
845.8086	912.595	5265.7	4366.15
845.9538	914.6236	5106.05	4207.6
846.0989	916.6515	5017.45	4118.55
846.2441	918.6786	4944.4	4044.9
846.3892	920.7051	4931.4	4032.75
846.5344	922.7309	4958.2	4058.1
846.6795	924.756	4955.4	4057.3
846.8246	926.7804	5014.6	4115.65
846.9698	928.8041	5005.2	4106.4
847.1149	930.8272	5041.5	4141.8
847.2601	932.8495	5040.65	4137.6
847.4052	934.8711	5075.3	4173.15
847.5504	936.892	5062.3	4162.7
847.6955	938.9123	5074.35	4173.7
847.8407	940.9318	5121.05	4224.9
847.9858	942.9506	5141.35	4241.6
848.131	944.9688	5122.5	4222.85
848.2761	946.9862	5035.95	4136.45
848.4213	949.003	4931.6	4030.8
848.5664	951.019	4874.35	3973.35
848.7115	953.0344	4821.75	3924.35
848.8567	955.0491	4803.35	3902.3
849.0018	957.063	4816.5	3918.85
849.147	959.0763	4860.55	3964
849.2921	961.0888	4880.9	3977.9
849.4373	963.1007	4894.15	3993.55
849.5824	965.1119	4889.3	3991.6
849.7275	967.1223	4893.85	4001.3
849.8727	969.1321	4881.75	3989.35
850.0178	971.1412	4871.45	3976
850.1629	973.1495	4873.75	3973.3
850.3081	975.1572	4887.75	3955.8
850.4532	977.1641	4886.85	3985.75
850.5983	979.1704	4869.1	3965.65
850.7435	981.1759	4843.15	3938.75
850.8886	983.1808	4846.9	3942.25
851.0337	985.1849	4849.15	3938.85
851.1788	987.1884	4880.55	3977.5
851.324	989.1911	4915.4	4011.8
851.4691	991.1932	4938.85	4037.55
851.6142	993.1945	4967	4066.95
851.7593	995.1951	4932.2	4031.7
851.9045	997.1951	4926.2	4018.85
852.0496	999.1943	4898.45	3998.6
852.1947	1001.1928	4916.05	4015.5
852.3398	1003.1906	4976.9	4075.75
852.4849	1005.1877	5066.2	4165.9
852.63	1007.1841	5120.3	4221.15
852.7751	1009.1798	5173.5	4271.5
852.9202	1011.1748	5153	4250.15
853.0653	1013.1691	5063.3	4159.6
853.2104	1015.1627	4929.85	4027.5
853.3555	1017.1556	4815.95	3915.35
853.5006	1019.1477	4745.75	3848.8
853.6457	1021.1392	4659.9	3762.35
853.7908	1023.1299	4650.9	3754.6
853.9359	1025.12	4650.9	3757.45
854.081	1027.1093	4684.3	3796.85
854.2261	1029.0979	4746.75	3859.25
854.3712	1031.0859	4823.9	3935.4
854.5163	1033.0731	4862.6	3964.95
854.6613	1035.0596	4845.5	3948.45
854.8064	1037.0454	4788.75	3891.25
854.9515	1039.0304	4705	3803.95
855.0965	1041.0148	4662.7	3763.05
855.2416	1042.9985	4616.1	3712.65
855.3867	1044.9814	4585.35	3684.4
855.5317	1046.9636	4569.05	3667.2
855.6768	1048.9452	4560.95	3661.3
855.8219	1050.926	4579.85	3681.9
855.9669	1052.9061	4598.95	3698.7
856.112	1054.8855	4630.2	3730.2
856.257	1056.8642	4645.1	3749.25
856.4021	1058.8421	4678.7	3774.4
856.5471	1060.8194	4694.9	3791.8
856.6921	1062.7959	4729.55	3829.4
856.8372	1064.7717	4778.75	3872.85
856.9822	1066.7469	4819.85	3915.85
857.1272	1068.7213	4894.6	3991
857.2723	1070.695	4954.35	4049.35
857.4173	1072.6679	5000.25	4097.75
857.5623	1074.6402	5027.35	4126.4
857.7073	1076.6117	5010.7	4103.55
857.8523	1078.5826	4917.2	4014.05
857.9973	1080.5527	4820.3	3912.4
858.1423	1082.5221	4737	3833.4
858.2873	1084.4908	4680.85	3779.6
858.4323	1086.4587	4660.6	3757.4
858.5773	1088.426	4673.75	3771.2
858.7223	1090.3925	4679.1	3773.9
858.8673	1092.3584	4714	3814.2
859.0123	1094.3235	4731.85	3830.65
859.1573	1096.2879	4825.8	3926.9
859.3022	1098.2515	4933.35	4029.9
859.4472	1100.2145	5054.15	4153.9
859.5922	1102.1767	5183.6	4281.1
859.7371	1104.1382	5338.3	4435.55
859.8821	1106.099	5511.95	4608.35
860.027	1108.0591	5660.25	4759.8
860.172	1110.0185	5781	4876.8
860.3169	1111.9771	5838.55	4936.05
860.4619	1113.9351	5810.55	4907.2
860.6068	1115.8923	5766.5	4864.05
860.7517	1117.8488	5691.25	4788.95
860.8967	1119.8045	5593.55	4691.8
861.0416	1121.7596	5493.55	4590.75
861.1865	1123.7139	5394.75	4498.5
861.3314	1125.6675	5349.7	4448.25
861.4763	1127.6204	5348.1	4447.4
861.6212	1129.5726	5323.3	4422.5
861.7661	1131.524	5280.75	4379.5
861.911	1133.4748	5169.35	4266.25
862.0559	1135.4248	5004	4100.1
862.2008	1137.3741	4906.6	4006.45
862.3457	1139.3226	4824.6	3922.8
862.4905	1141.2705	4785.2	3884.6
862.6354	1143.2176	4762.2	3856.5
862.7803	1145.164	4736.9	3833.65
862.9251	1147.1097	4665.25	3762.95
863.07	1149.0546	4584.15	3681.2
863.2148	1150.9989	4513.2	3611
863.3597	1152.9424	4449.4	3544.95
863.5045	1154.8852	4405.05	3499.55
863.6493	1156.8272	4396.3	3494.55
863.7942	1158.7686	4413.35	3503.85
863.939	1160.7092	4428.1	3525.15
864.0838	1162.6491	4480.2	3577.2
864.2286	1164.5883	4545.9	3645.35
864.3734	1166.5267	4633.15	3733.9
864.5182	1168.4644	4739.25	3837.65
864.663	1170.4014	4849.35	3943.4
864.8078	1172.3377	5017.4	4118.6
864.9526	1174.2732	5220.9	4322.4
865.0974	1176.2081	5534.55	4633.95
865.2421	1178.1421	5907.3	5004.55
865.3869	1180.0755	6304.7	5401.05
865.5317	1182.0082	6587.2	5686.7
865.6764	1183.9401	6692.8	5793
865.8212	1185.8713	6584.7	5686.85
865.9659	1187.8017	6331.2	5433.4
866.1106	1189.7315	6024.7	5134.15
866.2554	1191.6605	5745.35	4851.8
866.4001	1193.5888	5556.45	4661.5
866.5448	1195.5163	5421.95	4528.1
866.6895	1197.4432	5357.45	4456.7
866.8342	1199.3693	5326.45	4425.85
866.9789	1201.2947	5292.3	4386.2
867.1236	1203.2193	5254.3	4356.2
867.2683	1205.1432	5240.35	4338.35
867.413	1207.0664	5227.05	4324.65
867.5576	1208.9889	5209.05	4306.65
867.7023	1210.9106	5202.4	4301.3
867.847	1212.8316	5207.7	4308.05
867.9916	1214.7519	5257.7	4348.55
868.1363	1216.6715	5247.25	4349.15
868.2809	1218.5903	5337.35	4440.05
868.4255	1220.5084	5396.8	4497.15
868.5701	1222.4257	5471.4	4572.85
868.7148	1224.3424	5516.55	4619.8
868.8594	1226.2583	5624.9	4722.95
869.004	1228.1735	5742.7	4841.2
869.1486	1230.0879	5888.35	4987
869.2932	1232.0016	6012.2	5112.65
869.4377	1233.9146	6145.1	5242.6
869.5823	1235.8269	6192.15	5294.05
869.7269	1237.7384	6205.9	5306.3
869.8715	1239.6492	6143.45	5245.35
870.016	1241.5592	6151.65	5250.4
870.1606	1243.4686	6222.3	5322.4
870.3051	1245.3772	6383.95	5482.5
870.4496	1247.285	6586.65	5685.45
870.5941	1249.1922	6769.25	5867.5
870.7387	1251.0986	6919.9	6020.4
870.8832	1253.0042	7041.05	6142.95
871.0277	1254.9092	7126.2	6226.35
871.1722	1256.8134	7205.15	6306.75
871.3167	1258.7169	7293.7	6392.55
871.4611	1260.6196	7391.15	6491.65
871.6056	1262.5216	7549.8	6648.4
871.7501	1264.4229	7647.45	6748.55
871.8945	1266.3234	7785.45	6885.4
872.039	1268.2232	7882.75	6982
872.1834	1270.1223	7906.5	7006.45
872.3278	1272.0207	7932.05	7030.5
872.4723	1273.9183	7947.05	7041.05
872.6167	1275.8151	7911.15	7013.4
872.7611	1277.7113	7911.6	7013.5
872.9055	1279.6067	7997.1	7099.85
873.0499	1281.5014	8238.65	7336.8
873.1943	1283.3953	8618.7	7716.6
873.3386	1285.2885	9075.05	8175.2
873.483	1287.181	9552.2	8652.25
873.6274	1289.0727	9970.3	9070.8
873.7717	1290.9637	10256.35	9356.05
873.9161	1292.854	10428.3	9528.7
874.0604	1294.7435	10407.9	9506
874.2047	1296.6323	10276.3	9375.95
874.349	1298.5204	10055.5	9153.25
874.4933	1300.4077	9825.75	8928.3
874.6376	1302.2943	9575.25	8676.15
874.7819	1304.1802	9286.5	8389.7
874.9262	1306.0653	8898.05	7996.1
875.0705	1307.9497	8516.2	7615.45
875.2147	1309.8333	8173.55	7273.25
875.359	1311.7162	7922.15	7020.95
875.5032	1313.5984	7759.6	6855.1
875.6475	1315.4798	7651	6739.4
875.7917	1317.3605	7541.1	6621.7
875.9359	1319.2405	7431.35	6529.5
876.0801	1321.1197	7239.15	6338
876.2243	1322.9982	6991.7	6090.15
876.3685	1324.876	6755.65	5855.8
876.5127	1326.753	6505.7	5605.8
876.6569	1328.6293	6331.6	5429.15
876.801	1330.5048	6167.95	5265.2
876.9452	1332.3796	6048.1	5145.45
877.0893	1334.2537	5942.2	5018.1
877.2335	1336.127	5838	4937.3
877.3776	1337.9996	5817.9	4919.7
877.5217	1339.8714	5794.35	4893.45
877.6658	1341.7426	5833.1	4886.25
877.8099	1343.6129	5815.4	4913.8
877.954	1345.4826	5807.7	4907.85
878.0981	1347.3515	5807.45	4902.35
878.2422	1349.2196	5798	4894.85
878.3862	1351.087	5801.95	4902.7
878.5303	1352.9537	5842.7	4941.4
878.6743	1354.8197	5911	5010.65
878.8184	1356.6849	5984.2	5082.2
878.9624	1358.5493	6122.2	5221.25
879.1064	1360.4131	6262.3	5361.4
879.2504	1362.276	6372.9	5472.95
879.3944	1364.1383	6428.9	5530.6
879.5384	1365.9998	6347.25	5440.95
879.6823	1367.8606	6168.1	5265
879.8263	1369.7206	5936.4	5035.55
879.9702	1371.5799	5723.5	4821.6
880.1142	1373.4384	5550.2	4650.95
880.2581	1375.2962	5398	4495.45
880.402	1377.1533	5171.9	4272.3
880.5459	1379.0096	4951.15	4051.1
880.6898	1380.8652	4725.7	3825.1
880.8337	1382.7201	4544.75	3645.25
880.9776	1384.5742	4413.3	3511.85
881.1215	1386.4275	4300.7	3398.75
881.2653	1388.2802	4209.8	3309.55
881.4092	1390.132	4131.05	3232.6
881.553	1391.9832	4076.25	3174.6
881.6968	1393.8336	4032.1	3133.35
881.8406	1395.6832	4022.05	3119.5
881.9844	1397.5322	3981.35	3080.25
882.1282	1399.3803	3978.3	3070.6
882.272	1401.2278	3949.75	3048.15
882.4158	1403.0745	3938.5	3041.45
882.5595	1404.9204	3916.85	3018.3
882.7033	1406.7656	3930.1	3029.9
882.847	1408.6101	3949.3	3047.15
882.9908	1410.4538	3953.15	3051.9
883.1345	1412.2968	3963.35	3063.5
883.2782	1414.139	4004.85	3104.4
883.4219	1415.9805	4053.75	3155.85
883.5656	1417.8213	4098.75	3191.35
883.7092	1419.6613	4162.3	3264.8
883.8529	1421.5006	4264.25	3364.9
883.9965	1423.3391	4387.45	3488.8
884.1402	1425.1769	4552.5	3652.3
884.2838	1427.0139	4828.45	3930.1
884.4274	1428.8502	5176.85	4275.7
884.571	1430.6858	5490.85	4591.8
884.7146	1432.5206	5717.85	4818.35
884.8582	1434.3547	5851.2	4951.05
885.0018	1436.188	5886.65	4988.45
885.1453	1438.0206	5843.2	4942.45
885.2889	1439.8524	5722.95	4820.85
885.4324	1441.6835	5657.3	4758.05
885.5759	1443.5139	5610.2	4706.35
885.7194	1445.3435	5568.05	4668.35
885.8629	1447.1724	5552.75	4656.15
886.0064	1449.0005	5528.8	4631.1
886.1499	1450.8279	5521.45	4622.6
886.2933	1452.6545	5497.65	4600.4
886.4368	1454.4804	5513.5	4619.1
886.5802	1456.3056	5523.75	4621.85
886.7237	1458.13	5471.55	4575.45
886.8671	1459.9536	5383.25	4483.15
887.0105	1461.7766	5229.45	4331.8
887.1539	1463.5987	5057.2	4157.35
887.2972	1465.4202	4834.1	3935.85
887.4406	1467.2409	4645.3	3746.95
887.584	1469.0608	4476.5	3579.15
887.7273	1470.88	4324.1	3424.45
887.8706	1472.6984	4175.7	3278.7
888.0139	1474.5161	4048.4	3147.25
888.1572	1476.3331	3970.1	3069.5
888.3005	1478.1493	3909.1	3011.1
888.4438	1479.9648	3836.25	2940
888.5871	1481.7795	3800.95	2902.45
888.7303	1483.5935	3769.3	2871.65
888.8736	1485.4067	3741.35	2844.5
889.0168	1487.2192	3727.85	2830.35
889.16	1489.031	3711.25	2812.1
889.3032	1490.842	3686.5	2789.5
889.4464	1492.6522	3663.2	2766.55
889.5896	1494.4618	3624.5	2724.35
889.7327	1496.2705	3629.55	2732.8
889.8759	1498.0785	3597.65	2701.5
890.019	1499.8858	3568.45	2671.5
890.1622	1501.6924	3556.7	2658.95
890.3053	1503.4981	3529.75	2633.7
890.4484	1505.3032	3510.8	2614
890.5914	1507.1075	3470.3	2573.8
890.7345	1508.911	3444.5	2545.55
890.8776	1510.7138	3420.3	2521.45
891.0206	1512.5159	3383.3	2485.75
891.1637	1514.3172	3361.1	2467.7
891.3067	1516.1178	3339.25	2444.55
891.4497	1517.9176	3312.45	2414.15
891.5927	1519.7166	3282.55	2387.7
891.7357	1521.515	3282.85	2382.55
891.8786	1523.3126	3267.65	2371.85
892.0216	1525.1094	3255.45	2359.1
892.1645	1526.9055	3245.4	2352
892.3074	1528.7008	3228.75	2332.65
892.4503	1530.4954	3218.2	2319.65
892.5932	1532.2893	3215.2	2319.5
892.7361	1534.0824	3206.75	2308.1
892.879	1535.8747	3224.65	2330.65
893.0218	1537.6663	3196.9	2302.05
893.1647	1539.4572	3204.2	2308.55
893.3075	1541.2473	3206	2310.65
893.4503	1543.0367	3225.3	2333.85
893.5931	1544.8253	3228	2329
893.7359	1546.6132	3263.8	2369.6
893.8787	1548.4003	3269.9	2366.2
894.0214	1550.1867	3325.1	2420.95
894.1642	1551.9723	3373.15	2476.7
894.3069	1553.7572	3433.05	2539
894.4496	1555.5414	3515.05	2624.65
894.5923	1557.3247	3621.4	2728.95
894.735	1559.1074	3752	2861.55
894.8777	1560.8893	3894.85	3003.8
895.0204	1562.6705	4004.05	3112.75
895.163	1564.4509	4101.4	3209.75
895.3056	1566.2305	4160.9	3273.9
895.4482	1568.0094	4178.45	3288.6
895.5908	1569.7876	4179.8	3290.65
895.7334	1571.565	4165.1	3275.95
895.876	1573.3417	4177.6	3288.5
896.0186	1575.1176	4172.55	3284.35
896.1611	1576.8928	4196.25	3307.45
896.3036	1578.6672	4213.9	3328.55
896.4461	1580.4409	4264.1	3377
896.5886	1582.2138	4334.05	3445.15
896.7311	1583.986	4410.55	3522.85
896.8736	1585.7575	4506.4	3618.2
897.0161	1587.5282	4563.7	3676.7
897.1585	1589.2981	4675.7	3788.45
897.3009	1591.0673	4755.5	3869
897.4433	1592.8358	4850.1	3963.4
897.5857	1594.6035	4924.3	4034.85
897.7281	1596.3704	4994.15	4105.25
897.8705	1598.1366	5040.05	4152.95
898.0128	1599.9021	5107.2	4222.75
898.1551	1601.6668	5170.5	4281.95
898.2975	1603.4308	5262.3	4373.85
898.4398	1605.194	5372.55	4480.6
898.5821	1606.9564	5515.4	4630.55
898.7243	1608.7182	5706.4	4819.25
898.8666	1610.4791	5936.6	5053.75
899.0088	1612.2394	6166.6	5284.2
899.1511	1613.9988	6406.2	5522
899.2933	1615.7576	6624.6	5740.4
899.4355	1617.5156	6765.55	5872.4
899.5776	1619.2728	6799.15	5910.4
899.7198	1621.0293	6695.6	5806.9
899.862	1622.785	6508.45	5617.75
900.0041	1624.54	6232.8	5347
900.1462	1626.2942	5906.35	5023.05
900.2883	1628.0477	5586.9	4700.75
900.4304	1629.8005	5306.15	4418.35
900.5725	1631.5525	5040.85	4155.8
900.7145	1633.3037	4816.5	3933.05
900.8566	1635.0542	4627.15	3743.45
900.9986	1636.804	4488.55	3603.85
901.1406	1638.553	4441.05	3488.15
901.2826	1640.3013	4311.4	3425.8
901.4245	1642.0488	4274.95	3388.6
901.5665	1643.7955	4263	3378.1
901.7085	1645.5416	4283.75	3399.6
901.8504	1647.2868	4348.3	3465.4
901.9923	1649.0313	4393.75	3509.4
902.1342	1650.7751	4469.25	3583.45
902.2761	1652.5181	4559.2	3675.55
902.4179	1654.2604	4656.9	3771.45
902.5598	1656.0019	4794.4	3909.9
902.7016	1657.7427	4945.05	4061.4
902.8434	1659.4828	5105.9	4221.2
902.9852	1661.222	5198.9	4313.4
903.127	1662.9606	5197.3	4313.65
903.2687	1664.6984	5069.05	4183.65
903.4105	1666.4354	4832.6	3945.3
903.5522	1668.1717	4492.95	3608.8
903.6939	1669.9072	4164.8	3279.2
903.8356	1671.642	3861.35	2973.3
903.9773	1673.3761	3627	2743.85
904.119	1675.1094	3431.45	2548.1
904.2606	1676.8419	3280.2	2396.9
904.4022	1678.5737	3156.65	2272.5
904.5439	1680.3048	3063	2177.85
904.6855	1682.0351	2987.05	2100.65
904.827	1683.7646	2908.55	2022.45
904.9686	1685.4934	2854.6	1970.7
905.1101	1687.2215	2811.05	1926.9
905.2517	1688.9488	2762.95	1878.4
905.3932	1690.6754	2732.35	1850.65
905.5347	1692.4012	2703.15	1819
905.6761	1694.1263	2672.05	1788.55
905.8176	1695.8506	2648.8	1764.2
905.9591	1697.5742	2621.2	1738.4
906.1005	1699.297	2586.5	1704.9
906.2419	1701.0191	2572.3	1689.55
906.3833	1702.7404	2546.55	1664.7
906.5246	1704.461	2529.45	1646
906.666	1706.1808	2518	1633.9
906.8073	1707.8999	2496.9	1613.3
906.9487	1709.6182	2482.75	1601.4
907.09	1711.3358	2461	1580.2
907.2313	1713.0527	2452.5	1573
907.3725	1714.7688	2435.45	1547.8
907.5138	1716.4841	2434.35	1552.25
907.655	1718.1987	2430.9	1542.25
907.7962	1719.9126	2404.6	1523.45
907.9374	1721.6257	2405.15	1518.25
908.0786	1723.338	2397.95	1515.7
908.2198	1725.0496	2380.3	1496.35
908.3609	1726.7605	2380.95	1500.55
908.502	1728.4706	2381.2	1497.7
908.6431	1730.18	2371.9	1488.25
908.7842	1731.8886	2354.15	1474.55
908.9253	1733.5964	2364.15	1463.6
909.0664	1735.3036	2347.4	1462.85
909.2074	1737.0099	2333.6	1451.6
909.3484	1738.7156	2320.15	1440.5
909.4894	1740.4204	2314.9	1431.55
909.6304	1742.1246	2298.9	1417.35
909.7714	1743.8279	2292	1408.75
909.9123	1745.5306	2271.35	1388.6
910.0532	1747.2325	2267.85	1389.5
910.1941	1748.9336	2257.85	1378.05
910.335	1750.634	2251.3	1365.45
910.4759	1752.3336	2247.25	1366.7
910.6168	1754.0325	2245.35	1365.1
910.7576	1755.7307	2239.6	1358.9
910.8984	1757.4281	2237.6	1353.9
911.0392	1759.1247	2237.2	1345.25
911.18	1760.8206	2219.6	1332.8
911.3208	1762.5158	2223.3	1336.95
911.4615	1764.2102	2212.05	1331.15
911.6022	1765.9039	2197	1315.15
911.7429	1767.5968	2199.8	1320.15
911.8836	1769.289	2188.2	1307.25
912.0243	1770.9804	2192	1309.35
912.1649	1772.6711	2198	1314.4
912.3056	1774.361	2190.1	1307.2
912.4462	1776.0502	2176.15	1292.15
912.5868	1777.7386	2177.65	1294.15
912.7274	1779.4263	2171.1	1288.6
912.8679	1781.1132	2171.9	1292.35
913.0084	1782.7994	2164.8	1283.7
913.149	1784.4849	2156.2	1276.35
913.2895	1786.1696	2177.05	1279.45
913.4299	1787.8535	2151.5	1274
913.5704	1789.5367	2149.35	1269.1
913.7108	1791.2192	2156.1	1275.15
913.8513	1792.9009	2164.45	1258.35
913.9917	1794.5818	2141.4	1258.45
914.132	1796.2621	2129.95	1249.7
914.2724	1797.9415	2136.3	1255.15
914.4128	1799.6202	2122.7	1240.15
914.5531	1801.2982	2125	1244.25
914.6934	1802.9755	2120.25	1237.05
914.8337	1804.6519	2112.45	1231.6
914.9739	1806.3277	2113.4	1233.2
915.1142	1808.0027	2097.6	1219.05
915.2544	1809.6769	2104.25	1225.4
915.3946	1811.3504	2102.35	1221.15
915.5348	1813.0231	2096.1	1215.45
915.675	1814.6951	2083.2	1203
915.8151	1816.3664	2100.9	1217.6
915.9553	1818.0369	2092.95	1211.75
916.0954	1819.7067	2081.4	1201.7
916.2355	1821.3757	2093.15	1208.9
916.3755	1823.044	2081	1200.35
916.5156	1824.7115	2091.15	1208.8
916.6556	1826.3783	2070	1188.5
916.7956	1828.0443	2060.8	1181.05
916.9356	1829.7096	2072.55	1191.35
917.0756	1831.3741	2079.05	1195.2
917.2155	1833.0379	2063.1	1182
917.3555	1834.701	2065	1182.65
917.4954	1836.3633	2058.3	1176.6
917.6353	1838.0248	2059.8	1176.45
917.7751	1839.6856	2054.3	1172.9
917.915	1841.3457	2054.85	1175.05
918.0548	1843.005	2054.15	1173.85
918.1946	1844.6636	2037.8	1158.35
918.3344	1846.3214	2041.85	1160.65
918.4742	1847.9785	2045.7	1165.15
918.6139	1849.6349	2046.55	1163.75
918.7537	1851.2904	2036.65	1148.05
918.8934	1852.9453	2043.95	1162.9
919.0331	1854.5994	2036.55	1151.65
919.1727	1856.2528	2040.45	1153.2
919.3124	1857.9054	2027.1	1147.1
919.452	1859.5572	2030.05	1148.95
919.5916	1861.2083	2024.05	1142.4
919.7312	1862.8587	2016.2	1135.2
919.8708	1864.5084	2019.15	1134.7
920.0103	1866.1572	2016.55	1135.4
920.1498	1867.8054	2005.35	1124.1
920.2893	1869.4528	2011.05	1129.9
920.4288	1871.0994	1998.6	1114.5
920.5683	1872.7453	1992.6	1111.6
920.7077	1874.3905	2015.9	1127.3
920.8471	1876.0349	1997.15	1115.35
920.9865	1877.6786	1995.1	1113.85
921.1259	1879.3215	1987.7	1106.25
921.2653	1880.9637	1991.5	1109.2
921.4046	1882.6051	1988.9	1109.4
921.5439	1884.2458	1983.55	1102.45
921.6832	1885.8858	1989.55	1109.35
921.8225	1887.525	1981.4	1102.1
921.9617	1889.1634	1965.8	1084.25
922.101	1890.8011	1961.05	1080.65
922.2402	1892.4381	1960	1078.2
922.3794	1894.0743	1962.95	1081.6
922.5185	1895.7098	1958.1	1077.9
922.6577	1897.3446	1954.9	1073.7
922.7968	1898.9786	1955.3	1069.65
922.9359	1900.6118	1948.65	1066.45
923.075	1902.2443	1945.8	1060.5
923.214	1903.8761	1938.95	1057.3
923.3531	1905.5071	1935.55	1051.45
923.4921	1907.1374	1928.8	1047.55
923.6311	1908.7669	1922.55	1042.25
923.77	1910.3957	1933.1	1054.65
923.909	1912.0237	1931.85	1050.95
924.0479	1913.651	1919	1039.7
924.1868	1915.2776	1917.9	1036.7
924.3257	1916.9034	1916.3	1036.5
924.4646	1918.5285	1905.8	1027.5
924.6034	1920.1528	1900.2	1016.3
924.7422	1921.7764	1907.65	1026.45
924.881	1923.3992	1909.8	1028.4
925.0198	1925.0213	1892.75	1010.75
925.1586	1926.6427	1883.4	1002.85
925.2973	1928.2633	1964.6	997.8
925.436	1929.8832	1892.5	1008.65
925.5747	1931.5023	1879.8	999.2
925.7134	1933.1207	1883.45	1002.3
925.852	1934.7383	1881.15	999.75
925.9906	1936.3552	1875.15	994.7
926.1292	1937.9714	1868.4	989.25
926.2678	1939.5868	1868	986.25
926.4064	1941.2015	1856.85	974
926.5449	1942.8154	1857.85	977
926.6834	1944.4286	1856	976.4
926.8219	1946.041	1888.3	982.5
926.9604	1947.6528	1852.7	966.5
927.0988	1949.2637	1834.9	954.9
927.2372	1950.8739	1850.55	968.25
927.3756	1952.4834	1840.35	959.8
927.514	1954.0921	1838.7	956.25
927.6523	1955.7001	1838.9	953.15
927.7907	1957.3074	1833.65	954.7
927.929	1958.9139	1815.9	936.45
928.0673	1960.5197	1826.75	947.25
928.2055	1962.1247	1824.45	945.2
928.3438	1963.729	1814.75	936.7
928.482	1965.3325	1814	928.7
928.6202	1966.9353	1804.45	927.75
928.7584	1968.5374	1813.85	931.1
928.8965	1970.1387	1807.75	925.65
929.0346	1971.7393	1804.85	924.35
929.1727	1973.3392	1798.6	918.75
929.3108	1974.9383	1795.85	917
929.4489	1976.5366	1800.35	921.45
929.5869	1978.1342	1788.5	908.1
929.7249	1979.7311	1788.8	909.75
929.8629	1981.3273	1791.85	912
930.0009	1982.9227	1784.85	904.75
930.1388	1984.5173	1775.4	897.4
930.2767	1986.1112	1772.9	894.35
930.4146	1987.7044	1770.35	892
930.5525	1989.2968	1766.15	885
930.6904	1990.8885	1768.75	884.9
930.8282	1992.4795	1763.85	884
930.966	1994.0697	1764.8	888
931.1038	1995.6592	1758.2	879.1
931.2415	1997.2479	1757.75	878.45
931.3793	1998.8359	1750.7	872.85
931.517	2000.4232	1757.35	881.55
931.6547	2002.0097	1741.3	865.75
931.7923	2003.5955	1740	863.05
931.93	2005.1805	1751.8	874.7
932.0676	2006.7648	1745.85	870.45
932.2052	2008.3484	1745.15	865.95
932.3427	2009.9312	1737.55	859.3
932.4803	2011.5133	1734.15	860.35
932.6178	2013.0946	1735.3	857.4
932.7553	2014.6752	1729.55	854.1
932.8928	2016.2551	1728.1	847.4
933.0302	2017.8342	1721.2	841.8
933.1676	2019.4126	1725.7	849.75
933.305	2020.9902	1716.1	840
933.4424	2022.5672	1722.6	846.3
933.5798	2024.1433	1723.2	841.8
933.7171	2025.7188	1707.15	834.05
933.8544	2027.2935	1711.65	832.85
933.9917	2028.8674	1712.5	837.55
934.129	2030.4406	1699.9	823.45
934.2662	2032.0131	1698.35	822.45
934.4034	2033.5849	1691.4	811.95
934.5406	2035.1559	1704.9	829.15
934.6778	2036.7261	1691.4	814.2
934.8149	2038.2957	1696.7	818.85
934.952	2039.8645	1695.65	816.8
935.0891	2041.4325	1703.15	820.9
935.2262	2042.9998	1697.3	820.9
935.3632	2044.5664	1688.65	809.5
935.5002	2046.1323	1684.65	809.95
935.6372	2047.6974	1688.15	813.05
935.7742	2049.2617	1681.8	805.9
935.9111	2050.8254	1683.35	800.3
936.048	2052.3883	1681.95	803.3
936.1849	2053.9504	1679.8	801.1
936.3218	2055.5118	1674.35	796.2
936.4586	2057.0725	1671	786.35
936.5955	2058.6325	1667.25	789.6
936.7323	2060.1917	1664.65	788.8
936.869	2061.7502	1672.5	791.75
937.0058	2063.3079	1660.9	785.5
937.1425	2064.8649	1654.15	774.2
937.2792	2066.4212	1665.25	786.5
937.4159	2067.9767	1661.35	783.7
937.5525	2069.5315	1656.35	780.6
937.6891	2071.0856	1649.85	770.95
937.8257	2072.6389	1646.25	770.45
937.9623	2074.1915	1644.15	769.25
938.0989	2075.7433	1640.2	762.65
938.2354	2077.2945	1640.7	762.55
938.3719	2078.8448	1635.05	755.9
938.5084	2080.3945	1643.15	766.65
938.6448	2081.9434	1632.8	755.85
938.7812	2083.4916	1628.3	750.5
938.9176	2085.039	1629.6	748.8
939.054	2086.5857	1636.35	754.7
939.1903	2088.1317	1627	747.1
939.3267	2089.677	1628	747.9
939.463	2091.2215	1624.95	746.25
939.5992	2092.7652	1623.35	740.8
939.7355	2094.3083	1619.5	740.55
939.8717	2095.8506	1621.2	742.2
940.0079	2097.3921	1617.45	737.25
940.1441	2098.933	1611.85	730.5
940.2802	2100.4731	1612.1	733.05
940.4163	2102.0124	1629.4	733.9
940.5524	2103.5511	1614.45	735.75
940.6885	2105.089	1620.2	741.1
940.8245	2106.6261	1614.15	736.15
940.9606	2108.1626	1608.55	729.75
941.0965	2109.6983	1632.75	727.5
941.2325	2111.2332	1611.45	731.15
941.3684	2112.7675	1607.9	725.8
941.5044	2114.301	1594.8	713.35
941.6403	2115.8337	1594.95	714.5
941.7761	2117.3657	1595.35	716.8
941.912	2118.897	1599	716.15
942.0478	2120.4276	1603.05	717.65
942.1835	2121.9575	1590.4	711.25
942.3193	2123.4866	1589.8	707.5
942.455	2125.0149	1595	711.55
942.5907	2126.5426	1582.2	703.45
942.7264	2128.0695	1580.9	697.9
942.8621	2129.5956	1578.9	704
942.9977	2131.1211	1584.85	703.95
943.1333	2132.6458	1577.9	700.35
943.2689	2134.1698	1584	704.25
943.4044	2135.693	1574.65	693.75
943.54	2137.2155	1576.2	693.9
943.6755	2138.7373	1574.9	696.6
943.8109	2140.2584	1567.75	687.9
943.9464	2141.7787	1573.05	690.65
944.0818	2143.2983	1557.6	680.15
944.2172	2144.8171	1554.55	677.9
944.3526	2146.3353	1564.8	684.7
944.4879	2147.8527	1556.55	677.8
944.6232	2149.3693	1561	683.25
944.7585	2150.8853	1560.1	678.35
944.8938	2152.4005	1551.5	671.7
945.029	2153.9149	1553.15	673.35
945.1642	2155.4287	1548.75	668.85
945.2994	2156.9417	1545.65	664.85
945.4346	2158.454	1549	666.9
945.5697	2159.9655	1539	661
945.7048	2161.4764	1541.6	664.55
945.8399	2162.9865	1536.65	657.55
945.9749	2164.4958	1544.95	665.15
946.1099	2166.0045	1539.7	657.15
946.2449	2167.5124	1533.1	654.95
946.3799	2169.0195	1528.05	648.05
946.5148	2170.526	1527.3	647.1
946.6498	2172.0317	1531.4	649.85
946.7846	2173.5367	1519.35	641.8
946.9195	2175.0409	1528.7	650.7
947.0543	2176.5445	1535.9	657
947.1891	2178.0473	1529.15	645.9
947.3239	2179.5494	1530.25	647.6
947.4587	2181.0507	1520.75	639.95
947.5934	2182.5513	1522.1	644.15
947.7281	2184.0512	1524.15	645.75
947.8628	2185.5504	1524.15	642.85
947.9974	2187.0488	1514.65	635.75
948.132	2188.5465	1513	636.65
948.2666	2190.0435	1506.05	626
948.4012	2191.5397	1518.35	639.6
948.5357	2193.0353	1515.55	636.4
948.6702	2194.5301	1511.2	629.75
948.8047	2196.0241	1504.15	622.45
948.9392	2197.5175	1496.75	613.75
949.0736	2199.0101	1508.5	624.4
949.208	2200.502	1499.75	621.35
949.3424	2201.9931	1497.15	617.3
949.4767	2203.4835	1494.45	613.8
949.611	2204.9733	1500.75	615.4
949.7453	2206.4622	1488.85	610.35
949.8796	2207.9505	1485.85	605.45
950.0138	2209.438	1487.6	610.85
950.148	2210.9248	1487.85	609.15
950.2822	2212.4109	1484.1	606.3
950.4164	2213.8962	1489.7	607.8
950.5505	2215.3809	1482.25	598.45
950.6846	2216.8648	1478.4	594.9
950.8186	2218.3479	1484.5	598.9
950.9527	2219.8304	1475.25	588.9
951.0867	2221.3121	1474.45	588.4
951.2207	2222.7931	1473.8	593.55
951.3546	2224.2733	1474	593
951.4886	2225.7529	1465.85	585.9
951.6225	2227.2317	1465.1	583.05
951.7563	2228.7098	1465.25	589.05
951.8902	2230.1872	1457.8	579.75
952.024	2231.6638	1458.9	581.2
952.1578	2233.1397	1458.85	574.95
952.2916	2234.6149	1460.7	582.8
952.4253	2236.0894	1455.85	576.2
952.559	2237.5632	1467.7	577.05
952.6927	2239.0362	1455.65	577.65
952.8263	2240.5085	1448.1	568.25
952.9599	2241.9801	1443.5	563.75
953.0935	2243.4509	1449.4	567.25
953.2271	2244.921	1445.75	564.5
953.3606	2246.3904	1446.15	563.2
953.4941	2247.8591	1440	557.8
953.6276	2249.3271	1435.5	555.35
953.7611	2250.7943	1433	550.9
953.8945	2252.2608	1429.5	548.1
954.0279	2253.7266	1430.3	551
954.1612	2255.1917	1435.9	556.5
954.2946	2256.656	1426.35	547.1
954.4279	2258.1197	1424.25	546.1
954.5612	2259.5826	1428.35	549.15
954.6944	2261.0447	1427.95	547.05
954.8276	2262.5062	1431.7	549.45
954.9608	2263.9669	1421.4	539.9
955.094	2265.4269	1427.9	547.85
955.2271	2266.8862	1415	534.7
955.3602	2268.3448	1417.7	537.05
955.4933	2269.8026	1421.25	543.85
955.6264	2271.2598	1418.4	539
955.7594	2272.7162	1418.55	539.1
955.8924	2274.1719	1414.2	533.75
956.0253	2275.6268	1410.8	530.65
956.1583	2277.0811	1420.05	538.4
956.2912	2278.5346	1407.4	529.6
956.4241	2279.9874	1407.9	528.3
956.5569	2281.4395	1405.6	526.85
956.6897	2282.8908	1411.6	526.4
956.8225	2284.3414	1409.75	527.6
956.9553	2285.7914	1400.25	521.05
957.088	2287.2406	1409.95	528.15
957.2207	2288.689	1410.95	532.25
957.3534	2290.1368	1404.7	520.85
957.486	2291.5838	1408.9	525.65
957.6186	2293.0302	1401.8	518.05
957.7512	2294.4758	1396	516.35
957.8838	2295.9206	1395.25	512.7
958.0163	2297.3648	1394.45	513.7
958.1488	2298.8082	1390.05	507.45
958.2813	2300.251	1399.65	517
958.4137	2301.693	1396.25	509.45
958.5461	2303.1343	1392.8	511.15
958.6785	2304.5748	1390.75	509.65
958.8108	2306.0147	1381.55	502.05
958.9432	2307.4538	1386.3	504.45
959.0754	2308.8922	1384.95	507.9
959.2077	2310.3299	1379.5	500.2
959.3399	2311.7669	1379.25	500.4
959.4721	2313.2031	1375.95	495.55
959.6043	2314.6387	1378.05	497.7
959.7365	2316.0735	1375.6	493.55
959.8686	2317.5076	1376.15	494.05
960.0006	2318.941	1374.3	493.55
960.1327	2320.3737	1370.1	488.5
960.2647	2321.8056	1369.85	487.3
960.3967	2323.2369	1374.75	493.95
960.5287	2324.6674	1376.4	493.6
960.6606	2326.0972	1370.65	489.6
960.7925	2327.5263	1372.2	491.25
960.9244	2328.9547	1379.55	497.85
961.0562	2330.3823	1364.45	482.25
961.1881	2331.8092	1370.65	485.45
961.3198	2333.2355	1365.5	483.8
961.4516	2334.661	1364.55	483.4
961.5833	2336.0858	1363	477.4
961.715	2337.5098	1361.4	478.5
961.8467	2338.9332	1358.4	477.3
961.9783	2340.3558	1364.9	480.8
962.1099	2341.7778	1354.5	474.65
962.2415	2343.199	1358.1	476.8
962.373	2344.6195	1360.7	481.05
962.5045	2346.0393	1356.7	476.05
962.636	2347.4583	1354.1	473.95
962.7675	2348.8767	1348.3	465.15
962.8989	2350.2943	1352.95	470.2
963.0303	2351.7113	1355.05	472.25
963.1617	2353.1275	1353.8	473.4
963.293	2354.543	1375.95	468.3
963.4243	2355.9578	1352.3	468.2
963.5556	2357.3718	1343.95	462.55
963.6868	2358.7852	1346.15	464.2
963.818	2360.1978	1352.75	471
963.9492	2361.6098	1339.4	459.5
964.0803	2363.021	1349.7	463.5
964.2114	2364.4315	1342.3	463
964.3425	2365.8413	1341.55	457.3
964.4736	2367.2504	1336.8	458.05
964.6046	2368.6587	1338.45	456.7
964.7356	2370.0664	1335.55	454.7
964.8666	2371.4733	1330.45	446.95
964.9975	2372.8795	1336.95	454.95
965.1284	2374.285	1332.9	452.8
965.2593	2375.6899	1334.4	453.7
965.3901	2377.0939	1329.15	448.7
965.5209	2378.4973	1323.45	442.75
965.6517	2379.9	1328.2	446.1
965.7825	2381.3019	1324.3	445.4
965.9132	2382.7032	1319.4	439.6
966.0439	2384.1037	1319.45	442.65
966.1745	2385.5035	1320.4	440.45
966.3051	2386.9027	1318.95	442.5
966.4357	2388.3011	1320.65	437.25
966.5663	2389.6987	1315.85	435.1
966.6968	2391.0957	1319.1	439.75
966.8273	2392.492	1313.9	432.55
966.9578	2393.8876	1311.25	430.65
967.0882	2395.2824	1302.8	422.65
967.2186	2396.6765	1304.6	424.9
967.349	2398.07	1310.5	430.1
967.4793	2399.4627	1312.3	429.8
967.6097	2400.8547	1312.75	429.5
967.7399	2402.246	1305.9	418.8
967.8702	2403.6366	1304.5	424.9
968.0004	2405.0265	1304.95	423.85
968.1306	2406.4156	1300.5	415.4
968.2607	2407.8041	1298.7	414.5
968.3909	2409.1918	1299.55	416.95
968.521	2410.5789	1300.4	419
968.651	2411.9652	1299.05	415.95
968.781	2413.3508	1298.6	416.1
968.911	2414.7358	1297.05	414.8
969.041	2416.12	1296.3	415.7
969.1709	2417.5035	1289.35	408.35
969.3008	2418.8863	1289.9	406.5
969.4307	2420.2684	1298.8	417.95
969.5606	2421.6497	1294.85	412.8
969.6904	2423.0304	1289.1	409.4
969.8201	2424.4104	1284.45	403.95
969.9499	2425.7896	1290.95	403.95
970.0796	2427.1682	1288.1	406.7
970.2093	2428.546	1285.3	404.55
970.3389	2429.9232	1280.5	398.25
970.4685	2431.2996	1281.45	400.6
970.5981	2432.6753	1284.75	401.55
970.7277	2434.0503	1281.5	400.4
970.8572	2435.4246	1277.5	396.15
970.9867	2436.7982	1278.5	395.6
971.1161	2438.1711	1282.45	402.7
971.2456	2439.5433	1273.5	392.2
971.375	2440.9148	1282.55	396.6
971.5043	2442.2856	1274	393.3
971.6336	2443.6557	1269.95	386.25
971.7629	2445.025	1268.45	387.65
971.8922	2446.3937	1275.45	393.45
972.0214	2447.7617	1265.4	382.45
972.1506	2449.1289	1272.75	392.65
972.2798	2450.4955	1275.45	389.95
972.4089	2451.8613	1258.7	379.1
972.538	2453.2265	1266.8	386.9
972.6671	2454.5909	1262	379.1
972.7961	2455.9546	1269.35	388.8
972.9251	2457.3177	1252.45	371.55
973.0541	2458.68	1258.35	376.4
973.1831	2460.0416	1261.4	379.5
973.312	2461.4025	1262.25	379.05
973.4408	2462.7627	1266.85	375.05
973.5697	2464.1222	1254.8	377.4
973.6985	2465.4811	1258.7	377.8
973.8273	2466.8392	1256.85	377.4
973.956	2468.1966	1255.7	372.6
974.0847	2469.5533	1266.1	383.85
974.2134	2470.9093	1260	377.9
974.3421	2472.2645	1254.4	370.6
974.4707	2473.6191	1257.35	375.95
974.5993	2474.973	1253	370.4
974.7278	2476.3262	1254.95	371.65
974.8563	2477.6787	1253.15	373.4
974.9848	2479.0305	1250.3	371.2
975.1132	2480.3816	1256.35	374.25
975.2417	2481.7319	1254.5	372.5
975.37	2483.0816	1251.05	370.05
975.4984	2484.4306	1256.05	373.65
975.6267	2485.7789	1244.4	367.35
975.755	2487.1264	1246.7	364.75
975.8833	2488.4733	1241.85	363.5
976.0115	2489.8195	1258.5	361.15
976.1397	2491.165	1246.9	362.5
976.2678	2492.5097	1244.65	362.8
976.3959	2493.8538	1234.25	352.8
976.524	2495.1972	1243.1	361.2
976.6521	2496.5398	1240.2	358.05
976.7801	2497.8818	1234.6	347.3
976.9081	2499.2231	1239.35	358.95
977.036	2500.5637	1237.1	353.7
977.164	2501.9035	1233.25	351.65
977.2918	2503.2427	1241.1	355.3
977.4197	2504.5812	1225.25	343.6
977.5475	2505.919	1234.5	351.7
977.6753	2507.256	1228.25	347.6
977.8031	2508.5924	1234.95	354.35
977.9308	2509.9281	1241.95	357.5
978.0585	2511.2631	1223.4	343.9
978.1861	2512.5974	1228.9	347.6
978.3137	2513.9309	1228.75	349.05
978.4413	2515.2638	1259.05	348.75
978.5689	2516.596	1230.1	349.65
978.6964	2517.9275	1227.75	345.3
978.8239	2519.2583	1225.45	344.3
978.9513	2520.5884	1225.2	342.35
979.0788	2521.9178	1221.45	340.95
979.2062	2523.2465	1217.25	338
979.3335	2524.5745	1216.1	335.05
979.4608	2525.9018	1216.75	334.75
979.5881	2527.2284	1221.6	341.8
979.7154	2528.5543	1218.3	338
979.8426	2529.8796	1217.2	336.55
979.9698	2531.2041	1222	341
980.0969	2532.5279	1213.4	334.5
980.224	2533.851	1219.75	337.5
980.3511	2535.1735	1217.6	338.45
980.4781	2536.4952	1209.25	327.85
980.6052	2537.8163	1218.7	336.15
980.7321	2539.1366	1214.55	334.75
980.8591	2540.4562	1219.6	336.55
980.986	2541.7752	1214.55	332.25
981.1129	2543.0935	1216.95	336.2
981.2397	2544.411	1215.45	334.4
981.3665	2545.7279	1209.25	327.7
981.4933	2547.0441	1217.4	336.15
981.62	2548.3596	1216.75	332.3
981.7467	2549.6744	1209.75	329.35
981.8734	2550.9885	1218.05	329.15
982.0001	2552.3019	1214.1	333.95
982.1267	2553.6146	1211.05	329.3
982.2532	2554.9266	1211.7	329.45
982.3798	2556.2379	1205.85	324.2
982.5063	2557.5485	1206.45	327.7
982.6327	2558.8585	1216.8	330.25
982.7592	2560.1677	1209.35	325
982.8856	2561.4762	1210.9	330.7
983.0119	2562.7841	1205.15	320.35
983.1383	2564.0913	1201.45	324.15
983.2646	2565.3977	1206.1	324.4
983.3908	2566.7035	1202.4	320.3
983.517	2568.0086	1203.95	321.5
983.6432	2569.313	1207	325.85
983.7694	2570.6167	1200.55	315.7
983.8955	2571.9197	1204.55	324.35
984.0216	2573.222	1207.85	323.9
984.1476	2574.5236	1202.7	322.7
984.2737	2575.8246	1208.75	325.5
984.3996	2577.1248	1206.35	321.45
984.5256	2578.4244	1197.65	318.45
984.6515	2579.7232	1205.9	324.85
984.7774	2581.0214	1229.35	326.7
984.9032	2582.3189	1202.7	323.7
985.029	2583.6157	1200.15	316.7
985.1548	2584.9118	1202.25	321.55
985.2806	2586.2072	1198.85	319.95
985.4063	2587.5019	1200.8	319.8
985.5319	2588.7959	1203.55	324.55
985.6576	2590.0893	1203.95	321.35
985.7832	2591.3819	1201.85	324.45
985.9087	2592.6739	1204.05	323.1
986.0343	2593.9652	1205.95	324.15
986.1597	2595.2557	1203.8	323.6
986.2852	2596.5456	1207.1	327.25
986.4106	2597.8348	1208.2	326.95
986.536	2599.1234	1209.25	331.75
986.6614	2600.4112	1206.05	324.6
986.7867	2601.6983	1208.15	324.5
986.912	2602.9848	1203.15	322.05
987.0372	2604.2705	1211.55	325.2
987.1624	2605.5556	1200.85	321.2
987.2876	2606.84	1203.8	324.2
987.4128	2608.1237	1197.55	316.1
987.5379	2609.4067	1200.35	318.05
987.6629	2610.689	1207.6	320.35
987.788	2611.9707	1205.55	324.55
987.913	2613.2516	1205.15	321.1
988.0379	2614.5319	1186.5	307.55
988.1629	2615.8115	1189.7	309.2
988.2878	2617.0903	1189.25	308.85
988.4126	2618.3685	1190.45	310.6
988.5375	2619.6461	1193.85	315.2
988.6622	2620.9229	1186.9	307.75
988.787	2622.199	1191.65	311.95
988.9117	2623.4745	1189.3	307.25
989.0364	2624.7493	1184.65	306.55
989.161	2626.0234	1184.55	307
989.2857	2627.2968	1183.2	303.45
989.4102	2628.5695	1187.15	308.25
989.5348	2629.8415	1181.9	303.2
989.6593	2631.1128	1184.55	303.7
989.7837	2632.3835	1180.4	300.05
989.9082	2633.6535	1179.7	300.85
990.0326	2634.9228	1179.8	300.4
990.1569	2636.1914	1179.35	301.25
990.2812	2637.4593	1182.75	303.05
990.4055	2638.7265	1180.5	300.5
990.5298	2639.9931	1180.7	300.9
990.654	2641.259	1176.4	297.3
990.7782	2642.5242	1177.9	297
990.9023	2643.7887	1171.05	294
991.0264	2645.0525	1175.55	295.85
991.1505	2646.3156	1172.75	293.35
991.2745	2647.5781	1168.5	291.4
991.3985	2648.8398	1171.05	291.9
991.5225	2650.1009	1209.8	293.05
991.6464	2651.3613	1171.9	292.1
991.7703	2652.6211	1161.7	282.7
991.8942	2653.8801	1168.65	290.6
992.018	2655.1385	1174.05	293.3
992.1418	2656.3961	1172.7	293
992.2655	2657.6531	1169.45	289.35
992.3892	2658.9094	1173.4	291.9
992.5129	2660.1651	1169.45	293.3
992.6366	2661.42	1168.55	290.35
992.7602	2662.6743	1170	289.8
992.8837	2663.9279	1173.75	296.9
993.0073	2665.1808	1170.65	292.05
993.1307	2666.433	1174.4	293.85
993.2542	2667.6846	1177.2	299.2
993.3776	2668.9354	1179.95	298.5
993.501	2670.1856	1182	304.35
993.6244	2671.4351	1180.55	302.3
993.7477	2672.6839	1185.65	305.35
993.8709	2673.9321	1185.85	307.9
993.9942	2675.1795	1185.25	306.85
994.1174	2676.4263	1185.7	308.4
994.2405	2677.6724	1180.05	301.65
994.3637	2678.9179	1182.95	302.2
994.4868	2680.1626	1182.9	304.95
994.6098	2681.4067	1186.9	307.1
994.7328	2682.6501	1183.7	305.3
994.8558	2683.8928	1186.05	304.25
994.9788	2685.1348	1185.25	305.9
995.1017	2686.3761	1174.75	297.75
995.2245	2687.6168	1172.7	293.7
995.3474	2688.8568	1172.75	293.7
995.4702	2690.0961	1165.5	287.95
995.5929	2691.3348	1172.05	292.8
995.7156	2692.5727	1165.85	287.45
995.8383	2693.81	1161.95	279.9
995.961	2695.0466	1163.25	286.6
996.0836	2696.2826	1170.15	287
996.2062	2697.5178	1190.7	293
996.3287	2698.7524	1172.85	294.5
996.4512	2699.9863	1175.05	294.05
996.5737	2701.2195	1165.05	287.5
996.6961	2702.452	1172.25	290.5
996.8185	2703.6839	1178.55	300.1
996.9408	2704.9151	1180.8	303.05
997.0631	2706.1456	1184.4	305.55
997.1854	2707.3755	1187.75	308.35
997.3077	2708.6046	1191.45	311.5
997.4299	2709.8331	1195.3	316.85
997.552	2711.0609	1193.6	313.7
997.6742	2712.2881	1199.8	323.1
997.7963	2713.5145	1205	323.3
997.9183	2714.7403	1209.9	332.75
998.0403	2715.9654	1218.65	339.8
998.1623	2717.1899	1225.85	335.5
998.2842	2718.4136	1225.65	346.4
998.4062	2719.6367	1232.9	355.1
998.528	2720.8591	1246	359.5
998.6498	2722.0809	1245.25	365.75
998.7716	2723.3019	1248.8	368.65
998.8934	2724.5223	1263.8	385
999.0151	2725.7421	1258.45	379.15
999.1368	2726.9611	1263.15	386.05
999.2584	2728.1795	1268.25	384.2
999.38	2729.3972	1251.25	373.35
999.5016	2730.6142	1260.8	374.2
999.6231	2731.8306	1242.3	362.05
999.7446	2733.0462	1236.35	356.25
999.8661	2734.2612	1225.35	341.7
999.9875	2735.4756	1219.65	339.75
1000.1089	2736.6892	1205.2	325.35
1000.2302	2737.9022	1197	318.55
1000.3515	2739.1145	1193.6	316.05
1000.4728	2740.3262	1198.95	313.35
1000.594	2741.5372	1177.7	303.1
1000.7152	2742.7475	1170.4	290.1
1000.8363	2743.9571	1167.25	286.95
1000.9575	2745.1661	1169.4	286.6
1001.0785	2746.3744	1161.45	282.6
1001.1996	2747.582	1150.6	273.5
1001.3206	2748.7889	1149.5	268.45
1001.4415	2749.9952	1146.8	268.85
1001.5625	2751.2008	1142.8	263.15
1001.6833	2752.4057	1147.85	267.4
1001.8042	2753.61	1142.9	264.15
1001.925	2754.8136	1140.25	260.55
1002.0458	2756.0165	1137.45	259.1
1002.1665	2757.2188	1131.85	254.5
1002.2872	2758.4204	1135.55	258
1002.4078	2759.6213	1140.3	258.3
1002.5285	2760.8215	1143.65	261.6
1002.649	2762.0211	1139.65	259.3
1002.7696	2763.22	1145.4	265.1
1002.8901	2764.4182	1135.7	255.85
1003.0106	2765.6158	1142.2	264.9
1003.131	2766.8127	1138.85	262.6
1003.2514	2768.009	1129.6	251.15
1003.3717	2769.2045	1129.6	251.8
1003.492	2770.3994	1127.6	246.3
1003.6123	2771.5936	1130.3	250
1003.7325	2772.7872	1121.9	244.5
1003.8527	2773.9801	1123.3	243.55
1003.9729	2775.1723	1138.2	242.75
1004.093	2776.3639	1120.65	243.4
1004.2131	2777.5548	1119.05	238.8
1004.3331	2778.745	1122.5	244.5
1004.4531	2779.9346	1122.65	246.75
1004.5731	2781.1235	1129.3	248.55
1004.693	2782.3117	1126.15	249
1004.8129	2783.4992	1126.95	249.2
1004.9328	2784.6861	1121.8	244.15
1005.0526	2785.8723	1128.75	248.8
1005.1723	2787.0579	1124.85	246
1005.2921	2788.2428	1130.4	253.35
1005.4118	2789.427	1130.25	255.1
1005.5314	2790.6106	1140.85	263.4
1005.651	2791.7935	1139.05	261.65
1005.7706	2792.9757	1140.4	262.8
1005.8902	2794.1573	1143.4	262.35
1006.0097	2795.3382	1151.9	272.1
1006.1291	2796.5184	1156.55	280.4
1006.2485	2797.698	1157.2	275.9
1006.3679	2798.8769	1169.45	292.45
1006.4873	2800.0551	1170.5	292.45
1006.6066	2801.2327	1184.15	304.5
1006.7258	2802.4096	1183.7	307.3
1006.8451	2803.5859	1196.95	317.7
1006.9642	2804.7615	1200.45	323.45
1007.0834	2805.9364	1210.15	331.95
1007.2025	2807.1106	1226.15	347.35
1007.3216	2808.2842	1237.75	359.05
1007.4406	2809.4572	1245.2	369.3
1007.5596	2810.6294	1272.85	391.8
1007.6785	2811.801	1283.45	408.45
1007.7975	2812.972	1301.75	423.65
1007.9163	2814.1423	1323.25	446.9
1008.0352	2815.3119	1349.45	471.85
1008.154	2816.4808	1369.5	492.15
1008.2727	2817.6491	1410.65	532.6
1008.3914	2818.8167	1443.45	568.5
1008.5101	2819.9837	1481.35	600.05
1008.6288	2821.15	1499.65	621.95
1008.7474	2822.3157	1537.95	660.5
1008.8659	2823.4807	1575.85	698.4
1008.9844	2824.645	1612.75	735.05
1009.1029	2825.8086	1643.55	767.25
1009.2214	2826.9716	1676.65	798.5
1009.3398	2828.134	1710	833.15
1009.4581	2829.2957	1738	861.8
1009.5764	2830.4567	1761.75	886.45
1009.6947	2831.617	1775.5	899.5
1009.813	2832.7767	1786	907.25
1009.9312	2833.9358	1784.55	909.1
1010.0493	2835.0941	1786.35	907
1010.1675	2836.2519	1768.85	891.5
1010.2855	2837.4089	1745	867.3
1010.4036	2838.5653	1742.5	864.8
1010.5216	2839.7211	1736.55	857.8
1010.6396	2840.8761	1720.35	840.05
1010.7575	2842.0306	1734.15	857.15
1010.8754	2843.1843	1748.45	872.3
1010.9932	2844.3374	1772.25	894.6
1011.111	2845.4899	1792	913.8
1011.2288	2846.6417	1809.15	932.2
1011.3465	2847.7928	1843.85	968.7
1011.4642	2848.9433	1871.75	996.55
1011.5818	2850.0931	1915.75	1039.6
1011.6995	2851.2422	1945.6	1066.55
1011.817	2852.3907	1968.55	1094.4
1011.9345	2853.5385	2004.55	1125.7
1012.052	2854.6857	2052.95	1148.55
1012.1695	2855.8323	2061	1182.55
1012.2869	2856.9781	2083.15	1207.55
1012.4042	2858.1233	2114.1	1237.8
1012.5216	2859.2679	2137.65	1259.95
1012.6389	2860.4118	2172.95	1294.15
1012.7561	2861.555	2211.05	1329.9
1012.8733	2862.6976	2226.5	1348.55
1012.9905	2863.8395	2260.35	1385.3
1013.1076	2864.9808	2264.35	1387.3
1013.2247	2866.1214	2291.15	1413.95
1013.3417	2867.2614	2288.95	1411.4
1013.4587	2868.4007	2297.15	1418.25
1013.5757	2869.5393	2311.4	1432.4
1013.6926	2870.6773	2310.4	1427.4
1013.8095	2871.8146	2315.3	1435.75
1013.9263	2872.9513	2324.85	1446.55
1014.0431	2874.0874	2307.55	1433.15
1014.1599	2875.2227	2310.9	1433.05
1014.2766	2876.3574	2295.35	1419.35
1014.3933	2877.4915	2287	1411.5
1014.51	2878.6249	2269.55	1393.25
1014.6266	2879.7577	2269	1391.4
1014.7431	2880.8898	2262.35	1375.4
1014.8596	2882.0212	2243.1	1368.8
1014.9761	2883.152	2234.55	1356.95
1015.0925	2884.2821	2228.25	1353.25
1015.2089	2885.4116	2227.6	1350.85
1015.3253	2886.5405	2224.95	1350.55
1015.4416	2887.6686	2246.25	1367.65
1015.5579	2888.7962	2242.5	1370.55
1015.6741	2889.923	2247.8	1372.8
1015.7903	2891.0493	2243.6	1367.2
1015.9065	2892.1748	2245.15	1368.35
1016.0226	2893.2997	2260.7	1382.1
1016.1387	2894.424	2275.85	1401.4
1016.2547	2895.5476	2273.3	1394.9
1016.3707	2896.6706	2291.4	1416.35
1016.4866	2897.7929	2311.05	1434.35
1016.6025	2898.9145	2318.55	1442.55
1016.7184	2900.0355	2325.5	1449.2
1016.8342	2901.1559	2349	1473.55
1016.95	2902.2756	2373.2	1496.5
1017.0658	2903.3946	2376.2	1499.9
1017.1815	2904.513	2386.2	1506.2
1017.2971	2905.6308	2409.15	1532.8
1017.4127	2906.7479	2422.25	1547.25
1017.5283	2907.8643	2426.75	1549.05
1017.6439	2908.9801	2438.6	1561.6
1017.7594	2910.0953	2436.65	1559.1
1017.8748	2911.2098	2448.7	1570.2
1017.9902	2912.3236	2442.95	1558.1
1018.1056	2913.4368	2436.75	1558.05
1018.2209	2914.5494	2418.3	1541.5
1018.3362	2915.6613	2396.45	1513.1
1018.4515	2916.7725	2380.85	1499.65
1018.5667	2917.8831	2369.6	1491.3
1018.6819	2918.9931	2351	1470.9
1018.797	2920.1024	2335.3	1458.45
1018.9121	2921.211	2319.45	1443.65
1019.0271	2922.319	2313.5	1436.65
1019.1421	2923.4264	2311.85	1437.4
1019.2571	2924.5331	2309.1	1432.2
1019.372	2925.6391	2296.1	1421.2
1019.4869	2926.7445	2298.7	1425.15
1019.6017	2927.8493	2309.35	1429.7
1019.7165	2928.9534	2312.6	1435
1019.8313	2930.0569	2314.8	1435
1019.946	2931.1597	2317.4	1440.1
1020.0606	2932.2619	2320.25	1444.8
1020.1753	2933.3634	2317.4	1441
1020.2899	2934.4643	2331.05	1447.9
1020.4044	2935.5645	2322.25	1440.6
1020.5189	2936.6641	2329.6	1448.7
1020.6334	2937.763	2290.9	1413.2
1020.7478	2938.8613	2286.3	1408.7
1020.8622	2939.959	2259.85	1379.25
1020.9765	2941.056	2217.5	1342.5
1021.0908	2942.1523	2193	1315.6
1021.2051	2943.248	2139.6	1263.6
1021.3193	2944.3431	2097.55	1220.55
1021.4334	2945.4375	2032.55	1157.6
1021.5476	2946.5313	1984.05	1109.55
1021.6617	2947.6244	1931.15	1054.2
1021.7757	2948.7169	1877.3	1000.55
1021.8897	2949.8087	1832.3	954.8
1022.0037	2950.8999	1768.65	894.25
1022.1176	2951.9904	1727	850.05
1022.2315	2953.0803	1690	812.45
1022.3453	2954.1696	1654.7	778.2
1022.4591	2955.2582	1620.35	743.15
1022.5728	2956.3462	1600.15	724.9
1022.6865	2957.4335	1581.95	706.25
1022.8002	2958.5202	1558	679.45
1022.9138	2959.6062	1540.75	666.35
1023.0274	2960.6916	1534.15	656.05
1023.141	2961.7764	1521.45	645.35
1023.2545	2962.8605	1514.95	639.05
1023.3679	2963.9439	1507.9	633.25
1023.4813	2965.0267	1501.9	625.1
1023.5947	2966.1089	1516.9	617.15
1023.708	2967.1905	1484.55	609.15
1023.8213	2968.2714	1496.3	621.5
1023.9346	2969.3516	1485.05	610.7
1024.0478	2970.4312	1502.8	620.4
1024.1609	2971.5102	1498.25	621.1
1024.274	2972.5885	1493.25	617.75
1024.3871	2973.6662	1502.35	621.3
1024.5002	2974.7432	1501.2	625.1
1024.6132	2975.8196	1499.55	624.25
1024.7261	2976.8954	1499.2	623.65
1024.839	2977.9705	1501.55	626.9
1024.9519	2979.045	1484.8	609.5
1025.0647	2980.1188	1481.15	605.9
1025.1775	2981.192	1470.6	593.15
1025.2902	2982.2645	1465.35	588.6
1025.4029	2983.3364	1452.35	575.8
1025.5156	2984.4077	1425.2	550.15
1025.6282	2985.4783	1409.75	527.15
1025.7407	2986.5483	1400.35	527.2
1025.8532	2987.6177	1377.95	502.75
1025.9657	2988.6864	1361.6	485.25
1026.0782	2989.7545	1350.25	473.1
1026.1906	2990.8219	1327.25	451.1
1026.3029	2991.8887	1305	428.75
1026.4152	2992.9548	1288.6	413.35
1026.5275	2994.0204	1268.05	391.6
1026.6397	2995.0852	1247.45	372
1026.7519	2996.1495	1239.05	360.9
1026.864	2997.2131	1216.8	340.65
1026.9761	2998.276	1211.75	333.9
1027.0882	2999.3383	1194.9	317.2
1027.2002	3000.4	1186.15	309.85
1027.3122	3001.4611	1171.3	295.2
1027.4241	3002.5215	1161.4	284.9
1027.536	3003.5812	1150.15	274.35
1027.6478	3004.6404	1145	267.25
1027.7596	3005.6989	1137.1	259.85
1027.8714	3006.7567	1130.4	253.2
1027.9831	3007.8139	1149.3	243.25
1028.0947	3008.8705	1114.25	238.15
1028.2064	3009.9264	1112.3	231
1028.3179	3010.9818	1109.8	234.7
1028.4295	3012.0364	1103.8	228.6
1028.541	3013.0905	1096.75	220
1028.6524	3014.1439	1094.75	218.05
1028.7638	3015.1966	1087.9	214.35
1028.8752	3016.2487	1089	214.95
1028.9865	3017.3002	1088.55	205.7
1029.0978	3018.3511	1083.05	210.1
1029.209	3019.4013	1079.25	204.45
1029.3202	3020.4509	1081	203.2
1029.4314	3021.4998	1081.25	205.55
1029.5425	3022.5481	1078.95	202.15
1029.6535	3023.5958	1073.9	198.15
1029.7645	3024.6428	1074.25	198.25
1029.8755	3025.6892	1073.6	198.1
1029.9864	3026.735	1072.2	197.15
1030.0973	3027.7802	1068.4	192.1
1030.2082	3028.8247	1071.2	195.45
1030.319	3029.8685	1073.9	196.25
1030.4297	3030.9118	1075.55	199.2
1030.5404	3031.9544	1069.75	194.35
1030.6511	3032.9963	1073.15	196.85
1030.7617	3034.0376	1076.5	202.6
1030.8723	3035.0783	1079.05	203.7
1030.9829	3036.1184	1079.25	202.95
1031.0934	3037.1578	1077.8	202.4
1031.2038	3038.1966	1079.95	203.05
1031.3142	3039.2348	1076.7	202
1031.4246	3040.2723	1091.85	208.15
1031.5349	3041.3092	1084.65	209.95
1031.6452	3042.3455	1081.4	206.4
1031.7554	3043.3811	1081.05	202.75
1031.8656	3044.4161	1075.05	198.8
1031.9758	3045.4505	1083.4	208.9
1032.0859	3046.4842	1080.05	204.2
1032.1959	3047.5173	1075.7	201.65
1032.3059	3048.5498	1074.35	199.7
1032.4159	3049.5816	1073.85	198.25
1032.5258	3050.6128	1073.9	196.4
1032.6357	3051.6434	1076.3	199.05
1032.7455	3052.6734	1072.25	194.4
1032.8553	3053.7027	1069.2	194.7
1032.9651	3054.7314	1069.65	194.65
1033.0748	3055.7594	1067.65	192.25
1033.1845	3056.7868	1068.7	191.4
1033.2941	3057.8136	1071.85	195.35
1033.4037	3058.8398	1065.95	191.05
1033.5132	3059.8653	1065.5	190.45
1033.6227	3060.8902	1064.7	190.2
1033.7321	3061.9145	1063.6	188.55
1033.8415	3062.9381	1060.6	183.1
1033.9509	3063.9612	1077.8	185.55
1034.0602	3064.9835	1059.05	185.4
1034.1694	3066.0053	1061.4	183.1
1034.2787	3067.0264	1054.3	177.7
1034.3878	3068.0469	1056.3	178.65
1034.497	3069.0668	1053.8	175.65
1034.6061	3070.086	1050.15	174.7
1034.7151	3071.1046	1052.6	177.25
1034.8241	3072.1226	1045.15	166.25
1034.9331	3073.1399	1043.3	167.9
1035.042	3074.1567	1038.65	163.15
1035.1508	3075.1727	1038.4	160.25
1035.2597	3076.1882	1029.95	154.9
1035.3684	3077.203	1026	150.4
1035.4772	3078.2173	1027	151.25
1035.5859	3079.2308	1025.9	146.55
1035.6945	3080.2438	1024.7	147.05
1035.8031	3081.2561	1017.3	142.65
1035.9117	3082.2678	1010.8	135.8
1036.0202	3083.2789	1010.3	134.35
1036.1286	3084.2893	1003.8	128.75
1036.2371	3085.2991	1003.05	125.8
1036.3454	3086.3083	1002.55	123.15
1036.4538	3087.3169	997.7	121.05
1036.562	3088.3248	995.85	119.05
1036.6703	3089.3321	995.8	119.75
1036.7785	3090.3388	989.35	115
1036.8866	3091.3449	988.25	112.6
1036.9948	3092.3503	988.6	111.5
1037.1028	3093.3551	983.85	110
1037.2108	3094.3593	986.35	112.45
1037.3188	3095.3629	986.4	111.45
1037.4267	3096.3658	981.45	104.6
1037.5346	3097.3681	978.8	104.05
1037.6425	3098.3698	980.9	102.8
1037.7503	3099.3708	979.55	99.2
1037.858	3100.3713	973.7	99.85
1037.9657	3101.3711	974.8	96.1
1038.0734	3102.3702	1108.65	96.65
1038.181	3103.3688	969.3	90.5
1038.2886	3104.3667	967.7	94.15
1038.3961	3105.364	966.35	89.4
1038.5036	3106.3607	964.85	87.95
1038.611	3107.3568	964.45	88.6
1038.7184	3108.3522	961	86.3
1038.8257	3109.347	963.55	85.2
1038.933	3110.3412	968.65	89.2
1039.0403	3111.3348	960.3	83.55
1039.1475	3112.3277	960.15	85.95
1039.2547	3113.32	955.45	81.1
1039.3618	3114.3117	960.15	86.7
1039.4689	3115.3028	955.7	80.35
1039.5759	3116.2932	958.8	81.15
1039.6829	3117.2831	959.75	80.65
1039.7898	3118.2723	957.1	82.6
1039.8967	3119.2608	953.65	77.55
1040.0035	3120.2488	951.4	77.35
1040.1103	3121.2361	952.65	75.25
1040.2171	3122.2229	950.5	76.9
1040.3238	3123.209	952.1	75.9
1040.4305	3124.1944	946.65	71.45
1040.5371	3125.1793	944.15	67.7
1040.6437	3126.1635	943.05	67.7
1040.7502	3127.1471	945.35	72.65
1040.8567	3128.1301	942.35	68.45
1040.9631	3129.1125	943.9	70.85
1041.0695	3130.0942	944.55	70.15
1041.1759	3131.0753	951.4	67.5
1041.2822	3132.0558	947.1	67.9
1041.3884	3133.0357	940.45	65.15
1041.4946	3134.015	946	70
1041.6008	3134.9936	938.3	59.9
1041.7069	3135.9716	961.3	66.35
1041.813	3136.949	939.65	65.5
1041.919	3137.9258	954.6	60.8
1042.025	3138.902	946.1	65.45
1042.1309	3139.8775	938.95	64.3
1042.2368	3140.8524	935.65	58.8
1042.3427	3141.8267	938.85	61.45
1042.4485	3142.8004	935.15	58
1042.5542	3143.7735	943.6	61.85
1042.6599	3144.7459	936.45	60.25
1042.7656	3145.7178	933.15	56.2
1042.8712	3146.689	931.35	56.1
1042.9768	3147.6596	934.85	59.45
1043.0823	3148.6295	934	59.05
1043.1878	3149.5989	935.85	61.1
1043.2932	3150.5676	929.65	55.8
1043.3986	3151.5357	928.75	55.1
1043.5039	3152.5032	928.55	53.65
1043.6092	3153.4701	929.7	54.1
1043.7145	3154.4364	933.15	57.4
1043.8197	3155.402	927	52.95
1043.9248	3156.367	935.85	59.45
1044.03	3157.3315	966.6	53.35
1044.135	3158.2952	927.8	51.95
1044.24	3159.2584	928	51.8
1044.345	3160.221	927.05	49.8
1044.4499	3161.1829	928.8	52.8
1044.5548	3162.1442	926.8	53.05
1044.6596	3163.105	926.6	52.6
1044.7644	3164.065	927.85	52.75
1044.8692	3165.0245	929.2	52.5
1044.9739	3165.9834	922.35	45.65
1045.0785	3166.9416	924.8	48.6
1045.1831	3167.8993	926.4	51.4
1045.2877	3168.8563	923.65	49.55
1045.3922	3169.8127	923	48.9
1045.4966	3170.7684	923.7	48.05
1045.6011	3171.7236	923.9	46.3
1045.7054	3172.6782	923.7	47.7
1045.8098	3173.6321	924	48
1045.914	3174.5854	928	49.1
1046.0183	3175.5381	923.65	47.35
1046.1224	3176.4902	921.85	47.8
1046.2266	3177.4417	920.85	46.3
1046.3307	3178.3926	923.5	49
1046.4347	3179.3428	921	47.15
1046.5387	3180.2924	920.35	46.6
1046.6427	3181.2415	924.2	49.05
1046.7466	3182.1899	922.5	47.05
1046.8504	3183.1377	922.65	47.6
1046.9542	3184.0848	923.25	45.3
1047.058	3185.0314	919.65	46.9
1047.1617	3185.9773	919.95	44.2
1047.2654	3186.9227	921.5	44.95
1047.369	3187.8674	918.95	43.15
1047.4726	3188.8115	921.3	42.3
1047.5761	3189.755	917.05	42.8
1047.6796	3190.6979	918.35	43.9
1047.783	3191.6402	915.65	41.85
1047.8864	3192.5818	916.65	42.75
1047.9898	3193.5229	931.2	42.05
1048.0931	3194.4633	919.4	47.2
1048.1963	3195.4031	915.65	40.45
1048.2995	3196.3423	916.3	41.95
1048.4027	3197.2809	914.45	39.5
1048.5058	3198.2189	916.05	39.8
1048.6089	3199.1563	934	42.1
1048.7119	3200.0931	910.95	36.9
1048.8148	3201.0292	913.55	41.05
1048.9178	3201.9648	913.05	38.85
1049.0206	3202.8997	917.1	39.3
1049.1235	3203.834	911.4	35.75
1049.2262	3204.7677	911.45	38.4
1049.329	3205.7008	913.25	38.2
1049.4317	3206.6333	913.6	42.05
1049.5343	3207.5652	913.9	36.25
1049.6369	3208.4964	913.4	38.85
1049.7394	3209.4271	912.45	37.1
1049.8419	3210.3571	910.45	35.35
1049.9444	3211.2865	909.9	34
1050.0468	3212.2154	913.7	38.2
1050.1491	3213.1436	912.45	36.15
1050.2514	3214.0712	920.05	38.65
1050.3537	3214.9982	911.35	35.7
1050.4559	3215.9246	912	34.65
1050.5581	3216.8503	910.55	37.6
1050.6602	3217.7755	910.2	34.15
1050.7623	3218.7001	908.4	32.45
1050.8643	3219.624	909.7	33.75
1050.9663	3220.5473	912.85	38.55
1051.0682	3221.4701	911.1	35.8
1051.1701	3222.3922	912.75	35.6
1051.2719	3223.3137	911.6	36.05
1051.3737	3224.2346	907.7	32.25
1051.4754	3225.1549	906.8	33.35
1051.5771	3226.0746	908.15	34.1
1051.6788	3226.9937	908.75	33.6
1051.7804	3227.9121	906.95	34.05
1051.8819	3228.83	905.5	29.15
1051.9834	3229.7473	906.9	32.4
1052.0849	3230.6639	910.55	36.2
1052.1863	3231.5799	908.15	32.4
1052.2876	3232.4954	906.05	32.25
1052.3889	3233.4102	906.55	32.9
1052.4902	3234.3244	908.15	32.65
1052.5914	3235.238	906.35	32
1052.6926	3236.151	929.4	30.9
1052.7937	3237.0634	905.8	32.1
1052.8948	3237.9752	905.45	30.85
1052.9958	3238.8864	905.9	30.4
1053.0968	3239.797	906.8	31.5
1053.1977	3240.7069	907.1	31.05
1053.2986	3241.6163	904.85	28.3
1053.3994	3242.5251	902.45	29.55
1053.5002	3243.4332	903.25	30.45
1053.6009	3244.3408	904	30.9
1053.7016	3245.2477	903.4	27.45
1053.8022	3246.154	904.95	28.4
1053.9028	3247.0598	904.15	28.15
1054.0034	3247.9649	906.45	30.9
1054.1039	3248.8694	904.7	30.95
1054.2043	3249.7733	901	25.8
1054.3047	3250.6766	904.6	31.1
1054.4051	3251.5793	903.45	27.35
1054.5054	3252.4814	901.55	28.35
1054.6056	3253.3829	900.5	28.75
1054.7058	3254.2838	902.25	26.6
1054.806	3255.1841	900.9	26.65
1054.9061	3256.0838	902.35	28.55
1055.0061	3256.9829	900.2	26.2
1055.1062	3257.8814	902.6	26
1055.2061	3258.7792	901.4	27.4
1055.306	3259.6765	902.05	27.55
1055.4059	3260.5731	898.85	25.4
1055.5057	3261.4692	900.4	25.05
1055.6055	3262.3647	900.5	24.3
1055.7052	3263.2595	901	26.3
1055.8049	3264.1538	898.85	25.2
1055.9045	3265.0474	899.45	24.85
1056.0041	3265.9404	895.95	20.8
1056.1036	3266.8329	895.9	22.75
1056.2031	3267.7247	907.7	23.1
1056.3025	3268.616	892.9	18.8
1056.4019	3269.5066	895.8	20.4
1056.5013	3270.3966	894.55	18.9
1056.6005	3271.286	893.1	20.25
