Software Version:	3.9.2.0
Unit SN:	10000200
Spectrometer SN:	6960
Date:	3/8/2024 11:42:07 AM
Data Line Index:	25
Spectral Points:	2048
Integration time (ms):	125
Averages:	20
Delay (ms):	30000
Sequence Number:	1
Processing:	dark subtract
Laser Power (mW):	300
Laser Current (mA):	823
Laser Diode Temp (C):	25
Laser Case Temp (C):	25.2
System Temp (C):	25.2
Spectrometer Temp (C):	23.1
CCD Temp (C):	0
Secondary Temp (C):	20.01
Heatsink Temp (C):	19.769
CCDPCB Temp (C):	35.118
SecondaryPCB Temp (C):	27.481

Wavelength	RamanShift	Raw Counts	Dark Subtracted
787.061	30.1047	413.7	2.2
787.2016	32.3739	413.95	5.1
787.3422	34.6426	414.15	5.3
787.4828	36.9109	416.45	6.35
787.6235	39.1787	420.55	6.35
787.7642	41.4461	426.7	6.25
787.9049	43.7131	431.45	10.25
788.0456	45.9796	432.2	8.85
788.1863	48.2456	435.65	7.55
788.3271	50.5112	440.3	8.8
788.4679	52.7764	444.4	8.4
788.6087	55.0411	450.05	8.85
788.7496	57.3054	456.05	9
788.8904	59.5692	459.5	12.95
789.0313	61.8326	463.35	14.6
789.1722	64.0955	466.55	13.25
789.3132	66.3579	475.4	18.25
789.4541	68.6199	479.25	17.85
789.5951	70.8815	490.8	23.95
789.7361	73.1426	508.2	38.95
789.8771	75.4032	540.5	68.6
790.0181	77.6634	615.95	139.4
790.1592	79.9231	776.75	296.6
790.3003	82.1824	1139.15	649.7
790.4414	84.4412	1701	1199.85
790.5825	86.6995	2421.75	1903.65
790.7237	88.9574	3102.4	2573.45
790.8648	91.2148	3582.65	3044
791.006	93.4717	3772.25	3228.35
791.1472	95.7282	3777.05	3226.95
791.2885	97.9842	3778.1	3227.9
791.4297	100.2398	3709.35	3156.55
791.571	102.4949	3667.45	3113.35
791.7123	104.7495	3639.55	3076.55
791.8536	107.0036	3567.95	3006.55
791.9949	109.2573	3503.9	2945.7
792.1363	111.5105	3399.5	2837.4
792.2777	113.7632	3298.8	2733.55
792.4191	116.0154	3208.7	2631.3
792.5605	118.2672	3096	2524.3
792.7019	120.5185	2992.8	2421.55
792.8434	122.7693	2894.1	2319.1
792.9849	125.0197	2815.7	2234.95
793.1264	127.2696	2736.4	2152.9
793.2679	129.519	2697.1	2111.5
793.4094	131.7679	2667.3	2079.8
793.551	134.0163	2642.2	2050.45
793.6926	136.2642	2632.6	2040.3
793.8342	138.5117	2645.9	2047.5
793.9758	140.7587	2600.9	2003.45
794.1175	143.0052	2551.05	1949.25
794.2591	145.2512	2490.3	1890.45
794.4008	147.4967	2458.15	1856.75
794.5425	149.7417	2404.45	1795.8
794.6842	151.9863	2402.55	1790.75
794.826	154.2304	2375.2	1760.5
794.9677	156.4739	2382.35	1760.25
795.1095	158.717	2391.4	1773.45
795.2513	160.9596	2405.95	1781.75
795.3931	163.2017	2430.35	1802.6
795.535	165.4433	2440	1812.15
795.6768	167.6844	2435.3	1803.65
795.8187	169.925	2407.2	1773.9
795.9606	172.1651	2353.8	1716.75
796.1025	174.4047	2306.35	1666.4
796.2445	176.6439	2269.65	1626.65
796.3864	178.8825	2231.95	1586.1
796.5284	181.1206	2223	1573
796.6704	183.3582	2218.45	1565.95
796.8124	185.5954	2205.85	1553.75
796.9544	187.832	2209.4	1553.15
797.0965	190.0681	2212.15	1552.15
797.2386	192.3037	2214.5	1548.2
797.3806	194.5388	2222.5	1555.65
797.5228	196.7734	2233.4	1565
797.6649	199.0075	2244.45	1575.9
797.807	201.2411	2267.05	1595.45
797.9492	203.4742	2292.3	1618.9
798.0914	205.7068	2316.75	1635.8
798.2336	207.9389	2337.55	1656.3
798.3758	210.1704	2341.6	1670.95
798.518	212.4015	2342.85	1683.55
798.6603	214.632	2345.3	1692.1
798.8025	216.862	2346.75	1691.15
798.9448	219.0915	2354.3	1697.2
799.0871	221.3205	2367.75	1707.5
799.2294	223.549	2370.5	1715.8
799.3718	225.777	2383.65	1725.55
799.5141	228.0044	2370.85	1703.5
799.6565	230.2314	2360.3	1696.25
799.7989	232.4578	2364.2	1693.95
799.9413	234.6837	2331.6	1652.15
800.0837	236.909	2334.35	1652.5
800.2262	239.1339	2333.45	1629.65
800.3687	241.3582	2325.85	1635.25
800.5111	243.582	2351.95	1631.95
800.6536	245.8053	2348.6	1643.1
800.7961	248.0281	2350.3	1649.2
800.9387	250.2503	2355.4	1649.25
801.0812	252.472	2369.65	1665.1
801.2238	254.6932	2379.7	1672.3
801.3664	256.9139	2378.35	1671.05
801.509	259.134	2394.45	1681.85
801.6516	261.3536	2420.35	1711.65
801.7942	263.5727	2463.9	1752.15
801.9369	265.7912	2508.1	1794.9
802.0795	268.0092	2557.5	1844.4
802.2222	270.2267	2616.9	1904.4
802.3649	272.4436	2665.05	1951.8
802.5076	274.6601	2704.1	1977.35
802.6504	276.8759	2729.4	2008.35
802.7931	279.0913	2754.45	2033.15
802.9359	281.3061	2762.7	2042
803.0787	283.5204	2780.5	2055.05
803.2215	285.7341	2818.2	2087.85
803.3643	287.9473	2838.55	2108.6
803.5071	290.16	2824.7	2091.95
803.6499	292.3721	2796.5	2069.4
803.7928	294.5837	2772.85	2046.05
803.9357	296.7947	2737.85	2011.05
804.0786	299.0052	2726.1	1998.2
804.2215	301.2152	2710.8	1979.4
804.3644	303.4246	2691.2	1964.6
804.5074	305.6334	2676.55	1947.9
804.6503	307.8418	2658.25	1925.15
804.7933	310.0495	2623.3	1886.55
804.9363	312.2568	2583.95	1848.4
805.0793	314.4635	2548.35	1812.95
805.2223	316.6696	2492.25	1755.1
805.3653	318.8752	2446.75	1700.5
805.5084	321.0802	2422.1	1682.95
805.6514	323.2847	2409.2	1662.85
805.7945	325.4887	2425.6	1682.7
805.9376	327.692	2436.4	1692.05
806.0807	329.8949	2479.8	1733.15
806.2238	332.0972	2510.15	1761.95
806.367	334.2989	2545.95	1795.3
806.5101	336.5001	2553.3	1805.05
806.6533	338.7007	2510.15	1758.45
806.7965	340.9008	2467.4	1713.95
806.9397	343.1003	2408.7	1650.7
807.0829	345.2992	2370.6	1617.85
807.2261	347.4976	2326.8	1567.75
807.3693	349.6955	2311.1	1549.95
807.5126	351.8927	2282.15	1519.1
807.6559	354.0895	2277.55	1502.95
807.7991	356.2856	2254.1	1488.15
807.9424	358.4812	2239.25	1474.6
808.0857	360.6763	2237.1	1469.3
808.2291	362.8707	2234.45	1464.75
808.3724	365.0646	2248.6	1476
808.5158	367.258	2248.3	1474.3
808.6591	369.4508	2274.55	1495.95
808.8025	371.643	2303.6	1527.05
808.9459	373.8346	2327.65	1549.05
809.0893	376.0257	2354.35	1572.5
809.2327	378.2162	2388.35	1609.75
809.3762	380.4062	2390.4	1611.7
809.5196	382.5956	2362.55	1582.65
809.6631	384.7844	2324.35	1549.5
809.8066	386.9726	2277.95	1500.85
809.9501	389.1603	2259.8	1489.55
810.0936	391.3474	2258.95	1454.25
810.2371	393.5339	2243.3	1470.25
810.3806	395.7199	2255.35	1483.5
810.5241	397.9052	2278.05	1505.35
810.6677	400.09	2319.15	1546.1
810.8113	402.2743	2360.75	1586.95
810.9548	404.4579	2406.5	1631.05
811.0984	406.641	2457.7	1681.8
811.2421	408.8235	2506	1726.3
811.3857	411.0054	2539.7	1758.5
811.5293	413.1868	2601.9	1818.1
811.673	415.3675	2661.9	1873
811.8166	417.5477	2646.4	1857.8
811.9603	419.7273	2574.8	1780.75
812.104	421.9064	2502.5	1704.4
812.2477	424.0848	2440.25	1646.3
812.3914	426.2627	2399.6	1604.85
812.5351	428.4399	2330.9	1535.55
812.6788	430.6166	2272.4	1470.35
812.8226	432.7928	2223.7	1426.15
812.9663	434.9683	2179.95	1381.35
813.1101	437.1432	2162.15	1363.45
813.2539	439.3176	2135.15	1338.35
813.3977	441.4914	2137.15	1339.9
813.5415	443.6645	2124.55	1325.75
813.6853	445.8371	2131.35	1332.4
813.8291	448.0091	2121.1	1321.2
813.973	450.1806	2122.7	1325.05
814.1168	452.3514	2116.6	1313.25
814.2607	454.5216	2135	1324.45
814.4046	456.6913	2123.55	1319.1
814.5485	458.8603	2130	1327.2
814.6924	461.0288	2132.3	1332.65
814.8363	463.1967	2115.35	1311.9
814.9802	465.3639	2121.1	1316.1
815.1241	467.5306	2120.15	1313.45
815.2681	469.6967	2108.15	1305.45
815.412	471.8622	2108.05	1303.5
815.556	474.0271	2096.95	1293.1
815.7	476.1914	2099.1	1289.5
815.844	478.3551	2100.45	1291.35
815.988	480.5182	2097.25	1290.35
816.132	482.6807	2101.35	1295.3
816.276	484.8426	2118.35	1314.45
816.4201	487.0039	2163.65	1358.05
816.5641	489.1647	2219.65	1410.55
816.7082	491.3248	2259.3	1449.65
816.8522	493.4843	2287.35	1481.2
816.9963	495.6432	2271.65	1461.45
817.1404	497.8015	2238.25	1424.15
817.2845	499.9592	2192.35	1376.5
817.4286	502.1163	2141.85	1325.85
817.5727	504.2728	2098.65	1283.45
817.7168	506.4287	2077.35	1267.4
817.861	508.5839	2059.05	1246.7
818.0051	510.7386	2050.4	1235.45
818.1493	512.8927	2063.4	1238.5
818.2935	515.0461	2072.1	1254
818.4377	517.199	2095.65	1276.7
818.5818	519.3512	2127.35	1310.6
818.726	521.5029	2198.05	1376.8
818.8703	523.6539	2259.3	1437.1
819.0145	525.8043	2259.75	1439.4
819.1587	527.9541	2207.8	1383.5
819.303	530.1033	2137	1312.95
819.4472	532.2519	2100.3	1280.15
819.5915	534.3999	2067.8	1240.85
819.7357	536.5472	2058.7	1237.1
819.88	538.694	2055.65	1235.65
820.0243	540.8401	2078.25	1255.25
820.1686	542.9856	2105.15	1276.05
820.3129	545.1305	2104.7	1273.05
820.4572	547.2748	2116	1285.7
820.6016	549.4185	2125.2	1291.25
820.7459	551.5615	2145.8	1316.45
820.8902	553.704	2156.55	1328
821.0346	555.8458	2172.15	1344.75
821.1789	557.987	2195	1367.6
821.3233	560.1276	2220.05	1388
821.4677	562.2675	2275.3	1446.65
821.6121	564.4069	2330.65	1499.85
821.7565	566.5456	2378.2	1548.3
821.9009	568.6837	2364.15	1533.25
822.0453	570.8212	2290.4	1460.45
822.1897	572.958	2208.05	1376.15
822.3342	575.0942	2155.85	1327
822.4786	577.2299	2126.65	1295.85
822.6231	579.3648	2096.15	1269.4
822.7675	581.4992	2072.3	1247.6
822.912	583.6329	2079.7	1255
823.0565	585.766	2118.5	1294.1
823.201	587.8985	2165.2	1337.2
823.3454	590.0304	2221.75	1376.75
823.4899	592.1616	2238.2	1400.65
823.6345	594.2922	2237.9	1402.4
823.779	596.4222	2193.6	1358.25
823.9235	598.5515	2138.8	1301.95
824.068	600.6802	2080.35	1242.25
824.2126	602.8083	2038.3	1202.2
824.3571	604.9358	2035.55	1197.5
824.5017	607.0626	2023.6	1186.15
824.6462	609.1888	2040.7	1197.65
824.7908	611.3144	2065.25	1223.7
824.9354	613.4393	2094.9	1255.1
825.08	615.5636	2159.45	1315.25
825.2246	617.6873	2199.05	1359.65
825.3692	619.8103	2235.55	1392.8
825.5138	621.9327	2219.95	1375.9
825.6584	624.0544	2200.1	1361.65
825.803	626.1756	2134.2	1295
825.9477	628.2961	2093.4	1251.95
826.0923	630.4159	2070.3	1228.1
826.237	632.5351	2059.45	1215.5
826.3816	634.6537	2055.75	1213.4
826.5263	636.7716	2041.1	1194.85
826.6709	638.8889	2036.7	1188.05
826.8156	641.0056	2047.85	1198.05
826.9603	643.1216	2047.75	1199.15
827.105	645.237	2046.65	1198.4
827.2497	647.3518	2034.55	1187.7
827.3944	649.4659	2010.75	1168.85
827.5391	651.5793	2000.5	1155.55
827.6838	653.6922	1973.15	1127.6
827.8285	655.8043	1960.75	1116.45
827.9733	657.9159	1964.85	1118
828.118	660.0268	1956.95	1107.2
828.2627	662.137	1947.65	1097.7
828.4075	664.2466	1948.55	1096.65
828.5522	666.3556	1945.15	1097.55
828.697	668.4639	1939.65	1086.55
828.8418	670.5716	1928.5	1082.25
828.9865	672.6786	1933.25	1082.35
829.1313	674.785	1924.3	1069.5
829.2761	676.8907	1904.45	1052.95
829.4209	678.9958	1908.25	1057.85
829.5657	681.1002	1910.05	1058.25
829.7105	683.204	1915.75	1057.15
829.8553	685.3072	1918.55	1062.85
830.0001	687.4097	1912.7	1060.35
830.1449	689.5115	1915.8	1059.7
830.2898	691.6127	1909.75	1056.25
830.4346	693.7132	1904.4	1053.4
830.5794	695.8131	1927.3	1051.8
830.7243	697.9123	1911.65	1055.7
830.8691	700.0109	1915.75	1059.7
831.014	702.1089	1926.3	1070.8
831.1588	704.2061	1943.3	1089.35
831.3037	706.3028	1963.35	1106
831.4486	708.3987	1982.95	1126
831.5935	710.4941	1995.5	1137.8
831.7383	712.5887	2003.1	1144.1
831.8832	714.6827	2009.05	1147.5
832.0281	716.7761	2004.9	1150.3
832.173	718.8688	1988.4	1130.75
832.3179	720.9608	1990.25	1127.85
832.4628	723.0522	2008.65	1146.35
832.6077	725.1429	2030.05	1170.8
832.7527	727.233	2074.35	1214.7
832.8976	729.3224	2144.45	1284.5
833.0425	731.4112	2180.35	1321.75
833.1874	733.4993	2200.85	1339.3
833.3324	735.5867	2140.6	1278.45
833.4773	737.6735	2062	1199.8
833.6222	739.7596	2016.6	1154.45
833.7672	741.845	1986.3	1124.5
833.9122	743.9298	1982.15	1117.85
834.0571	746.014	1977.95	1116.15
834.2021	748.0974	1997.1	1133.75
834.347	750.1802	2000.25	1134.55
834.492	752.2624	1985.85	1122.5
834.637	754.3439	1982.7	1115.95
834.782	756.4247	1985	1112.05
834.9269	758.5048	1974.75	1109.6
835.0719	760.5843	1983.75	1116.45
835.2169	762.6631	2039.9	1173.2
835.3619	764.7413	2073.55	1206.5
835.5069	766.8188	2178.25	1309.95
835.6519	768.8956	2255.75	1389.15
835.7969	770.9718	2318.35	1455.8
835.9419	773.0473	2303	1437.45
836.0869	775.1221	2263.75	1396.05
836.232	777.1962	2251.95	1385.5
836.377	779.2697	2312.1	1444.75
836.522	781.3426	2418.5	1534.5
836.667	783.4147	2478.1	1609.8
836.8121	785.4862	2457.5	1591.05
836.9571	787.557	2359.8	1490
837.1021	789.6271	2232.4	1361.65
837.2472	791.6966	2112.85	1245.85
837.3922	793.7654	2015.55	1146.25
837.5373	795.8335	1960.2	1091.7
837.6823	797.901	1937.85	1070.85
837.8274	799.9678	1928.4	1057.3
837.9724	802.0339	1936.8	1071.45
838.1175	804.0993	1941.35	1065.25
838.2626	806.1641	1926.55	1056.4
838.4076	808.2282	1903.35	1037.45
838.5527	810.2916	1884.7	1012.4
838.6978	812.3544	1861.6	995.6
838.8428	814.4164	1869.6	1000.65
838.9879	816.4778	1874.15	1002.55
839.133	818.5385	1888.8	1018.3
839.2781	820.5986	1915.25	1043.45
839.4232	822.658	1967	1094.15
839.5682	824.7166	2023.15	1153.95
839.7133	826.7747	2118.5	1248.45
839.8584	828.832	2211.1	1340.7
840.0035	830.8886	2273.45	1400.15
840.1486	832.9446	2284.7	1409.5
840.2937	834.9999	2244.15	1372.15
840.4388	837.0545	2180.45	1305.95
840.5839	839.1085	2094.05	1221.75
840.729	841.1618	2020.35	1143.9
840.8741	843.2143	1964.15	1092.35
841.0192	845.2662	1935.05	1060.5
841.1643	847.3175	1911.9	1038.55
841.3095	849.368	1900.85	1027.4
841.4546	851.4179	1902.65	1026.85
841.5997	853.467	1892.55	1020.05
841.7448	855.5155	1914.5	1041.55
841.8899	857.5633	1905.55	1032
842.0351	859.6105	1907.15	1031.95
842.1802	861.6569	1896.8	1023.95
842.3253	863.7027	1873.55	995.5
842.4704	865.7478	1865.75	991.8
842.6156	867.7922	1852.75	979.7
842.7607	869.8359	1857.8	982.25
842.9058	871.8789	1844.55	967.35
843.0509	873.9212	1882.15	973.95
843.1961	875.9629	1850.7	975.1
843.3412	878.0039	1857	980.6
843.4863	880.0441	1875.45	1000
843.6315	882.0837	1899.9	1026.35
843.7766	884.1226	1930.3	1051.1
843.9218	886.1609	1955.7	1079.3
844.0669	888.1984	2005.2	1129.25
844.212	890.2352	2038.75	1164.5
844.3572	892.2714	2069.75	1189.55
844.5023	894.3069	2032.15	1151.1
844.6475	896.3416	1982.7	1104.65
844.7926	898.3757	1927.85	1049.85
844.9377	900.4091	1912.75	1032.55
845.0829	902.4418	1922	1038.75
845.228	904.4739	1939.35	1058.8
845.3732	906.5052	1951.05	1072.2
845.5183	908.5358	1946.55	1067.1
845.6635	910.5658	1932.6	1053.3
845.8086	912.595	1881.45	1001.3
845.9538	914.6236	1848.5	972.25
846.0989	916.6515	1818.7	940.5
846.2441	918.6786	1806.2	926.6
846.3892	920.7051	1804.3	920.95
846.5344	922.7309	1805.55	924.9
846.6795	924.756	1808.35	928.75
846.8246	926.7804	1807.8	926.8
846.9698	928.8041	1822.45	942.65
847.1149	930.8272	1837.85	958.1
847.2601	932.8495	1838.9	957.7
847.4052	934.8711	1851.95	970.35
847.5504	936.892	1850.4	968.85
847.6955	938.9123	1885.45	1001.05
847.8407	940.9318	1904.7	1022.55
847.9858	942.9506	1916.85	1036.35
848.131	944.9688	1906	1023.45
848.2761	946.9862	1884.1	1000.9
848.4213	949.003	1844.2	961.05
848.5664	951.019	1814.45	931.5
848.7115	953.0344	1809.85	930.2
848.8567	955.0491	1792.65	910.05
849.0018	957.063	1788.6	905
849.147	959.0763	1789.9	908.95
849.2921	961.0888	1786.3	900.15
849.4373	963.1007	1777	896.35
849.5824	965.1119	1770.45	890.1
849.7275	967.1223	1771	893.6
849.8727	969.1321	1766.65	891.1
850.0178	971.1412	1758.2	877.85
850.1629	973.1495	1756.1	875.25
850.3081	975.1572	1781.1	866.75
850.4532	977.1641	1755.65	873.4
850.5983	979.1704	1756.3	872.8
850.7435	981.1759	1753.35	867.35
850.8886	983.1808	1750.9	868.35
851.0337	985.1849	1752.1	860.4
851.1788	987.1884	1741.85	856
851.324	989.1911	1751.85	866.85
851.4691	991.1932	1750.55	865.8
851.6142	993.1945	1749.85	868.15
851.7593	995.1951	1752.45	867.55
851.9045	997.1951	1753.25	863.75
852.0496	999.1943	1745.65	861.3
852.1947	1001.1928	1746.6	861.5
852.3398	1003.1906	1758.9	874.15
852.4849	1005.1877	1780.3	896.7
852.63	1007.1841	1805.9	922.95
852.7751	1009.1798	1816.95	935.65
852.9202	1011.1748	1799.45	912.5
853.0653	1013.1691	1786.4	902.6
853.2104	1015.1627	1748.4	862.15
853.3555	1017.1556	1714.6	829.3
853.5006	1019.1477	1707.15	823.3
853.6457	1021.1392	1691.55	810.05
853.7908	1023.1299	1675.7	795.25
853.9359	1025.12	1672.9	792.7
854.081	1027.1093	1689.9	814.9
854.2261	1029.0979	1704.3	831
854.3712	1031.0859	1716.85	838.55
854.5163	1033.0731	1739.5	857.3
854.6613	1035.0596	1745.85	868.15
854.8064	1037.0454	1723.95	838.85
854.9515	1039.0304	1706.85	823.55
855.0965	1041.0148	1694.2	807.45
855.2416	1042.9985	1672.95	786.2
855.3867	1044.9814	1665.8	782.9
855.5317	1046.9636	1667.75	779.75
855.6768	1048.9452	1673.25	789.6
855.8219	1050.926	1699	814.8
855.9669	1052.9061	1699.6	815.2
856.112	1054.8855	1707.3	824.9
856.257	1056.8642	1703.35	816.95
856.4021	1058.8421	1708.55	818.9
856.5471	1060.8194	1691	803.85
856.6921	1062.7959	1703.05	814.2
856.8372	1064.7717	1704.5	819
856.9822	1066.7469	1696.15	807.45
857.1272	1068.7213	1712.4	823.85
857.2723	1070.695	1723.65	839.15
857.4173	1072.6679	1736.8	850.9
857.5623	1074.6402	1760.3	873.75
857.7073	1076.6117	1760.75	868.35
857.8523	1078.5826	1748	863.3
857.9973	1080.5527	1709.05	819.65
858.1423	1082.5221	1672.3	787.1
858.2873	1084.4908	1650.75	765.6
858.4323	1086.4587	1633.85	745.6
858.5773	1088.426	1632.4	745.4
858.7223	1090.3925	1633.05	741.3
858.8673	1092.3584	1633.15	743.2
859.0123	1094.3235	1641.7	755.3
859.1573	1096.2879	1661.95	775.55
859.3022	1098.2515	1680.5	795.8
859.4472	1100.2145	1713.3	827.1
859.5922	1102.1767	1746.05	855.85
859.7371	1104.1382	1786.05	902.9
859.8821	1106.099	1847.5	958.7
860.027	1108.0591	1888.4	1004.75
860.172	1110.0185	1929.55	1039.75
860.3169	1111.9771	1965.05	1077
860.4619	1113.9351	2017.35	1130.65
860.6068	1115.8923	2071.05	1182.5
860.7517	1117.8488	2089.1	1198.45
860.8967	1119.8045	2038.95	1152.35
861.0416	1121.7596	1942.1	1052.25
861.1865	1123.7139	1856.5	973.25
861.3314	1125.6675	1795.8	909.4
861.4763	1127.6204	1793.1	906.8
861.6212	1129.5726	1823.6	934.05
861.7661	1131.524	1815.3	929.05
861.911	1133.4748	1782.1	895.3
862.0559	1135.4248	1713.4	825.7
862.2008	1137.3741	1668.7	783.85
862.3457	1139.3226	1649.3	760.55
862.4905	1141.2705	1655.45	768.65
862.6354	1143.2176	1658.85	766.55
862.7803	1145.164	1665.5	776.2
862.9251	1147.1097	1651	763.75
863.07	1149.0546	1641.05	753.55
863.2148	1150.9989	1619.75	733
863.3597	1152.9424	1597.1	708.65
863.5045	1154.8852	1584.6	697.3
863.6493	1156.8272	1569.3	681
863.7942	1158.7686	1585.65	689.15
863.939	1160.7092	1578.1	687.05
864.0838	1162.6491	1579.55	686.45
864.2286	1164.5883	1594.35	707.65
864.3734	1166.5267	1617.1	728.75
864.5182	1168.4644	1639.5	752.65
864.663	1170.4014	1677.15	783.7
864.8078	1172.3377	1699.6	811.85
864.9526	1174.2732	1765.15	876.3
865.0974	1176.2081	1853.75	964.5
865.2421	1178.1421	1962.8	1069.9
865.3869	1180.0755	2087.25	1199.95
865.5317	1182.0082	2135.3	1250.05
865.6764	1183.9401	2104.5	1217.25
865.8212	1185.8713	1998.1	1111.9
865.9659	1187.8017	1876.65	990.45
866.1106	1189.7315	1779.75	897.7
866.2554	1191.6605	1731.6	822.35
866.4001	1193.5888	1672.55	788.6
866.5448	1195.5163	1646.9	761.1
866.6895	1197.4432	1617.15	727.05
866.8342	1199.3693	1607.7	718.45
866.9789	1201.2947	1597.05	708.3
867.1236	1203.2193	1580.35	690.55
867.2683	1205.1432	1589.05	701.1
867.413	1207.0664	1580.2	693.15
867.5576	1208.9889	1580.7	689.5
867.7023	1210.9106	1589.95	700.45
867.847	1212.8316	1590.8	703.65
867.9916	1214.7519	1609.95	710.45
868.1363	1216.6715	1605.25	718.3
868.2809	1218.5903	1616.1	728.45
868.4255	1220.5084	1636.15	748.4
868.5701	1222.4257	1659.4	771.35
868.7148	1224.3424	1661.15	776.15
868.8594	1226.2583	1682.2	790.25
869.004	1228.1735	1710.7	822.2
869.1486	1230.0879	1749	857.65
869.2932	1232.0016	1793.4	903.9
869.4377	1233.9146	1833.25	944
869.5823	1235.8269	1843.3	953
869.7269	1237.7384	1855.2	967.3
869.8715	1239.6492	1843.05	955.1
870.016	1241.5592	1873.7	985.45
870.1606	1243.4686	1910.65	1020.25
870.3051	1245.3772	1984.25	1094.25
870.4496	1247.285	2077.7	1189.3
870.5941	1249.1922	2154.4	1262.9
870.7387	1251.0986	2221.55	1330.65
870.8832	1253.0042	2293.75	1404.5
871.0277	1254.9092	2369.45	1480.7
871.1722	1256.8134	2461.15	1573.4
871.3167	1258.7169	2516.95	1626.05
871.4611	1260.6196	2545.8	1658
871.6056	1262.5216	2563.85	1674.65
871.7501	1264.4229	2525.7	1637.15
871.8945	1266.3234	2500	1611.45
872.039	1268.2232	2465	1573.85
872.1834	1270.1223	2412.9	1522.05
872.3278	1272.0207	2382.5	1491.25
872.4723	1273.9183	2357.55	1461.45
872.6167	1275.8151	2366.85	1478.55
872.7611	1277.7113	2412.25	1521.45
872.9055	1279.6067	2485.95	1596.05
873.0499	1281.5014	2619.05	1726.65
873.1943	1283.3953	2796.85	1904.55
873.3386	1285.2885	2965.2	2075.95
873.483	1287.181	3087.55	2196.25
873.6274	1289.0727	3139.7	2250.55
873.7717	1290.9637	3087.2	2197
873.9161	1292.854	2996.65	2105.85
874.0604	1294.7435	2887.05	1997
874.2047	1296.6323	2794.75	1904.3
874.349	1298.5204	2699.25	1808.45
874.4933	1300.4077	2641.75	1750.05
874.6376	1302.2943	2594.75	1703.65
874.7819	1304.1802	2559.7	1670
874.9262	1306.0653	2521.35	1630.45
875.0705	1307.9497	2488.2	1594.55
875.2147	1309.8333	2448.75	1558.1
875.359	1311.7162	2411.75	1519.55
875.5032	1313.5984	2390	1497.7
875.6475	1315.4798	2380.35	1471
875.7917	1317.3605	2346	1451.3
875.9359	1319.2405	2342.45	1446.7
876.0801	1321.1197	2325.85	1433
876.2243	1322.9982	2264.9	1374.1
876.3685	1324.876	2189	1300.45
876.5127	1326.753	2095.3	1204.4
876.6569	1328.6293	2023.8	1131
876.801	1330.5048	1947.2	1054.25
876.9452	1332.3796	1873.55	985.85
877.0893	1334.2537	1847.95	933.25
877.2335	1336.127	1788.85	900.05
877.3776	1337.9996	1762.55	873.05
877.5217	1339.8714	1748.45	858
877.6658	1341.7426	1769.6	836.2
877.8099	1343.6129	1728.1	836.25
877.954	1345.4826	1699.35	806.1
878.0981	1347.3515	1696.05	801.8
878.2422	1349.2196	1675.25	781.8
878.3862	1351.087	1671.85	783.25
878.5303	1352.9537	1661.15	767.7
878.6743	1354.8197	1670.25	779.25
878.8184	1356.6849	1681.15	789.25
878.9624	1358.5493	1690.35	798.45
879.1064	1360.4131	1723.6	832.4
879.2504	1362.276	1762.8	874.55
879.3944	1364.1383	1790.25	898.9
879.5384	1365.9998	1804.1	907.95
879.6823	1367.8606	1787.55	894.75
879.8263	1369.7206	1780.05	889.1
879.9702	1371.5799	1778.4	884.3
880.1142	1373.4384	1770.45	878.1
880.2581	1375.2962	1740	848.75
880.402	1377.1533	1692	798.7
880.5459	1379.0096	1646	756.5
880.6898	1380.8652	1605.15	714.2
880.8337	1382.7201	1592.1	703.95
880.9776	1384.5742	1559.85	671.15
881.1215	1386.4275	1542.2	650.65
881.2653	1388.2802	1525.35	634.65
881.4092	1390.132	1515.9	625.8
881.553	1391.9832	1505.25	615.4
881.6968	1393.8336	1500.7	607.85
881.8406	1395.6832	1498.1	603.55
881.9844	1397.5322	1483.75	592.2
882.1282	1399.3803	1479.8	583.2
882.272	1401.2278	1462.45	571.85
882.4158	1403.0745	1453.85	563.15
882.5595	1404.9204	1452.95	562.05
882.7033	1406.7656	1452.15	560.3
882.847	1408.6101	1446	553.15
882.9908	1410.4538	1439.65	548.5
883.1345	1412.2968	1449.55	559.4
883.2782	1414.139	1445.75	553.65
883.4219	1415.9805	1456.9	569.35
883.5656	1417.8213	1468.05	572.8
883.7092	1419.6613	1478.8	588.15
883.8529	1421.5006	1507.95	616.25
883.9965	1423.3391	1542.6	650.6
884.1402	1425.1769	1582.1	690
884.2838	1427.0139	1658	766.65
884.4274	1428.8502	1737.85	845.35
884.571	1430.6858	1811.65	919.55
884.7146	1432.5206	1830	938.85
884.8582	1434.3547	1821.7	931.35
885.0018	1436.188	1803.4	913.5
885.1453	1438.0206	1787.15	894.7
885.2889	1439.8524	1772.95	882.75
885.4324	1441.6835	1784.5	893.85
885.5759	1443.5139	1783.35	890.5
885.7194	1445.3435	1783.05	892.5
885.8629	1447.1724	1772.6	880.65
886.0064	1449.0005	1784.45	893.9
886.1499	1450.8279	1776.15	884.05
886.2933	1452.6545	1759.65	868.55
886.4368	1454.4804	1771.5	884.85
886.5802	1456.3056	1769.55	868
886.7237	1458.13	1737.15	847.2
886.8671	1459.9536	1715.1	824.25
887.0105	1461.7766	1675.75	786
887.1539	1463.5987	1642.2	751
887.2972	1465.4202	1609.25	718.1
887.4406	1467.2409	1571.6	681.4
887.584	1469.0608	1539.55	650.4
887.7273	1470.88	1499.85	606.35
887.8706	1472.6984	1490.35	600.3
888.0139	1474.5161	1469.45	577.4
888.1572	1476.3331	1457.05	567.85
888.3005	1478.1493	1454.2	564
888.4438	1479.9648	1443.25	550.7
888.5871	1481.7795	1444.55	554.4
888.7303	1483.5935	1442.9	552.8
888.8736	1485.4067	1443.2	552.15
889.0168	1487.2192	1442.15	551.75
889.16	1489.031	1443.2	549.75
889.3032	1490.842	1443.2	551.5
889.4464	1492.6522	1433.15	543.6
889.5896	1494.4618	1434.2	542.6
889.7327	1496.2705	1428.2	538.95
889.8759	1498.0785	1426.9	534.25
890.019	1499.8858	1416.4	524.65
890.1622	1501.6924	1411.95	523.55
890.3053	1503.4981	1406.95	518.15
890.4484	1505.3032	1400	508.3
890.5914	1507.1075	1396.25	505.4
890.7345	1508.911	1387.95	498.5
890.8776	1510.7138	1384.95	494.5
891.0206	1512.5159	1378.1	488
891.1637	1514.3172	1373.35	482.7
891.3067	1516.1178	1352.95	463.05
891.4497	1517.9176	1362.5	469.3
891.5927	1519.7166	1358.75	467.95
891.7357	1521.515	1360.35	464.2
891.8786	1523.3126	1344.45	454.35
892.0216	1525.1094	1344.85	453.1
892.1645	1526.9055	1337.35	445.85
892.3074	1528.7008	1335.1	444.95
892.4503	1530.4954	1337.05	440
892.5932	1532.2893	1325.55	436.65
892.7361	1534.0824	1331.95	438.75
892.879	1535.8747	1327.4	437.6
893.0218	1537.6663	1327.35	438.5
893.1647	1539.4572	1321.6	429.45
893.3075	1541.2473	1331.45	443.75
893.4503	1543.0367	1320.4	429.7
893.5931	1544.8253	1330.5	436.85
893.7359	1546.6132	1335.8	443.1
893.8787	1548.4003	1334.9	433.9
894.0214	1550.1867	1348.3	449.5
894.1642	1551.9723	1356	462.35
894.3069	1553.7572	1370.75	480.6
894.4496	1555.5414	1374.9	487.85
894.5923	1557.3247	1406.7	517.1
894.735	1559.1074	1442.05	556.05
894.8777	1560.8893	1468.6	583.45
895.0204	1562.6705	1503.55	615.8
895.163	1564.4509	1530.9	644.4
895.3056	1566.2305	1541.4	654.95
895.4482	1568.0094	1534.3	645.75
895.5908	1569.7876	1540.55	654
895.7334	1571.565	1536.6	649.3
895.876	1573.3417	1533.55	646.95
896.0186	1575.1176	1535.2	648.3
896.1611	1576.8928	1554.7	667.3
896.3036	1578.6672	1559.25	676.55
896.4461	1580.4409	1584.4	699.3
896.5886	1582.2138	1621.45	730.7
896.7311	1583.986	1656.55	767.95
896.8736	1585.7575	1686.25	797.25
897.0161	1587.5282	1719.65	835.45
897.1585	1589.2981	1735.75	851
897.3009	1591.0673	1752.15	867.65
897.4433	1592.8358	1753.9	869.95
897.5857	1594.6035	1761.95	873.8
897.7281	1596.3704	1752.35	865.55
897.8705	1598.1366	1730.95	841.55
898.0128	1599.9021	1715.7	830.65
898.1551	1601.6668	1702.6	813.5
898.2975	1603.4308	1685.3	796.45
898.4398	1605.194	1699.9	810.5
898.5821	1606.9564	1720.8	837.05
898.7243	1608.7182	1777.55	889.8
898.8666	1610.4791	1847.55	965.1
899.0088	1612.2394	1930.35	1048.1
899.1511	1613.9988	2014.75	1130.2
899.2933	1615.7576	2086.7	1200.9
899.4355	1617.5156	2102.1	1209.45
899.5776	1619.2728	2065.95	1179
899.7198	1621.0293	1970.7	1084.65
899.862	1622.785	1884.9	999.15
900.0041	1624.54	1773.5	886.7
900.1462	1626.2942	1667.9	784.6
900.2883	1628.0477	1583.1	696.25
900.4304	1629.8005	1517.1	627.55
900.5725	1631.5525	1452.8	567.75
900.7145	1633.3037	1406.05	520.75
900.8566	1635.0542	1376.4	494.75
900.9986	1636.804	1349.5	460.9
901.1406	1638.553	1423.7	428.65
901.2826	1640.3013	1305.05	420.4
901.4245	1642.0488	1288.4	400.2
901.5665	1643.7955	1271.55	389.35
901.7085	1645.5416	1264.8	383.55
901.8504	1647.2868	1260.75	376.5
901.9923	1649.0313	1248	362.7
902.1342	1650.7751	1248.1	358.65
902.2761	1652.5181	1246.05	362.35
902.4179	1654.2604	1247.55	362.95
902.5598	1656.0019	1243.9	358.75
902.7016	1657.7427	1258.85	374.15
902.8434	1659.4828	1285.35	400.6
902.9852	1661.222	1307.3	420.85
903.127	1662.9606	1338.6	454.05
903.2687	1664.6984	1358.05	471.1
903.4105	1666.4354	1357.3	469.9
903.5522	1668.1717	1347.45	461.2
903.6939	1669.9072	1299.85	412.65
903.8356	1671.642	1261	371.15
903.9773	1673.3761	1235.65	351.1
904.119	1675.1094	1204.95	320.35
904.2606	1676.8419	1192.9	310
904.4022	1678.5737	1178.85	291.85
904.5439	1680.3048	1169.35	283.1
904.6855	1682.0351	1160.35	276.6
904.827	1683.7646	1157.2	266.35
904.9686	1685.4934	1149.6	264
905.1101	1687.2215	1155.3	270.7
905.2517	1688.9488	1141.95	256.85
905.3932	1690.6754	1136.9	249.55
905.5347	1692.4012	1136.7	251.65
905.6761	1694.1263	1138.2	253.35
905.8176	1695.8506	1137.05	249.15
905.9591	1697.5742	1131	245.65
906.1005	1699.297	1127.15	242.9
906.2419	1701.0191	1129	245.15
906.3833	1702.7404	1124.75	240.15
906.5246	1704.461	1123.1	236.15
906.666	1706.1808	1127.35	240.5
906.8073	1707.8999	1117.2	230.65
906.9487	1709.6182	1117.65	234.9
907.09	1711.3358	1113.7	229.7
907.2313	1713.0527	1108.2	227.1
907.3725	1714.7688	1112.65	222.35
907.5138	1716.4841	1111.65	225.3
907.655	1718.1987	1116.6	225.55
907.7962	1719.9126	1104.2	218.9
907.9374	1721.6257	1106.35	219.55
908.0786	1723.338	1109.7	226
908.2198	1725.0496	1105.5	220.45
908.3609	1726.7605	1109.45	225.65
908.502	1728.4706	1108.35	224.15
908.6431	1730.18	1107.4	221.3
908.7842	1731.8886	1099.9	216.5
908.9253	1733.5964	1122	217.05
909.0664	1735.3036	1104.75	216.55
909.2074	1737.0099	1099.45	214.8
909.3484	1738.7156	1099.3	217.1
909.4894	1740.4204	1103.35	217.45
909.6304	1742.1246	1098.5	211.85
909.7714	1743.8279	1099.45	216.2
909.9123	1745.5306	1097.45	211.85
910.0532	1747.2325	1096.55	212.05
910.1941	1748.9336	1094.9	209.35
910.335	1750.634	1092.65	204.55
910.4759	1752.3336	1094.85	210.5
910.6168	1754.0325	1092.55	209.8
910.7576	1755.7307	1092.8	208.8
910.8984	1757.4281	1092.95	211
911.0392	1759.1247	1099.2	203.75
911.18	1760.8206	1099.2	209.45
911.3208	1762.5158	1095.95	206.6
911.4615	1764.2102	1088.75	203.65
911.6022	1765.9039	1085.6	201.9
911.7429	1767.5968	1088.55	203.5
911.8836	1769.289	1086.35	202.95
912.0243	1770.9804	1088.5	202.4
912.1649	1772.6711	1091.35	201.95
912.3056	1774.361	1086.5	201.05
912.4462	1776.0502	1090.45	206.4
912.5868	1777.7386	1090.8	205.65
912.7274	1779.4263	1086.4	201.45
912.8679	1781.1132	1086.4	201.2
913.0084	1782.7994	1086	199.05
913.149	1784.4849	1082.2	200.8
913.2895	1786.1696	1097.8	194.15
913.4299	1787.8535	1081.5	200.2
913.5704	1789.5367	1080.9	198.45
913.7108	1791.2192	1078.1	196.2
913.8513	1792.9009	1108	197.6
913.9917	1794.5818	1080.2	193.7
914.132	1796.2621	1076.05	193.2
914.2724	1797.9415	1077.6	190.7
914.4128	1799.6202	1080.4	195.95
914.5531	1801.2982	1079.85	193.65
914.6934	1802.9755	1079.35	193.9
914.8337	1804.6519	1076.65	190.35
914.9739	1806.3277	1076.25	192
915.1142	1808.0027	1069.9	186.55
915.2544	1809.6769	1070.1	188.6
915.3946	1811.3504	1073.45	187.7
915.5348	1813.0231	1074.8	192.45
915.675	1814.6951	1072.2	190
915.8151	1816.3664	1074.9	188.35
915.9553	1818.0369	1068.4	185.3
916.0954	1819.7067	1069.2	185.3
916.2355	1821.3757	1070.2	185.3
916.3755	1823.044	1072.65	185.45
916.5156	1824.7115	1066	182.35
916.6556	1826.3783	1065.95	184.05
916.7956	1828.0443	1069.85	184.3
916.9356	1829.7096	1070.6	186.4
917.0756	1831.3741	1074.55	186.65
917.2155	1833.0379	1063.8	180.1
917.3555	1834.701	1063.15	178.45
917.4954	1836.3633	1063.8	179
917.6353	1838.0248	1062.7	178.05
917.7751	1839.6856	1062.8	179.55
917.915	1841.3457	1061.6	178.45
918.0548	1843.005	1066.6	182
918.1946	1844.6636	1065.4	182.15
918.3344	1846.3214	1062.15	179.15
918.4742	1847.9785	1061	177.95
918.6139	1849.6349	1058.65	172
918.7537	1851.2904	1070.55	175.4
918.8934	1852.9453	1063.7	175.95
919.0331	1854.5994	1065.6	179.4
919.1727	1856.2528	1063	172.9
919.3124	1857.9054	1057.4	171.7
919.452	1859.5572	1058.9	176.2
919.5916	1861.2083	1061.35	177.75
919.7312	1862.8587	1059.3	172.7
919.8708	1864.5084	1060.25	175.65
920.0103	1866.1572	1056.35	171.75
920.1498	1867.8054	1061.6	174.9
920.2893	1869.4528	1058.6	172.3
920.4288	1871.0994	1057.55	171.25
920.5683	1872.7453	1057.8	172.65
920.7077	1874.3905	1058.85	166
920.8471	1876.0349	1051.3	165.65
920.9865	1877.6786	1055.95	171
921.1259	1879.3215	1057.8	174.9
921.2653	1880.9637	1052.15	168.9
921.4046	1882.6051	1053.25	171.45
921.5439	1884.2458	1055.7	168.6
921.6832	1885.8858	1048.25	162.85
921.8225	1887.525	1052.2	165
921.9617	1889.1634	1054.65	171.15
922.101	1890.8011	1049.9	162.55
922.2402	1892.4381	1047.8	162.65
922.3794	1894.0743	1048.95	163.25
922.5185	1895.7098	1049.45	165
922.6577	1897.3446	1049.65	163.35
922.7968	1898.9786	1048.85	158.65
922.9359	1900.6118	1044.1	161.1
923.075	1902.2443	1048.75	165.1
923.214	1903.8761	1046	162.2
923.3531	1905.5071	1049.9	165.7
923.4921	1907.1374	1048.15	164.05
923.6311	1908.7669	1047.3	163
923.77	1910.3957	1043.4	160.6
923.909	1912.0237	1044.6	160.8
924.0479	1913.651	1046.35	160.8
924.1868	1915.2776	1039.85	156.65
924.3257	1916.9034	1044	161.15
924.4646	1918.5285	1039.55	158
924.6034	1920.1528	1043.15	159.05
924.7422	1921.7764	1042.85	158.6
924.881	1923.3992	1038.3	153.7
925.0198	1925.0213	1036.5	150
925.1586	1926.6427	1037.6	154.5
925.2973	1928.2633	1251.65	154.1
925.436	1929.8832	1045.1	158.15
925.5747	1931.5023	1038.15	154.25
925.7134	1933.1207	1034.3	147.75
925.852	1934.7383	1038.85	154.55
925.9906	1936.3552	1036	153.65
926.1292	1937.9714	1037.15	150.6
926.2678	1939.5868	1033.8	148.25
926.4064	1941.2015	1037.35	152.05
926.5449	1942.8154	1031.4	147.85
926.6834	1944.4286	1033.4	149.45
926.8219	1946.041	1056.9	147.65
926.9604	1947.6528	1039.25	150.55
927.0988	1949.2637	1031.45	147.6
927.2372	1950.8739	1030.2	145.7
927.3756	1952.4834	1031.7	147.65
927.514	1954.0921	1034.85	151.9
927.6523	1955.7001	1030.05	142.5
927.7907	1957.3074	1032.5	150.1
927.929	1958.9139	1028	146.8
928.0673	1960.5197	1028.65	144.15
928.2055	1962.1247	1028.8	147.1
928.3438	1963.729	1030	149.2
928.482	1965.3325	1035	145.75
928.6202	1966.9353	1024.95	143.35
928.7584	1968.5374	1028.25	145.1
928.8965	1970.1387	1024.85	141.5
929.0346	1971.7393	1022.8	138.9
929.1727	1973.3392	1025.85	142.75
929.3108	1974.9383	1022.8	140.85
929.4489	1976.5366	1025.25	143.25
929.5869	1978.1342	1023.1	140.85
929.7249	1979.7311	1027.85	145.35
929.8629	1981.3273	1022.85	140.85
930.0009	1982.9227	1020.2	139.6
930.1388	1984.5173	1020.15	139.85
930.2767	1986.1112	1018.35	137
930.4146	1987.7044	1024.7	144.75
930.5525	1989.2968	1022.8	138.3
930.6904	1990.8885	1023.85	141.55
930.8282	1992.4795	1020.95	138
930.966	1994.0697	1014.9	133.7
931.1038	1995.6592	1021.1	138.55
931.2415	1997.2479	1020.75	138.95
931.3793	1998.8359	1016.2	133.9
931.517	2000.4232	1015.45	136
931.6547	2002.0097	1012.9	135.15
931.7923	2003.5955	1016.85	138.3
931.93	2005.1805	1018.3	136.45
932.0676	2006.7648	1018.65	137.4
932.2052	2008.3484	1018.15	135.85
932.3427	2009.9312	1020	138.85
932.4803	2011.5133	1013.8	136.85
932.6178	2013.0946	1009.6	130.9
932.7553	2014.6752	1010.05	131.05
932.8928	2016.2551	1017.5	136.9
933.0302	2017.8342	1012.05	133.5
933.1676	2019.4126	1013.05	134.05
933.305	2020.9902	1010.55	134.65
933.4424	2022.5672	1017.2	137.85
933.5798	2024.1433	1017.6	135.05
933.7171	2025.7188	1009.15	133.05
933.8544	2027.2935	1011.95	130.85
933.9917	2028.8674	1009.9	132.6
934.129	2030.4406	1009.2	131.5
934.2662	2032.0131	1010	132.3
934.4034	2033.5849	1016.8	131.45
934.5406	2035.1559	1010.75	132.65
934.6778	2036.7261	1011.15	133.35
934.8149	2038.2957	1012.05	131.15
934.952	2039.8645	1010.9	132.8
935.0891	2041.4325	1018	134
935.2262	2042.9998	1008.55	129.45
935.3632	2044.5664	1010.2	129.5
935.5002	2046.1323	1009.35	129.6
935.6372	2047.6974	1008.3	130.65
935.7742	2049.2617	1009.05	131.8
935.9111	2050.8254	1034.95	132.3
936.048	2052.3883	1010.05	129.7
936.1849	2053.9504	1013.35	133.35
936.3218	2055.5118	1013.2	131.6
936.4586	2057.0725	1011.65	128.5
936.5955	2058.6325	1008.4	129.05
936.7323	2060.1917	1005.6	127.2
936.869	2061.7502	1009.3	129.55
937.0058	2063.3079	1009.4	131.95
937.1425	2064.8649	1011.95	132.2
937.2792	2066.4212	1007.95	128.35
937.4159	2067.9767	1005.6	128.6
937.5525	2069.5315	1008.75	128.3
937.6891	2071.0856	1010.85	132.5
937.8257	2072.6389	1008.95	130.4
937.9623	2074.1915	1006.5	129.6
938.0989	2075.7433	1008.05	127.05
938.2354	2077.2945	1009.7	131.65
938.3719	2078.8448	1003.85	123.8
938.5084	2080.3945	1008.6	129.85
938.6448	2081.9434	1006.2	128.15
938.7812	2083.4916	1006.65	126.5
938.9176	2085.039	1008.9	126.45
939.054	2086.5857	1009.65	126.35
939.1903	2088.1317	1008.7	127.2
939.3267	2089.677	1006.1	124.95
939.463	2091.2215	1004.8	122.5
939.5992	2092.7652	1010.55	125.25
939.7355	2094.3083	1007.1	125
939.8717	2095.8506	1003.3	122.9
940.0079	2097.3921	1001.6	121
940.1441	2098.933	1008.45	129.65
940.2802	2100.4731	1007.55	126.75
940.4163	2102.0124	1022.95	123.4
940.5524	2103.5511	1005.45	124.4
940.6885	2105.089	1007.85	126
940.8245	2106.6261	1009.35	130.5
940.9606	2108.1626	1005.2	124.5
941.0965	2109.6983	1033.65	125.85
941.2325	2111.2332	1008.6	127.3
941.3684	2112.7675	1007.45	123.2
941.5044	2114.301	1008.35	125.3
941.6403	2115.8337	1006	125.65
941.7761	2117.3657	1007.9	129.25
941.912	2118.897	1008.15	127.55
942.0478	2120.4276	1012.2	123
942.1835	2121.9575	1004.1	123
942.3193	2123.4866	1017.15	123.7
942.455	2125.0149	1007.9	124.45
942.5907	2126.5426	1001.7	121.55
942.7264	2128.0695	1005.6	122.35
942.8621	2129.5956	998.3	120.05
942.9977	2131.1211	1003.9	120.95
943.1333	2132.6458	1003.55	126.05
943.2689	2134.1698	1000.85	119.2
943.4044	2135.693	1010.35	126.65
943.54	2137.2155	1008.2	125.3
943.6755	2138.7373	1000.45	118.85
943.8109	2140.2584	1001.05	122.6
943.9464	2141.7787	1001.95	115.85
944.0818	2143.2983	998.7	120.55
944.2172	2144.8171	996.55	118.95
944.3526	2146.3353	1002.55	119.8
944.4879	2147.8527	999.6	121.5
944.6232	2149.3693	1005.2	125.05
944.7585	2150.8853	1001.55	122.05
944.8938	2152.4005	1000.3	119.4
945.029	2153.9149	1000.35	119.55
945.1642	2155.4287	1001.25	120.45
945.2994	2156.9417	1006.6	126.2
945.4346	2158.454	998.3	115.4
945.5697	2159.9655	999.35	121.05
945.7048	2161.4764	1000.25	120.4
945.8399	2162.9865	995.4	115.35
945.9749	2164.4958	997.45	116.2
946.1099	2166.0045	1002	118.8
946.2449	2167.5124	1000.1	121.4
946.3799	2169.0195	998.25	119
946.5148	2170.526	1001.75	120.4
946.6498	2172.0317	996.3	115
946.7846	2173.5367	1000	118.6
946.9195	2175.0409	995.95	116.45
947.0543	2176.5445	998.6	117.8
947.1891	2178.0473	999.45	118.9
947.3239	2179.5494	1003.15	118.1
947.4587	2181.0507	995.8	117.2
947.5934	2182.5513	999.35	117
947.7281	2184.0512	998.7	117.75
947.8628	2185.5504	995.7	116.55
947.9974	2187.0488	992.75	113.2
948.132	2188.5465	994.2	116.95
948.2666	2190.0435	996.2	114.5
948.4012	2191.5397	995.15	114.75
948.5357	2193.0353	995.85	115.1
948.6702	2194.5301	998.85	116.05
948.8047	2196.0241	996.7	115.05
948.9392	2197.5175	993.45	113.05
949.0736	2199.0101	996.95	116.35
949.208	2200.502	991.55	110.95
949.3424	2201.9931	989.3	110.95
949.4767	2203.4835	995.2	113.05
949.611	2204.9733	1011.7	116.05
949.7453	2206.4622	990.85	112.2
949.8796	2207.9505	992.15	112.4
950.0138	2209.438	986.95	108.65
950.148	2210.9248	992.6	113.55
950.2822	2212.4109	991.25	109.8
950.4164	2213.8962	994.45	110.5
950.5505	2215.3809	993.5	110.25
950.6846	2216.8648	995.15	114.25
950.8186	2218.3479	994.7	106.9
950.9527	2219.8304	993.5	107.8
951.0867	2221.3121	995.1	110.4
951.2207	2222.7931	991.85	111.65
951.3546	2224.2733	988.05	107.35
951.4886	2225.7529	989	108.25
951.6225	2227.2317	989.35	107.2
951.7563	2228.7098	985	105.75
951.8902	2230.1872	986.6	105.8
952.024	2231.6638	983.9	104.8
952.1578	2233.1397	992.2	107.1
952.2916	2234.6149	986.75	107.95
952.4253	2236.0894	987.15	106.55
952.559	2237.5632	996.95	107.35
952.6927	2239.0362	986.15	107.85
952.8263	2240.5085	985.85	106.6
952.9599	2241.9801	982.7	101.9
953.0935	2243.4509	984.8	103.95
953.2271	2244.921	984.45	103.4
953.3606	2246.3904	984.55	100.15
953.4941	2247.8591	985.95	105.95
953.6276	2249.3271	983.95	101.95
953.7611	2250.7943	985.6	103.95
953.8945	2252.2608	984.25	104.25
954.0279	2253.7266	980	99.05
954.1612	2255.1917	981.15	99.8
954.2946	2256.656	985.15	105.25
954.4279	2258.1197	980.95	102
954.5612	2259.5826	982.3	101.4
954.6944	2261.0447	983.55	102.1
954.8276	2262.5062	985.4	103.2
954.9608	2263.9669	981.55	99.25
955.094	2265.4269	982.85	103.35
955.2271	2266.8862	979	97.9
955.3602	2268.3448	983	103.9
955.4933	2269.8026	979.3	98.05
955.6264	2271.2598	979.1	101.25
955.7594	2272.7162	979.4	101.15
955.8924	2274.1719	981.7	99.95
956.0253	2275.6268	981.25	98.95
956.1583	2277.0811	976.95	97.05
956.2912	2278.5346	977.35	98.5
956.4241	2279.9874	978	98.1
956.5569	2281.4395	979.95	101.15
956.6897	2282.8908	984.9	100
956.8225	2284.3414	980.65	99.95
956.9553	2285.7914	979.3	100.15
957.088	2287.2406	980	97.1
957.2207	2288.689	978.8	99.65
957.3534	2290.1368	977.5	94
957.486	2291.5838	984.65	100.85
957.6186	2293.0302	982.8	99.55
957.7512	2294.4758	978.9	97.2
957.8838	2295.9206	981.25	97.6
958.0163	2297.3648	976.75	96.4
958.1488	2298.8082	980.35	98.9
958.2813	2300.251	976.2	95.45
958.4137	2301.693	980.3	95.25
958.5461	2303.1343	976.85	97.1
958.6785	2304.5748	975.9	96.15
958.8108	2306.0147	977.5	97.05
958.9432	2307.4538	977.1	93.8
959.0754	2308.8922	972.25	96.55
959.2077	2310.3299	971.75	92.75
959.3399	2311.7669	976.2	95.9
959.4721	2313.2031	976.2	95.3
959.6043	2314.6387	978.25	98.5
959.7365	2316.0735	977	95.55
959.8686	2317.5076	974.8	95.2
960.0006	2318.941	973.8	91.9
960.1327	2320.3737	975.95	93.5
960.2647	2321.8056	979.1	96.7
960.3967	2323.2369	980	99.75
960.5287	2324.6674	978.1	95.8
960.6606	2326.0972	983.35	99.35
960.7925	2327.5263	984.55	104.45
960.9244	2328.9547	984.45	104.05
961.0562	2330.3823	982.3	102.45
961.1881	2331.8092	980.5	94.85
961.3198	2333.2355	974.35	92.4
961.4516	2334.661	975.15	93.25
961.5833	2336.0858	972.1	89.45
961.715	2337.5098	972.6	92.05
961.8467	2338.9332	971.45	90.3
961.9783	2340.3558	978.2	94.55
962.1099	2341.7778	969.4	89.75
962.2415	2343.199	969.05	86.35
962.373	2344.6195	971.2	91
962.5045	2346.0393	968.15	89.3
962.636	2347.4583	972.8	89.75
962.7675	2348.8767	973.85	91.15
962.8989	2350.2943	973.25	91.45
963.0303	2351.7113	968.15	82.45
963.1617	2353.1275	971.4	89
963.293	2354.543	996.55	88.3
963.4243	2355.9578	971.85	92.05
963.5556	2357.3718	968.9	87.35
963.6868	2358.7852	972.6	87.85
963.818	2360.1978	968.65	89.25
963.9492	2361.6098	969.2	91.2
964.0803	2363.021	973.2	86.55
964.2114	2364.4315	968	87.4
964.3425	2365.8413	972.15	85.1
964.4736	2367.2504	963.25	82.4
964.6046	2368.6587	965.5	84.4
964.7356	2370.0664	965.75	84
964.8666	2371.4733	966.65	83.95
964.9975	2372.8795	970	89.25
965.1284	2374.285	971.3	91.05
965.2593	2375.6899	966.45	86.1
965.3901	2377.0939	964.75	82.7
965.5209	2378.4973	966.1	85.8
965.6517	2379.9	965.55	82.2
965.7825	2381.3019	960.65	79.6
965.9132	2382.7032	965.3	85.25
966.0439	2384.1037	960.75	80.9
966.1745	2385.5035	963.6	81.25
966.3051	2386.9027	965.1	83.7
966.4357	2388.3011	969.6	85.3
966.5663	2389.6987	964.45	83.1
966.6968	2391.0957	964.15	81.7
966.8273	2392.492	963	82.85
966.9578	2393.8876	963.25	80.85
967.0882	2395.2824	965.75	83.5
967.2186	2396.6765	961.6	81.9
967.349	2398.07	962.4	78.2
967.4793	2399.4627	962.7	78.45
967.6097	2400.8547	966.9	84.65
967.7399	2402.246	968	79.4
967.8702	2403.6366	960.4	79.95
968.0004	2405.0265	962.15	79.45
968.1306	2406.4156	966.75	79.55
968.2607	2407.8041	966.45	80.75
968.3909	2409.1918	962.95	79.05
968.521	2410.5789	960.85	78.2
968.651	2411.9652	961.95	76.15
968.781	2413.3508	962.55	79.95
968.911	2414.7358	960.65	77.9
969.041	2416.12	960.75	78.95
969.1709	2417.5035	958.75	77.8
969.3008	2418.8863	960.55	77.05
969.4307	2420.2684	959.15	78.55
969.5606	2421.6497	961.15	77.4
969.6904	2423.0304	957.85	77.4
969.8201	2424.4104	960.5	77.6
969.9499	2425.7896	964.25	75.5
970.0796	2427.1682	960.65	77.6
970.2093	2428.546	957.05	74.3
970.3389	2429.9232	957.95	73.6
970.4685	2431.2996	957.05	74.85
970.5981	2432.6753	956.45	73.05
970.7277	2434.0503	956.65	74.95
970.8572	2435.4246	956.6	74.95
970.9867	2436.7982	959.6	73.05
971.1161	2438.1711	955.75	73.5
971.2456	2439.5433	958.4	74.15
971.375	2440.9148	956.45	71.3
971.5043	2442.2856	954.7	75.2
971.6336	2443.6557	954.25	68.95
971.7629	2445.025	953.15	70.85
971.8922	2446.3937	959.55	78.35
972.0214	2447.7617	954.05	70.55
972.1506	2449.1289	958.4	77.95
972.2798	2450.4955	957.95	72.05
972.4089	2451.8613	950.9	71.25
972.538	2453.2265	954.95	74.15
972.6671	2454.5909	951.1	68
972.7961	2455.9546	954.1	73.85
972.9251	2457.3177	955.6	71.95
973.0541	2458.68	953.5	69.05
973.1831	2460.0416	955.95	74.25
973.312	2461.4025	953.35	70.2
973.4408	2462.7627	965.1	70.25
973.5697	2464.1222	953.1	73.05
973.6985	2465.4811	952	70.75
973.8273	2466.8392	950.45	68.9
973.956	2468.1966	956.2	71.05
974.0847	2469.5533	952.8	69.35
974.2134	2470.9093	954.95	73
974.3421	2472.2645	954.4	69.45
974.4707	2473.6191	955.55	75.1
974.5993	2474.973	952.1	68.65
974.7278	2476.3262	953.05	69.85
974.8563	2477.6787	949.9	67.8
974.9848	2479.0305	950.75	69.85
975.1132	2480.3816	953.8	71.9
975.2417	2481.7319	951.9	68.7
975.37	2483.0816	950.65	67.85
975.4984	2484.4306	952.1	69.3
975.6267	2485.7789	950.45	69.7
975.755	2487.1264	951.55	69.95
975.8833	2488.4733	949.75	68.9
976.0115	2489.8195	960.65	73
976.1397	2491.165	954.7	70.15
976.2678	2492.5097	947.9	63.35
976.3959	2493.8538	949.25	66.95
976.524	2495.1972	948.4	66.2
976.6521	2496.5398	954.2	71.65
976.7801	2497.8818	954.6	68.45
976.9081	2499.2231	946.2	64.45
977.036	2500.5637	948.8	64.95
977.164	2501.9035	949.55	66.95
977.2918	2503.2427	952.85	66.5
977.4197	2504.5812	950	68.05
977.5475	2505.919	951.1	66.85
977.6753	2507.256	950.05	68.4
977.8031	2508.5924	947.7	64.8
977.9308	2509.9281	954.5	67.35
978.0585	2511.2631	946	65.3
978.1861	2512.5974	945.3	64.05
978.3137	2513.9309	948.05	65.1
978.4413	2515.2638	970.65	62
978.5689	2516.596	948.7	67.2
978.6964	2517.9275	948.4	67.45
978.8239	2519.2583	947.5	63.95
978.9513	2520.5884	947.05	63.8
979.0788	2521.9178	944.35	63.7
979.2062	2523.2465	942	61.1
979.3335	2524.5745	944	63.1
979.4608	2525.9018	944.5	61.7
979.5881	2527.2284	946.05	67.25
979.7154	2528.5543	945.45	62.95
979.8426	2529.8796	946.3	64.5
979.9698	2531.2041	944.75	63.65
980.0969	2532.5279	942.2	61.75
980.224	2533.851	946.45	64.25
980.3511	2535.1735	941.1	62
980.4781	2536.4952	943.15	59
980.6052	2537.8163	944.15	63.05
980.7321	2539.1366	943.35	63.1
980.8591	2540.4562	945.15	62.6
980.986	2541.7752	941.95	60.7
981.1129	2543.0935	944	62.2
981.2397	2544.411	943.45	58.95
981.3665	2545.7279	943.3	60.7
981.4933	2547.0441	944.2	63.05
981.62	2548.3596	945.8	63
981.7467	2549.6744	938.15	56.3
981.8734	2550.9885	950.6	58.6
982.0001	2552.3019	943	62.55
982.1267	2553.6146	942.1	60.5
982.2532	2554.9266	940.25	57.6
982.3798	2556.2379	943.55	59.95
982.5063	2557.5485	942.1	61.5
982.6327	2558.8585	947.7	58.85
982.7592	2560.1677	943.75	59
982.8856	2561.4762	940.6	57.7
983.0119	2562.7841	944.15	61.7
983.1383	2564.0913	943.7	64.95
983.2646	2565.3977	940.35	58.8
983.3908	2566.7035	940.55	58.05
983.517	2568.0086	941.3	58.15
983.6432	2569.313	940.25	59.25
983.7694	2570.6167	945.1	59.15
983.8955	2571.9197	940.65	59.35
984.0216	2573.222	943.85	59.55
984.1476	2574.5236	939.65	56.75
984.2737	2575.8246	941.5	58.95
984.3996	2577.1248	942.8	58
984.5256	2578.4244	942.05	62.3
984.6515	2579.7232	938.95	56.9
984.7774	2581.0214	966.2	59.5
984.9032	2582.3189	938.35	56.95
985.029	2583.6157	942.5	56.4
985.1548	2584.9118	940.15	58.9
985.2806	2586.2072	942.45	61.1
985.4063	2587.5019	941.7	62.45
985.5319	2588.7959	939.4	57.8
985.6576	2590.0893	941.95	61.1
985.7832	2591.3819	940.3	61.35
985.9087	2592.6739	938.2	57.75
986.0343	2593.9652	940.4	58.5
986.1597	2595.2557	940.55	59.8
986.2852	2596.5456	944.05	63.1
986.4106	2597.8348	939.05	59.7
986.536	2599.1234	940.55	63.15
986.6614	2600.4112	940.25	59
986.7867	2601.6983	943.45	60
986.912	2602.9848	940.95	56.65
987.0372	2604.2705	945.3	55.45
987.1624	2605.5556	939.5	58.35
987.2876	2606.84	939.25	57.35
987.4128	2608.1237	938.95	57.55
987.5379	2609.4067	938.45	57.35
987.6629	2610.689	945.4	57.7
987.788	2611.9707	942.9	61.55
987.913	2613.2516	942.7	56.5
988.0379	2614.5319	938.35	58.05
988.1629	2615.8115	937.5	54.65
988.2878	2617.0903	938.05	56.55
988.4126	2618.3685	937.45	56.25
988.5375	2619.6461	937.8	56.05
988.6622	2620.9229	935.25	54.2
988.787	2622.199	936.05	56
988.9117	2623.4745	935.6	55.6
989.0364	2624.7493	933.2	54.85
989.161	2626.0234	931.25	52.65
989.2857	2627.2968	934.05	53.3
989.4102	2628.5695	934.4	52.55
989.5348	2629.8415	933.35	51.6
989.6593	2631.1128	936.4	52.85
989.7837	2632.3835	933.35	52.9
989.9082	2633.6535	935.15	55.75
990.0326	2634.9228	929	49.75
990.1569	2636.1914	936.5	56.7
990.2812	2637.4593	939.9	53.75
990.4055	2638.7265	932.65	50.95
990.5298	2639.9931	933.95	54.45
990.654	2641.259	933.25	51.6
990.7782	2642.5242	933.45	52.2
990.9023	2643.7887	933.55	50.9
991.0264	2645.0525	934.45	52.9
991.1505	2646.3156	933.05	50.6
991.2745	2647.5781	931.35	50.75
991.3985	2648.8398	932.6	52.65
991.5225	2650.1009	943.75	53.05
991.6464	2651.3613	931.3	50.25
991.7703	2652.6211	930.05	47.5
991.8942	2653.8801	928.7	50
992.018	2655.1385	934.7	50.5
992.1418	2656.3961	928.55	49.3
992.2655	2657.6531	927.9	47.6
992.3892	2658.9094	931.15	48.8
992.5129	2660.1651	930.25	51.85
992.6366	2661.42	927.95	46.95
992.7602	2662.6743	932.7	49.9
992.8837	2663.9279	928.4	48.65
993.0073	2665.1808	933.95	51.05
993.1307	2666.433	933.5	51
993.2542	2667.6846	930.25	49.95
993.3776	2668.9354	934.65	51.5
993.501	2670.1856	932.6	51.35
993.6244	2671.4351	931.8	52.7
993.7477	2672.6839	930.75	50.35
993.8709	2673.9321	928.85	48.25
993.9942	2675.1795	930.6	50.45
994.1174	2676.4263	932.3	53
994.2405	2677.6724	930.8	49.65
994.3637	2678.9179	931.95	50.8
994.4868	2680.1626	929.15	51
994.6098	2681.4067	931.65	51.3
994.7328	2682.6501	932.7	51.6
994.8558	2683.8928	927.85	46.65
994.9788	2685.1348	927.05	48
995.1017	2686.3761	929.9	48
995.2245	2687.6168	929.65	48.3
995.3474	2688.8568	926.95	46.35
995.4702	2690.0961	929.55	50.85
995.5929	2691.3348	928.5	48.7
995.7156	2692.5727	926.75	46.6
995.8383	2693.81	931.95	50.65
995.961	2695.0466	924.75	45.1
996.0836	2696.2826	929.15	46.75
996.2062	2697.5178	930.55	46.85
996.3287	2698.7524	929.05	48.2
996.4512	2699.9863	929	45.55
996.5737	2701.2195	925.75	46.5
996.6961	2702.452	928	46.55
996.8185	2703.6839	928.75	48.25
996.9408	2704.9151	928.35	50
997.0631	2706.1456	928.9	47.65
997.1854	2707.3755	932.95	52.8
997.3077	2708.6046	929.4	45.85
997.4299	2709.8331	929.75	50.4
997.552	2711.0609	929.25	49.35
997.6742	2712.2881	929.85	49.85
997.7963	2713.5145	934.15	52
997.9183	2714.7403	927.55	48.05
998.0403	2715.9654	929.95	48.7
998.1623	2717.1899	946.4	53.65
998.2842	2718.4136	932.85	51.9
998.4062	2719.6367	934.3	53.35
998.528	2720.8591	942.4	55.8
998.6498	2722.0809	938.2	57.5
998.7716	2723.3019	940.25	56.2
998.8934	2724.5223	937.2	56.45
999.0151	2725.7421	938.05	56.75
999.1368	2726.9611	939.9	57.5
999.2584	2728.1795	938.35	55.15
999.38	2729.3972	931.6	54.75
999.5016	2730.6142	940	52.4
999.6231	2731.8306	930.95	51.35
999.7446	2733.0462	931.75	49.25
999.8661	2734.2612	936.7	51.15
999.9875	2735.4756	930.35	49.25
1000.1089	2736.6892	926.65	46.1
1000.2302	2737.9022	926.55	48.85
1000.3515	2739.1145	925.55	47.05
1000.4728	2740.3262	933.45	46.95
1000.594	2741.5372	925.75	47.4
1000.7152	2742.7475	926.4	49.15
1000.8363	2743.9571	925.55	43.4
1000.9575	2745.1661	928.85	43.4
1001.0785	2746.3744	926.05	42
1001.1996	2747.582	921.7	42.85
1001.3206	2748.7889	922.2	40.2
1001.4415	2749.9952	922	42
1001.5625	2751.2008	918.05	37.6
1001.6833	2752.4057	922.7	40
1001.8042	2753.61	919.55	40.55
1001.925	2754.8136	923.5	41.1
1002.0458	2756.0165	920.45	41.75
1002.1665	2757.2188	918.4	39.45
1002.2872	2758.4204	919.6	39.7
1002.4078	2759.6213	923.85	41.15
1002.5285	2760.8215	927.15	43.2
1002.649	2762.0211	920.95	39.05
1002.7696	2763.22	921.9	38.6
1002.8901	2764.4182	921.5	41.05
1003.0106	2765.6158	921.3	41.4
1003.131	2766.8127	920.15	40.35
1003.2514	2768.009	917.55	36.05
1003.3717	2769.2045	920.9	39.3
1003.492	2770.3994	920.4	38.55
1003.6123	2771.5936	917.95	37.2
1003.7325	2772.7872	917.25	41.7
1003.8527	2773.9801	918.95	36.15
1003.9729	2775.1723	935.35	41.2
1004.093	2776.3639	916.15	36.95
1004.2131	2777.5548	917.95	36.1
1004.3331	2778.745	916.15	36.55
1004.4531	2779.9346	916.6	36.75
1004.5731	2781.1235	920.85	40.5
1004.693	2782.3117	914.45	36.4
1004.8129	2783.4992	915.95	36.7
1004.9328	2784.6861	916.2	34.85
1005.0526	2785.8723	916.95	38.05
1005.1723	2787.0579	915.65	36.6
1005.2921	2788.2428	918.1	39.15
1005.4118	2789.427	917.9	37.45
1005.5314	2790.6106	916	37.85
1005.651	2791.7935	916.4	36.9
1005.7706	2792.9757	912.15	33.95
1005.8902	2794.1573	916.8	36.6
1006.0097	2795.3382	917	37.7
1006.1291	2796.5184	917.05	37.9
1006.2485	2797.698	919.1	39
1006.3679	2798.8769	920.5	40.45
1006.4873	2800.0551	920.8	41.05
1006.6066	2801.2327	921.3	37.8
1006.7258	2802.4096	917.45	40.15
1006.8451	2803.5859	919.35	41.5
1006.9642	2804.7615	920.1	38.3
1007.0834	2805.9364	918	40.75
1007.2025	2807.1106	921.05	41
1007.3216	2808.2842	918.95	41
1007.4406	2809.4572	923.7	45.25
1007.5596	2810.6294	922.85	42.1
1007.6785	2811.801	923.8	47.2
1007.7975	2812.972	927.35	49.05
1007.9163	2814.1423	928.05	49.35
1008.0352	2815.3119	929.55	50.75
1008.154	2816.4808	929.3	48.3
1008.2727	2817.6491	932.95	52.9
1008.3914	2818.8167	934.95	55.5
1008.5101	2819.9837	950.65	67.1
1008.6288	2821.15	948.85	70.55
1008.7474	2822.3157	950.1	71.95
1008.8659	2823.4807	955.6	75.75
1008.9844	2824.645	965.3	85.9
1009.1029	2825.8086	971.15	92.15
1009.2214	2826.9716	974.55	96.6
1009.3398	2828.134	985.05	106.95
1009.4581	2829.2957	987.4	110.45
1009.5764	2830.4567	996.6	118.75
1009.6947	2831.617	998.85	118.65
1009.813	2832.7767	1003.25	125.7
1009.9312	2833.9358	1001.2	124.6
1010.0493	2835.0941	1001.2	120.6
1010.1675	2836.2519	996.95	118.85
1010.2855	2837.4089	999.5	119.15
1010.4036	2838.5653	990.75	112.6
1010.5216	2839.7211	985.45	108.1
1010.6396	2840.8761	984.95	103.25
1010.7575	2842.0306	982.7	105.25
1010.8754	2843.1843	983.9	102.6
1010.9932	2844.3374	984.45	106.05
1011.111	2845.4899	986.2	104.65
1011.2288	2846.6417	983.05	103.9
1011.3465	2847.7928	988.55	110.55
1011.4642	2848.9433	988.15	109.2
1011.5818	2850.0931	991.9	113.3
1011.6995	2851.2422	993.35	114
1011.817	2852.3907	995.3	114.05
1011.9345	2853.5385	993.8	114.45
1012.052	2854.6857	1024.55	120.35
1012.1695	2855.8323	1000.15	121.75
1012.2869	2856.9781	1000.7	121.5
1012.4042	2858.1233	1003.1	122.45
1012.5216	2859.2679	1003.7	124.05
1012.6389	2860.4118	1011.45	132.1
1012.7561	2861.555	1015.05	130.75
1012.8733	2862.6976	1013.95	134.75
1012.9905	2863.8395	1016.15	136.9
1013.1076	2864.9808	1019.25	141.4
1013.2247	2866.1214	1012.85	135.3
1013.3417	2867.2614	1019.8	140.9
1013.4587	2868.4007	1023.15	144.05
1013.5757	2869.5393	1024.6	142.2
1013.6926	2870.6773	1026.9	144.85
1013.8095	2871.8146	1030.55	147.45
1013.9263	2872.9513	1032.2	149.6
1014.0431	2874.0874	1029.3	151.35
1014.1599	2875.2227	1033.35	154.05
1014.2766	2876.3574	1030.3	150.8
1014.3933	2877.4915	1031.55	154.2
1014.51	2878.6249	1033.8	154.75
1014.6266	2879.7577	1040.25	162
1014.7431	2880.8898	1049.85	161.5
1014.8596	2882.0212	1040.7	163.25
1014.9761	2883.152	1044.7	164.9
1015.0925	2884.2821	1042.1	162.6
1015.2089	2885.4116	1049.15	171.95
1015.3253	2886.5405	1044.95	166.75
1015.4416	2887.6686	1049.25	165.85
1015.5579	2888.7962	1053.2	175.2
1015.6741	2889.923	1045.35	167.55
1015.7903	2891.0493	1048.75	171.75
1015.9065	2892.1748	1049.8	169.95
1016.0226	2893.2997	1048	168.9
1016.1387	2894.424	1047.65	169.75
1016.2547	2895.5476	1048.05	168.55
1016.3707	2896.6706	1047.95	171.95
1016.4866	2897.7929	1049.5	170
1016.6025	2898.9145	1050.7	173.05
1016.7184	2900.0355	1052.3	173.15
1016.8342	2901.1559	1050.65	171
1016.95	2902.2756	1052.25	168.9
1017.0658	2903.3946	1050.8	173.35
1017.1815	2904.513	1046.65	163.5
1017.2971	2905.6308	1047.35	169.7
1017.4127	2906.7479	1049.65	170
1017.5283	2907.8643	1048.3	167.25
1017.6439	2908.9801	1048.25	169.55
1017.7594	2910.0953	1049.45	171.15
1017.8748	2911.2098	1047.95	165.95
1017.9902	2912.3236	1054.85	168.9
1018.1056	2913.4368	1050.6	169.4
1018.2209	2914.5494	1045.75	166.35
1018.3362	2915.6613	1045.75	161.6
1018.4515	2916.7725	1045.65	166.05
1018.5667	2917.8831	1038.35	158.55
1018.6819	2918.9931	1039	157.7
1018.797	2920.1024	1033.7	156.65
1018.9121	2921.211	1032	153.8
1019.0271	2922.319	1030.8	151.7
1019.1421	2923.4264	1029.4	151.6
1019.2571	2924.5331	1025.35	148.7
1019.372	2925.6391	1027.85	148.65
1019.4869	2926.7445	1029.35	152.25
1019.6017	2927.8493	1030.95	152.65
1019.7165	2928.9534	1031.5	153.35
1019.8313	2930.0569	1031.25	148.3
1019.946	2931.1597	1032.5	152.7
1020.0606	2932.2619	1029.4	151.1
1020.1753	2933.3634	1029.75	152.25
1020.2899	2934.4643	1047	162.45
1020.4044	2935.5645	1042.05	157.45
1020.5189	2936.6641	1044.25	163.35
1020.6334	2937.763	1036.4	159.35
1020.7478	2938.8613	1039.2	161.65
1020.8622	2939.959	1039.3	155.7
1020.9765	2941.056	1029.5	152.35
1021.0908	2942.1523	1023.5	145.9
1021.2051	2943.248	1020.4	141.4
1021.3193	2944.3431	1009.6	129.35
1021.4334	2945.4375	1005.65	127.6
1021.5476	2946.5313	995.8	119.9
1021.6617	2947.6244	992.75	114
1021.7757	2948.7169	986.95	107.9
1021.8897	2949.8087	978.15	100
1022.0037	2950.8999	974.35	97.45
1022.1176	2951.9904	968.15	91.15
1022.2315	2953.0803	966.7	87.45
1022.3453	2954.1696	964.35	86.9
1022.4591	2955.2582	957.7	80.8
1022.5728	2956.3462	954.05	76.45
1022.6865	2957.4335	956.95	76.8
1022.8002	2958.5202	957.75	76.45
1022.9138	2959.6062	959.45	82.4
1023.0274	2960.6916	953.15	75.75
1023.141	2961.7764	957.6	79.15
1023.2545	2962.8605	955.5	77.1
1023.3679	2963.9439	955.85	79.85
1023.4813	2965.0267	957.1	77.75
1023.5947	2966.1089	977.5	76
1023.708	2967.1905	952.9	77.15
1023.8213	2968.2714	951.25	72.95
1023.9346	2969.3516	949.65	71.2
1024.0478	2970.4312	957.8	71.6
1024.1609	2971.5102	956.45	78.1
1024.274	2972.5885	950.85	72.8
1024.3871	2973.6662	958.35	74.35
1024.5002	2974.7432	953.45	76.5
1024.6132	2975.8196	951.2	74.8
1024.7261	2976.8954	949.55	73.65
1024.839	2977.9705	952.05	72
1024.9519	2979.045	948.85	70.45
1025.0647	2980.1188	950.7	71.85
1025.1775	2981.192	951	71.65
1025.2902	2982.2645	951.8	73.2
1025.4029	2983.3364	947	69.25
1025.5156	2984.4077	947.5	69.5
1025.6282	2985.4783	949.65	66.5
1025.7407	2986.5483	944.1	68
1025.8532	2987.6177	940.75	64.15
1025.9657	2988.6864	937.95	61.15
1026.0782	2989.7545	939.15	59.9
1026.1906	2990.8219	936.55	58.35
1026.3029	2991.8887	935.05	55.5
1026.4152	2992.9548	933	53.75
1026.5275	2994.0204	926.25	48.8
1026.6397	2995.0852	923.1	48.65
1026.7519	2996.1495	922.4	43.95
1026.864	2997.2131	919.45	42.95
1026.9761	2998.276	919.25	41.85
1027.0882	2999.3383	917.9	38.4
1027.2002	3000.4	914.5	37.65
1027.3122	3001.4611	913.65	35.25
1027.4241	3002.5215	910.7	32.9
1027.536	3003.5812	911.7	33.9
1027.6478	3004.6404	906.45	29.6
1027.7596	3005.6989	911.95	30.85
1027.8714	3006.7567	907.8	33.1
1027.9831	3007.8139	936.7	26.5
1028.0947	3008.8705	903.4	25.25
1028.2064	3009.9264	908.2	26.4
1028.3179	3010.9818	907.2	31.35
1028.4295	3012.0364	906.95	27.45
1028.541	3013.0905	906.75	29.05
1028.6524	3014.1439	903.25	26.55
1028.7638	3015.1966	902.25	24.5
1028.8752	3016.2487	901.65	22.95
1028.9865	3017.3002	908.1	25.95
1029.0978	3018.3511	904.85	29.8
1029.209	3019.4013	903.5	28.35
1029.3202	3020.4509	899.6	21.95
1029.4314	3021.4998	903.7	25.9
1029.5425	3022.5481	901.5	24.3
1029.6535	3023.5958	901.45	22.85
1029.7645	3024.6428	903.5	27.5
1029.8755	3025.6892	901.3	23.8
1029.9864	3026.735	900.6	24.2
1030.0973	3027.7802	903.5	26.25
1030.2082	3028.8247	898.65	21.4
1030.319	3029.8685	901.6	24.2
1030.4297	3030.9118	901.45	23.1
1030.5404	3031.9544	898.9	20.4
1030.6511	3032.9963	900.15	22.25
1030.7617	3034.0376	901	21.85
1030.8723	3035.0783	902.3	23.15
1030.9829	3036.1184	900.8	22.7
1031.0934	3037.1578	901.6	23.7
1031.2038	3038.1966	900.6	23.35
1031.3142	3039.2348	900	24.6
1031.4246	3040.2723	908.35	21.1
1031.5349	3041.3092	899.65	22.35
1031.6452	3042.3455	900.2	21.75
1031.7554	3043.3811	903.7	26.4
1031.8656	3044.4161	900.65	21.75
1031.9758	3045.4505	898.3	21.7
1032.0859	3046.4842	902.1	23.1
1032.1959	3047.5173	899.4	21.35
1032.3059	3048.5498	902.65	25.45
1032.4159	3049.5816	901.05	23.45
1032.5258	3050.6128	903.85	24.95
1032.6357	3051.6434	901.8	23.9
1032.7455	3052.6734	902	22.05
1032.8553	3053.7027	901.4	23
1032.9651	3054.7314	901.1	23.3
1033.0748	3055.7594	900	23.55
1033.1845	3056.7868	904.8	26.55
1033.2941	3057.8136	903.6	27.3
1033.4037	3058.8398	902.9	27.15
1033.5132	3059.8653	903.2	25
1033.6227	3060.8902	900.85	26.5
1033.7321	3061.9145	900.95	22.15
1033.8415	3062.9381	901.2	25.05
1033.9509	3063.9612	917.35	24.25
1034.0602	3064.9835	904.55	26.85
1034.1694	3066.0053	904.5	21.85
1034.2787	3067.0264	901.7	24.15
1034.3878	3068.0469	904.35	23.95
1034.497	3069.0668	903.45	23.05
1034.6061	3070.086	901.2	23.75
1034.7151	3071.1046	904.3	25.45
1034.8241	3072.1226	905.65	28
1034.9331	3073.1399	901.95	24.7
1035.042	3074.1567	904.45	26.45
1035.1508	3075.1727	904.3	27.05
1035.2597	3076.1882	900.1	24.3
1035.3684	3077.203	899.85	22.6
1035.4772	3078.2173	898.75	19.5
1035.5859	3079.2308	903.25	20.55
1035.6945	3080.2438	901.85	23.55
1035.8031	3081.2561	898	18.75
1035.9117	3082.2678	897.35	21.25
1036.0202	3083.2789	895.85	17.5
1036.1286	3084.2893	895.4	18.3
1036.2371	3085.2991	897	21.65
1036.3454	3086.3083	899.7	18.2
1036.4538	3087.3169	898.8	21.8
1036.562	3088.3248	896	17.5
1036.6703	3089.3321	897.65	19.75
1036.7785	3090.3388	893.7	15.55
1036.8866	3091.3449	892.6	13.4
1036.9948	3092.3503	897.35	17.7
1037.1028	3093.3551	894.45	17.3
1037.2108	3094.3593	892.45	15.75
1037.3188	3095.3629	897	19.5
1037.4267	3096.3658	896.5	17.7
1037.5346	3097.3681	893.75	17
1037.6425	3098.3698	895.85	16.85
1037.7503	3099.3708	895.5	19.85
1037.858	3100.3713	892.85	16.25
1037.9657	3101.3711	895.05	17.75
1038.0734	3102.3702	1028.8	10.8
1038.181	3103.3688	895.35	16.1
1038.2886	3104.3667	890.95	13.5
1038.3961	3105.364	891.3	15.75
1038.5036	3106.3607	894.45	16.2
1038.611	3107.3568	892.8	16.3
1038.7184	3108.3522	892.15	16.1
1038.8257	3109.347	892.35	13.05
1038.933	3110.3412	895.3	14.1
1039.0403	3111.3348	889.95	13.1
1039.1475	3112.3277	892.45	16.6
1039.2547	3113.32	889.3	13.55
1039.3618	3114.3117	888.5	10.85
1039.4689	3115.3028	889.35	11.1
1039.5759	3116.2932	893.65	16.45
1039.6829	3117.2831	895.35	12.1
1039.7898	3118.2723	891.4	14.7
1039.8967	3119.2608	888.5	12.3
1040.0035	3120.2488	891.15	13.55
1040.1103	3121.2361	891.15	13.95
1040.2171	3122.2229	888.95	12.3
1040.3238	3123.209	889.3	10.05
1040.4305	3124.1944	889.8	12.7
1040.5371	3125.1793	892.1	13.25
1040.6437	3126.1635	891.2	15.9
1040.7502	3127.1471	887.9	10.8
1040.8567	3128.1301	888.5	12.65
1040.9631	3129.1125	888	10.7
1041.0695	3130.0942	888.6	11.95
1041.1759	3131.0753	896.7	14.4
1041.2822	3132.0558	891.55	11.85
1041.3884	3133.0357	887.75	9.8
1041.4946	3134.015	888.8	10.2
1041.6008	3134.9936	891.6	11.65
1041.7069	3135.9716	909.1	10.2
1041.813	3136.949	886.9	9.45
1041.919	3137.9258	906.05	9.9
1042.025	3138.902	892.85	11.3
1042.1309	3139.8775	886.2	10.3
1042.2368	3140.8524	887.9	11.9
1042.3427	3141.8267	886.3	8.1
1042.4485	3142.8004	885.25	5.9
1042.5542	3143.7735	895.5	13.5
1042.6599	3144.7459	889.1	11.65
1042.7656	3145.7178	887.75	12
1042.8712	3146.689	886.4	8.9
1042.9768	3147.6596	887.75	9.65
1043.0823	3148.6295	886.3	10.8
1043.1878	3149.5989	886.85	8.45
1043.2932	3150.5676	887.15	9.3
1043.3986	3151.5357	884.05	8.9
1043.5039	3152.5032	886.15	8.15
1043.6092	3153.4701	885.45	9.15
1043.7145	3154.4364	888.7	9.5
1043.8197	3155.402	884.7	8.7
1043.9248	3156.367	886.15	8.45
1044.03	3157.3315	931.45	13.7
1044.135	3158.2952	886.7	10.95
1044.24	3159.2584	885.65	8.7
1044.345	3160.221	884.7	6.6
1044.4499	3161.1829	886.45	10.45
1044.5548	3162.1442	885.15	8.4
1044.6596	3163.105	888.65	10.8
1044.7644	3164.065	884.2	7.85
1044.8692	3165.0245	887.45	8.25
1044.9739	3165.9834	884.3	8.2
1045.0785	3166.9416	884.2	8.1
1045.1831	3167.8993	886	8.3
1045.2877	3168.8563	886.1	8.5
1045.3922	3169.8127	883.9	4.85
1045.4966	3170.7684	885.55	7.3
1045.6011	3171.7236	885.35	8.3
1045.7054	3172.6782	885.2	8.25
1045.8098	3173.6321	884.95	6.8
1045.914	3174.5854	889.75	7.05
1046.0183	3175.5381	886.5	9.85
1046.1224	3176.4902	885.1	9.75
1046.2266	3177.4417	885.5	8.55
1046.3307	3178.3926	885.6	10.15
1046.4347	3179.3428	885.65	10.85
1046.5387	3180.2924	884.35	7.6
1046.6427	3181.2415	885	7.5
1046.7466	3182.1899	886	6.85
1046.8504	3183.1377	882.45	5.45
1046.9542	3184.0848	887.5	7.45
1047.058	3185.0314	885.85	10
1047.1617	3185.9773	884.55	5.65
1047.2654	3186.9227	884.55	8.45
1047.369	3187.8674	884.7	6.95
1047.4726	3188.8115	887.5	8.85
1047.5761	3189.755	886.4	8.85
1047.6796	3190.6979	882.9	7.05
1047.783	3191.6402	881.45	6.6
1047.8864	3192.5818	883.4	5.5
1047.9898	3193.5229	906.85	4.2
1048.0931	3194.4633	883.35	5.7
1048.1963	3195.4031	884.35	6.1
1048.2995	3196.3423	882.55	5.3
1048.4027	3197.2809	884.45	6.2
1048.5058	3198.2189	882.6	4.65
1048.6089	3199.1563	892.15	9.1
1048.7119	3200.0931	882.3	7.95
1048.8148	3201.0292	881.05	4.85
1048.9178	3201.9648	882.2	7.05
1049.0206	3202.8997	887.2	7.75
1049.1235	3203.834	882.65	7.35
1049.2262	3204.7677	883.7	6.85
1049.329	3205.7008	884.35	5.95
1049.4317	3206.6333	882.05	6.95
1049.5343	3207.5652	884.9	3.3
1049.6369	3208.4964	885	7.55
1049.7394	3209.4271	882.2	6
1049.8419	3210.3571	884.25	9.2
1049.9444	3211.2865	883.7	4.35
1050.0468	3212.2154	885.45	7.8
1050.1491	3213.1436	886.7	7.1
1050.2514	3214.0712	891.25	8.65
1050.3537	3214.9982	883.95	7.7
1050.4559	3215.9246	880.35	3.75
1050.5581	3216.8503	881.45	4.65
1050.6602	3217.7755	883.35	4.85
1050.7623	3218.7001	883.25	5.2
1050.8643	3219.624	881.75	4.65
1050.9663	3220.5473	882.9	4.9
1051.0682	3221.4701	884.35	7.45
1051.1701	3222.3922	885.15	6.9
1051.2719	3223.3137	884.25	7
1051.3737	3224.2346	884	8.35
1051.4754	3225.1549	882.6	5.75
1051.5771	3226.0746	880.75	4.4
1051.6788	3226.9937	884.4	6.5
1051.7804	3227.9121	880.65	5.4
1051.8819	3228.83	880.5	3.6
1051.9834	3229.7473	883.75	7.55
1052.0849	3230.6639	882.25	5.05
1052.1863	3231.5799	882.95	4.4
1052.2876	3232.4954	884.45	7.75
1052.3889	3233.4102	881.4	4.5
1052.4902	3234.3244	881.65	5.35
1052.5914	3235.238	881	5.9
1052.6926	3236.151	905.85	6.1
1052.7937	3237.0634	882.8	7.6
1052.8948	3237.9752	883.1	6.4
1052.9958	3238.8864	882.75	6.15
1053.0968	3239.797	883.4	6.85
1053.1977	3240.7069	883.7	7
1053.2986	3241.6163	882.55	2.6
1053.3994	3242.5251	879	4.75
1053.5002	3243.4332	881.85	5.65
1053.6009	3244.3408	883.25	4.85
1053.7016	3245.2477	880	2.9
1053.8022	3246.154	882.95	5.3
1053.9028	3247.0598	882.05	5.4
1054.0034	3247.9649	882.5	5.55
1054.1039	3248.8694	883.05	6.35
1054.2043	3249.7733	882.5	4.5
1054.3047	3250.6766	884.2	6.4
1054.4051	3251.5793	879.05	0.75
1054.5054	3252.4814	882.9	4.55
1054.6056	3253.3829	881	3.7
1054.7058	3254.2838	882.65	4.8
1054.806	3255.1841	881.9	7.5
1054.9061	3256.0838	879.75	4.9
1055.0061	3256.9829	884.05	8.25
1055.1062	3257.8814	880.7	2.55
1055.2061	3258.7792	883.75	5.6
1055.306	3259.6765	882.65	5.6
1055.4059	3260.5731	881.15	5.4
1055.5057	3261.4692	881.85	2.65
1055.6055	3262.3647	881.2	2.95
1055.7052	3263.2595	881.4	3.9
1055.8049	3264.1538	882.75	5.2
1055.9045	3265.0474	883.2	5.25
1056.0041	3265.9404	880.5	5.6
1056.1036	3266.8329	879.6	5.5
1056.2031	3267.7247	891.3	3.25
1056.3025	3268.616	876.4	1.7
1056.4019	3269.5066	879.9	2.65
1056.5013	3270.3966	881.75	2.95
1056.6005	3271.286	879.15	2.1
