Software Version:	3.9.2.0
Unit SN:	10000200
Spectrometer SN:	6960
Date:	3/8/2024 11:14:11 AM
Data Line Index:	25
Spectral Points:	2048
Integration time (ms):	125
Averages:	20
Delay (ms):	30000
Sequence Number:	1
Processing:	dark subtract
Laser Power (mW):	300
Laser Current (mA):	822
Laser Diode Temp (C):	25
Laser Case Temp (C):	24.6
System Temp (C):	24.5
Spectrometer Temp (C):	22.4
CCD Temp (C):	0.012
Secondary Temp (C):	20.01
Heatsink Temp (C):	19.447
CCDPCB Temp (C):	32.594
SecondaryPCB Temp (C):	25.914

Wavelength	RamanShift	Raw Counts	Dark Subtracted
787.061	30.1047	424.85	14.5
787.2016	32.3739	421.35	12.45
787.3422	34.6426	424.75	13.85
787.4828	36.9109	427.25	17.25
787.6235	39.1787	431.7	18.25
787.7642	41.4461	436.55	16.7
787.9049	43.7131	444.6	22.85
788.0456	45.9796	447.35	23
788.1863	48.2456	451.1	21.1
788.3271	50.5112	457.55	25.35
788.4679	52.7764	463.05	26.1
788.6087	55.0411	466.7	25.75
788.7496	57.3054	474.45	29.05
788.8904	59.5692	478.65	34.25
789.0313	61.8326	482.95	35.1
789.1722	64.0955	487.05	33.05
789.3132	66.3579	499.25	41.5
789.4541	68.6199	511.75	50.9
789.5951	70.8815	526.4	61.8
789.7361	73.1426	556.05	86.2
789.8771	75.4032	630.95	157.45
790.0181	77.6634	799.05	322.05
790.1592	79.9231	1205.2	726.1
790.3003	82.1824	2034.05	1551.15
790.4414	84.4412	3410.05	2918.4
790.5825	86.6995	5200.25	4697.35
790.7237	88.9574	6928.95	6420.45
790.8648	91.2148	8078.55	7563.25
791.006	93.4717	8586.1	8063.75
791.1472	95.7282	8682	8159.35
791.2885	97.9842	8641.6	8117.15
791.4297	100.2398	8521	7994.05
791.571	102.4949	8398.7	7867.4
791.7123	104.7495	8270.95	7737.4
791.8536	107.0036	8119.85	7585.3
791.9949	109.2573	7948.75	7415.65
792.1363	111.5105	7784.8	7250.7
792.2777	113.7632	7534.35	6995.05
792.4191	116.0154	7289.6	6740.5
792.5605	118.2672	7012.25	6471.4
792.7019	120.5185	6711.25	6166.9
792.8434	122.7693	6416.15	5867.85
792.9849	125.0197	6149.55	5594.25
793.1264	127.2696	5923.95	5367.45
793.2679	129.519	5803.2	5242.3
793.4094	131.7679	5688.9	5127.9
793.551	134.0163	5614.4	5051.25
793.6926	136.2642	5587.55	5020.2
793.8342	138.5117	5579.3	5009.4
793.9758	140.7587	5497.75	4926.05
794.1175	143.0052	5415.45	4842.15
794.2591	145.2512	5281.6	4705.25
794.4008	147.4967	5136.15	4560.35
794.5425	149.7417	4979.25	4400.9
794.6842	151.9863	4887.2	4303.05
794.826	154.2304	4837.2	4251.35
794.9677	156.4739	4819.35	4227.3
795.1095	158.717	4862.1	4272.15
795.2513	160.9596	4921.6	4323.15
795.3931	163.2017	4995.55	4396.35
795.535	165.4433	5057.85	4457.8
795.6768	167.6844	5065.1	4459.55
795.8187	169.925	4994.15	4387.6
795.9606	172.1651	4856.3	4244.75
796.1025	174.4047	4711	4096.25
796.2445	176.6439	4594.05	3976.65
796.3864	178.8825	4502.15	3882.95
796.5284	181.1206	4447.05	3822.85
796.6704	183.3582	4407.35	3778.85
796.8124	185.5954	4386.1	3757.3
796.9544	187.832	4377.75	3743.8
797.0965	190.0681	4377.55	3743.6
797.2386	192.3037	4376.45	3739.8
797.3806	194.5388	4405.5	3763.95
797.5228	196.7734	4425.3	3780.95
797.6649	199.0075	4463.35	3820.45
797.807	201.2411	4530.5	3883.5
797.9492	203.4742	4582.05	3935.5
798.0914	205.7068	4655.05	4004.2
798.2336	207.9389	4696.2	4045.7
798.3758	210.1704	4742.7	4095.9
798.518	212.4015	4752.3	4116.2
798.6603	214.632	4762	4133.55
798.8025	216.862	4766.65	4140.55
798.9448	219.0915	4776.55	4144.4
799.0871	221.3205	4821.7	4185.85
799.2294	223.549	4849.7	4219.75
799.3718	225.777	4865.75	4237.05
799.5141	228.0044	4854.95	4216.75
799.6565	230.2314	4860.85	4219.3
799.7989	232.4578	4805.15	4160.4
799.9413	234.6837	4771.3	4117.9
800.0837	236.909	4721.9	4068.55
800.2262	239.1339	4714.4	4035.1
800.3687	241.3582	4667.6	4003.6
800.5111	243.582	4681.9	3989.05
800.6536	245.8053	4695.15	4009.95
800.7961	248.0281	4695.55	4020.3
800.9387	250.2503	4723.45	4043.35
801.0812	252.472	4735.75	4053.75
801.2238	254.6932	4738.5	4057.8
801.3664	256.9139	4739.9	4059.1
801.509	259.134	4767.75	4082.6
801.6516	261.3536	4840.5	4156.65
801.7942	263.5727	4938.65	4251.9
801.9369	265.7912	5058.05	4369.3
802.0795	268.0092	5241.25	4553.8
802.2222	270.2267	5400.8	4713.3
802.3649	272.4436	5550.25	4860.3
802.5076	274.6601	5645.35	4943.45
802.6504	276.8759	5717.2	5020.1
802.7931	279.0913	5796.85	5102.3
802.9359	281.3061	5840.95	5142
803.0787	283.5204	5894.6	5192.6
803.2215	285.7341	5958.3	5254.85
803.3643	287.9473	6064.9	5359.9
803.5071	290.16	6049.25	5341.75
803.6499	292.3721	5946.9	5246.1
803.7928	294.5837	5797.6	5094.8
803.9357	296.7947	5687.65	4985.3
804.0786	299.0052	5626.7	4921
804.2215	301.2152	5581.85	4874.6
804.3644	303.4246	5537.75	4832.9
804.5074	305.6334	5514.5	4808.55
804.6503	307.8418	5498.2	4789.45
804.7933	310.0495	5434.75	4724.75
804.9363	312.2568	5344.7	4633.15
805.0793	314.4635	5241.05	4527.35
805.2223	316.6696	5079.5	4365.75
805.3653	318.8752	4956.85	4232.45
805.5084	321.0802	4850.65	4133.25
805.6514	323.2847	4825.7	4107.4
805.7945	325.4887	4840.4	4120.75
805.9376	327.692	4872.25	4149.9
806.0807	329.8949	4999	4275.75
806.2238	332.0972	5151.2	4426.5
806.367	334.2989	5252.05	4524
806.5101	336.5001	5287.2	4560.8
806.6533	338.7007	5211.5	4484
806.7965	340.9008	5055.6	4326.6
806.9397	343.1003	4867.3	4136.65
807.0829	345.2992	4722.1	3989.25
807.2261	347.4976	4591	3858.15
807.3693	349.6955	4486.5	3748.5
807.5126	351.8927	4424.5	3684.95
807.6559	354.0895	4380.7	3630.05
807.7991	356.2856	4344.75	3603.45
807.9424	358.4812	4295.25	3553.65
808.0857	360.6763	4275.85	3531.8
808.2291	362.8707	4260.7	3513.7
808.3724	365.0646	4258.25	3508.35
808.5158	367.258	4284.4	3534.45
808.6591	369.4508	4336.6	3582.3
808.8025	371.643	4411.65	3660.2
808.9459	373.8346	4496.9	3741.3
809.0893	376.0257	4594.75	3836.8
809.2327	378.2162	4690.4	3937.6
809.3762	380.4062	4750.45	3994.9
809.5196	382.5956	4696.95	3941.7
809.6631	384.7844	4589.5	3839.25
809.8066	386.9726	4449.85	3703.45
809.9501	389.1603	4340.1	3593.8
810.0936	391.3474	4313.95	3524.05
810.2371	393.5339	4278	3526.35
810.3806	395.7199	4268.4	3517.75
810.5241	397.9052	4368.1	3616
810.6677	400.09	4508.7	3755.55
810.8113	402.2743	4648.05	3893.75
810.9548	404.4579	4746.2	3992.2
811.0984	406.641	4869.1	4112.2
811.2421	408.8235	5008.75	4250.95
811.3857	411.0054	5092.6	4331.35
811.5293	413.1868	5164.6	4399.8
811.673	415.3675	5179.8	4413.5
811.8166	417.5477	5149.1	4379.8
811.9603	419.7273	5085.3	4314.6
812.104	421.9064	5002.85	4227.65
812.2477	424.0848	4867.8	4094.65
812.3914	426.2627	4667	3895.7
812.5351	428.4399	4492.85	3719.35
812.6788	430.6166	4334.3	3556.4
812.8226	432.7928	4190.9	3414.3
812.9663	434.9683	4097.3	3317.5
813.1101	437.1432	4043.7	3263.75
813.2539	439.3176	3967.75	3190.95
813.3977	441.4914	3926.55	3148.55
813.5415	443.6645	3911	3131.1
813.6853	445.8371	3897.55	3116.85
813.8291	448.0091	3899.8	3120.25
813.973	450.1806	3895.35	3115.5
814.1168	452.3514	3895.6	3112.95
814.2607	454.5216	3912.15	3121.7
814.4046	456.6913	3921.8	3137.45
814.5485	458.8603	3920.6	3135.75
814.6924	461.0288	3947.25	3165.45
814.8363	463.1967	3936.45	3153.05
814.9802	465.3639	3931.15	3146.35
815.1241	467.5306	3926.85	3140.9
815.2681	469.6967	3905.5	3119.1
815.412	471.8622	3872.65	3089.85
815.556	474.0271	3859.15	3071.7
815.7	476.1914	3856.9	3068.1
815.844	478.3551	3840.8	3054.05
815.988	480.5182	3840.6	3049.2
816.132	482.6807	3849.5	3060.05
816.276	484.8426	3913.3	3124.9
816.4201	487.0039	4032.5	3244.3
816.5641	489.1647	4199.5	3407.25
816.7082	491.3248	4340.65	3547.45
816.8522	493.4843	4375.9	3583.4
816.9963	495.6432	4366.15	3573.8
817.1404	497.8015	4269.75	3471.25
817.2845	499.9592	4159.4	3366.5
817.4286	502.1163	3986.7	3190.95
817.5727	504.2728	3854.4	3054.4
817.7168	506.4287	3771.95	2976.95
817.861	508.5839	3727.1	2929.65
818.0051	510.7386	3709.15	2913.3
818.1493	512.8927	3711.35	2904.85
818.2935	515.0461	3727.85	2929
818.4377	517.199	3785.85	2986
818.5818	519.3512	3887.95	3086.5
818.726	521.5029	4103.3	3298.2
818.8703	523.6539	4291.15	3486.8
819.0145	525.8043	4340.9	3536.2
819.1587	527.9541	4198	3392.55
819.303	530.1033	3964.8	3159.25
819.4472	532.2519	3809.95	3007.15
819.5915	534.3999	3742.75	2934.95
819.7357	536.5472	3700.25	2895.85
819.88	538.694	3708	2903.45
820.0243	540.8401	3746.25	2939.75
820.1686	542.9856	3795.25	2987.15
820.3129	545.1305	3840.6	3029
820.4572	547.2748	3881.1	3073
820.6016	549.4185	3910.05	3100.6
820.7459	551.5615	3913.65	3103.05
820.8902	553.704	3966.7	3156.9
821.0346	555.8458	4028.85	3218.3
821.1789	557.987	4071.6	3265
821.3233	560.1276	4197.55	3387.7
821.4677	562.2675	4370.35	3560.3
821.6121	564.4069	4632.7	3823.1
821.7565	566.5456	4762.8	3952.05
821.9009	568.6837	4701.9	3889.4
822.0453	570.8212	4440.6	3630.2
822.1897	572.958	4152.15	3337.15
822.3342	575.0942	3935.1	3123.15
822.4786	577.2299	3812.65	2999
822.6231	579.3648	3764.4	2949.7
822.7675	581.4992	3722.55	2909.8
822.912	583.6329	3765.6	2952.3
823.0565	585.766	3854.65	3041.45
823.201	587.8985	3984.05	3169.6
823.3454	590.0304	4144.7	3316.9
823.4899	592.1616	4268.75	3447.6
823.6345	594.2922	4314.6	3496.85
823.779	596.4222	4207.55	3387.7
823.9235	598.5515	4051.45	3230.1
824.068	600.6802	3845	3025.85
824.2126	602.8083	3712.15	2891.9
824.3571	604.9358	3658.35	2837.2
824.5017	607.0626	3631.55	2810.4
824.6462	609.1888	3671.9	2848.5
824.7908	611.3144	3736.75	2912.9
824.9354	613.4393	3841.75	3018.1
825.08	615.5636	4010.1	3187.3
825.2246	617.6873	4191.15	3366.35
825.3692	619.8103	4267.9	3442.55
825.5138	621.9327	4305.65	3479.65
825.6584	624.0544	4203.6	3380.7
825.803	626.1756	4035.1	3210.6
825.9477	628.2961	3841.1	3015.4
826.0923	630.4159	3741.85	2915.8
826.237	632.5351	3719.9	2893.8
826.3816	634.6537	3687	2860.85
826.5263	636.7716	3668.95	2840.7
826.6709	638.8889	3645.85	2817.2
826.8156	641.0056	3674.3	2844.75
826.9603	643.1216	3715	2885.8
827.105	645.237	3754.3	2921
827.2497	647.3518	3701.15	2870.5
827.3944	649.4659	3601.95	2772.05
827.5391	651.5793	3545.4	2714.4
827.6838	653.6922	3487.1	2657.2
827.8285	655.8043	3457.5	2627.5
827.9733	657.9159	3431.15	2600.15
828.118	660.0268	3387.3	2554.35
828.2627	662.137	3388.85	2556.4
828.4075	664.2466	3409.6	2575.75
828.5522	666.3556	3393.5	2558.3
828.697	668.4639	3388.4	2551.45
828.8418	670.5716	3347.15	2513.3
828.9865	672.6786	3343.9	2507.65
829.1313	674.785	3319.6	2481
829.2761	676.8907	3302.65	2465.05
829.4209	678.9958	3299.9	2466.55
829.5657	681.1002	3308.8	2471.8
829.7105	683.204	3308.4	2467.95
829.8553	685.3072	3321.45	2483.15
830.0001	687.4097	3295.1	2457.1
830.1449	689.5115	3293.9	2454.15
830.2898	691.6127	3301.9	2466.8
830.4346	693.7132	3281.55	2443.3
830.5794	695.8131	3287.6	2436.5
830.7243	697.9123	3292.3	2452.2
830.8691	700.0109	3305.2	2465.1
831.014	702.1089	3333.3	2497.65
831.1588	704.2061	3379.3	2538.5
831.3037	706.3028	3445.8	2604.05
831.4486	708.3987	3536.95	2696.65
831.5935	710.4941	3582.75	2743.45
831.7383	712.5887	3598.85	2756.85
831.8832	714.6827	3583.25	2737.15
832.0281	716.7761	3544.65	2701.4
832.173	718.8688	3527.75	2684.55
832.3179	720.9608	3528.35	2682.1
832.4628	723.0522	3567.6	2722.1
832.6077	725.1429	3607.05	2763.3
832.7527	727.233	3706.05	2862.2
832.8976	729.3224	3902.9	3057.95
833.0425	731.4112	4099.5	3253.45
833.1874	733.4993	4152.55	3303.45
833.3324	735.5867	4033.1	3187.3
833.4773	737.6735	3786.45	2939.8
833.6222	739.7596	3581.85	2733
833.7672	741.845	3469.05	2623.7
833.9122	743.9298	3400	2551.45
834.0571	746.014	3380.8	2533.75
834.2021	748.0974	3378.55	2529.9
834.347	750.1802	3390.8	2542.9
834.492	752.2624	3373.6	2525
834.637	754.3439	3386.1	2535.3
834.782	756.4247	3399.8	2542
834.9269	758.5048	3419.9	2570.2
835.0719	760.5843	3499	2647.5
835.2169	762.6631	3604.75	2754.7
835.3619	764.7413	3768.85	2920.35
835.5069	766.8188	4020.75	3169.5
835.6519	768.8956	4301.8	3448.75
835.7969	770.9718	4508.55	3660.1
835.9419	773.0473	4492.2	3640.8
836.0869	775.1221	4358.45	3508.4
836.232	777.1962	4307.65	3457.1
836.377	779.2697	4495.5	3643.05
836.522	781.3426	4821.6	3952.55
836.667	783.4147	5081.1	4228.05
836.8121	785.4862	5097.3	4247.15
836.9571	787.557	4853.4	4001
837.1021	789.6271	4450.2	3594.55
837.2472	791.6966	4030.1	3174.9
837.3922	793.7654	3701.85	2847.1
837.5373	795.8335	3512.2	2659.25
837.6823	797.901	3393.8	2542.4
837.8274	799.9678	3367.2	2512.7
837.9724	802.0339	3356.35	2504.25
838.1175	804.0993	3379.75	2517.1
838.2626	806.1641	3378.55	2524.55
838.4076	808.2282	3337.1	2483.15
838.5527	810.2916	3278.4	2422.35
838.6978	812.3544	3224.25	2372.05
838.8428	814.4164	3207.1	2353.6
838.9879	816.4778	3208.05	2352.85
839.133	818.5385	3247.4	2391.9
839.2781	820.5986	3343.4	2487.9
839.4232	822.658	3518.5	2659.25
839.5682	824.7166	3732.6	2876.75
839.7133	826.7747	3975.55	3119.3
839.8584	828.832	4210.2	3354.55
840.0035	830.8886	4410	3552.2
840.1486	832.9446	4522.55	3663.15
840.2937	834.9999	4452.3	3594.65
840.4388	837.0545	4242.25	3381.95
840.5839	839.1085	3986.7	3128.75
840.729	841.1618	3714.7	2854.45
840.8741	843.2143	3538.35	2677.4
841.0192	845.2662	3427.1	2568.35
841.1643	847.3175	3370.45	2512.1
841.3095	849.368	3334.05	2476.1
841.4546	851.4179	3332.7	2473.75
841.5997	853.467	3325	2463.7
841.7448	855.5155	3337	2477.2
841.8899	857.5633	3353	2492.15
842.0351	859.6105	3345	2485.85
842.1802	861.6569	3313.2	2453.35
842.3253	863.7027	3272.9	2410.2
842.4704	865.7478	3209.05	2347.95
842.6156	867.7922	3191.5	2331.1
842.7607	869.8359	3170.85	2310.35
842.9058	871.8789	3151.15	2289
843.0509	873.9212	3179.75	2282.95
843.1961	875.9629	3163.1	2303.5
843.3412	878.0039	3188.15	2324.3
843.4863	880.0441	3237.75	2376.05
843.6315	882.0837	3302.6	2439.25
843.7766	884.1226	3378.4	2513.5
843.9218	886.1609	3471.8	2611.2
844.0669	888.1984	3631.8	2772.3
844.212	890.2352	3795.65	2934.2
844.3572	892.2714	3836.25	2971.25
844.5023	894.3069	3767.95	2903.8
844.6475	896.3416	3608.35	2745.25
844.7926	898.3757	3465.85	2602.5
844.9377	900.4091	3368.45	2502.75
845.0829	902.4418	3368.35	2497.4
845.228	904.4739	3450.35	2586.6
845.3732	906.5052	3510.45	2646.4
845.5183	908.5358	3516.95	2653.1
845.6635	910.5658	3471.9	2604.95
845.8086	912.595	3359.85	2494.5
845.9538	914.6236	3241.5	2377.4
846.0989	916.6515	3154.2	2290.5
846.2441	918.6786	3092.7	2225.95
846.3892	920.7051	3068.7	2201.15
846.5344	922.7309	3066.75	2201.05
846.6795	924.756	3064.9	2197.7
846.8246	926.7804	3105.05	2237.95
846.9698	928.8041	3122.45	2254.45
847.1149	930.8272	3183.55	2318.3
847.2601	932.8495	3205.05	2338.2
847.4052	934.8711	3232.3	2365.4
847.5504	936.892	3248.3	2382.6
847.6955	938.9123	3299.7	2430.8
847.8407	940.9318	3410	2543.35
847.9858	942.9506	3483.05	2615.2
848.131	944.9688	3466.75	2601.2
848.2761	946.9862	3380.95	2514.45
848.4213	949.003	3277.7	2409.5
848.5664	951.019	3201.2	2333.5
848.7115	953.0344	3153.35	2286.7
848.8567	955.0491	3116.05	2248.45
849.0018	957.063	3074.85	2208.55
849.147	959.0763	3069.65	2204.7
849.2921	961.0888	3062.1	2190.7
849.4373	963.1007	3053.9	2183.9
849.5824	965.1119	3035.85	2169.7
849.7275	967.1223	3011.15	2145.15
849.8727	969.1321	2986.3	2121.05
850.0178	971.1412	2977.7	2110.4
850.1629	973.1495	2964.1	2097.3
850.3081	975.1572	2998.15	2089.55
850.4532	977.1641	2983.7	2114.7
850.5983	979.1704	2977.4	2104.35
850.7435	981.1759	2985.5	2112.25
850.8886	983.1808	2958.55	2088.05
851.0337	985.1849	2940.55	2058.95
851.1788	987.1884	2913.3	2041.95
851.324	989.1911	2927.35	2053.15
851.4691	991.1932	2954.65	2083.8
851.6142	993.1945	2967.45	2097.7
851.7593	995.1951	2964.65	2093.1
851.9045	997.1951	2974.1	2096.5
852.0496	999.1943	2957.8	2090.5
852.1947	1001.1928	2948.1	2079.4
852.3398	1003.1906	2982.25	2114.25
852.4849	1005.1877	3074.1	2202.6
852.63	1007.1841	3146.55	2278.1
852.7751	1009.1798	3205.05	2333.4
852.9202	1011.1748	3199	2328.65
853.0653	1013.1691	3115.55	2244.45
853.2104	1015.1627	3016.35	2146.05
853.3555	1017.1556	2925.05	2055.6
853.5006	1019.1477	2857.3	1985.45
853.6457	1021.1392	2801.15	1931.1
853.7908	1023.1299	2794.1	1923.6
853.9359	1025.12	2791.35	1920.05
854.081	1027.1093	2811.7	1943.7
854.2261	1029.0979	2876.7	2008.9
854.3712	1031.0859	2945.8	2076.45
854.5163	1033.0731	2991.3	2118.6
854.6613	1035.0596	2998.3	2127.45
854.8064	1037.0454	2977.1	2107.15
854.9515	1039.0304	2955.8	2083.85
855.0965	1041.0148	2883.9	2011.7
855.2416	1042.9985	2815.75	1941.85
855.3867	1044.9814	2762.05	1890.65
855.5317	1046.9636	2759.95	1887
855.6768	1048.9452	2778.3	1906.65
855.8219	1050.926	2840.2	1967.2
855.9669	1052.9061	2895.9	2021.35
856.112	1054.8855	2920.35	2047.7
856.257	1056.8642	2943.6	2070
856.4021	1058.8421	2927.1	2048.7
856.5471	1060.8194	2913.15	2038.85
856.6921	1062.7959	2892.5	2017.7
856.8372	1064.7717	2886.95	2011.85
856.9822	1066.7469	2903.45	2028.35
857.1272	1068.7213	2914.65	2038.6
857.2723	1070.695	2951.6	2077.85
857.4173	1072.6679	3020.25	2146.45
857.5623	1074.6402	3100.4	2224
857.7073	1076.6117	3132.7	2253.65
857.8523	1078.5826	3094	2217.95
857.9973	1080.5527	2991.4	2115.4
858.1423	1082.5221	2871.75	1998.1
858.2873	1084.4908	2787.65	1913.15
858.4323	1086.4587	2720.35	1844
858.5773	1088.426	2691.85	1815.6
858.7223	1090.3925	2683.35	1800.7
858.8673	1092.3584	2704.6	1833.15
859.0123	1094.3235	2730.8	1856.65
859.1573	1096.2879	2785.9	1910.65
859.3022	1098.2515	2843.5	1969.5
859.4472	1100.2145	2941.55	2066.4
859.5922	1102.1767	3034.65	2158.5
859.7371	1104.1382	3167.2	2289.5
859.8821	1106.099	3341.2	2463.2
860.027	1108.0591	3498.85	2622.3
860.172	1110.0185	3637.75	2760.7
860.3169	1111.9771	3744.7	2869.8
860.4619	1113.9351	3893.4	3017.4
860.6068	1115.8923	4112.5	3235
860.7517	1117.8488	4266.25	3387.3
860.8967	1119.8045	4185.25	3309.45
861.0416	1121.7596	3875.5	2998.55
861.1865	1123.7139	3516.45	2641.8
861.3314	1125.6675	3294.45	2417.65
861.4763	1127.6204	3263.05	2388.05
861.6212	1129.5726	3330.3	2451.9
861.7661	1131.524	3355.85	2480.75
861.911	1133.4748	3263.5	2386.7
862.0559	1135.4248	3053.65	2174.3
862.2008	1137.3741	2908.05	2032.45
862.3457	1139.3226	2795.15	1917.5
862.4905	1141.2705	2781.5	1902.95
862.6354	1143.2176	2812.9	1930.85
862.7803	1145.164	2856.9	1976.35
862.9251	1147.1097	2873	1995.75
863.07	1149.0546	2815.45	1936.1
863.2148	1150.9989	2740.85	1860.55
863.3597	1152.9424	2665.25	1786.7
863.5045	1154.8852	2608.2	1729.9
863.6493	1156.8272	2594.6	1718.9
863.7942	1158.7686	2585.5	1701.55
863.939	1160.7092	2590.6	1711.6
864.0838	1162.6491	2588.15	1709.8
864.2286	1164.5883	2621.4	1746
864.3734	1166.5267	2671.3	1790.15
864.5182	1168.4644	2734.5	1856.1
864.663	1170.4014	2822.9	1943.35
864.8078	1172.3377	2940.8	2065.05
864.9526	1174.2732	3097.9	2220.65
865.0974	1176.2081	3347.5	2470.75
865.2421	1178.1421	3720.15	2838.55
865.3869	1180.0755	4148.45	3271.6
865.5317	1182.0082	4454.7	3575.85
865.6764	1183.9401	4462.55	3582.6
865.8212	1185.8713	4205.95	3328.7
865.9659	1187.8017	3792.4	2915.1
866.1106	1189.7315	3418.95	2544.7
866.2554	1191.6605	3147.8	2241.05
866.4001	1193.5888	2981.1	2105.25
866.5448	1195.5163	2870.05	1992.5
866.6895	1197.4432	2781.05	1902.3
866.8342	1199.3693	2724.25	1846.6
866.9789	1201.2947	2692.8	1807.05
867.1236	1203.2193	2652	1775.05
867.2683	1205.1432	2650.95	1771.85
867.413	1207.0664	2645.8	1766.85
867.5576	1208.9889	2639.2	1757.8
867.7023	1210.9106	2628.6	1749.95
867.847	1212.8316	2647.55	1770.45
867.9916	1214.7519	2679.35	1793.25
868.1363	1216.6715	2713.6	1835.9
868.2809	1218.5903	2756.95	1878.35
868.4255	1220.5084	2808	1930.15
868.5701	1222.4257	2841.5	1959.9
868.7148	1224.3424	2858.7	1979.3
868.8594	1226.2583	2932.85	2050.15
869.004	1228.1735	3014.35	2134.1
869.1486	1230.0879	3116.45	2236.25
869.2932	1232.0016	3244.35	2366.85
869.4377	1233.9146	3358.55	2477.45
869.5823	1235.8269	3418.85	2539.8
869.7269	1237.7384	3428.25	2550.3
869.8715	1239.6492	3419.35	2540.3
870.016	1241.5592	3445.8	2563.85
870.1606	1243.4686	3569.4	2689
870.3051	1245.3772	3796.15	2915.45
870.4496	1247.285	4055.45	3175.3
870.5941	1249.1922	4335.1	3455.5
870.7387	1251.0986	4564.3	3684.1
870.8832	1253.0042	4786.3	3906.2
871.0277	1254.9092	5020.95	4140.75
871.1722	1256.8134	5336.6	4459.1
871.3167	1258.7169	5685.6	4804.75
871.4611	1260.6196	5931.7	5051.25
871.6056	1262.5216	6058.75	5178.65
871.7501	1264.4229	6099.45	5220.55
871.8945	1266.3234	5994.85	5113.35
872.039	1268.2232	5813.4	4930.75
872.1834	1270.1223	5613.35	4732.85
872.3278	1272.0207	5479.1	4597.85
872.4723	1273.9183	5407.35	4521.9
872.6167	1275.8151	5389.2	4510.45
872.7611	1277.7113	5465.55	4583.85
872.9055	1279.6067	5700.3	4820.55
873.0499	1281.5014	6144.15	5262.05
873.1943	1283.3953	6747.9	5866.2
873.3386	1285.2885	7427.8	6546.45
873.483	1287.181	8000.95	7120.25
873.6274	1289.0727	8267.05	7387.9
873.7717	1290.9637	8136.2	7252.65
873.9161	1292.854	7757.05	6875.45
874.0604	1294.7435	7287.6	6406.1
874.2047	1296.6323	6852.55	5972.65
874.349	1298.5204	6477.75	5593.6
874.4933	1300.4077	6191.8	5309.1
874.6376	1302.2943	5973.3	5093.7
874.7819	1304.1802	5835.2	4953.25
874.9262	1306.0653	5707.25	4824.6
875.0705	1307.9497	5590.7	4709.4
875.2147	1309.8333	5510.95	4629.7
875.359	1311.7162	5443.1	4563.1
875.5032	1313.5984	5360.45	4477.5
875.6475	1315.4798	5296.1	4400.45
875.7917	1317.3605	5308.45	4411.05
875.9359	1319.2405	5335.8	4453.3
876.0801	1321.1197	5362.1	4478.35
876.2243	1322.9982	5276.5	4390.05
876.3685	1324.876	5099.15	4217.6
876.5127	1326.753	4829.85	3949.15
876.6569	1328.6293	4532.8	3648.6
876.801	1330.5048	4211.35	3326.75
876.9452	1332.3796	3912.25	3030.2
877.0893	1334.2537	3719.7	2813.25
877.2335	1336.127	3522.1	2639.55
877.3776	1337.9996	3421.25	2538
877.5217	1339.8714	3339.2	2457.2
877.6658	1341.7426	3319.55	2392.85
877.8099	1343.6129	3226.15	2345.3
877.954	1345.4826	3169.7	2285.55
878.0981	1347.3515	3118.5	2232.85
878.2422	1349.2196	3065.2	2183.35
878.3862	1351.087	3029.5	2146.2
878.5303	1352.9537	3008.65	2126.4
878.6743	1354.8197	3023.9	2140.65
878.8184	1356.6849	3042	2160.6
878.9624	1358.5493	3095.25	2211.45
879.1064	1360.4131	3166.5	2286.9
879.2504	1362.276	3290.7	2407.95
879.3944	1364.1383	3402.7	2521
879.5384	1365.9998	3458.35	2570.9
879.6823	1367.8606	3447.95	2565.35
879.8263	1369.7206	3416.25	2533.3
879.9702	1371.5799	3434.5	2549.35
880.1142	1373.4384	3427.5	2544.3
880.2581	1375.2962	3339.3	2455.1
880.402	1377.1533	3187.85	2306.55
880.5459	1379.0096	3059.65	2178.65
880.6898	1380.8652	2931.9	2051.3
880.8337	1382.7201	2845.4	1962.35
880.9776	1384.5742	2758.5	1875.25
881.1215	1386.4275	2681.4	1798
881.2653	1388.2802	2625.1	1743.8
881.4092	1390.132	2575.1	1691.65
881.553	1391.9832	2564.1	1682.1
881.6968	1393.8336	2525.85	1643
881.8406	1395.6832	2515.9	1630.05
881.9844	1397.5322	2503.2	1620.1
882.1282	1399.3803	2475.4	1588.3
882.272	1401.2278	2439.65	1558
882.4158	1403.0745	2417.45	1535.25
882.5595	1404.9204	2386.7	1504.95
882.7033	1406.7656	2374.05	1490.55
882.847	1408.6101	2362	1479.15
882.9908	1410.4538	2351.2	1467.3
883.1345	1412.2968	2346.3	1463.9
883.2782	1414.139	2353.35	1471.1
883.4219	1415.9805	2385.15	1502.85
883.5656	1417.8213	2420.15	1531.5
883.7092	1419.6613	2454.85	1573.7
883.8529	1421.5006	2558.5	1674.5
883.9965	1423.3391	2672.3	1789.75
884.1402	1425.1769	2829.05	1944.6
884.2838	1427.0139	3076.1	2192.55
884.4274	1428.8502	3371.95	2489.15
884.571	1430.6858	3609.05	2726.7
884.7146	1432.5206	3701.3	2816.45
884.8582	1434.3547	3707.45	2825.45
885.0018	1436.188	3642.85	2762.7
885.1453	1438.0206	3600.6	2717.05
885.2889	1439.8524	3549.4	2666.85
885.4324	1441.6835	3553.65	2669.75
885.5759	1443.5139	3562.7	2674.15
885.7194	1445.3435	3562.15	2678.15
885.8629	1447.1724	3576.75	2694.7
886.0064	1449.0005	3576.25	2691.4
886.1499	1450.8279	3542.3	2659.75
886.2933	1452.6545	3527.05	2644.6
886.4368	1454.4804	3527.75	2645.95
886.5802	1456.3056	3507.85	2616.8
886.7237	1458.13	3446.4	2566.2
886.8671	1459.9536	3376.45	2494.7
887.0105	1461.7766	3254.2	2369.75
887.1539	1463.5987	3144.75	2259.15
887.2972	1465.4202	3002.8	2118.85
887.4406	1467.2409	2892.05	2007.8
887.584	1469.0608	2783.2	1901
887.7273	1470.88	2684.4	1799.2
887.8706	1472.6984	2583.05	1701.05
888.0139	1474.5161	2509.5	1622.85
888.1572	1476.3331	2459.4	1576.6
888.3005	1478.1493	2429.35	1544.85
888.4438	1479.9648	2407.1	1523.3
888.5871	1481.7795	2409.1	1524.8
888.7303	1483.5935	2406.2	1521
888.8736	1485.4067	2408.05	1526.25
889.0168	1487.2192	2421.55	1537.35
889.16	1489.031	2427	1540.8
889.3032	1490.842	2425.7	1543.8
889.4464	1492.6522	2432.25	1550.45
889.5896	1494.4618	2428.15	1542.8
889.7327	1496.2705	2414.95	1533.3
889.8759	1498.0785	2401.55	1516.5
890.019	1499.8858	2386.05	1501.8
890.1622	1501.6924	2366.7	1484.1
890.3053	1503.4981	2350.4	1468.35
890.4484	1505.3032	2329.25	1445.9
890.5914	1507.1075	2315.45	1430.7
890.7345	1508.911	2308.05	1425.25
890.8776	1510.7138	2286.85	1403.15
891.0206	1512.5159	2255.95	1373.1
891.1637	1514.3172	2247	1363.4
891.3067	1516.1178	2223.7	1342.1
891.4497	1517.9176	2206.7	1318.75
891.5927	1519.7166	2186.15	1303.95
891.7357	1521.515	2181.45	1290.35
891.8786	1523.3126	2166.05	1281.15
892.0216	1525.1094	2145.55	1259.05
892.1645	1526.9055	2147.25	1263.35
892.3074	1528.7008	2112.45	1230.1
892.4503	1530.4954	2125.55	1236.55
892.5932	1532.2893	2108.25	1225.15
892.7361	1534.0824	2108.15	1218.6
892.879	1535.8747	2092.5	1209.55
893.0218	1537.6663	2095	1211.55
893.1647	1539.4572	2095.3	1212.2
893.3075	1541.2473	2114.25	1229.25
893.4503	1543.0367	2108.85	1225.25
893.5931	1544.8253	2119.45	1230.05
893.7359	1546.6132	2125.4	1239.6
893.8787	1548.4003	2148.55	1254.7
894.0214	1550.1867	2169.1	1277.7
894.1642	1551.9723	2192.15	1305.1
894.3069	1553.7572	2233.1	1348.75
894.4496	1555.5414	2294.4	1413.1
894.5923	1557.3247	2377.8	1494.15
894.735	1559.1074	2490.95	1609.25
894.8777	1560.8893	2630.35	1747.9
895.0204	1562.6705	2757.4	1874.3
895.163	1564.4509	2860.05	1977
895.3056	1566.2305	2911.3	2028.7
895.4482	1568.0094	2924.8	2045.35
895.5908	1569.7876	2927.65	2044.3
895.7334	1571.565	2916.7	2033.75
895.876	1573.3417	2923.95	2041.85
896.0186	1575.1176	2940.6	2058.65
896.1611	1576.8928	2990.5	2108.8
896.3036	1578.6672	3072.05	2190.7
896.4461	1580.4409	3169.95	2287.6
896.5886	1582.2138	3288.2	2404.2
896.7311	1583.986	3442.4	2560.65
896.8736	1585.7575	3577.2	2697.05
897.0161	1587.5282	3699.7	2817.75
897.1585	1589.2981	3796.1	2913.85
897.3009	1591.0673	3862.2	2982.15
897.4433	1592.8358	3888.35	3007.75
897.5857	1594.6035	3880.6	2997.85
897.7281	1596.3704	3844.2	2959.75
897.8705	1598.1366	3780.75	2900.45
898.0128	1599.9021	3707.85	2826.7
898.1551	1601.6668	3590.55	2706.45
898.2975	1603.4308	3524.75	2642.4
898.4398	1605.194	3521.7	2633.8
898.5821	1606.9564	3587.4	2707.7
898.7243	1608.7182	3723.05	2838.75
898.8666	1610.4791	4012.85	3130.7
899.0088	1612.2394	4355.65	3474
899.1511	1613.9988	4749.85	3867.4
899.2933	1615.7576	5076.9	4196.25
899.4355	1617.5156	5266.95	4379.45
899.5776	1619.2728	5218.05	4335.15
899.7198	1621.0293	4975.2	4093.3
899.862	1622.785	4614.8	3731.9
900.0041	1624.54	4185.4	3302.7
900.1462	1626.2942	3760.1	2877.85
900.2883	1628.0477	3384.45	2501.35
900.4304	1629.8005	3085.85	2200.7
900.5725	1631.5525	2838.95	1959.25
900.7145	1633.3037	2642.15	1761.1
900.8566	1635.0542	2498.4	1617.15
900.9986	1636.804	2385.85	1502.7
901.1406	1638.553	2345.55	1402.05
901.2826	1640.3013	2230.15	1348.1
901.4245	1642.0488	2163.25	1278.4
901.5665	1643.7955	2106.9	1226.2
901.7085	1645.5416	2079.2	1197.7
901.8504	1647.2868	2045.95	1165.4
901.9923	1649.0313	2009.95	1127.75
902.1342	1650.7751	2009.3	1124.9
902.2761	1652.5181	1983.3	1101.85
902.4179	1654.2604	1977.45	1096.05
902.5598	1656.0019	2004.25	1122.95
902.7016	1657.7427	2024.2	1141.75
902.8434	1659.4828	2102.95	1221.7
902.9852	1661.222	2180.6	1298.2
903.127	1662.9606	2309.9	1429.05
903.2687	1664.6984	2432.35	1548.85
903.4105	1666.4354	2516	1633.55
903.5522	1668.1717	2484.15	1601.8
903.6939	1669.9072	2369.65	1486.85
903.8356	1671.642	2209.7	1324.2
903.9773	1673.3761	2070.65	1189.2
904.119	1675.1094	1947.45	1065.1
904.2606	1676.8419	1865.65	982.75
904.4022	1678.5737	1811.65	929.5
904.5439	1680.3048	1770.7	889.3
904.6855	1682.0351	1745.8	862.7
904.827	1683.7646	1729.2	841.25
904.9686	1685.4934	1706.7	823.85
905.1101	1687.2215	1692.75	810.05
905.2517	1688.9488	1682.1	798.95
905.3932	1690.6754	1677.75	796.45
905.5347	1692.4012	1663.85	781.9
905.6761	1694.1263	1654.55	773.85
905.8176	1695.8506	1659.35	777.5
905.9591	1697.5742	1646.4	763.75
906.1005	1699.297	1638.8	757.95
906.2419	1701.0191	1625.65	744.15
906.3833	1702.7404	1623.3	740.95
906.5246	1704.461	1615.3	732.65
906.666	1706.1808	1608.8	725.4
906.8073	1707.8999	1607.2	723.35
906.9487	1709.6182	1599.3	716.5
907.09	1711.3358	1595.75	712.55
907.2313	1713.0527	1582	703.8
907.3725	1714.7688	1589	703.4
907.5138	1716.4841	1574.05	691.55
907.655	1718.1987	1570.6	683
907.7962	1719.9126	1576.2	693.95
907.9374	1721.6257	1557.2	672.25
908.0786	1723.338	1559.6	674.75
908.2198	1725.0496	1560.65	678.8
908.3609	1726.7605	1559	678.2
908.502	1728.4706	1556.65	673.7
908.6431	1730.18	1537.15	653.65
908.7842	1731.8886	1540.7	659.2
908.9253	1733.5964	1562.95	659
909.0664	1735.3036	1541.25	656.7
909.2074	1737.0099	1536.75	655.85
909.3484	1738.7156	1536.75	656.9
909.4894	1740.4204	1541.95	658.75
909.6304	1742.1246	1530.7	647.5
909.7714	1743.8279	1523.65	644.3
909.9123	1745.5306	1523.65	642.4
910.0532	1747.2325	1527.45	644.65
910.1941	1748.9336	1516.45	635.15
910.335	1750.634	1514.1	629.1
910.4759	1752.3336	1516.7	634.2
910.6168	1754.0325	1515.4	634.65
910.7576	1755.7307	1511.65	629.2
910.8984	1757.4281	1512.4	631.7
911.0392	1759.1247	1517.7	626.55
911.18	1760.8206	1513.8	627.5
911.3208	1762.5158	1513.75	627.65
911.4615	1764.2102	1497.4	616.5
911.6022	1765.9039	1503.95	619.3
911.7429	1767.5968	1499.2	619.3
911.8836	1769.289	1499.05	616.4
912.0243	1770.9804	1497.25	614.7
912.1649	1772.6711	1502.85	621.95
912.3056	1774.361	1492.5	609.55
912.4462	1776.0502	1495.6	615.4
912.5868	1777.7386	1491.9	606.85
912.7274	1779.4263	1495.2	612.45
912.8679	1781.1132	1490.35	607.95
913.0084	1782.7994	1483.75	600.1
913.149	1784.4849	1481.4	600.75
913.2895	1786.1696	1503.15	602.4
913.4299	1787.8535	1472.55	591.9
913.5704	1789.5367	1483	600.35
913.7108	1791.2192	1475.9	596.6
913.8513	1792.9009	1484.4	588.9
913.9917	1794.5818	1470.35	588.5
914.132	1796.2621	1466	583.05
914.2724	1797.9415	1471.4	589.9
914.4128	1799.6202	1457.15	575.45
914.5531	1801.2982	1462.1	579.2
914.6934	1802.9755	1463.7	580.3
914.8337	1804.6519	1457.85	575.25
914.9739	1806.3277	1455.95	574.25
915.1142	1808.0027	1450.1	570.4
915.2544	1809.6769	1451.2	570.05
915.3946	1811.3504	1449.9	569.4
915.5348	1813.0231	1452.85	573.65
915.675	1814.6951	1444.2	562.65
915.8151	1816.3664	1451.95	569.65
915.9553	1818.0369	1446.05	564.35
916.0954	1819.7067	1444.45	562.65
916.2355	1821.3757	1438.35	551.8
916.3755	1823.044	1436.2	553.65
916.5156	1824.7115	1439	556.45
916.6556	1826.3783	1440	559.5
916.7956	1828.0443	1430.7	549.95
916.9356	1829.7096	1433.3	551.3
917.0756	1831.3741	1441.3	556.1
917.2155	1833.0379	1436.65	557.15
917.3555	1834.701	1430.1	548.5
917.4954	1836.3633	1434.75	550.9
917.6353	1838.0248	1432.1	548.45
917.7751	1839.6856	1422.65	540.05
917.915	1841.3457	1422.35	542.8
918.0548	1843.005	1423.45	541.1
918.1946	1844.6636	1423.65	542.55
918.3344	1846.3214	1419.35	538
918.4742	1847.9785	1419.45	537.3
918.6139	1849.6349	1414.95	532.25
918.7537	1851.2904	1436.8	545.85
918.8934	1852.9453	1419.8	538
919.0331	1854.5994	1411.9	529
919.1727	1856.2528	1419.45	529.45
919.3124	1857.9054	1418.85	533.55
919.452	1859.5572	1413	533.15
919.5916	1861.2083	1415.35	531.25
919.7312	1862.8587	1415.8	534.75
919.8708	1864.5084	1411.65	531.95
920.0103	1866.1572	1413.2	531.3
920.1498	1867.8054	1407.7	525.6
920.2893	1869.4528	1408.4	525.65
920.4288	1871.0994	1398.55	517.65
920.5683	1872.7453	1396.45	511.8
920.7077	1874.3905	1405.85	516.8
920.8471	1876.0349	1400.7	517.3
920.9865	1877.6786	1395.25	509.9
921.1259	1879.3215	1395.65	514.35
921.2653	1880.9637	1395.2	513.6
921.4046	1882.6051	1401.95	519.85
921.5439	1884.2458	1395.1	510.2
921.6832	1885.8858	1392.75	510.3
921.8225	1887.525	1398	514.4
921.9617	1889.1634	1386.4	505.2
922.101	1890.8011	1386.8	504.3
922.2402	1892.4381	1381.45	500.2
922.3794	1894.0743	1385.05	502.9
922.5185	1895.7098	1385.65	504.25
922.6577	1897.3446	1381.3	498.5
922.7968	1898.9786	1379.85	493.2
922.9359	1900.6118	1377.5	497
923.075	1902.2443	1374.95	489.95
923.214	1903.8761	1369.95	488.75
923.3531	1905.5071	1371.75	488.45
923.4921	1907.1374	1371.95	489.15
923.6311	1908.7669	1374.75	494.7
923.77	1910.3957	1368.3	485.6
923.909	1912.0237	1363.4	481
924.0479	1913.651	1368.7	485.7
924.1868	1915.2776	1356.55	476.8
924.3257	1916.9034	1356.35	475.45
924.4646	1918.5285	1358	476.55
924.6034	1920.1528	1357.3	473.95
924.7422	1921.7764	1354.4	472.35
924.881	1923.3992	1360.2	478.2
925.0198	1925.0213	1359	477.15
925.1586	1926.6427	1352.55	469
925.2973	1928.2633	1555.5	456.4
925.436	1929.8832	1358.4	474.1
925.5747	1931.5023	1346.85	464.75
925.7134	1933.1207	1344.95	463.5
925.852	1934.7383	1343.45	459.45
925.9906	1936.3552	1340.8	458.1
926.1292	1937.9714	1340.7	457.9
926.2678	1939.5868	1339.25	455.35
926.4064	1941.2015	1334.65	451.45
926.5449	1942.8154	1341.65	459.1
926.6834	1944.4286	1331.45	447.5
926.8219	1946.041	1348.3	440.7
926.9604	1947.6528	1330.9	442.65
927.0988	1949.2637	1331.3	450.9
927.2372	1950.8739	1325.1	441.35
927.3756	1952.4834	1324.2	442.7
927.514	1954.0921	1325.1	440.55
927.6523	1955.7001	1330.35	442.05
927.7907	1957.3074	1319.95	441.3
927.929	1958.9139	1314.55	434
928.0673	1960.5197	1324.15	441.2
928.2055	1962.1247	1316.25	436.4
928.3438	1963.729	1316.15	436.05
928.482	1965.3325	1330.55	425.4
928.6202	1966.9353	1314.9	435.8
928.7584	1968.5374	1310.6	427.5
928.8965	1970.1387	1319.25	437.5
929.0346	1971.7393	1306.7	422.55
929.1727	1973.3392	1310.5	429.35
929.3108	1974.9383	1301.65	423.35
929.4489	1976.5366	1305.8	424.2
929.5869	1978.1342	1304.5	423.55
929.7249	1979.7311	1300.9	418.6
929.8629	1981.3273	1299.85	419.65
930.0009	1982.9227	1301.3	418.85
930.1388	1984.5173	1296.5	417.2
930.2767	1986.1112	1300.7	419.65
930.4146	1987.7044	1291.8	410.75
930.5525	1989.2968	1296.35	415.2
930.6904	1990.8885	1299	416.45
930.8282	1992.4795	1295.2	412.45
930.966	1994.0697	1288.55	409.15
931.1038	1995.6592	1291.85	410.4
931.2415	1997.2479	1287.1	404.5
931.3793	1998.8359	1287.6	408.95
931.517	2000.4232	1286.8	406.75
931.6547	2002.0097	1279.35	402.4
931.7923	2003.5955	1282.4	402.5
931.93	2005.1805	1286.75	405.65
932.0676	2006.7648	1279.95	401.1
932.2052	2008.3484	1279.9	399
932.3427	2009.9312	1284.75	403.2
932.4803	2011.5133	1278.85	399.5
932.6178	2013.0946	1279.85	398.8
932.7553	2014.6752	1279.15	400.35
932.8928	2016.2551	1273.1	391.75
933.0302	2017.8342	1278.5	400.7
933.1676	2019.4126	1277.65	399.2
933.305	2020.9902	1273.6	395.35
933.4424	2022.5672	1271.3	390.75
933.5798	2024.1433	1268.75	383.7
933.7171	2025.7188	1265.75	388.8
933.8544	2027.2935	1267.65	386.8
933.9917	2028.8674	1268.65	388.15
934.129	2030.4406	1262.25	385.2
934.2662	2032.0131	1262.75	384.2
934.4034	2033.5849	1271.15	381.95
934.5406	2035.1559	1260.75	383.8
934.6778	2036.7261	1269.4	390.15
934.8149	2038.2957	1258.95	379.85
934.952	2039.8645	1261.55	381
935.0891	2041.4325	1267.45	383.95
935.2262	2042.9998	1259.9	380.95
935.3632	2044.5664	1264.45	383.2
935.5002	2046.1323	1255.95	375.25
935.6372	2047.6974	1254.15	375.1
935.7742	2049.2617	1252.35	374.6
935.9111	2050.8254	1288.25	375.45
936.048	2052.3883	1261.55	381.9
936.1849	2053.9504	1254	373.35
936.3218	2055.5118	1261.9	381.45
936.4586	2057.0725	1254.25	370.5
936.5955	2058.6325	1256	377.15
936.7323	2060.1917	1250.6	372.5
936.869	2061.7502	1254.05	371.9
937.0058	2063.3079	1248.45	370.55
937.1425	2064.8649	1250.25	365.65
937.2792	2066.4212	1249.65	369.45
937.4159	2067.9767	1255.65	377.2
937.5525	2069.5315	1242.15	361.55
937.6891	2071.0856	1250.2	371.1
937.8257	2072.6389	1247.45	366
937.9623	2074.1915	1237.1	360.1
938.0989	2075.7433	1243.95	363.3
938.2354	2077.2945	1239.45	360.55
938.3719	2078.8448	1237.4	359.15
938.5084	2080.3945	1236.7	355.6
938.6448	2081.9434	1237.95	357.3
938.7812	2083.4916	1237	357.25
938.9176	2085.039	1234.25	350.95
939.054	2086.5857	1239.55	357.6
939.1903	2088.1317	1233.85	353.9
939.3267	2089.677	1232.65	352.3
939.463	2091.2215	1229.15	350.3
939.5992	2092.7652	1228.55	345.4
939.7355	2094.3083	1238.6	358.2
939.8717	2095.8506	1230.3	350.45
940.0079	2097.3921	1230.45	348.75
940.1441	2098.933	1230.75	351.7
940.2802	2100.4731	1223.4	342.65
940.4163	2102.0124	1250.3	352.65
940.5524	2103.5511	1228.25	349.65
940.6885	2105.089	1225.9	343.8
940.8245	2106.6261	1232.65	351.75
940.9606	2108.1626	1233.45	354.6
941.0965	2109.6983	1260.15	350.4
941.2325	2111.2332	1223.6	342.5
941.3684	2112.7675	1228.05	346.75
941.5044	2114.301	1225.95	343.8
941.6403	2115.8337	1225.9	345.5
941.7761	2117.3657	1220.55	340.4
941.912	2118.897	1223.4	344.1
942.0478	2120.4276	1226.15	338.2
942.1835	2121.9575	1223	343.6
942.3193	2123.4866	1234.9	339.85
942.455	2125.0149	1220.25	338.8
942.5907	2126.5426	1215.25	335
942.7264	2128.0695	1221.6	336.7
942.8621	2129.5956	1213.85	335.9
942.9977	2131.1211	1223.2	338.65
943.1333	2132.6458	1216.45	336.75
943.2689	2134.1698	1215.4	334.9
943.4044	2135.693	1216.4	334.25
943.54	2137.2155	1218.3	335.45
943.6755	2138.7373	1212.55	332.7
943.8109	2140.2584	1214.5	335.6
943.9464	2141.7787	1217.4	331.95
944.0818	2143.2983	1208.1	327.85
944.2172	2144.8171	1211.95	334
944.3526	2146.3353	1208.65	327.6
944.4879	2147.8527	1206.95	329.4
944.6232	2149.3693	1205.25	324.2
944.7585	2150.8853	1210.25	330.45
944.8938	2152.4005	1209.3	327.4
945.029	2153.9149	1205.15	324.5
945.1642	2155.4287	1204.35	326
945.2994	2156.9417	1203.05	321.6
945.4346	2158.454	1206.85	325.9
945.5697	2159.9655	1203.7	322.55
945.7048	2161.4764	1206.55	326.4
945.8399	2162.9865	1200.05	317.9
945.9749	2164.4958	1203.15	321.4
946.1099	2166.0045	1201.75	319.05
946.2449	2167.5124	1198.45	319.25
946.3799	2169.0195	1193.1	313.45
946.5148	2170.526	1197.35	316.55
946.6498	2172.0317	1195.5	314.6
946.7846	2173.5367	1200.05	317.85
946.9195	2175.0409	1196.15	318.15
947.0543	2176.5445	1199.95	318.45
947.1891	2178.0473	1191	310.05
947.3239	2179.5494	1194.85	311.3
947.4587	2181.0507	1193.55	315
947.5934	2182.5513	1195.55	314.2
947.7281	2184.0512	1187.45	308.15
947.8628	2185.5504	1194.9	313.15
947.9974	2187.0488	1200.2	319.65
948.132	2188.5465	1187.6	308.3
948.2666	2190.0435	1189.55	307.75
948.4012	2191.5397	1184.3	304.5
948.5357	2193.0353	1190.8	311.65
948.6702	2194.5301	1190.7	309.5
948.8047	2196.0241	1189.9	309.55
948.9392	2197.5175	1185.55	306.85
949.0736	2199.0101	1192	308.65
949.208	2200.502	1178.95	300.35
949.3424	2201.9931	1185.15	304.75
949.4767	2203.4835	1185	304.45
949.611	2204.9733	1197.05	300.2
949.7453	2206.4622	1183.85	305.5
949.8796	2207.9505	1187.2	303.2
950.0138	2209.438	1176.9	298.3
950.148	2210.9248	1175.95	295.3
950.2822	2212.4109	1179.4	300.5
950.4164	2213.8962	1180.9	298.55
950.5505	2215.3809	1174.2	290.85
950.6846	2216.8648	1181.15	299.85
950.8186	2218.3479	1183.9	298
950.9527	2219.8304	1177.1	294.6
951.0867	2221.3121	1175.75	291.95
951.2207	2222.7931	1167.95	289.35
951.3546	2224.2733	1173	292.55
951.4886	2225.7529	1168.95	288.45
951.6225	2227.2317	1167.3	285.6
951.7563	2228.7098	1163.1	283
951.8902	2230.1872	1166.4	287.6
952.024	2231.6638	1168.15	288.25
952.1578	2233.1397	1165.25	280.95
952.2916	2234.6149	1164.25	284.45
952.4253	2236.0894	1162.1	281.9
952.559	2237.5632	1175.95	284.65
952.6927	2239.0362	1160.9	281.9
952.8263	2240.5085	1158.95	278.7
952.9599	2241.9801	1160.7	280
953.0935	2243.4509	1159.35	277.95
953.2271	2244.921	1155.8	275.1
953.3606	2246.3904	1160.6	279.55
953.4941	2247.8591	1150.5	270.45
953.6276	2249.3271	1152.6	272.8
953.7611	2250.7943	1150.4	269.85
953.8945	2252.2608	1152.35	271.7
954.0279	2253.7266	1148.65	269.75
954.1612	2255.1917	1151.45	270.4
954.2946	2256.656	1148	268.75
954.4279	2258.1197	1149.3	272.7
954.5612	2259.5826	1149.1	268.45
954.6944	2261.0447	1151.1	270.9
954.8276	2262.5062	1147.65	265.35
954.9608	2263.9669	1146.95	265.2
955.094	2265.4269	1146.85	267.15
955.2271	2266.8862	1145.7	265.25
955.3602	2268.3448	1146.25	265.7
955.4933	2269.8026	1144.5	263.6
955.6264	2271.2598	1140.95	261.2
955.7594	2272.7162	1136.6	256.35
955.8924	2274.1719	1139.8	258.75
956.0253	2275.6268	1141.9	263.5
956.1583	2277.0811	1139.15	260.25
956.2912	2278.5346	1139.2	261.9
956.4241	2279.9874	1144.25	265.6
956.5569	2281.4395	1139.55	260.05
956.6897	2282.8908	1140.7	255.1
956.8225	2284.3414	1144.45	261.65
956.9553	2285.7914	1138.65	260.5
957.088	2287.2406	1147.1	263.95
957.2207	2288.689	1136.65	255.4
957.3534	2290.1368	1142.35	260.15
957.486	2291.5838	1138.55	256.9
957.6186	2293.0302	1136.95	254.35
957.7512	2294.4758	1136.7	258
957.8838	2295.9206	1137.85	254.55
958.0163	2297.3648	1139	258.6
958.1488	2298.8082	1137.9	257.5
958.2813	2300.251	1135.05	255.9
958.4137	2301.693	1133.4	251.15
958.5461	2303.1343	1135.9	254.75
958.6785	2304.5748	1131	252.7
958.8108	2306.0147	1127.8	246.1
958.9432	2307.4538	1138.4	255.5
959.0754	2308.8922	1133.25	255.35
959.2077	2310.3299	1134.2	254.9
959.3399	2311.7669	1131.85	253.3
959.4721	2313.2031	1131.4	252.85
959.6043	2314.6387	1129.5	247.25
959.7365	2316.0735	1126.15	246.5
959.8686	2317.5076	1129.15	246.9
960.0006	2318.941	1126.45	247.55
960.1327	2320.3737	1124.6	243.7
960.2647	2321.8056	1131.25	247.05
960.3967	2323.2369	1129.35	248.55
960.5287	2324.6674	1128.85	244.35
960.6606	2326.0972	1133.85	252.4
960.7925	2327.5263	1132.8	253.25
960.9244	2328.9547	1136.6	254.7
961.0562	2330.3823	1131.95	251.1
961.1881	2331.8092	1137.1	252.3
961.3198	2333.2355	1124.3	246
961.4516	2334.661	1121.1	240.5
961.5833	2336.0858	1125	242.8
961.715	2337.5098	1121.3	242
961.8467	2338.9332	1117.6	236.45
961.9783	2340.3558	1123.45	239.6
962.1099	2341.7778	1112.9	234.1
962.2415	2343.199	1118.2	233.8
962.373	2344.6195	1116.65	236.75
962.5045	2346.0393	1115.25	235.35
962.636	2347.4583	1122.75	241.4
962.7675	2348.8767	1123.35	242.15
962.8989	2350.2943	1115	233.8
963.0303	2351.7113	1116.85	235.8
963.1617	2353.1275	1115.95	233.9
963.293	2354.543	1120.7	229.9
963.4243	2355.9578	1113.7	233.55
963.5556	2357.3718	1112.35	231
963.6868	2358.7852	1114.6	231.05
963.818	2360.1978	1115.65	234.9
963.9492	2361.6098	1116.2	235.65
964.0803	2363.021	1115.45	231.65
964.2114	2364.4315	1109	227.9
964.3425	2365.8413	1111.7	229.45
964.4736	2367.2504	1109.95	229.8
964.6046	2368.6587	1113.25	232
964.7356	2370.0664	1108.8	229.35
964.8666	2371.4733	1110.05	227.25
964.9975	2372.8795	1110.55	229.55
965.1284	2374.285	1106	225.85
965.2593	2375.6899	1109.9	231.05
965.3901	2377.0939	1107	227.95
965.5209	2378.4973	1106.15	225.05
965.6517	2379.9	1106.1	225.8
965.7825	2381.3019	1107.95	227.05
965.9132	2382.7032	1107.25	228.25
966.0439	2384.1037	1104.1	223.6
966.1745	2385.5035	1103.35	222.5
966.3051	2386.9027	1106.3	223.3
966.4357	2388.3011	1102.5	217.35
966.5663	2389.6987	1105.3	224.3
966.6968	2391.0957	1096.6	214.7
966.8273	2392.492	1094.15	213.25
966.9578	2393.8876	1093.15	210.35
967.0882	2395.2824	1093.7	214.35
967.2186	2396.6765	1098.2	218
967.349	2398.07	1098	218.55
967.4793	2399.4627	1093.85	211.05
967.6097	2400.8547	1095.8	214.05
967.7399	2402.246	1104.9	218.45
967.8702	2403.6366	1094.25	214.15
968.0004	2405.0265	1089.45	208.4
968.1306	2406.4156	1095	210.9
968.2607	2407.8041	1095.9	212.3
968.3909	2409.1918	1094.4	210.85
968.521	2410.5789	1092.95	211.4
968.651	2411.9652	1094	206.9
968.781	2413.3508	1091.55	210.75
968.911	2414.7358	1092.8	210.45
969.041	2416.12	1087.75	208.2
969.1709	2417.5035	1088.85	208.55
969.3008	2418.8863	1086.85	204.15
969.4307	2420.2684	1089.85	209.1
969.5606	2421.6497	1089.6	207.45
969.6904	2423.0304	1082.55	200.05
969.8201	2424.4104	1085.95	203.4
969.9499	2425.7896	1088.3	205.15
970.0796	2427.1682	1086.5	205.3
970.2093	2428.546	1081.75	199
970.3389	2429.9232	1086.4	204.05
970.4685	2431.2996	1081.15	200.05
970.5981	2432.6753	1084.05	201.95
970.7277	2434.0503	1083.55	203.85
970.8572	2435.4246	1077.95	197.45
970.9867	2436.7982	1084.6	201.05
971.1161	2438.1711	1083.8	205.7
971.2456	2439.5433	1082.05	198.55
971.375	2440.9148	1083.9	202.35
971.5043	2442.2856	1075.25	194.1
971.6336	2443.6557	1080.3	197.95
971.7629	2445.025	1076.75	196.55
971.8922	2446.3937	1081.65	200.95
972.0214	2447.7617	1076.7	193.65
972.1506	2449.1289	1074.2	192.1
972.2798	2450.4955	1081.5	196.65
972.4089	2451.8613	1076.2	196.45
972.538	2453.2265	1075.9	193.95
972.6671	2454.5909	1080.6	198.6
972.7961	2455.9546	1074.7	195.45
972.9251	2457.3177	1075.7	194.35
973.0541	2458.68	1076.6	192.8
973.1831	2460.0416	1072.1	190.75
973.312	2461.4025	1071.3	188.4
973.4408	2462.7627	1085.3	193.2
973.5697	2464.1222	1071.95	192.35
973.6985	2465.4811	1074.9	192
973.8273	2466.8392	1069.5	188
973.956	2468.1966	1079.25	198.2
974.0847	2469.5533	1075.95	192.6
974.2134	2470.9093	1078.45	196.75
974.3421	2472.2645	1071.55	187.85
974.4707	2473.6191	1074.45	193.2
974.5993	2474.973	1073.05	192.85
974.7278	2476.3262	1073.5	191.15
974.8563	2477.6787	1070.4	189.75
974.9848	2479.0305	1072.3	190.25
975.1132	2480.3816	1073.65	192.95
975.2417	2481.7319	1072	189.55
975.37	2483.0816	1072	190.8
975.4984	2484.4306	1072.35	190.1
975.6267	2485.7789	1072.75	192.25
975.755	2487.1264	1071.65	189.1
975.8833	2488.4733	1067.75	188.35
976.0115	2489.8195	1078.9	189.05
976.1397	2491.165	1071	188.4
976.2678	2492.5097	1071.55	190.55
976.3959	2493.8538	1067.35	188.85
976.524	2495.1972	1067.6	185.4
976.6521	2496.5398	1068.35	184.2
976.7801	2497.8818	1071.15	187.95
976.9081	2499.2231	1072.35	192.15
977.036	2500.5637	1062.95	183.15
977.164	2501.9035	1066.65	184.55
977.2918	2503.2427	1074	190.9
977.4197	2504.5812	1062.75	180.65
977.5475	2505.919	1065.5	182.8
977.6753	2507.256	1062	181.2
977.8031	2508.5924	1062.5	181.6
977.9308	2509.9281	1071.4	184.55
978.0585	2511.2631	1064.75	183.9
978.1861	2512.5974	1062.6	180.8
978.3137	2513.9309	1058.9	178.85
978.4413	2515.2638	1094.75	179
978.5689	2516.596	1065	184.55
978.6964	2517.9275	1057.05	173.85
978.8239	2519.2583	1057	175.05
978.9513	2520.5884	1062.25	179.85
979.0788	2521.9178	1062.5	182.9
979.2062	2523.2465	1058.05	175.35
979.3335	2524.5745	1061.4	180.7
979.4608	2525.9018	1062.85	181.5
979.5881	2527.2284	1057.25	179.6
979.7154	2528.5543	1055.9	176.5
979.8426	2529.8796	1060.8	181.75
979.9698	2531.2041	1059.2	181.95
980.0969	2532.5279	1057.35	176.1
980.224	2533.851	1055.8	176.05
980.3511	2535.1735	1054.25	173.9
980.4781	2536.4952	1059.15	179.35
980.6052	2537.8163	1054.95	172.1
980.7321	2539.1366	1051.55	171.55
980.8591	2540.4562	1053.95	171.6
980.986	2541.7752	1049.6	169.05
981.1129	2543.0935	1051.9	170.85
981.2397	2544.411	1053.9	172.4
981.3665	2545.7279	1052.4	172.95
981.4933	2547.0441	1050.9	169.85
981.62	2548.3596	1054.95	170.85
981.7467	2549.6744	1053.3	173.15
981.8734	2550.9885	1060.2	171.55
982.0001	2552.3019	1051.35	173.2
982.1267	2553.6146	1050.15	167
982.2532	2554.9266	1049.55	167.7
982.3798	2556.2379	1053.1	171.6
982.5063	2557.5485	1047.85	167.55
982.6327	2558.8585	1055.5	167.4
982.7592	2560.1677	1048.3	164.7
982.8856	2561.4762	1047.65	167.1
983.0119	2562.7841	1050.55	167.75
983.1383	2564.0913	1045.8	165.25
983.2646	2565.3977	1047.6	165.35
983.3908	2566.7035	1044.15	162.8
983.517	2568.0086	1044.85	161.9
983.6432	2569.313	1050.35	169.95
983.7694	2570.6167	1050.5	166.15
983.8955	2571.9197	1041.3	161.65
984.0216	2573.222	1051.25	167.05
984.1476	2574.5236	1052.5	172.15
984.2737	2575.8246	1048.05	164.5
984.3996	2577.1248	1052.7	168
984.5256	2578.4244	1045.9	166
984.6515	2579.7232	1043.25	163.85
984.7774	2581.0214	1072.6	163.35
984.9032	2582.3189	1048.95	170
985.029	2583.6157	1051.35	164.9
985.1548	2584.9118	1045.8	166.9
985.2806	2586.2072	1044.85	163.85
985.4063	2587.5019	1042.75	163.45
985.5319	2588.7959	1046.05	164.15
985.6576	2590.0893	1051	168.7
985.7832	2591.3819	1048.25	168
985.9087	2592.6739	1047.85	167.1
986.0343	2593.9652	1049.8	166.25
986.1597	2595.2557	1051	171.4
986.2852	2596.5456	1050.35	169.15
986.4106	2597.8348	1047.9	167.55
986.536	2599.1234	1049.7	169.45
986.6614	2600.4112	1051.15	168.5
986.7867	2601.6983	1056.15	171.9
986.912	2602.9848	1049.55	169.5
987.0372	2604.2705	1058.7	169.3
987.1624	2605.5556	1048.7	168.4
987.2876	2606.84	1047	166.7
987.4128	2608.1237	1051.2	168.7
987.5379	2609.4067	1051.45	169.4
987.6629	2610.689	1062.95	174
987.788	2611.9707	1047.65	163.75
987.913	2613.2516	1050.5	164.55
988.0379	2614.5319	1048.3	166.5
988.1629	2615.8115	1043.55	164.4
988.2878	2617.0903	1044.95	161.5
988.4126	2618.3685	1044.85	164.35
988.5375	2619.6461	1043.7	160.7
988.6622	2620.9229	1044.7	166.1
988.787	2622.199	1041.7	159.2
988.9117	2623.4745	1041.25	158.35
989.0364	2624.7493	1043.95	164.65
989.161	2626.0234	1040.65	160.85
989.2857	2627.2968	1040.65	158.25
989.4102	2628.5695	1041.8	159.05
989.5348	2629.8415	1038.4	156.65
989.6593	2631.1128	1042.45	160
989.7837	2632.3835	1042.75	159.5
989.9082	2633.6535	1038.9	159.15
990.0326	2634.9228	1038.65	155.25
990.1569	2636.1914	1039.65	159.35
990.2812	2637.4593	1038.75	157.1
990.4055	2638.7265	1037.4	156.3
990.5298	2639.9931	1033.7	153.7
990.654	2641.259	1038.45	158.6
990.7782	2642.5242	1036.9	155.85
990.9023	2643.7887	1036.7	157.25
991.0264	2645.0525	1036.2	156.3
991.1505	2646.3156	1036.05	155.6
991.2745	2647.5781	1030.6	151.15
991.3985	2648.8398	1026.35	144.9
991.5225	2650.1009	1069.15	149.95
991.6464	2651.3613	1028.05	148.2
991.7703	2652.6211	1031.85	149.85
991.8942	2653.8801	1030.1	151.75
992.018	2655.1385	1030.9	145.6
992.1418	2656.3961	1026.85	145.55
992.2655	2657.6531	1027.9	146.35
992.3892	2658.9094	1026.95	145.35
992.5129	2660.1651	1023.4	142.5
992.6366	2661.42	1027.2	145.6
992.7602	2662.6743	1026.3	145.2
992.8837	2663.9279	1026	145.75
993.0073	2665.1808	1030.75	148.65
993.1307	2666.433	1029.5	147.25
993.2542	2667.6846	1030.2	151.5
993.3776	2668.9354	1033.7	149
993.501	2670.1856	1032.8	151.7
993.6244	2671.4351	1035.85	155.8
993.7477	2672.6839	1035.7	155.3
993.8709	2673.9321	1032.35	150.95
993.9942	2675.1795	1035.15	155.1
994.1174	2676.4263	1038.4	160.25
994.2405	2677.6724	1037.5	159.35
994.3637	2678.9179	1038.15	155.35
994.4868	2680.1626	1035.05	156.7
994.6098	2681.4067	1034.7	152.9
994.7328	2682.6501	1032.15	151.25
994.8558	2683.8928	1032.85	149.95
994.9788	2685.1348	1032.65	153.8
995.1017	2686.3761	1032.05	151.35
995.2245	2687.6168	1027.55	147.7
995.3474	2688.8568	1029.95	150.15
995.4702	2690.0961	1022.75	144.5
995.5929	2691.3348	1023.3	140.6
995.7156	2692.5727	1021.25	142.45
995.8383	2693.81	1022.05	140.1
995.961	2695.0466	1021.55	141.6
996.0836	2696.2826	1022	138.7
996.2062	2697.5178	1040.35	140.35
996.3287	2698.7524	1023.1	141.85
996.4512	2699.9863	1027.3	145.6
996.5737	2701.2195	1023.35	143.15
996.6961	2702.452	1028.3	146.25
996.8185	2703.6839	1029.7	148.3
996.9408	2704.9151	1026.7	149.05
997.0631	2706.1456	1028.15	148.45
997.1854	2707.3755	1033.25	150.15
997.3077	2708.6046	1035.45	152.85
997.4299	2709.8331	1035.4	153.5
997.552	2711.0609	1033.95	154.2
997.6742	2712.2881	1034.85	152.8
997.7963	2713.5145	1041.05	157.85
997.9183	2714.7403	1043.75	163.95
998.0403	2715.9654	1040	159.6
998.1623	2717.1899	1064.5	169.2
998.2842	2718.4136	1050.55	169.45
998.4062	2719.6367	1054.35	174
998.528	2720.8591	1064.75	178.5
998.6498	2722.0809	1063.45	182.5
998.7716	2723.3019	1067.2	182.45
998.8934	2724.5223	1064.9	183.8
999.0151	2725.7421	1069.15	186.75
999.1368	2726.9611	1063.85	181.8
999.2584	2728.1795	1061.05	176.4
999.38	2729.3972	1051.1	171.45
999.5016	2730.6142	1056.25	166.75
999.6231	2731.8306	1044.6	162.25
999.7446	2733.0462	1043.8	161.65
999.8661	2734.2612	1040.4	154.6
999.9875	2735.4756	1034.4	154.45
1000.1089	2736.6892	1035.05	153.5
1000.2302	2737.9022	1024.95	146
1000.3515	2739.1145	1029.85	148.1
1000.4728	2740.3262	1035.7	145.6
1000.594	2741.5372	1026.45	146.45
1000.7152	2742.7475	1023.6	144.85
1000.8363	2743.9571	1021.85	139.05
1000.9575	2745.1661	1023.3	139.45
1001.0785	2746.3744	1020.35	137.95
1001.1996	2747.582	1017.1	136.6
1001.3206	2748.7889	1014.3	132
1001.4415	2749.9952	1010.65	130
1001.5625	2751.2008	1011.3	131.3
1001.6833	2752.4057	1011.3	129.05
1001.8042	2753.61	1006.1	125.65
1001.925	2754.8136	1007.3	125.55
1002.0458	2756.0165	1009.7	128.7
1002.1665	2757.2188	1003.55	124.65
1002.2872	2758.4204	1004.5	121.85
1002.4078	2759.6213	1005.3	120.8
1002.5285	2760.8215	1009.75	124.95
1002.649	2762.0211	1010.65	127.55
1002.7696	2763.22	1011	128.4
1002.8901	2764.4182	1008.2	126.75
1003.0106	2765.6158	1003.65	121.75
1003.131	2766.8127	1003.45	121.75
1003.2514	2768.009	1001.35	123
1003.3717	2769.2045	1004.25	121.4
1003.492	2770.3994	998.15	117.3
1003.6123	2771.5936	1000.3	117.4
1003.7325	2772.7872	999.6	121.15
1003.8527	2773.9801	997.15	115.6
1003.9729	2775.1723	1009.85	114.75
1004.093	2776.3639	998.65	118
1004.2131	2777.5548	998.7	117.35
1004.3331	2778.745	995.1	112.95
1004.4531	2779.9346	994.55	113.55
1004.5731	2781.1235	994.45	112.35
1004.693	2782.3117	997.8	118.95
1004.8129	2783.4992	993.15	113.35
1004.9328	2784.6861	999.5	121.15
1005.0526	2785.8723	999.8	120.2
1005.1723	2787.0579	1000	119.35
1005.2921	2788.2428	996.8	116.8
1005.4118	2789.427	997.45	118.05
1005.5314	2790.6106	998.85	119.35
1005.651	2791.7935	997.75	115.6
1005.7706	2792.9757	998.25	119.1
1005.8902	2794.1573	1002	117.9
1006.0097	2795.3382	998.15	117.6
1006.1291	2796.5184	999.15	120.9
1006.2485	2797.698	1003.6	123.95
1006.3679	2798.8769	1003.25	123.55
1006.4873	2800.0551	1004.85	127.25
1006.6066	2801.2327	1011	127.65
1006.7258	2802.4096	1010.05	130.95
1006.8451	2803.5859	1008.55	129.4
1006.9642	2804.7615	1009.3	127.85
1007.0834	2805.9364	1011.05	130.85
1007.2025	2807.1106	1014	135.4
1007.3216	2808.2842	1021.95	141.8
1007.4406	2809.4572	1023.3	142.8
1007.5596	2810.6294	1027.8	145.2
1007.6785	2811.801	1030.75	153
1007.7975	2812.972	1036.55	158.15
1007.9163	2814.1423	1042.1	161.35
1008.0352	2815.3119	1047.45	169.4
1008.154	2816.4808	1055.9	175.5
1008.2727	2817.6491	1071.5	192.1
1008.3914	2818.8167	1076.95	198.65
1008.5101	2819.9837	1101.85	217.95
1008.6288	2821.15	1111.8	232.25
1008.7474	2822.3157	1135.95	255.6
1008.8659	2823.4807	1156.9	278.7
1008.9844	2824.645	1177.75	296.35
1009.1029	2825.8086	1206.85	326.95
1009.2214	2826.9716	1237.15	359.7
1009.3398	2828.134	1264.3	384.35
1009.4581	2829.2957	1290.05	410.95
1009.5764	2830.4567	1311.9	434.4
1009.6947	2831.617	1322.95	440.8
1009.813	2832.7767	1329.85	451.75
1009.9312	2833.9358	1328.75	452.25
1010.0493	2835.0941	1332.1	449.3
1010.1675	2836.2519	1316.35	435.7
1010.2855	2837.4089	1306.7	426.6
1010.4036	2838.5653	1290.9	411.75
1010.5216	2839.7211	1283.65	404.85
1010.6396	2840.8761	1276.25	395.95
1010.7575	2842.0306	1267.5	387.1
1010.8754	2843.1843	1276.75	397.3
1010.9932	2844.3374	1273.4	393.45
1011.111	2845.4899	1279.05	399.05
1011.2288	2846.6417	1290.95	411.85
1011.3465	2847.7928	1293.8	413.7
1011.4642	2848.9433	1299.7	421.6
1011.5818	2850.0931	1302	423.45
1011.6995	2851.2422	1307.95	425.9
1011.817	2852.3907	1311.4	430.3
1011.9345	2853.5385	1306.8	428.3
1012.052	2854.6857	1338.65	433.75
1012.1695	2855.8323	1320.7	440.35
1012.2869	2856.9781	1332.45	452.3
1012.4042	2858.1233	1335.85	457.55
1012.5216	2859.2679	1349	470.9
1012.6389	2860.4118	1366.55	487.75
1012.7561	2861.555	1385.35	500.45
1012.8733	2862.6976	1390.3	509.5
1012.9905	2863.8395	1393.6	515.65
1013.1076	2864.9808	1400.9	523.9
1013.2247	2866.1214	1407.4	528.95
1013.3417	2867.2614	1418.8	538.75
1013.4587	2868.4007	1428.95	546.9
1013.5757	2869.5393	1427.65	546.75
1013.6926	2870.6773	1439.8	556.05
1013.8095	2871.8146	1449	567.85
1013.9263	2872.9513	1463.25	580.45
1014.0431	2874.0874	1454	575.55
1014.1599	2875.2227	1465.8	585.9
1014.2766	2876.3574	1474.7	594.3
1014.3933	2877.4915	1480.9	600.75
1014.51	2878.6249	1493.65	614.1
1014.6266	2879.7577	1497.35	616.4
1014.7431	2880.8898	1513.1	623
1014.8596	2882.0212	1509.45	631.5
1014.9761	2883.152	1523.85	643.85
1015.0925	2884.2821	1534.1	655.55
1015.2089	2885.4116	1542.6	663.85
1015.3253	2886.5405	1551.5	672.75
1015.4416	2887.6686	1554.15	672.3
1015.5579	2888.7962	1553.05	674.8
1015.6741	2889.923	1561	683.3
1015.7903	2891.0493	1551.6	672.9
1015.9065	2892.1748	1547.75	668.15
1016.0226	2893.2997	1551.5	671.3
1016.1387	2894.424	1546.9	669.55
1016.2547	2895.5476	1543.7	663.3
1016.3707	2896.6706	1543.1	665.65
1016.4866	2897.7929	1552.65	672.75
1016.6025	2898.9145	1555.1	677.4
1016.7184	2900.0355	1556.65	676.3
1016.8342	2901.1559	1556.75	676.95
1016.95	2902.2756	1549.95	667.3
1017.0658	2903.3946	1542.65	664.65
1017.1815	2904.513	1535.1	653.25
1017.2971	2905.6308	1531.6	652.85
1017.4127	2906.7479	1531.65	651.8
1017.5283	2907.8643	1531.9	651.35
1017.6439	2908.9801	1534.25	654.5
1017.7594	2910.0953	1529.85	650.75
1017.8748	2911.2098	1532.5	651
1017.9902	2912.3236	1533.6	645.85
1018.1056	2913.4368	1535.85	654.05
1018.2209	2914.5494	1518.25	638.8
1018.3362	2915.6613	1519.4	633.9
1018.4515	2916.7725	1507.9	624.3
1018.5667	2917.8831	1506.35	625.95
1018.6819	2918.9931	1489.65	606.9
1018.797	2920.1024	1479.25	597.7
1018.9121	2921.211	1473.4	595
1019.0271	2922.319	1460.25	582.85
1019.1421	2923.4264	1448.15	569.35
1019.2571	2924.5331	1459.1	581.5
1019.372	2925.6391	1451.6	571.35
1019.4869	2926.7445	1453.05	573.55
1019.6017	2927.8493	1457.85	579.45
1019.7165	2928.9534	1459	577.05
1019.8313	2930.0569	1464.3	581.85
1019.946	2931.1597	1470.05	587.15
1020.0606	2932.2619	1474.1	595.3
1020.1753	2933.3634	1468.7	588.6
1020.2899	2934.4643	1492.55	605.8
1020.4044	2935.5645	1485.25	602
1020.5189	2936.6641	1485.9	601.85
1020.6334	2937.763	1497.15	617.95
1020.7478	2938.8613	1492.6	611.9
1020.8622	2939.959	1479.95	596.4
1020.9765	2941.056	1468.15	588.65
1021.0908	2942.1523	1448.8	568.2
1021.2051	2943.248	1429.6	550.85
1021.3193	2944.3431	1399.65	519.6
1021.4334	2945.4375	1374.3	494.4
1021.5476	2946.5313	1346.3	468.45
1021.6617	2947.6244	1320.75	441.6
1021.7757	2948.7169	1301.85	420.3
1021.8897	2949.8087	1274.6	396
1022.0037	2950.8999	1249.7	369.65
1022.1176	2951.9904	1229.65	351.05
1022.2315	2953.0803	1210.75	332.3
1022.3453	2954.1696	1201.45	322.65
1022.4591	2955.2582	1194	314.65
1022.5728	2956.3462	1183.9	305.4
1022.6865	2957.4335	1184.4	303.35
1022.8002	2958.5202	1174.9	294.2
1022.9138	2959.6062	1174.95	294.45
1023.0274	2960.6916	1180.25	300.9
1023.141	2961.7764	1176	295.75
1023.2545	2962.8605	1172.6	292.8
1023.3679	2963.9439	1173.25	295.55
1023.4813	2965.0267	1172.75	291.35
1023.5947	2966.1089	1192	291.8
1023.708	2967.1905	1166.35	287.25
1023.8213	2968.2714	1162.85	283.4
1023.9346	2969.3516	1164.5	283.45
1024.0478	2970.4312	1166.45	278.9
1024.1609	2971.5102	1157.5	280.8
1024.274	2972.5885	1157.1	277.65
1024.3871	2973.6662	1162.7	278.15
1024.5002	2974.7432	1158.05	279.15
1024.6132	2975.8196	1160.75	281.5
1024.7261	2976.8954	1157.45	280.15
1024.839	2977.9705	1165	284.7
1024.9519	2979.045	1159.2	280.3
1025.0647	2980.1188	1157	276.55
1025.1775	2981.192	1157.05	277.7
1025.2902	2982.2645	1155.35	275.35
1025.4029	2983.3364	1146.8	266.1
1025.5156	2984.4077	1135.45	257.3
1025.6282	2985.4783	1135.45	250.3
1025.7407	2986.5483	1117.45	240
1025.8532	2987.6177	1109.45	230.9
1025.9657	2988.6864	1104.4	224.05
1026.0782	2989.7545	1102.35	222.2
1026.1906	2990.8219	1094.3	217.3
1026.3029	2991.8887	1086.4	205.9
1026.4152	2992.9548	1075.25	194.75
1026.5275	2994.0204	1066.15	189.25
1026.6397	2995.0852	1051.1	171.3
1026.7519	2996.1495	1048.35	167.25
1026.864	2997.2131	1039.35	159.85
1026.9761	2998.276	1028.3	148.15
1027.0882	2999.3383	1021.05	141.75
1027.2002	3000.4	1017.75	140.05
1027.3122	3001.4611	1007.15	127.85
1027.4241	3002.5215	1003.8	122.95
1027.536	3003.5812	995.2	115.55
1027.6478	3004.6404	989.4	109.95
1027.7596	3005.6989	988.1	106.85
1027.8714	3006.7567	987.55	110.1
1027.9831	3007.8139	1019.75	107.9
1028.0947	3008.8705	982.4	103.65
1028.2064	3009.9264	980.5	100.15
1028.3179	3010.9818	974.75	93.9
1028.4295	3012.0364	975.35	96.25
1028.541	3013.0905	973	94.6
1028.6524	3014.1439	973.25	95.1
1028.7638	3015.1966	966.95	88.1
1028.8752	3016.2487	969.5	89.95
1028.9865	3017.3002	970.95	86.25
1029.0978	3018.3511	964.9	87.05
1029.209	3019.4013	966.4	87.3
1029.3202	3020.4509	962.1	83.95
1029.4314	3021.4998	962.55	84
1029.5425	3022.5481	960.65	84.05
1029.6535	3023.5958	963.5	86.6
1029.7645	3024.6428	965.2	83.1
1029.8755	3025.6892	959.3	82.2
1029.9864	3026.735	960.8	79.25
1030.0973	3027.7802	963.15	83.6
1030.2082	3028.8247	958.55	80.15
1030.319	3029.8685	960.2	80.35
1030.4297	3030.9118	957.9	80.2
1030.5404	3031.9544	957.55	78.8
1030.6511	3032.9963	958.4	78
1030.7617	3034.0376	959	79.2
1030.8723	3035.0783	963.05	79.8
1030.9829	3036.1184	960	81.65
1031.0934	3037.1578	960.35	82.7
1031.2038	3038.1966	962.75	82.85
1031.3142	3039.2348	960.45	83.7
1031.4246	3040.2723	969.5	81.4
1031.5349	3041.3092	961.45	84.45
1031.6452	3042.3455	961.75	82.65
1031.7554	3043.3811	964.3	84.35
1031.8656	3044.4161	961.55	83.1
1031.9758	3045.4505	961.15	84.65
1032.0859	3046.4842	963.6	82.75
1032.1959	3047.5173	961.45	83.7
1032.3059	3048.5498	965.7	86.1
1032.4159	3049.5816	962.75	86.6
1032.5258	3050.6128	963.65	85.7
1032.6357	3051.6434	965.2	84.5
1032.7455	3052.6734	962.95	83
1032.8553	3053.7027	964.25	85.25
1032.9651	3054.7314	961.85	85.1
1033.0748	3055.7594	964.4	85.35
1033.1845	3056.7868	967.05	87.3
1033.2941	3057.8136	966.65	88.75
1033.4037	3058.8398	965.75	88.05
1033.5132	3059.8653	968.9	88.7
1033.6227	3060.8902	965.5	86.5
1033.7321	3061.9145	969	89.85
1033.8415	3062.9381	971.75	94.15
1033.9509	3063.9612	989.6	93.55
1034.0602	3064.9835	973	93.85
1034.1694	3066.0053	973.9	93.8
1034.2787	3067.0264	974.6	96.55
1034.3878	3068.0469	969.9	89.9
1034.497	3069.0668	969.7	90.4
1034.6061	3070.086	969.55	91.05
1034.7151	3071.1046	968.7	90.75
1034.8241	3072.1226	969	88.3
1034.9331	3073.1399	966.65	87.15
1035.042	3074.1567	965.95	87
1035.1508	3075.1727	967.05	86.7
1035.2597	3076.1882	958.95	79.8
1035.3684	3077.203	957.85	79.1
1035.4772	3078.2173	961.85	81.3
1035.5859	3079.2308	958.6	76.85
1035.6945	3080.2438	957.25	74.6
1035.8031	3081.2561	951.35	74.4
1035.9117	3082.2678	945.45	66.65
1036.0202	3083.2789	947.55	68.05
1036.1286	3084.2893	943.65	64.95
1036.2371	3085.2991	947.75	68.25
1036.3454	3086.3083	948.8	66.2
1036.4538	3087.3169	944.1	61.9
1036.562	3088.3248	940.65	61.4
1036.6703	3089.3321	943.3	63.1
1036.7785	3090.3388	939.6	62
1036.8866	3091.3449	940.85	61.5
1036.9948	3092.3503	938.4	56.4
1037.1028	3093.3551	933.95	55.45
1037.2108	3094.3593	938.4	60.8
1037.3188	3095.3629	935.35	57.25
1037.4267	3096.3658	936.9	56.55
1037.5346	3097.3681	935.3	53.45
1037.6425	3098.3698	936.3	57.45
1037.7503	3099.3708	935.5	54.05
1037.858	3100.3713	932.45	54
1037.9657	3101.3711	934.05	55.55
1038.0734	3102.3702	1067.9	52.75
1038.181	3103.3688	932.3	49.15
1038.2886	3104.3667	927.15	50.65
1038.3961	3105.364	927.45	48.75
1038.5036	3106.3607	929.05	47.65
1038.611	3107.3568	931.8	50.1
1038.7184	3108.3522	924.35	46.2
1038.8257	3109.347	924.75	43.95
1038.933	3110.3412	929.15	46.4
1039.0403	3111.3348	925.25	47.5
1039.1475	3112.3277	923.8	43.95
1039.2547	3113.32	922.85	45.65
1039.3618	3114.3117	921.45	43.2
1039.4689	3115.3028	921.25	41.65
1039.5759	3116.2932	925.05	44.05
1039.6829	3117.2831	928.2	43.7
1039.7898	3118.2723	920.65	40.75
1039.8967	3119.2608	920.55	41.85
1040.0035	3120.2488	920.65	41.95
1040.1103	3121.2361	919.15	39.7
1040.2171	3122.2229	916	36.65
1040.3238	3123.209	917.95	37.55
1040.4305	3124.1944	915.5	37.25
1040.5371	3125.1793	917.3	35.8
1040.6437	3126.1635	913	34.1
1040.7502	3127.1471	915.55	37.15
1040.8567	3128.1301	915.9	37.65
1040.9631	3129.1125	915.8	36.15
1041.0695	3130.0942	913.55	35.95
1041.1759	3131.0753	921.65	35.15
1041.2822	3132.0558	917.65	37.7
1041.3884	3133.0357	913.4	32.5
1041.4946	3134.015	912.9	31.65
1041.6008	3134.9936	913.55	32.45
1041.7069	3135.9716	932.45	29.45
1041.813	3136.949	911.35	32.45
1041.919	3137.9258	931.15	33.4
1042.025	3138.902	916	33.15
1042.1309	3139.8775	911.8	32.55
1042.2368	3140.8524	909.55	30.1
1042.3427	3141.8267	910.35	28.6
1042.4485	3142.8004	911.25	31.9
1042.5542	3143.7735	915.85	28.65
1042.6599	3144.7459	913.35	32.5
1042.7656	3145.7178	909.1	29.3
1042.8712	3146.689	907.1	27.8
1042.9768	3147.6596	911.05	29.8
1043.0823	3148.6295	909.65	30.85
1043.1878	3149.5989	906.75	28.2
1043.2932	3150.5676	908.8	30.85
1043.3986	3151.5357	907.7	29.65
1043.5039	3152.5032	907.1	26.7
1043.6092	3153.4701	910.3	31.25
1043.7145	3154.4364	909.3	28.3
1043.8197	3155.402	906.4	29.8
1043.9248	3156.367	909.5	28.25
1044.03	3157.3315	943.2	28.9
1044.135	3158.2952	908.45	29.7
1044.24	3159.2584	904.9	25.05
1044.345	3160.221	907.1	27.45
1044.4499	3161.1829	905.5	26.05
1044.5548	3162.1442	905.9	26.75
1044.6596	3163.105	906.35	27
1044.7644	3164.065	906.5	28.2
1044.8692	3165.0245	906.25	27.65
1044.9739	3165.9834	902.75	26.5
1045.0785	3166.9416	905.5	28.65
1045.1831	3167.8993	906.45	27.4
1045.2877	3168.8563	905.05	25.65
1045.3922	3169.8127	904.2	27
1045.4966	3170.7684	904.6	24.6
1045.6011	3171.7236	903.25	23.8
1045.7054	3172.6782	903.65	25.5
1045.8098	3173.6321	903.35	21.65
1045.914	3174.5854	906.25	23.3
1046.0183	3175.5381	904.85	25.5
1046.1224	3176.4902	904.3	25.55
1046.2266	3177.4417	901.2	21.2
1046.3307	3178.3926	903.05	23.65
1046.4347	3179.3428	903.05	26
1046.5387	3180.2924	901.25	24.55
1046.6427	3181.2415	901.25	24.05
1046.7466	3182.1899	904.9	26.3
1046.8504	3183.1377	901.35	24.8
1046.9542	3184.0848	903.85	22.9
1047.058	3185.0314	900.85	19.1
1047.1617	3185.9773	903.65	24
1047.2654	3186.9227	899.9	21.55
1047.369	3187.8674	901.85	21.3
1047.4726	3188.8115	905.1	21.75
1047.5761	3189.755	899.55	19.95
1047.6796	3190.6979	900.2	19.65
1047.783	3191.6402	898.7	20.95
1047.8864	3192.5818	901.35	22.6
1047.9898	3193.5229	924.45	21.2
1048.0931	3194.4633	899.4	20.75
1048.1963	3195.4031	900.4	20.1
1048.2995	3196.3423	898.35	20.85
1048.4027	3197.2809	900.55	20.45
1048.5058	3198.2189	901.15	23.45
1048.6089	3199.1563	904.1	20.4
1048.7119	3200.0931	900.05	21.15
1048.8148	3201.0292	897.5	19.35
1048.9178	3201.9648	898.3	20.4
1049.0206	3202.8997	900.7	20.4
1049.1235	3203.834	898.55	18.5
1049.2262	3204.7677	899.25	19.75
1049.329	3205.7008	900.05	20.15
1049.4317	3206.6333	897.7	20.4
1049.5343	3207.5652	896.75	16.7
1049.6369	3208.4964	897.9	18.2
1049.7394	3209.4271	896.05	18.25
1049.8419	3210.3571	896.65	19.35
1049.9444	3211.2865	896.65	16.7
1050.0468	3212.2154	899.4	18.85
1050.1491	3213.1436	899.9	17.4
1050.2514	3214.0712	906.3	21.5
1050.3537	3214.9982	896.1	18.15
1050.4559	3215.9246	898.35	19.3
1050.5581	3216.8503	893.3	15.6
1050.6602	3217.7755	894.75	13.7
1050.7623	3218.7001	897.95	19.1
1050.8643	3219.624	898.15	19.2
1050.9663	3220.5473	894.7	17.9
1051.0682	3221.4701	900.2	18.85
1051.1701	3222.3922	897.4	20.6
1051.2719	3223.3137	895.75	16
1051.3737	3224.2346	895.95	17.45
1051.4754	3225.1549	893.25	14.35
1051.5771	3226.0746	895.9	16.85
1051.6788	3226.9937	895.25	15
1051.7804	3227.9121	894.45	17.6
1051.8819	3228.83	893.55	13.9
1051.9834	3229.7473	895.45	16.15
1052.0849	3230.6639	894.5	13.85
1052.1863	3231.5799	896.75	19.25
1052.2876	3232.4954	894.8	13.4
1052.3889	3233.4102	892.15	13.3
1052.4902	3234.3244	894.4	17.35
1052.5914	3235.238	894.7	15.55
1052.6926	3236.151	918.85	15.85
1052.7937	3237.0634	895.3	17.35
1052.8948	3237.9752	892.4	14.1
1052.9958	3238.8864	893.35	14.5
1053.0968	3239.797	893.4	15.3
1053.1977	3240.7069	895.75	14.9
1053.2986	3241.6163	894.6	15.45
1053.3994	3242.5251	892	13.6
1053.5002	3243.4332	894.15	16.95
1053.6009	3244.3408	894.9	15.65
1053.7016	3245.2477	893.3	14.4
1053.8022	3246.154	892.85	14.55
1053.9028	3247.0598	894.2	14.55
1054.0034	3247.9649	892.85	15.35
1054.1039	3248.8694	893.95	14.95
1054.2043	3249.7733	889.75	13.35
1054.3047	3250.6766	893.55	16.55
1054.4051	3251.5793	895.1	14.75
1054.5054	3252.4814	891.45	13.85
1054.6056	3253.3829	893.55	13.1
1054.7058	3254.2838	892.05	14.6
1054.806	3255.1841	888.35	10.85
1054.9061	3256.0838	891.35	11.75
1055.0061	3256.9829	889.7	15
1055.1062	3257.8814	893.7	13.7
1055.2061	3258.7792	892.25	12
1055.306	3259.6765	892.8	12.7
1055.4059	3260.5731	889.2	10.45
1055.5057	3261.4692	892.4	14.05
1055.6055	3262.3647	891.2	11.8
1055.7052	3263.2595	890.85	12.5
1055.8049	3264.1538	890.05	11.05
1055.9045	3265.0474	890.9	9.95
1056.0041	3265.9404	889.75	12.55
1056.1036	3266.8329	890.1	11.6
1056.2031	3267.7247	899.25	10.9
1056.3025	3268.616	887.8	10.05
1056.4019	3269.5066	889.2	9.85
1056.5013	3270.3966	889.5	7.45
1056.6005	3271.286	888.1	9.05
