Software Version:	3.9.2.0
Unit SN:	10000200
Spectrometer SN:	6960
Date:	3/8/2024 1:50:57 PM
Data Line Index:	25
Spectral Points:	2048
Integration time (ms):	125
Averages:	20
Delay (ms):	30000
Sequence Number:	1
Processing:	dark subtract
Laser Power (mW):	300
Laser Current (mA):	823
Laser Diode Temp (C):	25
Laser Case Temp (C):	26.4
System Temp (C):	26.4
Spectrometer Temp (C):	24.2
CCD Temp (C):	0.001
Secondary Temp (C):	20.01
Heatsink Temp (C):	21.098
CCDPCB Temp (C):	36.362
SecondaryPCB Temp (C):	30.938

Wavelength	RamanShift	Raw Counts	Dark Subtracted
787.061	30.1047	474.45	68.5
787.2016	32.3739	474.15	68.4
787.3422	34.6426	478.55	71.35
787.4828	36.9109	485.05	75.9
787.6235	39.1787	494.2	82.3
787.7642	41.4461	508.15	90.75
787.9049	43.7131	516.4	95.65
788.0456	45.9796	522.25	99.45
788.1863	48.2456	532.3	104.35
788.3271	50.5112	545.65	113.15
788.4679	52.7764	553.15	118.1
788.6087	55.0411	566.05	125.85
788.7496	57.3054	579.5	134.15
788.8904	59.5692	586.8	142.25
789.0313	61.8326	603.25	153.85
789.1722	64.0955	613.5	159.65
789.3132	66.3579	632.25	174.85
789.4541	68.6199	657.35	196.75
789.5951	70.8815	696.5	229.75
789.7361	73.1426	784.3	313.1
789.8771	75.4032	1007	532.9
790.0181	77.6634	1549.8	1071.95
790.1592	79.9231	2846.95	2356.25
790.3003	82.1824	5685.6	5178.5
790.4414	84.4412	10813.95	10278.6
790.5825	86.6995	17934.2	17357.5
790.7237	88.9574	24859.7	24253.55
790.8648	91.2148	29707.7	29077.15
791.006	93.4717	32045.55	31399.95
791.1472	95.7282	32594.45	31945.1
791.2885	97.9842	32620.85	31963.95
791.4297	100.2398	32152.75	31490.45
791.571	102.4949	31609.4	30948.7
791.7123	104.7495	30855.6	30198.1
791.8536	107.0036	30074.6	29410.4
791.9949	109.2573	29407.95	28746.85
792.1363	111.5105	28759.6	28090.55
792.2777	113.7632	28048.75	27379.25
792.4191	116.0154	27475.9	26793.2
792.5605	118.2672	27111.9	26437.1
792.7019	120.5185	26679.7	26003.15
792.8434	122.7693	26351.85	25674.05
792.9849	125.0197	26091.2	25406.65
793.1264	127.2696	25866.75	25180.35
793.2679	129.519	25718.4	25028.7
793.4094	131.7679	25560.5	24869.25
793.551	134.0163	25442.65	24744.6
793.6926	136.2642	25272.8	24572.05
793.8342	138.5117	25055.3	24351.15
793.9758	140.7587	24835.65	24131.5
794.1175	143.0052	24678.5	23971.2
794.2591	145.2512	24463.25	23755.35
794.4008	147.4967	24254.25	23544.1
794.5425	149.7417	24134.9	23426.45
794.6842	151.9863	24039.3	23324.8
794.826	154.2304	23966.25	23246.9
794.9677	156.4739	23861.5	23133.35
795.1095	158.717	23827.75	23102.05
795.2513	160.9596	23650.7	22915.55
795.3931	163.2017	23431.6	22698.35
795.535	165.4433	23175.45	22440.85
795.6768	167.6844	22870.95	22136.5
795.8187	169.925	22553.55	21815.1
795.9606	172.1651	22205.3	21466.5
796.1025	174.4047	21980.5	21239.2
796.2445	176.6439	21748.95	21006.35
796.3864	178.8825	21528.2	20781.2
796.5284	181.1206	21393.75	20638.7
796.6704	183.3582	21323.65	20562.2
796.8124	185.5954	21235	20476.75
796.9544	187.832	21152.55	20391.1
797.0965	190.0681	21161.1	20395.15
797.2386	192.3037	21190.8	20418.8
797.3806	194.5388	21200.15	20429.4
797.5228	196.7734	21279.25	20502.75
797.6649	199.0075	21356.25	20580.95
797.807	201.2411	21555.4	20777.25
797.9492	203.4742	21691.95	20913.15
798.0914	205.7068	21877.25	21093.4
798.2336	207.9389	21968.4	21184.65
798.3758	210.1704	22122.45	21346.05
798.518	212.4015	22271.65	21503.75
798.6603	214.632	22460.75	21699
798.8025	216.862	22669.9	21906.15
798.9448	219.0915	22841.35	22079.75
799.0871	221.3205	23099.35	22333.05
799.2294	223.549	23354.7	22591.65
799.3718	225.777	23683	22918.65
799.5141	228.0044	24050.8	23278.55
799.6565	230.2314	24473.95	23705.05
799.7989	232.4578	24936.6	24166.2
799.9413	234.6837	25280.25	24497.7
800.0837	236.909	25579.15	24794.65
800.2262	239.1339	25535.9	24728.25
800.3687	241.3582	25336.15	24541.45
800.5111	243.582	25098.9	24274.85
800.6536	245.8053	24787.75	23977.15
800.7961	248.0281	24443.8	23637.8
800.9387	250.2503	24281.95	23472.55
801.0812	252.472	24172.25	23359.35
801.2238	254.6932	24149.05	23342.9
801.3664	256.9139	24084.8	23270.6
801.509	259.134	24125.95	23306.5
801.6516	261.3536	24142.05	23327
801.7942	263.5727	24252.7	23429.1
801.9369	265.7912	24242.3	23422.25
802.0795	268.0092	24327.6	23514.9
802.2222	270.2267	24306.15	23490.4
802.3649	272.4436	24247.5	23429.65
802.5076	274.6601	24261.75	23432.65
802.6504	276.8759	24179.1	23355.15
802.7931	279.0913	24179.3	23354.8
802.9359	281.3061	24177.45	23353.2
803.0787	283.5204	24292.45	23456.1
803.2215	285.7341	24381.45	23548.4
803.3643	287.9473	24551.65	23711.05
803.5071	290.16	24781.5	23945.7
803.6499	292.3721	25072.7	24242
803.7928	294.5837	25511	24679.6
803.9357	296.7947	25832.35	25001.9
804.0786	299.0052	26033.45	25201.3
804.2215	301.2152	25901.2	25065.7
804.3644	303.4246	25617.4	24786.5
804.5074	305.6334	25152.45	24318.85
804.6503	307.8418	24640.05	23804.25
804.7933	310.0495	24248.6	23411.55
804.9363	312.2568	23970.95	23135.2
805.0793	314.4635	23758.5	22916.9
805.2223	316.6696	23699.4	22858.15
805.3653	318.8752	23672.15	22823.15
805.5084	321.0802	23713.05	22868.45
805.6514	323.2847	23805.75	22958.35
805.7945	325.4887	23889.2	23044.65
805.9376	327.692	23863.3	23014.05
806.0807	329.8949	23777.7	22925.65
806.2238	332.0972	23557.25	22704.4
806.367	334.2989	23293.65	22437.55
806.5101	336.5001	23032.95	22179.1
806.6533	338.7007	22850.65	22000.35
806.7965	340.9008	22793.3	21936.1
806.9397	343.1003	22685.95	21830.8
807.0829	345.2992	22658.75	21800.05
807.2261	347.4976	22632.2	21770.6
807.3693	349.6955	22631.8	21769.1
807.5126	351.8927	22757.45	21892.8
807.6559	354.0895	22757.15	21879.9
807.7991	356.2856	22828.75	21960.35
807.9424	358.4812	22805.3	21939.6
808.0857	360.6763	22884.8	22013.05
808.2291	362.8707	22877.25	22003.95
808.3724	365.0646	22970.4	22099.05
808.5158	367.258	23007.4	22133.8
808.6591	369.4508	23020.3	22144.05
808.8025	371.643	23114.3	22238.65
808.9459	373.8346	23093.15	22214.15
809.0893	376.0257	23107.9	22226.45
809.2327	378.2162	23055.05	22180.4
809.3762	380.4062	22983.6	22103.9
809.5196	382.5956	22851.55	21975.95
809.6631	384.7844	22776	21903.7
809.8066	386.9726	22685.6	21813.25
809.9501	389.1603	22603.8	21735.2
810.0936	391.3474	22593.8	21691.25
810.2371	393.5339	22624.05	21752.1
810.3806	395.7199	22558.55	21687.05
810.5241	397.9052	22623.65	21754.65
810.6677	400.09	22638.65	21767.2
810.8113	402.2743	22744.05	21878.6
810.9548	404.4579	22842.35	21970.95
811.0984	406.641	23000.8	22126.55
811.2421	408.8235	23265.05	22390.65
811.3857	411.0054	23609.1	22730.1
811.5293	413.1868	24017.65	23132.85
811.673	415.3675	24326.8	23445.1
811.8166	417.5477	24532.05	23646.2
811.9603	419.7273	24561.2	23676.35
812.104	421.9064	24454.35	23564.15
812.2477	424.0848	24406.8	23521.45
812.3914	426.2627	24184.3	23298.4
812.5351	428.4399	23909.25	23022.2
812.6788	430.6166	23548.7	22655.45
812.8226	432.7928	23212.45	22317.45
812.9663	434.9683	22916.15	22021.8
813.1101	437.1432	22698.15	21812.05
813.2539	439.3176	22514.9	21634.45
813.3977	441.4914	22396.8	21521.25
813.5415	443.6645	22427.45	21548.75
813.6853	445.8371	22355.5	21469.15
813.8291	448.0091	22304.45	21411.45
813.973	450.1806	22322.95	21440.5
814.1168	452.3514	22232.55	21348.25
814.2607	454.5216	22279	21382
814.4046	456.6913	22185.75	21299.35
814.5485	458.8603	22233.45	21347.35
814.6924	461.0288	22322	21442.2
814.8363	463.1967	22342.8	21466.7
814.9802	465.3639	22493.4	21608.25
815.1241	467.5306	22558	21673.35
815.2681	469.6967	22695.55	21812.9
815.412	471.8622	22881.2	21999.6
815.556	474.0271	23041.3	22159.45
815.7	476.1914	23091.35	22201.25
815.844	478.3551	23123.8	22236.55
815.988	480.5182	23133.05	22248.25
816.132	482.6807	23127.85	22249.35
816.276	484.8426	23305.35	22435
816.4201	487.0039	23611.65	22735.45
816.5641	489.1647	24030.05	23144.25
816.7082	491.3248	24484.5	23593.05
816.8522	493.4843	24663.45	23778.7
816.9963	495.6432	24676.85	23792.55
817.1404	497.8015	24596.85	23697.8
817.2845	499.9592	24583.65	23681.35
817.4286	502.1163	24579.2	23678.05
817.5727	504.2728	24347.1	23456.75
817.7168	506.4287	24084	23200.8
817.861	508.5839	23660.8	22777.7
818.0051	510.7386	23398.3	22508.45
818.1493	512.8927	23212.4	22313.25
818.2935	515.0461	23163.85	22268.75
818.4377	517.199	23132.8	22234.2
818.5818	519.3512	23139.35	22239.1
818.726	521.5029	23284.95	22386.95
818.8703	523.6539	23345.4	22447.85
819.0145	525.8043	23392.75	22489.35
819.1587	527.9541	23420.4	22513.75
819.303	530.1033	23419.5	22518.7
819.4472	532.2519	23433.9	22537.05
819.5915	534.3999	23576.45	22674
819.7357	536.5472	23852	22953.45
819.88	538.694	24341.25	23443.95
820.0243	540.8401	24908.6	24005.45
820.1686	542.9856	25444.2	24533.55
820.3129	545.1305	25584.8	24669.3
820.4572	547.2748	25491.45	24574.85
820.6016	549.4185	25129.75	24210.9
820.7459	551.5615	24761.95	23848.6
820.8902	553.704	24681.7	23766.1
821.0346	555.8458	24668	23760.2
821.1789	557.987	24730.55	23824.65
821.3233	560.1276	24690.95	23778
821.4677	562.2675	24765.1	23850.75
821.6121	564.4069	24832.5	23919.55
821.7565	566.5456	24880.2	23969.85
821.9009	568.6837	24827.85	23916.45
822.0453	570.8212	24564.6	23657.55
822.1897	572.958	24202.55	23291.1
822.3342	575.0942	23915.85	23012.35
822.4786	577.2299	23732.25	22830.25
822.6231	579.3648	23720.25	22828.85
822.7675	581.4992	23731.2	22851.2
822.912	583.6329	23919.15	23038.3
823.0565	585.766	24177.35	23291.45
823.201	587.8985	24323.05	23428.3
823.3454	590.0304	24331.9	23416.15
823.4899	592.1616	24230.05	23316.15
823.6345	594.2922	24155.85	23240.55
823.779	596.4222	23990.4	23076.45
823.9235	598.5515	23870.05	22954.2
824.068	600.6802	23735.45	22821.25
824.2126	602.8083	23507.4	22592.3
824.3571	604.9358	23504.9	22589.9
824.5017	607.0626	23427.05	22510.8
824.6462	609.1888	23446.9	22522.45
824.7908	611.3144	23424.65	22504.55
824.9354	613.4393	23345.35	22419.55
825.08	615.5636	23276.05	22351.4
825.2246	617.6873	23198.7	22275.85
825.3692	619.8103	23200.1	22275.55
825.5138	621.9327	23086.1	22162.6
825.6584	624.0544	23018.35	22102.6
825.803	626.1756	23038.95	22125.45
825.9477	628.2961	22995.6	22071.55
826.0923	630.4159	22934.05	22009.95
826.237	632.5351	22974.6	22050.3
826.3816	634.6537	22918.15	21996.5
826.5263	636.7716	22908.95	21976.4
826.6709	638.8889	22968.55	22036.35
826.8156	641.0056	23014.05	22083.55
826.9603	643.1216	23010.85	22078.25
827.105	645.237	23051.65	22121.75
827.2497	647.3518	23005.2	22082.8
827.3944	649.4659	23054.2	22140.85
827.5391	651.5793	23086.8	22169.5
827.6838	653.6922	23069	22154.4
827.8285	655.8043	23086.15	22166.75
827.9733	657.9159	23115.35	22193.6
828.118	660.0268	23037.45	22117.15
828.2627	662.137	22992.95	22065.3
828.4075	664.2466	22995.7	22062.4
828.5522	666.3556	22970.55	22040.05
828.697	668.4639	22996.35	22074.1
828.8418	670.5716	23095.45	22178.4
828.9865	672.6786	23125.25	22200.3
829.1313	674.785	23200.8	22267.35
829.2761	676.8907	23238.7	22314.2
829.4209	678.9958	23324.5	22402.15
829.5657	681.1002	23294.8	22368.85
829.7105	683.204	23332.8	22397.2
829.8553	685.3072	23282.3	22347.3
830.0001	687.4097	23213.2	22282.5
830.1449	689.5115	23226.7	22296.85
830.2898	691.6127	23205.85	22278.65
830.4346	693.7132	23147	22220.85
830.5794	695.8131	23127.05	22190.35
830.7243	697.9123	23130.05	22195.6
830.8691	700.0109	23155.1	22217.4
831.014	702.1089	23120.5	22185.75
831.1588	704.2061	23148.95	22215.15
831.3037	706.3028	23204	22266.2
831.4486	708.3987	23304.05	22368.8
831.5935	710.4941	23369.5	22437.8
831.7383	712.5887	23567.1	22635.7
831.8832	714.6827	23796.95	22859.4
832.0281	716.7761	24144.4	23218.35
832.173	718.8688	24551.05	23618.05
832.3179	720.9608	24753	23813.75
832.4628	723.0522	24844.85	23897.6
832.6077	725.1429	24638.75	23699.7
832.7527	727.233	24433	23496.95
832.8976	729.3224	24237.6	23299.85
833.0425	731.4112	23971.3	23034.85
833.1874	733.4993	23760.6	22820.8
833.3324	735.5867	23593.95	22658.35
833.4773	737.6735	23534.8	22599.2
833.6222	739.7596	23463.05	22522.5
833.7672	741.845	23385.85	22453.35
833.9122	743.9298	23425.8	22485.3
834.0571	746.014	23428.8	22492.3
834.2021	748.0974	23467.25	22521.4
834.347	750.1802	23449.8	22503.65
834.492	752.2624	23460.5	22519.2
834.637	754.3439	23465.65	22518.3
834.782	756.4247	23562.5	22609.8
834.9269	758.5048	23669.9	22728.85
835.0719	760.5843	23907.05	22963.55
835.2169	762.6631	24183.35	23239.1
835.3619	764.7413	24637.75	23695.45
835.5069	766.8188	25241.15	24298.3
835.6519	768.8956	25673.35	24733.5
835.7969	770.9718	26047.05	25103.5
835.9419	773.0473	25878.9	24935.55
836.0869	775.1221	25560.85	24614.8
836.232	777.1962	25170.45	24224.65
836.377	779.2697	25030.4	24087.65
836.522	781.3426	25091.05	24128.05
836.667	783.4147	25312.1	24368.3
836.8121	785.4862	25655.45	24709
836.9571	787.557	25619.3	24673
837.1021	789.6271	25301.9	24356.6
837.2472	791.6966	24761.9	23818.45
837.3922	793.7654	24245.45	23300.5
837.5373	795.8335	23997.5	23054.05
837.6823	797.901	23798.4	22852.6
837.8274	799.9678	23702.55	22752.05
837.9724	802.0339	23719.5	22768.65
838.1175	804.0993	23816.25	22857.75
838.2626	806.1641	23777.95	22830.4
838.4076	808.2282	23746.25	22801.95
838.5527	810.2916	23656.55	22704.7
838.6978	812.3544	23591.5	22649.9
838.8428	814.4164	23490.25	22543.55
838.9879	816.4778	23541.9	22593.4
839.133	818.5385	23543.3	22595.6
839.2781	820.5986	23671.35	22723.2
839.4232	822.658	23786.6	22832.9
839.5682	824.7166	23872.45	22922.15
839.7133	826.7747	24190.95	23243.15
839.8584	828.832	24385.6	23437.05
840.0035	830.8886	24525.2	23572.95
840.1486	832.9446	24663.2	23708.75
840.2937	834.9999	24692.5	23743.55
840.4388	837.0545	24718.2	23764.95
840.5839	839.1085	24671.4	23719.2
840.729	841.1618	24655.8	23701.95
840.8741	843.2143	24585.2	23635.45
841.0192	845.2662	24481	23529.95
841.1643	847.3175	24455.15	23504.5
841.3095	849.368	24359.35	23409.45
841.4546	851.4179	24286.95	23335.2
841.5997	853.467	24094.45	23145.3
841.7448	855.5155	24054.85	23105.9
841.8899	857.5633	23939.1	22985.4
842.0351	859.6105	23831.7	22879.4
842.1802	861.6569	23806.3	22853.95
842.3253	863.7027	23772.65	22815.05
842.4704	865.7478	23785.3	22833.55
842.6156	867.7922	23807.6	22853.25
842.7607	869.8359	23815.35	22862.45
842.9058	871.8789	23958.15	23006.7
843.0509	873.9212	24169.25	23181.7
843.1961	875.9629	24303.1	23350.55
843.3412	878.0039	24495.7	23542.5
843.4863	880.0441	24595.55	23646.2
843.6315	882.0837	24621.35	23672.7
843.7766	884.1226	24549.05	23595.5
843.9218	886.1609	24420.35	23470.45
844.0669	888.1984	24419.15	23466.25
844.212	890.2352	24488.35	23532
844.3572	892.2714	24431	23472.3
844.5023	894.3069	24427.7	23474.25
844.6475	896.3416	24364.5	23409.4
844.7926	898.3757	24314.45	23359.65
844.9377	900.4091	24361.3	23403.05
845.0829	902.4418	24335.85	23373.75
845.228	904.4739	24371.7	23414.75
845.3732	906.5052	24362.25	23404.25
845.5183	908.5358	24259.2	23299.65
845.6635	910.5658	24144.8	23182.15
845.8086	912.595	23990.5	23033.7
845.9538	914.6236	23848.25	22891.7
846.0989	916.6515	23828.7	22871.8
846.2441	918.6786	23773.1	22811
846.3892	920.7051	23869.45	22907.7
846.5344	922.7309	24045	23089.95
846.6795	924.756	24052.25	23094.3
846.8246	926.7804	24171.95	23213.7
846.9698	928.8041	24051.2	23092.45
847.1149	930.8272	24165.75	23211.25
847.2601	932.8495	24036.25	23078.85
847.4052	934.8711	23993	23032.3
847.5504	936.892	23832.05	22875.1
847.6955	938.9123	23715.9	22757.45
847.8407	940.9318	23640.05	22682.75
847.9858	942.9506	23498.7	22540.2
848.131	944.9688	23415.3	22459.9
848.2761	946.9862	23370.5	22416.1
848.4213	949.003	23253.05	22292.15
848.5664	951.019	23264.4	22305.85
848.7115	953.0344	23270.75	22313.4
848.8567	955.0491	23313.1	22357
849.0018	957.063	23443.45	22483.25
849.147	959.0763	23582.1	22627.65
849.2921	961.0888	23626.05	22667.55
849.4373	963.1007	23698.3	22744.65
849.5824	965.1119	23736.55	22795.3
849.7275	967.1223	23753.55	22816.15
849.8727	969.1321	23791.25	22850.5
850.0178	971.1412	23832.75	22883.65
850.1629	973.1495	23845.65	22892.25
850.3081	975.1572	23946.9	22942.25
850.4532	977.1641	23971.2	23011.05
850.5983	979.1704	23913.25	22956.05
850.7435	981.1759	23922.75	22964.8
850.8886	983.1808	23958.95	23000.95
851.0337	985.1849	24099.95	23132.95
851.1788	987.1884	24160.85	23201.55
851.324	989.1911	24340.85	23382.65
851.4691	991.1932	24474.45	23520.55
851.6142	993.1945	24502.1	23546.65
851.7593	995.1951	24423.8	23468.55
851.9045	997.1951	24387.75	23424.85
852.0496	999.1943	24336.6	23380.2
852.1947	1001.1928	24289.55	23328.6
852.3398	1003.1906	24245.6	23286.65
852.4849	1005.1877	24316.65	23360.65
852.63	1007.1841	24295.3	23339.85
852.7751	1009.1798	24190.75	23235.5
852.9202	1011.1748	23990.35	23035
853.0653	1013.1691	23830.6	22873.5
853.2104	1015.1627	23595.15	22638.35
853.3555	1017.1556	23315.35	22362.75
853.5006	1019.1477	23276.35	22326.75
853.6457	1021.1392	23137.05	22190.75
853.7908	1023.1299	23096.45	22150.85
853.9359	1025.12	23130.75	22194.5
854.081	1027.1093	23139.05	22214.75
854.2261	1029.0979	23201	22277.2
854.3712	1031.0859	23266.3	22336.4
854.5163	1033.0731	23251	22310.4
854.6613	1035.0596	23194.7	22251
854.8064	1037.0454	23018.1	22068
854.9515	1039.0304	22894.95	21943.95
855.0965	1041.0148	22769	21813.95
855.2416	1042.9985	22654	21698.2
855.3867	1044.9814	22658.6	21702.45
855.5317	1046.9636	22560.65	21605.25
855.6768	1048.9452	22523.75	21572.5
855.8219	1050.926	22581.2	21630.1
855.9669	1052.9061	22575.95	21622.5
856.112	1054.8855	22541.95	21589.95
856.257	1056.8642	22598.95	21641.7
856.4021	1058.8421	22646	21687.95
856.5471	1060.8194	22684.8	21726.2
856.6921	1062.7959	22693.25	21737.95
856.8372	1064.7717	22733.4	21779.8
856.9822	1066.7469	22788.4	21831.95
857.1272	1068.7213	22800.35	21842.95
857.2723	1070.695	22812.3	21860.6
857.4173	1072.6679	22692.25	21740.7
857.5623	1074.6402	22652.2	21699.7
857.7073	1076.6117	22656.75	21697.05
857.8523	1078.5826	22655.8	21701.25
857.9973	1080.5527	22608.9	21652.7
858.1423	1082.5221	22688.45	21733.45
858.2873	1084.4908	22878.85	21926.95
858.4323	1086.4587	23023.25	22064.8
858.5773	1088.426	23136.4	22183
858.7223	1090.3925	23111.25	22156.8
858.8673	1092.3584	23098.15	22147.3
859.0123	1094.3235	22945.1	21991.6
859.1573	1096.2879	22856.7	21901.85
859.3022	1098.2515	22900.5	21947.3
859.4472	1100.2145	22964.2	22011.45
859.5922	1102.1767	22993.9	22038.4
859.7371	1104.1382	23200	22244.4
859.8821	1106.099	23434.05	22480.5
860.027	1108.0591	23603.2	22648.25
860.172	1110.0185	23739.7	22784.35
860.3169	1111.9771	23771.8	22820.35
860.4619	1113.9351	23514.95	22560.1
860.6068	1115.8923	23215.2	22265.6
860.7517	1117.8488	22947.5	21994.7
860.8967	1119.8045	22656.65	21704.3
861.0416	1121.7596	22590.35	21636.7
861.1865	1123.7139	22465.25	21515
861.3314	1125.6675	22452.05	21501.15
861.4763	1127.6204	22566.2	21616.65
861.6212	1129.5726	22563.55	21611.55
861.7661	1131.524	22530.85	21576.8
861.911	1133.4748	22519.2	21566.85
862.0559	1135.4248	22469.45	21515.65
862.2008	1137.3741	22428.8	21479.2
862.3457	1139.3226	22369	21414.9
862.4905	1141.2705	22402.05	21451.25
862.6354	1143.2176	22246.35	21285.45
862.7803	1145.164	22218.6	21264.75
862.9251	1147.1097	22239.3	21283.6
863.07	1149.0546	22221.65	21269.4
863.2148	1150.9989	22164.3	21209.95
863.3597	1152.9424	22027.5	21074.3
863.5045	1154.8852	21887.1	20933.05
863.6493	1156.8272	21795.5	20840.6
863.7942	1158.7686	21772.65	20814.8
863.939	1160.7092	21687.5	20733.35
864.0838	1162.6491	21652.75	20696.85
864.2286	1164.5883	21753.4	20803.65
864.3734	1166.5267	21890.05	20938.95
864.5182	1168.4644	22025.9	21072.8
864.663	1170.4014	22193.4	21237.15
864.8078	1172.3377	22443.55	21492.1
864.9526	1174.2732	22622	21676.15
865.0974	1176.2081	22909.45	21959.25
865.2421	1178.1421	23160.45	22201.4
865.3869	1180.0755	23398.3	22449.55
865.5317	1182.0082	23461.7	22512.55
865.6764	1183.9401	23498.35	22550.65
865.8212	1185.8713	23292.2	22348.3
865.9659	1187.8017	23059.7	22123.25
866.1106	1189.7315	22790.05	21863.6
866.2554	1191.6605	22491	21562.35
866.4001	1193.5888	22255.1	21322.85
866.5448	1195.5163	22154.9	21214.8
866.6895	1197.4432	22054.15	21108.75
866.8342	1199.3693	21963.15	21015.35
866.9789	1201.2947	21959.05	21005.75
867.1236	1203.2193	21923.95	20974.95
867.2683	1205.1432	21953.85	21004.1
867.413	1207.0664	21917.35	20972.05
867.5576	1208.9889	21921.5	20971.25
867.7023	1210.9106	21956.75	21009.45
867.847	1212.8316	21937.1	20991.15
867.9916	1214.7519	22029.3	21068.4
868.1363	1216.6715	21996.45	21049.7
868.2809	1218.5903	22007.15	21059.7
868.4255	1220.5084	21963.7	21015.65
868.5701	1222.4257	21991.1	21046.45
868.7148	1224.3424	21864.8	20920.15
868.8594	1226.2583	21986.1	21040.2
869.004	1228.1735	22056.35	21109.35
869.1486	1230.0879	22106.15	21157
869.2932	1232.0016	22215.65	21268.7
869.4377	1233.9146	22208.7	21257.65
869.5823	1235.8269	22131.5	21183.6
869.7269	1237.7384	22006.15	21059.85
869.8715	1239.6492	21826.25	20880.95
870.016	1241.5592	21742.75	20795.35
870.1606	1243.4686	21626.15	20678.65
870.3051	1245.3772	21635.45	20688.75
870.4496	1247.285	21584.2	20638.4
870.5941	1249.1922	21538.1	20592.3
870.7387	1251.0986	21556.25	20608.75
870.8832	1253.0042	21452.1	20503.9
871.0277	1254.9092	21563.5	20619.1
871.1722	1256.8134	21605.65	20663.9
871.3167	1258.7169	21755.85	20813.85
871.4611	1260.6196	21892.25	20947.1
871.6056	1262.5216	22091.6	21146.05
871.7501	1264.4229	22245.05	21297.15
871.8945	1266.3234	22425.45	21484.45
872.039	1268.2232	22473.05	21527.55
872.1834	1270.1223	22457.75	21512.55
872.3278	1272.0207	22445.1	21498.8
872.4723	1273.9183	22363.35	21412.5
872.6167	1275.8151	22328.15	21385.35
872.7611	1277.7113	22216.55	21271.65
872.9055	1279.6067	22128.85	21187.6
873.0499	1281.5014	21991.2	21043.75
873.1943	1283.3953	21979	21032.6
873.3386	1285.2885	22040.1	21096.45
873.483	1287.181	22082.85	21137.45
873.6274	1289.0727	22237.1	21297.3
873.7717	1290.9637	22306.2	21364.15
873.9161	1292.854	22444.35	21504.25
874.0604	1294.7435	22531.5	21587.7
874.2047	1296.6323	22653.2	21709.8
874.349	1298.5204	22884	21938.6
874.4933	1300.4077	23070.2	22126.4
874.6376	1302.2943	23207.55	22263.3
874.7819	1304.1802	23227.05	22285.65
874.9262	1306.0653	23063.45	22118.4
875.0705	1307.9497	22816.85	21874.55
875.2147	1309.8333	22606.85	21660.85
875.359	1311.7162	22488.6	21543
875.5032	1313.5984	22470.55	21525.35
875.6475	1315.4798	22516.75	21564.6
875.7917	1317.3605	22548	21585.75
875.9359	1319.2405	22619.65	21670.05
876.0801	1321.1197	22537.75	21591.15
876.2243	1322.9982	22391.05	21443.05
876.3685	1324.876	22339.6	21397.7
876.5127	1326.753	22187.15	21243.7
876.6569	1328.6293	22174.5	21227.95
876.801	1330.5048	22162	21210.85
876.9452	1332.3796	22065.5	21118.6
877.0893	1334.2537	22039.9	21070
877.2335	1336.127	21963.8	21019.25
877.3776	1337.9996	21900.75	20957.05
877.5217	1339.8714	21868.2	20921.85
877.6658	1341.7426	21875.25	20886.85
877.8099	1343.6129	21820.2	20873.35
877.954	1345.4826	21764.05	20818.55
878.0981	1347.3515	21736.3	20787.05
878.2422	1349.2196	21659.9	20712.95
878.3862	1351.087	21691.65	20744.05
878.5303	1352.9537	21747.95	20799.85
878.6743	1354.8197	21848.15	20902.1
878.8184	1356.6849	22021.95	21076.75
878.9624	1358.5493	22057.85	21110.05
879.1064	1360.4131	22075.4	21132.75
879.2504	1362.276	22023.4	21079.85
879.3944	1364.1383	21898.7	20956.65
879.5384	1365.9998	21644	20691.75
879.6823	1367.8606	21286.05	20336.4
879.8263	1369.7206	21001	20056.55
879.9702	1371.5799	20753.75	19805.8
880.1142	1373.4384	20545.95	19600.95
880.2581	1375.2962	20416.4	19474.5
880.402	1377.1533	20121.65	19178.55
880.5459	1379.0096	19761.25	18823.55
880.6898	1380.8652	19498.65	18560.35
880.8337	1382.7201	19205.15	18266.15
880.9776	1384.5742	18927.5	17987.2
881.1215	1386.4275	18725.15	17779.75
881.2653	1388.2802	18551.45	17610
881.4092	1390.132	18434.85	17490.45
881.553	1391.9832	18375.05	17427.95
881.6968	1393.8336	18272.65	17330.3
881.8406	1395.6832	18210.2	17263.65
881.9844	1397.5322	18137.55	17194.6
882.1282	1399.3803	18047.85	17100.8
882.272	1401.2278	18018.6	17080.45
882.4158	1403.0745	18033.65	17092.3
882.5595	1404.9204	17960.25	17023.35
882.7033	1406.7656	17943.9	17001.65
882.847	1408.6101	17893.05	16951.55
882.9908	1410.4538	17873.85	16931.4
883.1345	1412.2968	17923.35	16981.55
883.2782	1414.139	17898.2	16956.6
883.4219	1415.9805	18008.05	17069.05
883.5656	1417.8213	18027.7	17079.55
883.7092	1419.6613	18152.2	17211.85
883.8529	1421.5006	18299.8	17359.6
883.9965	1423.3391	18498.5	17558.45
884.1402	1425.1769	18747.3	17805.4
884.2838	1427.0139	19229.5	18288
884.4274	1428.8502	19777.95	18835.1
884.571	1430.6858	20305.5	19367.75
884.7146	1432.5206	20651.25	19711.5
884.8582	1434.3547	20912.9	19970.5
885.0018	1436.188	20934.6	19994.75
885.1453	1438.0206	20778.55	19838.25
885.2889	1439.8524	20585.45	19646.6
885.4324	1441.6835	20549.5	19612
885.5759	1443.5139	20397.35	19456.5
885.7194	1445.3435	20329.8	19392.75
885.8629	1447.1724	20252.5	19315.65
886.0064	1449.0005	20178.15	19244.55
886.1499	1450.8279	20081.3	19143.6
886.2933	1452.6545	20034.15	19096.8
886.4368	1454.4804	20057.95	19120.4
886.5802	1456.3056	20056.45	19112.4
886.7237	1458.13	19913	18978.3
886.8671	1459.9536	19699.65	18760.75
887.0105	1461.7766	19375.9	18435.75
887.1539	1463.5987	18944.35	18002
887.2972	1465.4202	18589.25	17648.55
887.4406	1467.2409	18173.5	17237.35
887.584	1469.0608	17940.1	17002.15
887.7273	1470.88	17660.5	16723.1
887.8706	1472.6984	17432	16494.65
888.0139	1474.5161	17183.55	16243.3
888.1572	1476.3331	17012.7	16074.95
888.3005	1478.1493	16904.35	15964.25
888.4438	1479.9648	16802.35	15862.75
888.5871	1481.7795	16647.25	15710.4
888.7303	1483.5935	16580.75	15645
888.8736	1485.4067	16493.85	15555.55
889.0168	1487.2192	16463.3	15524
889.16	1489.031	16390.95	15450.35
889.3032	1490.842	16344.65	15408.35
889.4464	1492.6522	16326.95	15388.4
889.5896	1494.4618	16245.9	15308.4
889.7327	1496.2705	16217.55	15280.45
889.8759	1498.0785	16151.45	15212.1
890.019	1499.8858	16131.4	15191.7
890.1622	1501.6924	16070.35	15132.5
890.3053	1503.4981	16019.85	15081.65
890.4484	1505.3032	15964.2	15028.2
890.5914	1507.1075	15946.8	15011.1
890.7345	1508.911	15910.5	14974
890.8776	1510.7138	15850	14910.9
891.0206	1512.5159	15779.4	14845.35
891.1637	1514.3172	15709.05	14773.6
891.3067	1516.1178	15619	14684
891.4497	1517.9176	15611.25	14674.3
891.5927	1519.7166	15519.8	14587.05
891.7357	1521.515	15451.45	14511.85
891.8786	1523.3126	15440.15	14505.85
892.0216	1525.1094	15372.65	14435.05
892.1645	1526.9055	15366.35	14433.8
892.3074	1528.7008	15285.35	14354.85
892.4503	1530.4954	15187.75	14254.3
892.5932	1532.2893	15157.7	14227.55
892.7361	1534.0824	15108.75	14175.4
892.879	1535.8747	15062.1	14133.6
893.0218	1537.6663	15042.9	14113.35
893.1647	1539.4572	14987.1	14056.8
893.3075	1541.2473	14988	14057.95
893.4503	1543.0367	14947.3	14016.95
893.5931	1544.8253	14904.7	13967.1
893.7359	1546.6132	14894.7	13960.55
893.8787	1548.4003	14891.1	13952.75
894.0214	1550.1867	14873.15	13935.55
894.1642	1551.9723	14884.7	13950.9
894.3069	1553.7572	14926.2	13999.4
894.4496	1555.5414	14946.6	14020.4
894.5923	1557.3247	14962.6	14036.8
894.735	1559.1074	15020.05	14097.85
894.8777	1560.8893	15070.35	14144.15
895.0204	1562.6705	15088.15	14164.9
895.163	1564.4509	15194.3	14271.4
895.3056	1566.2305	15205.75	14285.55
895.4482	1568.0094	15281.25	14361.65
895.5908	1569.7876	15289.95	14367.8
895.7334	1571.565	15313.9	14392.45
895.876	1573.3417	15307.1	14388
896.0186	1575.1176	15236.2	14316.4
896.1611	1576.8928	15198.85	14281.4
896.3036	1578.6672	15092.6	14180.1
896.4461	1580.4409	14965.45	14055.1
896.5886	1582.2138	14847.5	13931.35
896.7311	1583.986	14766	13850.05
896.8736	1585.7575	14671.2	13751.95
897.0161	1587.5282	14603	13691.5
897.1585	1589.2981	14574.8	13664.75
897.3009	1591.0673	14520.6	13608.95
897.4433	1592.8358	14518.75	13606.3
897.5857	1594.6035	14516.7	13596.75
897.7281	1596.3704	14519.2	13600.35
897.8705	1598.1366	14537.05	13620.1
898.0128	1599.9021	14570.45	13656.75
898.1551	1601.6668	14560.75	13642.55
898.2975	1603.4308	14621.65	13702.35
898.4398	1605.194	14709.3	13790.45
898.5821	1606.9564	14839.95	13931.75
898.7243	1608.7182	14950.4	14044.45
898.8666	1610.4791	15108.65	14208
899.0088	1612.2394	15222.35	14322.25
899.1511	1613.9988	15405.95	14504.4
899.2933	1615.7576	15617.45	14710.45
899.4355	1617.5156	15832.45	14909.8
899.5776	1619.2728	15982.5	15064.9
899.7198	1621.0293	16066.85	15151.8
899.862	1622.785	16053.85	15139.5
900.0041	1624.54	15930.5	15022.3
900.1462	1626.2942	15738.45	14828.1
900.2883	1628.0477	15487.1	14576.35
900.4304	1629.8005	15206.85	14294.4
900.5725	1631.5525	14972.85	14066.85
900.7145	1633.3037	14759.3	13852.75
900.8566	1635.0542	14639.3	13730.3
900.9986	1636.804	14524.65	13615.95
901.1406	1638.553	14484.55	13506.25
901.2826	1640.3013	14395.6	13488.5
901.4245	1642.0488	14322.7	13414.1
901.5665	1643.7955	14330	13425.2
901.7085	1645.5416	14362.5	13459.55
901.8504	1647.2868	14446.55	13539.6
901.9923	1649.0313	14500.2	13589.5
902.1342	1650.7751	14649.35	13738.75
902.2761	1652.5181	14809.25	13905.2
902.4179	1654.2604	14933	14029.25
902.5598	1656.0019	15207.25	14302.5
902.7016	1657.7427	15486.7	14580.25
902.8434	1659.4828	15760.05	14851.85
902.9852	1661.222	15905.5	14994.2
903.127	1662.9606	15885.35	14976.25
903.2687	1664.6984	15654.75	14745.05
903.4105	1666.4354	15266.15	14354.6
903.5522	1668.1717	14747.3	13833.75
903.6939	1669.9072	14201.85	13293
903.8356	1671.642	13786.5	12872.15
903.9773	1673.3761	13430.4	12520.85
904.119	1675.1094	13148.65	12239.1
904.2606	1676.8419	12879.95	11970.45
904.4022	1678.5737	12686.1	11776.85
904.5439	1680.3048	12520.25	11607.7
904.6855	1682.0351	12400.65	11491.6
904.827	1683.7646	12291.15	11378.75
904.9686	1685.4934	12200.3	11292.4
905.1101	1687.2215	12127.55	11222.75
905.2517	1688.9488	12038.2	11132.3
905.3932	1690.6754	11957.75	11051.35
905.5347	1692.4012	11906.5	10999.65
905.6761	1694.1263	11851.3	10943.95
905.8176	1695.8506	11816.9	10910.4
905.9591	1697.5742	11758.65	10853.2
906.1005	1699.297	11708.65	10807.35
906.2419	1701.0191	11621.9	10724.25
906.3833	1702.7404	11586.05	10684.35
906.5246	1704.461	11488.1	10583.3
906.666	1706.1808	11460.3	10553.3
906.8073	1707.8999	11405.35	10501.85
906.9487	1709.6182	11397.25	10498.2
907.09	1711.3358	11356.3	10459.4
907.2313	1713.0527	11273.3	10379.95
907.3725	1714.7688	11246.35	10342.55
907.5138	1716.4841	11172.6	10268.05
907.655	1718.1987	11167.7	10259.7
907.7962	1719.9126	11126.65	10227.55
907.9374	1721.6257	11061.9	10164.85
908.0786	1723.338	11040.65	10142.95
908.2198	1725.0496	10988.05	10089.25
908.3609	1726.7605	10983.2	10080.4
908.502	1728.4706	10927.4	10029
908.6431	1730.18	10887.9	9988.2
908.7842	1731.8886	10833.4	9936.95
908.9253	1733.5964	10839.2	9921.25
909.0664	1735.3036	10787.5	9885.9
909.2074	1737.0099	10767.4	9868.05
909.3484	1738.7156	10734.65	9837.8
909.4894	1740.4204	10686.1	9783.9
909.6304	1742.1246	10642.1	9740.55
909.7714	1743.8279	10622.5	9722.6
909.9123	1745.5306	10578.1	9679.2
910.0532	1747.2325	10548.2	9653.15
910.1941	1748.9336	10506.7	9608
910.335	1750.634	10470.55	9567.6
910.4759	1752.3336	10423.45	9524.6
910.6168	1754.0325	10408.5	9515.3
910.7576	1755.7307	10389	9492.3
910.8984	1757.4281	10381.1	9482.8
911.0392	1759.1247	10340.5	9431.1
911.18	1760.8206	10308.55	9401.25
911.3208	1762.5158	10310.2	9404.6
911.4615	1764.2102	10272.4	9373.25
911.6022	1765.9039	10230.65	9333.65
911.7429	1767.5968	10195.2	9299.75
911.8836	1769.289	10153.35	9257.35
912.0243	1770.9804	10142.5	9245.55
912.1649	1772.6711	10136.2	9237.35
912.3056	1774.361	10117.55	9214.15
912.4462	1776.0502	10094.6	9192.9
912.5868	1777.7386	10080.15	9179.7
912.7274	1779.4263	10040.05	9142.45
912.8679	1781.1132	10016.7	9123.5
913.0084	1782.7994	9975.65	9080.55
913.149	1784.4849	9968.25	9073.45
913.2895	1786.1696	9929.55	9027.15
913.4299	1787.8535	9923.85	9030.1
913.5704	1789.5367	9862.05	8969.95
913.7108	1791.2192	9858.4	8965.3
913.8513	1792.9009	9859.75	8939.25
913.9917	1794.5818	9810.55	8910
914.132	1796.2621	9802.7	8905.35
914.2724	1797.9415	9774.4	8877.7
914.4128	1799.6202	9723.45	8822.1
914.5531	1801.2982	9713.1	8812.25
914.6934	1802.9755	9705.45	8804.15
914.8337	1804.6519	9658.2	8761.15
914.9739	1806.3277	9631.5	8737.7
915.1142	1808.0027	9577.7	8687.65
915.2544	1809.6769	9588.2	8696.35
915.3946	1811.3504	9545.45	8656.05
915.5348	1813.0231	9521	8631.2
915.675	1814.6951	9514.3	8619.7
915.8151	1816.3664	9516.05	8617.55
915.9553	1818.0369	9476.8	8580.1
916.0954	1819.7067	9439.9	8543.65
916.2355	1821.3757	9432.25	8531.25
916.3755	1823.044	9414.65	8518.35
916.5156	1824.7115	9402.8	8503.35
916.6556	1826.3783	9365.5	8469.35
916.7956	1828.0443	9347.7	8452.35
916.9356	1829.7096	9321.7	8425.05
917.0756	1831.3741	9310.4	8412.35
917.2155	1833.0379	9256.6	8362.3
917.3555	1834.701	9245.7	8353.6
917.4954	1836.3633	9225.85	8333.05
917.6353	1838.0248	9192.6	8296.5
917.7751	1839.6856	9175.9	8280.7
917.915	1841.3457	9168.7	8273.85
918.0548	1843.005	9130.65	8235.8
918.1946	1844.6636	9153	8257.6
918.3344	1846.3214	9106.4	8211.25
918.4742	1847.9785	9106.75	8210.1
918.6139	1849.6349	9082.55	8183.25
918.7537	1851.2904	9061.55	8151.55
918.8934	1852.9453	9027.05	8126.05
919.0331	1854.5994	9008.45	8109.7
919.1727	1856.2528	9041.6	8139.75
919.3124	1857.9054	8964.25	8067.15
919.452	1859.5572	8962.55	8068.15
919.5916	1861.2083	8949.95	8052.6
919.7312	1862.8587	8934.35	8038.65
919.8708	1864.5084	8928.9	8031
920.0103	1866.1572	8892.3	7992.2
920.1498	1867.8054	8875.9	7976.9
920.2893	1869.4528	8837.05	7938.55
920.4288	1871.0994	8813.9	7916.45
920.5683	1872.7453	8820.1	7923.25
920.7077	1874.3905	8778.65	7864.3
920.8471	1876.0349	8743.65	7843.8
920.9865	1877.6786	8749.75	7851.8
921.1259	1879.3215	8733.35	7838.8
921.2653	1880.9637	8688.4	7792.25
921.4046	1882.6051	8690.1	7796.8
921.5439	1884.2458	8660.2	7763.8
921.6832	1885.8858	8629.05	7733.25
921.8225	1887.525	8618.4	7721.35
921.9617	1889.1634	8556.25	7659.8
922.101	1890.8011	8554.1	7654.15
922.2402	1892.4381	8532.05	7637.1
922.3794	1894.0743	8514.15	7619.95
922.5185	1895.7098	8509.3	7613.1
922.6577	1897.3446	8488.9	7594
922.7968	1898.9786	8469.6	7569.8
922.9359	1900.6118	8468.4	7572.9
923.075	1902.2443	8398	7503.65
923.214	1903.8761	8397.5	7504.2
923.3531	1905.5071	8377.6	7480.5
923.4921	1907.1374	8314.95	7420.2
923.6311	1908.7669	8318.95	7424.3
923.77	1910.3957	8303.95	7410.6
923.909	1912.0237	8245.6	7352.5
924.0479	1913.651	8245.3	7350.5
924.1868	1915.2776	8208.35	7313.25
924.3257	1916.9034	8174.75	7281.2
924.4646	1918.5285	8132.85	7239.2
924.6034	1920.1528	8109.95	7216.4
924.7422	1921.7764	8087.1	7191.95
924.881	1923.3992	8070.9	7176.5
925.0198	1925.0213	8034.75	7139.35
925.1586	1926.6427	7983	7089.65
925.2973	1928.2633	8065.1	7077.5
925.436	1929.8832	7972.95	7077.05
925.5747	1931.5023	7934.85	7041.05
925.7134	1933.1207	7907.75	7013.5
925.852	1934.7383	7894.2	6999.05
925.9906	1936.3552	7877.75	6985.1
926.1292	1937.9714	7859.15	6964.8
926.2678	1939.5868	7795.8	6899.75
926.4064	1941.2015	7792.45	6895.4
926.5449	1942.8154	7759.1	6864.25
926.6834	1944.4286	7717.85	6820.2
926.8219	1946.041	7716.6	6798.55
926.9604	1947.6528	7674.8	6773.35
927.0988	1949.2637	7648.2	6752.95
927.2372	1950.8739	7587.9	6695
927.3756	1952.4834	7606.95	6714.35
927.514	1954.0921	7575.3	6682.4
927.6523	1955.7001	7562.65	6666.4
927.7907	1957.3074	7554.4	6662.7
927.929	1958.9139	7508.15	6618.9
928.0673	1960.5197	7482.55	6589.5
928.2055	1962.1247	7445.9	6553.85
928.3438	1963.729	7430.05	6539.7
928.482	1965.3325	7383.2	6487.15
928.6202	1966.9353	7363.5	6473.7
928.7584	1968.5374	7353.2	6463
928.8965	1970.1387	7340.35	6450.4
929.0346	1971.7393	7280.65	6389.45
929.1727	1973.3392	7288.9	6397.8
929.3108	1974.9383	7237.95	6348.4
929.4489	1976.5366	7206.15	6319.05
929.5869	1978.1342	7219.35	6328.3
929.7249	1979.7311	7208.35	6320.7
929.8629	1981.3273	7165.3	6276.85
930.0009	1982.9227	7161.2	6274.1
930.1388	1984.5173	7120.8	6236.25
930.2767	1986.1112	7092.4	6207.3
930.4146	1987.7044	7086.7	6200.35
930.5525	1989.2968	7049.15	6161.25
930.6904	1990.8885	7047.45	6159.3
930.8282	1992.4795	7030.7	6145.85
930.966	1994.0697	7012.2	6125.65
931.1038	1995.6592	6975.8	6090.15
931.2415	1997.2479	6964.7	6078.7
931.3793	1998.8359	6948	6061.85
931.517	2000.4232	6912.1	6029.1
931.6547	2002.0097	6891.3	6010.3
931.7923	2003.5955	6856	5972.45
931.93	2005.1805	6874.1	5988.55
932.0676	2006.7648	6837.75	5954.55
932.2052	2008.3484	6812.9	5928.6
932.3427	2009.9312	6817.55	5932.55
932.4803	2011.5133	6793.05	5915.05
932.6178	2013.0946	6764	5882.85
932.7553	2014.6752	6751.6	5869.2
932.8928	2016.2551	6743.8	5857.95
933.0302	2017.8342	6704.75	5821.5
933.1676	2019.4126	6710.1	5829.4
933.305	2020.9902	6671.85	5791.65
933.4424	2022.5672	6650.15	5769.25
933.5798	2024.1433	6655	5768.7
933.7171	2025.7188	6620.85	5742.4
933.8544	2027.2935	6598.7	5718.8
933.9917	2028.8674	6582.45	5701.75
934.129	2030.4406	6551.7	5674.25
934.2662	2032.0131	6540.3	5662.45
934.4034	2033.5849	6525.15	5641.25
934.5406	2035.1559	6505	5625.15
934.6778	2036.7261	6494.5	5612.55
934.8149	2038.2957	6473.25	5589.4
934.952	2039.8645	6447.3	5559.8
935.0891	2041.4325	6448.95	5561.65
935.2262	2042.9998	6422.35	5541.35
935.3632	2044.5664	6404.4	5522.45
935.5002	2046.1323	6383.85	5503.45
935.6372	2047.6974	6368.6	5488.95
935.7742	2049.2617	6368.15	5491.05
935.9111	2050.8254	6371.65	5469.5
936.048	2052.3883	6351.55	5466.7
936.1849	2053.9504	6318.9	5432.55
936.3218	2055.5118	6330.5	5444.2
936.4586	2057.0725	6277.8	5390.85
936.5955	2058.6325	6274.7	5391.65
936.7323	2060.1917	6259.1	5379.25
936.869	2061.7502	6227.2	5343.1
937.0058	2063.3079	6211.2	5332.85
937.1425	2064.8649	6184.9	5302.5
937.2792	2066.4212	6172.45	5288.25
937.4159	2067.9767	6169.05	5288
937.5525	2069.5315	6141.7	5260.1
937.6891	2071.0856	6103.95	5222.2
937.8257	2072.6389	6088.65	5209
937.9623	2074.1915	6055.25	5176.35
938.0989	2075.7433	6039.75	5159
938.2354	2077.2945	6042.5	5159.75
938.3719	2078.8448	6022.95	5136.8
938.5084	2080.3945	6010.05	5126.05
938.6448	2081.9434	5988.25	5101.8
938.7812	2083.4916	5970.4	5084.55
938.9176	2085.039	5952.65	5062.4
939.054	2086.5857	5945	5052.1
939.1903	2088.1317	5927.6	5034.7
939.3267	2089.677	5909.5	5019.5
939.463	2091.2215	5905.5	5010.2
939.5992	2092.7652	5875.5	4980.8
939.7355	2094.3083	5860.35	4968.4
939.8717	2095.8506	5854.05	4966.2
940.0079	2097.3921	5858.75	4971.5
940.1441	2098.933	5836.55	4948.85
940.2802	2100.4731	5813.25	4926.75
940.4163	2102.0124	5836.05	4940.05
940.5524	2103.5511	5793.15	4903.05
940.6885	2105.089	5791.8	4901
940.8245	2106.6261	5767.55	4878.7
940.9606	2108.1626	5750.4	4864.7
941.0965	2109.6983	5763.3	4847.45
941.2325	2111.2332	5752.55	4864.2
941.3684	2112.7675	5734.2	4845
941.5044	2114.301	5704.4	4816.5
941.6403	2115.8337	5714.45	4824.9
941.7761	2117.3657	5686.25	4798.9
941.912	2118.897	5677.9	4790.45
942.0478	2120.4276	5647.3	4752.15
942.1835	2121.9575	5604.65	4715.9
942.3193	2123.4866	5642	4739.6
942.455	2125.0149	5610.5	4719.05
942.5907	2126.5426	5567.15	4682.3
942.7264	2128.0695	5550.95	4667.15
942.8621	2129.5956	5550.9	4670.8
942.9977	2131.1211	5545.3	4660.55
943.1333	2132.6458	5512.35	4625.45
943.2689	2134.1698	5526.55	4638.15
943.4044	2135.693	5516.75	4624.5
943.54	2137.2155	5513.7	4621.1
943.6755	2138.7373	5495.95	4607.7
943.8109	2140.2584	5469.9	4586.05
943.9464	2141.7787	5457.8	4570.4
944.0818	2143.2983	5432.6	4552.25
944.2172	2144.8171	5390.55	4510.8
944.3526	2146.3353	5395.25	4511.3
944.4879	2147.8527	5376	4491.75
944.6232	2149.3693	5386.75	4496.7
944.7585	2150.8853	5366.1	4476.35
944.8938	2152.4005	5342.15	4451.5
945.029	2153.9149	5332.6	4442.4
945.1642	2155.4287	5304.4	4413.8
945.2994	2156.9417	5309.6	4420.85
945.4346	2158.454	5294.5	4404.55
945.5697	2159.9655	5263.9	4382.15
945.7048	2161.4764	5255.6	4371.75
945.8399	2162.9865	5260	4377.2
945.9749	2164.4958	5250.95	4364.25
946.1099	2166.0045	5216.5	4330.15
946.2449	2167.5124	5206.5	4319.95
946.3799	2169.0195	5192.3	4306
946.5148	2170.526	5188.6	4298.25
946.6498	2172.0317	5182.55	4293.8
946.7846	2173.5367	5168.35	4279.25
946.9195	2175.0409	5150.1	4263.75
947.0543	2176.5445	5150.25	4264.4
947.1891	2178.0473	5139.9	4251.2
947.3239	2179.5494	5122.2	4229.75
947.4587	2181.0507	5101.65	4213
947.5934	2182.5513	5079.55	4191.85
947.7281	2184.0512	5077.15	4188.95
947.8628	2185.5504	5056.05	4169.65
947.9974	2187.0488	5041.5	4156.55
948.132	2188.5465	5027.15	4142.7
948.2666	2190.0435	4992.8	4106.4
948.4012	2191.5397	4984.65	4094.95
948.5357	2193.0353	4992	4102.2
948.6702	2194.5301	4965.05	4072.85
948.8047	2196.0241	4955.1	4063.05
948.9392	2197.5175	4956.85	4063.25
949.0736	2199.0101	4932.05	4035.55
949.208	2200.502	4907.55	4019.45
949.3424	2201.9931	4887.45	4001.7
949.4767	2203.4835	4868.1	3980.95
949.611	2204.9733	4849.25	3959.05
949.7453	2206.4622	4855.2	3971.5
949.8796	2207.9505	4852.7	3967.9
950.0138	2209.438	4793.45	3913.8
950.148	2210.9248	4788.6	3901.35
950.2822	2212.4109	4785.4	3900.3
950.4164	2213.8962	4764.4	3871.9
950.5505	2215.3809	4790.1	3896.6
950.6846	2216.8648	4764.95	3871.85
950.8186	2218.3479	4748.85	3848
950.9527	2219.8304	4725.7	3830.35
951.0867	2221.3121	4721.05	3825.8
951.2207	2222.7931	4710.85	3818.9
951.3546	2224.2733	4689.35	3797.3
951.4886	2225.7529	4670.35	3780.2
951.6225	2227.2317	4644.4	3754.9
951.7563	2228.7098	4657.35	3773.35
951.8902	2230.1872	4624.75	3741.25
952.024	2231.6638	4616.5	3733.5
952.1578	2233.1397	4597.85	3706.45
952.2916	2234.6149	4602.5	3719.3
952.4253	2236.0894	4567.7	3678.85
952.559	2237.5632	4582.55	3684.45
952.6927	2239.0362	4543.55	3655.75
952.8263	2240.5085	4544.3	3658.3
952.9599	2241.9801	4515.05	3627.55
953.0935	2243.4509	4498.55	3609.5
953.2271	2244.921	4479.35	3586.1
953.3606	2246.3904	4470	3575.95
953.4941	2247.8591	4460.85	3568.15
953.6276	2249.3271	4449.15	3561.45
953.7611	2250.7943	4457.55	3566.7
953.8945	2252.2608	4434.5	3543.6
954.0279	2253.7266	4418.45	3527.6
954.1612	2255.1917	4427.55	3537.5
954.2946	2256.656	4408.45	3521.65
954.4279	2258.1197	4401.65	3518.2
954.5612	2259.5826	4382.05	3494.5
954.6944	2261.0447	4376.05	3486.8
954.8276	2262.5062	4362.05	3471.25
954.9608	2263.9669	4344.5	3452.35
955.094	2265.4269	4333.15	3443.5
955.2271	2266.8862	4326.7	3437.15
955.3602	2268.3448	4323.25	3436.8
955.4933	2269.8026	4322.3	3435.55
955.6264	2271.2598	4312.65	3428.6
955.7594	2272.7162	4289.6	3402.05
955.8924	2274.1719	4273.45	3381.4
956.0253	2275.6268	4262.75	3373.75
956.1583	2277.0811	4276.35	3386.4
956.2912	2278.5346	4248.55	3360.05
956.4241	2279.9874	4249.15	3360.45
956.5569	2281.4395	4238.4	3353.2
956.6897	2282.8908	4220.75	3330.6
956.8225	2284.3414	4234.5	3345.95
956.9553	2285.7914	4204.75	3316.7
957.088	2287.2406	4198.95	3308.6
957.2207	2288.689	4194.4	3300.25
957.3534	2290.1368	4166.95	3270.95
957.486	2291.5838	4154.35	3256.4
957.6186	2293.0302	4156.95	3260.95
957.7512	2294.4758	4141.8	3251.15
957.8838	2295.9206	4138.1	3245.4
958.0163	2297.3648	4123.45	3234.95
958.1488	2298.8082	4111.9	3220.85
958.2813	2300.251	4102.35	3210.85
958.4137	2301.693	4083.9	3191.6
958.5461	2303.1343	4102.1	3208.6
958.6785	2304.5748	4079.35	3189.5
958.8108	2306.0147	4079	3192.05
958.9432	2307.4538	4064.55	3176.5
959.0754	2308.8922	4037.05	3154.8
959.2077	2310.3299	4045.55	3160.35
959.3399	2311.7669	4016.7	3130.75
959.4721	2313.2031	4003.6	3114.1
959.6043	2314.6387	3997.7	3108.85
959.7365	2316.0735	3971.05	3082.05
959.8686	2317.5076	3978.35	3087.6
960.0006	2318.941	3978.2	3087.35
960.1327	2320.3737	3960.95	3068.95
960.2647	2321.8056	3962.15	3066.45
960.3967	2323.2369	3953.95	3063.35
960.5287	2324.6674	3934.35	3043.3
960.6606	2326.0972	3924.05	3034.75
960.7925	2327.5263	3911.75	3021.9
960.9244	2328.9547	3903.25	3011.35
961.0562	2330.3823	3897.2	3005
961.1881	2331.8092	3894.95	3001.1
961.3198	2333.2355	3863.75	2970.8
961.4516	2334.661	3867.3	2974.05
961.5833	2336.0858	3861.1	2968.6
961.715	2337.5098	3842.45	2948.55
961.8467	2338.9332	3846.65	2954.85
961.9783	2340.3558	3829.9	2937.45
962.1099	2341.7778	3823.95	2936.75
962.2415	2343.199	3810.05	2921.1
962.373	2344.6195	3799.35	2914.3
962.5045	2346.0393	3792.6	2906.25
962.636	2347.4583	3799.9	2909.1
962.7675	2348.8767	3789.35	2898.7
962.8989	2350.2943	3779.85	2887.85
963.0303	2351.7113	3781.35	2885.65
963.1617	2353.1275	3757.9	2862.3
963.293	2354.543	3755.15	2850.1
963.4243	2355.9578	3739.95	2849.05
963.5556	2357.3718	3718.45	2830.1
963.6868	2358.7852	3721.85	2834.35
963.818	2360.1978	3707.05	2819.75
963.9492	2361.6098	3698.35	2810.25
964.0803	2363.021	3691.5	2798.25
964.2114	2364.4315	3677.65	2787.85
964.3425	2365.8413	3675.2	2787.15
964.4736	2367.2504	3664.8	2777.8
964.6046	2368.6587	3637.25	2753.05
964.7356	2370.0664	3619.05	2731.45
964.8666	2371.4733	3620.95	2734.15
964.9975	2372.8795	3603	2716.05
965.1284	2374.285	3595.45	2705.8
965.2593	2375.6899	3588.85	2704.05
965.3901	2377.0939	3570.85	2684.75
965.5209	2378.4973	3569.15	2682.7
965.6517	2379.9	3557.45	2670.95
965.7825	2381.3019	3544.8	2660.3
965.9132	2382.7032	3551.95	2667.3
966.0439	2384.1037	3537.45	2655.95
966.1745	2385.5035	3530.3	2650.5
966.3051	2386.9027	3504.35	2622.35
966.4357	2388.3011	3504.3	2618.3
966.5663	2389.6987	3482.65	2600.85
966.6968	2391.0957	3483.2	2601.25
966.8273	2392.492	3473.65	2590.85
966.9578	2393.8876	3451.4	2565.7
967.0882	2395.2824	3440.35	2556.55
967.2186	2396.6765	3428.25	2544.75
967.349	2398.07	3421.1	2536.25
967.4793	2399.4627	3433.15	2548.05
967.6097	2400.8547	3415.85	2530.2
967.7399	2402.246	3403.9	2511.6
967.8702	2403.6366	3382.05	2496.8
968.0004	2405.0265	3370.45	2487.6
968.1306	2406.4156	3363.75	2476.45
968.2607	2407.8041	3366.15	2478.35
968.3909	2409.1918	3359.4	2471.25
968.521	2410.5789	3337.05	2451.95
968.651	2411.9652	3351.2	2463.45
968.781	2413.3508	3305.15	2419.6
968.911	2414.7358	3317.2	2431.5
969.041	2416.12	3310	2427.05
969.1709	2417.5035	3296.75	2412.95
969.3008	2418.8863	3295.25	2409.05
969.4307	2420.2684	3287.2	2400.65
969.5606	2421.6497	3266.05	2378.7
969.6904	2423.0304	3259.35	2375
969.8201	2424.4104	3255.4	2368.65
969.9499	2425.7896	3246.1	2359.3
970.0796	2427.1682	3237.4	2354.65
970.2093	2428.546	3240.25	2357.15
970.3389	2429.9232	3231.15	2343.65
970.4685	2431.2996	3226.4	2337.45
970.5981	2432.6753	3206.7	2319.6
970.7277	2434.0503	3205.55	2320.55
970.8572	2435.4246	3196.4	2310
970.9867	2436.7982	3182	2295.9
971.1161	2438.1711	3172.15	2284.85
971.2456	2439.5433	3172	2285
971.375	2440.9148	3157.8	2265.75
971.5043	2442.2856	3142.75	2257.85
971.6336	2443.6557	3136.15	2250.3
971.7629	2445.025	3123.05	2236.3
971.8922	2446.3937	3141.1	2255.5
972.0214	2447.7617	3099.85	2213.4
972.1506	2449.1289	3120.1	2235.35
972.2798	2450.4955	3125.35	2237.8
972.4089	2451.8613	3107.1	2220.9
972.538	2453.2265	3086.95	2203.25
972.6671	2454.5909	3088.6	2202.35
972.7961	2455.9546	3090.5	2205.75
972.9251	2457.3177	3064.25	2177.3
973.0541	2458.68	3075.95	2187.95
973.1831	2460.0416	3071.55	2186.1
973.312	2461.4025	3063.45	2178.1
973.4408	2462.7627	3061.9	2165.1
973.5697	2464.1222	3052.7	2169
973.6985	2465.4811	3033.95	2146.7
973.8273	2466.8392	3030.35	2145.45
973.956	2468.1966	3030	2142.3
974.0847	2469.5533	3044.65	2155
974.2134	2470.9093	3020.05	2133.35
974.3421	2472.2645	3017.95	2130.25
974.4707	2473.6191	2990.95	2106.6
974.5993	2474.973	2987.35	2101.75
974.7278	2476.3262	2988.25	2100
974.8563	2477.6787	2981.7	2098
974.9848	2479.0305	2959.1	2075.4
975.1132	2480.3816	2953.2	2067.45
975.2417	2481.7319	2951.55	2065.95
975.37	2483.0816	2949.6	2061
975.4984	2484.4306	2951.3	2065.15
975.6267	2485.7789	2932.8	2048.95
975.755	2487.1264	2927.95	2042
975.8833	2488.4733	2911.45	2027.55
976.0115	2489.8195	2916.9	2023.8
976.1397	2491.165	2895.15	2005.9
976.2678	2492.5097	2892.75	2006.1
976.3959	2493.8538	2878.9	1993.05
976.524	2495.1972	2868.65	1981.55
976.6521	2496.5398	2845.9	1954.75
976.7801	2497.8818	2864.4	1975.05
976.9081	2499.2231	2852.45	1965.35
977.036	2500.5637	2854.3	1965.2
977.164	2501.9035	2833.7	1947.35
977.2918	2503.2427	2836.7	1944
977.4197	2504.5812	2825.25	1938.6
977.5475	2505.919	2826.85	1937.95
977.6753	2507.256	2809.3	1923.55
977.8031	2508.5924	2798.9	1913.85
977.9308	2509.9281	2808.75	1915.65
978.0585	2511.2631	2785.55	1899.55
978.1861	2512.5974	2798.95	1912.6
978.3137	2513.9309	2774.45	1889.4
978.4413	2515.2638	2785.75	1872.5
978.5689	2516.596	2772.05	1884.6
978.6964	2517.9275	2744.15	1856.7
978.8239	2519.2583	2743.5	1856
978.9513	2520.5884	2743.25	1854.35
979.0788	2521.9178	2741.35	1857.6
979.2062	2523.2465	2731.75	1844.4
979.3335	2524.5745	2725.7	1839.6
979.4608	2525.9018	2720.25	1833.5
979.5881	2527.2284	2704.65	1818.1
979.7154	2528.5543	2705.1	1819.85
979.8426	2529.8796	2707.4	1822.15
979.9698	2531.2041	2702.85	1817.65
980.0969	2532.5279	2684.8	1800.95
980.224	2533.851	2691.2	1804.9
980.3511	2535.1735	2690.6	1804.3
980.4781	2536.4952	2681.6	1793.45
980.6052	2537.8163	2677.25	1788.3
980.7321	2539.1366	2670.85	1786.15
980.8591	2540.4562	2664.15	1775.3
980.986	2541.7752	2658.1	1770.45
981.1129	2543.0935	2654.8	1767.1
981.2397	2544.411	2650.7	1760.5
981.3665	2545.7279	2649.15	1764.1
981.4933	2547.0441	2642.35	1752.05
981.62	2548.3596	2648.8	1759.65
981.7467	2549.6744	2639.35	1752.25
981.8734	2550.9885	2635.7	1741.45
982.0001	2552.3019	2624.25	1738.1
982.1267	2553.6146	2632.3	1745.25
982.2532	2554.9266	2600.35	1713.65
982.3798	2556.2379	2607.05	1719.05
982.5063	2557.5485	2604.05	1717.95
982.6327	2558.8585	2599.05	1706
982.7592	2560.1677	2596.3	1704.4
982.8856	2561.4762	2592.7	1703.65
983.0119	2562.7841	2584.3	1693.85
983.1383	2564.0913	2583.6	1696.3
983.2646	2565.3977	2576.1	1690
983.3908	2566.7035	2576.15	1688.8
983.517	2568.0086	2573.45	1684.75
983.6432	2569.313	2568.05	1678.25
983.7694	2570.6167	2569.35	1679.1
983.8955	2571.9197	2563.05	1677.5
984.0216	2573.222	2552.35	1660.05
984.1476	2574.5236	2550.4	1662.15
984.2737	2575.8246	2546.95	1659.15
984.3996	2577.1248	2545.55	1655.8
984.5256	2578.4244	2544.55	1657.5
984.6515	2579.7232	2542.3	1652.8
984.7774	2581.0214	2562.75	1642
984.9032	2582.3189	2536.5	1649.35
985.029	2583.6157	2524.75	1634.55
985.1548	2584.9118	2523.75	1637.3
985.2806	2586.2072	2516.75	1629.9
985.4063	2587.5019	2513.35	1624.55
985.5319	2588.7959	2513.1	1626.15
985.6576	2590.0893	2510.45	1618.55
985.7832	2591.3819	2510.85	1625.9
985.9087	2592.6739	2498.05	1610.2
986.0343	2593.9652	2507.3	1619.6
986.1597	2595.2557	2500.4	1614
986.2852	2596.5456	2494.8	1605.4
986.4106	2597.8348	2488.35	1602.3
986.536	2599.1234	2486.7	1599.25
986.6614	2600.4112	2482.2	1594.3
986.7867	2601.6983	2486.3	1598.2
986.912	2602.9848	2479.5	1592
987.0372	2604.2705	2471.9	1580.85
987.1624	2605.5556	2462.8	1575.25
987.2876	2606.84	2448.8	1560.2
987.4128	2608.1237	2445.85	1557.35
987.5379	2609.4067	2447.15	1557.9
987.6629	2610.689	2448.7	1557.05
987.788	2611.9707	2436.1	1545.15
987.913	2613.2516	2442.65	1550.85
988.0379	2614.5319	2412.55	1526.7
988.1629	2615.8115	2407.6	1519.5
988.2878	2617.0903	2411.3	1524.3
988.4126	2618.3685	2404.1	1518.6
988.5375	2619.6461	2403.65	1517.25
988.6622	2620.9229	2400.1	1512.9
988.787	2622.199	2395.6	1506.65
988.9117	2623.4745	2379.3	1492.6
989.0364	2624.7493	2368.3	1482.2
989.161	2626.0234	2380.45	1494
989.2857	2627.2968	2374.75	1489.15
989.4102	2628.5695	2364.45	1475.8
989.5348	2629.8415	2356.95	1472.3
989.6593	2631.1128	2361.8	1474.1
989.7837	2632.3835	2354.55	1470.75
989.9082	2633.6535	2353.35	1467.4
990.0326	2634.9228	2342.45	1456.25
990.1569	2636.1914	2332	1444.85
990.2812	2637.4593	2341.7	1455.15
990.4055	2638.7265	2338.1	1449.1
990.5298	2639.9931	2321.75	1435.15
990.654	2641.259	2329.65	1439.7
990.7782	2642.5242	2308.15	1421.05
990.9023	2643.7887	2311.1	1426.1
991.0264	2645.0525	2298	1412.85
991.1505	2646.3156	2295.5	1409.45
991.2745	2647.5781	2306.75	1420.75
991.3985	2648.8398	2293.65	1408.2
991.5225	2650.1009	2283	1387.2
991.6464	2651.3613	2291.75	1405.85
991.7703	2652.6211	2273.6	1386.5
991.8942	2653.8801	2264.45	1380.5
992.018	2655.1385	2271.3	1383.45
992.1418	2656.3961	2265	1379.8
992.2655	2657.6531	2262.55	1376.85
992.3892	2658.9094	2261.2	1374.25
992.5129	2660.1651	2262.8	1378.5
992.6366	2661.42	2254.8	1369.1
992.7602	2662.6743	2266.15	1383.2
992.8837	2663.9279	2249.15	1365.65
993.0073	2665.1808	2244.45	1358.5
993.1307	2666.433	2242.65	1358.25
993.2542	2667.6846	2236.6	1349.15
993.3776	2668.9354	2230.9	1341.3
993.501	2670.1856	2236.7	1349.8
993.6244	2671.4351	2236.4	1351.7
993.7477	2672.6839	2251.4	1365.9
993.8709	2673.9321	2250.5	1365.2
993.9942	2675.1795	2233.05	1347.2
994.1174	2676.4263	2237.7	1349.8
994.2405	2677.6724	2235.6	1350.1
994.3637	2678.9179	2231.5	1343.85
994.4868	2680.1626	2231.7	1346.55
994.6098	2681.4067	2233.3	1346.75
994.7328	2682.6501	2231.7	1345.8
994.8558	2683.8928	2225.75	1340.35
994.9788	2685.1348	2207.85	1323.45
995.1017	2686.3761	2207.55	1323.55
995.2245	2687.6168	2203.2	1316.75
995.3474	2688.8568	2192.25	1307.9
995.4702	2690.0961	2182.75	1298.95
995.5929	2691.3348	2176.95	1288.75
995.7156	2692.5727	2181	1293.85
995.8383	2693.81	2165.55	1280.8
995.961	2695.0466	2168.8	1286.25
996.0836	2696.2826	2175.45	1287.5
996.2062	2697.5178	2173.35	1267.65
996.3287	2698.7524	2155.55	1268.15
996.4512	2699.9863	2155.8	1269.65
996.5737	2701.2195	2143	1261.25
996.6961	2702.452	2158.05	1272.15
996.8185	2703.6839	2167.05	1281.2
996.9408	2704.9151	2150.2	1264.5
997.0631	2706.1456	2155.2	1269.75
997.1854	2707.3755	2165.7	1279.75
997.3077	2708.6046	2175.95	1287.6
997.4299	2709.8331	2162.5	1278.1
997.552	2711.0609	2177.4	1293.25
997.6742	2712.2881	2179.45	1295.85
997.7963	2713.5145	2181.6	1292.6
997.9183	2714.7403	2185.65	1299.15
998.0403	2715.9654	2191.05	1305.2
998.1623	2717.1899	2216.95	1315.35
998.2842	2718.4136	2218.2	1333.8
998.4062	2719.6367	2221.4	1338.35
998.528	2720.8591	2234.05	1342.7
998.6498	2722.0809	2222.6	1338
998.7716	2723.3019	2236.3	1347.1
998.8934	2724.5223	2245.6	1361.7
999.0151	2725.7421	2235.15	1346.95
999.1368	2726.9611	2246.75	1361.4
999.2584	2728.1795	2242.25	1350.95
999.38	2729.3972	2228.55	1342.65
999.5016	2730.6142	2221.75	1323.75
999.6231	2731.8306	2204.75	1320.5
999.7446	2733.0462	2185.3	1297
999.8661	2734.2612	2175.65	1286
999.9875	2735.4756	2151.4	1265.1
1000.1089	2736.6892	2120.2	1235.5
1000.2302	2737.9022	2111.15	1227
1000.3515	2739.1145	2079.4	1195.35
1000.4728	2740.3262	2086.6	1194.9
1000.594	2741.5372	2050.2	1166.75
1000.7152	2742.7475	2047.5	1162.65
1000.8363	2743.9571	2046.65	1161.45
1000.9575	2745.1661	2028.85	1138.75
1001.0785	2746.3744	2018.45	1131.75
1001.1996	2747.582	2003.95	1118.3
1001.3206	2748.7889	2007.65	1122.95
1001.4415	2749.9952	1987.35	1103.2
1001.5625	2751.2008	1975.7	1091
1001.6833	2752.4057	1972.65	1086.35
1001.8042	2753.61	1964.6	1078.05
1001.925	2754.8136	1967.3	1079.1
1002.0458	2756.0165	1955.7	1072.1
1002.1665	2757.2188	1952.4	1068.1
1002.2872	2758.4204	1953.85	1070.4
1002.4078	2759.6213	1955.2	1068.85
1002.5285	2760.8215	1956.8	1067.05
1002.649	2762.0211	1944.7	1060.2
1002.7696	2763.22	1939.2	1051
1002.8901	2764.4182	1932.65	1047.1
1003.0106	2765.6158	1933.45	1047.35
1003.131	2766.8127	1921.45	1037.15
1003.2514	2768.009	1920.55	1036.35
1003.3717	2769.2045	1920.95	1037.25
1003.492	2770.3994	1918.85	1033.15
1003.6123	2771.5936	1906.85	1022.1
1003.7325	2772.7872	1903.4	1017.9
1003.8527	2773.9801	1893.75	1008.7
1003.9729	2775.1723	1909.75	1009.45
1004.093	2776.3639	1895.9	1013.6
1004.2131	2777.5548	1890.85	1007.05
1004.3331	2778.745	1890.5	1005
1004.4531	2779.9346	1887.45	1005.5
1004.5731	2781.1235	1883.2	997.3
1004.693	2782.3117	1891.45	1009.9
1004.8129	2783.4992	1876.2	993.25
1004.9328	2784.6861	1881.6	997.05
1005.0526	2785.8723	1899.65	1014.2
1005.1723	2787.0579	1897.95	1011.35
1005.2921	2788.2428	1900.55	1014.95
1005.4118	2789.427	1915.25	1033.35
1005.5314	2790.6106	1921.1	1038.1
1005.651	2791.7935	1908.65	1024.5
1005.7706	2792.9757	1916	1035.05
1005.8902	2794.1573	1930.3	1045.4
1006.0097	2795.3382	1939	1056.45
1006.1291	2796.5184	1946.25	1063.7
1006.2485	2797.698	1966.6	1082.25
1006.3679	2798.8769	1972.75	1089
1006.4873	2800.0551	1997.9	1113.6
1006.6066	2801.2327	2006.95	1123.4
1006.7258	2802.4096	2025.7	1141.8
1006.8451	2803.5859	2037.45	1154.8
1006.9642	2804.7615	2054.6	1172.9
1007.0834	2805.9364	2069.85	1186.15
1007.2025	2807.1106	2102.6	1221.5
1007.3216	2808.2842	2127.1	1243.25
1007.4406	2809.4572	2153.8	1272.4
1007.5596	2810.6294	2185.35	1302.3
1007.6785	2811.801	2221	1339.05
1007.7975	2812.972	2260.15	1379.65
1007.9163	2814.1423	2302.05	1419.05
1008.0352	2815.3119	2335.2	1452.35
1008.154	2816.4808	2391.4	1510.95
1008.2727	2817.6491	2429.95	1547.85
1008.3914	2818.8167	2471.7	1590.35
1008.5101	2819.9837	2529.5	1642.45
1008.6288	2821.15	2577.4	1694.45
1008.7474	2822.3157	2616.95	1735.85
1008.8659	2823.4807	2663.6	1781.8
1008.9844	2824.645	2722.85	1840
1009.1029	2825.8086	2763.2	1882.25
1009.2214	2826.9716	2803.45	1921
1009.3398	2828.134	2834.4	1950.45
1009.4581	2829.2957	2878	1993.9
1009.5764	2830.4567	2899.35	2018.05
1009.6947	2831.617	2917.3	2034.75
1009.813	2832.7767	2935.45	2051.75
1009.9312	2833.9358	2925.15	2044.6
1010.0493	2835.0941	2930.9	2048.4
1010.1675	2836.2519	2914.3	2031.9
1010.2855	2837.4089	2893.2	2009.55
1010.4036	2838.5653	2889.35	2005.45
1010.5216	2839.7211	2891.3	2012.1
1010.6396	2840.8761	2905.85	2023.2
1010.7575	2842.0306	2913.25	2033.5
1010.8754	2843.1843	2932.45	2050.6
1010.9932	2844.3374	2982.4	2100.1
1011.111	2845.4899	3038.65	2155.25
1011.2288	2846.6417	3098.3	2215.05
1011.3465	2847.7928	3172.7	2292.7
1011.4642	2848.9433	3257.9	2376.05
1011.5818	2850.0931	3334.85	2454.25
1011.6995	2851.2422	3401.3	2516.35
1011.817	2852.3907	3452.3	2569.3
1011.9345	2853.5385	3512.3	2629.95
1012.052	2854.6857	3595.25	2684.3
1012.1695	2855.8323	3630.65	2748.9
1012.2869	2856.9781	3672.6	2791.8
1012.4042	2858.1233	3715.8	2833.9
1012.5216	2859.2679	3764.3	2882.3
1012.6389	2860.4118	3803.45	2922.15
1012.7561	2861.555	3856.9	2969.7
1012.8733	2862.6976	3889.7	3008.85
1012.9905	2863.8395	3905.6	3023.75
1013.1076	2864.9808	3946.55	3066.35
1013.2247	2866.1214	3946.4	3066.05
1013.3417	2867.2614	3959.8	3075.85
1013.4587	2868.4007	3978.35	3097.6
1013.5757	2869.5393	3986.7	3104.25
1013.6926	2870.6773	4002.6	3118.3
1013.8095	2871.8146	4017.2	3132.3
1013.9263	2872.9513	4016.05	3132.75
1014.0431	2874.0874	4014.6	3131.45
1014.1599	2875.2227	4004.4	3122.45
1014.2766	2876.3574	3974.6	3092.9
1014.3933	2877.4915	3961.15	3078.7
1014.51	2878.6249	3913.85	3035.45
1014.6266	2879.7577	3897.45	3013.6
1014.7431	2880.8898	3876.35	2983.7
1014.8596	2882.0212	3851.35	2970.7
1014.9761	2883.152	3847.6	2966.9
1015.0925	2884.2821	3831.75	2953.85
1015.2089	2885.4116	3821.2	2938.25
1015.3253	2886.5405	3809.65	2928.65
1015.4416	2887.6686	3834	2950.9
1015.5579	2888.7962	3823.15	2945.9
1015.6741	2889.923	3825.3	2946.75
1015.7903	2891.0493	3844.05	2964.75
1015.9065	2892.1748	3849.55	2969.95
1016.0226	2893.2997	3871	2989.65
1016.1387	2894.424	3872.7	2994.35
1016.2547	2895.5476	3909.15	3029.65
1016.3707	2896.6706	3926.9	3047.7
1016.4866	2897.7929	3936.2	3055.8
1016.6025	2898.9145	3970.55	3087.8
1016.7184	2900.0355	3995.7	3116.7
1016.8342	2901.1559	4018.1	3135.25
1016.95	2902.2756	4048.35	3165.8
1017.0658	2903.3946	4074.95	3194.9
1017.1815	2904.513	4100.65	3215.75
1017.2971	2905.6308	4141.8	3262.7
1017.4127	2906.7479	4153.25	3274.15
1017.5283	2907.8643	4177.85	3298.1
1017.6439	2908.9801	4192.25	3309.5
1017.7594	2910.0953	4189.45	3309.1
1017.8748	2911.2098	4199.05	3316.55
1017.9902	2912.3236	4193.3	3304.55
1018.1056	2913.4368	4206	3321.95
1018.2209	2914.5494	4163.55	3282.9
1018.3362	2915.6613	4123.05	3237.45
1018.4515	2916.7725	4089.2	3205.85
1018.5667	2917.8831	4070.95	3189.95
1018.6819	2918.9931	4031.75	3147.5
1018.797	2920.1024	4010.6	3130.3
1018.9121	2921.211	3972.95	3092.55
1019.0271	2922.319	3966.5	3088.95
1019.1421	2923.4264	3957.55	3077.15
1019.2571	2924.5331	3931.9	3053.25
1019.372	2925.6391	3916.55	3036.6
1019.4869	2926.7445	3907.1	3027.35
1019.6017	2927.8493	3909.8	3028.9
1019.7165	2928.9534	3910.9	3028.9
1019.8313	2930.0569	3912.9	3029.55
1019.946	2931.1597	3886.9	3005.4
1020.0606	2932.2619	3887.35	3007.25
1020.1753	2933.3634	3871.6	2990.4
1020.2899	2934.4643	3862.55	2974.8
1020.4044	2935.5645	3855	2969.3
1020.5189	2936.6641	3817.5	2934.3
1020.6334	2937.763	3752.1	2872.95
1020.7478	2938.8613	3714.85	2835.15
1020.8622	2939.959	3665.45	2778.8
1020.9765	2941.056	3585.05	2705.05
1021.0908	2942.1523	3507	2625.6
1021.2051	2943.248	3439.05	2558.85
1021.3193	2944.3431	3338.15	2457.15
1021.4334	2945.4375	3234.75	2353.55
1021.5476	2946.5313	3140.5	2262.95
1021.6617	2947.6244	3042.05	2162.9
1021.7757	2948.7169	2928.35	2048.35
1021.8897	2949.8087	2844.4	1962.6
1022.0037	2950.8999	2749.7	1869.05
1022.1176	2951.9904	2670.05	1791.3
1022.2315	2953.0803	2595.85	1716.45
1022.3453	2954.1696	2546.25	1666.8
1022.4591	2955.2582	2476.7	1597.15
1022.5728	2956.3462	2442.7	1562.55
1022.6865	2957.4335	2394.25	1513.35
1022.8002	2958.5202	2355.9	1473.6
1022.9138	2959.6062	2337.75	1458.35
1023.0274	2960.6916	2302.6	1423.25
1023.141	2961.7764	2281.8	1401.1
1023.2545	2962.8605	2270.15	1390.6
1023.3679	2963.9439	2253.55	1373.55
1023.4813	2965.0267	2240.55	1359.35
1023.5947	2966.1089	2247.6	1344.8
1023.708	2967.1905	2235.7	1357.6
1023.8213	2968.2714	2217.65	1338.85
1023.9346	2969.3516	2225.35	1346.3
1024.0478	2970.4312	2232.15	1345.3
1024.1609	2971.5102	2218.3	1339.5
1024.274	2972.5885	2214.9	1336.45
1024.3871	2973.6662	2225.85	1340.1
1024.5002	2974.7432	2215	1337
1024.6132	2975.8196	2211.5	1332.4
1024.7261	2976.8954	2205.8	1327.35
1024.839	2977.9705	2185.65	1306.1
1024.9519	2979.045	2167.65	1290.1
1025.0647	2980.1188	2159.4	1281.6
1025.1775	2981.192	2138.35	1260.95
1025.2902	2982.2645	2112.15	1231.45
1025.4029	2983.3364	2091.45	1211.85
1025.5156	2984.4077	2063.55	1183.85
1025.6282	2985.4783	2035.9	1151.3
1025.7407	2986.5483	1992.6	1114.4
1025.8532	2987.6177	1957	1076.9
1025.9657	2988.6864	1932.15	1053.35
1026.0782	2989.7545	1900.65	1018.4
1026.1906	2990.8219	1857.75	977.95
1026.3029	2991.8887	1829.8	947.4
1026.4152	2992.9548	1799.45	919.35
1026.5275	2994.0204	1760.8	880.7
1026.6397	2995.0852	1731.9	852
1026.7519	2996.1495	1706.75	825.8
1026.864	2997.2131	1689.25	811.9
1026.9761	2998.276	1665.35	785.5
1027.0882	2999.3383	1630.5	751.75
1027.2002	3000.4	1624.8	744.8
1027.3122	3001.4611	1606.55	729.35
1027.4241	3002.5215	1601.65	721.65
1027.536	3003.5812	1575.7	696.15
1027.6478	3004.6404	1559.15	681.2
1027.7596	3005.6989	1546.7	665.45
1027.8714	3006.7567	1535.7	657
1027.9831	3007.8139	1563.35	654
1028.0947	3008.8705	1527.2	647.5
1028.2064	3009.9264	1522.1	639.85
1028.3179	3010.9818	1510.65	630.65
1028.4295	3012.0364	1510.85	632
1028.541	3013.0905	1499.8	621.4
1028.6524	3014.1439	1500.9	620.65
1028.7638	3015.1966	1496.35	621
1028.8752	3016.2487	1490.2	611.65
1028.9865	3017.3002	1496.25	613.4
1029.0978	3018.3511	1492.5	615.9
1029.209	3019.4013	1484.3	605.25
1029.3202	3020.4509	1488.05	608.55
1029.4314	3021.4998	1483.85	604.6
1029.5425	3022.5481	1484.2	606.2
1029.6535	3023.5958	1486.05	607
1029.7645	3024.6428	1484.25	604.05
1029.8755	3025.6892	1482.75	605.15
1029.9864	3026.735	1479.55	600.5
1030.0973	3027.7802	1485.4	606.4
1030.2082	3028.8247	1491.45	613.9
1030.319	3029.8685	1483.45	604
1030.4297	3030.9118	1493	614.55
1030.5404	3031.9544	1494.75	617.35
1030.6511	3032.9963	1497.55	617
1030.7617	3034.0376	1497.85	621.75
1030.8723	3035.0783	1499.3	616.05
1030.9829	3036.1184	1499.2	621.05
1031.0934	3037.1578	1512.25	635.95
1031.2038	3038.1966	1498.2	618.3
1031.3142	3039.2348	1503	626
1031.4246	3040.2723	1507.7	621.05
1031.5349	3041.3092	1496.35	618.65
1031.6452	3042.3455	1501.05	623.6
1031.7554	3043.3811	1492.65	612.6
1031.8656	3044.4161	1488.25	612.2
1031.9758	3045.4505	1486.85	607.65
1032.0859	3046.4842	1483.25	605.45
1032.1959	3047.5173	1475.1	600.3
1032.3059	3048.5498	1466.5	586.55
1032.4159	3049.5816	1467.65	591.7
1032.5258	3050.6128	1451.35	571.9
1032.6357	3051.6434	1453.65	573.1
1032.7455	3052.6734	1455.25	577.2
1032.8553	3053.7027	1445.85	568.25
1032.9651	3054.7314	1431.35	552.15
1033.0748	3055.7594	1431.5	553.65
1033.1845	3056.7868	1418.35	540.25
1033.2941	3057.8136	1422	545.65
1033.4037	3058.8398	1410.95	534.05
1033.5132	3059.8653	1408.55	532.2
1033.6227	3060.8902	1406.05	526.8
1033.7321	3061.9145	1403.35	523.1
1033.8415	3062.9381	1393.2	514.8
1033.9509	3063.9612	1405.2	511.75
1034.0602	3064.9835	1374.25	496.15
1034.1694	3066.0053	1380.65	502.05
1034.2787	3067.0264	1364.15	487.6
1034.3878	3068.0469	1364.7	485.85
1034.497	3069.0668	1356.25	474.85
1034.6061	3070.086	1352	475.55
1034.7151	3071.1046	1334.6	456
1034.8241	3072.1226	1335.3	455.4
1034.9331	3073.1399	1321.1	443.8
1035.042	3074.1567	1308.6	430.15
1035.1508	3075.1727	1300.05	420.15
1035.2597	3076.1882	1295.3	418.05
1035.3684	3077.203	1281.25	403.65
1035.4772	3078.2173	1277.4	398.75
1035.5859	3079.2308	1275.4	392.3
1035.6945	3080.2438	1267.7	387.55
1035.8031	3081.2561	1258.85	380.6
1035.9117	3082.2678	1247.95	372.6
1036.0202	3083.2789	1241.75	364.05
1036.1286	3084.2893	1234.15	356.35
1036.2371	3085.2991	1228.05	351.6
1036.3454	3086.3083	1224.35	341.45
1036.4538	3087.3169	1218.15	338.25
1036.562	3088.3248	1211.9	332.4
1036.6703	3089.3321	1209.95	329.95
1036.7785	3090.3388	1202.4	325.75
1036.8866	3091.3449	1197.75	320.25
1036.9948	3092.3503	1196.5	314.85
1037.1028	3093.3551	1190.7	314.65
1037.2108	3094.3593	1188.1	312.05
1037.3188	3095.3629	1184.65	309.55
1037.4267	3096.3658	1178.5	299.6
1037.5346	3097.3681	1177.75	299.85
1037.6425	3098.3698	1176.45	296.15
1037.7503	3099.3708	1180.3	295.35
1037.858	3100.3713	1165.2	288.45
1037.9657	3101.3711	1166.15	287.3
1038.0734	3102.3702	1299.35	284.5
1038.181	3103.3688	1162.3	283.9
1038.2886	3104.3667	1151.95	276.8
1038.3961	3105.364	1147.65	271.7
1038.5036	3106.3607	1146.2	268.4
1038.611	3107.3568	1150.5	272.15
1038.7184	3108.3522	1141.55	263.2
1038.8257	3109.347	1142.6	264
1038.933	3110.3412	1140.5	259.45
1039.0403	3111.3348	1141.65	265.5
1039.1475	3112.3277	1139.85	259.35
1039.2547	3113.32	1133.45	257.9
1039.3618	3114.3117	1135.5	256.9
1039.4689	3115.3028	1125.15	246.85
1039.5759	3116.2932	1132.8	253.5
1039.6829	3117.2831	1130.6	248.5
1039.7898	3118.2723	1124.05	248.65
1039.8967	3119.2608	1124.45	246.1
1040.0035	3120.2488	1124.15	244.05
1040.1103	3121.2361	1117.45	240.95
1040.2171	3122.2229	1115.45	239.1
1040.3238	3123.209	1117.05	239.25
1040.4305	3124.1944	1113.75	239.5
1040.5371	3125.1793	1110.55	232.8
1040.6437	3126.1635	1108.5	233.3
1040.7502	3127.1471	1108.35	231.4
1040.8567	3128.1301	1105.2	228.4
1040.9631	3129.1125	1101.8	225.55
1041.0695	3130.0942	1105.3	227.95
1041.1759	3131.0753	1110.6	224.95
1041.2822	3132.0558	1102.7	222.2
1041.3884	3133.0357	1098.65	221
1041.4946	3134.015	1101	224.9
1041.6008	3134.9936	1093.7	214.65
1041.7069	3135.9716	1113.45	217.45
1041.813	3136.949	1090.35	213.4
1041.919	3137.9258	1109.65	213.3
1042.025	3138.902	1096.45	214.6
1042.1309	3139.8775	1090.55	213.4
1042.2368	3140.8524	1086.05	207.1
1042.3427	3141.8267	1085.6	205.7
1042.4485	3142.8004	1080.25	204.55
1042.5542	3143.7735	1088.7	204.35
1042.6599	3144.7459	1083.8	205.4
1042.7656	3145.7178	1079.1	203.1
1042.8712	3146.689	1076.75	200.1
1042.9768	3147.6596	1076.45	195.7
1043.0823	3148.6295	1075.35	199.15
1043.1878	3149.5989	1072.75	196.2
1043.2932	3150.5676	1068.15	193.05
1043.3986	3151.5357	1071.55	194.8
1043.5039	3152.5032	1068.35	191.65
1043.6092	3153.4701	1068.25	190.8
1043.7145	3154.4364	1070.05	190.4
1043.8197	3155.402	1065.4	189.95
1043.9248	3156.367	1065.05	185.25
1044.03	3157.3315	1091.9	185.45
1044.135	3158.2952	1060.3	184.6
1044.24	3159.2584	1062.4	187.7
1044.345	3160.221	1061.9	182.1
1044.4499	3161.1829	1055.6	176.6
1044.5548	3162.1442	1052	175.95
1044.6596	3163.105	1054.55	178.5
1044.7644	3164.065	1053.95	177.65
1044.8692	3165.0245	1056.95	176.7
1044.9739	3165.9834	1049.35	174.4
1045.0785	3166.9416	1047.45	172.05
1045.1831	3167.8993	1047.5	169
1045.2877	3168.8563	1051.2	175.85
1045.3922	3169.8127	1046.45	170
1045.4966	3170.7684	1043.6	167.6
1045.6011	3171.7236	1047.3	168.8
1045.7054	3172.6782	1037.65	160
1045.8098	3173.6321	1038.6	161.35
1045.914	3174.5854	1046.45	167
1046.0183	3175.5381	1042.2	165.6
1046.1224	3176.4902	1043.3	168.1
1046.2266	3177.4417	1037.85	161.6
1046.3307	3178.3926	1030.15	155.2
1046.4347	3179.3428	1037.25	160.7
1046.5387	3180.2924	1040.6	162.2
1046.6427	3181.2415	1038.05	159.75
1046.7466	3182.1899	1036.9	159.65
1046.8504	3183.1377	1036.2	159.2
1046.9542	3184.0848	1036.05	156.6
1047.058	3185.0314	1028.35	150.65
1047.1617	3185.9773	1028.4	151.65
1047.2654	3186.9227	1028.1	150.55
1047.369	3187.8674	1026.3	151.35
1047.4726	3188.8115	1030.25	151.2
1047.5761	3189.755	1027.8	150.95
1047.6796	3190.6979	1026.65	150.95
1047.783	3191.6402	1024.75	149.95
1047.8864	3192.5818	1023.9	146.9
1047.9898	3193.5229	1028.25	143.95
1048.0931	3194.4633	1026.9	151.35
1048.1963	3195.4031	1021	144.3
1048.2995	3196.3423	1019.05	143.5
1048.4027	3197.2809	1020.95	147.2
1048.5058	3198.2189	1017.45	141.25
1048.6089	3199.1563	1029.7	148
1048.7119	3200.0931	1013.35	138.35
1048.8148	3201.0292	1014.55	139.15
1048.9178	3201.9648	1018.3	143.25
1049.0206	3202.8997	1018.15	138.2
1049.1235	3203.834	1014.85	138
1049.2262	3204.7677	1014.85	139.3
1049.329	3205.7008	1016.1	139.2
1049.4317	3206.6333	1008.15	131.5
1049.5343	3207.5652	1010.7	132.65
1049.6369	3208.4964	1013.1	137.3
1049.7394	3209.4271	1008.05	130.95
1049.8419	3210.3571	1010.8	133.9
1049.9444	3211.2865	1007.65	130.1
1050.0468	3212.2154	1009.8	133.35
1050.1491	3213.1436	1013.65	134.85
1050.2514	3214.0712	1014.7	133.15
1050.3537	3214.9982	1006.35	128.75
1050.4559	3215.9246	1003.8	129.05
1050.5581	3216.8503	1001.5	126
1050.6602	3217.7755	999.6	124.4
1050.7623	3218.7001	1001.15	126.2
1050.8643	3219.624	1000.4	124.75
1050.9663	3220.5473	1003.7	127.8
1051.0682	3221.4701	1000.7	124.35
1051.1701	3222.3922	1000.75	124.4
1051.2719	3223.3137	998.4	121.95
1051.3737	3224.2346	998.95	124.15
1051.4754	3225.1549	996.2	119.75
1051.5771	3226.0746	996.45	120.35
1051.6788	3226.9937	998.3	123.65
1051.7804	3227.9121	992.7	117.35
1051.8819	3228.83	995.65	121.6
1051.9834	3229.7473	998.15	122.95
1052.0849	3230.6639	995.05	118.9
1052.1863	3231.5799	992.95	118.65
1052.2876	3232.4954	991.4	113.5
1052.3889	3233.4102	991.3	115.05
1052.4902	3234.3244	991.95	116.95
1052.5914	3235.238	988.05	112.5
1052.6926	3236.151	1013.4	115.1
1052.7937	3237.0634	989.7	116.15
1052.8948	3237.9752	989.65	113.55
1052.9958	3238.8864	986.35	109.3
1053.0968	3239.797	986.2	110.65
1053.1977	3240.7069	984.65	108.9
1053.2986	3241.6163	984.7	107
1053.3994	3242.5251	980.75	107.1
1053.5002	3243.4332	986.05	110.8
1053.6009	3244.3408	983.85	107.35
1053.7016	3245.2477	982.4	108
1053.8022	3246.154	982.05	106.5
1053.9028	3247.0598	981	105.15
1054.0034	3247.9649	976.95	99.8
1054.1039	3248.8694	976.65	99.2
1054.2043	3249.7733	975.75	99.7
1054.3047	3250.6766	976.7	103.05
1054.4051	3251.5793	976	99.15
1054.5054	3252.4814	972.15	94.95
1054.6056	3253.3829	973.5	98.7
1054.7058	3254.2838	974.45	102.5
1054.806	3255.1841	972.2	98.55
1054.9061	3256.0838	971.25	95.45
1055.0061	3256.9829	972.3	97.3
1055.1062	3257.8814	971.25	93.45
1055.2061	3258.7792	970.25	93.3
1055.306	3259.6765	970.55	92.95
1055.4059	3260.5731	966.35	91.15
1055.5057	3261.4692	961	85.15
1055.6055	3262.3647	964.5	89.15
1055.7052	3263.2595	961.5	86.45
1055.8049	3264.1538	961.2	86.1
1055.9045	3265.0474	961.35	86.7
1056.0041	3265.9404	959.3	85.8
1056.1036	3266.8329	959.9	84.15
1056.2031	3267.7247	964.7	79.6
1056.3025	3268.616	955.15	81.9
1056.4019	3269.5066	954	78.8
1056.5013	3270.3966	951.15	73.95
1056.6005	3271.286	949.05	76.3
