Software Version:	3.9.2.0
Unit SN:	10000200
Spectrometer SN:	6960
Date:	3/8/2024 11:11:48 AM
Data Line Index:	25
Spectral Points:	2048
Integration time (ms):	125
Averages:	20
Delay (ms):	30000
Sequence Number:	1
Processing:	dark subtract
Laser Power (mW):	300
Laser Current (mA):	818
Laser Diode Temp (C):	25
Laser Case Temp (C):	24.5
System Temp (C):	24.4
Spectrometer Temp (C):	22.3
CCD Temp (C):	0.008
Secondary Temp (C):	20.007
Heatsink Temp (C):	19.294
CCDPCB Temp (C):	32.45
SecondaryPCB Temp (C):	25.947

Wavelength	RamanShift	Raw Counts	Dark Subtracted
787.061	30.1047	431.15	22.35
787.2016	32.3739	430.55	21.85
787.3422	34.6426	431.15	21.85
787.4828	36.9109	435.1	24.55
787.6235	39.1787	441.1	25.45
787.7642	41.4461	449.65	31.5
787.9049	43.7131	453.25	30.65
788.0456	45.9796	460.35	35.45
788.1863	48.2456	465.3	36.5
788.3271	50.5112	470	36.25
788.4679	52.7764	476.6	41.2
788.6087	55.0411	486.2	45.65
788.7496	57.3054	495.7	49.6
788.8904	59.5692	498.55	51.85
789.0313	61.8326	503.8	54.65
789.1722	64.0955	512.5	60.4
789.3132	66.3579	523.5	66.35
789.4541	68.6199	538.25	76.65
789.5951	70.8815	558.4	92.6
789.7361	73.1426	603.55	133.55
789.8771	75.4032	714.8	242.7
790.0181	77.6634	994.15	521.05
790.1592	79.9231	1632.25	1154.95
790.3003	82.1824	2947.65	2465.5
790.4414	84.4412	5165.8	4674.75
790.5825	86.6995	8122.9	7626.65
790.7237	88.9574	10889.9	10387.1
790.8648	91.2148	12779.45	12271.8
791.006	93.4717	13621.9	13109.9
791.1472	95.7282	13773.05	13259
791.2885	97.9842	13724.05	13208
791.4297	100.2398	13465.45	12948.85
791.571	102.4949	13264.3	12744.8
791.7123	104.7495	13046.7	12520.3
791.8536	107.0036	12823.75	12297.15
791.9949	109.2573	12563.8	12038.6
792.1363	111.5105	12257.8	11729.15
792.2777	113.7632	11895.6	11366.75
792.4191	116.0154	11458.15	10917.8
792.5605	118.2672	10980.3	10445.1
792.7019	120.5185	10493.45	9958.1
792.8434	122.7693	9992.85	9451.95
792.9849	125.0197	9575.75	9029.1
793.1264	127.2696	9216.65	8668.6
793.2679	129.519	9004.5	8455.2
793.4094	131.7679	8810.45	8257.1
793.551	134.0163	8689	8135.6
793.6926	136.2642	8626.1	8067.5
793.8342	138.5117	8594.65	8032.6
793.9758	140.7587	8497.2	7936.45
794.1175	143.0052	8352.25	7786.9
794.2591	145.2512	8121.5	7553.9
794.4008	147.4967	7889.9	7320.25
794.5425	149.7417	7633.85	7062.05
794.6842	151.9863	7451.45	6876.2
794.826	154.2304	7338.35	6759.35
794.9677	156.4739	7296.95	6712.5
795.1095	158.717	7363.85	6780.1
795.2513	160.9596	7479.25	6888.95
795.3931	163.2017	7644.45	7053.5
795.535	165.4433	7752.05	7159.7
795.6768	167.6844	7765.65	7169.55
795.8187	169.925	7621.35	7022.45
795.9606	172.1651	7405.45	6803.15
796.1025	174.4047	7171.45	6564
796.2445	176.6439	6927.5	6320.3
796.3864	178.8825	6783.5	6172.4
796.5284	181.1206	6693.2	6079.15
796.6704	183.3582	6644.45	6025.45
796.8124	185.5954	6589.45	5971.2
796.9544	187.832	6558.6	5934.75
797.0965	190.0681	6572	5946.05
797.2386	192.3037	6588.75	5957.8
797.3806	194.5388	6582.45	5950.1
797.5228	196.7734	6631.4	5995.5
797.6649	199.0075	6684.85	6047.4
797.807	201.2411	6771.15	6134.05
797.9492	203.4742	6880.6	6242.6
798.0914	205.7068	7006.05	6362.9
798.2336	207.9389	7107.15	6468.7
798.3758	210.1704	7191.15	6556.7
798.518	212.4015	7185.2	6557.9
798.6603	214.632	7210.15	6588.35
798.8025	216.862	7228.25	6606.55
798.9448	219.0915	7258.05	6635.9
799.0871	221.3205	7322.4	6698.85
799.2294	223.549	7394.3	6773.3
799.3718	225.777	7399.35	6775.75
799.5141	228.0044	7390	6756.5
799.6565	230.2314	7351.2	6719.3
799.7989	232.4578	7294.95	6656.8
799.9413	234.6837	7226.7	6580.5
800.0837	236.909	7145.7	6499.8
800.2262	239.1339	7098.35	6430.1
800.3687	241.3582	7035	6379.95
800.5111	243.582	7025.9	6338.5
800.6536	245.8053	7044.25	6368.7
800.7961	248.0281	7055.95	6386.9
800.9387	250.2503	7092.05	6422
801.0812	252.472	7129.2	6454.8
801.2238	254.6932	7144.6	6471.1
801.3664	256.9139	7165.95	6489
801.509	259.134	7221.95	6542.65
801.6516	261.3536	7320.15	6643.25
801.7942	263.5727	7468.9	6791.4
801.9369	265.7912	7686.9	7008.3
802.0795	268.0092	7961.55	7283.95
802.2222	270.2267	8224.45	7544.15
802.3649	272.4436	8490.3	7810.9
802.5076	274.6601	8659.3	7966.2
802.6504	276.8759	8770.6	8079.6
802.7931	279.0913	8886.2	8197.45
802.9359	281.3061	8973.05	8282.85
803.0787	283.5204	9065	8372.05
803.2215	285.7341	9182.45	8487.55
803.3643	287.9473	9318.6	8622.1
803.5071	290.16	9319.3	8621.25
803.6499	292.3721	9135.35	8440.6
803.7928	294.5837	8904	8210.2
803.9357	296.7947	8711.15	8018.65
804.0786	299.0052	8611.3	7914.85
804.2215	301.2152	8523.15	7824.05
804.3644	303.4246	8482.75	7786.9
804.5074	305.6334	8424.95	7727
804.6503	307.8418	8381.95	7680.15
804.7933	310.0495	8296.25	7595.65
804.9363	312.2568	8145.5	7444.65
805.0793	314.4635	7939.45	7235.6
805.2223	316.6696	7694.75	6988.2
805.3653	318.8752	7468.45	6752.45
805.5084	321.0802	7296.4	6585.9
805.6514	323.2847	7260.35	6549.8
805.7945	325.4887	7258	6549.25
805.9376	327.692	7332.3	6619.45
806.0807	329.8949	7532.7	6816.15
806.2238	332.0972	7765.6	7048.85
806.367	334.2989	7983.95	7264.1
806.5101	336.5001	8029.1	7308.25
806.6533	338.7007	7916.3	7197
806.7965	340.9008	7663.6	6942.25
806.9397	343.1003	7342.3	6616.45
807.0829	345.2992	7075.55	6350.7
807.2261	347.4976	6843.05	6113.8
807.3693	349.6955	6655.95	5924.5
807.5126	351.8927	6554.15	5823.5
807.6559	354.0895	6488.7	5745.9
807.7991	356.2856	6425.9	5693.95
807.9424	358.4812	6364.2	5631.05
808.0857	360.6763	6313.55	5576.15
808.2291	362.8707	6306.85	5568.5
808.3724	365.0646	6312.2	5572.75
808.5158	367.258	6339.8	5598.4
808.6591	369.4508	6422.7	5675.6
808.8025	371.643	6531.35	5787.2
808.9459	373.8346	6670.6	5922.65
809.0893	376.0257	6859.3	6109.1
809.2327	378.2162	7018.95	6269.7
809.3762	380.4062	7104.2	6354.1
809.5196	382.5956	7055.1	6307.45
809.6631	384.7844	6869.95	6125.8
809.8066	386.9726	6629.3	5887.15
809.9501	389.1603	6462.5	5722.55
810.0936	391.3474	6409.3	5616.45
810.2371	393.5339	6347.95	5604.15
810.3806	395.7199	6350.45	5608.85
810.5241	397.9052	6500.45	5761.35
810.6677	400.09	6725.15	5981.45
810.8113	402.2743	6949.1	6205.1
810.9548	404.4579	7118.75	6372.55
811.0984	406.641	7316.1	6566.6
811.2421	408.8235	7512.6	6761.25
811.3857	411.0054	7671.45	6916.75
811.5293	413.1868	7770.7	7015.3
811.673	415.3675	7722.95	6965.3
811.8166	417.5477	7633.7	6873.65
811.9603	419.7273	7573.4	6809.6
812.104	421.9064	7467.95	6698.7
812.2477	424.0848	7287.2	6522.05
812.3914	426.2627	7000	6235.85
812.5351	428.4399	6681.1	5918.3
812.6788	430.6166	6393.6	5624.25
812.8226	432.7928	6171.2	5398.95
812.9663	434.9683	6006.95	5235.1
813.1101	437.1432	5893.45	5120.15
813.2539	439.3176	5813.45	5042.85
813.3977	441.4914	5767.25	4998.5
813.5415	443.6645	5729.8	4955.9
813.6853	445.8371	5709.75	4936.65
813.8291	448.0091	5698.5	4926.75
813.973	450.1806	5692.5	4919.3
814.1168	452.3514	5707.1	4931.65
814.2607	454.5216	5723.95	4938.85
814.4046	456.6913	5739.05	4961.8
814.5485	458.8603	5756.25	4978.05
814.6924	461.0288	5780.65	5003.15
814.8363	463.1967	5784.15	5008.7
814.9802	465.3639	5769.6	4991
815.1241	467.5306	5758.75	4979.1
815.2681	469.6967	5713.2	4935.35
815.412	471.8622	5688.8	4910.75
815.556	474.0271	5678.3	4899.8
815.7	476.1914	5671.45	4888.1
815.844	478.3551	5623.95	4842.55
815.988	480.5182	5608.2	4827.4
816.132	482.6807	5637.9	4854
816.276	484.8426	5730.1	4951.5
816.4201	487.0039	5928.15	5147.2
816.5641	489.1647	6179.55	5391.95
816.7082	491.3248	6450.5	5666.5
816.8522	493.4843	6532.45	5747.8
816.9963	495.6432	6470.65	5685
817.1404	497.8015	6352.15	5561.25
817.2845	499.9592	6116.1	5327.85
817.4286	502.1163	5849.85	5060.95
817.5727	504.2728	5616.1	4826.25
817.7168	506.4287	5481.65	4692.35
817.861	508.5839	5412.75	4623
818.0051	510.7386	5375.15	4582.5
818.1493	512.8927	5384.3	4583.9
818.2935	515.0461	5396.9	4605.1
818.4377	517.199	5494.8	4700.1
818.5818	519.3512	5717.05	4923.15
818.726	521.5029	6065	5262.5
818.8703	523.6539	6414.2	5616.75
819.0145	525.8043	6494.5	5693.8
819.1587	527.9541	6236.2	5435.25
819.303	530.1033	5873.5	5074.75
819.4472	532.2519	5578.95	4781.7
819.5915	534.3999	5448.65	4646.85
819.7357	536.5472	5395.7	4594.45
819.88	538.694	5384.3	4582.1
820.0243	540.8401	5442.4	4641.3
820.1686	542.9856	5539.6	4732.05
820.3129	545.1305	5630.25	4827.9
820.4572	547.2748	5714.4	4909.45
820.6016	549.4185	5740.75	4934.15
820.7459	551.5615	5762.4	4960
820.8902	553.704	5837.95	5034.25
821.0346	555.8458	5934.9	5131.85
821.1789	557.987	6032.6	5230
821.3233	560.1276	6204.65	5399.65
821.4677	562.2675	6524.6	5721.6
821.6121	564.4069	6944.4	6142.35
821.7565	566.5456	7217.25	6413.8
821.9009	568.6837	7108.5	6304.25
822.0453	570.8212	6672.8	5868.25
822.1897	572.958	6151.85	5346.25
822.3342	575.0942	5757.1	4951.25
822.4786	577.2299	5530.85	4722.8
822.6231	579.3648	5453.45	4645.85
822.7675	581.4992	5432.15	4622.9
822.912	583.6329	5499.6	4692.4
823.0565	585.766	5646.3	4841.5
823.201	587.8985	5894.15	5085.45
823.3454	590.0304	6138.05	5318.55
823.4899	592.1616	6359.05	5546.35
823.6345	594.2922	6452.9	5640.25
823.779	596.4222	6289.85	5476.6
823.9235	598.5515	5998.75	5184.85
824.068	600.6802	5682.8	4868.15
824.2126	602.8083	5432.4	4618.25
824.3571	604.9358	5335.2	4519.65
824.5017	607.0626	5291.2	4475.55
824.6462	609.1888	5323.2	4507.3
824.7908	611.3144	5428.4	4612.2
824.9354	613.4393	5642.95	4827.7
825.08	615.5636	5932	5116.25
825.2246	617.6873	6189.55	5373.1
825.3692	619.8103	6362.8	5544.45
825.5138	621.9327	6397.45	5577.2
825.6584	624.0544	6261.3	5442.8
825.803	626.1756	5945.85	5126.45
825.9477	628.2961	5641	4821.5
826.0923	630.4159	5472.8	4651.6
826.237	632.5351	5429.2	4607.95
826.3816	634.6537	5411.05	4589.35
826.5263	636.7716	5349.5	4525.3
826.6709	638.8889	5334.2	4514
826.8156	641.0056	5370.95	4548.85
826.9603	643.1216	5434.4	4611.95
827.105	645.237	5481.85	4657.2
827.2497	647.3518	5418.55	4594.2
827.3944	649.4659	5252.15	4430.5
827.5391	651.5793	5135.75	4310.8
827.6838	653.6922	5055.1	4232.9
827.8285	655.8043	4988.35	4166.1
827.9733	657.9159	4920.1	4095.15
828.118	660.0268	4866.1	4040
828.2627	662.137	4869.4	4044.4
828.4075	664.2466	4873.9	4046.85
828.5522	666.3556	4890.1	4063.05
828.697	668.4639	4852.95	4022.15
828.8418	670.5716	4830.8	4004.7
828.9865	672.6786	4780.9	3952.05
829.1313	674.785	4755.3	3923.25
829.2761	676.8907	4737.25	3907.55
829.4209	678.9958	4734.45	3905.7
829.5657	681.1002	4715.95	3884.4
829.7105	683.204	4745.7	3912.7
829.8553	685.3072	4749.85	3916.7
830.0001	687.4097	4734.7	3901.65
830.1449	689.5115	4744.2	3910.7
830.2898	691.6127	4724	3893.35
830.4346	693.7132	4709.65	3877.8
830.5794	695.8131	4722.65	3876.95
830.7243	697.9123	4726.45	3892.25
830.8691	700.0109	4739.4	3907
831.014	702.1089	4783.9	3951.85
831.1588	704.2061	4858.75	4027.45
831.3037	706.3028	4984.9	4147.3
831.4486	708.3987	5103.9	4269.65
831.5935	710.4941	5211	4376.85
831.7383	712.5887	5233.85	4397
831.8832	714.6827	5219.85	4380.75
832.0281	716.7761	5163	4325.8
832.173	718.8688	5122.9	4286.2
832.3179	720.9608	5135	4292.95
832.4628	723.0522	5168.9	4329.55
832.6077	725.1429	5241.1	4404.8
832.7527	727.233	5434.7	4598.15
832.8976	729.3224	5736.8	4898.1
833.0425	731.4112	6031.35	5191.35
833.1874	733.4993	6173.8	5331.4
833.3324	735.5867	5967.1	5126.65
833.4773	737.6735	5572.1	4731.1
833.6222	739.7596	5189.45	4349.2
833.7672	741.845	4974.7	4133.65
833.9122	743.9298	4854.35	4011.4
834.0571	746.014	4812.8	3971.65
834.2021	748.0974	4807.85	3966.95
834.347	750.1802	4814.65	3973.45
834.492	752.2624	4814.5	3970.9
834.637	754.3439	4836.85	3992.75
834.782	756.4247	4879	4027.6
834.9269	758.5048	4929.15	4083.3
835.0719	760.5843	5044.05	4200.85
835.2169	762.6631	5224.95	4382.55
835.3619	764.7413	5504.5	4660.65
835.5069	766.8188	5942.25	5099.35
835.6519	768.8956	6414.4	5567.55
835.7969	770.9718	6775.5	5929.6
835.9419	773.0473	6748.65	5906.1
836.0869	775.1221	6550.35	5704.85
836.232	777.1962	6440.95	5594.05
836.377	779.2697	6746.8	5899.25
836.522	781.3426	7302.75	6438.1
836.667	783.4147	7751.55	6903.05
836.8121	785.4862	7783.25	6939.5
836.9571	787.557	7376.35	6530.55
837.1021	789.6271	6707.2	5861.9
837.2472	791.6966	5990.75	5145.3
837.3922	793.7654	5449.85	4600.05
837.5373	795.8335	5105.55	4256.7
837.6823	797.901	4927.4	4079.35
837.8274	799.9678	4857.65	4007.95
837.9724	802.0339	4830.3	3982.65
838.1175	804.0993	4892.55	4036.2
838.2626	806.1641	4871.35	4022.15
838.4076	808.2282	4810.85	3963.4
838.5527	810.2916	4721.65	3869.85
838.6978	812.3544	4620.5	3773.5
838.8428	814.4164	4589.35	3743.55
838.9879	816.4778	4608.6	3760.05
839.133	818.5385	4662.6	3814.45
839.2781	820.5986	4834.95	3985.9
839.4232	822.658	5116.8	4266.75
839.5682	824.7166	5443.6	4594.95
839.7133	826.7747	5893.6	5043.75
839.8584	828.832	6315.65	5465.1
840.0035	830.8886	6635.2	5782.85
840.1486	832.9446	6834.3	5981.25
840.2937	834.9999	6718.25	5869.5
840.4388	837.0545	6400.5	5544.55
840.5839	839.1085	5927.35	5075.75
840.729	841.1618	5481.8	4625.4
840.8741	843.2143	5177.85	4327.35
841.0192	845.2662	4982.4	4130.4
841.1643	847.3175	4903.6	4052.1
841.3095	849.368	4820.4	3966.35
841.4546	851.4179	4824.1	3971.45
841.5997	853.467	4808.25	3956.75
841.7448	855.5155	4847.65	3992.85
841.8899	857.5633	4880.25	4028.1
842.0351	859.6105	4862.3	4008.75
842.1802	861.6569	4798.7	3943.55
842.3253	863.7027	4729.8	3874.8
842.4704	865.7478	4642.35	3787.35
842.6156	867.7922	4596.25	3740.15
842.7607	869.8359	4531.75	3673.9
842.9058	871.8789	4519.95	3664.1
843.0509	873.9212	4532.1	3645.8
843.1961	875.9629	4520.65	3664.7
843.3412	878.0039	4605.35	3749.7
843.4863	880.0441	4662.95	3808.8
843.6315	882.0837	4773.05	3917.15
843.7766	884.1226	4884.95	4029.6
843.9218	886.1609	5059.95	4205.75
844.0669	888.1984	5330.6	4475
844.212	890.2352	5595.4	4742.35
844.3572	892.2714	5707.8	4848
844.5023	894.3069	5565.05	4707.3
844.6475	896.3416	5297.5	4439.8
844.7926	898.3757	5037.3	4179.35
844.9377	900.4091	4879.05	4019.25
845.0829	902.4418	4912.65	4049.25
845.228	904.4739	5025.65	4163.55
845.3732	906.5052	5146.3	4290.25
845.5183	908.5358	5153.75	4295.6
845.6635	910.5658	5060.5	4200.65
845.8086	912.595	4893.95	4034.95
845.9538	914.6236	4695.8	3837.25
846.0989	916.6515	4548	3688.3
846.2441	918.6786	4447.15	3587.55
846.3892	920.7051	4393.9	3532.55
846.5344	922.7309	4377.7	3518.1
846.6795	924.756	4383.75	3523.05
846.8246	926.7804	4438.85	3578.7
846.9698	928.8041	4486	3623.65
847.1149	930.8272	4577.4	3717
847.2601	932.8495	4636.85	3775.6
847.4052	934.8711	4663.2	3801.65
847.5504	936.892	4701.9	3839.95
847.6955	938.9123	4809.3	3946.45
847.8407	940.9318	4965.6	4105.65
847.9858	942.9506	5077.6	4215.05
848.131	944.9688	5060.9	4199.65
848.2761	946.9862	4942.65	4083.1
848.4213	949.003	4776.55	3914.3
848.5664	951.019	4641.1	3777
848.7115	953.0344	4549.3	3686.3
848.8567	955.0491	4462.3	3598.95
849.0018	957.063	4406.45	3546.85
849.147	959.0763	4391.75	3529.25
849.2921	961.0888	4391.8	3526.85
849.4373	963.1007	4384.3	3521.8
849.5824	965.1119	4346.2	3484.05
849.7275	967.1223	4303.85	3442.3
849.8727	969.1321	4265.95	3403.8
850.0178	971.1412	4240.3	3379.95
850.1629	973.1495	4228.9	3369.7
850.3081	975.1572	4266.15	3363.75
850.4532	977.1641	4259.9	3396.95
850.5983	979.1704	4254.5	3389.9
850.7435	981.1759	4247.2	3381.35
850.8886	983.1808	4220.3	3355.55
851.0337	985.1849	4180.65	3304.25
851.1788	987.1884	4138.65	3272.25
851.324	989.1911	4171.1	3303.85
851.4691	991.1932	4224.1	3356.25
851.6142	993.1945	4248.3	3385.95
851.7593	995.1951	4264.7	3399.5
851.9045	997.1951	4268.65	3397.95
852.0496	999.1943	4227.7	3363.35
852.1947	1001.1928	4224.15	3357.95
852.3398	1003.1906	4261.25	3397.15
852.4849	1005.1877	4407.65	3538.9
852.63	1007.1841	4567.3	3701.95
852.7751	1009.1798	4669.9	3805.5
852.9202	1011.1748	4641.35	3775.55
853.0653	1013.1691	4512.7	3646.7
853.2104	1015.1627	4351	3481.95
853.3555	1017.1556	4193.7	3327.25
853.5006	1019.1477	4084.4	3217.8
853.6457	1021.1392	3996.75	3131.7
853.7908	1023.1299	3965.2	3098.6
853.9359	1025.12	3945.5	3076.9
854.081	1027.1093	3992.25	3128.6
854.2261	1029.0979	4093.7	3229.95
854.3712	1031.0859	4207.25	3344.6
854.5163	1033.0731	4300.75	3434.05
854.6613	1035.0596	4315.1	3449.65
854.8064	1037.0454	4283.35	3417.8
854.9515	1039.0304	4243.4	3376.8
855.0965	1041.0148	4122.05	3255.45
855.2416	1042.9985	4011.15	3142.65
855.3867	1044.9814	3948.8	3083.75
855.5317	1046.9636	3906.35	3034.5
855.6768	1048.9452	3956.25	3089
855.8219	1050.926	4030.25	3162.55
855.9669	1052.9061	4124.9	3259.9
856.112	1054.8855	4193.85	3326.3
856.257	1056.8642	4190.45	3321.15
856.4021	1058.8421	4193.7	3324.05
856.5471	1060.8194	4172.65	3303.75
856.6921	1062.7959	4164.1	3296.8
856.8372	1064.7717	4144.9	3276
856.9822	1066.7469	4135.05	3265.65
857.1272	1068.7213	4165.7	3293.45
857.2723	1070.695	4240.35	3372.7
857.4173	1072.6679	4333.3	3462.85
857.5623	1074.6402	4501.25	3631.1
857.7073	1076.6117	4580.1	3703.55
857.8523	1078.5826	4515.35	3645.45
857.9973	1080.5527	4320.05	3446.65
858.1423	1082.5221	4116.65	3245.5
858.2873	1084.4908	3965.45	3096.15
858.4323	1086.4587	3866	2993.65
858.5773	1088.426	3809.65	2940.4
858.7223	1090.3925	3794.05	2918.65
858.8673	1092.3584	3806.2	2936.35
859.0123	1094.3235	3864.9	2997.2
859.1573	1096.2879	3949.4	3079
859.3022	1098.2515	4078.35	3207.45
859.4472	1100.2145	4207	3337.85
859.5922	1102.1767	4379.6	3507.1
859.7371	1104.1382	4602.25	3731.3
859.8821	1106.099	4888.75	4016.4
860.027	1108.0591	5167.9	4297.8
860.172	1110.0185	5378.1	4507.05
860.3169	1111.9771	5590.65	4720.65
860.4619	1113.9351	5832.45	4961.7
860.6068	1115.8923	6191.35	5319.6
860.7517	1117.8488	6437.7	5566.85
860.8967	1119.8045	6319.15	5446.35
861.0416	1121.7596	5837.15	4966.6
861.1865	1123.7139	5217	4347.05
861.3314	1125.6675	4862.5	3992.65
861.4763	1127.6204	4789.3	3920.2
861.6212	1129.5726	4883.6	4010.05
861.7661	1131.524	4929.65	4058.65
861.911	1133.4748	4758.45	3885.65
862.0559	1135.4248	4461.1	3587.95
862.2008	1137.3741	4171.8	3300
862.3457	1139.3226	3995.4	3122.3
862.4905	1141.2705	3970.9	3098.45
862.6354	1143.2176	3997.95	3120.2
862.7803	1145.164	4089.3	3216.5
862.9251	1147.1097	4129.55	3256.4
863.07	1149.0546	4031.5	3157.15
863.2148	1150.9989	3903.15	3029.75
863.3597	1152.9424	3772.55	2899.05
863.5045	1154.8852	3706.1	2834.8
863.6493	1156.8272	3656.75	2783.6
863.7942	1158.7686	3648.1	2769.85
863.939	1160.7092	3642.15	2768.95
864.0838	1162.6491	3663.05	2787.1
864.2286	1164.5883	3706.65	2834.8
864.3734	1166.5267	3785.95	2910.7
864.5182	1168.4644	3918.55	3046.4
864.663	1170.4014	4061.65	3184.65
864.8078	1172.3377	4245.8	3374.4
864.9526	1174.2732	4496.4	3622.4
865.0974	1176.2081	4896.6	4025.6
865.2421	1178.1421	5540.8	4664.5
865.3869	1180.0755	6264.6	5392.75
865.5317	1182.0082	6774.5	5900.15
865.6764	1183.9401	6825.55	5951.2
865.8212	1185.8713	6394.5	5522.3
865.9659	1187.8017	5713.8	4841.05
866.1106	1189.7315	5075.35	4204.25
866.2554	1191.6605	4619.5	3720.15
866.4001	1193.5888	4302.25	3429.6
866.5448	1195.5163	4137.95	3265.1
866.6895	1197.4432	4003.95	3129.05
866.8342	1199.3693	3897	3024
866.9789	1201.2947	3822.3	2942.4
867.1236	1203.2193	3776.05	2903.55
867.2683	1205.1432	3751.3	2875.7
867.413	1207.0664	3727.15	2854.3
867.5576	1208.9889	3741.65	2865.25
867.7023	1210.9106	3738.85	2863.65
867.847	1212.8316	3764.8	2891.9
867.9916	1214.7519	3816.9	2933.05
868.1363	1216.6715	3877.5	3005.6
868.2809	1218.5903	3953.85	3080.55
868.4255	1220.5084	4013.1	3136.95
868.5701	1222.4257	4085.05	3211.9
868.7148	1224.3424	4135.3	3261.8
868.8594	1226.2583	4239.25	3357.7
869.004	1228.1735	4366.35	3489.05
869.1486	1230.0879	4548.9	3672.95
869.2932	1232.0016	4773.3	3898.95
869.4377	1233.9146	4968.15	4090.8
869.5823	1235.8269	5049.2	4173.6
869.7269	1237.7384	5089.35	4214.2
869.8715	1239.6492	5074.85	4199.75
870.016	1241.5592	5151.85	4274.95
870.1606	1243.4686	5312.5	4439.6
870.3051	1245.3772	5685.25	4810.55
870.4496	1247.285	6155.55	5280.3
870.5941	1249.1922	6557.3	5681
870.7387	1251.0986	6978.25	6102.5
870.8832	1253.0042	7322.35	6446.1
871.0277	1254.9092	7777.55	6902.1
871.1722	1256.8134	8284.75	7410.55
871.3167	1258.7169	8846.7	7968.9
871.4611	1260.6196	9265.4	8391.2
871.6056	1262.5216	9569.85	8691.65
871.7501	1264.4229	9619.6	8743.85
871.8945	1266.3234	9464.6	8588.55
872.039	1268.2232	9142.15	8263.9
872.1834	1270.1223	8802.25	7924.7
872.3278	1272.0207	8563.8	7688.8
872.4723	1273.9183	8454.25	7573.5
872.6167	1275.8151	8401.35	7527.65
872.7611	1277.7113	8535.45	7659.7
872.9055	1279.6067	8944.3	8067.75
873.0499	1281.5014	9688.8	8809.6
873.1943	1283.3953	10691.25	9812.35
873.3386	1285.2885	11848.3	10972.05
873.483	1287.181	12812.1	11934.05
873.6274	1289.0727	13262.4	12386.6
873.7717	1290.9637	13076.6	12200.1
873.9161	1292.854	12443.25	11568.35
874.0604	1294.7435	11635.05	10755.65
874.2047	1296.6323	10890.5	10013.55
874.349	1298.5204	10236.15	9354.85
874.4933	1300.4077	9710.7	8834.45
874.6376	1302.2943	9386.3	8510.5
874.7819	1304.1802	9146.5	8272.65
874.9262	1306.0653	8924.15	8045.3
875.0705	1307.9497	8771.6	7893.65
875.2147	1309.8333	8599	7724.45
875.359	1311.7162	8463	7585
875.5032	1313.5984	8344.05	7464.2
875.6475	1315.4798	8271.5	7377.9
875.7917	1317.3605	8263.5	7369.35
875.9359	1319.2405	8333.25	7455.3
876.0801	1321.1197	8384.1	7504.9
876.2243	1322.9982	8256.45	7375.45
876.3685	1324.876	7990.85	7114.2
876.5127	1326.753	7522.1	6644.9
876.6569	1328.6293	6996.45	6118.15
876.801	1330.5048	6469.9	5590.9
876.9452	1332.3796	5972.05	5094.6
877.0893	1334.2537	5605.35	4701.8
877.2335	1336.127	5303.25	4424.6
877.3776	1337.9996	5112.6	4234.65
877.5217	1339.8714	4963.05	4084.7
877.6658	1341.7426	4888.65	3969.4
877.8099	1343.6129	4745.4	3867.45
877.954	1345.4826	4651.8	3773.25
878.0981	1347.3515	4568.1	3687.35
878.2422	1349.2196	4489.95	3611.2
878.3862	1351.087	4441	3564.85
878.5303	1352.9537	4410.2	3531.2
878.6743	1354.8197	4425.6	3548.9
878.8184	1356.6849	4461.9	3582.7
878.9624	1358.5493	4524.9	3647.5
879.1064	1360.4131	4666.2	3789.7
879.2504	1362.276	4854.95	3978.3
879.3944	1364.1383	5091.8	4214.75
879.5384	1365.9998	5197.5	4314.45
879.6823	1367.8606	5150.65	4273.85
879.8263	1369.7206	5127.35	4247.7
879.9702	1371.5799	5142.5	4261.1
880.1142	1373.4384	5131.75	4253.65
880.2581	1375.2962	5008.6	4128.4
880.402	1377.1533	4746.6	3867.65
880.5459	1379.0096	4500.45	3621.15
880.6898	1380.8652	4303.15	3423.85
880.8337	1382.7201	4145.95	3267.1
880.9776	1384.5742	3991.8	3113.05
881.1215	1386.4275	3866.95	2986.05
881.2653	1388.2802	3754.45	2877.75
881.4092	1390.132	3696.85	2821.2
881.553	1391.9832	3649.5	2770.25
881.6968	1393.8336	3609.45	2730.55
881.8406	1395.6832	3573.35	2693.45
881.9844	1397.5322	3526.65	2646.3
882.1282	1399.3803	3492.15	2608.95
882.272	1401.2278	3447.55	2569.95
882.4158	1403.0745	3404	2526.6
882.5595	1404.9204	3364.45	2486.85
882.7033	1406.7656	3328.35	2448.2
882.847	1408.6101	3313.6	2437
882.9908	1410.4538	3296.75	2416.2
883.1345	1412.2968	3299.85	2422.2
883.2782	1414.139	3302.4	2423.75
883.4219	1415.9805	3349.9	2471.6
883.5656	1417.8213	3420.4	2535.45
883.7092	1419.6613	3489.95	2611.95
883.8529	1421.5006	3634.65	2754.05
883.9965	1423.3391	3849.05	2969.35
884.1402	1425.1769	4133.8	3253.2
884.2838	1427.0139	4528.2	3649.6
884.4274	1428.8502	5034.6	4154.85
884.571	1430.6858	5452.95	4572.95
884.7146	1432.5206	5636.15	4756.3
884.8582	1434.3547	5639.9	4760.65
885.0018	1436.188	5516.55	4637.25
885.1453	1438.0206	5445.75	4565.6
885.2889	1439.8524	5373.1	4493.35
885.4324	1441.6835	5373.2	4492.15
885.5759	1443.5139	5373	4490.65
885.7194	1445.3435	5386.85	4506.85
885.8629	1447.1724	5434.05	4554.6
886.0064	1449.0005	5419.5	4539.9
886.1499	1450.8279	5377.35	4497.5
886.2933	1452.6545	5347.6	4468.3
886.4368	1454.4804	5320.7	4444.7
886.5802	1456.3056	5282.95	4397.25
886.7237	1458.13	5165.4	4286.9
886.8671	1459.9536	5051.65	4172.3
887.0105	1461.7766	4877.45	3999.75
887.1539	1463.5987	4660.15	3781.55
887.2972	1465.4202	4464.3	3585.6
887.4406	1467.2409	4255.5	3375.35
887.584	1469.0608	4072	3193.4
887.7273	1470.88	3881.3	3000.25
887.8706	1472.6984	3731.3	2852.8
888.0139	1474.5161	3595.55	2713.3
888.1572	1476.3331	3491.15	2611.75
888.3005	1478.1493	3444	2565.2
888.4438	1479.9648	3410.25	2530.7
888.5871	1481.7795	3383.7	2504.45
888.7303	1483.5935	3406.3	2526.9
888.8736	1485.4067	3425.1	2547.4
889.0168	1487.2192	3441.25	2561.9
889.16	1489.031	3436.05	2553.75
889.3032	1490.842	3426.65	2548.35
889.4464	1492.6522	3436.5	2558.2
889.5896	1494.4618	3436.35	2555
889.7327	1496.2705	3430.45	2553.95
889.8759	1498.0785	3400.35	2519.35
890.019	1499.8858	3373.95	2495.6
890.1622	1501.6924	3339.15	2459.55
890.3053	1503.4981	3322.1	2444.35
890.4484	1505.3032	3294.75	2415.25
890.5914	1507.1075	3253	2373.55
890.7345	1508.911	3217	2337.75
890.8776	1510.7138	3181.3	2301.85
891.0206	1512.5159	3160.85	2282.25
891.1637	1514.3172	3122.4	2242.6
891.3067	1516.1178	3097.5	2219.6
891.4497	1517.9176	3063.6	2181.7
891.5927	1519.7166	3040.15	2161.65
891.7357	1521.515	3018.75	2131.45
891.8786	1523.3126	2994.45	2116.55
892.0216	1525.1094	2972.55	2090.65
892.1645	1526.9055	2950.8	2072.25
892.3074	1528.7008	2933.45	2053.5
892.4503	1530.4954	2933	2045.1
892.5932	1532.2893	2909.5	2029.75
892.7361	1534.0824	2894.6	2010.75
892.879	1535.8747	2891.9	2014.9
893.0218	1537.6663	2881.05	2001
893.1647	1539.4572	2896.2	2015.2
893.3075	1541.2473	2904.95	2023.75
893.4503	1543.0367	2892.5	2014.45
893.5931	1544.8253	2914.35	2028.1
893.7359	1546.6132	2928	2047.2
893.8787	1548.4003	2959.8	2071.2
894.0214	1550.1867	2998.1	2110.2
894.1642	1551.9723	3050.4	2166.15
894.3069	1553.7572	3124.45	2243.1
894.4496	1555.5414	3218.2	2338
894.5923	1557.3247	3363.8	2479.95
894.735	1559.1074	3554.75	2676.5
894.8777	1560.8893	3781.2	2902.7
895.0204	1562.6705	3999.75	3122.15
895.163	1564.4509	4182.95	3303.5
895.3056	1566.2305	4274.85	3396.95
895.4482	1568.0094	4333.65	3455.3
895.5908	1569.7876	4311.85	3432.55
895.7334	1571.565	4297.4	3418.8
895.876	1573.3417	4309.45	3432.55
896.0186	1575.1176	4337	3458.2
896.1611	1576.8928	4442.05	3561.35
896.3036	1578.6672	4561.1	3682.95
896.4461	1580.4409	4717.4	3839.05
896.5886	1582.2138	4948.9	4069.9
896.7311	1583.986	5187.95	4308.05
896.8736	1585.7575	5439.4	4561.05
897.0161	1587.5282	5671.9	4795.35
897.1585	1589.2981	5848.3	4969.9
897.3009	1591.0673	5936.95	5058.85
897.4433	1592.8358	6015.15	5136.35
897.5857	1594.6035	6000.25	5119.05
897.7281	1596.3704	5917.1	5038.6
897.8705	1598.1366	5819.35	4936.85
898.0128	1599.9021	5663.9	4785.85
898.1551	1601.6668	5493.9	4613.55
898.2975	1603.4308	5367.7	4487.6
898.4398	1605.194	5351.65	4468.65
898.5821	1606.9564	5450.6	4574.55
898.7243	1608.7182	5738.85	4855.5
898.8666	1610.4791	6187.45	5306.6
899.0088	1612.2394	6790.9	5914.05
899.1511	1613.9988	7441.05	6561.7
899.2933	1615.7576	8016.4	7138.7
899.4355	1617.5156	8358.15	7474
899.5776	1619.2728	8307.65	7427.15
899.7198	1621.0293	7926.5	7046.6
899.862	1622.785	7257.7	6378.55
900.0041	1624.54	6527.35	5646.25
900.1462	1626.2942	5816.8	4937.85
900.2883	1628.0477	5196.25	4316
900.4304	1629.8005	4643.9	3760.4
900.5725	1631.5525	4225.15	3346.05
900.7145	1633.3037	3895.55	3017.45
900.8566	1635.0542	3648.05	2769.5
900.9986	1636.804	3444.45	2565.45
901.1406	1638.553	3343.55	2402.25
901.2826	1640.3013	3150.95	2274.25
901.4245	1642.0488	3053	2171.9
901.5665	1643.7955	2981.6	2103.55
901.7085	1645.5416	2901.15	2023.35
901.8504	1647.2868	2838.7	1957.9
901.9923	1649.0313	2790.85	1913.3
902.1342	1650.7751	2763.6	1880.7
902.2761	1652.5181	2747.1	1869.15
902.4179	1654.2604	2743.4	1862.85
902.5598	1656.0019	2767.8	1890.15
902.7016	1657.7427	2815.45	1936.9
902.8434	1659.4828	2921.8	2043.8
902.9852	1661.222	3080.75	2202.45
903.127	1662.9606	3284.7	2407.7
903.2687	1664.6984	3521.45	2640.45
903.4105	1666.4354	3653.15	2775.15
903.5522	1668.1717	3627	2746.8
903.6939	1669.9072	3450.25	2569.9
903.8356	1671.642	3170.45	2288.5
903.9773	1673.3761	2903.85	2025.3
904.119	1675.1094	2701.75	1822.45
904.2606	1676.8419	2564.4	1686.15
904.4022	1678.5737	2458.5	1580.7
904.5439	1680.3048	2397.65	1518.85
904.6855	1682.0351	2328.75	1450.1
904.827	1683.7646	2301.35	1420.8
904.9686	1685.4934	2261.55	1383.9
905.1101	1687.2215	2241.65	1362.1
905.2517	1688.9488	2225	1346.15
905.3932	1690.6754	2210.4	1330.7
905.5347	1692.4012	2191.75	1313.05
905.6761	1694.1263	2185.55	1305.15
905.8176	1695.8506	2168.1	1287.9
905.9591	1697.5742	2156.85	1279.55
906.1005	1699.297	2136.15	1256.25
906.2419	1701.0191	2121.95	1244.9
906.3833	1702.7404	2125.5	1246.85
906.5246	1704.461	2110.45	1231.95
906.666	1706.1808	2096.4	1215.6
906.8073	1707.8999	2080.8	1202.4
906.9487	1709.6182	2077.1	1196.7
907.09	1711.3358	2077.85	1199.1
907.2313	1713.0527	2069.3	1191.95
907.3725	1714.7688	2052.25	1172.15
907.5138	1716.4841	2050.35	1168.3
907.655	1718.1987	2044.4	1159.85
907.7962	1719.9126	2033.25	1156.8
907.9374	1721.6257	2029.3	1147.35
908.0786	1723.338	2026.1	1146.95
908.2198	1725.0496	2020.8	1140.35
908.3609	1726.7605	2015.55	1135.3
908.502	1728.4706	2001.75	1121.8
908.6431	1730.18	1993.4	1111
908.7842	1731.8886	1991.9	1113.85
908.9253	1733.5964	2006.8	1107.35
909.0664	1735.3036	1989.3	1109.5
909.2074	1737.0099	1986.6	1110.15
909.3484	1738.7156	1977	1097.05
909.4894	1740.4204	1970.2	1090.75
909.6304	1742.1246	1966.6	1086.5
909.7714	1743.8279	1963.25	1082.75
909.9123	1745.5306	1963.9	1085.95
910.0532	1747.2325	1946.25	1067.25
910.1941	1748.9336	1945.1	1066.8
910.335	1750.634	1936.1	1057.9
910.4759	1752.3336	1947.6	1067.8
910.6168	1754.0325	1941.15	1062.6
910.7576	1755.7307	1939.95	1060.45
910.8984	1757.4281	1943.45	1066.05
911.0392	1759.1247	1930.15	1044.6
911.18	1760.8206	1934.55	1050
911.3208	1762.5158	1928.35	1045.35
911.4615	1764.2102	1925.2	1045.35
911.6022	1765.9039	1915.4	1037.35
911.7429	1767.5968	1902.7	1024.7
911.8836	1769.289	1914.65	1035.75
912.0243	1770.9804	1913.85	1033.7
912.1649	1772.6711	1910.2	1031.4
912.3056	1774.361	1905.7	1024.35
912.4462	1776.0502	1897.6	1017.25
912.5868	1777.7386	1901.25	1019
912.7274	1779.4263	1889.35	1007.65
912.8679	1781.1132	1893.1	1014.7
913.0084	1782.7994	1888.5	1007.4
913.149	1784.4849	1887.05	1009.55
913.2895	1786.1696	1895.7	997.8
913.4299	1787.8535	1881.85	1004.65
913.5704	1789.5367	1880.55	1004.75
913.7108	1791.2192	1877.9	998.7
913.8513	1792.9009	1885.75	991.1
913.9917	1794.5818	1880.65	1000.75
914.132	1796.2621	1862.95	985.7
914.2724	1797.9415	1857.4	978.6
914.4128	1799.6202	1847.55	968.25
914.5531	1801.2982	1847.1	967.95
914.6934	1802.9755	1858	978.65
914.8337	1804.6519	1848.2	967.5
914.9739	1806.3277	1840.6	961.4
915.1142	1808.0027	1837.45	960.8
915.2544	1809.6769	1833.7	954.1
915.3946	1811.3504	1824.5	943.25
915.5348	1813.0231	1829.8	948.55
915.675	1814.6951	1820.8	941.05
915.8151	1816.3664	1835.75	952.2
915.9553	1818.0369	1829.95	951.2
916.0954	1819.7067	1823.8	943.1
916.2355	1821.3757	1818.55	937.45
916.3755	1823.044	1819.65	940.25
916.5156	1824.7115	1816.2	934.3
916.6556	1826.3783	1814	932.6
916.7956	1828.0443	1804.95	925.6
916.9356	1829.7096	1803.55	923.65
917.0756	1831.3741	1811.2	930
917.2155	1833.0379	1808.75	931.2
917.3555	1834.701	1802.55	922.5
917.4954	1836.3633	1799.4	919.95
917.6353	1838.0248	1801.05	919.55
917.7751	1839.6856	1794.55	915.75
917.915	1841.3457	1792.2	915.5
918.0548	1843.005	1795.4	916.2
918.1946	1844.6636	1802.3	926.2
918.3344	1846.3214	1791.25	910.75
918.4742	1847.9785	1788.95	909.15
918.6139	1849.6349	1786.3	906.7
918.7537	1851.2904	1793.15	904.75
918.8934	1852.9453	1783.05	903.55
919.0331	1854.5994	1784.75	903.05
919.1727	1856.2528	1785.35	903.05
919.3124	1857.9054	1778.4	899.85
919.452	1859.5572	1778.6	900.55
919.5916	1861.2083	1766.65	883.05
919.7312	1862.8587	1762.55	882.55
919.8708	1864.5084	1765.2	887.35
920.0103	1866.1572	1768.1	890.5
920.1498	1867.8054	1757.95	878.95
920.2893	1869.4528	1758.45	880
920.4288	1871.0994	1752.45	871.7
920.5683	1872.7453	1762.3	882.6
920.7077	1874.3905	1756.3	868.4
920.8471	1876.0349	1756.85	873.05
920.9865	1877.6786	1750.75	871.5
921.1259	1879.3215	1747.1	868.95
921.2653	1880.9637	1747.2	867.25
921.4046	1882.6051	1741.8	863
921.5439	1884.2458	1739.35	858
921.6832	1885.8858	1736.8	856.7
921.8225	1887.525	1735.05	854.15
921.9617	1889.1634	1735.05	854.5
922.101	1890.8011	1724.75	844.45
922.2402	1892.4381	1723.5	844.75
922.3794	1894.0743	1724.1	845
922.5185	1895.7098	1722.9	842.85
922.6577	1897.3446	1726.5	845.1
922.7968	1898.9786	1720.2	838.4
922.9359	1900.6118	1717.2	838.05
923.075	1902.2443	1704.75	824.8
923.214	1903.8761	1707.95	827.25
923.3531	1905.5071	1706.2	824.5
923.4921	1907.1374	1700.7	821.75
923.6311	1908.7669	1693.45	814.15
923.77	1910.3957	1706.6	827.55
923.909	1912.0237	1695.85	815.6
924.0479	1913.651	1691.05	810.15
924.1868	1915.2776	1686.55	809.7
924.3257	1916.9034	1684.05	805.1
924.4646	1918.5285	1676.3	797.15
924.6034	1920.1528	1679.5	800.55
924.7422	1921.7764	1683.45	805.15
924.881	1923.3992	1677.6	798.4
925.0198	1925.0213	1671.75	791.4
925.1586	1926.6427	1667.85	789.7
925.2973	1928.2633	1858.8	765.35
925.436	1929.8832	1681.2	796.1
925.5747	1931.5023	1658.6	778.85
925.7134	1933.1207	1657.2	776.45
925.852	1934.7383	1664.15	785.1
925.9906	1936.3552	1653.1	773.45
926.1292	1937.9714	1648.1	769.5
926.2678	1939.5868	1657.3	776.55
926.4064	1941.2015	1648.25	768.7
926.5449	1942.8154	1643.65	764.55
926.6834	1944.4286	1644.45	763.75
926.8219	1946.041	1666.15	763.05
926.9604	1947.6528	1638.7	756.4
927.0988	1949.2637	1629.9	749.5
927.2372	1950.8739	1629.7	750.1
927.3756	1952.4834	1634.2	755.55
927.514	1954.0921	1626.6	747.45
927.6523	1955.7001	1625.55	742.2
927.7907	1957.3074	1623.1	746.05
927.929	1958.9139	1615.45	736.15
928.0673	1960.5197	1616.5	735.9
928.2055	1962.1247	1610.05	730.1
928.3438	1963.729	1608.3	730.95
928.482	1965.3325	1624.85	720.9
928.6202	1966.9353	1604.15	727.35
928.7584	1968.5374	1603.3	724.15
928.8965	1970.1387	1596.1	716.35
929.0346	1971.7393	1594.8	716.45
929.1727	1973.3392	1592.45	714.25
929.3108	1974.9383	1591.45	714.3
929.4489	1976.5366	1590.25	711.95
929.5869	1978.1342	1584.7	703.95
929.7249	1979.7311	1583.35	704.8
929.8629	1981.3273	1589.3	709.4
930.0009	1982.9227	1576.25	695.25
930.1388	1984.5173	1585.1	707
930.2767	1986.1112	1571.8	694.3
930.4146	1987.7044	1571.55	695.5
930.5525	1989.2968	1569.4	693.95
930.6904	1990.8885	1575.95	692.55
930.8282	1992.4795	1574.25	695.3
930.966	1994.0697	1572.4	693.2
931.1038	1995.6592	1562.55	684.55
931.2415	1997.2479	1569.6	690.2
931.3793	1998.8359	1562.2	684.2
931.517	2000.4232	1555.45	678.35
931.6547	2002.0097	1554.55	678.6
931.7923	2003.5955	1557.9	679.4
931.93	2005.1805	1557.45	676.4
932.0676	2006.7648	1559.55	680.45
932.2052	2008.3484	1553	675.05
932.3427	2009.9312	1552.25	671.6
932.4803	2011.5133	1542.4	668.35
932.6178	2013.0946	1547.05	669.45
932.7553	2014.6752	1549.95	672.6
932.8928	2016.2551	1542.15	663.3
933.0302	2017.8342	1547.05	669
933.1676	2019.4126	1541.35	665.25
933.305	2020.9902	1533.1	656.8
933.4424	2022.5672	1533.95	654.6
933.5798	2024.1433	1548.3	666.25
933.7171	2025.7188	1529.1	653.45
933.8544	2027.2935	1538.55	664
933.9917	2028.8674	1524.45	647.05
934.129	2030.4406	1528.65	651.55
934.2662	2032.0131	1516.4	639.05
934.4034	2033.5849	1532.8	646.85
934.5406	2035.1559	1524.45	646.8
934.6778	2036.7261	1517.6	639.25
934.8149	2038.2957	1523.1	647
934.952	2039.8645	1525.9	648.4
935.0891	2041.4325	1525.25	644.5
935.2262	2042.9998	1513.4	638.4
935.3632	2044.5664	1520.65	640.1
935.5002	2046.1323	1510.3	633.5
935.6372	2047.6974	1510.25	632.4
935.7742	2049.2617	1514.15	636.25
935.9111	2050.8254	1551.55	638.4
936.048	2052.3883	1517	637.45
936.1849	2053.9504	1512.25	633.85
936.3218	2055.5118	1511.05	630.15
936.4586	2057.0725	1507.5	625.15
936.5955	2058.6325	1514	636.75
936.7323	2060.1917	1505.25	628.3
936.869	2061.7502	1504.75	623.55
937.0058	2063.3079	1502.25	624.45
937.1425	2064.8649	1502.5	622.2
937.2792	2066.4212	1499.15	623.45
937.4159	2067.9767	1505.5	628.15
937.5525	2069.5315	1488.85	610.75
937.6891	2071.0856	1496	615.65
937.8257	2072.6389	1495.1	616.45
937.9623	2074.1915	1486.75	610.75
938.0989	2075.7433	1490.05	610.55
938.2354	2077.2945	1483.85	607.6
938.3719	2078.8448	1482.05	604.6
938.5084	2080.3945	1472.65	594.5
938.6448	2081.9434	1483.2	607.1
938.7812	2083.4916	1478.55	601.9
938.9176	2085.039	1476.75	595.9
939.054	2086.5857	1477.1	599.75
939.1903	2088.1317	1479.9	599.65
939.3267	2089.677	1469.95	589.2
939.463	2091.2215	1463.8	586.1
939.5992	2092.7652	1466.1	586
939.7355	2094.3083	1469.05	590.65
939.8717	2095.8506	1466.25	589
940.0079	2097.3921	1468.05	590.95
940.1441	2098.933	1466.3	590.15
940.2802	2100.4731	1460.35	583.1
940.4163	2102.0124	1466.6	582.05
940.5524	2103.5511	1464.75	587.35
940.6885	2105.089	1459.4	579.45
940.8245	2106.6261	1458	579.8
940.9606	2108.1626	1457.7	578.45
941.0965	2109.6983	1482.7	576.75
941.2325	2111.2332	1454.15	574.4
941.3684	2112.7675	1450.15	569.35
941.5044	2114.301	1455.2	574.4
941.6403	2115.8337	1457.05	579
941.7761	2117.3657	1453.8	577.15
941.912	2118.897	1452.25	573.95
942.0478	2120.4276	1458.45	571.95
942.1835	2121.9575	1452.45	574.4
942.3193	2123.4866	1457.35	566.55
942.455	2125.0149	1454.85	572.3
942.5907	2126.5426	1440.6	561
942.7264	2128.0695	1442.4	559.5
942.8621	2129.5956	1439.1	562.35
942.9977	2131.1211	1443.55	561.7
943.1333	2132.6458	1443.1	566.05
943.2689	2134.1698	1442.2	563.35
943.4044	2135.693	1439.45	558.4
943.54	2137.2155	1439	559.8
943.6755	2138.7373	1441.35	563.85
943.8109	2140.2584	1434.1	557.3
943.9464	2141.7787	1434.95	552.45
944.0818	2143.2983	1428.5	550
944.2172	2144.8171	1432.15	555.85
944.3526	2146.3353	1434.45	556
944.4879	2147.8527	1430.3	551.6
944.6232	2149.3693	1424.05	544.5
944.7585	2150.8853	1419.2	540.8
944.8938	2152.4005	1425.6	547.85
945.029	2153.9149	1421.15	543.55
945.1642	2155.4287	1421.6	542.2
945.2994	2156.9417	1417.6	538.3
945.4346	2158.454	1424.9	543.35
945.5697	2159.9655	1417.3	538.65
945.7048	2161.4764	1415.95	536.8
945.8399	2162.9865	1417.9	539.75
945.9749	2164.4958	1415.95	538.5
946.1099	2166.0045	1419.4	538.55
946.2449	2167.5124	1405.5	528.05
946.3799	2169.0195	1411.95	533.65
946.5148	2170.526	1409.95	531.9
946.6498	2172.0317	1412.05	533.4
946.7846	2173.5367	1404.25	526.05
946.9195	2175.0409	1405.6	529.3
947.0543	2176.5445	1402.9	526.25
947.1891	2178.0473	1406.05	526.4
947.3239	2179.5494	1400.95	519.6
947.4587	2181.0507	1399.95	520.3
947.5934	2182.5513	1395.9	517.1
947.7281	2184.0512	1401.75	524.2
947.8628	2185.5504	1394.2	515.4
947.9974	2187.0488	1391.75	515.25
948.132	2188.5465	1390.45	512.25
948.2666	2190.0435	1392.3	514.35
948.4012	2191.5397	1388.05	510.45
948.5357	2193.0353	1392.15	514.95
948.6702	2194.5301	1395.45	515.25
948.8047	2196.0241	1392.1	513.95
948.9392	2197.5175	1385.4	506.35
949.0736	2199.0101	1389.65	506.95
949.208	2200.502	1390.45	512.6
949.3424	2201.9931	1384.35	508.55
949.4767	2203.4835	1390.4	510.95
949.611	2204.9733	1398.8	502.85
949.7453	2206.4622	1380.8	504.2
949.8796	2207.9505	1380.15	498.85
950.0138	2209.438	1371.8	494.85
950.148	2210.9248	1374.75	497
950.2822	2212.4109	1377.4	497.9
950.4164	2213.8962	1368.95	488.1
950.5505	2215.3809	1371.45	491.55
950.6846	2216.8648	1372.95	496.25
950.8186	2218.3479	1369.8	486
950.9527	2219.8304	1367.45	486.65
951.0867	2221.3121	1365.55	487.25
951.2207	2222.7931	1362.9	484.1
951.3546	2224.2733	1359.85	481.4
951.4886	2225.7529	1351.85	472.65
951.6225	2227.2317	1358.25	475.65
951.7563	2228.7098	1352.8	475.4
951.8902	2230.1872	1354.65	475.15
952.024	2231.6638	1355.75	476.8
952.1578	2233.1397	1351	467.4
952.2916	2234.6149	1343	465.2
952.4253	2236.0894	1355.3	478.5
952.559	2237.5632	1359.8	472.6
952.6927	2239.0362	1349.75	472.4
952.8263	2240.5085	1347.2	469.85
952.9599	2241.9801	1346.05	466.55
953.0935	2243.4509	1342.55	464.85
953.2271	2244.921	1339.35	460.15
953.3606	2246.3904	1344	462.9
953.4941	2247.8591	1335.25	459.7
953.6276	2249.3271	1333.05	454.65
953.7611	2250.7943	1333.1	452.75
953.8945	2252.2608	1335.55	458.5
954.0279	2253.7266	1330.6	452.75
954.1612	2255.1917	1334.5	457.9
954.2946	2256.656	1330.35	450.25
954.4279	2258.1197	1329.05	453.35
954.5612	2259.5826	1320.5	441.5
954.6944	2261.0447	1326	445.3
954.8276	2262.5062	1329.6	451.6
954.9608	2263.9669	1330.25	447.95
955.094	2265.4269	1318.55	441.55
955.2271	2266.8862	1316.15	440.25
955.3602	2268.3448	1311.8	432.85
955.4933	2269.8026	1321.2	443.35
955.6264	2271.2598	1319.2	441.5
955.7594	2272.7162	1317.85	441.25
955.8924	2274.1719	1311.15	432.75
956.0253	2275.6268	1317.9	438.9
956.1583	2277.0811	1312.2	433.6
956.2912	2278.5346	1312	433.95
956.4241	2279.9874	1315.05	435.15
956.5569	2281.4395	1317.3	439.15
956.6897	2282.8908	1318.8	434.05
956.8225	2284.3414	1320.3	441.15
956.9553	2285.7914	1309.9	431.5
957.088	2287.2406	1313.25	431.75
957.2207	2288.689	1316.05	440.1
957.3534	2290.1368	1310.5	430.65
957.486	2291.5838	1311	430.2
957.6186	2293.0302	1309.45	429
957.7512	2294.4758	1304.1	427.95
957.8838	2295.9206	1308.95	429
958.0163	2297.3648	1311.15	430.95
958.1488	2298.8082	1305.95	426
958.2813	2300.251	1303.4	426.2
958.4137	2301.693	1305.8	425.4
958.5461	2303.1343	1302.75	424.3
958.6785	2304.5748	1297.4	417.9
958.8108	2306.0147	1299.3	422.5
958.9432	2307.4538	1302.9	422.95
959.0754	2308.8922	1295.4	417.5
959.2077	2310.3299	1298.3	420.6
959.3399	2311.7669	1299.1	419.95
959.4721	2313.2031	1296.95	418.7
959.6043	2314.6387	1294.75	417.25
959.7365	2316.0735	1287.1	408.75
959.8686	2317.5076	1293.3	415.7
960.0006	2318.941	1290.4	411.9
960.1327	2320.3737	1289.05	409.15
960.2647	2321.8056	1298.3	420.4
960.3967	2323.2369	1292.45	412.1
960.5287	2324.6674	1295.65	415.55
960.6606	2326.0972	1292.3	412.7
960.7925	2327.5263	1298.45	419.25
960.9244	2328.9547	1290.7	412.75
961.0562	2330.3823	1292	411.95
961.1881	2331.8092	1286.2	405.05
961.3198	2333.2355	1274.15	394.95
961.4516	2334.661	1280.45	398
961.5833	2336.0858	1279.9	398.55
961.715	2337.5098	1274.4	396.45
961.8467	2338.9332	1276.25	399.3
961.9783	2340.3558	1282.65	399.95
962.1099	2341.7778	1277.05	398.05
962.2415	2343.199	1272.95	393.6
962.373	2344.6195	1273	395.85
962.5045	2346.0393	1272.6	394.15
962.636	2347.4583	1272.9	393.55
962.7675	2348.8767	1264.5	383.55
962.8989	2350.2943	1268.35	389
963.0303	2351.7113	1271.2	389
963.1617	2353.1275	1277.3	398.2
963.293	2354.543	1277.85	390.8
963.4243	2355.9578	1270.95	390.75
963.5556	2357.3718	1266.45	389
963.6868	2358.7852	1266.65	383.95
963.818	2360.1978	1264.35	385.1
963.9492	2361.6098	1262.35	384.1
964.0803	2363.021	1269.85	388.85
964.2114	2364.4315	1261.75	385.3
964.3425	2365.8413	1264.45	381.7
964.4736	2367.2504	1259.7	381.7
964.6046	2368.6587	1264.85	386.05
964.7356	2370.0664	1263.25	383.85
964.8666	2371.4733	1259.4	380.25
964.9975	2372.8795	1259.9	380.85
965.1284	2374.285	1256.4	378.2
965.2593	2375.6899	1257.95	378.9
965.3901	2377.0939	1255.3	377.8
965.5209	2378.4973	1253.4	374.85
965.6517	2379.9	1256.45	376.95
965.7825	2381.3019	1258.7	380.45
965.9132	2382.7032	1249.95	371.2
966.0439	2384.1037	1247.1	370.05
966.1745	2385.5035	1257.5	380.6
966.3051	2386.9027	1248.85	372
966.4357	2388.3011	1256.2	372.95
966.5663	2389.6987	1246.15	367.3
966.6968	2391.0957	1245	365.4
966.8273	2392.492	1241	362.85
966.9578	2393.8876	1246.1	366.6
967.0882	2395.2824	1244.45	364.9
967.2186	2396.6765	1239.4	361
967.349	2398.07	1239.25	360.5
967.4793	2399.4627	1238.25	355.75
967.6097	2400.8547	1240.5	362.85
967.7399	2402.246	1236.35	351.7
967.8702	2403.6366	1230.85	352.85
968.0004	2405.0265	1232.05	352.75
968.1306	2406.4156	1234.8	351.7
968.2607	2407.8041	1236.65	352.95
968.3909	2409.1918	1235.85	354.75
968.521	2410.5789	1230.6	350.45
968.651	2411.9652	1232.35	349.5
968.781	2413.3508	1230.55	349.8
968.911	2414.7358	1227.4	348.1
969.041	2416.12	1230	350.65
969.1709	2417.5035	1227.45	349.05
969.3008	2418.8863	1228.45	347.15
969.4307	2420.2684	1227	347.75
969.5606	2421.6497	1229.25	350.5
969.6904	2423.0304	1222.45	343.7
969.8201	2424.4104	1224.8	344.4
969.9499	2425.7896	1224.8	343.35
970.0796	2427.1682	1213.45	335.2
970.2093	2428.546	1220.8	340.55
970.3389	2429.9232	1219.45	337.35
970.4685	2431.2996	1220.7	342.85
970.5981	2432.6753	1213.5	333.25
970.7277	2434.0503	1211.25	331.75
970.8572	2435.4246	1221	343.7
970.9867	2436.7982	1219.95	338.5
971.1161	2438.1711	1218.45	339.95
971.2456	2439.5433	1216.55	336.45
971.375	2440.9148	1212.5	331.7
971.5043	2442.2856	1210.1	332.4
971.6336	2443.6557	1212.25	331.35
971.7629	2445.025	1207.1	329.25
971.8922	2446.3937	1208.1	328.25
972.0214	2447.7617	1205.2	325.1
972.1506	2449.1289	1207.7	330.9
972.2798	2450.4955	1211.85	329.75
972.4089	2451.8613	1204.65	326.1
972.538	2453.2265	1204.95	324.55
972.6671	2454.5909	1206.8	326.9
972.7961	2455.9546	1206.05	327.3
972.9251	2457.3177	1203.6	323.3
973.0541	2458.68	1205.35	326.35
973.1831	2460.0416	1198.4	319
973.312	2461.4025	1203.65	322
973.4408	2462.7627	1207.3	316.4
973.5697	2464.1222	1199.5	323.35
973.6985	2465.4811	1200	321.4
973.8273	2466.8392	1198.1	317.1
973.956	2468.1966	1202.25	321.85
974.0847	2469.5533	1201.1	321.65
974.2134	2470.9093	1203.35	322.1
974.3421	2472.2645	1200.95	319.85
974.4707	2473.6191	1197.85	318.6
974.5993	2474.973	1200.4	322.4
974.7278	2476.3262	1199.5	318.6
974.8563	2477.6787	1196.15	317.4
974.9848	2479.0305	1200.5	323.05
975.1132	2480.3816	1201.9	320.85
975.2417	2481.7319	1196.85	319.65
975.37	2483.0816	1197.3	315.4
975.4984	2484.4306	1203.25	323.55
975.6267	2485.7789	1187.9	310.8
975.755	2487.1264	1197.9	315.85
975.8833	2488.4733	1193.2	315.2
976.0115	2489.8195	1198	309.9
976.1397	2491.165	1200.65	319.45
976.2678	2492.5097	1192.6	310.2
976.3959	2493.8538	1188.7	310.15
976.524	2495.1972	1194.8	316
976.6521	2496.5398	1191.7	310.1
976.7801	2497.8818	1192	311.75
976.9081	2499.2231	1190.35	313.3
977.036	2500.5637	1194.65	313.5
977.164	2501.9035	1184.75	305
977.2918	2503.2427	1193.35	310.45
977.4197	2504.5812	1185.8	307.6
977.5475	2505.919	1194.4	312.85
977.6753	2507.256	1188.8	310.85
977.8031	2508.5924	1184.05	303.5
977.9308	2509.9281	1189.2	304.15
978.0585	2511.2631	1181.55	302.4
978.1861	2512.5974	1188.05	309.85
978.3137	2513.9309	1183.4	305.45
978.4413	2515.2638	1214.85	305.15
978.5689	2516.596	1178.45	299.75
978.6964	2517.9275	1178.75	298
978.8239	2519.2583	1186.05	306.25
978.9513	2520.5884	1179.4	301
979.0788	2521.9178	1173.75	292.9
979.2062	2523.2465	1172.5	294
979.3335	2524.5745	1176.4	296.3
979.4608	2525.9018	1169.05	290.85
979.5881	2527.2284	1172.7	294.75
979.7154	2528.5543	1173.85	295.95
979.8426	2529.8796	1173.4	293.55
979.9698	2531.2041	1178.75	300.3
980.0969	2532.5279	1168.2	289.45
980.224	2533.851	1170.65	290.2
980.3511	2535.1735	1171.2	292.4
980.4781	2536.4952	1168.5	290.05
980.6052	2537.8163	1172.55	293.35
980.7321	2539.1366	1166.15	287.55
980.8591	2540.4562	1173.55	295.6
980.986	2541.7752	1167.05	288.4
981.1129	2543.0935	1170.45	292.85
981.2397	2544.411	1168.7	288.2
981.3665	2545.7279	1164.65	284.15
981.4933	2547.0441	1171.35	294.5
981.62	2548.3596	1172.35	290.15
981.7467	2549.6744	1166.2	288.5
981.8734	2550.9885	1174.5	287.95
982.0001	2552.3019	1160.05	282.95
982.1267	2553.6146	1165.5	286.1
982.2532	2554.9266	1164.85	285.15
982.3798	2556.2379	1167.25	286.1
982.5063	2557.5485	1163.05	285.25
982.6327	2558.8585	1171.65	284.7
982.7592	2560.1677	1162.9	280.55
982.8856	2561.4762	1163	285.05
983.0119	2562.7841	1164.75	283.9
983.1383	2564.0913	1159.1	281.5
983.2646	2565.3977	1165.55	287.35
983.3908	2566.7035	1160.75	281.95
983.517	2568.0086	1159.85	277.75
983.6432	2569.313	1155.6	275.95
983.7694	2570.6167	1161.5	279
983.8955	2571.9197	1155.1	276.65
984.0216	2573.222	1162.5	283
984.1476	2574.5236	1163.4	284.6
984.2737	2575.8246	1159.25	278.8
984.3996	2577.1248	1159.1	279.15
984.5256	2578.4244	1157.85	281.25
984.6515	2579.7232	1155.2	275.35
984.7774	2581.0214	1184.5	277.3
984.9032	2582.3189	1158.2	280.45
985.029	2583.6157	1164.55	281.8
985.1548	2584.9118	1160.65	283.6
985.2806	2586.2072	1159.35	281.55
985.4063	2587.5019	1160.6	283.9
985.5319	2588.7959	1155.4	274.35
985.6576	2590.0893	1160.5	281.8
985.7832	2591.3819	1159.9	282.2
985.9087	2592.6739	1165.2	286.05
986.0343	2593.9652	1167.95	290.55
986.1597	2595.2557	1160.05	280.7
986.2852	2596.5456	1164.75	285.7
986.4106	2597.8348	1166.6	287.6
986.536	2599.1234	1169.6	293.4
986.6614	2600.4112	1169.3	290.4
986.7867	2601.6983	1175.1	291.25
986.912	2602.9848	1166.3	289.1
987.0372	2604.2705	1179.35	293
987.1624	2605.5556	1165.05	285.8
987.2876	2606.84	1163.65	284.95
987.4128	2608.1237	1165.5	284.3
987.5379	2609.4067	1166.3	289.35
987.6629	2610.689	1167.1	280.05
987.788	2611.9707	1159.15	277.95
987.913	2613.2516	1159.9	276.9
988.0379	2614.5319	1158.65	278.6
988.1629	2615.8115	1157.55	278.9
988.2878	2617.0903	1153.5	273.4
988.4126	2618.3685	1148.45	268
988.5375	2619.6461	1151.6	272.05
988.6622	2620.9229	1154	275.55
988.787	2622.199	1152.8	271.55
988.9117	2623.4745	1150.5	271.55
989.0364	2624.7493	1153.85	275.45
989.161	2626.0234	1149.7	272.2
989.2857	2627.2968	1143.4	264.45
989.4102	2628.5695	1148.4	268.45
989.5348	2629.8415	1147.75	269
989.6593	2631.1128	1152.9	273.35
989.7837	2632.3835	1144.15	265.15
989.9082	2633.6535	1147.55	267.85
990.0326	2634.9228	1147.65	268.3
990.1569	2636.1914	1149.45	271.9
990.2812	2637.4593	1145.55	266.15
990.4055	2638.7265	1143.25	264.7
990.5298	2639.9931	1146.2	266.95
990.654	2641.259	1141.65	262.25
990.7782	2642.5242	1143	263.85
990.9023	2643.7887	1137.3	257.8
991.0264	2645.0525	1134	255.3
991.1505	2646.3156	1140.65	260.45
991.2745	2647.5781	1137.3	258.35
991.3985	2648.8398	1135.5	257.05
991.5225	2650.1009	1172	255.9
991.6464	2651.3613	1132.95	254.05
991.7703	2652.6211	1129.5	251.2
991.8942	2653.8801	1129.1	249.6
992.018	2655.1385	1130.1	249.55
992.1418	2656.3961	1126.55	246.9
992.2655	2657.6531	1128.8	248.9
992.3892	2658.9094	1124.75	245.75
992.5129	2660.1651	1127.2	248.6
992.6366	2661.42	1132.4	254
992.7602	2662.6743	1129.3	249.7
992.8837	2663.9279	1131.85	252.7
993.0073	2665.1808	1133.7	254.7
993.1307	2666.433	1130.85	249.9
993.2542	2667.6846	1133.3	255.6
993.3776	2668.9354	1142.45	260.35
993.501	2670.1856	1136.6	257.5
993.6244	2671.4351	1139.5	262.4
993.7477	2672.6839	1143.25	263.65
993.8709	2673.9321	1142.35	261.9
993.9942	2675.1795	1145.15	265.6
994.1174	2676.4263	1144.55	264.55
994.2405	2677.6724	1143.45	267.25
994.3637	2678.9179	1145.8	266.35
994.4868	2680.1626	1144.1	266.25
994.6098	2681.4067	1150.75	272.1
994.7328	2682.6501	1141.8	262.3
994.8558	2683.8928	1145.5	268.75
994.9788	2685.1348	1141.1	262.85
995.1017	2686.3761	1129.9	251.5
995.2245	2687.6168	1126.65	248.35
995.3474	2688.8568	1130.4	252.9
995.4702	2690.0961	1126	251.2
995.5929	2691.3348	1129.75	249.55
995.7156	2692.5727	1123.35	243.7
995.8383	2693.81	1121.9	243.35
995.961	2695.0466	1120.25	241.55
996.0836	2696.2826	1120.8	242.85
996.2062	2697.5178	1143.8	242.85
996.3287	2698.7524	1120.6	242.6
996.4512	2699.9863	1127.75	246.2
996.5737	2701.2195	1124.6	246.45
996.6961	2702.452	1133.8	252.6
996.8185	2703.6839	1131	250.95
996.9408	2704.9151	1131.75	254.35
997.0631	2706.1456	1132.25	252.9
997.1854	2707.3755	1136.55	257.45
997.3077	2708.6046	1137.55	257.6
997.4299	2709.8331	1141.85	262.8
997.552	2711.0609	1143.15	264.1
997.6742	2712.2881	1146.2	267.45
997.7963	2713.5145	1151.55	270.3
997.9183	2714.7403	1153.7	277.1
998.0403	2715.9654	1152.25	273.5
998.1623	2717.1899	1171.95	278.65
998.2842	2718.4136	1166.1	287.8
998.4062	2719.6367	1177	298.8
998.528	2720.8591	1192.1	306.8
998.6498	2722.0809	1192.05	313.3
998.7716	2723.3019	1196.05	312.6
998.8934	2724.5223	1194.05	316.05
999.0151	2725.7421	1200.4	320.1
999.1368	2726.9611	1194.3	312.6
999.2584	2728.1795	1192.75	309.9
999.38	2729.3972	1175.35	298.3
999.5016	2730.6142	1179.35	287.05
999.6231	2731.8306	1163.4	285.85
999.7446	2733.0462	1153.55	272.75
999.8661	2734.2612	1155.65	273.35
999.9875	2735.4756	1143.95	262.25
1000.1089	2736.6892	1141.2	261.65
1000.2302	2737.9022	1132.4	255.2
1000.3515	2739.1145	1129.8	251.05
1000.4728	2740.3262	1133.8	247.85
1000.594	2741.5372	1127.1	249.2
1000.7152	2742.7475	1116.7	237.6
1000.8363	2743.9571	1117.1	237.6
1000.9575	2745.1661	1118.75	233.25
1001.0785	2746.3744	1114.6	235.9
1001.1996	2747.582	1104.95	225.6
1001.3206	2748.7889	1106	226.35
1001.4415	2749.9952	1098.8	220.9
1001.5625	2751.2008	1098.35	218.95
1001.6833	2752.4057	1099.8	221.05
1001.8042	2753.61	1098.45	218.35
1001.925	2754.8136	1096.6	216.8
1002.0458	2756.0165	1091.55	214.8
1002.1665	2757.2188	1088.3	210.35
1002.2872	2758.4204	1090.6	210.45
1002.4078	2759.6213	1095.1	213.75
1002.5285	2760.8215	1098.45	214.65
1002.649	2762.0211	1100.35	219.65
1002.7696	2763.22	1098.9	217.7
1002.8901	2764.4182	1091.35	212.3
1003.0106	2765.6158	1090.2	210.65
1003.131	2766.8127	1085	206.85
1003.2514	2768.009	1087.2	210.15
1003.3717	2769.2045	1082.9	203.8
1003.492	2770.3994	1084.2	203
1003.6123	2771.5936	1078.2	200.3
1003.7325	2772.7872	1077.25	199.7
1003.8527	2773.9801	1081.95	201.9
1003.9729	2775.1723	1099.25	201.95
1004.093	2776.3639	1075.4	199.05
1004.2131	2777.5548	1075.15	194
1004.3331	2778.745	1073.3	193.8
1004.4531	2779.9346	1078.1	199.4
1004.5731	2781.1235	1075.35	196
1004.693	2782.3117	1076.05	199.4
1004.8129	2783.4992	1074.75	196.35
1004.9328	2784.6861	1076.05	197
1005.0526	2785.8723	1080.45	200.4
1005.1723	2787.0579	1077.5	198.85
1005.2921	2788.2428	1078.1	198.55
1005.4118	2789.427	1076.9	198.65
1005.5314	2790.6106	1081.65	202.85
1005.651	2791.7935	1085.25	206.4
1005.7706	2792.9757	1082	204.45
1005.8902	2794.1573	1085.35	204.5
1006.0097	2795.3382	1081.75	202.85
1006.1291	2796.5184	1086.45	210.15
1006.2485	2797.698	1091.4	210.4
1006.3679	2798.8769	1088.55	211.2
1006.4873	2800.0551	1090.3	212.65
1006.6066	2801.2327	1097.4	215.5
1006.7258	2802.4096	1092.8	216.55
1006.8451	2803.5859	1099.5	220.25
1006.9642	2804.7615	1101.35	224.55
1007.0834	2805.9364	1106	227.8
1007.2025	2807.1106	1109.45	232.4
1007.3216	2808.2842	1116.3	236.85
1007.4406	2809.4572	1118.9	239.2
1007.5596	2810.6294	1131.35	251.8
1007.6785	2811.801	1134.9	257.55
1007.7975	2812.972	1142.8	265.8
1007.9163	2814.1423	1152.1	272.8
1008.0352	2815.3119	1162.25	282.55
1008.154	2816.4808	1183.65	305.5
1008.2727	2817.6491	1206.15	327.3
1008.3914	2818.8167	1222.95	344.2
1008.5101	2819.9837	1255.85	372.3
1008.6288	2821.15	1280.3	402
1008.7474	2822.3157	1317.6	439.4
1008.8659	2823.4807	1359.05	482.05
1008.9844	2824.645	1402.2	521.2
1009.1029	2825.8086	1451.6	575.35
1009.2214	2826.9716	1495.55	618.85
1009.3398	2828.134	1538.4	661.1
1009.4581	2829.2957	1585.45	706.7
1009.5764	2830.4567	1615.95	740.35
1009.6947	2831.617	1647.6	769.25
1009.813	2832.7767	1658.15	780.85
1009.9312	2833.9358	1654.1	776.2
1010.0493	2835.0941	1656.55	776.75
1010.1675	2836.2519	1639.3	762.15
1010.2855	2837.4089	1613.85	733.25
1010.4036	2838.5653	1591.45	715.75
1010.5216	2839.7211	1567.95	692.3
1010.6396	2840.8761	1564	684.55
1010.7575	2842.0306	1567.7	691.8
1010.8754	2843.1843	1564.5	686.85
1010.9932	2844.3374	1569.75	693.2
1011.111	2845.4899	1576.3	696.4
1011.2288	2846.6417	1584	707.85
1011.3465	2847.7928	1599.55	721.4
1011.4642	2848.9433	1603.7	724.6
1011.5818	2850.0931	1616.15	737.1
1011.6995	2851.2422	1623.75	744.7
1011.817	2852.3907	1621.4	743.6
1011.9345	2853.5385	1626.7	745.85
1012.052	2854.6857	1647.65	742.6
1012.1695	2855.8323	1641.1	763.8
1012.2869	2856.9781	1662.6	784.8
1012.4042	2858.1233	1672.6	793.9
1012.5216	2859.2679	1700.15	822.2
1012.6389	2860.4118	1713.5	836.25
1012.7561	2861.555	1745.45	863.1
1012.8733	2862.6976	1765.5	884.6
1012.9905	2863.8395	1775.6	898
1013.1076	2864.9808	1792.55	914.2
1013.2247	2866.1214	1794.65	917
1013.3417	2867.2614	1801.55	923.5
1013.4587	2868.4007	1821.4	940.1
1013.5757	2869.5393	1840.15	959.15
1013.6926	2870.6773	1846.25	968.7
1013.8095	2871.8146	1861.4	981.75
1013.9263	2872.9513	1882.05	1001.65
1014.0431	2874.0874	1892.95	1013.25
1014.1599	2875.2227	1900.7	1019.85
1014.2766	2876.3574	1911.7	1033.85
1014.3933	2877.4915	1929.95	1052.4
1014.51	2878.6249	1941.25	1064.15
1014.6266	2879.7577	1964.05	1084.7
1014.7431	2880.8898	1974.7	1086.9
1014.8596	2882.0212	1976.55	1101.55
1014.9761	2883.152	2006.6	1127.4
1015.0925	2884.2821	2007.9	1130.6
1015.2089	2885.4116	2032.05	1155.2
1015.3253	2886.5405	2039.6	1161.2
1015.4416	2887.6686	2051.8	1172.9
1015.5579	2888.7962	2058.1	1180.75
1015.6741	2889.923	2051.95	1175.1
1015.7903	2891.0493	2044.65	1166.25
1015.9065	2892.1748	2039.05	1160.25
1016.0226	2893.2997	2044	1164.9
1016.1387	2894.424	2043.35	1166.15
1016.2547	2895.5476	2050.5	1172.1
1016.3707	2896.6706	2054.55	1177.9
1016.4866	2897.7929	2057.95	1177.45
1016.6025	2898.9145	2054	1176.15
1016.7184	2900.0355	2045.9	1165.45
1016.8342	2901.1559	2045.25	1167.25
1016.95	2902.2756	2037.85	1154.45
1017.0658	2903.3946	2030.55	1152.15
1017.1815	2904.513	2032.6	1152.15
1017.2971	2905.6308	2021.35	1143.35
1017.4127	2906.7479	2011.5	1132.05
1017.5283	2907.8643	2009.75	1131.6
1017.6439	2908.9801	2014.35	1136.7
1017.7594	2910.0953	2018.25	1139.95
1017.8748	2911.2098	2012.25	1131.2
1017.9902	2912.3236	2015.65	1131.2
1018.1056	2913.4368	2001	1119.2
1018.2209	2914.5494	1994.4	1115.6
1018.3362	2915.6613	1988.35	1102.35
1018.4515	2916.7725	1968.05	1087.7
1018.5667	2917.8831	1956.8	1076.05
1018.6819	2918.9931	1939.15	1058.4
1018.797	2920.1024	1923.05	1042.55
1018.9121	2921.211	1911.7	1035.25
1019.0271	2922.319	1896.2	1016.5
1019.1421	2923.4264	1882.3	1005.55
1019.2571	2924.5331	1885.95	1007.7
1019.372	2925.6391	1872.55	995.45
1019.4869	2926.7445	1875.25	997.25
1019.6017	2927.8493	1878.25	1001.25
1019.7165	2928.9534	1875.35	997.55
1019.8313	2930.0569	1888.4	1007.25
1019.946	2931.1597	1894.35	1016.3
1020.0606	2932.2619	1907.25	1029.2
1020.1753	2933.3634	1905.85	1027.95
1020.2899	2934.4643	1924.85	1038.9
1020.4044	2935.5645	1919.55	1036.65
1020.5189	2936.6641	1943.3	1061.25
1020.6334	2937.763	1943	1066.75
1020.7478	2938.8613	1942.65	1065.3
1020.8622	2939.959	1933.1	1049.25
1020.9765	2941.056	1914.8	1038.65
1021.0908	2942.1523	1875	995.85
1021.2051	2943.248	1829.7	951.1
1021.3193	2944.3431	1787.35	910.85
1021.4334	2945.4375	1740.7	862.8
1021.5476	2946.5313	1689.2	813.15
1021.6617	2947.6244	1649.4	771.25
1021.7757	2948.7169	1607.85	730
1021.8897	2949.8087	1561.8	684.35
1022.0037	2950.8999	1528.05	649.65
1022.1176	2951.9904	1489.4	612.85
1022.2315	2953.0803	1460.95	583.95
1022.3453	2954.1696	1438.8	559.65
1022.4591	2955.2582	1419.6	540.3
1022.5728	2956.3462	1404.6	527.15
1022.6865	2957.4335	1397.25	518.1
1022.8002	2958.5202	1390.8	511.9
1022.9138	2959.6062	1395.9	516.75
1023.0274	2960.6916	1393	518
1023.141	2961.7764	1391.95	511.35
1023.2545	2962.8605	1396.95	517.75
1023.3679	2963.9439	1390	513.5
1023.4813	2965.0267	1387.35	507.45
1023.5947	2966.1089	1412.1	512.25
1023.708	2967.1905	1384.25	509.65
1023.8213	2968.2714	1375.15	499.1
1023.9346	2969.3516	1363.7	486.5
1024.0478	2970.4312	1374.75	490.6
1024.1609	2971.5102	1368.1	490.05
1024.274	2972.5885	1360.65	483.35
1024.3871	2973.6662	1364.6	480.1
1024.5002	2974.7432	1363.85	485.55
1024.6132	2975.8196	1364.95	486.95
1024.7261	2976.8954	1369.8	492.4
1024.839	2977.9705	1362.1	484.85
1024.9519	2979.045	1361.8	483.75
1025.0647	2980.1188	1369.4	491.85
1025.1775	2981.192	1358.1	481.8
1025.2902	2982.2645	1359.4	480.75
1025.4029	2983.3364	1340.85	465.2
1025.5156	2984.4077	1324	448.4
1025.6282	2985.4783	1314.9	428.75
1025.7407	2986.5483	1292.15	413.95
1025.8532	2987.6177	1282.3	404.65
1025.9657	2988.6864	1273.8	396.05
1026.0782	2989.7545	1263.55	382.75
1026.1906	2990.8219	1247.05	369.8
1026.3029	2991.8887	1238.7	360.9
1026.4152	2992.9548	1220.85	343.3
1026.5275	2994.0204	1203.4	326.15
1026.6397	2995.0852	1184.3	308.2
1026.7519	2996.1495	1165.8	287.2
1026.864	2997.2131	1149.9	274.2
1026.9761	2998.276	1140.1	261.4
1027.0882	2999.3383	1127.15	249.2
1027.2002	3000.4	1113.35	233.9
1027.3122	3001.4611	1103.8	224.85
1027.4241	3002.5215	1094.2	215.35
1027.536	3003.5812	1079.65	202.35
1027.6478	3004.6404	1072.4	194.45
1027.7596	3005.6989	1069.7	190.25
1027.8714	3006.7567	1062.9	184.45
1027.9831	3007.8139	1087.35	178.45
1028.0947	3008.8705	1052.7	175.15
1028.2064	3009.9264	1053.35	171.8
1028.3179	3010.9818	1049.8	172.45
1028.4295	3012.0364	1042.65	164.1
1028.541	3013.0905	1035.85	157.1
1028.6524	3014.1439	1036.35	158.35
1028.7638	3015.1966	1030.35	151.8
1028.8752	3016.2487	1032.6	155.9
1028.9865	3017.3002	1030.2	147.8
1029.0978	3018.3511	1029.6	153.75
1029.209	3019.4013	1027.05	149.9
1029.3202	3020.4509	1025.45	147.6
1029.4314	3021.4998	1021.85	145.1
1029.5425	3022.5481	1021.5	145.45
1029.6535	3023.5958	1020.65	145
1029.7645	3024.6428	1017.45	138.05
1029.8755	3025.6892	1018.15	140.9
1029.9864	3026.735	1019.25	141.15
1030.0973	3027.7802	1019.65	140.45
1030.2082	3028.8247	1018.2	142.55
1030.319	3029.8685	1012.45	133.55
1030.4297	3030.9118	1017.7	138.35
1030.5404	3031.9544	1010.25	131.1
1030.6511	3032.9963	1019	140.8
1030.7617	3034.0376	1016.75	140.65
1030.8723	3035.0783	1017.75	137.85
1030.9829	3036.1184	1018	138.9
1031.0934	3037.1578	1017.35	141.35
1031.2038	3038.1966	1022.45	144.05
1031.3142	3039.2348	1016.35	139.9
1031.4246	3040.2723	1028.85	141.65
1031.5349	3041.3092	1018.9	142.25
1031.6452	3042.3455	1017.3	140.05
1031.7554	3043.3811	1025.05	144.95
1031.8656	3044.4161	1021.25	142.35
1031.9758	3045.4505	1022.8	148.1
1032.0859	3046.4842	1024.55	144.65
1032.1959	3047.5173	1018.95	144.45
1032.3059	3048.5498	1020.25	141.95
1032.4159	3049.5816	1021	143.85
1032.5258	3050.6128	1021.55	142.3
1032.6357	3051.6434	1026	146.55
1032.7455	3052.6734	1028	148.25
1032.8553	3053.7027	1021.8	142.25
1032.9651	3054.7314	1025.75	147.5
1033.0748	3055.7594	1025.15	148.4
1033.1845	3056.7868	1023	142.75
1033.2941	3057.8136	1025.3	146.3
1033.4037	3058.8398	1023.9	148.85
1033.5132	3059.8653	1029.3	150.35
1033.6227	3060.8902	1036.2	158.6
1033.7321	3061.9145	1033.2	156.35
1033.8415	3062.9381	1034.4	156.05
1033.9509	3063.9612	1047.95	155.95
1034.0602	3064.9835	1036.75	159.15
1034.1694	3066.0053	1036.15	156.75
1034.2787	3067.0264	1036	158.75
1034.3878	3068.0469	1037.45	157.85
1034.497	3069.0668	1038.8	159.95
1034.6061	3070.086	1037.6	161.35
1034.7151	3071.1046	1031.35	154.25
1034.8241	3072.1226	1032.1	154.05
1034.9331	3073.1399	1030.3	151.05
1035.042	3074.1567	1025.65	148
1035.1508	3075.1727	1028	147.85
1035.2597	3076.1882	1023.15	146.55
1035.3684	3077.203	1019.05	141.3
1035.4772	3078.2173	1020.3	140.35
1035.5859	3079.2308	1011.75	131.9
1035.6945	3080.2438	1007.3	127.9
1035.8031	3081.2561	1003	125.25
1035.9117	3082.2678	1000.65	122.35
1036.0202	3083.2789	999.05	120.75
1036.1286	3084.2893	996.15	118.95
1036.2371	3085.2991	990.35	113.15
1036.3454	3086.3083	993.6	112.35
1036.4538	3087.3169	984.85	106.9
1036.562	3088.3248	986.05	105.8
1036.6703	3089.3321	984.4	104.55
1036.7785	3090.3388	980.1	105
1036.8866	3091.3449	978.6	101.2
1036.9948	3092.3503	982.75	100.9
1037.1028	3093.3551	977.8	101.65
1037.2108	3094.3593	972.7	98.15
1037.3188	3095.3629	976.05	98.65
1037.4267	3096.3658	972.9	93.5
1037.5346	3097.3681	972.35	94.15
1037.6425	3098.3698	973.3	94.2
1037.7503	3099.3708	973.6	97.1
1037.858	3100.3713	970.45	93.45
1037.9657	3101.3711	968.65	90.45
1038.0734	3102.3702	1108.15	94.9
1038.181	3103.3688	967.7	87.25
1038.2886	3104.3667	960.9	84.7
1038.3961	3105.364	960.2	81.9
1038.5036	3106.3607	963.35	84.5
1038.611	3107.3568	958.35	77.95
1038.7184	3108.3522	960.7	84.4
1038.8257	3109.347	957.6	78.95
1038.933	3110.3412	963.5	80.6
1039.0403	3111.3348	955.8	80.15
1039.1475	3112.3277	953.7	75.65
1039.2547	3113.32	956	79.85
1039.3618	3114.3117	952.5	74.15
1039.4689	3115.3028	954.5	76.85
1039.5759	3116.2932	956.05	74.8
1039.6829	3117.2831	955.2	70.45
1039.7898	3118.2723	949.55	70.5
1039.8967	3119.2608	947.95	71.15
1040.0035	3120.2488	949.9	69.4
1040.1103	3121.2361	945.3	68.1
1040.2171	3122.2229	942.05	63.25
1040.3238	3123.209	945.75	67.95
1040.4305	3124.1944	942.75	65.3
1040.5371	3125.1793	942.35	63.5
1040.6437	3126.1635	943.65	66
1040.7502	3127.1471	937	58.1
1040.8567	3128.1301	940.2	63.05
1040.9631	3129.1125	938.7	59.25
1041.0695	3130.0942	935.2	58.15
1041.1759	3131.0753	946.85	61.05
1041.2822	3132.0558	939.75	59.3
1041.3884	3133.0357	935.1	55
1041.4946	3134.015	935.95	57.2
1041.6008	3134.9936	939.05	59.35
1041.7069	3135.9716	955.4	54.8
1041.813	3136.949	931.45	53.9
1041.919	3137.9258	953	55.95
1042.025	3138.902	939.75	56.2
1042.1309	3139.8775	928.4	50.9
1042.2368	3140.8524	931.45	52
1042.3427	3141.8267	932.3	51.05
1042.4485	3142.8004	931.75	54.15
1042.5542	3143.7735	937.95	52.75
1042.6599	3144.7459	933.15	53.8
1042.7656	3145.7178	929.85	51.15
1042.8712	3146.689	926.25	50.4
1042.9768	3147.6596	929.95	50.8
1043.0823	3148.6295	931.75	54.35
1043.1878	3149.5989	925.2	48.8
1043.2932	3150.5676	927.55	50.4
1043.3986	3151.5357	925	50.15
1043.5039	3152.5032	924.5	47.5
1043.6092	3153.4701	924.9	46.6
1043.7145	3154.4364	927.95	50.05
1043.8197	3155.402	924.85	46.45
1043.9248	3156.367	924.6	44.95
1044.03	3157.3315	960.95	46
1044.135	3158.2952	927.05	48.4
1044.24	3159.2584	922.25	47.1
1044.345	3160.221	924.85	46.5
1044.4499	3161.1829	923.6	46.05
1044.5548	3162.1442	923.15	47.35
1044.6596	3163.105	924.4	47.05
1044.7644	3164.065	923.2	45.75
1044.8692	3165.0245	922.4	41.9
1044.9739	3165.9834	922.55	46.9
1045.0785	3166.9416	920.65	40.7
1045.1831	3167.8993	923.4	45.45
1045.2877	3168.8563	924.45	46.6
1045.3922	3169.8127	921.2	45.75
1045.4966	3170.7684	922.5	44.15
1045.6011	3171.7236	917.35	39.35
1045.7054	3172.6782	922.15	43.1
1045.8098	3173.6321	918.45	40.65
1045.914	3174.5854	924.55	42.6
1046.0183	3175.5381	918.9	39.85
1046.1224	3176.4902	917.85	41.55
1046.2266	3177.4417	916.05	39.35
1046.3307	3178.3926	919.2	43.05
1046.4347	3179.3428	914.4	37.25
1046.5387	3180.2924	918.65	44.05
1046.6427	3181.2415	918.4	41.4
1046.7466	3182.1899	920.2	41.4
1046.8504	3183.1377	918.5	38.6
1046.9542	3184.0848	921.55	39
1047.058	3185.0314	915.7	37.75
1047.1617	3185.9773	916.75	38.15
1047.2654	3186.9227	915.25	37
1047.369	3187.8674	914.35	37.1
1047.4726	3188.8115	918.15	35.15
1047.5761	3189.755	915.7	39.55
1047.6796	3190.6979	910	31.65
1047.783	3191.6402	913.65	36.35
1047.8864	3192.5818	915.7	37.9
1047.9898	3193.5229	939.75	35.95
1048.0931	3194.4633	914.1	36.55
1048.1963	3195.4031	912.15	33.7
1048.2995	3196.3423	912.9	35.7
1048.4027	3197.2809	912.35	36.45
1048.5058	3198.2189	909.95	30.2
1048.6089	3199.1563	916.85	32.15
1048.7119	3200.0931	908.95	32.85
1048.8148	3201.0292	910.15	33.6
1048.9178	3201.9648	909.35	32.9
1049.0206	3202.8997	913.55	33.4
1049.1235	3203.834	911.8	34.45
1049.2262	3204.7677	912	34.1
1049.329	3205.7008	910.05	31.15
1049.4317	3206.6333	910.45	34.35
1049.5343	3207.5652	910.75	31.25
1049.6369	3208.4964	908.1	30.9
1049.7394	3209.4271	907.25	30.55
1049.8419	3210.3571	907.75	31.55
1049.9444	3211.2865	907.95	29.95
1050.0468	3212.2154	909.85	31.25
1050.1491	3213.1436	912.6	31
1050.2514	3214.0712	916.25	31.8
1050.3537	3214.9982	906.55	28.9
1050.4559	3215.9246	909.35	31.7
1050.5581	3216.8503	906.05	28.4
1050.6602	3217.7755	906.35	28.05
1050.7623	3218.7001	906.55	30.4
1050.8643	3219.624	909.65	33.4
1050.9663	3220.5473	910.3	34.55
1051.0682	3221.4701	905.85	28.45
1051.1701	3222.3922	910.2	30.9
1051.2719	3223.3137	907.1	30
1051.3737	3224.2346	907.5	30.1
1051.4754	3225.1549	904.85	26.9
1051.5771	3226.0746	904.05	27.25
1051.6788	3226.9937	904.65	27.8
1051.7804	3227.9121	905.05	28.25
1051.8819	3228.83	906.05	30.1
1051.9834	3229.7473	907.1	30.1
1052.0849	3230.6639	905.55	26.85
1052.1863	3231.5799	905.05	26.6
1052.2876	3232.4954	907.6	29.45
1052.3889	3233.4102	902	25.15
1052.4902	3234.3244	905	26.85
1052.5914	3235.238	903.55	26.9
1052.6926	3236.151	930.5	28.65
1052.7937	3237.0634	905.35	28.35
1052.8948	3237.9752	903.95	25.4
1052.9958	3238.8864	905.15	27
1053.0968	3239.797	901.75	26
1053.1977	3240.7069	904.7	26.9
1053.2986	3241.6163	904.1	25.3
1053.3994	3242.5251	901.75	27.3
1053.5002	3243.4332	902	26.15
1053.6009	3244.3408	904.75	28.55
1053.7016	3245.2477	901.05	23.85
1053.8022	3246.154	902.45	23.45
1053.9028	3247.0598	903.1	25.5
1054.0034	3247.9649	901.25	21.35
1054.1039	3248.8694	902.45	24.05
1054.2043	3249.7733	903.4	26.95
1054.3047	3250.6766	901	24.65
1054.4051	3251.5793	901.75	23.65
1054.5054	3252.4814	899.7	22.55
1054.6056	3253.3829	898.85	22
1054.7058	3254.2838	898.6	21.6
1054.806	3255.1841	899.55	21.25
1054.9061	3256.0838	899.75	21.3
1055.0061	3256.9829	897.8	21.1
1055.1062	3257.8814	900	19.1
1055.2061	3258.7792	901	21.85
1055.306	3259.6765	900.9	23.5
1055.4059	3260.5731	897.8	21.6
1055.5057	3261.4692	898.05	21.3
1055.6055	3262.3647	896.05	18.7
1055.7052	3263.2595	895.6	18.75
1055.8049	3264.1538	895.3	15.45
1055.9045	3265.0474	896.45	19.05
1056.0041	3265.9404	896.35	18.45
1056.1036	3266.8329	894.4	17.2
1056.2031	3267.7247	906.75	19.8
1056.3025	3268.616	894.45	20.2
1056.4019	3269.5066	892.6	13.6
1056.5013	3270.3966	895.8	16.6
1056.6005	3271.286	892.95	15.2
