Software Version:	3.9.2.0
Unit SN:	10000200
Spectrometer SN:	6960
Date:	3/8/2024 11:45:18 AM
Data Line Index:	25
Spectral Points:	2048
Integration time (ms):	125
Averages:	20
Delay (ms):	30000
Sequence Number:	1
Processing:	dark subtract
Laser Power (mW):	300
Laser Current (mA):	822
Laser Diode Temp (C):	25
Laser Case Temp (C):	25.3
System Temp (C):	25.3
Spectrometer Temp (C):	23.2
CCD Temp (C):	0.01
Secondary Temp (C):	20.01
Heatsink Temp (C):	19.803
CCDPCB Temp (C):	35.04
SecondaryPCB Temp (C):	27.637

Wavelength	RamanShift	Raw Counts	Dark Subtracted
787.061	30.1047	416.05	7
787.2016	32.3739	411.95	4.95
787.3422	34.6426	415.3	9.55
787.4828	36.9109	418.05	9.85
787.6235	39.1787	421.85	8.7
787.7642	41.4461	427.2	7.2
787.9049	43.7131	431.1	9.4
788.0456	45.9796	435.4	11.55
788.1863	48.2456	438.6	9.4
788.3271	50.5112	441.8	8.55
788.4679	52.7764	445.65	12.25
788.6087	55.0411	451	10.05
788.7496	57.3054	455.3	10.6
788.8904	59.5692	459.65	13.45
789.0313	61.8326	461.65	14.4
789.1722	64.0955	468.05	16.75
789.3132	66.3579	475.95	16.2
789.4541	68.6199	481.25	21.45
789.5951	70.8815	492.25	27.3
789.7361	73.1426	509.1	38.7
789.8771	75.4032	543.55	71.2
790.0181	77.6634	621.1	143.85
790.1592	79.9231	792.7	313.2
790.3003	82.1824	1142.75	654.3
790.4414	84.4412	1729.8	1225.45
790.5825	86.6995	2478.75	1957.35
790.7237	88.9574	3176.55	2641.05
790.8648	91.2148	3650.9	3109.05
791.006	93.4717	3859.25	3307.2
791.1472	95.7282	3876.1	3322.05
791.2885	97.9842	3852.2	3297
791.4297	100.2398	3797.2	3237.85
791.571	102.4949	3751.9	3189.95
791.7123	104.7495	3704.5	3138.45
791.8536	107.0036	3656.2	3090.95
791.9949	109.2573	3564.95	3004.05
792.1363	111.5105	3466.15	2897.35
792.2777	113.7632	3365.65	2797.35
792.4191	116.0154	3267.5	2686.9
792.5605	118.2672	3135.3	2558.55
792.7019	120.5185	3036.15	2459.8
792.8434	122.7693	2929.5	2346.2
792.9849	125.0197	2843.3	2258.85
793.1264	127.2696	2762.85	2174.25
793.2679	129.519	2719.2	2127.75
793.4094	131.7679	2691.45	2100.15
793.551	134.0163	2677.4	2080.45
793.6926	136.2642	2665.3	2064.55
793.8342	138.5117	2649.25	2047.6
793.9758	140.7587	2616.85	2010.9
794.1175	143.0052	2570.45	1964.45
794.2591	145.2512	2508.35	1901.9
794.4008	147.4967	2447.7	1841.35
794.5425	149.7417	2417.55	1808.05
794.6842	151.9863	2387.35	1770.45
794.826	154.2304	2381.55	1762.6
794.9677	156.4739	2369.05	1741.15
795.1095	158.717	2398.75	1770.75
795.2513	160.9596	2412.05	1783.85
795.3931	163.2017	2436.15	1804.55
795.535	165.4433	2438.25	1805.35
795.6768	167.6844	2434.9	1801.5
795.8187	169.925	2400.75	1763.15
795.9606	172.1651	2339.8	1697
796.1025	174.4047	2302.65	1656.25
796.2445	176.6439	2255.3	1607.7
796.3864	178.8825	2214.75	1564.55
796.5284	181.1206	2208.4	1550.65
796.6704	183.3582	2204.75	1545.95
796.8124	185.5954	2201.15	1541.7
796.9544	187.832	2199.25	1531.35
797.0965	190.0681	2196.35	1529.45
797.2386	192.3037	2205.05	1534.75
797.3806	194.5388	2214.5	1546.1
797.5228	196.7734	2224.2	1548.85
797.6649	199.0075	2241.95	1567.1
797.807	201.2411	2270.7	1593.65
797.9492	203.4742	2279.95	1599.8
798.0914	205.7068	2313.55	1629.75
798.2336	207.9389	2326.05	1643.85
798.3758	210.1704	2337.55	1664.6
798.518	212.4015	2346.45	1680.8
798.6603	214.632	2343.4	1680.7
798.8025	216.862	2351	1694
798.9448	219.0915	2347.15	1686.35
799.0871	221.3205	2372.3	1710.8
799.2294	223.549	2357.35	1695.6
799.3718	225.777	2367.15	1704.25
799.5141	228.0044	2360.65	1690.8
799.6565	230.2314	2353.9	1682.65
799.7989	232.4578	2351.75	1676.7
799.9413	234.6837	2337.9	1656.2
800.0837	236.909	2322.7	1635.3
800.2262	239.1339	2331.35	1621.6
800.3687	241.3582	2314.05	1619.4
800.5111	243.582	2342.2	1619.05
800.6536	245.8053	2339.55	1629.2
800.7961	248.0281	2332.35	1625.2
800.9387	250.2503	2345.8	1634.15
801.0812	252.472	2352.7	1641.1
801.2238	254.6932	2362.85	1651.8
801.3664	256.9139	2371.65	1660.2
801.509	259.134	2387.45	1668.9
801.6516	261.3536	2414.85	1701.75
801.7942	263.5727	2463.95	1746.25
801.9369	265.7912	2505.85	1788.2
802.0795	268.0092	2569.35	1855.05
802.2222	270.2267	2631.65	1915.05
802.3649	272.4436	2680.95	1960.75
802.5076	274.6601	2724.75	1995.45
802.6504	276.8759	2741.75	2015.2
802.7931	279.0913	2774.4	2046.9
802.9359	281.3061	2780.45	2053.95
803.0787	283.5204	2803.5	2072.75
803.2215	285.7341	2820.5	2088.8
803.3643	287.9473	2841.25	2106.75
803.5071	290.16	2832.25	2095.6
803.6499	292.3721	2801.35	2068.65
803.7928	294.5837	2757.4	2028.75
803.9357	296.7947	2738.4	2005.9
804.0786	299.0052	2734.05	2001.5
804.2215	301.2152	2720.8	1984.4
804.3644	303.4246	2707.7	1973.7
804.5074	305.6334	2673.4	1940.95
804.6503	307.8418	2657.05	1918.7
804.7933	310.0495	2627.75	1889.15
804.9363	312.2568	2590	1850.8
805.0793	314.4635	2547.9	1807.1
805.2223	316.6696	2489.55	1745.4
805.3653	318.8752	2449.85	1694.7
805.5084	321.0802	2416.5	1670.05
805.6514	323.2847	2402.95	1654.25
805.7945	325.4887	2414.55	1662.95
805.9376	327.692	2447	1696.15
806.0807	329.8949	2493.75	1743.5
806.2238	332.0972	2522.45	1768.1
806.367	334.2989	2549.3	1792.8
806.5101	336.5001	2542.9	1789.5
806.6533	338.7007	2500.25	1743.15
806.7965	340.9008	2463.05	1708.3
806.9397	343.1003	2408.4	1648.8
807.0829	345.2992	2338.6	1579.2
807.2261	347.4976	2311	1550.55
807.3693	349.6955	2290.5	1527.7
807.5126	351.8927	2268.9	1501.9
807.6559	354.0895	2252.45	1475.05
807.7991	356.2856	2240.85	1471.2
807.9424	358.4812	2216.85	1450.35
808.0857	360.6763	2221.05	1447.6
808.2291	362.8707	2221.55	1447.65
808.3724	365.0646	2231.65	1455.1
808.5158	367.258	2240.55	1461.25
808.6591	369.4508	2265.35	1482.95
808.8025	371.643	2285.1	1504.8
808.9459	373.8346	2318.95	1536.6
809.0893	376.0257	2351.25	1565.6
809.2327	378.2162	2362.15	1582.25
809.3762	380.4062	2383.75	1602.65
809.5196	382.5956	2361.55	1580.55
809.6631	384.7844	2320.05	1545.25
809.8066	386.9726	2272.7	1497.75
809.9501	389.1603	2237.55	1466.4
810.0936	391.3474	2255.4	1447.1
810.2371	393.5339	2237.9	1459.7
810.3806	395.7199	2230.85	1451.4
810.5241	397.9052	2272.15	1494.6
810.6677	400.09	2307.1	1527.3
810.8113	402.2743	2355.4	1577.05
810.9548	404.4579	2400.4	1619.8
811.0984	406.641	2439.7	1656.3
811.2421	408.8235	2497.85	1713.85
811.3857	411.0054	2532.2	1743.8
811.5293	413.1868	2593.25	1801.55
811.673	415.3675	2655.8	1863.65
811.8166	417.5477	2654.5	1863.25
811.9603	419.7273	2583.05	1786.25
812.104	421.9064	2507.75	1703.1
812.2477	424.0848	2443.45	1647.3
812.3914	426.2627	2371.35	1574.8
812.5351	428.4399	2310.05	1511.3
812.6788	430.6166	2250.15	1449.55
812.8226	432.7928	2217.35	1415.45
812.9663	434.9683	2174.8	1373.3
813.1101	437.1432	2156.2	1352
813.2539	439.3176	2132.35	1333.85
813.3977	441.4914	2110.9	1311.15
813.5415	443.6645	2112.55	1311.6
813.6853	445.8371	2105.5	1300.1
813.8291	448.0091	2105.6	1301.8
813.973	450.1806	2113.55	1309
814.1168	452.3514	2110.3	1303.45
814.2607	454.5216	2111.35	1295.75
814.4046	456.6913	2106.15	1299.95
814.5485	458.8603	2106.1	1298.2
814.6924	461.0288	2114.3	1309.25
814.8363	463.1967	2109.4	1306.4
814.9802	465.3639	2102.75	1295.2
815.1241	467.5306	2101.95	1294.4
815.2681	469.6967	2099.15	1291.35
815.412	471.8622	2091.95	1285.1
815.556	474.0271	2082.2	1276.1
815.7	476.1914	2080.15	1268.35
815.844	478.3551	2082.35	1270.6
815.988	480.5182	2078.1	1267.4
816.132	482.6807	2081.4	1272.9
816.276	484.8426	2108.9	1303.55
816.4201	487.0039	2143.2	1332.2
816.5641	489.1647	2198.25	1385.25
816.7082	491.3248	2253.1	1439.55
816.8522	493.4843	2276.1	1463.2
816.9963	495.6432	2266.1	1452.05
817.1404	497.8015	2234.8	1416.9
817.2845	499.9592	2190.3	1370.4
817.4286	502.1163	2133.55	1315.7
817.5727	504.2728	2090.6	1272.75
817.7168	506.4287	2068.3	1256
817.861	508.5839	2046.8	1232
818.0051	510.7386	2042	1224.35
818.1493	512.8927	2044.55	1214.8
818.2935	515.0461	2051.5	1232.65
818.4377	517.199	2076.2	1253.55
818.5818	519.3512	2119.65	1296.45
818.726	521.5029	2201.6	1374.3
818.8703	523.6539	2247.9	1425.05
819.0145	525.8043	2258	1431.85
819.1587	527.9541	2196	1367.45
819.303	530.1033	2119.85	1294.55
819.4472	532.2519	2089.05	1261.35
819.5915	534.3999	2047.15	1221.25
819.7357	536.5472	2045.25	1215.75
819.88	538.694	2053.3	1227.8
820.0243	540.8401	2067.7	1237.9
820.1686	542.9856	2084.2	1253.5
820.3129	545.1305	2105.95	1271.7
820.4572	547.2748	2105.1	1269
820.6016	549.4185	2114.65	1278
820.7459	551.5615	2132.75	1296.8
820.8902	553.704	2147.9	1312.35
821.0346	555.8458	2165.5	1333.35
821.1789	557.987	2187.05	1354.35
821.3233	560.1276	2215.2	1381.85
821.4677	562.2675	2279.55	1446
821.6121	564.4069	2354.3	1519.6
821.7565	566.5456	2364.5	1532.65
821.9009	568.6837	2361.7	1529.4
822.0453	570.8212	2287.2	1454.85
822.1897	572.958	2208.05	1372.7
822.3342	575.0942	2148.6	1319.45
822.4786	577.2299	2110.55	1278.95
822.6231	579.3648	2081.3	1253.3
822.7675	581.4992	2063.15	1238.2
822.912	583.6329	2076.5	1251
823.0565	585.766	2122.35	1293.5
823.201	587.8985	2163	1332.9
823.3454	590.0304	2226.35	1380.45
823.4899	592.1616	2243.05	1405.8
823.6345	594.2922	2229.85	1389.95
823.779	596.4222	2189	1351.1
823.9235	598.5515	2122	1281.7
824.068	600.6802	2078.4	1236.1
824.2126	602.8083	2044.95	1207.35
824.3571	604.9358	2026.75	1183.5
824.5017	607.0626	2019.5	1176.95
824.6462	609.1888	2043.55	1199.3
824.7908	611.3144	2052.55	1207.25
824.9354	613.4393	2102.7	1256.6
825.08	615.5636	2160.75	1318.55
825.2246	617.6873	2206.05	1362.6
825.3692	619.8103	2242.4	1396.7
825.5138	621.9327	2240.25	1392.3
825.6584	624.0544	2182.85	1339.35
825.803	626.1756	2121.45	1274.45
825.9477	628.2961	2083.05	1235.4
826.0923	630.4159	2069.95	1223.05
826.237	632.5351	2062.2	1215.7
826.3816	634.6537	2050.6	1202.7
826.5263	636.7716	2029.75	1180.4
826.6709	638.8889	2028.35	1177.85
826.8156	641.0056	2032.75	1181.55
826.9603	643.1216	2047	1196.9
827.105	645.237	2045.95	1195.3
827.2497	647.3518	2023.85	1176.65
827.3944	649.4659	1999.4	1151.7
827.5391	651.5793	1973.75	1126.7
827.6838	653.6922	1974.25	1126.65
827.8285	655.8043	1948.5	1103.45
827.9733	657.9159	1949.95	1101.8
828.118	660.0268	1932.35	1080.4
828.2627	662.137	1941.1	1091.1
828.4075	664.2466	1940.5	1087.8
828.5522	666.3556	1933.5	1082.2
828.697	668.4639	1930	1075.5
828.8418	670.5716	1924.95	1073.6
828.9865	672.6786	1919.6	1065.2
829.1313	674.785	1912.9	1056.1
829.2761	676.8907	1911	1056.65
829.4209	678.9958	1907.15	1057.35
829.5657	681.1002	1905.95	1048.65
829.7105	683.204	1915.8	1055.7
829.8553	685.3072	1893.4	1036.15
830.0001	687.4097	1899.8	1043.5
830.1449	689.5115	1898.3	1042
830.2898	691.6127	1896.05	1041.55
830.4346	693.7132	1898.65	1041.95
830.5794	695.8131	1917.55	1038.7
830.7243	697.9123	1905.5	1042.85
830.8691	700.0109	1907.6	1047.7
831.014	702.1089	1914.85	1057.55
831.1588	704.2061	1931.3	1075.3
831.3037	706.3028	1966.4	1105.35
831.4486	708.3987	1973.65	1111.75
831.5935	710.4941	1993	1132.05
831.7383	712.5887	2004.55	1142.5
831.8832	714.6827	1995.15	1132.6
832.0281	716.7761	1994.05	1133.05
832.173	718.8688	1993.2	1131.7
832.3179	720.9608	2000.25	1132.15
832.4628	723.0522	2006.95	1140.5
832.6077	725.1429	2024.6	1161.65
832.7527	727.233	2071.95	1211.3
832.8976	729.3224	2139.45	1276.1
833.0425	731.4112	2181.4	1316.9
833.1874	733.4993	2198.55	1331.85
833.3324	735.5867	2148.55	1287.25
833.4773	737.6735	2070.2	1204.35
833.6222	739.7596	2006.65	1139.9
833.7672	741.845	1983.8	1119.3
833.9122	743.9298	1982	1116.7
834.0571	746.014	1982.65	1119.2
834.2021	748.0974	1997.8	1131.6
834.347	750.1802	1983.2	1115.35
834.492	752.2624	1987.95	1123.75
834.637	754.3439	1984.35	1116
834.782	756.4247	1972.7	1097
834.9269	758.5048	1976.8	1110.7
835.0719	760.5843	2001	1133.45
835.2169	762.6631	2032.3	1166.9
835.3619	764.7413	2090.95	1224.05
835.5069	766.8188	2189.05	1319.05
835.6519	768.8956	2255.35	1388.8
835.7969	770.9718	2320.95	1453.2
835.9419	773.0473	2311.9	1443.5
836.0869	775.1221	2287.1	1417.65
836.232	777.1962	2274	1404.8
836.377	779.2697	2337.55	1468.5
836.522	781.3426	2453.6	1567.9
836.667	783.4147	2489.7	1618.35
836.8121	785.4862	2481.4	1612.65
836.9571	787.557	2395.3	1524.05
837.1021	789.6271	2246.65	1374.75
837.2472	791.6966	2117.25	1247.1
837.3922	793.7654	2022.15	1149.55
837.5373	795.8335	1966.7	1096.15
837.6823	797.901	1945.55	1075.35
837.8274	799.9678	1931.7	1056.55
837.9724	802.0339	1926.75	1054.95
838.1175	804.0993	1928.35	1045.85
838.2626	806.1641	1922.05	1050.7
838.4076	808.2282	1898.45	1028.7
838.5527	810.2916	1884.8	1008.95
838.6978	812.3544	1861.25	990.5
838.8428	814.4164	1849.25	977.75
838.9879	816.4778	1859.4	986.15
839.133	818.5385	1881.35	1009.55
839.2781	820.5986	1909.95	1037.1
839.4232	822.658	1975.5	1100
839.5682	824.7166	2040.15	1167.75
839.7133	826.7747	2138.6	1265.9
839.8584	828.832	2218.85	1344.4
840.0035	830.8886	2288.05	1413.55
840.1486	832.9446	2304.65	1427.1
840.2937	834.9999	2248.75	1374.6
840.4388	837.0545	2176.15	1297.7
840.5839	839.1085	2095.5	1219.15
840.729	841.1618	2022.15	1142.4
840.8741	843.2143	1967.6	1093.95
841.0192	845.2662	1927.7	1053.45
841.1643	847.3175	1914.7	1040.55
841.3095	849.368	1905.25	1026.4
841.4546	851.4179	1896.05	1020.95
841.5997	853.467	1898.95	1020.15
841.7448	855.5155	1899.35	1023.45
841.8899	857.5633	1909.1	1029.6
842.0351	859.6105	1904.1	1026.55
842.1802	861.6569	1887.3	1009.7
842.3253	863.7027	1869.25	987.35
842.4704	865.7478	1856.6	976.75
842.6156	867.7922	1852.6	974.6
842.7607	869.8359	1853.8	972.95
842.9058	871.8789	1838.95	961.55
843.0509	873.9212	1875.6	963.7
843.1961	875.9629	1858.25	980.2
843.3412	878.0039	1870	989.95
843.4863	880.0441	1877.2	1002.3
843.6315	882.0837	1893.25	1014.1
843.7766	884.1226	1940.35	1059.75
843.9218	886.1609	1966.65	1088.4
844.0669	888.1984	2021.1	1147.05
844.212	890.2352	2058.2	1180.4
844.3572	892.2714	2082.35	1198.2
844.5023	894.3069	2041.35	1159
844.6475	896.3416	1990.75	1109.8
844.7926	898.3757	1938.6	1058.3
844.9377	900.4091	1923.3	1039.7
845.0829	902.4418	1946.9	1059.65
845.228	904.4739	1948.65	1064.95
845.3732	906.5052	1966.9	1086.15
845.5183	908.5358	1955.55	1072.4
845.6635	910.5658	1921	1037.2
845.8086	912.595	1889.7	1007.55
845.9538	914.6236	1850.25	970.25
846.0989	916.6515	1823.8	940.7
846.2441	918.6786	1809.7	924.95
846.3892	920.7051	1797.75	911.9
846.5344	922.7309	1789.8	907.65
846.6795	924.756	1799.05	915.3
846.8246	926.7804	1804.2	919.7
846.9698	928.8041	1814.85	932.15
847.1149	930.8272	1837.6	955.45
847.2601	932.8495	1836.3	952.25
847.4052	934.8711	1859	976.25
847.5504	936.892	1863.05	978.05
847.6955	938.9123	1878.5	993.9
847.8407	940.9318	1900.55	1017.05
847.9858	942.9506	1919.25	1034.55
848.131	944.9688	1910.45	1026.8
848.2761	946.9862	1891.35	1008
848.4213	949.003	1848.35	962.9
848.5664	951.019	1826.6	940.95
848.7115	953.0344	1805.1	921.25
848.8567	955.0491	1790.95	906.2
849.0018	957.063	1788.55	906.65
849.147	959.0763	1788.05	902.9
849.2921	961.0888	1787.55	902.55
849.4373	963.1007	1781.6	899.65
849.5824	965.1119	1771.75	891.6
849.7275	967.1223	1765.65	886
849.8727	969.1321	1752.15	873.75
850.0178	971.1412	1767	885.8
850.1629	973.1495	1753.85	869.6
850.3081	975.1572	1792.45	876.1
850.4532	977.1641	1767.6	883.25
850.5983	979.1704	1762.3	878.8
850.7435	981.1759	1749.2	860.7
850.8886	983.1808	1756.8	868.7
851.0337	985.1849	1756.65	860.3
851.1788	987.1884	1734.05	846.25
851.324	989.1911	1748.4	860.35
851.4691	991.1932	1754.65	866.75
851.6142	993.1945	1759.4	876.05
851.7593	995.1951	1751.45	868
851.9045	997.1951	1749.3	858.65
852.0496	999.1943	1750.5	864.9
852.1947	1001.1928	1752.45	864.1
852.3398	1003.1906	1763.8	877.25
852.4849	1005.1877	1795.3	907.95
852.63	1007.1841	1809.65	921.95
852.7751	1009.1798	1819.1	931.1
852.9202	1011.1748	1808.35	923
853.0653	1013.1691	1782.8	895.75
853.2104	1015.1627	1756.5	870.75
853.3555	1017.1556	1716.55	829.8
853.5006	1019.1477	1696.55	811.95
853.6457	1021.1392	1687	803.45
853.7908	1023.1299	1679.6	793.95
853.9359	1025.12	1688.45	803.55
854.081	1027.1093	1686.75	808.75
854.2261	1029.0979	1698.8	820.95
854.3712	1031.0859	1720.9	843.75
854.5163	1033.0731	1739.5	856
854.6613	1035.0596	1737.35	854.85
854.8064	1037.0454	1727.6	842.05
854.9515	1039.0304	1728.25	837.65
855.0965	1041.0148	1701.05	814.2
855.2416	1042.9985	1678.7	788.65
855.3867	1044.9814	1668.35	781.55
855.5317	1046.9636	1667.45	781.7
855.6768	1048.9452	1676	791.8
855.8219	1050.926	1695.75	812.7
855.9669	1052.9061	1711.6	821.75
856.112	1054.8855	1718.55	829.4
856.257	1056.8642	1713.5	825.7
856.4021	1058.8421	1711.15	821.85
856.5471	1060.8194	1701	811.55
856.6921	1062.7959	1699.75	813.95
856.8372	1064.7717	1703.4	812.8
856.9822	1066.7469	1709.15	821.55
857.1272	1068.7213	1713.6	822.4
857.2723	1070.695	1729.05	842.35
857.4173	1072.6679	1741.55	855.1
857.5623	1074.6402	1765.75	876.25
857.7073	1076.6117	1773.45	878.1
857.8523	1078.5826	1743.95	855.75
857.9973	1080.5527	1716.6	824.7
858.1423	1082.5221	1679.65	790.8
858.2873	1084.4908	1658.25	769.7
858.4323	1086.4587	1645.35	756.45
858.5773	1088.426	1635	743.5
858.7223	1090.3925	1633.85	741.55
858.8673	1092.3584	1640.9	752.1
859.0123	1094.3235	1654.3	767.05
859.1573	1096.2879	1666.25	776.65
859.3022	1098.2515	1694.95	804.75
859.4472	1100.2145	1718.05	827.25
859.5922	1102.1767	1759.15	868.8
859.7371	1104.1382	1802.05	910.55
859.8821	1106.099	1854.1	963.4
860.027	1108.0591	1908.05	1021.45
860.172	1110.0185	1942.75	1052
860.3169	1111.9771	1980.95	1090.85
860.4619	1113.9351	2030.3	1142.25
860.6068	1115.8923	2097.5	1208.6
860.7517	1117.8488	2122.1	1230.35
860.8967	1119.8045	2053.1	1162.7
861.0416	1121.7596	1958.15	1067.1
861.1865	1123.7139	1856.7	970.6
861.3314	1125.6675	1809.55	923.45
861.4763	1127.6204	1817.1	928.1
861.6212	1129.5726	1827.45	935.25
861.7661	1131.524	1834.75	944.95
861.911	1133.4748	1778.5	889.05
862.0559	1135.4248	1723.9	833.55
862.2008	1137.3741	1682.65	791.6
862.3457	1139.3226	1649.6	758.75
862.4905	1141.2705	1649.9	759.9
862.6354	1143.2176	1668.1	772.15
862.7803	1145.164	1681.45	789.3
862.9251	1147.1097	1668.15	776.7
863.07	1149.0546	1636.95	746.8
863.2148	1150.9989	1618	729.05
863.3597	1152.9424	1599.95	709.3
863.5045	1154.8852	1584.4	693.8
863.6493	1156.8272	1582	693.75
863.7942	1158.7686	1586.7	687.5
863.939	1160.7092	1582.15	690.65
864.0838	1162.6491	1595.25	701.35
864.2286	1164.5883	1606.35	715
864.3734	1166.5267	1623.95	731.85
864.5182	1168.4644	1644.55	752.25
864.663	1170.4014	1679.05	784
864.8078	1172.3377	1717.25	828.35
864.9526	1174.2732	1779.2	892.2
865.0974	1176.2081	1867.55	978
865.2421	1178.1421	1989.95	1095.9
865.3869	1180.0755	2114.7	1224.05
865.5317	1182.0082	2163.55	1273.4
865.6764	1183.9401	2142.75	1251.15
865.8212	1185.8713	2024.95	1135.4
865.9659	1187.8017	1898.8	1013.8
866.1106	1189.7315	1798.65	913.55
866.2554	1191.6605	1745.45	833.5
866.4001	1193.5888	1675.95	790.55
866.5448	1195.5163	1647.85	761.55
866.6895	1197.4432	1630.05	739.2
866.8342	1199.3693	1610.9	721.7
866.9789	1201.2947	1603.9	713.35
867.1236	1203.2193	1599.95	708.25
867.2683	1205.1432	1590.45	698.95
867.413	1207.0664	1584	694.8
867.5576	1208.9889	1594.15	702.45
867.7023	1210.9106	1592.1	699.9
867.847	1212.8316	1599.6	709.1
867.9916	1214.7519	1616	715.1
868.1363	1216.6715	1623.35	732
868.2809	1218.5903	1632.4	742.3
868.4255	1220.5084	1652.95	761.2
868.5701	1222.4257	1672.45	783.45
868.7148	1224.3424	1680.05	791.15
868.8594	1226.2583	1712.55	816.6
869.004	1228.1735	1729.65	839.45
869.1486	1230.0879	1767.95	875.75
869.2932	1232.0016	1818.65	927.45
869.4377	1233.9146	1849.75	958.45
869.5823	1235.8269	1868.2	977.85
869.7269	1237.7384	1864.95	973.1
869.8715	1239.6492	1872.65	981.3
870.016	1241.5592	1905.75	1015.05
870.1606	1243.4686	1950.8	1062.65
870.3051	1245.3772	2024.2	1132.05
870.4496	1247.285	2111.15	1219.75
870.5941	1249.1922	2195.4	1304.6
870.7387	1251.0986	2276.45	1384.5
870.8832	1253.0042	2341.8	1452.8
871.0277	1254.9092	2433.35	1542.05
871.1722	1256.8134	2501.75	1612.6
871.3167	1258.7169	2581.05	1689.8
871.4611	1260.6196	2600.15	1709.1
871.6056	1262.5216	2612.5	1720.7
871.7501	1264.4229	2577.35	1688.4
871.8945	1266.3234	2546.25	1654.7
872.039	1268.2232	2500.9	1607.05
872.1834	1270.1223	2449.85	1556.85
872.3278	1272.0207	2411	1518.4
872.4723	1273.9183	2406.9	1508.95
872.6167	1275.8151	2403.95	1513.95
872.7611	1277.7113	2456.3	1562.25
872.9055	1279.6067	2551.25	1662.75
873.0499	1281.5014	2697.8	1805.65
873.1943	1283.3953	2866.35	1970.9
873.3386	1285.2885	3044.65	2153.55
873.483	1287.181	3165.8	2273.1
873.6274	1289.0727	3206.7	2316.5
873.7717	1290.9637	3162.7	2271.2
873.9161	1292.854	3072.85	2181.45
874.0604	1294.7435	2974.3	2082.9
874.2047	1296.6323	2858.4	1968.1
874.349	1298.5204	2783.4	1888.85
874.4933	1300.4077	2708.15	1814.35
874.6376	1302.2943	2651.3	1759.3
874.7819	1304.1802	2633.65	1743.05
874.9262	1306.0653	2580.75	1689.3
875.0705	1307.9497	2547.3	1653.8
875.2147	1309.8333	2512.4	1623.65
875.359	1311.7162	2474.2	1581.3
875.5032	1313.5984	2436.85	1542.5
875.6475	1315.4798	2412.65	1509.4
875.7917	1317.3605	2407.75	1510.6
875.9359	1319.2405	2395.8	1503.5
876.0801	1321.1197	2367.35	1473.25
876.2243	1322.9982	2315.15	1419.25
876.3685	1324.876	2228.8	1338.25
876.5127	1326.753	2139.55	1247
876.6569	1328.6293	2049.1	1154.8
876.801	1330.5048	1961.95	1066.05
876.9452	1332.3796	1893.35	1001.85
877.0893	1334.2537	1868.3	950.75
877.2335	1336.127	1807	915.25
877.3776	1337.9996	1774.35	884.7
877.5217	1339.8714	1759.45	869.9
877.6658	1341.7426	1789	853.65
877.8099	1343.6129	1731	840.65
877.954	1345.4826	1722.25	826.25
878.0981	1347.3515	1711.25	815.75
878.2422	1349.2196	1696.4	802.35
878.3862	1351.087	1677.4	782.35
878.5303	1352.9537	1690.8	797.75
878.6743	1354.8197	1696.6	804.35
878.8184	1356.6849	1691.3	799.35
878.9624	1358.5493	1719.25	826.6
879.1064	1360.4131	1735.3	841.85
879.2504	1362.276	1774.05	880.4
879.3944	1364.1383	1817.95	925.2
879.5384	1365.9998	1829	932.75
879.6823	1367.8606	1812.1	919.65
879.8263	1369.7206	1803.35	910
879.9702	1371.5799	1795.75	899.8
880.1142	1373.4384	1781.55	886.9
880.2581	1375.2962	1755.85	861.9
880.402	1377.1533	1700.6	811.15
880.5459	1379.0096	1652.3	757.5
880.6898	1380.8652	1625.75	734.35
880.8337	1382.7201	1587.2	694.65
880.9776	1384.5742	1574.9	683.9
881.1215	1386.4275	1555.4	662.85
881.2653	1388.2802	1527.4	636.75
881.4092	1390.132	1522.85	631.8
881.553	1391.9832	1510.55	616.45
881.6968	1393.8336	1501	607
881.8406	1395.6832	1497.2	601.9
881.9844	1397.5322	1486.3	594.45
882.1282	1399.3803	1488.9	590.2
882.272	1401.2278	1472.45	581.4
882.4158	1403.0745	1466.45	574.2
882.5595	1404.9204	1453.65	564
882.7033	1406.7656	1455.2	561.2
882.847	1408.6101	1447.8	553.65
882.9908	1410.4538	1451.35	558.65
883.1345	1412.2968	1442.45	550.95
883.2782	1414.139	1445.4	553.15
883.4219	1415.9805	1462.6	568.95
883.5656	1417.8213	1474	573.7
883.7092	1419.6613	1481.3	590.95
883.8529	1421.5006	1517.45	625
883.9965	1423.3391	1550.2	657.85
884.1402	1425.1769	1601.15	707.65
884.2838	1427.0139	1678.75	785.85
884.4274	1428.8502	1761.2	865.8
884.571	1430.6858	1833.65	939.95
884.7146	1432.5206	1854.45	963.05
884.8582	1434.3547	1848	953.85
885.0018	1436.188	1825.45	932.2
885.1453	1438.0206	1806.3	913.2
885.2889	1439.8524	1800.3	907.3
885.4324	1441.6835	1806.15	915.3
885.5759	1443.5139	1795.15	900.3
885.7194	1445.3435	1792.9	900.5
885.8629	1447.1724	1806.25	914.9
886.0064	1449.0005	1804.05	911.75
886.1499	1450.8279	1790.05	900.3
886.2933	1452.6545	1785.5	894.65
886.4368	1454.4804	1793.6	903.55
886.5802	1456.3056	1783.75	886.3
886.7237	1458.13	1762.05	872.8
886.8671	1459.9536	1741.1	850.6
887.0105	1461.7766	1694.75	803.05
887.1539	1463.5987	1656.5	763.45
887.2972	1465.4202	1624.35	734.55
887.4406	1467.2409	1592.65	700.8
887.584	1469.0608	1548	655.9
887.7273	1470.88	1524.3	629.95
887.8706	1472.6984	1496.9	603.6
888.0139	1474.5161	1474.6	580.8
888.1572	1476.3331	1460	567.35
888.3005	1478.1493	1452.55	559.6
888.4438	1479.9648	1447.7	556
888.5871	1481.7795	1454.95	563.4
888.7303	1483.5935	1451.7	558.25
888.8736	1485.4067	1451.2	561.85
889.0168	1487.2192	1446.5	554.15
889.16	1489.031	1449.55	554.8
889.3032	1490.842	1444.1	552
889.4464	1492.6522	1440.7	550.7
889.5896	1494.4618	1443.2	548.6
889.7327	1496.2705	1435	543
889.8759	1498.0785	1436.4	544.35
890.019	1499.8858	1423.35	532.2
890.1622	1501.6924	1417.9	525.75
890.3053	1503.4981	1414	520.65
890.4484	1505.3032	1405.1	511.8
890.5914	1507.1075	1399.85	507.45
890.7345	1508.911	1395.85	503.35
890.8776	1510.7138	1387.25	495.75
891.0206	1512.5159	1382.7	491.65
891.1637	1514.3172	1367	475.4
891.3067	1516.1178	1368.95	478.2
891.4497	1517.9176	1371.9	474.6
891.5927	1519.7166	1363.85	472.25
891.7357	1521.515	1358	459.55
891.8786	1523.3126	1354	461.55
892.0216	1525.1094	1349.1	456.65
892.1645	1526.9055	1344.75	452.05
892.3074	1528.7008	1334.85	442.8
892.4503	1530.4954	1338.85	439.8
892.5932	1532.2893	1336.6	446.4
892.7361	1534.0824	1339.6	445.7
892.879	1535.8747	1330.65	440.35
893.0218	1537.6663	1329.75	436.75
893.1647	1539.4572	1331	440.9
893.3075	1541.2473	1331.8	438.85
893.4503	1543.0367	1331.3	441.05
893.5931	1544.8253	1338.25	442
893.7359	1546.6132	1341.3	449.45
893.8787	1548.4003	1349.75	449.45
894.0214	1550.1867	1364.5	465.7
894.1642	1551.9723	1365.8	472.45
894.3069	1553.7572	1378.6	486.05
894.4496	1555.5414	1394.15	504.15
894.5923	1557.3247	1423.45	532.6
894.735	1559.1074	1451.55	561.8
894.8777	1560.8893	1491.8	602.3
895.0204	1562.6705	1529.6	639.4
895.163	1564.4509	1541.4	653
895.3056	1566.2305	1559.1	672.65
895.4482	1568.0094	1564.2	675.35
895.5908	1569.7876	1555.05	665.8
895.7334	1571.565	1557.85	667.15
895.876	1573.3417	1554.95	665.5
896.0186	1575.1176	1558.3	671.45
896.1611	1576.8928	1573.85	685.15
896.3036	1578.6672	1591.35	704.2
896.4461	1580.4409	1623.9	739.4
896.5886	1582.2138	1641.9	753.95
896.7311	1583.986	1677.45	787.4
896.8736	1585.7575	1724.5	836.45
897.0161	1587.5282	1741.9	856.1
897.1585	1589.2981	1770.4	883.75
897.3009	1591.0673	1790.3	902.7
897.4433	1592.8358	1798.95	911.1
897.5857	1594.6035	1799.3	909.85
897.7281	1596.3704	1792.05	903.55
897.8705	1598.1366	1777.3	890
898.0128	1599.9021	1755.25	869.55
898.1551	1601.6668	1728.35	840.25
898.2975	1603.4308	1731.45	842.55
898.4398	1605.194	1733	840.55
898.5821	1606.9564	1759.65	873.15
898.7243	1608.7182	1812.7	924.65
898.8666	1610.4791	1885.3	1003.8
899.0088	1612.2394	1996.25	1112.55
899.1511	1613.9988	2081.05	1198.75
899.2933	1615.7576	2144.15	1257.25
899.4355	1617.5156	2173.65	1280
899.5776	1619.2728	2118.65	1230.4
899.7198	1621.0293	2021.45	1135.1
899.862	1622.785	1924.75	1034
900.0041	1624.54	1806.45	919.6
900.1462	1626.2942	1699.3	813.7
900.2883	1628.0477	1609.05	722.95
900.4304	1629.8005	1539.85	648.95
900.5725	1631.5525	1472.85	586.95
900.7145	1633.3037	1431.9	545.55
900.8566	1635.0542	1388.35	503.05
900.9986	1636.804	1367.9	481.65
901.1406	1638.553	1423	448.85
901.2826	1640.3013	1317.65	430.9
901.4245	1642.0488	1300.65	414.25
901.5665	1643.7955	1285.4	402.8
901.7085	1645.5416	1272.45	387.3
901.8504	1647.2868	1262.3	375.75
901.9923	1649.0313	1260.65	373.4
902.1342	1650.7751	1259.45	367.7
902.2761	1652.5181	1251.95	368.55
902.4179	1654.2604	1257.15	372.9
902.5598	1656.0019	1262.1	378.2
902.7016	1657.7427	1272.9	387.9
902.8434	1659.4828	1293.85	408.3
902.9852	1661.222	1321.4	432.95
903.127	1662.9606	1350.2	465.75
903.2687	1664.6984	1375.1	486.85
903.4105	1666.4354	1376.85	488.8
903.5522	1668.1717	1354.4	467.15
903.6939	1669.9072	1308.85	421.6
903.8356	1671.642	1272.25	381.85
903.9773	1673.3761	1229.3	342.5
904.119	1675.1094	1213.05	326.8
904.2606	1676.8419	1197.95	311.9
904.4022	1678.5737	1178.25	290.2
904.5439	1680.3048	1175.55	288.3
904.6855	1682.0351	1167.4	280.7
904.827	1683.7646	1161.2	270.5
904.9686	1685.4934	1155.1	268.2
905.1101	1687.2215	1148.85	261.45
905.2517	1688.9488	1147	259.25
905.3932	1690.6754	1146.25	260.35
905.5347	1692.4012	1141.15	255.15
905.6761	1694.1263	1140	252.8
905.8176	1695.8506	1137.2	250.7
905.9591	1697.5742	1129.2	243.65
906.1005	1699.297	1134.4	247.15
906.2419	1701.0191	1128.05	243.05
906.3833	1702.7404	1132.3	245.1
906.5246	1704.461	1127.35	240.25
906.666	1706.1808	1126.7	242.1
906.8073	1707.8999	1119.7	234.3
906.9487	1709.6182	1115.85	230.35
907.09	1711.3358	1114.4	228.4
907.2313	1713.0527	1112.95	229.15
907.3725	1714.7688	1123	232.15
907.5138	1716.4841	1116.85	229.95
907.655	1718.1987	1116.75	227.6
907.7962	1719.9126	1112.65	229.7
907.9374	1721.6257	1112.45	224.35
908.0786	1723.338	1110.8	227.05
908.2198	1725.0496	1103.95	219.9
908.3609	1726.7605	1107.75	218.1
908.502	1728.4706	1105.45	218.95
908.6431	1730.18	1106	220.6
908.7842	1731.8886	1100.9	216.7
908.9253	1733.5964	1125.35	220.4
909.0664	1735.3036	1109.15	220.6
909.2074	1737.0099	1100.95	218.15
909.3484	1738.7156	1099.2	215.3
909.4894	1740.4204	1104.2	216.7
909.6304	1742.1246	1099.25	212.25
909.7714	1743.8279	1100.65	214.65
909.9123	1745.5306	1097.55	212.95
910.0532	1747.2325	1095.95	211.3
910.1941	1748.9336	1097.15	214.3
910.335	1750.634	1097.7	210.35
910.4759	1752.3336	1098.1	212.15
910.6168	1754.0325	1092.45	208.2
910.7576	1755.7307	1092.35	210.6
910.8984	1757.4281	1090.25	205.9
911.0392	1759.1247	1100.25	207.5
911.18	1760.8206	1097.25	205.45
911.3208	1762.5158	1101.55	213.5
911.4615	1764.2102	1090.2	205.4
911.6022	1765.9039	1093.15	207.65
911.7429	1767.5968	1091.5	210.25
911.8836	1769.289	1094.05	207.2
912.0243	1770.9804	1089.2	204.35
912.1649	1772.6711	1091.65	205.7
912.3056	1774.361	1090.4	203.2
912.4462	1776.0502	1084	197.5
912.5868	1777.7386	1089.15	201
912.7274	1779.4263	1091.3	205.9
912.8679	1781.1132	1085.5	202.1
913.0084	1782.7994	1087.35	201.75
913.149	1784.4849	1079.75	198.25
913.2895	1786.1696	1102.85	200.65
913.4299	1787.8535	1080.1	198.75
913.5704	1789.5367	1079.15	194.15
913.7108	1791.2192	1083.45	200.6
913.8513	1792.9009	1108.5	200.35
913.9917	1794.5818	1085.1	198.5
914.132	1796.2621	1078.45	195.45
914.2724	1797.9415	1083.45	198.7
914.4128	1799.6202	1082.1	195.1
914.5531	1801.2982	1078.75	192.85
914.6934	1802.9755	1081.3	194.2
914.8337	1804.6519	1079.55	193.35
914.9739	1806.3277	1076.45	194.25
915.1142	1808.0027	1070.15	187.7
915.2544	1809.6769	1076.1	193.2
915.3946	1811.3504	1073.65	191.05
915.5348	1813.0231	1073.35	190.1
915.675	1814.6951	1071.8	190.55
915.8151	1816.3664	1075.75	189.05
915.9553	1818.0369	1075.6	192.35
916.0954	1819.7067	1070.95	187.75
916.2355	1821.3757	1070.65	181.55
916.3755	1823.044	1073.45	188.9
916.5156	1824.7115	1071.3	185.7
916.6556	1826.3783	1066.85	184.55
916.7956	1828.0443	1064.75	180.05
916.9356	1829.7096	1064.35	177.5
917.0756	1831.3741	1071.9	181.65
917.2155	1833.0379	1064.9	181.85
917.3555	1834.701	1069.85	185.3
917.4954	1836.3633	1064.35	181.5
917.6353	1838.0248	1065.15	179.3
917.7751	1839.6856	1065.15	181.55
917.915	1841.3457	1071.35	187.85
918.0548	1843.005	1065.25	179.9
918.1946	1844.6636	1065	181.55
918.3344	1846.3214	1064.15	179.9
918.4742	1847.9785	1062	178.9
918.6139	1849.6349	1066.85	180.4
918.7537	1851.2904	1076.95	182.55
918.8934	1852.9453	1063.35	177.8
919.0331	1854.5994	1061.3	173.1
919.1727	1856.2528	1063.85	174.4
919.3124	1857.9054	1062.2	177.15
919.452	1859.5572	1057.1	175.1
919.5916	1861.2083	1058.65	173.2
919.7312	1862.8587	1056.95	172.7
919.8708	1864.5084	1060.15	174.05
920.0103	1866.1572	1058.25	173
920.1498	1867.8054	1059.85	173.9
920.2893	1869.4528	1057.55	171.85
920.4288	1871.0994	1058.65	171.9
920.5683	1872.7453	1056.8	171.7
920.7077	1874.3905	1063.25	170.75
920.8471	1876.0349	1059.3	174
920.9865	1877.6786	1060.35	174.9
921.1259	1879.3215	1055.2	171.65
921.2653	1880.9637	1052.45	166.5
921.4046	1882.6051	1056.05	172.9
921.5439	1884.2458	1056.9	169.2
921.6832	1885.8858	1055.1	169.55
921.8225	1887.525	1054.4	169.1
921.9617	1889.1634	1052.45	166.05
922.101	1890.8011	1051.45	164.85
922.2402	1892.4381	1055.3	170.3
922.3794	1894.0743	1052.25	169.1
922.5185	1895.7098	1047.7	160.75
922.6577	1897.3446	1045.35	160.85
922.7968	1898.9786	1051.45	162.9
922.9359	1900.6118	1045.75	161.65
923.075	1902.2443	1047.05	161.75
923.214	1903.8761	1044.95	157.15
923.3531	1905.5071	1048	160.8
923.4921	1907.1374	1044.7	159.75
923.6311	1908.7669	1045.4	159.55
923.77	1910.3957	1045	162.65
923.909	1912.0237	1044.8	159.25
924.0479	1913.651	1044.45	159.55
924.1868	1915.2776	1045.6	161.8
924.3257	1916.9034	1040.9	156.85
924.4646	1918.5285	1038.9	155.95
924.6034	1920.1528	1038.8	152.4
924.7422	1921.7764	1043.85	158.75
924.881	1923.3992	1040.5	157.15
925.0198	1925.0213	1042.05	157
925.1586	1926.6427	1035.5	151.3
925.2973	1928.2633	1252.85	143.85
925.436	1929.8832	1046.05	157.7
925.5747	1931.5023	1043.5	159
925.7134	1933.1207	1040.3	155.45
925.852	1934.7383	1040.3	155.6
925.9906	1936.3552	1036.5	153.25
926.1292	1937.9714	1036	152.05
926.2678	1939.5868	1037.7	151.7
926.4064	1941.2015	1031.35	144.3
926.5449	1942.8154	1036.05	150.35
926.6834	1944.4286	1032.6	147
926.8219	1946.041	1060.6	153.15
926.9604	1947.6528	1040.35	150.3
927.0988	1949.2637	1031.8	148.2
927.2372	1950.8739	1035.8	150.35
927.3756	1952.4834	1034.6	151.7
927.514	1954.0921	1033.3	146.45
927.6523	1955.7001	1039.15	152.2
927.7907	1957.3074	1030.45	147.9
927.929	1958.9139	1029.95	147.7
928.0673	1960.5197	1028.65	144.3
928.2055	1962.1247	1028.45	148.05
928.3438	1963.729	1024.6	141.15
928.482	1965.3325	1030.95	141.35
928.6202	1966.9353	1026.1	144.3
928.7584	1968.5374	1026.15	141.1
928.8965	1970.1387	1027.35	145.9
929.0346	1971.7393	1025.85	141.35
929.1727	1973.3392	1024.2	142.35
929.3108	1974.9383	1021.95	140.1
929.4489	1976.5366	1023.4	142.35
929.5869	1978.1342	1026.55	142.5
929.7249	1979.7311	1022.85	141.35
929.8629	1981.3273	1021	136.15
930.0009	1982.9227	1020.7	138.95
930.1388	1984.5173	1023.6	143.75
930.2767	1986.1112	1015.9	134.8
930.4146	1987.7044	1016.2	137.55
930.5525	1989.2968	1025.1	141.55
930.6904	1990.8885	1020.3	136.4
930.8282	1992.4795	1022.65	141.1
930.966	1994.0697	1021.4	139.65
931.1038	1995.6592	1018.2	137.3
931.2415	1997.2479	1019.25	139.05
931.3793	1998.8359	1019.9	139.8
931.517	2000.4232	1022.15	144.05
931.6547	2002.0097	1020.6	144.15
931.7923	2003.5955	1020.65	141.35
931.93	2005.1805	1018.05	136.5
932.0676	2006.7648	1014.75	133.9
932.2052	2008.3484	1014.4	133.95
932.3427	2009.9312	1018.45	135.15
932.4803	2011.5133	1012.55	136.45
932.6178	2013.0946	1013.45	135.7
932.7553	2014.6752	1014.55	135.6
932.8928	2016.2551	1021.25	139.9
933.0302	2017.8342	1016	135.95
933.1676	2019.4126	1010.3	132.7
933.305	2020.9902	1010.7	133
933.4424	2022.5672	1011.4	132.4
933.5798	2024.1433	1017.65	132.55
933.7171	2025.7188	1010	132.2
933.8544	2027.2935	1016.4	136.6
933.9917	2028.8674	1009.15	131
934.129	2030.4406	1010.65	133.2
934.2662	2032.0131	1008.85	131.45
934.4034	2033.5849	1017.05	132.65
934.5406	2035.1559	1011.75	134.95
934.6778	2036.7261	1011.6	131.45
934.8149	2038.2957	1011.05	131.05
934.952	2039.8645	1007.5	128
935.0891	2041.4325	1015.1	131.85
935.2262	2042.9998	1010	131.25
935.3632	2044.5664	1011.35	130.25
935.5002	2046.1323	1008.7	130.5
935.6372	2047.6974	1014.05	134.85
935.7742	2049.2617	1006.15	128.4
935.9111	2050.8254	1015.9	132.55
936.048	2052.3883	1010.7	128
936.1849	2053.9504	1009.3	130.7
936.3218	2055.5118	1012.3	132.9
936.4586	2057.0725	1014.4	128.5
936.5955	2058.6325	1011.2	134
936.7323	2060.1917	1010.25	133.05
936.869	2061.7502	1007.15	125.4
937.0058	2063.3079	1010.5	133.55
937.1425	2064.8649	1010.85	128
937.2792	2066.4212	1010.1	131.75
937.4159	2067.9767	1009.35	131.75
937.5525	2069.5315	1009.65	131.5
937.6891	2071.0856	1008.8	130.4
937.8257	2072.6389	1007.5	127.75
937.9623	2074.1915	1004.2	128.4
938.0989	2075.7433	1005.05	126.35
938.2354	2077.2945	1007	129.15
938.3719	2078.8448	1007.95	128.8
938.5084	2080.3945	1009.3	127.3
938.6448	2081.9434	1012	131.55
938.7812	2083.4916	1009.3	127.75
938.9176	2085.039	1007.55	127.4
939.054	2086.5857	1005.8	124.2
939.1903	2088.1317	1009.55	127.3
939.3267	2089.677	1007.95	125.3
939.463	2091.2215	1004.65	122.5
939.5992	2092.7652	1010.55	124.35
939.7355	2094.3083	1006.85	125.65
939.8717	2095.8506	1005.25	124.7
940.0079	2097.3921	1002	121.45
940.1441	2098.933	1007.2	128.75
940.2802	2100.4731	1003.7	120.9
940.4163	2102.0124	1022.1	124.15
940.5524	2103.5511	1006.55	128.1
940.6885	2105.089	1005.85	123.9
940.8245	2106.6261	1011.65	134.3
940.9606	2108.1626	1007.4	126.85
941.0965	2109.6983	1032.7	123.4
941.2325	2111.2332	1006.75	124.3
941.3684	2112.7675	1006.75	125.55
941.5044	2114.301	1006.65	122.55
941.6403	2115.8337	1002.6	119.4
941.7761	2117.3657	1004	125.5
941.912	2118.897	1006.9	125.5
942.0478	2120.4276	1010.6	123.35
942.1835	2121.9575	1005.85	123.8
942.3193	2123.4866	1018.35	122.4
942.455	2125.0149	1007	123.8
942.5907	2126.5426	1004.05	125.4
942.7264	2128.0695	1006.95	123.3
942.8621	2129.5956	1000.55	122.65
942.9977	2131.1211	1001.85	116.85
943.1333	2132.6458	1002.15	123.3
943.2689	2134.1698	1003.05	122.55
943.4044	2135.693	1007	121.85
943.54	2137.2155	1006.1	123.1
943.6755	2138.7373	1006.7	127.3
943.8109	2140.2584	1001.35	121.3
943.9464	2141.7787	1004.65	122.5
944.0818	2143.2983	1000.4	123.95
944.2172	2144.8171	1000	122.9
944.3526	2146.3353	1001.5	121.75
944.4879	2147.8527	1000.2	122.25
944.6232	2149.3693	1006.85	126.95
944.7585	2150.8853	1000.4	118.85
944.8938	2152.4005	1005.05	124.5
945.029	2153.9149	1001.25	118.95
945.1642	2155.4287	1001.35	116.9
945.2994	2156.9417	1000.8	118.5
945.4346	2158.454	1004.1	121.4
945.5697	2159.9655	999.6	121.5
945.7048	2161.4764	999.45	120.95
945.8399	2162.9865	1002.15	121.8
945.9749	2164.4958	996.55	115.15
946.1099	2166.0045	999.9	118.35
946.2449	2167.5124	999.35	118.05
946.3799	2169.0195	997.3	118
946.5148	2170.526	1000.15	118.95
946.6498	2172.0317	997.5	115.95
946.7846	2173.5367	1000.45	120.35
946.9195	2175.0409	995.55	115.35
947.0543	2176.5445	997.35	118.75
947.1891	2178.0473	996.7	113.25
947.3239	2179.5494	999.9	113.3
947.4587	2181.0507	997.85	118.05
947.5934	2182.5513	993.65	112.6
947.7281	2184.0512	997.65	117.95
947.8628	2185.5504	996.3	115.7
947.9974	2187.0488	995.25	115.85
948.132	2188.5465	991.4	113.2
948.2666	2190.0435	998.15	116.7
948.4012	2191.5397	994.2	115.2
948.5357	2193.0353	997.95	117.55
948.6702	2194.5301	995.7	113.25
948.8047	2196.0241	997.15	114.1
948.9392	2197.5175	992.15	109.2
949.0736	2199.0101	1001.3	116.45
949.208	2200.502	991.6	111.1
949.3424	2201.9931	992.5	113.95
949.4767	2203.4835	994.5	114.95
949.611	2204.9733	1008	110.4
949.7453	2206.4622	990.75	114
949.8796	2207.9505	994.4	112.5
950.0138	2209.438	987.6	110.65
950.148	2210.9248	991.95	112.95
950.2822	2212.4109	991.15	112.25
950.4164	2213.8962	993.05	110.3
950.5505	2215.3809	993.2	110.85
950.6846	2216.8648	992.25	111
950.8186	2218.3479	999.25	113.7
950.9527	2219.8304	994.15	107.6
951.0867	2221.3121	994.25	109.95
951.2207	2222.7931	989.05	108.9
951.3546	2224.2733	987.85	106.95
951.4886	2225.7529	989.2	109.6
951.6225	2227.2317	989.65	106.45
951.7563	2228.7098	990.3	110.8
951.8902	2230.1872	985.9	106.35
952.024	2231.6638	987.95	108.8
952.1578	2233.1397	995.65	110.15
952.2916	2234.6149	985.05	106.5
952.4253	2236.0894	986.7	106
952.559	2237.5632	993.75	102.4
952.6927	2239.0362	988.5	110.45
952.8263	2240.5085	985.4	105.35
952.9599	2241.9801	985.05	104.4
953.0935	2243.4509	987.6	108.2
953.2271	2244.921	990.3	108.95
953.3606	2246.3904	990.9	108.15
953.4941	2247.8591	985.45	105.9
953.6276	2249.3271	984.55	103.65
953.7611	2250.7943	979.95	97.65
953.8945	2252.2608	987.85	107.3
954.0279	2253.7266	985.55	104.65
954.1612	2255.1917	982.05	101.1
954.2946	2256.656	982.4	101.65
954.4279	2258.1197	980.7	99.85
954.5612	2259.5826	982.8	102.3
954.6944	2261.0447	984.05	103.2
954.8276	2262.5062	985.45	105.55
954.9608	2263.9669	981.8	100.45
955.094	2265.4269	981.2	100
955.2271	2266.8862	980.35	100.8
955.3602	2268.3448	980.05	98.9
955.4933	2269.8026	978.65	99.95
955.6264	2271.2598	981.35	101.4
955.7594	2272.7162	979.8	100.05
955.8924	2274.1719	980.9	99.6
956.0253	2275.6268	982.55	101.05
956.1583	2277.0811	979.85	99.2
956.2912	2278.5346	981.05	103.3
956.4241	2279.9874	980.05	100.7
956.5569	2281.4395	977.65	99
956.6897	2282.8908	981.45	98.05
956.8225	2284.3414	982.2	100.25
956.9553	2285.7914	977.05	98.05
957.088	2287.2406	979.7	96.95
957.2207	2288.689	978.05	98.55
957.3534	2290.1368	976.95	92.2
957.486	2291.5838	982.55	99.4
957.6186	2293.0302	981.15	100.6
957.7512	2294.4758	981.3	99.05
957.8838	2295.9206	978.6	96.15
958.0163	2297.3648	979.35	98.5
958.1488	2298.8082	978.1	95.95
958.2813	2300.251	979.1	98.85
958.4137	2301.693	981.4	96.5
958.5461	2303.1343	978.35	97
958.6785	2304.5748	978.8	99.45
958.8108	2306.0147	978.1	99.05
958.9432	2307.4538	977.85	94.95
959.0754	2308.8922	974.85	96.8
959.2077	2310.3299	977.55	98.1
959.3399	2311.7669	974.85	94.2
959.4721	2313.2031	971.65	91.95
959.6043	2314.6387	970.8	91.35
959.7365	2316.0735	975.85	96.7
959.8686	2317.5076	976.85	96.65
960.0006	2318.941	973.25	92.35
960.1327	2320.3737	975.05	93.2
960.2647	2321.8056	981	98.35
960.3967	2323.2369	976.3	93.15
960.5287	2324.6674	978.35	94.9
960.6606	2326.0972	981.65	96.45
960.7925	2327.5263	981.9	101.3
960.9244	2328.9547	985.55	104.45
961.0562	2330.3823	983.6	101.45
961.1881	2331.8092	980.8	95.55
961.3198	2333.2355	975.7	94.25
961.4516	2334.661	972.1	91.5
961.5833	2336.0858	974.15	92.75
961.715	2337.5098	972.2	92.1
961.8467	2338.9332	973.25	91.7
961.9783	2340.3558	970.85	86.25
962.1099	2341.7778	969.95	88.7
962.2415	2343.199	972.15	88.9
962.373	2344.6195	968.3	88.1
962.5045	2346.0393	967.1	88.35
962.636	2347.4583	973.4	94.1
962.7675	2348.8767	970.5	88.55
962.8989	2350.2943	971.05	90.1
963.0303	2351.7113	973.85	90.9
963.1617	2353.1275	972.45	88.55
963.293	2354.543	996.1	88.95
963.4243	2355.9578	970.45	86.55
963.5556	2357.3718	967.55	85.1
963.6868	2358.7852	968.45	84.15
963.818	2360.1978	966.6	83.65
963.9492	2361.6098	967.75	86.9
964.0803	2363.021	972.85	89.7
964.2114	2364.4315	969.9	91.65
964.3425	2365.8413	973.3	85
964.4736	2367.2504	966.75	87.55
964.6046	2368.6587	966.75	84.9
964.7356	2370.0664	966.95	83.2
964.8666	2371.4733	968.15	87.75
964.9975	2372.8795	970.25	89.3
965.1284	2374.285	968.7	87.35
965.2593	2375.6899	967.85	87.5
965.3901	2377.0939	967.45	85.85
965.5209	2378.4973	964.5	83.7
965.6517	2379.9	965.85	82.55
965.7825	2381.3019	969.7	87.55
965.9132	2382.7032	963.4	82.8
966.0439	2384.1037	963.95	83.2
966.1745	2385.5035	962.1	81.5
966.3051	2386.9027	964.2	82.8
966.4357	2388.3011	967.6	84.95
966.5663	2389.6987	961.45	78.65
966.6968	2391.0957	962.2	81.5
966.8273	2392.492	962.45	81.35
966.9578	2393.8876	962.6	81.5
967.0882	2395.2824	962	77.95
967.2186	2396.6765	962.65	82.4
967.349	2398.07	964.2	82.65
967.4793	2399.4627	965.75	81.55
967.6097	2400.8547	965.6	83.05
967.7399	2402.246	968.95	80.5
967.8702	2403.6366	962.3	79.9
968.0004	2405.0265	961	79.7
968.1306	2406.4156	964.75	78.6
968.2607	2407.8041	965.25	79.3
968.3909	2409.1918	963.5	78
968.521	2410.5789	960.5	76.95
968.651	2411.9652	963.15	78.2
968.781	2413.3508	960.8	79.95
968.911	2414.7358	962	79.15
969.041	2416.12	960.05	79
969.1709	2417.5035	956.2	74.55
969.3008	2418.8863	964.6	80.6
969.4307	2420.2684	959.6	77.15
969.5606	2421.6497	960.15	78
969.6904	2423.0304	959.35	77.05
969.8201	2424.4104	960.15	76.75
969.9499	2425.7896	964.3	77.1
970.0796	2427.1682	962.25	79.85
970.2093	2428.546	960.45	77.6
970.3389	2429.9232	961.25	76.85
970.4685	2431.2996	955.5	73.15
970.5981	2432.6753	958.45	76.7
970.7277	2434.0503	958.35	74.9
970.8572	2435.4246	953.9	72.2
970.9867	2436.7982	959.9	74.15
971.1161	2438.1711	957.05	76.5
971.2456	2439.5433	955.95	72.95
971.375	2440.9148	958.9	75.8
971.5043	2442.2856	954.9	73.35
971.6336	2443.6557	956.55	72.35
971.7629	2445.025	955.4	72.1
971.8922	2446.3937	954.85	73.35
972.0214	2447.7617	955.05	73.05
972.1506	2449.1289	953.7	72.7
972.2798	2450.4955	960.1	73.85
972.4089	2451.8613	953.65	73.55
972.538	2453.2265	955.6	74.6
972.6671	2454.5909	956.75	72.6
972.7961	2455.9546	954.45	73.4
972.9251	2457.3177	953	73.25
973.0541	2458.68	955.45	70.6
973.1831	2460.0416	953	71.95
973.312	2461.4025	953.65	71.7
973.4408	2462.7627	966.65	75.15
973.5697	2464.1222	951.35	71.6
973.6985	2465.4811	953.3	70.65
973.8273	2466.8392	951.6	70.45
973.956	2468.1966	956.7	72.2
974.0847	2469.5533	951.55	70
974.2134	2470.9093	951.2	69.3
974.3421	2472.2645	952.3	68.15
974.4707	2473.6191	951.65	71.15
974.5993	2474.973	953.7	73.8
974.7278	2476.3262	954.65	73.3
974.8563	2477.6787	954.75	72.45
974.9848	2479.0305	955.1	72.55
975.1132	2480.3816	954.85	71.45
975.2417	2481.7319	953.45	71.55
975.37	2483.0816	951.6	68.15
975.4984	2484.4306	949.55	65.2
975.6267	2485.7789	946.75	66.2
975.755	2487.1264	951.7	69.1
975.8833	2488.4733	947.9	68.35
976.0115	2489.8195	956.4	69.95
976.1397	2491.165	951.2	64.5
976.2678	2492.5097	950.5	64
976.3959	2493.8538	950.4	68.95
976.524	2495.1972	947.15	65.3
976.6521	2496.5398	951.6	68.05
976.7801	2497.8818	951.25	69.25
976.9081	2499.2231	951.05	66.75
977.036	2500.5637	952.95	69.45
977.164	2501.9035	951	67.7
977.2918	2503.2427	951.95	67.75
977.4197	2504.5812	948.2	67.15
977.5475	2505.919	951.6	68.35
977.6753	2507.256	948.5	67.1
977.8031	2508.5924	947.45	64.5
977.9308	2509.9281	953.6	67.3
978.0585	2511.2631	951.1	70.75
978.1861	2512.5974	947.5	64.55
978.3137	2513.9309	948.45	67.2
978.4413	2515.2638	975.55	65.7
978.5689	2516.596	946.6	64.85
978.6964	2517.9275	949.45	65.8
978.8239	2519.2583	948.45	67.75
978.9513	2520.5884	944.85	62.05
979.0788	2521.9178	946.6	63.45
979.2062	2523.2465	947.2	68.35
979.3335	2524.5745	944.5	63.8
979.4608	2525.9018	946.4	68.15
979.5881	2527.2284	942.6	62.55
979.7154	2528.5543	942.5	61.8
979.8426	2529.8796	944.4	61.35
979.9698	2531.2041	944.95	64.15
980.0969	2532.5279	943.55	64.85
980.224	2533.851	945.55	63.85
980.3511	2535.1735	944.8	63.95
980.4781	2536.4952	946.4	64.95
980.6052	2537.8163	943.6	62.75
980.7321	2539.1366	943.35	61.2
980.8591	2540.4562	942.9	59.95
980.986	2541.7752	945	63.1
981.1129	2543.0935	947.1	64.5
981.2397	2544.411	943.85	60.95
981.3665	2545.7279	945.15	62.9
981.4933	2547.0441	943.6	63.75
981.62	2548.3596	946.6	62.2
981.7467	2549.6744	943.4	63.2
981.8734	2550.9885	948.7	61.2
982.0001	2552.3019	942.8	61.95
982.1267	2553.6146	945.75	61.55
982.2532	2554.9266	940.8	60.2
982.3798	2556.2379	945.95	61.85
982.5063	2557.5485	943.15	63.95
982.6327	2558.8585	950	60.45
982.7592	2560.1677	946.25	61
982.8856	2561.4762	942.55	61.1
983.0119	2562.7841	944.8	60.15
983.1383	2564.0913	939.95	59.8
983.2646	2565.3977	939.25	56.7
983.3908	2566.7035	941.65	60.3
983.517	2568.0086	944.2	61.05
983.6432	2569.313	942.4	60.65
983.7694	2570.6167	944.1	59.55
983.8955	2571.9197	940.4	59
984.0216	2573.222	943.1	57.75
984.1476	2574.5236	944.35	63.95
984.2737	2575.8246	939.55	53.5
984.3996	2577.1248	942.6	57.65
984.5256	2578.4244	940.8	61.45
984.6515	2579.7232	938.85	58.35
984.7774	2581.0214	968.55	59.9
984.9032	2582.3189	940.45	59.05
985.029	2583.6157	943.2	59.05
985.1548	2584.9118	939.45	58.55
985.2806	2586.2072	938.95	59.45
985.4063	2587.5019	938.2	58.1
985.5319	2588.7959	941.4	58.95
985.6576	2590.0893	937.95	55.55
985.7832	2591.3819	940.7	60.15
985.9087	2592.6739	939.25	58.9
986.0343	2593.9652	945.15	64.2
986.1597	2595.2557	942.1	60.15
986.2852	2596.5456	942.55	58.35
986.4106	2597.8348	939.05	59
986.536	2599.1234	940.25	58.9
986.6614	2600.4112	941.85	60.15
986.7867	2601.6983	942.35	57.45
986.912	2602.9848	938.95	57.95
987.0372	2604.2705	947.05	58.75
987.1624	2605.5556	941.45	60.3
987.2876	2606.84	939.85	58.65
987.4128	2608.1237	941.25	60.85
987.5379	2609.4067	936.95	57.35
987.6629	2610.689	944.7	56.4
987.788	2611.9707	939.55	55.45
987.913	2613.2516	943.8	59.65
988.0379	2614.5319	935.65	53.95
988.1629	2615.8115	937.8	55.35
988.2878	2617.0903	939.9	58.15
988.4126	2618.3685	942.65	60.1
988.5375	2619.6461	938.05	57.5
988.6622	2620.9229	936.75	57.3
988.787	2622.199	937.1	53.9
988.9117	2623.4745	941.25	63.2
989.0364	2624.7493	934.05	50.4
989.161	2626.0234	935.95	55.6
989.2857	2627.2968	937.55	56.75
989.4102	2628.5695	938.55	56.25
989.5348	2629.8415	931.25	50.2
989.6593	2631.1128	937.55	54.85
989.7837	2632.3835	934.4	55.15
989.9082	2633.6535	934.45	54.65
990.0326	2634.9228	930.6	49
990.1569	2636.1914	933.75	54
990.2812	2637.4593	939.6	52.8
990.4055	2638.7265	931.05	48.7
990.5298	2639.9931	934.25	54.3
990.654	2641.259	933.2	50.7
990.7782	2642.5242	932.5	52.05
990.9023	2643.7887	934.15	52.45
991.0264	2645.0525	935.1	52.65
991.1505	2646.3156	933.95	53
991.2745	2647.5781	933.8	51.95
991.3985	2648.8398	931.4	52.2
991.5225	2650.1009	940.2	52.05
991.6464	2651.3613	928.95	50.2
991.7703	2652.6211	931.7	51.6
991.8942	2653.8801	930.1	49.8
992.018	2655.1385	933.4	50.85
992.1418	2656.3961	930.1	49.5
992.2655	2657.6531	929.2	51.3
992.3892	2658.9094	932.2	53.05
992.5129	2660.1651	928.9	49.05
992.6366	2661.42	929.65	47.5
992.7602	2662.6743	931.95	48.7
992.8837	2663.9279	931.65	51.5
993.0073	2665.1808	932.15	51.95
993.1307	2666.433	933.3	51.15
993.2542	2667.6846	932.4	52.8
993.3776	2668.9354	935.3	51.7
993.501	2670.1856	931.45	51.5
993.6244	2671.4351	929.55	50
993.7477	2672.6839	931	48.75
993.8709	2673.9321	933.7	54.9
993.9942	2675.1795	933.85	54.1
994.1174	2676.4263	934.15	53
994.2405	2677.6724	933.6	54
994.3637	2678.9179	933.1	53.85
994.4868	2680.1626	931.25	51.8
994.6098	2681.4067	935.25	55
994.7328	2682.6501	932.6	51.15
994.8558	2683.8928	931.3	52.8
994.9788	2685.1348	928.1	49.45
995.1017	2686.3761	929.35	48.7
995.2245	2687.6168	928.05	47.05
995.3474	2688.8568	928.45	48
995.4702	2690.0961	927.25	48.9
995.5929	2691.3348	929.75	49.4
995.7156	2692.5727	927.2	45.95
995.8383	2693.81	927.9	48.1
995.961	2695.0466	924.1	45.85
996.0836	2696.2826	928.1	45.85
996.2062	2697.5178	931.45	49.55
996.3287	2698.7524	927.6	48.3
996.4512	2699.9863	929.15	46.85
996.5737	2701.2195	928.5	49
996.6961	2702.452	930.3	48.4
996.8185	2703.6839	930.5	51.4
996.9408	2704.9151	927.35	49.25
997.0631	2706.1456	930.4	51.55
997.1854	2707.3755	931.1	49.5
997.3077	2708.6046	933.2	51.7
997.4299	2709.8331	928.15	46.9
997.552	2711.0609	932.15	51.65
997.6742	2712.2881	932	52.65
997.7963	2713.5145	930	45.95
997.9183	2714.7403	931.4	53.4
998.0403	2715.9654	932.5	49.9
998.1623	2717.1899	947.9	52.45
998.2842	2718.4136	934.3	55.05
998.4062	2719.6367	934.85	53.95
998.528	2720.8591	940.6	56.45
998.6498	2722.0809	936.45	55.85
998.7716	2723.3019	942.35	58.15
998.8934	2724.5223	939.45	56.35
999.0151	2725.7421	940.8	58.15
999.1368	2726.9611	938.55	58
999.2584	2728.1795	941.35	56.95
999.38	2729.3972	936.15	55.3
999.5016	2730.6142	943.1	55.4
999.6231	2731.8306	931.9	51.45
999.7446	2733.0462	931.35	48.95
999.8661	2734.2612	935.35	48.5
999.9875	2735.4756	933.3	51.9
1000.1089	2736.6892	930	51.3
1000.2302	2737.9022	927.95	47.4
1000.3515	2739.1145	928.4	48.5
1000.4728	2740.3262	933.75	45.8
1000.594	2741.5372	928	48.55
1000.7152	2742.7475	924.35	43.15
1000.8363	2743.9571	926.1	44.25
1000.9575	2745.1661	927.6	44.9
1001.0785	2746.3744	924.55	43.1
1001.1996	2747.582	923.75	45.3
1001.3206	2748.7889	922.55	42.95
1001.4415	2749.9952	922.55	41.75
1001.5625	2751.2008	923.35	42.55
1001.6833	2752.4057	922.55	39.8
1001.8042	2753.61	922.75	40.15
1001.925	2754.8136	921.8	38.8
1002.0458	2756.0165	922.25	42.9
1002.1665	2757.2188	920.25	42.9
1002.2872	2758.4204	921.25	42.05
1002.4078	2759.6213	920.4	37.05
1002.5285	2760.8215	925.5	44.6
1002.649	2762.0211	922.15	40
1002.7696	2763.22	924.95	40.95
1002.8901	2764.4182	921.6	39.55
1003.0106	2765.6158	920.4	41.1
1003.131	2766.8127	918.85	38.25
1003.2514	2768.009	918.4	39.3
1003.3717	2769.2045	921.3	41.65
1003.492	2770.3994	920	39.1
1003.6123	2771.5936	921.3	43.15
1003.7325	2772.7872	914.5	35.7
1003.8527	2773.9801	918.6	37.75
1003.9729	2775.1723	936.45	40.85
1004.093	2776.3639	917.3	39.2
1004.2131	2777.5548	919.8	36.8
1004.3331	2778.745	920.1	38.4
1004.4531	2779.9346	915.15	36
1004.5731	2781.1235	918.6	37.75
1004.693	2782.3117	915.3	39
1004.8129	2783.4992	916.4	35.05
1004.9328	2784.6861	916.05	37.15
1005.0526	2785.8723	919.15	39.2
1005.1723	2787.0579	918.25	39.55
1005.2921	2788.2428	916	35.55
1005.4118	2789.427	918.9	40.05
1005.5314	2790.6106	918.95	38.8
1005.651	2791.7935	920.15	40.85
1005.7706	2792.9757	916.85	39.95
1005.8902	2794.1573	919.05	38.15
1006.0097	2795.3382	919.7	38.8
1006.1291	2796.5184	914.2	36.35
1006.2485	2797.698	918.45	38.95
1006.3679	2798.8769	917.15	38.3
1006.4873	2800.0551	919	38.95
1006.6066	2801.2327	922.7	42.95
1006.7258	2802.4096	918.6	41.9
1006.8451	2803.5859	922.7	42.05
1006.9642	2804.7615	920.1	39.45
1007.0834	2805.9364	919.45	41.5
1007.2025	2807.1106	922.65	43.15
1007.3216	2808.2842	922.95	44
1007.4406	2809.4572	925	45.15
1007.5596	2810.6294	927.05	47.7
1007.6785	2811.801	927.05	48.45
1007.7975	2812.972	925.55	47.75
1007.9163	2814.1423	931.45	52.25
1008.0352	2815.3119	933	53.8
1008.154	2816.4808	934.1	54.3
1008.2727	2817.6491	936.65	57.95
1008.3914	2818.8167	939.6	60.35
1008.5101	2819.9837	951.1	68.5
1008.6288	2821.15	950.2	72.8
1008.7474	2822.3157	950.45	71
1008.8659	2823.4807	957.7	78.25
1008.9844	2824.645	966.55	84.4
1009.1029	2825.8086	973	94.5
1009.2214	2826.9716	979.2	101.85
1009.3398	2828.134	990.5	113.6
1009.4581	2829.2957	996.1	116.45
1009.5764	2830.4567	1000.55	123.05
1009.6947	2831.617	1005.65	126.3
1009.813	2832.7767	1010.15	132.95
1009.9312	2833.9358	1011.3	133.65
1010.0493	2835.0941	1008.1	127.85
1010.1675	2836.2519	1005.75	128.25
1010.2855	2837.4089	1000.85	121
1010.4036	2838.5653	995.85	116.15
1010.5216	2839.7211	992.25	115.3
1010.6396	2840.8761	992.1	111.5
1010.7575	2842.0306	990.65	112.65
1010.8754	2843.1843	986.3	107.3
1010.9932	2844.3374	991.15	113.1
1011.111	2845.4899	992.4	112.95
1011.2288	2846.6417	989.65	112.1
1011.3465	2847.7928	995.9	117.65
1011.4642	2848.9433	995.65	115.65
1011.5818	2850.0931	998.1	120
1011.6995	2851.2422	1000.25	118.1
1011.817	2852.3907	1004.85	125.6
1011.9345	2853.5385	1001.9	121.7
1012.052	2854.6857	1032	126.5
1012.1695	2855.8323	1006.1	130.6
1012.2869	2856.9781	1009.4	132.65
1012.4042	2858.1233	1010.55	131.1
1012.5216	2859.2679	1012.7	133.85
1012.6389	2860.4118	1016.75	137.3
1012.7561	2861.555	1025.5	142.4
1012.8733	2862.6976	1024.35	143.8
1012.9905	2863.8395	1025.75	148.7
1013.1076	2864.9808	1021.4	144.85
1013.2247	2866.1214	1026.85	148.95
1013.3417	2867.2614	1024.05	146.7
1013.4587	2868.4007	1026.55	145.75
1013.5757	2869.5393	1030.35	149.95
1013.6926	2870.6773	1034.85	151.55
1013.8095	2871.8146	1042.7	159.25
1013.9263	2872.9513	1037.85	158.2
1014.0431	2874.0874	1037.05	157.55
1014.1599	2875.2227	1038.4	157.5
1014.2766	2876.3574	1045.2	166.8
1014.3933	2877.4915	1039.45	161.55
1014.51	2878.6249	1041.9	164.6
1014.6266	2879.7577	1050.7	171.05
1014.7431	2880.8898	1060.25	170.9
1014.8596	2882.0212	1053.8	177.65
1014.9761	2883.152	1055.1	178.35
1015.0925	2884.2821	1055.35	178.75
1015.2089	2885.4116	1052.2	175.6
1015.3253	2886.5405	1057.85	177.7
1015.4416	2887.6686	1062	181.6
1015.5579	2888.7962	1056.65	177.45
1015.6741	2889.923	1055.7	179.05
1015.7903	2891.0493	1059.5	181.2
1015.9065	2892.1748	1051.25	174.5
1016.0226	2893.2997	1060	181
1016.1387	2894.424	1053.5	175.15
1016.2547	2895.5476	1058.3	180.05
1016.3707	2896.6706	1060.35	183.15
1016.4866	2897.7929	1060.8	183.55
1016.6025	2898.9145	1058.55	180.6
1016.7184	2900.0355	1064.15	186.2
1016.8342	2901.1559	1059.2	179.35
1016.95	2902.2756	1058.75	175.55
1017.0658	2903.3946	1058.7	181.65
1017.1815	2904.513	1058.7	177.8
1017.2971	2905.6308	1054.5	175.7
1017.4127	2906.7479	1054.25	176.2
1017.5283	2907.8643	1063.3	183.8
1017.6439	2908.9801	1058	179.85
1017.7594	2910.0953	1053.8	175.7
1017.8748	2911.2098	1061.15	178.15
1017.9902	2912.3236	1063.35	175.75
1018.1056	2913.4368	1061.8	182.15
1018.2209	2914.5494	1054.3	175.9
1018.3362	2915.6613	1056.75	173.45
1018.4515	2916.7725	1052.95	170.65
1018.5667	2917.8831	1049.95	169.75
1018.6819	2918.9931	1050.85	170.85
1018.797	2920.1024	1045.25	164.7
1018.9121	2921.211	1039.35	161.75
1019.0271	2922.319	1036.95	157.35
1019.1421	2923.4264	1037.2	160.95
1019.2571	2924.5331	1037.8	162.4
1019.372	2925.6391	1037	159
1019.4869	2926.7445	1031.9	154.25
1019.6017	2927.8493	1038.6	159.85
1019.7165	2928.9534	1040.05	160.5
1019.8313	2930.0569	1041.4	161.5
1019.946	2931.1597	1040.3	162.15
1020.0606	2932.2619	1041.3	163.65
1020.1753	2933.3634	1038.45	162.25
1020.2899	2934.4643	1050.75	164.7
1020.4044	2935.5645	1052.45	168.5
1020.5189	2936.6641	1048	165.7
1020.6334	2937.763	1048.2	171.45
1020.7478	2938.8613	1045.15	164.8
1020.8622	2939.959	1048.75	163.8
1020.9765	2941.056	1035.4	158.35
1021.0908	2942.1523	1037.15	158.35
1021.2051	2943.248	1026.1	148
1021.3193	2944.3431	1021.15	141.95
1021.4334	2945.4375	1011.4	133.4
1021.5476	2946.5313	1004.65	126.8
1021.6617	2947.6244	1000.35	121.9
1021.7757	2948.7169	990.15	112.3
1021.8897	2949.8087	986.1	108.25
1022.0037	2950.8999	981.75	103.25
1022.1176	2951.9904	974.45	97.65
1022.2315	2953.0803	972.95	94.4
1022.3453	2954.1696	968.5	90
1022.4591	2955.2582	965.3	89.3
1022.5728	2956.3462	960.85	83.3
1022.6865	2957.4335	958.05	78.45
1022.8002	2958.5202	960.7	79.8
1022.9138	2959.6062	958.7	80.05
1023.0274	2960.6916	959.15	81.1
1023.141	2961.7764	957.95	78.85
1023.2545	2962.8605	958.2	82.1
1023.3679	2963.9439	957.6	80.15
1023.4813	2965.0267	962.2	83.4
1023.5947	2966.1089	980.65	82.5
1023.708	2967.1905	959.1	82.7
1023.8213	2968.2714	954.55	76.3
1023.9346	2969.3516	957.2	78.45
1024.0478	2970.4312	965.6	79.25
1024.1609	2971.5102	955.75	78.85
1024.274	2972.5885	958	80
1024.3871	2973.6662	961.4	79.65
1024.5002	2974.7432	957.35	78.85
1024.6132	2975.8196	956.65	77.5
1024.7261	2976.8954	953.65	77.35
1024.839	2977.9705	956.1	79.5
1024.9519	2979.045	952.95	78.2
1025.0647	2980.1188	957.65	78.8
1025.1775	2981.192	952.9	76.25
1025.2902	2982.2645	953.6	74.9
1025.4029	2983.3364	953.5	76.55
1025.5156	2984.4077	949.45	73.15
1025.6282	2985.4783	956.9	73.6
1025.7407	2986.5483	945.15	68.95
1025.8532	2987.6177	941.4	63.05
1025.9657	2988.6864	943.25	66.3
1026.0782	2989.7545	943.65	66.5
1026.1906	2990.8219	934.8	56.25
1026.3029	2991.8887	935.35	55.9
1026.4152	2992.9548	930.6	52.5
1026.5275	2994.0204	925.35	47.55
1026.6397	2995.0852	925.7	49.25
1026.7519	2996.1495	926.15	46.5
1026.864	2997.2131	923.7	46.25
1026.9761	2998.276	919.4	42.8
1027.0882	2999.3383	916.85	39.2
1027.2002	3000.4	917.3	41.1
1027.3122	3001.4611	913.45	35.45
1027.4241	3002.5215	913.7	36.65
1027.536	3003.5812	910.65	32.3
1027.6478	3004.6404	910.7	33
1027.7596	3005.6989	912.4	32.55
1027.8714	3006.7567	908.15	32.25
1027.9831	3007.8139	941.35	29.75
1028.0947	3008.8705	907.85	29.65
1028.2064	3009.9264	911.35	29.25
1028.3179	3010.9818	906	28.75
1028.4295	3012.0364	905.85	26.7
1028.541	3013.0905	907.95	28.7
1028.6524	3014.1439	902.45	26.55
1028.7638	3015.1966	905.15	27
1028.8752	3016.2487	903.95	26.75
1028.9865	3017.3002	907.3	24.7
1029.0978	3018.3511	904.3	29
1029.209	3019.4013	903.15	26.7
1029.3202	3020.4509	902.2	25.05
1029.4314	3021.4998	902.35	23.7
1029.5425	3022.5481	900.2	22.85
1029.6535	3023.5958	903.4	27.6
1029.7645	3024.6428	903.4	25.4
1029.8755	3025.6892	904.4	26.95
1029.9864	3026.735	903.5	22.35
1030.0973	3027.7802	902.4	25.6
1030.2082	3028.8247	901.2	24.25
1030.319	3029.8685	901.6	23.05
1030.4297	3030.9118	902.2	24.2
1030.5404	3031.9544	900	24.25
1030.6511	3032.9963	899.85	22.9
1030.7617	3034.0376	900.7	25.15
1030.8723	3035.0783	902.75	23
1030.9829	3036.1184	903.1	25.35
1031.0934	3037.1578	898.2	21.3
1031.2038	3038.1966	899.5	21.2
1031.3142	3039.2348	902.75	26.1
1031.4246	3040.2723	910.1	24.2
1031.5349	3041.3092	900.1	23.7
1031.6452	3042.3455	903.65	27.25
1031.7554	3043.3811	903.3	23.55
1031.8656	3044.4161	903.9	26.75
1031.9758	3045.4505	901.95	24.4
1032.0859	3046.4842	903.7	26.45
1032.1959	3047.5173	902.1	26.05
1032.3059	3048.5498	903.05	23.65
1032.4159	3049.5816	902.4	25
1032.5258	3050.6128	904.3	26.1
1032.6357	3051.6434	904.9	26.75
1032.7455	3052.6734	902.45	22.1
1032.8553	3053.7027	899.35	21.35
1032.9651	3054.7314	902.5	25.85
1033.0748	3055.7594	902.8	27.05
1033.1845	3056.7868	901.8	25.05
1033.2941	3057.8136	903.1	26.65
1033.4037	3058.8398	902.25	26
1033.5132	3059.8653	902.95	24.55
1033.6227	3060.8902	904.95	28.15
1033.7321	3061.9145	902.45	24.1
1033.8415	3062.9381	905.75	28.2
1033.9509	3063.9612	917.4	24.4
1034.0602	3064.9835	903.45	27.25
1034.1694	3066.0053	907.15	30.95
1034.2787	3067.0264	902.8	25.75
1034.3878	3068.0469	905.35	28.95
1034.497	3069.0668	906.15	27.6
1034.6061	3070.086	903.65	30.75
1034.7151	3071.1046	903.85	27.1
1034.8241	3072.1226	902.15	25.4
1034.9331	3073.1399	901.6	25.55
1035.042	3074.1567	903.8	28.1
1035.1508	3075.1727	904.65	25.75
1035.2597	3076.1882	900.8	23.2
1035.3684	3077.203	900.05	22.8
1035.4772	3078.2173	902	23.1
1035.5859	3079.2308	903.5	23.2
1035.6945	3080.2438	903.4	24.8
1035.8031	3081.2561	898.4	20.1
1035.9117	3082.2678	898.7	21.05
1036.0202	3083.2789	899.1	22.1
1036.1286	3084.2893	895.7	18.65
1036.2371	3085.2991	897.45	20.05
1036.3454	3086.3083	900.25	17.95
1036.4538	3087.3169	895.8	18.25
1036.562	3088.3248	897.1	20.45
1036.6703	3089.3321	895.85	15.5
1036.7785	3090.3388	896.25	19.1
1036.8866	3091.3449	897.4	20.6
1036.9948	3092.3503	897.3	18.85
1037.1028	3093.3551	891.7	15.9
1037.2108	3094.3593	895.25	17.45
1037.3188	3095.3629	894	17.65
1037.4267	3096.3658	897.65	21.65
1037.5346	3097.3681	893.3	17.9
1037.6425	3098.3698	895.05	17.1
1037.7503	3099.3708	894.4	16.65
1037.858	3100.3713	893.3	15.8
1037.9657	3101.3711	893.25	16.05
1038.0734	3102.3702	1034.75	17.7
1038.181	3103.3688	896.35	18.45
1038.2886	3104.3667	893.75	18.05
1038.3961	3105.364	891.35	15.7
1038.5036	3106.3607	893.8	15.75
1038.611	3107.3568	893.2	18.1
1038.7184	3108.3522	891.1	13.25
1038.8257	3109.347	892.25	15.9
1038.933	3110.3412	894.5	12.3
1039.0403	3111.3348	892.3	16.1
1039.1475	3112.3277	890.35	12.6
1039.2547	3113.32	889.2	10.35
1039.3618	3114.3117	890.5	13.25
1039.4689	3115.3028	890.55	14.9
1039.5759	3116.2932	892.7	15.2
1039.6829	3117.2831	897.4	16.65
1039.7898	3118.2723	890.5	12.45
1039.8967	3119.2608	892.15	15.8
1040.0035	3120.2488	888.55	12.05
1040.1103	3121.2361	889.45	11.15
1040.2171	3122.2229	889.5	13.15
1040.3238	3123.209	889.95	11.95
1040.4305	3124.1944	889.6	11.65
1040.5371	3125.1793	891.2	11.5
1040.6437	3126.1635	889.8	12.5
1040.7502	3127.1471	888.5	12.9
1040.8567	3128.1301	890.3	14.85
1040.9631	3129.1125	888.2	12.5
1041.0695	3130.0942	888.35	13
1041.1759	3131.0753	896.45	11.25
1041.2822	3132.0558	891.15	13.3
1041.3884	3133.0357	888.65	11.7
1041.4946	3134.015	889.6	12.6
1041.6008	3134.9936	886.8	8.45
1041.7069	3135.9716	910.4	14.1
1041.813	3136.949	888.5	11.4
1041.919	3137.9258	903.35	7.75
1042.025	3138.902	892.2	11.3
1042.1309	3139.8775	886.3	8.65
1042.2368	3140.8524	886.8	10.6
1042.3427	3141.8267	888.55	8.9
1042.4485	3142.8004	886.6	8.9
1042.5542	3143.7735	892	11.2
1042.6599	3144.7459	889.65	11.7
1042.7656	3145.7178	887.75	9.15
1042.8712	3146.689	886.8	12.5
1042.9768	3147.6596	887.05	6.8
1043.0823	3148.6295	889.1	11.55
1043.1878	3149.5989	887.25	11.45
1043.2932	3150.5676	885	9.1
1043.3986	3151.5357	885.85	7.95
1043.5039	3152.5032	884.65	9.45
1043.6092	3153.4701	886.65	10.5
1043.7145	3154.4364	889.65	10
1043.8197	3155.402	885.95	11.55
1043.9248	3156.367	886.3	8.05
1044.03	3157.3315	930.2	6.55
1044.135	3158.2952	887.45	11.85
1044.24	3159.2584	883.2	6.4
1044.345	3160.221	885.15	9.25
1044.4499	3161.1829	885.4	9.2
1044.5548	3162.1442	885.7	9.3
1044.6596	3163.105	884.6	8.4
1044.7644	3164.065	883.75	7
1044.8692	3165.0245	887.45	7.9
1044.9739	3165.9834	885.15	9.35
1045.0785	3166.9416	884.75	9
1045.1831	3167.8993	884.3	7.45
1045.2877	3168.8563	888.15	10.35
1045.3922	3169.8127	885.7	9.1
1045.4966	3170.7684	886.45	8.6
1045.6011	3171.7236	884.65	6.85
1045.7054	3172.6782	886.35	9.1
1045.8098	3173.6321	884.8	7.4
1045.914	3174.5854	888.35	5.2
1046.0183	3175.5381	885.55	11
1046.1224	3176.4902	885.3	8.6
1046.2266	3177.4417	884	7.3
1046.3307	3178.3926	880.55	5.75
1046.4347	3179.3428	883.35	8.05
1046.5387	3180.2924	885.4	8.3
1046.6427	3181.2415	882.55	4.35
1046.7466	3182.1899	886.35	7.8
1046.8504	3183.1377	884.05	9.05
1046.9542	3184.0848	887.5	7.6
1047.058	3185.0314	884.75	6.9
1047.1617	3185.9773	886.5	8.15
1047.2654	3186.9227	884.15	7.8
1047.369	3187.8674	884.6	9.25
1047.4726	3188.8115	885.95	4.45
1047.5761	3189.755	884.2	7.65
1047.6796	3190.6979	884.7	6.05
1047.783	3191.6402	882.2	6.2
1047.8864	3192.5818	883.95	7.4
1047.9898	3193.5229	895.1	6.4
1048.0931	3194.4633	884.8	10.25
1048.1963	3195.4031	884	6.7
1048.2995	3196.3423	884.6	7.1
1048.4027	3197.2809	883.8	6.35
1048.5058	3198.2189	883.15	6.4
1048.6089	3199.1563	889.7	7.45
1048.7119	3200.0931	883.05	7.7
1048.8148	3201.0292	880.75	4.3
1048.9178	3201.9648	882.3	4.95
1049.0206	3202.8997	885.8	7.7
1049.1235	3203.834	884.75	8.1
1049.2262	3204.7677	883.8	8.25
1049.329	3205.7008	885.15	5.75
1049.4317	3206.6333	879.4	2.55
1049.5343	3207.5652	885.45	7.2
1049.6369	3208.4964	883.55	5.8
1049.7394	3209.4271	882.75	6.45
1049.8419	3210.3571	886.25	10.45
1049.9444	3211.2865	885	7.4
1050.0468	3212.2154	885.2	8.75
1050.1491	3213.1436	885.6	5.6
1050.2514	3214.0712	891.2	7.95
1050.3537	3214.9982	884.45	8.85
1050.4559	3215.9246	881.3	5.4
1050.5581	3216.8503	881.45	4.95
1050.6602	3217.7755	881.5	4.65
1050.7623	3218.7001	882.15	5.05
1050.8643	3219.624	883.25	6.45
1050.9663	3220.5473	883.05	7.85
1051.0682	3221.4701	883.05	6.05
1051.1701	3222.3922	884.9	7.4
1051.2719	3223.3137	881.8	5.35
1051.3737	3224.2346	882.05	6.85
1051.4754	3225.1549	883.15	7.15
1051.5771	3226.0746	882.15	6.2
1051.6788	3226.9937	884.6	8.75
1051.7804	3227.9121	881.5	7
1051.8819	3228.83	880.75	4.65
1051.9834	3229.7473	882.3	5.1
1052.0849	3230.6639	882.55	5.6
1052.1863	3231.5799	880	1.95
1052.2876	3232.4954	883.65	6.05
1052.3889	3233.4102	879.5	3.5
1052.4902	3234.3244	882.45	5.1
1052.5914	3235.238	882.4	8.75
1052.6926	3236.151	904.6	5.8
1052.7937	3237.0634	880.75	7.55
1052.8948	3237.9752	880.25	4.6
1052.9958	3238.8864	883.5	7.5
1053.0968	3239.797	880.5	4.6
1053.1977	3240.7069	882.6	3.95
1053.2986	3241.6163	884.8	6.6
1053.3994	3242.5251	881.7	7.75
1053.5002	3243.4332	881.6	5.8
1053.6009	3244.3408	883	7.15
1053.7016	3245.2477	880.85	5.4
1053.8022	3246.154	883.35	5.8
1053.9028	3247.0598	882.9	3.5
1054.0034	3247.9649	882.3	4.45
1054.1039	3248.8694	882.35	5.55
1054.2043	3249.7733	880.4	5.75
1054.3047	3250.6766	880.65	3.25
1054.4051	3251.5793	879.4	1.6
1054.5054	3252.4814	880.15	6.15
1054.6056	3253.3829	881.1	5.2
1054.7058	3254.2838	879.5	2.55
1054.806	3255.1841	881.45	5.15
1054.9061	3256.0838	880.6	4.6
1055.0061	3256.9829	880.85	5.45
1055.1062	3257.8814	883.35	4.55
1055.2061	3258.7792	881.9	3.7
1055.306	3259.6765	881.75	5.2
1055.4059	3260.5731	880.65	4.8
1055.5057	3261.4692	881.2	3.4
1055.6055	3262.3647	882.05	5.6
1055.7052	3263.2595	881.5	3.95
1055.8049	3264.1538	880.35	6
1055.9045	3265.0474	880.5	3.6
1056.0041	3265.9404	879.2	2.65
1056.1036	3266.8329	879.95	3.75
1056.2031	3267.7247	889.25	2.95
1056.3025	3268.616	878.35	2.95
1056.4019	3269.5066	878.8	2.2
1056.5013	3270.3966	881.4	3.55
1056.6005	3271.286	879.2	3.6
