Software Version:	3.9.2.0
Unit SN:	10000200
Spectrometer SN:	6960
Date:	3/8/2024 11:38:53 AM
Data Line Index:	25
Spectral Points:	2048
Integration time (ms):	125
Averages:	20
Delay (ms):	30000
Sequence Number:	1
Processing:	dark subtract
Laser Power (mW):	300
Laser Current (mA):	823
Laser Diode Temp (C):	25
Laser Case Temp (C):	25.2
System Temp (C):	25.2
Spectrometer Temp (C):	23
CCD Temp (C):	0.005
Secondary Temp (C):	20.008
Heatsink Temp (C):	19.944
CCDPCB Temp (C):	34.551
SecondaryPCB Temp (C):	27.648

Wavelength	RamanShift	Raw Counts	Dark Subtracted
787.061	30.1047	413.75	5
787.2016	32.3739	413.95	6.5
787.3422	34.6426	415.8	6.4
787.4828	36.9109	417.25	7.6
787.6235	39.1787	424.35	8.8
787.7642	41.4461	425.8	7.8
787.9049	43.7131	431.1	9.8
788.0456	45.9796	434.95	9.35
788.1863	48.2456	437.8	9.8
788.3271	50.5112	445	13.3
788.4679	52.7764	445.65	10.45
788.6087	55.0411	452	11.5
788.7496	57.3054	456.4	8.95
788.8904	59.5692	461.15	13.8
789.0313	61.8326	464.7	15.15
789.1722	64.0955	467.85	16.65
789.3132	66.3579	475.35	19.45
789.4541	68.6199	483.05	19.1
789.5951	70.8815	494.15	27.5
789.7361	73.1426	508.3	38.45
789.8771	75.4032	546	72
790.0181	77.6634	623.7	147.15
790.1592	79.9231	809.95	329.65
790.3003	82.1824	1184.5	697.55
790.4414	84.4412	1801.75	1300.7
790.5825	86.6995	2555.2	2039.65
790.7237	88.9574	3292.2	2768.75
790.8648	91.2148	3808.45	3276.6
791.006	93.4717	4010.3	3472.15
791.1472	95.7282	4025	3482.85
791.2885	97.9842	4010.4	3465.2
791.4297	100.2398	3957.65	3409.2
791.571	102.4949	3885.75	3333.9
791.7123	104.7495	3872.5	3318.1
791.8536	107.0036	3804.5	3245.5
791.9949	109.2573	3713.85	3159.45
792.1363	111.5105	3615.7	3058.45
792.2777	113.7632	3521.9	2963.25
792.4191	116.0154	3410.85	2838.3
792.5605	118.2672	3291.3	2727.4
792.7019	120.5185	3166.95	2601.9
792.8434	122.7693	3075.85	2506.05
792.9849	125.0197	2970.3	2397.55
793.1264	127.2696	2893.7	2317.65
793.2679	129.519	2847.55	2267.9
793.4094	131.7679	2803	2217.85
793.551	134.0163	2777.45	2194.2
793.6926	136.2642	2774.4	2187.1
793.8342	138.5117	2759.7	2167.75
793.9758	140.7587	2729.05	2139.2
794.1175	143.0052	2689.4	2092.65
794.2591	145.2512	2633.15	2037.5
794.4008	147.4967	2575.15	1978.6
794.5425	149.7417	2521.85	1920.15
794.6842	151.9863	2502.65	1898.95
794.826	154.2304	2490.6	1882.6
794.9677	156.4739	2483.4	1871.55
795.1095	158.717	2496.1	1880.95
795.2513	160.9596	2515.85	1895.75
795.3931	163.2017	2553.9	1931.75
795.535	165.4433	2564.75	1944.15
795.6768	167.6844	2550.25	1925.25
795.8187	169.925	2514.4	1885.75
795.9606	172.1651	2455.95	1823.8
796.1025	174.4047	2408.65	1775.1
796.2445	176.6439	2364.1	1727.65
796.3864	178.8825	2332.1	1693.5
796.5284	181.1206	2313.6	1668.05
796.6704	183.3582	2306.5	1659.05
796.8124	185.5954	2292.4	1642.15
796.9544	187.832	2303.9	1650.35
797.0965	190.0681	2309.8	1655.85
797.2386	192.3037	2310.85	1654.5
797.3806	194.5388	2321.05	1655.75
797.5228	196.7734	2327.1	1663.2
797.6649	199.0075	2341.9	1675.15
797.807	201.2411	2375.6	1709.8
797.9492	203.4742	2382.5	1716.05
798.0914	205.7068	2426	1754.05
798.2336	207.9389	2441.65	1767.25
798.3758	210.1704	2443.15	1774.85
798.518	212.4015	2438.55	1781.2
798.6603	214.632	2446.45	1795.75
798.8025	216.862	2458.2	1808.5
798.9448	219.0915	2465.45	1814.6
799.0871	221.3205	2481.75	1825.9
799.2294	223.549	2485.05	1833.1
799.3718	225.777	2475.35	1824.6
799.5141	228.0044	2488.65	1830.65
799.6565	230.2314	2479.65	1818.4
799.7989	232.4578	2461.15	1797.6
799.9413	234.6837	2452.9	1782.55
800.0837	236.909	2440.8	1769.15
800.2262	239.1339	2443	1744.45
800.3687	241.3582	2431.05	1746.8
800.5111	243.582	2439.85	1724.15
800.6536	245.8053	2455.05	1755.7
800.7961	248.0281	2444.2	1745.6
800.9387	250.2503	2460.45	1764
801.0812	252.472	2474.6	1773.3
801.2238	254.6932	2487.5	1788.75
801.3664	256.9139	2479.7	1776.2
801.509	259.134	2508.3	1800.2
801.6516	261.3536	2524.45	1821.4
801.7942	263.5727	2562.4	1858.8
801.9369	265.7912	2621.35	1914.6
802.0795	268.0092	2686.85	1980.5
802.2222	270.2267	2751.65	2044.4
802.3649	272.4436	2808.3	2097.35
802.5076	274.6601	2850.7	2126.5
802.6504	276.8759	2864.65	2149.15
802.7931	279.0913	2886.25	2167.75
802.9359	281.3061	2902.2	2185
803.0787	283.5204	2941.3	2219.35
803.2215	285.7341	2958.65	2235.35
803.3643	287.9473	2980.25	2257.3
803.5071	290.16	2991.7	2263.2
803.6499	292.3721	2937.75	2215.6
803.7928	294.5837	2905.8	2184.15
803.9357	296.7947	2875.85	2155.1
804.0786	299.0052	2850.8	2124.7
804.2215	301.2152	2843.55	2116.4
804.3644	303.4246	2812.25	2091.45
804.5074	305.6334	2795.7	2072.25
804.6503	307.8418	2775.55	2046.15
804.7933	310.0495	2744.85	2015.15
804.9363	312.2568	2706.9	1978.15
805.0793	314.4635	2671.05	1941.1
805.2223	316.6696	2612.6	1879.05
805.3653	318.8752	2566.1	1823.8
805.5084	321.0802	2527	1790.7
805.6514	323.2847	2526.85	1786.4
805.7945	325.4887	2530.6	1792.95
805.9376	327.692	2558.1	1818.9
806.0807	329.8949	2602.7	1858.95
806.2238	332.0972	2649.45	1903.95
806.367	334.2989	2667.15	1922.65
806.5101	336.5001	2649.75	1904.1
806.6533	338.7007	2623.2	1878.5
806.7965	340.9008	2580.5	1833.65
806.9397	343.1003	2516.1	1763
807.0829	345.2992	2473.55	1721.4
807.2261	347.4976	2435.45	1681.9
807.3693	349.6955	2394.55	1635.65
807.5126	351.8927	2370.9	1614.15
807.6559	354.0895	2363.3	1594.85
807.7991	356.2856	2344.55	1584.9
807.9424	358.4812	2323.8	1565.4
808.0857	360.6763	2329.7	1570.15
808.2291	362.8707	2322.55	1560.15
808.3724	365.0646	2329.8	1562.1
808.5158	367.258	2351.05	1581.6
808.6591	369.4508	2357.4	1587
808.8025	371.643	2396.9	1623.95
808.9459	373.8346	2424.95	1652.8
809.0893	376.0257	2444.05	1667.95
809.2327	378.2162	2490.3	1713
809.3762	380.4062	2492.8	1718.2
809.5196	382.5956	2458.7	1686.45
809.6631	384.7844	2420.45	1650.9
809.8066	386.9726	2379.15	1610.65
809.9501	389.1603	2358.7	1591.7
810.0936	391.3474	2364.6	1564.3
810.2371	393.5339	2338.25	1566.4
810.3806	395.7199	2341.9	1575.8
810.5241	397.9052	2377.25	1610.9
810.6677	400.09	2421.3	1650.45
810.8113	402.2743	2462.05	1691.1
810.9548	404.4579	2516.15	1744
811.0984	406.641	2559.2	1781.7
811.2421	408.8235	2615.65	1842.55
811.3857	411.0054	2664.6	1886.7
811.5293	413.1868	2710.55	1927.65
811.673	415.3675	2767.75	1983.05
811.8166	417.5477	2762.45	1976.8
811.9603	419.7273	2697.5	1910.75
812.104	421.9064	2627.85	1833.15
812.2477	424.0848	2561.7	1773
812.3914	426.2627	2486.5	1697.6
812.5351	428.4399	2431.7	1643.05
812.6788	430.6166	2369.8	1576.2
812.8226	432.7928	2318.5	1522
812.9663	434.9683	2272.4	1476.75
813.1101	437.1432	2245.3	1450.25
813.2539	439.3176	2222.75	1429.55
813.3977	441.4914	2207.35	1413.45
813.5415	443.6645	2213.75	1416.65
813.6853	445.8371	2199.15	1402.35
813.8291	448.0091	2202.35	1405.7
813.973	450.1806	2207.1	1411.35
814.1168	452.3514	2208.55	1409.65
814.2607	454.5216	2212	1403.9
814.4046	456.6913	2192.65	1390.5
814.5485	458.8603	2204.8	1403.75
814.6924	461.0288	2200.75	1403.25
814.8363	463.1967	2201.8	1403.05
814.9802	465.3639	2207.25	1406.4
815.1241	467.5306	2196.6	1395.4
815.2681	469.6967	2192.45	1392.5
815.412	471.8622	2183.4	1382.1
815.556	474.0271	2185.45	1386.05
815.7	476.1914	2182.05	1377.05
815.844	478.3551	2171.1	1367.05
815.988	480.5182	2181.5	1378.5
816.132	482.6807	2181.9	1377
816.276	484.8426	2196.4	1396.3
816.4201	487.0039	2245.5	1444.3
816.5641	489.1647	2307.7	1502
816.7082	491.3248	2363.05	1555.05
816.8522	493.4843	2372.25	1567.55
816.9963	495.6432	2352.05	1543.9
817.1404	497.8015	2328.7	1516.65
817.2845	499.9592	2286.5	1476.3
817.4286	502.1163	2225.75	1412.5
817.5727	504.2728	2175.85	1362.65
817.7168	506.4287	2157.05	1348
817.861	508.5839	2133.95	1324.5
818.0051	510.7386	2124.7	1313.8
818.1493	512.8927	2145.4	1323.8
818.2935	515.0461	2135.4	1322.15
818.4377	517.199	2163.8	1346.45
818.5818	519.3512	2211.2	1396.45
818.726	521.5029	2292.7	1473.9
818.8703	523.6539	2349.35	1533.1
819.0145	525.8043	2365.8	1547.5
819.1587	527.9541	2295.9	1477.1
819.303	530.1033	2221.1	1400.75
819.4472	532.2519	2170.3	1352.05
819.5915	534.3999	2143.95	1320.5
819.7357	536.5472	2138.2	1317.25
819.88	538.694	2137.45	1316.45
820.0243	540.8401	2154.05	1332.1
820.1686	542.9856	2161.15	1336
820.3129	545.1305	2185.2	1358.95
820.4572	547.2748	2195.55	1368.8
820.6016	549.4185	2219.3	1390.6
820.7459	551.5615	2220.65	1392.75
820.8902	553.704	2247	1417.85
821.0346	555.8458	2258.1	1430.25
821.1789	557.987	2281.1	1455.9
821.3233	560.1276	2306.05	1479.55
821.4677	562.2675	2373.35	1549.75
821.6121	564.4069	2448.65	1622
821.7565	566.5456	2497.95	1673.3
821.9009	568.6837	2475.55	1650.45
822.0453	570.8212	2401	1577.6
822.1897	572.958	2307.35	1482.6
822.3342	575.0942	2243.3	1418.9
822.4786	577.2299	2205.25	1381.15
822.6231	579.3648	2175.35	1354.35
822.7675	581.4992	2148.9	1329.3
822.912	583.6329	2169.15	1347.9
823.0565	585.766	2198.1	1374.15
823.201	587.8985	2251	1425.85
823.3454	590.0304	2304.25	1463.8
823.4899	592.1616	2339.6	1507.95
823.6345	594.2922	2340.1	1505.9
823.779	596.4222	2286.05	1452.15
823.9235	598.5515	2227.2	1392.6
824.068	600.6802	2159.35	1325.1
824.2126	602.8083	2123.3	1290.95
824.3571	604.9358	2109.35	1273.55
824.5017	607.0626	2100.75	1264.85
824.6462	609.1888	2111.5	1271.15
824.7908	611.3144	2151.45	1311.3
824.9354	613.4393	2184.85	1347.15
825.08	615.5636	2236.6	1400.4
825.2246	617.6873	2298.3	1460.25
825.3692	619.8103	2319.85	1479
825.5138	621.9327	2320.5	1480.05
825.6584	624.0544	2270.4	1433.3
825.803	626.1756	2225.1	1386.3
825.9477	628.2961	2164.65	1326.6
826.0923	630.4159	2143.15	1301.15
826.237	632.5351	2135.8	1294.1
826.3816	634.6537	2134.65	1292.75
826.5263	636.7716	2117.85	1275.8
826.6709	638.8889	2105.4	1259.65
826.8156	641.0056	2115.8	1270.75
826.9603	643.1216	2121.65	1277.7
827.105	645.237	2111.7	1264.6
827.2497	647.3518	2107.95	1264.6
827.3944	649.4659	2075.6	1234.95
827.5391	651.5793	2062.95	1222.15
827.6838	653.6922	2050.4	1207.25
827.8285	655.8043	2038.45	1196.2
827.9733	657.9159	2011.5	1166.25
828.118	660.0268	2019.05	1172.05
828.2627	662.137	2012.3	1166.35
828.4075	664.2466	2012.05	1164.15
828.5522	666.3556	2011.6	1163.95
828.697	668.4639	2003.95	1155.75
828.8418	670.5716	1989.4	1142.95
828.9865	672.6786	1986.7	1138.05
829.1313	674.785	1979.85	1127.95
829.2761	676.8907	1981.7	1133.55
829.4209	678.9958	1974.75	1127.6
829.5657	681.1002	1974.5	1126.8
829.7105	683.204	1975.2	1118
829.8553	685.3072	1977.6	1126.35
830.0001	687.4097	1983.6	1133.2
830.1449	689.5115	1983.35	1129.05
830.2898	691.6127	1974.85	1123.85
830.4346	693.7132	1973.95	1124.2
830.5794	695.8131	1978.9	1113.65
830.7243	697.9123	1979	1126.35
830.8691	700.0109	1979.45	1126.65
831.014	702.1089	1985.65	1134.2
831.1588	704.2061	2015.3	1162.25
831.3037	706.3028	2040.45	1182.65
831.4486	708.3987	2064.15	1209.4
831.5935	710.4941	2067.75	1213.05
831.7383	712.5887	2074.2	1220
831.8832	714.6827	2077.45	1220.6
832.0281	716.7761	2069	1216.6
832.173	718.8688	2061.9	1205.85
832.3179	720.9608	2068.45	1206.5
832.4628	723.0522	2093.3	1231.85
832.6077	725.1429	2107.55	1250.6
832.7527	727.233	2140.1	1280.65
832.8976	729.3224	2235.6	1380.05
833.0425	731.4112	2272.1	1414.05
833.1874	733.4993	2281.5	1420.3
833.3324	735.5867	2236.25	1378.3
833.4773	737.6735	2155.65	1294.6
833.6222	739.7596	2083.85	1223.05
833.7672	741.845	2058.75	1201.95
833.9122	743.9298	2052.45	1192.85
834.0571	746.014	2055.65	1194.05
834.2021	748.0974	2062	1201
834.347	750.1802	2065.2	1204.55
834.492	752.2624	2057.7	1195.65
834.637	754.3439	2041.8	1178.05
834.782	756.4247	2041.9	1171.35
834.9269	758.5048	2046.25	1182.25
835.0719	760.5843	2072.15	1210.7
835.2169	762.6631	2105.7	1243.9
835.3619	764.7413	2168.4	1306.9
835.5069	766.8188	2269.6	1406.45
835.6519	768.8956	2355.75	1489.85
835.7969	770.9718	2421.3	1557.95
835.9419	773.0473	2404.85	1540.7
836.0869	775.1221	2362.45	1496.85
836.232	777.1962	2353.9	1489.15
836.377	779.2697	2416.4	1552.35
836.522	781.3426	2541.05	1660.95
836.667	783.4147	2604.8	1741
836.8121	785.4862	2594.1	1728.75
836.9571	787.557	2486.35	1621.5
837.1021	789.6271	2341.5	1475.3
837.2472	791.6966	2211.45	1346.8
837.3922	793.7654	2089.4	1221.95
837.5373	795.8335	2049	1183
837.6823	797.901	2011.55	1146.05
837.8274	799.9678	1998.8	1131.5
837.9724	802.0339	1994.95	1130.65
838.1175	804.0993	2008.55	1131.35
838.2626	806.1641	1999.2	1132.3
838.4076	808.2282	1974.2	1107.75
838.5527	810.2916	1945.65	1077.6
838.6978	812.3544	1934.8	1068.5
838.8428	814.4164	1925.1	1060.25
838.9879	816.4778	1938.95	1070.6
839.133	818.5385	1945.5	1078.05
839.2781	820.5986	1977.4	1109.2
839.4232	822.658	2044.45	1176
839.5682	824.7166	2110.85	1239.9
839.7133	826.7747	2205.05	1337.3
839.8584	828.832	2301.6	1430.7
840.0035	830.8886	2372.9	1501.1
840.1486	832.9446	2397.65	1525.2
840.2937	834.9999	2341.25	1473.15
840.4388	837.0545	2283.35	1409.45
840.5839	839.1085	2175.65	1305
840.729	841.1618	2092.85	1219.05
840.8741	843.2143	2032.55	1163.55
841.0192	845.2662	2007.5	1137.95
841.1643	847.3175	1986.5	1115.05
841.3095	849.368	1977.75	1103.9
841.4546	851.4179	1970.8	1100
841.5997	853.467	1959.3	1089.25
841.7448	855.5155	1975.3	1103.4
841.8899	857.5633	1977.85	1106.8
842.0351	859.6105	1973.45	1102.55
842.1802	861.6569	1957.7	1087.2
842.3253	863.7027	1935.05	1062.4
842.4704	865.7478	1930.45	1058.75
842.6156	867.7922	1913	1037.75
842.7607	869.8359	1905.55	1032
842.9058	871.8789	1902.5	1029.4
843.0509	873.9212	1931	1022.8
843.1961	875.9629	1918.65	1045.55
843.3412	878.0039	1922.55	1049.45
843.4863	880.0441	1940.05	1066
843.6315	882.0837	1958.95	1087.6
843.7766	884.1226	1999.75	1125.1
843.9218	886.1609	2025.45	1153.45
844.0669	888.1984	2077.55	1203.8
844.212	890.2352	2137.1	1266
844.3572	892.2714	2154.15	1276.1
844.5023	894.3069	2117.45	1242.75
844.6475	896.3416	2064.2	1187.85
844.7926	898.3757	2017.25	1140.05
844.9377	900.4091	1991.1	1114.7
845.0829	902.4418	2001.55	1119.8
845.228	904.4739	2017.65	1139.1
845.3732	906.5052	2034.6	1158.05
845.5183	908.5358	2018.3	1141.9
845.6635	910.5658	1993.25	1114.95
845.8086	912.595	1962.85	1086.5
845.9538	914.6236	1911.8	1036.9
846.0989	916.6515	1889.7	1011.8
846.2441	918.6786	1867.05	988.5
846.3892	920.7051	1860.6	981.85
846.5344	922.7309	1856.35	979.95
846.6795	924.756	1869.45	988.45
846.8246	926.7804	1865.9	987.85
846.9698	928.8041	1876.95	997.45
847.1149	930.8272	1895.1	1016.1
847.2601	932.8495	1905.55	1025.85
847.4052	934.8711	1916.6	1036.3
847.5504	936.892	1930.15	1050.45
847.6955	938.9123	1946.1	1063.3
847.8407	940.9318	1971.3	1094.5
847.9858	942.9506	1989.6	1108.7
848.131	944.9688	1981.6	1101.7
848.2761	946.9862	1949.25	1070
848.4213	949.003	1909.9	1030.55
848.5664	951.019	1887.5	1008.25
848.7115	953.0344	1865.65	986.95
848.8567	955.0491	1860.7	980.85
849.0018	957.063	1853	974.45
849.147	959.0763	1846.7	967
849.2921	961.0888	1845.6	963
849.4373	963.1007	1843.7	965.9
849.5824	965.1119	1838.85	961.35
849.7275	967.1223	1828.25	951.4
849.8727	969.1321	1817.05	941.55
850.0178	971.1412	1819.05	942.7
850.1629	973.1495	1814.35	936.15
850.3081	975.1572	1837.05	925.55
850.4532	977.1641	1819.65	938.7
850.5983	979.1704	1819.4	937.4
850.7435	981.1759	1808.65	925.9
850.8886	983.1808	1801.95	919.75
851.0337	985.1849	1810.2	916.75
851.1788	987.1884	1790.3	906.25
851.324	989.1911	1800.7	916.85
851.4691	991.1932	1815.95	935
851.6142	993.1945	1814.7	934.7
851.7593	995.1951	1811.6	927
851.9045	997.1951	1816.1	927.1
852.0496	999.1943	1805.8	926.55
852.1947	1001.1928	1808.25	927.15
852.3398	1003.1906	1824.2	941.25
852.4849	1005.1877	1849.15	967.35
852.63	1007.1841	1865.95	982.6
852.7751	1009.1798	1874.4	992.4
852.9202	1011.1748	1875.75	991.7
853.0653	1013.1691	1849.85	970.1
853.2104	1015.1627	1810.35	927.25
853.3555	1017.1556	1778	896.5
853.5006	1019.1477	1759.35	876.7
853.6457	1021.1392	1739.55	859.5
853.7908	1023.1299	1735.55	854.65
853.9359	1025.12	1735.25	857.3
854.081	1027.1093	1741.65	867.05
854.2261	1029.0979	1765.3	892.7
854.3712	1031.0859	1776.2	898.35
854.5163	1033.0731	1793.7	911.65
854.6613	1035.0596	1798.75	922.3
854.8064	1037.0454	1788.6	908.3
854.9515	1039.0304	1765.35	883.6
855.0965	1041.0148	1750	867.45
855.2416	1042.9985	1735.35	852
855.3867	1044.9814	1718.05	837.05
855.5317	1046.9636	1714.7	831
855.6768	1048.9452	1727.55	846.35
855.8219	1050.926	1743.85	861.7
855.9669	1052.9061	1759.9	879.1
856.112	1054.8855	1768.25	885.05
856.257	1056.8642	1768.05	884.05
856.4021	1058.8421	1772.2	884.4
856.5471	1060.8194	1758.9	876.85
856.6921	1062.7959	1764.05	880.15
856.8372	1064.7717	1761.2	878.25
856.9822	1066.7469	1759.95	875.85
857.1272	1068.7213	1759.45	870.6
857.2723	1070.695	1778.25	893.45
857.4173	1072.6679	1799.85	914.4
857.5623	1074.6402	1822.9	938.2
857.7073	1076.6117	1833.85	942
857.8523	1078.5826	1811.05	925
857.9973	1080.5527	1772.3	885.9
858.1423	1082.5221	1735.45	851.35
858.2873	1084.4908	1711.2	827.9
858.4323	1086.4587	1694.4	805.55
858.5773	1088.426	1685.25	798.3
858.7223	1090.3925	1682.65	794.65
858.8673	1092.3584	1687.55	805
859.0123	1094.3235	1703.95	820.15
859.1573	1096.2879	1717.35	830.45
859.3022	1098.2515	1751.25	866.65
859.4472	1100.2145	1770.7	888.6
859.5922	1102.1767	1817.15	929.45
859.7371	1104.1382	1857.85	973.25
859.8821	1106.099	1929	1041.4
860.027	1108.0591	1968.65	1082.55
860.172	1110.0185	2006.45	1119.4
860.3169	1111.9771	2054.3	1170.95
860.4619	1113.9351	2109.4	1223.7
860.6068	1115.8923	2174.75	1285.65
860.7517	1117.8488	2194.65	1305.95
860.8967	1119.8045	2138.95	1251.35
861.0416	1121.7596	2041.1	1154.8
861.1865	1123.7139	1938.3	1056
861.3314	1125.6675	1861.9	976.7
861.4763	1127.6204	1865.7	978.95
861.6212	1129.5726	1889.4	1004
861.7661	1131.524	1884.15	1000.4
861.911	1133.4748	1842.65	956.5
862.0559	1135.4248	1787.25	898.3
862.2008	1137.3741	1727.2	840.4
862.3457	1139.3226	1703.8	816.2
862.4905	1141.2705	1702.35	814.3
862.6354	1143.2176	1717.75	826.7
862.7803	1145.164	1718.1	831.3
862.9251	1147.1097	1713.3	826.3
863.07	1149.0546	1695.55	807.8
863.2148	1150.9989	1668.3	782.15
863.3597	1152.9424	1652.35	764.75
863.5045	1154.8852	1635.3	749.4
863.6493	1156.8272	1629.9	745.2
863.7942	1158.7686	1627.85	733.55
863.939	1160.7092	1629.45	742.95
864.0838	1162.6491	1633.45	744.55
864.2286	1164.5883	1642	756.85
864.3734	1166.5267	1664.5	777.15
864.5182	1168.4644	1702.2	814.65
864.663	1170.4014	1728.3	835.8
864.8078	1172.3377	1764.6	877.35
864.9526	1174.2732	1822.7	938.1
865.0974	1176.2081	1927.45	1039.05
865.2421	1178.1421	2059.25	1169.5
865.3869	1180.0755	2182.75	1295.8
865.5317	1182.0082	2252.15	1367.35
865.6764	1183.9401	2217.3	1331.1
865.8212	1185.8713	2112.1	1228.05
865.9659	1187.8017	1963.8	1081.8
866.1106	1189.7315	1858.3	975.8
866.2554	1191.6605	1802.65	892.95
866.4001	1193.5888	1729	845.75
866.5448	1195.5163	1703.5	818.35
866.6895	1197.4432	1688.4	802.3
866.8342	1199.3693	1663.55	778.8
866.9789	1201.2947	1649.25	757.45
867.1236	1203.2193	1639.35	752.65
867.2683	1205.1432	1641.1	752.6
867.413	1207.0664	1633.45	745.15
867.5576	1208.9889	1633.25	741.65
867.7023	1210.9106	1639.2	750.9
867.847	1212.8316	1633.6	748.45
867.9916	1214.7519	1658.05	762.25
868.1363	1216.6715	1661.4	775.95
868.2809	1218.5903	1679.45	791.4
868.4255	1220.5084	1700.3	811.55
868.5701	1222.4257	1713.75	826.2
868.7148	1224.3424	1719.75	831.5
868.8594	1226.2583	1752.9	858.8
869.004	1228.1735	1772.6	883.65
869.1486	1230.0879	1817.05	927.55
869.2932	1232.0016	1866.7	983.3
869.4377	1233.9146	1909.2	1020.8
869.5823	1235.8269	1923.7	1035.7
869.7269	1237.7384	1931.75	1045.35
869.8715	1239.6492	1929.6	1043.45
870.016	1241.5592	1953.2	1063.6
870.1606	1243.4686	2003.55	1115.55
870.3051	1245.3772	2067.7	1180.25
870.4496	1247.285	2171.8	1283.5
870.5941	1249.1922	2266.7	1378.2
870.7387	1251.0986	2334.95	1449.6
870.8832	1253.0042	2402.7	1515.7
871.0277	1254.9092	2510.1	1623.05
871.1722	1256.8134	2598.85	1713.7
871.3167	1258.7169	2676.8	1786.65
871.4611	1260.6196	2717.25	1829.8
871.6056	1262.5216	2721.95	1830.4
871.7501	1264.4229	2682.55	1796.45
871.8945	1266.3234	2673.95	1786.8
872.039	1268.2232	2611.9	1721.95
872.1834	1270.1223	2544.9	1655.75
872.3278	1272.0207	2519.3	1629.7
872.4723	1273.9183	2497.15	1601.1
872.6167	1275.8151	2499	1611.55
872.7611	1277.7113	2553.75	1666.1
872.9055	1279.6067	2632.4	1747.7
873.0499	1281.5014	2797.95	1907.6
873.1943	1283.3953	2987.55	2096.2
873.3386	1285.2885	3177.4	2291.3
873.483	1287.181	3306.95	2418.7
873.6274	1289.0727	3368.3	2480.7
873.7717	1290.9637	3313.4	2425.6
873.9161	1292.854	3215.65	2327.4
874.0604	1294.7435	3095.5	2205
874.2047	1296.6323	2970.55	2077.95
874.349	1298.5204	2885.55	1994.95
874.4933	1300.4077	2811.4	1921.85
874.6376	1302.2943	2748	1858.9
874.7819	1304.1802	2728.9	1840.7
874.9262	1306.0653	2684.3	1792.75
875.0705	1307.9497	2641.55	1754.7
875.2147	1309.8333	2597.35	1707.55
875.359	1311.7162	2576	1685.05
875.5032	1313.5984	2533.25	1641.95
875.6475	1315.4798	2514.25	1614.65
875.7917	1317.3605	2491.8	1598.9
875.9359	1319.2405	2484.55	1592.45
876.0801	1321.1197	2464.05	1573.3
876.2243	1322.9982	2402.9	1508.9
876.3685	1324.876	2319.65	1429.7
876.5127	1326.753	2220.15	1330.55
876.6569	1328.6293	2129.45	1238.4
876.801	1330.5048	2051.65	1159.2
876.9452	1332.3796	1971.45	1085.35
877.0893	1334.2537	1933.35	1015.55
877.2335	1336.127	1874.35	984.55
877.3776	1337.9996	1839.95	950.25
877.5217	1339.8714	1816.95	929.55
877.6658	1341.7426	1847.65	913.85
877.8099	1343.6129	1788.25	897.15
877.954	1345.4826	1768.55	876.85
878.0981	1347.3515	1759.6	867.2
878.2422	1349.2196	1745	853.5
878.3862	1351.087	1730.25	839.05
878.5303	1352.9537	1733.2	842.85
878.6743	1354.8197	1735.3	845.2
878.8184	1356.6849	1751.05	861.05
878.9624	1358.5493	1766.05	878.5
879.1064	1360.4131	1786	896.1
879.2504	1362.276	1831.05	940.9
879.3944	1364.1383	1870.8	982.2
879.5384	1365.9998	1882.4	987.4
879.6823	1367.8606	1870.75	979.15
879.8263	1369.7206	1857.05	969.65
879.9702	1371.5799	1860.5	968.4
880.1142	1373.4384	1841.3	948.4
880.2581	1375.2962	1823.45	931
880.402	1377.1533	1762.6	875.1
880.5459	1379.0096	1709.5	819.75
880.6898	1380.8652	1674.9	789.1
880.8337	1382.7201	1649.65	759.85
880.9776	1384.5742	1611.9	722.75
881.1215	1386.4275	1594.8	701.9
881.2653	1388.2802	1575.45	686.3
881.4092	1390.132	1565.7	673.8
881.553	1391.9832	1558.8	665.75
881.6968	1393.8336	1541.15	651.35
881.8406	1395.6832	1544.15	651.6
881.9844	1397.5322	1531.05	639.95
882.1282	1399.3803	1523.15	627.75
882.272	1401.2278	1512.85	622.9
882.4158	1403.0745	1503.05	612.8
882.5595	1404.9204	1488.75	602.3
882.7033	1406.7656	1497	608.8
882.847	1408.6101	1483.7	592.45
882.9908	1410.4538	1483.4	591.75
883.1345	1412.2968	1482.4	594.2
883.2782	1414.139	1490.75	600.1
883.4219	1415.9805	1496.8	607.95
883.5656	1417.8213	1511.95	617.6
883.7092	1419.6613	1529.15	636.75
883.8529	1421.5006	1555.35	665.1
883.9965	1423.3391	1594.45	704.85
884.1402	1425.1769	1654.85	762.55
884.2838	1427.0139	1730.9	841.45
884.4274	1428.8502	1819.65	929.25
884.571	1430.6858	1893.4	1004.3
884.7146	1432.5206	1915.4	1026.3
884.8582	1434.3547	1909.9	1018.85
885.0018	1436.188	1895.9	1007
885.1453	1438.0206	1874.9	985.4
885.2889	1439.8524	1855.8	964.95
885.4324	1441.6835	1848.5	959.6
885.5759	1443.5139	1863.15	969.75
885.7194	1445.3435	1862.35	973.9
885.8629	1447.1724	1868.45	977.95
886.0064	1449.0005	1868.2	979.65
886.1499	1450.8279	1844.9	954.35
886.2933	1452.6545	1850.85	960.9
886.4368	1454.4804	1853.55	964.9
886.5802	1456.3056	1833.4	937.7
886.7237	1458.13	1817	927.3
886.8671	1459.9536	1796.1	905.85
887.0105	1461.7766	1755.75	866.9
887.1539	1463.5987	1709.9	818
887.2972	1465.4202	1674	783.35
887.4406	1467.2409	1630.2	739.45
887.584	1469.0608	1600.65	710.55
887.7273	1470.88	1562.95	673.4
887.8706	1472.6984	1531.75	644.95
888.0139	1474.5161	1513.65	619.6
888.1572	1476.3331	1494.9	607.6
888.3005	1478.1493	1494.05	601.9
888.4438	1479.9648	1488.2	597.45
888.5871	1481.7795	1489.2	599.05
888.7303	1483.5935	1481.15	592.85
888.8736	1485.4067	1487.85	598.9
889.0168	1487.2192	1485.75	594.85
889.16	1489.031	1488.75	596.9
889.3032	1490.842	1487	597.35
889.4464	1492.6522	1482	592.95
889.5896	1494.4618	1481.05	590.6
889.7327	1496.2705	1480.1	589.9
889.8759	1498.0785	1464.7	576.2
890.019	1499.8858	1465.15	574.4
890.1622	1501.6924	1457.4	568.4
890.3053	1503.4981	1448.1	559
890.4484	1505.3032	1442	552.9
890.5914	1507.1075	1436.2	549.55
890.7345	1508.911	1433.65	543.15
890.8776	1510.7138	1427.9	539.1
891.0206	1512.5159	1420.55	530.25
891.1637	1514.3172	1408.7	519.95
891.3067	1516.1178	1402.55	515.7
891.4497	1517.9176	1401.25	507.8
891.5927	1519.7166	1395.8	506.5
891.7357	1521.515	1391.8	494.9
891.8786	1523.3126	1381.95	494.1
892.0216	1525.1094	1380.25	487.4
892.1645	1526.9055	1373.4	484.6
892.3074	1528.7008	1374	483.65
892.4503	1530.4954	1380	482.9
892.5932	1532.2893	1358.75	471.95
892.7361	1534.0824	1369.8	475.1
892.879	1535.8747	1353.15	463.25
893.0218	1537.6663	1364.5	474.6
893.1647	1539.4572	1364.45	474.85
893.3075	1541.2473	1366.2	475.85
893.4503	1543.0367	1356.35	468.55
893.5931	1544.8253	1365.3	473.05
893.7359	1546.6132	1369.3	476
893.8787	1548.4003	1382.65	483.5
894.0214	1550.1867	1390.15	492.65
894.1642	1551.9723	1389.9	497.4
894.3069	1553.7572	1404.1	513.85
894.4496	1555.5414	1425.75	535.95
894.5923	1557.3247	1450.8	561.25
894.735	1559.1074	1489.95	603.8
894.8777	1560.8893	1538.3	650.4
895.0204	1562.6705	1576.75	688.45
895.163	1564.4509	1597.75	711.3
895.3056	1566.2305	1602.7	716.4
895.4482	1568.0094	1605.8	719.6
895.5908	1569.7876	1605.4	719.2
895.7334	1571.565	1596.1	705.4
895.876	1573.3417	1599.6	712.7
896.0186	1575.1176	1599.2	710.9
896.1611	1576.8928	1622.35	736.4
896.3036	1578.6672	1645.1	761.1
896.4461	1580.4409	1675.3	791.7
896.5886	1582.2138	1699.65	811.65
896.7311	1583.986	1743.1	857.7
896.8736	1585.7575	1772.5	886.15
897.0161	1587.5282	1799.7	915.9
897.1585	1589.2981	1835.8	953.15
897.3009	1591.0673	1847	961
897.4433	1592.8358	1854.25	970.4
897.5857	1594.6035	1871.2	981.4
897.7281	1596.3704	1849.35	961.1
897.8705	1598.1366	1839.65	953.35
898.0128	1599.9021	1815.85	932.45
898.1551	1601.6668	1785.15	894.65
898.2975	1603.4308	1777.15	888.8
898.4398	1605.194	1783.3	891.3
898.5821	1606.9564	1811.65	925.85
898.7243	1608.7182	1874.85	985.15
898.8666	1610.4791	1948.55	1065.1
899.0088	1612.2394	2051.7	1167.6
899.1511	1613.9988	2149.4	1265.55
899.2933	1615.7576	2211.3	1328.15
899.4355	1617.5156	2248.35	1358.3
899.5776	1619.2728	2203.1	1317.55
899.7198	1621.0293	2120.8	1235.65
899.862	1622.785	2015.2	1124.05
900.0041	1624.54	1873.65	987.65
900.1462	1626.2942	1764.85	879.95
900.2883	1628.0477	1664.3	778.4
900.4304	1629.8005	1580.55	691.35
900.5725	1631.5525	1516.45	630.25
900.7145	1633.3037	1469.25	585.25
900.8566	1635.0542	1428.85	545.2
900.9986	1636.804	1387.7	503.45
901.1406	1638.553	1436.85	487.9
901.2826	1640.3013	1349.6	464.85
901.4245	1642.0488	1332.75	448
901.5665	1643.7955	1316.55	432.65
901.7085	1645.5416	1305	420.85
901.8504	1647.2868	1296.35	411.75
901.9923	1649.0313	1290.65	405.45
902.1342	1650.7751	1290.05	399.9
902.2761	1652.5181	1282	396.7
902.4179	1654.2604	1281.05	392.75
902.5598	1656.0019	1288.05	405.45
902.7016	1657.7427	1302	417.1
902.8434	1659.4828	1326.55	440.5
902.9852	1661.222	1350.3	463.7
903.127	1662.9606	1383.65	497.1
903.2687	1664.6984	1409.5	524.55
903.4105	1666.4354	1414.05	528.85
903.5522	1668.1717	1395.05	507.75
903.6939	1669.9072	1349.3	464.25
903.8356	1671.642	1306.45	419.05
903.9773	1673.3761	1265.7	378.3
904.119	1675.1094	1241.05	356.6
904.2606	1676.8419	1223.3	335.85
904.4022	1678.5737	1204.45	319.5
904.5439	1680.3048	1199.55	312
904.6855	1682.0351	1183.55	297
904.827	1683.7646	1189.9	299.9
904.9686	1685.4934	1180.35	293.4
905.1101	1687.2215	1177.25	290.25
905.2517	1688.9488	1167.1	282.3
905.3932	1690.6754	1167.85	281.65
905.5347	1692.4012	1168.45	281.75
905.6761	1694.1263	1159.45	273.6
905.8176	1695.8506	1159.75	274.1
905.9591	1697.5742	1152.85	268.55
906.1005	1699.297	1153.75	267.2
906.2419	1701.0191	1147.6	263.9
906.3833	1702.7404	1145.85	261.9
906.5246	1704.461	1144.4	258.75
906.666	1706.1808	1138.9	252.95
906.8073	1707.8999	1139.25	252.65
906.9487	1709.6182	1139.85	256.6
907.09	1711.3358	1136.4	250.45
907.2313	1713.0527	1129.65	245.65
907.3725	1714.7688	1134.3	246.5
907.5138	1716.4841	1133.55	246.95
907.655	1718.1987	1143.7	254.6
907.7962	1719.9126	1125.6	241.25
907.9374	1721.6257	1134.9	249.2
908.0786	1723.338	1124.05	238.75
908.2198	1725.0496	1126.2	242.65
908.3609	1726.7605	1131.3	246.55
908.502	1728.4706	1128.95	245.3
908.6431	1730.18	1124.4	235.85
908.7842	1731.8886	1126.35	243.25
908.9253	1733.5964	1143.8	240.25
909.0664	1735.3036	1123.35	237.75
909.2074	1737.0099	1115.1	230.95
909.3484	1738.7156	1120.3	236
909.4894	1740.4204	1122.3	235.95
909.6304	1742.1246	1111.95	226.3
909.7714	1743.8279	1121.85	237.05
909.9123	1745.5306	1115.3	230.4
910.0532	1747.2325	1113.95	230.7
910.1941	1748.9336	1117.45	233.2
910.335	1750.634	1116.4	228.15
910.4759	1752.3336	1118.25	232.65
910.6168	1754.0325	1114.45	232.05
910.7576	1755.7307	1114.7	230.4
910.8984	1757.4281	1114.2	230.75
911.0392	1759.1247	1120.5	227.1
911.18	1760.8206	1113.15	221
911.3208	1762.5158	1116.2	226.05
911.4615	1764.2102	1111.1	225.75
911.6022	1765.9039	1110.15	225.5
911.7429	1767.5968	1106.55	222.9
911.8836	1769.289	1105.95	221.55
912.0243	1770.9804	1106.85	223.45
912.1649	1772.6711	1108	220.65
912.3056	1774.361	1111.35	225.4
912.4462	1776.0502	1104.05	217.45
912.5868	1777.7386	1106.5	218.55
912.7274	1779.4263	1104.55	218.3
912.8679	1781.1132	1102.9	217.2
913.0084	1782.7994	1104.15	219.05
913.149	1784.4849	1099	216.85
913.2895	1786.1696	1117.3	213.55
913.4299	1787.8535	1099.35	216.1
913.5704	1789.5367	1094.85	212
913.7108	1791.2192	1097.3	213.95
913.8513	1792.9009	1123.9	212.7
913.9917	1794.5818	1100.65	215.15
914.132	1796.2621	1099.85	215.5
914.2724	1797.9415	1096	210.75
914.4128	1799.6202	1092.35	206.6
914.5531	1801.2982	1092.1	206.25
914.6934	1802.9755	1093	206.25
914.8337	1804.6519	1094.05	207.4
914.9739	1806.3277	1093.15	210.15
915.1142	1808.0027	1088.15	203.6
915.2544	1809.6769	1092.5	211.65
915.3946	1811.3504	1092.9	208.55
915.5348	1813.0231	1086.8	203.95
915.675	1814.6951	1086.8	203.75
915.8151	1816.3664	1085.75	199.55
915.9553	1818.0369	1088.05	202.2
916.0954	1819.7067	1086.8	202.15
916.2355	1821.3757	1087.65	200.85
916.3755	1823.044	1087.1	202.55
916.5156	1824.7115	1090.05	204.65
916.6556	1826.3783	1088.1	203.8
916.7956	1828.0443	1087.5	203.85
916.9356	1829.7096	1082	194.7
917.0756	1831.3741	1089.2	202.3
917.2155	1833.0379	1078.3	195.7
917.3555	1834.701	1082.2	199.75
917.4954	1836.3633	1084.85	200.15
917.6353	1838.0248	1084.4	199.1
917.7751	1839.6856	1078.65	193.8
917.915	1841.3457	1082.9	198
918.0548	1843.005	1082.75	197.15
918.1946	1844.6636	1076.55	191.8
918.3344	1846.3214	1081.3	197.7
918.4742	1847.9785	1081.75	198.4
918.6139	1849.6349	1080.35	192.65
918.7537	1851.2904	1088.5	195.95
918.8934	1852.9453	1081.65	195.9
919.0331	1854.5994	1078.15	192.05
919.1727	1856.2528	1080.05	190.7
919.3124	1857.9054	1076.7	192.45
919.452	1859.5572	1075.15	190.75
919.5916	1861.2083	1069.9	182.35
919.7312	1862.8587	1079.4	195.65
919.8708	1864.5084	1076.9	190.45
920.0103	1866.1572	1074.9	190.75
920.1498	1867.8054	1075.45	188.7
920.2893	1869.4528	1074.7	190.1
920.4288	1871.0994	1071.05	184.4
920.5683	1872.7453	1070.5	184.9
920.7077	1874.3905	1081.2	189.9
920.8471	1876.0349	1078.6	192.55
920.9865	1877.6786	1071.85	184.7
921.1259	1879.3215	1066.2	181.6
921.2653	1880.9637	1070.85	185.8
921.4046	1882.6051	1068.8	184.3
921.5439	1884.2458	1070.7	182.65
921.6832	1885.8858	1067.9	183.85
921.8225	1887.525	1070.4	184.75
921.9617	1889.1634	1065.9	180.55
922.101	1890.8011	1068.7	184.15
922.2402	1892.4381	1070.8	186.35
922.3794	1894.0743	1064.4	181.5
922.5185	1895.7098	1065.3	181.25
922.6577	1897.3446	1067.3	182.45
922.7968	1898.9786	1068.35	179.7
922.9359	1900.6118	1062.6	179.2
923.075	1902.2443	1064.1	178.25
923.214	1903.8761	1065.05	180.95
923.3531	1905.5071	1061.1	175.8
923.4921	1907.1374	1060.6	175.05
923.6311	1908.7669	1056.75	171.65
923.77	1910.3957	1065.1	180.95
923.909	1912.0237	1059.6	172.45
924.0479	1913.651	1060.9	176.65
924.1868	1915.2776	1057	173
924.3257	1916.9034	1054.2	172.7
924.4646	1918.5285	1055.65	173.25
924.6034	1920.1528	1058.85	173.85
924.7422	1921.7764	1052	166.9
924.881	1923.3992	1058.3	173.9
925.0198	1925.0213	1054.1	168.65
925.1586	1926.6427	1053.85	170.3
925.2973	1928.2633	1256.15	161.65
925.436	1929.8832	1058.45	170.75
925.5747	1931.5023	1050.05	165.1
925.7134	1933.1207	1051.7	165.95
925.852	1934.7383	1056.8	171.4
925.9906	1936.3552	1050.4	166
926.1292	1937.9714	1050.15	165.7
926.2678	1939.5868	1051.2	166.15
926.4064	1941.2015	1048.3	162.1
926.5449	1942.8154	1049.75	163.95
926.6834	1944.4286	1046.95	161
926.8219	1946.041	1069.5	160.9
926.9604	1947.6528	1048.45	157.2
927.0988	1949.2637	1045.85	161.5
927.2372	1950.8739	1047.55	162.9
927.3756	1952.4834	1046.9	162.3
927.514	1954.0921	1047.5	162.15
927.6523	1955.7001	1049.9	164.7
927.7907	1957.3074	1042.7	161.15
927.929	1958.9139	1038.45	154.1
928.0673	1960.5197	1045.6	159.95
928.2055	1962.1247	1042.8	158.3
928.3438	1963.729	1041.85	159.4
928.482	1965.3325	1048.95	159.4
928.6202	1966.9353	1044	160.2
928.7584	1968.5374	1041.8	159.25
928.8965	1970.1387	1041.6	158.55
929.0346	1971.7393	1040.05	156.45
929.1727	1973.3392	1037.65	154.85
929.3108	1974.9383	1039.05	157.6
929.4489	1976.5366	1037.35	154.75
929.5869	1978.1342	1035.95	153.1
929.7249	1979.7311	1035.1	152.3
929.8629	1981.3273	1037.25	153.55
930.0009	1982.9227	1033.8	150.55
930.1388	1984.5173	1034.8	152.05
930.2767	1986.1112	1033.4	150.7
930.4146	1987.7044	1032.4	152.6
930.5525	1989.2968	1035.1	151.7
930.6904	1990.8885	1040.25	153.5
930.8282	1992.4795	1034.3	152.8
930.966	1994.0697	1028.35	147.05
931.1038	1995.6592	1033.3	150.4
931.2415	1997.2479	1031.8	149.45
931.3793	1998.8359	1030.6	148.7
931.517	2000.4232	1028.8	148.3
931.6547	2002.0097	1029.3	148.55
931.7923	2003.5955	1027	147.25
931.93	2005.1805	1034.45	152.55
932.0676	2006.7648	1032.55	152.6
932.2052	2008.3484	1033.5	153.5
932.3427	2009.9312	1029.3	148.3
932.4803	2011.5133	1029.85	152.2
932.6178	2013.0946	1027.75	146.65
932.7553	2014.6752	1025.7	146.35
932.8928	2016.2551	1030.85	148.3
933.0302	2017.8342	1024.3	143.55
933.1676	2019.4126	1025.35	145.25
933.305	2020.9902	1027.05	148.05
933.4424	2022.5672	1029.25	147.45
933.5798	2024.1433	1030.45	144.4
933.7171	2025.7188	1028.9	150.55
933.8544	2027.2935	1026.4	146.2
933.9917	2028.8674	1024.7	146.8
934.129	2030.4406	1022.55	145.05
934.2662	2032.0131	1023.85	146.25
934.4034	2033.5849	1025.45	143
934.5406	2035.1559	1024.85	146.05
934.6778	2036.7261	1025.65	146.35
934.8149	2038.2957	1023.6	141.95
934.952	2039.8645	1022.9	141.55
935.0891	2041.4325	1029.25	146.8
935.2262	2042.9998	1023.45	143.8
935.3632	2044.5664	1024.95	142.75
935.5002	2046.1323	1023	143.35
935.6372	2047.6974	1019.1	138.4
935.7742	2049.2617	1020.85	142
935.9111	2050.8254	1047.25	143.3
936.048	2052.3883	1024.35	142.7
936.1849	2053.9504	1022.05	140.1
936.3218	2055.5118	1024.55	143.65
936.4586	2057.0725	1025.1	140.9
936.5955	2058.6325	1023	142.95
936.7323	2060.1917	1019.35	138.1
936.869	2061.7502	1022.55	141.1
937.0058	2063.3079	1022.1	144.25
937.1425	2064.8649	1025.55	142.3
937.2792	2066.4212	1024.35	142.15
937.4159	2067.9767	1017.9	135.35
937.5525	2069.5315	1019.25	139.65
937.6891	2071.0856	1021.2	139.55
937.8257	2072.6389	1020.95	140.3
937.9623	2074.1915	1017.6	140
938.0989	2075.7433	1017.1	135.3
938.2354	2077.2945	1016	138
938.3719	2078.8448	1018.9	136.9
938.5084	2080.3945	1023.4	142.75
938.6448	2081.9434	1019.15	136.3
938.7812	2083.4916	1022.15	141.95
938.9176	2085.039	1018.15	137.2
939.054	2086.5857	1018.8	135.35
939.1903	2088.1317	1023.8	141.9
939.3267	2089.677	1015.8	132.35
939.463	2091.2215	1019.6	134.75
939.5992	2092.7652	1019	135.3
939.7355	2094.3083	1022.45	138.3
939.8717	2095.8506	1017.6	137.75
940.0079	2097.3921	1019.75	137.15
940.1441	2098.933	1017.4	135.2
940.2802	2100.4731	1016.55	136.25
940.4163	2102.0124	1036.55	137.6
940.5524	2103.5511	1017.9	136.25
940.6885	2105.089	1018.35	138.2
940.8245	2106.6261	1012.45	132.5
940.9606	2108.1626	1019.05	137.55
941.0965	2109.6983	1043	131.2
941.2325	2111.2332	1018.05	135.95
941.3684	2112.7675	1018.6	137.1
941.5044	2114.301	1016.9	132.1
941.6403	2115.8337	1017.15	134.9
941.7761	2117.3657	1015.15	133.6
941.912	2118.897	1015.95	135.3
942.0478	2120.4276	1021.3	135.55
942.1835	2121.9575	1016.1	134.45
942.3193	2123.4866	1029.9	133.6
942.455	2125.0149	1020.35	135.15
942.5907	2126.5426	1012.2	132.4
942.7264	2128.0695	1021.35	137.25
942.8621	2129.5956	1008.6	129.55
942.9977	2131.1211	1017.3	133.7
943.1333	2132.6458	1012.35	130.45
943.2689	2134.1698	1013.35	132.5
943.4044	2135.693	1018.4	135
943.54	2137.2155	1018.4	133.8
943.6755	2138.7373	1014.25	133.45
943.8109	2140.2584	1012.3	133.25
943.9464	2141.7787	1017.35	131.95
944.0818	2143.2983	1012.95	136.1
944.2172	2144.8171	1007.15	129.2
944.3526	2146.3353	1010.7	130.25
944.4879	2147.8527	1007.6	128.85
944.6232	2149.3693	1014.35	134.5
944.7585	2150.8853	1008.35	126.2
944.8938	2152.4005	1011.55	130.45
945.029	2153.9149	1013.75	131.35
945.1642	2155.4287	1011.2	129.55
945.2994	2156.9417	1016.3	134.25
945.4346	2158.454	1013.95	133.15
945.5697	2159.9655	1011.4	132.9
945.7048	2161.4764	1009.45	129.45
945.8399	2162.9865	1012.15	132.15
945.9749	2164.4958	1010.8	129.25
946.1099	2166.0045	1008.45	125.6
946.2449	2167.5124	1008.5	127.9
946.3799	2169.0195	1007.45	127.7
946.5148	2170.526	1009.3	126.85
946.6498	2172.0317	1006.1	124.1
946.7846	2173.5367	1007.75	126
946.9195	2175.0409	1009.6	131.55
947.0543	2176.5445	1009.8	128.65
947.1891	2178.0473	1008.1	125.6
947.3239	2179.5494	1010.8	123.25
947.4587	2181.0507	1008.3	126.95
947.5934	2182.5513	1008.1	127.15
947.7281	2184.0512	1007.8	125.9
947.8628	2185.5504	1006.1	126
947.9974	2187.0488	1006.6	124.7
948.132	2188.5465	1008.1	127.5
948.2666	2190.0435	1006.8	127.5
948.4012	2191.5397	1004.3	122.3
948.5357	2193.0353	1005.05	122.95
948.6702	2194.5301	1005.55	124.2
948.8047	2196.0241	1009.9	127.25
948.9392	2197.5175	1007.6	128.3
949.0736	2199.0101	1005.6	118.85
949.208	2200.502	1004.8	124.5
949.3424	2201.9931	1004.6	124.2
949.4767	2203.4835	1001.25	120.85
949.611	2204.9733	1019.55	121.95
949.7453	2206.4622	1002.05	122.2
949.8796	2207.9505	1003.9	121.4
950.0138	2209.438	1003.25	124.65
950.148	2210.9248	1001.65	120.1
950.2822	2212.4109	1000.65	117.95
950.4164	2213.8962	1005.7	121
950.5505	2215.3809	1000.45	117.7
950.6846	2216.8648	999.8	118.05
950.8186	2218.3479	1005.1	118.1
950.9527	2219.8304	1004.55	119.25
951.0867	2221.3121	1004.55	119.25
951.2207	2222.7931	1000.9	119.15
951.3546	2224.2733	999.75	116.2
951.4886	2225.7529	1004.1	121.5
951.6225	2227.2317	1002.35	117.6
951.7563	2228.7098	999.2	119.05
951.8902	2230.1872	996.65	115.75
952.024	2231.6638	995.15	116.7
952.1578	2233.1397	1002.95	117.1
952.2916	2234.6149	996.7	118.5
952.4253	2236.0894	1001.35	120.3
952.559	2237.5632	1006.9	117.1
952.6927	2239.0362	994.45	113.75
952.8263	2240.5085	994.1	112.8
952.9599	2241.9801	993.85	113.9
953.0935	2243.4509	993.9	111
953.2271	2244.921	993.3	112.15
953.3606	2246.3904	997.3	113.65
953.4941	2247.8591	992.1	113.35
953.6276	2249.3271	992.95	112.6
953.7611	2250.7943	995.85	114.4
953.8945	2252.2608	992.7	110.3
954.0279	2253.7266	996.65	115.25
954.1612	2255.1917	992.25	111.05
954.2946	2256.656	991.15	108.75
954.4279	2258.1197	992.2	111.45
954.5612	2259.5826	991.25	109.35
954.6944	2261.0447	990.45	107
954.8276	2262.5062	988.25	103.8
954.9608	2263.9669	990.5	106.9
955.094	2265.4269	987.3	106.65
955.2271	2266.8862	988.95	109.3
955.3602	2268.3448	985.2	103.75
955.4933	2269.8026	988.85	109.3
955.6264	2271.2598	988.25	108.5
955.7594	2272.7162	990.7	110.8
955.8924	2274.1719	988.9	106.6
956.0253	2275.6268	988.05	106.3
956.1583	2277.0811	987.55	107.2
956.2912	2278.5346	986.3	106.2
956.4241	2279.9874	987.35	106.05
956.5569	2281.4395	988.85	109.35
956.6897	2282.8908	993.1	108.55
956.8225	2284.3414	992.5	110.55
956.9553	2285.7914	986.55	105.4
957.088	2287.2406	993.05	110.5
957.2207	2288.689	985.15	103.4
957.3534	2290.1368	989.45	107.3
957.486	2291.5838	988.7	102.75
957.6186	2293.0302	985.75	101.85
957.7512	2294.4758	988.25	106.95
957.8838	2295.9206	988.1	104.1
958.0163	2297.3648	986.9	105.6
958.1488	2298.8082	988.5	105.6
958.2813	2300.251	983.15	103.45
958.4137	2301.693	988.05	102.1
958.5461	2303.1343	988.4	105.5
958.6785	2304.5748	982.25	100.15
958.8108	2306.0147	985.35	103.65
958.9432	2307.4538	985.65	102.9
959.0754	2308.8922	983.55	103.2
959.2077	2310.3299	983.2	103.9
959.3399	2311.7669	982.9	101.35
959.4721	2313.2031	981.55	101.05
959.6043	2314.6387	983.35	102.05
959.7365	2316.0735	981.9	102.3
959.8686	2317.5076	985.1	107.05
960.0006	2318.941	980.4	99.25
960.1327	2320.3737	982.6	98.3
960.2647	2321.8056	986.1	103
960.3967	2323.2369	983.55	102.4
960.5287	2324.6674	990.4	107.25
960.6606	2326.0972	989.8	107.3
960.7925	2327.5263	988.7	106.35
960.9244	2328.9547	994.95	112.05
961.0562	2330.3823	991.45	109.65
961.1881	2331.8092	990.15	106.3
961.3198	2333.2355	982.3	100.05
961.4516	2334.661	979.3	96
961.5833	2336.0858	982.45	98.15
961.715	2337.5098	979.15	95.45
961.8467	2338.9332	981.25	99.45
961.9783	2340.3558	982.5	99.5
962.1099	2341.7778	978.35	96.35
962.2415	2343.199	978.4	94.6
962.373	2344.6195	979.25	97.75
962.5045	2346.0393	977.8	96.6
962.636	2347.4583	978.3	96.5
962.7675	2348.8767	982.05	96.9
962.8989	2350.2943	978.15	94.65
963.0303	2351.7113	981.25	96.15
963.1617	2353.1275	977.85	95.7
963.293	2354.543	1005.3	98.05
963.4243	2355.9578	980.05	95.7
963.5556	2357.3718	975.15	93.8
963.6868	2358.7852	976.1	90.75
963.818	2360.1978	976.85	95.6
963.9492	2361.6098	977.65	96.3
964.0803	2363.021	982.05	95.2
964.2114	2364.4315	976.85	96
964.3425	2365.8413	981.6	93.25
964.4736	2367.2504	976.4	95.55
964.6046	2368.6587	974.6	94.15
964.7356	2370.0664	975.9	94.3
964.8666	2371.4733	974.6	90.55
964.9975	2372.8795	974.5	93.2
965.1284	2374.285	974.45	91.45
965.2593	2375.6899	973.55	93.85
965.3901	2377.0939	971.9	89.15
965.5209	2378.4973	973.4	91.15
965.6517	2379.9	973.4	90.75
965.7825	2381.3019	973.2	93.35
965.9132	2382.7032	971.6	90.6
966.0439	2384.1037	968.4	88.5
966.1745	2385.5035	969.5	87.3
966.3051	2386.9027	972.2	91.15
966.4357	2388.3011	971.45	83.6
966.5663	2389.6987	971.75	88.25
966.6968	2391.0957	971.3	88.15
966.8273	2392.492	967.95	86.8
966.9578	2393.8876	969	88.55
967.0882	2395.2824	970.2	88.65
967.2186	2396.6765	971.7	89.45
967.349	2398.07	969.85	87.1
967.4793	2399.4627	970.4	86.15
967.6097	2400.8547	970.95	89.25
967.7399	2402.246	975.05	86.35
967.8702	2403.6366	970.15	87.35
968.0004	2405.0265	967.75	85.95
968.1306	2406.4156	970.75	85.5
968.2607	2407.8041	972.95	88.65
968.3909	2409.1918	968.95	81.3
968.521	2410.5789	968.9	86
968.651	2411.9652	970.1	82.8
968.781	2413.3508	965.4	79.4
968.911	2414.7358	965.25	83.95
969.041	2416.12	962.65	80.55
969.1709	2417.5035	964.95	82.65
969.3008	2418.8863	967.2	83.35
969.4307	2420.2684	965.3	81.05
969.5606	2421.6497	965.05	82.85
969.6904	2423.0304	967.85	84.85
969.8201	2424.4104	964.35	82.2
969.9499	2425.7896	972.4	82.25
970.0796	2427.1682	963.6	80.1
970.2093	2428.546	963.1	79.3
970.3389	2429.9232	963.95	79.85
970.4685	2431.2996	965.95	84.15
970.5981	2432.6753	964.95	84.5
970.7277	2434.0503	963.25	79.45
970.8572	2435.4246	964.2	81.65
970.9867	2436.7982	968.8	81.2
971.1161	2438.1711	960.25	78.05
971.2456	2439.5433	964.3	80.1
971.375	2440.9148	965.35	82.3
971.5043	2442.2856	961.05	79
971.6336	2443.6557	962.55	77.8
971.7629	2445.025	963.05	78.75
971.8922	2446.3937	961.05	79.4
972.0214	2447.7617	961.6	77.65
972.1506	2449.1289	962	80.75
972.2798	2450.4955	962.55	74.6
972.4089	2451.8613	961.9	80.45
972.538	2453.2265	959.1	78.8
972.6671	2454.5909	961.15	76.55
972.7961	2455.9546	960.65	78.8
972.9251	2457.3177	958.95	79.15
973.0541	2458.68	962.8	77.25
973.1831	2460.0416	960.95	79.1
973.312	2461.4025	959.05	76.4
973.4408	2462.7627	971.45	75.95
973.5697	2464.1222	957.9	77.45
973.6985	2465.4811	956.45	70.8
973.8273	2466.8392	958.35	76.65
973.956	2468.1966	958.45	73.95
974.0847	2469.5533	959.6	73.5
974.2134	2470.9093	958.5	76.45
974.3421	2472.2645	959.6	75.5
974.4707	2473.6191	957.05	76.8
974.5993	2474.973	956.05	73.35
974.7278	2476.3262	956.3	71.85
974.8563	2477.6787	959	78.5
974.9848	2479.0305	955.65	72.1
975.1132	2480.3816	960.3	76.75
975.2417	2481.7319	956.95	75.65
975.37	2483.0816	960.05	74.6
975.4984	2484.4306	959.75	77.75
975.6267	2485.7789	953.85	73.45
975.755	2487.1264	959.8	77.7
975.8833	2488.4733	954.4	73.85
976.0115	2489.8195	965.15	75.1
976.1397	2491.165	957.9	73.9
976.2678	2492.5097	958.9	75.45
976.3959	2493.8538	952.5	70.45
976.524	2495.1972	956.5	74.1
976.6521	2496.5398	956.85	70.1
976.7801	2497.8818	956.1	74.55
976.9081	2499.2231	956.85	73.65
977.036	2500.5637	956.25	70.25
977.164	2501.9035	954.15	71.4
977.2918	2503.2427	961	74.4
977.4197	2504.5812	952.65	71.6
977.5475	2505.919	957.65	73.85
977.6753	2507.256	954.4	71
977.8031	2508.5924	948.85	67.2
977.9308	2509.9281	958.3	69
978.0585	2511.2631	954.05	73.55
978.1861	2512.5974	951	69.1
978.3137	2513.9309	954.15	70.1
978.4413	2515.2638	976.8	66.95
978.5689	2516.596	951.15	70.55
978.6964	2517.9275	953.7	69.55
978.8239	2519.2583	950.35	67.35
978.9513	2520.5884	953.6	69.15
979.0788	2521.9178	950.6	70.1
979.2062	2523.2465	948.45	66.4
979.3335	2524.5745	951.1	71.4
979.4608	2525.9018	948.8	66.15
979.5881	2527.2284	950.85	69.7
979.7154	2528.5543	948.6	68.75
979.8426	2529.8796	947.6	64.05
979.9698	2531.2041	948.3	66.6
980.0969	2532.5279	951.65	69.25
980.224	2533.851	951	70.85
980.3511	2535.1735	951.35	69.8
980.4781	2536.4952	949.75	66.5
980.6052	2537.8163	951.3	68.4
980.7321	2539.1366	949.65	67.35
980.8591	2540.4562	948.7	63.2
980.986	2541.7752	946.85	63.25
981.1129	2543.0935	949.8	66.2
981.2397	2544.411	948.45	65.1
981.3665	2545.7279	945.05	62.75
981.4933	2547.0441	950	68.45
981.62	2548.3596	949.9	64.95
981.7467	2549.6744	945.85	63.7
981.8734	2550.9885	955.5	66.1
982.0001	2552.3019	946.15	64.65
982.1267	2553.6146	948.25	65.55
982.2532	2554.9266	947.05	64.65
982.3798	2556.2379	951.25	66.3
982.5063	2557.5485	944.35	63.95
982.6327	2558.8585	955.8	66.6
982.7592	2560.1677	950.4	64.5
982.8856	2561.4762	945.95	63.4
983.0119	2562.7841	948.8	64.05
983.1383	2564.0913	942.9	63.35
983.2646	2565.3977	942.8	60.75
983.3908	2566.7035	945.8	63.2
983.517	2568.0086	948.3	65.85
983.6432	2569.313	946.4	64.4
983.7694	2570.6167	947.65	60.1
983.8955	2571.9197	945.55	66.1
984.0216	2573.222	951.8	65.95
984.1476	2574.5236	944.55	64.55
984.2737	2575.8246	947.85	62.15
984.3996	2577.1248	950.9	65.9
984.5256	2578.4244	946.6	65.45
984.6515	2579.7232	944.5	61.5
984.7774	2581.0214	972.15	63.05
984.9032	2582.3189	942.8	62.15
985.029	2583.6157	950.8	64.35
985.1548	2584.9118	943.5	63.55
985.2806	2586.2072	941.65	58.15
985.4063	2587.5019	944	61.5
985.5319	2588.7959	943.1	60.1
985.6576	2590.0893	948.55	65.55
985.7832	2591.3819	942.95	62.3
985.9087	2592.6739	943.1	59.25
986.0343	2593.9652	945.5	62.15
986.1597	2595.2557	944.7	63
986.2852	2596.5456	947	63.4
986.4106	2597.8348	947.5	67.4
986.536	2599.1234	943.8	63.25
986.6614	2600.4112	946.5	64.15
986.7867	2601.6983	948.35	62.2
986.912	2602.9848	946.75	64.1
987.0372	2604.2705	952.9	65.8
987.1624	2605.5556	943.6	60.35
987.2876	2606.84	946.15	63.5
987.4128	2608.1237	945.65	60.85
987.5379	2609.4067	944.15	61.7
987.6629	2610.689	952.65	65.75
987.788	2611.9707	951	67.55
987.913	2613.2516	946.05	61.5
988.0379	2614.5319	941.25	60.8
988.1629	2615.8115	941.85	57.65
988.2878	2617.0903	945.95	62.8
988.4126	2618.3685	943.25	60.95
988.5375	2619.6461	942.85	62.65
988.6622	2620.9229	940.75	58.45
988.787	2622.199	941.4	58.3
988.9117	2623.4745	942.6	59.6
989.0364	2624.7493	940.4	59.75
989.161	2626.0234	936.95	54.55
989.2857	2627.2968	940.4	58.55
989.4102	2628.5695	940.2	57.4
989.5348	2629.8415	939.75	58.05
989.6593	2631.1128	940.25	56.5
989.7837	2632.3835	937.7	56.05
989.9082	2633.6535	938.6	56.1
990.0326	2634.9228	938.7	56.65
990.1569	2636.1914	941.8	61.45
990.2812	2637.4593	945.3	57.65
990.4055	2638.7265	938.85	55
990.5298	2639.9931	936.85	54.55
990.654	2641.259	939.3	55.2
990.7782	2642.5242	937.7	55.65
990.9023	2643.7887	938.55	57
991.0264	2645.0525	939.15	58.2
991.1505	2646.3156	936.35	53.6
991.2745	2647.5781	937.7	56.75
991.3985	2648.8398	935.1	52.4
991.5225	2650.1009	945.05	54.8
991.6464	2651.3613	938.25	56.6
991.7703	2652.6211	937.75	56.5
991.8942	2653.8801	936.05	56.5
992.018	2655.1385	937.3	52.5
992.1418	2656.3961	933.7	51.95
992.2655	2657.6531	937.5	55.85
992.3892	2658.9094	936.85	53.5
992.5129	2660.1651	935.2	54.3
992.6366	2661.42	936.2	53.05
992.7602	2662.6743	934.8	53.45
992.8837	2663.9279	934.9	52.3
993.0073	2665.1808	936.3	53.75
993.1307	2666.433	937.5	53.15
993.2542	2667.6846	937.35	56
993.3776	2668.9354	940.5	56
993.501	2670.1856	934.6	52.75
993.6244	2671.4351	936.15	55.1
993.7477	2672.6839	936.65	55.85
993.8709	2673.9321	936	55.6
993.9942	2675.1795	936.3	54.1
994.1174	2676.4263	937	54.8
994.2405	2677.6724	936.05	54.55
994.3637	2678.9179	937.5	55.25
994.4868	2680.1626	936.5	57.7
994.6098	2681.4067	937.8	55
994.7328	2682.6501	937.9	56.35
994.8558	2683.8928	936.15	56.1
994.9788	2685.1348	934.4	56.4
995.1017	2686.3761	934.4	53.9
995.2245	2687.6168	931.15	49.55
995.3474	2688.8568	935.4	54.8
995.4702	2690.0961	931.2	51.1
995.5929	2691.3348	933.5	50.5
995.7156	2692.5727	931.4	50.4
995.8383	2693.81	932.75	51.9
995.961	2695.0466	931.5	51.35
996.0836	2696.2826	933.85	50.9
996.2062	2697.5178	951.45	52.55
996.3287	2698.7524	932.8	52.45
996.4512	2699.9863	933.4	48.3
996.5737	2701.2195	931.7	50.65
996.6961	2702.452	935.75	52.6
996.8185	2703.6839	934.1	53.5
996.9408	2704.9151	929.95	48.55
997.0631	2706.1456	933.45	53.35
997.1854	2707.3755	935.05	54.75
997.3077	2708.6046	938.15	53.95
997.4299	2709.8331	934.55	54.4
997.552	2711.0609	938.45	55.5
997.6742	2712.2881	933.35	50.8
997.7963	2713.5145	936.7	51.8
997.9183	2714.7403	937.35	56.95
998.0403	2715.9654	936.85	53.25
998.1623	2717.1899	953.05	58.4
998.2842	2718.4136	938	56.2
998.4062	2719.6367	940	57.85
998.528	2720.8591	947.7	60.55
998.6498	2722.0809	944.3	64.1
998.7716	2723.3019	945	58.85
998.8934	2724.5223	943.4	61.2
999.0151	2725.7421	942.5	59.9
999.1368	2726.9611	946.05	61.15
999.2584	2728.1795	945.1	58.9
999.38	2729.3972	938.95	56.85
999.5016	2730.6142	943.9	56.35
999.6231	2731.8306	938.3	54
999.7446	2733.0462	939.55	56.45
999.8661	2734.2612	939.95	55.4
999.9875	2735.4756	936.35	53.2
1000.1089	2736.6892	937.5	55.25
1000.2302	2737.9022	931.3	51.05
1000.3515	2739.1145	933.4	51.65
1000.4728	2740.3262	941.45	52.85
1000.594	2741.5372	931.2	50.85
1000.7152	2742.7475	929.2	48.15
1000.8363	2743.9571	931	47.85
1000.9575	2745.1661	934.25	49.6
1001.0785	2746.3744	929.75	47.15
1001.1996	2747.582	927.45	48
1001.3206	2748.7889	927.7	44.6
1001.4415	2749.9952	926.1	45.5
1001.5625	2751.2008	927.3	45.4
1001.6833	2752.4057	929	47.05
1001.8042	2753.61	925.5	43.75
1001.925	2754.8136	925.9	41.85
1002.0458	2756.0165	925.35	44.8
1002.1665	2757.2188	923.75	43.45
1002.2872	2758.4204	924.25	44.05
1002.4078	2759.6213	925.45	40.4
1002.5285	2760.8215	929.35	43.15
1002.649	2762.0211	927.1	45.95
1002.7696	2763.22	925.65	41.4
1002.8901	2764.4182	926.9	47.4
1003.0106	2765.6158	922.1	40.95
1003.131	2766.8127	923	42.6
1003.2514	2768.009	923.55	42.35
1003.3717	2769.2045	922.7	40.7
1003.492	2770.3994	924.9	42.1
1003.6123	2771.5936	922.7	40.9
1003.7325	2772.7872	922.05	42.15
1003.8527	2773.9801	925.5	44.65
1003.9729	2775.1723	938.3	42.75
1004.093	2776.3639	921.6	43.45
1004.2131	2777.5548	924.15	40.55
1004.3331	2778.745	922.55	40.65
1004.4531	2779.9346	922.65	42.9
1004.5731	2781.1235	921.55	40.3
1004.693	2782.3117	922.65	42.9
1004.8129	2783.4992	921.75	43.15
1004.9328	2784.6861	922.9	43.05
1005.0526	2785.8723	924.8	43.25
1005.1723	2787.0579	922.1	42.3
1005.2921	2788.2428	919.3	39.95
1005.4118	2789.427	919.8	39.9
1005.5314	2790.6106	921.3	38.65
1005.651	2791.7935	920.8	41.2
1005.7706	2792.9757	920	41.35
1005.8902	2794.1573	925.05	41.85
1006.0097	2795.3382	922.35	42.25
1006.1291	2796.5184	922.1	43.8
1006.2485	2797.698	922.45	40.8
1006.3679	2798.8769	921.65	42.1
1006.4873	2800.0551	922.9	41.3
1006.6066	2801.2327	927.45	45.2
1006.7258	2802.4096	922.75	41.65
1006.8451	2803.5859	923.45	42.05
1006.9642	2804.7615	925.35	44.05
1007.0834	2805.9364	924.85	46.35
1007.2025	2807.1106	924.6	46.55
1007.3216	2808.2842	926.65	45.25
1007.4406	2809.4572	928	46.6
1007.5596	2810.6294	931.6	48.65
1007.6785	2811.801	929.8	48.9
1007.7975	2812.972	930.5	51.95
1007.9163	2814.1423	933.4	52.35
1008.0352	2815.3119	937.55	55.9
1008.154	2816.4808	935.1	54.6
1008.2727	2817.6491	940.35	58.35
1008.3914	2818.8167	945	65.7
1008.5101	2819.9837	954.9	70.95
1008.6288	2821.15	956.5	77.6
1008.7474	2822.3157	959.6	79.6
1008.8659	2823.4807	970.75	90.35
1008.9844	2824.645	977.7	96.6
1009.1029	2825.8086	979.9	99.8
1009.2214	2826.9716	985	106.35
1009.3398	2828.134	994.75	113.95
1009.4581	2829.2957	1005.15	124.95
1009.5764	2830.4567	1010.6	133.1
1009.6947	2831.617	1019.4	139.15
1009.813	2832.7767	1012.25	130.75
1009.9312	2833.9358	1016.7	138.5
1010.0493	2835.0941	1020.15	136.2
1010.1675	2836.2519	1014.35	134.8
1010.2855	2837.4089	1013.55	132.85
1010.4036	2838.5653	1004.05	124.8
1010.5216	2839.7211	1001.7	121.1
1010.6396	2840.8761	998.5	118.95
1010.7575	2842.0306	995.3	118.9
1010.8754	2843.1843	993.85	113.5
1010.9932	2844.3374	997.25	117.75
1011.111	2845.4899	1002.95	121.55
1011.2288	2846.6417	1003.1	124.45
1011.3465	2847.7928	1006.05	126.4
1011.4642	2848.9433	1002.25	121.55
1011.5818	2850.0931	1005.15	125.6
1011.6995	2851.2422	1007.8	125.75
1011.817	2852.3907	1009.35	127.6
1011.9345	2853.5385	1013.4	133.8
1012.052	2854.6857	1035.6	128.3
1012.1695	2855.8323	1014.4	137.15
1012.2869	2856.9781	1020.75	141.3
1012.4042	2858.1233	1019.05	141.15
1012.5216	2859.2679	1025.15	144.8
1012.6389	2860.4118	1031.1	149.9
1012.7561	2861.555	1035.4	151
1012.8733	2862.6976	1036.9	155.6
1012.9905	2863.8395	1037.2	156.75
1013.1076	2864.9808	1034.1	153.6
1013.2247	2866.1214	1037.7	159.45
1013.3417	2867.2614	1041.1	160.1
1013.4587	2868.4007	1040.85	162.1
1013.5757	2869.5393	1047.85	167.25
1013.6926	2870.6773	1047.7	166.9
1013.8095	2871.8146	1049.1	165.05
1013.9263	2872.9513	1051.15	169.85
1014.0431	2874.0874	1052.15	173.15
1014.1599	2875.2227	1048.65	167.65
1014.2766	2876.3574	1049.6	169.75
1014.3933	2877.4915	1056.95	178.65
1014.51	2878.6249	1058.65	177.65
1014.6266	2879.7577	1061.2	182.25
1014.7431	2880.8898	1075.35	184.1
1014.8596	2882.0212	1065.95	189.75
1014.9761	2883.152	1064.65	185.3
1015.0925	2884.2821	1064.45	185.25
1015.2089	2885.4116	1068.75	190.45
1015.3253	2886.5405	1074.6	193.5
1015.4416	2887.6686	1078.95	195.15
1015.5579	2888.7962	1079.65	201.55
1015.6741	2889.923	1078.2	198.7
1015.7903	2891.0493	1072.8	193.95
1015.9065	2892.1748	1070.85	188.9
1016.0226	2893.2997	1075.9	194.65
1016.1387	2894.424	1068.05	190.9
1016.2547	2895.5476	1069.6	188.6
1016.3707	2896.6706	1076	197.45
1016.4866	2897.7929	1071.6	190.5
1016.6025	2898.9145	1074.55	193.9
1016.7184	2900.0355	1072.95	191.25
1016.8342	2901.1559	1075.6	196.05
1016.95	2902.2756	1073.2	189.5
1017.0658	2903.3946	1070.4	190.2
1017.1815	2904.513	1071.8	190.2
1017.2971	2905.6308	1070.95	190.35
1017.4127	2906.7479	1081.5	198.75
1017.5283	2907.8643	1074.95	195.95
1017.6439	2908.9801	1072.4	193.8
1017.7594	2910.0953	1069.9	193.75
1017.8748	2911.2098	1071.95	191.25
1017.9902	2912.3236	1080.5	192.45
1018.1056	2913.4368	1069.35	188.15
1018.2209	2914.5494	1064.45	185.95
1018.3362	2915.6613	1071.3	186.1
1018.4515	2916.7725	1068	184.35
1018.5667	2917.8831	1063.8	183.9
1018.6819	2918.9931	1060.55	177.4
1018.797	2920.1024	1054.75	175.7
1018.9121	2921.211	1054.45	175.2
1019.0271	2922.319	1052.85	174.3
1019.1421	2923.4264	1050.35	170.5
1019.2571	2924.5331	1048.55	171.1
1019.372	2925.6391	1048.55	170.65
1019.4869	2926.7445	1046.85	166.9
1019.6017	2927.8493	1050.3	170.95
1019.7165	2928.9534	1052.05	171.05
1019.8313	2930.0569	1053.1	170.75
1019.946	2931.1597	1052.4	172.95
1020.0606	2932.2619	1055.6	177.3
1020.1753	2933.3634	1057.55	179.25
1020.2899	2934.4643	1062.65	177.3
1020.4044	2935.5645	1065.4	178.4
1020.5189	2936.6641	1061.95	177.85
1020.6334	2937.763	1058.45	179.2
1020.7478	2938.8613	1055.75	176.8
1020.8622	2939.959	1062.85	178.5
1020.9765	2941.056	1051.05	173.2
1021.0908	2942.1523	1046.2	167.75
1021.2051	2943.248	1032.65	153.65
1021.3193	2944.3431	1031.8	151.9
1021.4334	2945.4375	1018.85	140.35
1021.5476	2946.5313	1014.7	135.6
1021.6617	2947.6244	1009.4	129.35
1021.7757	2948.7169	998.8	119.85
1021.8897	2949.8087	993.95	116.65
1022.0037	2950.8999	987.2	105.6
1022.1176	2951.9904	983.5	104.15
1022.2315	2953.0803	980.15	100.25
1022.3453	2954.1696	975.05	96.15
1022.4591	2955.2582	969.3	91.9
1022.5728	2956.3462	969.2	89.25
1022.6865	2957.4335	966.6	86.95
1022.8002	2958.5202	969	90.1
1022.9138	2959.6062	969.4	92.15
1023.0274	2960.6916	967.65	89
1023.141	2961.7764	964.4	83.25
1023.2545	2962.8605	965.9	85.85
1023.3679	2963.9439	964.2	85.35
1023.4813	2965.0267	965.75	85.2
1023.5947	2966.1089	989	89
1023.708	2967.1905	962.1	84.2
1023.8213	2968.2714	960.9	80.85
1023.9346	2969.3516	962.5	84.6
1024.0478	2970.4312	966.5	77.45
1024.1609	2971.5102	961.2	82.25
1024.274	2972.5885	960.9	81.5
1024.3871	2973.6662	966.3	82.95
1024.5002	2974.7432	963.6	87.05
1024.6132	2975.8196	964.35	84.7
1024.7261	2976.8954	963.45	85.5
1024.839	2977.9705	964	86.35
1024.9519	2979.045	961.95	84.4
1025.0647	2980.1188	959.95	81.25
1025.1775	2981.192	961.25	84.25
1025.2902	2982.2645	961.55	81.2
1025.4029	2983.3364	957.65	80.1
1025.5156	2984.4077	955.1	76.2
1025.6282	2985.4783	963.1	80.3
1025.7407	2986.5483	951.95	73.2
1025.8532	2987.6177	948.65	70.45
1025.9657	2988.6864	946.1	66.2
1026.0782	2989.7545	947.1	66.2
1026.1906	2990.8219	941.2	63.3
1026.3029	2991.8887	940.7	60.5
1026.4152	2992.9548	938.8	58.05
1026.5275	2994.0204	933.45	54.45
1026.6397	2995.0852	928.4	50.45
1026.7519	2996.1495	927.3	45.35
1026.864	2997.2131	928.45	48.65
1026.9761	2998.276	923.7	44.1
1027.0882	2999.3383	924.05	46.95
1027.2002	3000.4	920.25	39.4
1027.3122	3001.4611	921.45	41.9
1027.4241	3002.5215	916.7	36.7
1027.536	3003.5812	913.8	34.05
1027.6478	3004.6404	914.7	36.85
1027.7596	3005.6989	915.1	33.9
1027.8714	3006.7567	912.4	33.7
1027.9831	3007.8139	944.35	35.35
1028.0947	3008.8705	911.75	33.3
1028.2064	3009.9264	913	31.55
1028.3179	3010.9818	909.95	32.25
1028.4295	3012.0364	907.35	28.9
1028.541	3013.0905	907.8	29.35
1028.6524	3014.1439	907.55	26.15
1028.7638	3015.1966	908.9	30.3
1028.8752	3016.2487	908.95	31.45
1028.9865	3017.3002	913.35	29.4
1029.0978	3018.3511	905.8	29.65
1029.209	3019.4013	907.45	28.2
1029.3202	3020.4509	904.3	27.15
1029.4314	3021.4998	904.1	25.95
1029.5425	3022.5481	904.95	23.65
1029.6535	3023.5958	905.9	28.95
1029.7645	3024.6428	907.6	27.9
1029.8755	3025.6892	904.7	25.85
1029.9864	3026.735	905.95	28.25
1030.0973	3027.7802	904.15	25.25
1030.2082	3028.8247	905.2	26.55
1030.319	3029.8685	904.95	24.4
1030.4297	3030.9118	905.2	27.1
1030.5404	3031.9544	905.05	26.7
1030.6511	3032.9963	902.9	24.85
1030.7617	3034.0376	906.85	28.8
1030.8723	3035.0783	908.65	28.45
1030.9829	3036.1184	908.15	28.4
1031.0934	3037.1578	904.65	28.25
1031.2038	3038.1966	908.2	29.15
1031.3142	3039.2348	903.4	24.35
1031.4246	3040.2723	914.15	26.2
1031.5349	3041.3092	903.5	27.5
1031.6452	3042.3455	903.6	24.8
1031.7554	3043.3811	903.85	23.35
1031.8656	3044.4161	902.95	24.3
1031.9758	3045.4505	903.6	23.65
1032.0859	3046.4842	905.1	26.65
1032.1959	3047.5173	905.4	29.25
1032.3059	3048.5498	906.25	27
1032.4159	3049.5816	905.3	28.75
1032.5258	3050.6128	902.8	24.45
1032.6357	3051.6434	904.8	25.95
1032.7455	3052.6734	905.85	28.4
1032.8553	3053.7027	907.35	28.65
1032.9651	3054.7314	907.55	29.4
1033.0748	3055.7594	906.95	28.95
1033.1845	3056.7868	907.05	27.05
1033.2941	3057.8136	905.85	25.85
1033.4037	3058.8398	907.55	28.65
1033.5132	3059.8653	907.7	29.45
1033.6227	3060.8902	905.35	25.35
1033.7321	3061.9145	906.25	28.6
1033.8415	3062.9381	908.3	30.7
1033.9509	3063.9612	926.1	32
1034.0602	3064.9835	907.3	29.45
1034.1694	3066.0053	907.4	26.05
1034.2787	3067.0264	907.8	28.7
1034.3878	3068.0469	909.05	29.85
1034.497	3069.0668	910.85	28.75
1034.6061	3070.086	904.55	27.4
1034.7151	3071.1046	909.15	30.8
1034.8241	3072.1226	905.9	24.85
1034.9331	3073.1399	904.6	27.5
1035.042	3074.1567	906.75	26.95
1035.1508	3075.1727	907.65	27.3
1035.2597	3076.1882	903.7	26.2
1035.3684	3077.203	905.2	28.05
1035.4772	3078.2173	905.05	25.95
1035.5859	3079.2308	906	24.45
1035.6945	3080.2438	903.6	22.6
1035.8031	3081.2561	901.8	23.05
1035.9117	3082.2678	900.9	22.45
1036.0202	3083.2789	899.9	21.85
1036.1286	3084.2893	900.55	22.2
1036.2371	3085.2991	900.05	20.05
1036.3454	3086.3083	902.55	19.9
1036.4538	3087.3169	900.95	21.7
1036.562	3088.3248	901.1	21.65
1036.6703	3089.3321	899.4	16.65
1036.7785	3090.3388	896.7	18.85
1036.8866	3091.3449	898.9	20
1036.9948	3092.3503	900.45	21.1
1037.1028	3093.3551	896.45	20.1
1037.2108	3094.3593	898.35	22.4
1037.3188	3095.3629	897.2	18.8
1037.4267	3096.3658	897	17.9
1037.5346	3097.3681	896.75	18.1
1037.6425	3098.3698	899.9	20.95
1037.7503	3099.3708	898.35	19.05
1037.858	3100.3713	896	19.95
1037.9657	3101.3711	895.1	14.25
1038.0734	3102.3702	1030.25	16.4
1038.181	3103.3688	898.25	17.65
1038.2886	3104.3667	894.55	16.6
1038.3961	3105.364	894.6	16.4
1038.5036	3106.3607	894.9	12.6
1038.611	3107.3568	896.35	17.5
1038.7184	3108.3522	892.05	15.1
1038.8257	3109.347	894.9	13.95
1038.933	3110.3412	900.5	19.45
1039.0403	3111.3348	893	16.05
1039.1475	3112.3277	892.9	15.6
1039.2547	3113.32	889.65	12.15
1039.3618	3114.3117	891.9	13.15
1039.4689	3115.3028	891.15	11.85
1039.5759	3116.2932	893.4	14
1039.6829	3117.2831	900.1	14.9
1039.7898	3118.2723	894.05	16.05
1039.8967	3119.2608	892.25	12.95
1040.0035	3120.2488	892.5	14.95
1040.1103	3121.2361	892.5	12.05
1040.2171	3122.2229	892.2	13.7
1040.3238	3123.209	893.35	14.5
1040.4305	3124.1944	890.45	13
1040.5371	3125.1793	891.65	13.65
1040.6437	3126.1635	889.5	11.2
1040.7502	3127.1471	890.1	14.15
1040.8567	3128.1301	890.3	11.2
1040.9631	3129.1125	891.05	12.9
1041.0695	3130.0942	890.15	10.55
1041.1759	3131.0753	898.65	11.5
1041.2822	3132.0558	893.35	12.45
1041.3884	3133.0357	892.2	12.1
1041.4946	3134.015	890.4	12.15
1041.6008	3134.9936	890.6	9.2
1041.7069	3135.9716	909.3	13.6
1041.813	3136.949	888.25	9.85
1041.919	3137.9258	907.5	10.95
1042.025	3138.902	897.25	12.2
1042.1309	3139.8775	890.65	10.85
1042.2368	3140.8524	888.5	10.65
1042.3427	3141.8267	889.85	7.2
1042.4485	3142.8004	888.25	7.65
1042.5542	3143.7735	896	11.15
1042.6599	3144.7459	893.25	14.2
1042.7656	3145.7178	889.15	9.35
1042.8712	3146.689	887.35	9.5
1042.9768	3147.6596	890.2	10.8
1043.0823	3148.6295	889.2	10.65
1043.1878	3149.5989	890.65	13
1043.2932	3150.5676	888.35	10.4
1043.3986	3151.5357	886.3	8.55
1043.5039	3152.5032	887.75	9.2
1043.6092	3153.4701	890.75	13.6
1043.7145	3154.4364	892.4	11.2
1043.8197	3155.402	887.1	10.15
1043.9248	3156.367	887.9	8.25
1044.03	3157.3315	925.4	11.2
1044.135	3158.2952	888.55	10.25
1044.24	3159.2584	886.7	6.9
1044.345	3160.221	890.25	12.1
1044.4499	3161.1829	889.15	10.95
1044.5548	3162.1442	887	7.45
1044.6596	3163.105	887.85	10.7
1044.7644	3164.065	889.8	9.25
1044.8692	3165.0245	889.9	8.9
1044.9739	3165.9834	887.1	11.9
1045.0785	3166.9416	887.75	9.95
1045.1831	3167.8993	886.8	9.6
1045.2877	3168.8563	888.55	8.6
1045.3922	3169.8127	888.15	10.85
1045.4966	3170.7684	886.95	8.9
1045.6011	3171.7236	889.55	8.65
1045.7054	3172.6782	885.25	7.2
1045.8098	3173.6321	887	7.95
1045.914	3174.5854	894.25	12.65
1046.0183	3175.5381	887.5	8.5
1046.1224	3176.4902	885.1	8.7
1046.2266	3177.4417	886.6	9.4
1046.3307	3178.3926	887.8	9.6
1046.4347	3179.3428	886.25	9.2
1046.5387	3180.2924	887.9	8.05
1046.6427	3181.2415	886.1	5.9
1046.7466	3182.1899	888.55	10.65
1046.8504	3183.1377	887.1	7.95
1046.9542	3184.0848	890.15	11.3
1047.058	3185.0314	888.75	11.4
1047.1617	3185.9773	886.6	7.3
1047.2654	3186.9227	885.6	8.3
1047.369	3187.8674	886.9	8
1047.4726	3188.8115	891.6	8.85
1047.5761	3189.755	888.25	9.35
1047.6796	3190.6979	885.75	8
1047.783	3191.6402	885.9	7.9
1047.8864	3192.5818	886.65	8.35
1047.9898	3193.5229	910.1	8.9
1048.0931	3194.4633	885.35	5.35
1048.1963	3195.4031	885.7	8.4
1048.2995	3196.3423	886.75	7.15
1048.4027	3197.2809	886.25	6.25
1048.5058	3198.2189	884.75	4
1048.6089	3199.1563	890.9	8.05
1048.7119	3200.0931	885.1	7
1048.8148	3201.0292	885.55	11.75
1048.9178	3201.9648	885.6	6.75
1049.0206	3202.8997	886.85	7.7
1049.1235	3203.834	884.95	7.25
1049.2262	3204.7677	883.55	6.5
1049.329	3205.7008	886.55	7.4
1049.4317	3206.6333	885.1	8.95
1049.5343	3207.5652	886.1	6.2
1049.6369	3208.4964	886.7	9.35
1049.7394	3209.4271	883.25	4.15
1049.8419	3210.3571	885.25	7.45
1049.9444	3211.2865	884.65	7.3
1050.0468	3212.2154	886.6	6.8
1050.1491	3213.1436	889.1	8.75
1050.2514	3214.0712	891.05	7.3
1050.3537	3214.9982	883.35	5.1
1050.4559	3215.9246	887.35	9.15
1050.5581	3216.8503	883.7	5.65
1050.6602	3217.7755	887.05	9.65
1050.7623	3218.7001	885.05	8.25
1050.8643	3219.624	881.9	3.95
1050.9663	3220.5473	885	7.35
1051.0682	3221.4701	885.25	4.8
1051.1701	3222.3922	886.35	7.7
1051.2719	3223.3137	885.45	7.9
1051.3737	3224.2346	883.6	6
1051.4754	3225.1549	883.75	6.1
1051.5771	3226.0746	883.25	6.45
1051.6788	3226.9937	886.2	9.4
1051.7804	3227.9121	884.8	6.95
1051.8819	3228.83	882.6	4.85
1051.9834	3229.7473	884.45	6.4
1052.0849	3230.6639	884.15	5.55
1052.1863	3231.5799	886.4	9.55
1052.2876	3232.4954	884.6	6.05
1052.3889	3233.4102	882.4	4.25
1052.4902	3234.3244	885.85	7.85
1052.5914	3235.238	884.2	6.4
1052.6926	3236.151	907.95	3.15
1052.7937	3237.0634	883.05	5.4
1052.8948	3237.9752	881.7	2.7
1052.9958	3238.8864	885.5	9.65
1053.0968	3239.797	882.5	4.5
1053.1977	3240.7069	885	6.7
1053.2986	3241.6163	886.85	8.4
1053.3994	3242.5251	882.15	5.45
1053.5002	3243.4332	882.9	5.6
1053.6009	3244.3408	885.15	8.8
1053.7016	3245.2477	884.75	6.45
1053.8022	3246.154	885.7	6.65
1053.9028	3247.0598	883.7	5.3
1054.0034	3247.9649	885.15	7.6
1054.1039	3248.8694	884.25	6.05
1054.2043	3249.7733	884.2	5
1054.3047	3250.6766	884.1	7
1054.4051	3251.5793	883.9	3.55
1054.5054	3252.4814	884.35	9.45
1054.6056	3253.3829	883.05	6.35
1054.7058	3254.2838	883.8	5.05
1054.806	3255.1841	881.9	5.15
1054.9061	3256.0838	881.35	4.4
1055.0061	3256.9829	881.95	6.45
1055.1062	3257.8814	884.95	4.95
1055.2061	3258.7792	884.9	4.75
1055.306	3259.6765	883.2	5.6
1055.4059	3260.5731	881.65	5.75
1055.5057	3261.4692	883.4	5.2
1055.6055	3262.3647	884.75	5.25
1055.7052	3263.2595	881.85	2.95
1055.8049	3264.1538	883.1	4.65
1055.9045	3265.0474	883.1	2
1056.0041	3265.9404	880.35	4.2
1056.1036	3266.8329	880.95	5.2
1056.2031	3267.7247	892.35	6.1
1056.3025	3268.616	881.8	7
1056.4019	3269.5066	881.95	3.7
1056.5013	3270.3966	884.75	3.8
1056.6005	3271.286	880.5	5.35
