Software Version:	3.9.2.0
Unit SN:	10000200
Spectrometer SN:	6960
Date:	3/8/2024 1:32:01 PM
Data Line Index:	25
Spectral Points:	2048
Integration time (ms):	125
Averages:	20
Delay (ms):	30000
Sequence Number:	1
Processing:	dark subtract
Laser Power (mW):	300
Laser Current (mA):	823
Laser Diode Temp (C):	25
Laser Case Temp (C):	26.3
System Temp (C):	26.3
Spectrometer Temp (C):	24.2
CCD Temp (C):	0.004
Secondary Temp (C):	20
Heatsink Temp (C):	20.91
CCDPCB Temp (C):	36.362
SecondaryPCB Temp (C):	31.916

Wavelength	RamanShift	Raw Counts	Dark Subtracted
787.061	30.1047	446.85	38.95
787.2016	32.3739	449.85	42.75
787.3422	34.6426	455.35	45.85
787.4828	36.9109	462.45	53.05
787.6235	39.1787	468.3	53.65
787.7642	41.4461	480.7	62.75
787.9049	43.7131	486.15	65
788.0456	45.9796	494.85	71.2
788.1863	48.2456	502.65	73.9
788.3271	50.5112	510.7	78.85
788.4679	52.7764	517.3	81.75
788.6087	55.0411	531.9	91.55
788.7496	57.3054	540.55	96.75
788.8904	59.5692	551.6	107.05
789.0313	61.8326	557.5	109.65
789.1722	64.0955	567.55	115.05
789.3132	66.3579	586.05	126.95
789.4541	68.6199	605.8	145.15
789.5951	70.8815	637.6	171.9
789.7361	73.1426	712.95	242.45
789.8771	75.4032	903.55	429.2
790.0181	77.6634	1376.2	898.35
790.1592	79.9231	2491.45	2003.5
790.3003	82.1824	4844.7	4342
790.4414	84.4412	9121.2	8585.15
790.5825	86.6995	15031.75	14457.5
790.7237	88.9574	20744.65	20137.8
790.8648	91.2148	24687.3	24057.6
791.006	93.4717	26533.8	25889.95
791.1472	95.7282	26827.25	26176.35
791.2885	97.9842	26632.6	25970.5
791.4297	100.2398	26078.95	25419.65
791.571	102.4949	25397.25	24732.45
791.7123	104.7495	24619.7	23949
791.8536	107.0036	23776.2	23107.7
791.9949	109.2573	23002.75	22335.55
792.1363	111.5105	22238.1	21569.45
792.2777	113.7632	21506.35	20831.5
792.4191	116.0154	20900.35	20215.75
792.5605	118.2672	20434.15	19754.35
792.7019	120.5185	19979.85	19297.75
792.8434	122.7693	19647.2	18963.7
792.9849	125.0197	19272.85	18588.35
793.1264	127.2696	18978.1	18288.75
793.2679	129.519	18824.6	18128.8
793.4094	131.7679	18584.2	17888.7
793.551	134.0163	18381.25	17683.1
793.6926	136.2642	18166.05	17461.95
793.8342	138.5117	17901.3	17194.5
793.9758	140.7587	17630.25	16924.25
794.1175	143.0052	17396.15	16683.8
794.2591	145.2512	17113.7	16407.9
794.4008	147.4967	16882.25	16173.6
794.5425	149.7417	16709.1	15994.95
794.6842	151.9863	16588.2	15873.45
794.826	154.2304	16492.2	15768.5
794.9677	156.4739	16351.35	15623.25
795.1095	158.717	16242.7	15514.9
795.2513	160.9596	16115.1	15381.45
795.3931	163.2017	15866.4	15129.2
795.535	165.4433	15561.4	14824.05
795.6768	167.6844	15180.65	14445.3
795.8187	169.925	14895.9	14156.4
795.9606	172.1651	14518	13777.05
796.1025	174.4047	14228.75	13487.75
796.2445	176.6439	14001.1	13256
796.3864	178.8825	13698.45	12947.45
796.5284	181.1206	13555.3	12796.75
796.6704	183.3582	13414.6	12656.95
796.8124	185.5954	13317.6	12558.5
796.9544	187.832	13202.6	12438.1
797.0965	190.0681	13171	12402.85
797.2386	192.3037	13170.75	12400.15
797.3806	194.5388	13165.95	12390.75
797.5228	196.7734	13203	12424.55
797.6649	199.0075	13233.1	12458.65
797.807	201.2411	13368.7	12592.6
797.9492	203.4742	13430.5	12650.55
798.0914	205.7068	13555.5	12769.7
798.2336	207.9389	13683.15	12898.2
798.3758	210.1704	13834.8	13053.95
798.518	212.4015	13939.05	13171
798.6603	214.632	14050.35	13285.3
798.8025	216.862	14220.9	13457.5
798.9448	219.0915	14382.85	13622.4
799.0871	221.3205	14594.5	13828
799.2294	223.549	14830.7	14069.65
799.3718	225.777	15073.8	14309.9
799.5141	228.0044	15383.3	14607.35
799.6565	230.2314	15754.9	14984.45
799.7989	232.4578	16124.15	15350.55
799.9413	234.6837	16456.9	15675.7
800.0837	236.909	16622.55	15836.45
800.2262	239.1339	16621	15811.4
800.3687	241.3582	16402.75	15606
800.5111	243.582	16126.35	15297.9
800.6536	245.8053	15835.7	15021.4
800.7961	248.0281	15539.1	14731.65
800.9387	250.2503	15349.9	14541.1
801.0812	252.472	15231.85	14421.2
801.2238	254.6932	15227.75	14417.7
801.3664	256.9139	15159.85	14346.9
801.509	259.134	15223.15	14402.1
801.6516	261.3536	15244.65	14428.15
801.7942	263.5727	15365.9	14543.35
801.9369	265.7912	15368.35	14554.35
802.0795	268.0092	15470.15	14652.9
802.2222	270.2267	15456.4	14638.8
802.3649	272.4436	15442.8	14623.15
802.5076	274.6601	15383.95	14556.1
802.6504	276.8759	15317.2	14492.75
802.7931	279.0913	15243.6	14417.75
802.9359	281.3061	15181.55	14355.6
803.0787	283.5204	15179.2	14347.95
803.2215	285.7341	15198.4	14366.6
803.3643	287.9473	15371	14528.9
803.5071	290.16	15533.9	14696.55
803.6499	292.3721	15824.3	14987.15
803.7928	294.5837	16215.55	15384.2
803.9357	296.7947	16537.45	15707.4
804.0786	299.0052	16716.65	15883.05
804.2215	301.2152	16630.75	15796.95
804.3644	303.4246	16315.6	15486.8
804.5074	305.6334	15819.65	14991.4
804.6503	307.8418	15254.3	14420.95
804.7933	310.0495	14875.05	14035.9
804.9363	312.2568	14525.6	13688.2
805.0793	314.4635	14269.4	13426.05
805.2223	316.6696	14126.45	13282.8
805.3653	318.8752	14068.15	13213.45
805.5084	321.0802	14114.5	13269.6
805.6514	323.2847	14162.6	13316.25
805.7945	325.4887	14220.85	13374.8
805.9376	327.692	14151.15	13301.4
806.0807	329.8949	14038.1	13185
806.2238	332.0972	13790.75	12941.85
806.367	334.2989	13536.9	12680.65
806.5101	336.5001	13266.2	12407.8
806.6533	338.7007	13045.35	12190.45
806.7965	340.9008	12923.3	12063.9
806.9397	343.1003	12788.05	11930.35
807.0829	345.2992	12742.5	11886.85
807.2261	347.4976	12703.65	11844.7
807.3693	349.6955	12665	11804.95
807.5126	351.8927	12722.5	11858.55
807.6559	354.0895	12697.4	11820.65
807.7991	356.2856	12730.9	11869.85
807.9424	358.4812	12702.8	11840.05
808.0857	360.6763	12738.6	11867.6
808.2291	362.8707	12676.35	11807.95
808.3724	365.0646	12732.35	11861.4
808.5158	367.258	12786.05	11913.25
808.6591	369.4508	12822.3	11947.5
808.8025	371.643	12881.9	12003.15
808.9459	373.8346	12913.15	12034.95
809.0893	376.0257	12914.8	12034.9
809.2327	378.2162	12840	11965.9
809.3762	380.4062	12725.95	11850.55
809.5196	382.5956	12603.95	11730.05
809.6631	384.7844	12507.95	11640.1
809.8066	386.9726	12388.8	11523.55
809.9501	389.1603	12297.25	11424.5
810.0936	391.3474	12306.7	11404.05
810.2371	393.5339	12282.8	11409.5
810.3806	395.7199	12193.65	11326
810.5241	397.9052	12236.5	11367.1
810.6677	400.09	12259.6	11391
810.8113	402.2743	12354.95	11481.8
810.9548	404.4579	12454.65	11584
811.0984	406.641	12626.55	11752
811.2421	408.8235	12815.15	11938.55
811.3857	411.0054	13075.35	12196.85
811.5293	413.1868	13463.9	12579.9
811.673	415.3675	13757.2	12872
811.8166	417.5477	13912.5	13023.95
811.9603	419.7273	13906.8	13019
812.104	421.9064	13825.3	12936.45
812.2477	424.0848	13724.6	12837.9
812.3914	426.2627	13517.65	12632.8
812.5351	428.4399	13249.7	12363.05
812.6788	430.6166	12882.5	11991.85
812.8226	432.7928	12521.35	11628.8
812.9663	434.9683	12225.8	11334.1
813.1101	437.1432	12019.45	11129.3
813.2539	439.3176	11825	10945.55
813.3977	441.4914	11728.3	10852.45
813.5415	443.6645	11696.4	10813
813.6853	445.8371	11595	10709.35
813.8291	448.0091	11590.95	10703.55
813.973	450.1806	11543.1	10657.5
814.1168	452.3514	11527.95	10646.9
814.2607	454.5216	11541.95	10644.1
814.4046	456.6913	11476.3	10588.2
814.5485	458.8603	11531.85	10647.3
814.6924	461.0288	11554.35	10675.8
814.8363	463.1967	11551.75	10674.75
814.9802	465.3639	11672.05	10788.5
815.1241	467.5306	11738.15	10853.75
815.2681	469.6967	11845.9	10963.3
815.412	471.8622	11955.45	11076.65
815.556	474.0271	12107.9	11226
815.7	476.1914	12184.65	11295.3
815.844	478.3551	12192.4	11303.2
815.988	480.5182	12196.9	11308.05
816.132	482.6807	12170.3	11293.1
816.276	484.8426	12269.9	11397.3
816.4201	487.0039	12561.15	11682.8
816.5641	489.1647	12976.4	12088.15
816.7082	491.3248	13388.3	12501.3
816.8522	493.4843	13535.6	12652.65
816.9963	495.6432	13540.2	12656.3
817.1404	497.8015	13420.6	12525
817.2845	499.9592	13392	12491.1
817.4286	502.1163	13311.05	12412.35
817.5727	504.2728	13044.35	12152.65
817.7168	506.4287	12740.25	11861.7
817.861	508.5839	12351.3	11471.15
818.0051	510.7386	12084.4	11195.25
818.1493	512.8927	11896	11003.7
818.2935	515.0461	11810.4	10914.95
818.4377	517.199	11767.9	10869.75
818.5818	519.3512	11807.55	10903.5
818.726	521.5029	11909.55	11005.7
818.8703	523.6539	12040.8	11144.9
819.0145	525.8043	12109.5	11209.55
819.1587	527.9541	12051.25	11148.2
819.303	530.1033	12022.15	11124.25
819.4472	532.2519	12011.45	11110
819.5915	534.3999	12101	11202.7
819.7357	536.5472	12329.1	11427.75
819.88	538.694	12717.95	11822.75
820.0243	540.8401	13239.2	12337.8
820.1686	542.9856	13684.1	12768.15
820.3129	545.1305	13837.35	12916.8
820.4572	547.2748	13691.35	12777.2
820.6016	549.4185	13349.05	12427.65
820.7459	551.5615	13047.6	12127.15
820.8902	553.704	12943.9	12027.8
821.0346	555.8458	12909.35	11997.6
821.1789	557.987	12961.35	12051.6
821.3233	560.1276	12990.55	12078.35
821.4677	562.2675	13076.5	12163.7
821.6121	564.4069	13242.05	12330.45
821.7565	566.5456	13286.35	12378.95
821.9009	568.6837	13280.4	12375.8
822.0453	570.8212	12977.15	12071.65
822.1897	572.958	12588.95	11684.1
822.3342	575.0942	12238	11333.1
822.4786	577.2299	11968.95	11067.15
822.6231	579.3648	11917.45	11027.95
822.7675	581.4992	11952.3	11071.7
822.912	583.6329	12127.5	11249.2
823.0565	585.766	12357.65	11469.95
823.201	587.8985	12501.1	11607.15
823.3454	590.0304	12527.9	11603.05
823.4899	592.1616	12449.75	11537.6
823.6345	594.2922	12339.85	11427.65
823.779	596.4222	12192.4	11277.5
823.9235	598.5515	12008.35	11088.7
824.068	600.6802	11856.2	10937.8
824.2126	602.8083	11699.4	10786.15
824.3571	604.9358	11653.8	10738.55
824.5017	607.0626	11609.7	10690.75
824.6462	609.1888	11585.25	10658.75
824.7908	611.3144	11610.85	10688.4
824.9354	613.4393	11554.25	10633.85
825.08	615.5636	11491.85	10570.3
825.2246	617.6873	11414.95	10488.85
825.3692	619.8103	11355.55	10432.55
825.5138	621.9327	11229.1	10307.65
825.6584	624.0544	11165.9	10248.65
825.803	626.1756	11104.75	10191.05
825.9477	628.2961	11012.85	10092.25
826.0923	630.4159	10976.05	10053.05
826.237	632.5351	10934.4	10008.25
826.3816	634.6537	10874.6	9951
826.5263	636.7716	10853.1	9924.5
826.6709	638.8889	10863.4	9933.75
826.8156	641.0056	10893.2	9964.15
826.9603	643.1216	10846.45	9918.8
827.105	645.237	10872.05	9946.55
827.2497	647.3518	10863.45	9945.55
827.3944	649.4659	10845.3	9934.5
827.5391	651.5793	10842.45	9928.1
827.6838	653.6922	10820.65	9904.25
827.8285	655.8043	10792.75	9875.3
827.9733	657.9159	10786.75	9864.85
828.118	660.0268	10717	9797.1
828.2627	662.137	10678.85	9756.35
828.4075	664.2466	10661.3	9730.9
828.5522	666.3556	10666.5	9735.8
828.697	668.4639	10621.25	9699.45
828.8418	670.5716	10658.7	9744.4
828.9865	672.6786	10704.15	9777.3
829.1313	674.785	10756.05	9828.8
829.2761	676.8907	10822.6	9898.7
829.4209	678.9958	10852.1	9931.5
829.5657	681.1002	10840.65	9920.45
829.7105	683.204	10832.2	9897.85
829.8553	685.3072	10775.55	9845.6
830.0001	687.4097	10740.8	9810.5
830.1449	689.5115	10696.95	9767.85
830.2898	691.6127	10647.1	9719.9
830.4346	693.7132	10577.5	9653.45
830.5794	695.8131	10576.85	9638.75
830.7243	697.9123	10548.4	9613.3
830.8691	700.0109	10554	9619.55
831.014	702.1089	10540.5	9609.95
831.1588	704.2061	10547.6	9613.9
831.3037	706.3028	10586.65	9649.95
831.4486	708.3987	10604.25	9672.1
831.5935	710.4941	10705.15	9773.15
831.7383	712.5887	10849.3	9920.25
831.8832	714.6827	11074.05	10139.4
832.0281	716.7761	11372.7	10447.95
832.173	718.8688	11681.7	10752.7
832.3179	720.9608	11869.05	10929.3
832.4628	723.0522	11975.8	11034.4
832.6077	725.1429	11841.9	10907.85
832.7527	727.233	11617.2	10683.55
832.8976	729.3224	11470.55	10536.05
833.0425	731.4112	11217.7	10284.95
833.1874	733.4993	11010.95	10074.85
833.3324	735.5867	10874.9	9939.55
833.4773	737.6735	10716.05	9781.75
833.6222	739.7596	10628.55	9690.7
833.7672	741.845	10576.85	9645.55
833.9122	743.9298	10543.55	9607.05
834.0571	746.014	10538.55	9604.3
834.2021	748.0974	10546.7	9604.6
834.347	750.1802	10533.75	9592.85
834.492	752.2624	10591	9651.15
834.637	754.3439	10610.95	9667.3
834.782	756.4247	10692.55	9744.75
834.9269	758.5048	10822.15	9884
835.0719	760.5843	11072.15	10130.1
835.2169	762.6631	11407.2	10466.8
835.3619	764.7413	11889.85	10952.45
835.5069	766.8188	12493.7	11551.85
835.6519	768.8956	12981.75	12040.9
835.7969	770.9718	13269.85	12326.6
835.9419	773.0473	13189	12245.25
836.0869	775.1221	12851.85	11912.5
836.232	777.1962	12515.3	11574.85
836.377	779.2697	12321	11380.65
836.522	781.3426	12356.4	11401.8
836.667	783.4147	12579.65	11640.15
836.8121	785.4862	12853.4	11914.2
836.9571	787.557	12844.3	11897.4
837.1021	789.6271	12482.95	11537
837.2472	791.6966	11925.4	10983.85
837.3922	793.7654	11371.65	10431.2
837.5373	795.8335	11016.1	10074.45
837.6823	797.901	10814.65	9874.4
837.8274	799.9678	10730.95	9785.5
837.9724	802.0339	10726.3	9779.7
838.1175	804.0993	10758.25	9802.35
838.2626	806.1641	10736.65	9787.7
838.4076	808.2282	10633.5	9690.05
838.5527	810.2916	10552.75	9609.15
838.6978	812.3544	10475.4	9532.55
838.8428	814.4164	10385.95	9441.55
838.9879	816.4778	10403.5	9454.3
839.133	818.5385	10446.4	9499.85
839.2781	820.5986	10509.55	9560.3
839.4232	822.658	10652.85	9700.9
839.5682	824.7166	10815.95	9871.85
839.7133	826.7747	11096.25	10147.85
839.8584	828.832	11364.35	10419.75
840.0035	830.8886	11546.7	10596.95
840.1486	832.9446	11730.55	10782
840.2937	834.9999	11744.15	10800.45
840.4388	837.0545	11637.55	10689.05
840.5839	839.1085	11536.75	10587
840.729	841.1618	11460.9	10511.05
840.8741	843.2143	11357.1	10407.35
841.0192	845.2662	11247.85	10302
841.1643	847.3175	11188.55	10242.85
841.3095	849.368	11066.85	10117.85
841.4546	851.4179	10997.65	10048.9
841.5997	853.467	10861.85	9912.7
841.7448	855.5155	10769.35	9822.45
841.8899	857.5633	10679.3	9730.4
842.0351	859.6105	10570.35	9619.65
842.1802	861.6569	10511.4	9560.7
842.3253	863.7027	10459.95	9508.4
842.4704	865.7478	10446.8	9495.45
842.6156	867.7922	10439.55	9489.9
842.7607	869.8359	10445.85	9494.9
842.9058	871.8789	10555.4	9606.3
843.0509	873.9212	10712.3	9732.6
843.1961	875.9629	10853.25	9903.1
843.3412	878.0039	11007.5	10057.75
843.4863	880.0441	11125.25	10176
843.6315	882.0837	11101.5	10153.2
843.7766	884.1226	11036.7	10084.8
843.9218	886.1609	10981.65	10034.55
844.0669	888.1984	10923.75	9974.35
844.212	890.2352	10954.05	10003.5
844.3572	892.2714	10924	9971.65
844.5023	894.3069	10892.1	9938.65
844.6475	896.3416	10817.4	9864.35
844.7926	898.3757	10723.65	9772.3
844.9377	900.4091	10728.55	9775.55
845.0829	902.4418	10748.5	9793.7
845.228	904.4739	10770.15	9816.95
845.3732	906.5052	10768.4	9812.55
845.5183	908.5358	10688.2	9736.6
845.6635	910.5658	10539.25	9581.15
845.8086	912.595	10368.95	9417.15
845.9538	914.6236	10223.05	9266.55
846.0989	916.6515	10160.05	9207.6
846.2441	918.6786	10104.05	9149.65
846.3892	920.7051	10176.3	9218.1
846.5344	922.7309	10261.65	9309.9
846.6795	924.756	10322.6	9371.2
846.8246	926.7804	10404.85	9451.95
846.9698	928.8041	10392.4	9439.75
847.1149	930.8272	10428.05	9476.25
847.2601	932.8495	10391.55	9435.65
847.4052	934.8711	10360.55	9407.85
847.5504	936.892	10206.4	9253.35
847.6955	938.9123	10129.85	9174.05
847.8407	940.9318	10050.45	9096.5
847.9858	942.9506	9944.55	8984.8
848.131	944.9688	9877.3	8927.55
848.2761	946.9862	9810.05	8854.65
848.4213	949.003	9750.65	8791.55
848.5664	951.019	9710	8755.8
848.7115	953.0344	9738.6	8785.3
848.8567	955.0491	9760.35	8805.75
849.0018	957.063	9838.5	8883.9
849.147	959.0763	9924.7	8971.35
849.2921	961.0888	9973.15	9018.2
849.4373	963.1007	10031	9080.5
849.5824	965.1119	10077.45	9131.35
849.7275	967.1223	10084.25	9142.5
849.8727	969.1321	10100.2	9161.75
850.0178	971.1412	10153.75	9210.95
850.1629	973.1495	10152.15	9200.55
850.3081	975.1572	10247.35	9250.6
850.4532	977.1641	10230.45	9280.45
850.5983	979.1704	10206.75	9252.85
850.7435	981.1759	10200.35	9242.3
850.8886	983.1808	10245.8	9288.2
851.0337	985.1849	10334.75	9368
851.1788	987.1884	10463	9511.65
851.324	989.1911	10612.3	9659.15
851.4691	991.1932	10735.9	9782.2
851.6142	993.1945	10760.1	9810.95
851.7593	995.1951	10739.35	9785.85
851.9045	997.1951	10697.85	9737.8
852.0496	999.1943	10641.85	9685
852.1947	1001.1928	10627.05	9671.8
852.3398	1003.1906	10635.35	9681.8
852.4849	1005.1877	10701.6	9748
852.63	1007.1841	10709.65	9756.7
852.7751	1009.1798	10681.4	9728.2
852.9202	1011.1748	10490.35	9537.85
853.0653	1013.1691	10321.55	9368.45
853.2104	1015.1627	10134.4	9179.55
853.3555	1017.1556	9941.75	8993.5
853.5006	1019.1477	9828.5	8874.8
853.6457	1021.1392	9748.6	8804
853.7908	1023.1299	9735.05	8794.75
853.9359	1025.12	9760.15	8827.55
854.081	1027.1093	9817.35	8893.55
854.2261	1029.0979	9890.6	8971.85
854.3712	1031.0859	9977.65	9048.7
854.5163	1033.0731	10002.4	9063.6
854.6613	1035.0596	9936.35	8994.2
854.8064	1037.0454	9810.5	8864
854.9515	1039.0304	9720.75	8771.8
855.0965	1041.0148	9610.9	8659.95
855.2416	1042.9985	9509.1	8556.4
855.3867	1044.9814	9494.35	8544.55
855.5317	1046.9636	9460.15	8509.2
855.6768	1048.9452	9436.5	8488.45
855.8219	1050.926	9435.8	8489.1
855.9669	1052.9061	9437.1	8485.4
856.112	1054.8855	9463.45	8510.05
856.257	1056.8642	9500.9	8552
856.4021	1058.8421	9538.75	8578.7
856.5471	1060.8194	9587.45	8636.35
856.6921	1062.7959	9611.95	8659.8
856.8372	1064.7717	9657.9	8702.75
856.9822	1066.7469	9701.7	8747
857.1272	1068.7213	9729	8777.95
857.2723	1070.695	9724.15	8777.6
857.4173	1072.6679	9714.1	8762.4
857.5623	1074.6402	9678.55	8726.95
857.7073	1076.6117	9639.85	8682.3
857.8523	1078.5826	9594	8645.55
857.9973	1080.5527	9587.45	8631.25
858.1423	1082.5221	9643.75	8691.55
858.2873	1084.4908	9769.85	8821.1
858.4323	1086.4587	9935.1	8982.1
858.5773	1088.426	10049.45	9099.15
858.7223	1090.3925	10064.8	9110.7
858.8673	1092.3584	10039.9	9088.65
859.0123	1094.3235	9917.35	8967.65
859.1573	1096.2879	9900.55	8946.65
859.3022	1098.2515	9945.15	8994.65
859.4472	1100.2145	10013.75	9060.7
859.5922	1102.1767	10131.75	9181.9
859.7371	1104.1382	10322.85	9373.2
859.8821	1106.099	10533	9582.15
860.027	1108.0591	10723.5	9774.15
860.172	1110.0185	10904.55	9951
860.3169	1111.9771	10933.15	9986
860.4619	1113.9351	10768.45	9817.9
860.6068	1115.8923	10521.6	9572.8
860.7517	1117.8488	10252.35	9300.6
860.8967	1119.8045	10025.95	9074.2
861.0416	1121.7596	9897.8	8947.6
861.1865	1123.7139	9808	8861.65
861.3314	1125.6675	9790.8	8843.8
861.4763	1127.6204	9858.35	8910.25
861.6212	1129.5726	9856.75	8903.75
861.7661	1131.524	9804.75	8855.5
861.911	1133.4748	9755.6	8805.95
862.0559	1135.4248	9715.9	8766.3
862.2008	1137.3741	9675.7	8728.5
862.3457	1139.3226	9647.5	8700.15
862.4905	1141.2705	9575.2	8623.7
862.6354	1143.2176	9499.15	8542.1
862.7803	1145.164	9494.45	8540.35
862.9251	1147.1097	9476.55	8529.2
863.07	1149.0546	9461.6	8511.9
863.2148	1150.9989	9384.75	8433.4
863.3597	1152.9424	9265.35	8318.05
863.5045	1154.8852	9123.15	8173.05
863.6493	1156.8272	9022.85	8074.8
863.7942	1158.7686	9014.7	8055.2
863.939	1160.7092	8985.4	8034
864.0838	1162.6491	8971.95	8020.1
864.2286	1164.5883	9057.3	8109.75
864.3734	1166.5267	9164.25	8219.05
864.5182	1168.4644	9310.25	8358.6
864.663	1170.4014	9485.75	8532.35
864.8078	1172.3377	9715.8	8774.05
864.9526	1174.2732	9960.65	9011.8
865.0974	1176.2081	10239.85	9291.25
865.2421	1178.1421	10560	9610.15
865.3869	1180.0755	10829.5	9882.85
865.5317	1182.0082	11001.4	10055.1
865.6764	1183.9401	11041.1	10095.2
865.8212	1185.8713	10908.65	9967.45
865.9659	1187.8017	10673.9	9738.15
866.1106	1189.7315	10382.65	9455.15
866.2554	1191.6605	10080.9	9157.25
866.4001	1193.5888	9894.9	8961.6
866.5448	1195.5163	9751.75	8814.1
866.6895	1197.4432	9702.3	8760.35
866.8342	1199.3693	9643.3	8698.6
866.9789	1201.2947	9618.15	8675.5
867.1236	1203.2193	9607.1	8661.55
867.2683	1205.1432	9628.9	8684.5
867.413	1207.0664	9643.8	8702.15
867.5576	1208.9889	9670.1	8722.85
867.7023	1210.9106	9707	8760.1
867.847	1212.8316	9742	8799.2
867.9916	1214.7519	9786.6	8834.65
868.1363	1216.6715	9836.7	8892.3
868.2809	1218.5903	9833.25	8887.6
868.4255	1220.5084	9814.45	8870.65
868.5701	1222.4257	9865.75	8922.7
868.7148	1224.3424	9847.8	8905.15
868.8594	1226.2583	9908	8962.1
869.004	1228.1735	10002.15	9056.9
869.1486	1230.0879	10116.2	9168.15
869.2932	1232.0016	10234.45	9290.85
869.4377	1233.9146	10300.35	9351.05
869.5823	1235.8269	10227.85	9284.3
869.7269	1237.7384	10120.55	9176.4
869.8715	1239.6492	9953.8	9012.8
870.016	1241.5592	9872.55	8930.75
870.1606	1243.4686	9813.55	8867.8
870.3051	1245.3772	9850.55	8908.3
870.4496	1247.285	9863.35	8916.85
870.5941	1249.1922	9895.2	8950.1
870.7387	1251.0986	9916.85	8973.75
870.8832	1253.0042	9917.05	8973.35
871.0277	1254.9092	9986.15	9044.45
871.1722	1256.8134	10075.6	9134.9
871.3167	1258.7169	10210.65	9268.2
871.4611	1260.6196	10356.8	9416.5
871.6056	1262.5216	10584.25	9640.45
871.7501	1264.4229	10768.4	9825.35
871.8945	1266.3234	10917.15	9977.5
872.039	1268.2232	11011.8	10066.7
872.1834	1270.1223	11018.15	10075.6
872.3278	1272.0207	11027.85	10085.4
872.4723	1273.9183	10985.75	10034.75
872.6167	1275.8151	10900.15	9956.55
872.7611	1277.7113	10879.3	9938.05
872.9055	1279.6067	10782.9	9842.05
873.0499	1281.5014	10765.55	9820.2
873.1943	1283.3953	10822.35	9876.2
873.3386	1285.2885	10930.4	9986.1
873.483	1287.181	11077.2	10134.3
873.6274	1289.0727	11224.45	10286.3
873.7717	1290.9637	11349.05	10408.6
873.9161	1292.854	11516.6	10578.25
874.0604	1294.7435	11615.4	10675.25
874.2047	1296.6323	11721.15	10781.25
874.349	1298.5204	11864.55	10922.7
874.4933	1300.4077	12000.45	11053.35
874.6376	1302.2943	12061.1	11118.2
874.7819	1304.1802	12060.35	11115.35
874.9262	1306.0653	11841.55	10897.15
875.0705	1307.9497	11611.1	10669.45
875.2147	1309.8333	11376.95	10437.4
875.359	1311.7162	11220.95	10277.85
875.5032	1313.5984	11214.2	10270.3
875.6475	1315.4798	11231.4	10281.65
875.7917	1317.3605	11268.55	10309.6
875.9359	1319.2405	11309.85	10364.35
876.0801	1321.1197	11248.55	10303.85
876.2243	1322.9982	11065	10121.25
876.3685	1324.876	10960.45	10017.9
876.5127	1326.753	10823.3	9881.15
876.6569	1328.6293	10787.35	9844.75
876.801	1330.5048	10733.25	9787
876.9452	1332.3796	10653.5	9713.3
877.0893	1334.2537	10639.3	9668.95
877.2335	1336.127	10574.5	9632.95
877.3776	1337.9996	10550.9	9610.4
877.5217	1339.8714	10547.6	9606.6
877.6658	1341.7426	10537.7	9550.95
877.8099	1343.6129	10504.1	9560.2
877.954	1345.4826	10466.25	9524.15
878.0981	1347.3515	10455.1	9509.75
878.2422	1349.2196	10418.05	9474.55
878.3862	1351.087	10431.55	9486.7
878.5303	1352.9537	10481.3	9538.45
878.6743	1354.8197	10610.6	9666.3
878.8184	1356.6849	10745.25	9802.7
878.9624	1358.5493	10884.9	9941
879.1064	1360.4131	10954.3	10011.1
879.2504	1362.276	10949.35	10010.1
879.3944	1364.1383	10854.8	9916.4
879.5384	1365.9998	10625.05	9678.55
879.6823	1367.8606	10320.1	9376.7
879.8263	1369.7206	9998.05	9054.2
879.9702	1371.5799	9767.15	8821.85
880.1142	1373.4384	9541.05	8600.6
880.2581	1375.2962	9395	8454.55
880.402	1377.1533	9117.7	8178.35
880.5459	1379.0096	8811.3	7876.45
880.6898	1380.8652	8523.6	7586.25
880.8337	1382.7201	8272.85	7337.4
880.9776	1384.5742	8035.35	7098.75
881.1215	1386.4275	7877.7	6939.3
881.2653	1388.2802	7757.75	6817.6
881.4092	1390.132	7657.5	6718.2
881.553	1391.9832	7599.65	6658.55
881.6968	1393.8336	7525.8	6585.65
881.8406	1395.6832	7490.4	6550.7
881.9844	1397.5322	7465.95	6528.15
882.1282	1399.3803	7447	6502.15
882.272	1401.2278	7418.15	6478.6
882.4158	1403.0745	7427.3	6489.7
882.5595	1404.9204	7381.6	6443.65
882.7033	1406.7656	7416.65	6481.8
882.847	1408.6101	7445.95	6503.8
882.9908	1410.4538	7468.85	6528.05
883.1345	1412.2968	7531.5	6593.1
883.2782	1414.139	7562.95	6625.95
883.4219	1415.9805	7653.3	6713.3
883.5656	1417.8213	7722	6777.1
883.7092	1419.6613	7837.8	6899.55
883.8529	1421.5006	8027.2	7089.9
883.9965	1423.3391	8262.3	7322.65
884.1402	1425.1769	8564.05	7624.15
884.2838	1427.0139	9049.1	8109.9
884.4274	1428.8502	9624.95	8683.05
884.571	1430.6858	10160.55	9224.2
884.7146	1432.5206	10579.75	9642.9
884.8582	1434.3547	10824.3	9887.35
885.0018	1436.188	10810.65	9871.8
885.1453	1438.0206	10747.25	9809.65
885.2889	1439.8524	10590.8	9652.9
885.4324	1441.6835	10486.9	9547.6
885.5759	1443.5139	10395	9454.45
885.7194	1445.3435	10324.2	9390.45
885.8629	1447.1724	10276.35	9342.2
886.0064	1449.0005	10197.1	9261.85
886.1499	1450.8279	10129.15	9192.2
886.2933	1452.6545	10083	9145.55
886.4368	1454.4804	10102.9	9168.3
886.5802	1456.3056	10088.5	9150.2
886.7237	1458.13	10030.4	9096.45
886.8671	1459.9536	9837.35	8900.4
887.0105	1461.7766	9507	8572.6
887.1539	1463.5987	9134.25	8195.2
887.2972	1465.4202	8770.15	7832.4
887.4406	1467.2409	8439.6	7503.7
887.584	1469.0608	8169.1	7234.05
887.7273	1470.88	7886.65	6950.2
887.8706	1472.6984	7672.15	6735.85
888.0139	1474.5161	7465.7	6526.8
888.1572	1476.3331	7318.15	6382.8
888.3005	1478.1493	7202.3	6267.55
888.4438	1479.9648	7104.05	6168.55
888.5871	1481.7795	7029.9	6096.1
888.7303	1483.5935	6957.75	6020.25
888.8736	1485.4067	6899.5	5965.2
889.0168	1487.2192	6834.75	5899.6
889.16	1489.031	6798.75	5861.2
889.3032	1490.842	6754.9	5821.35
889.4464	1492.6522	6705.8	5769.75
889.5896	1494.4618	6691.45	5755
889.7327	1496.2705	6663.8	5731.3
889.8759	1498.0785	6649.65	5716.8
890.019	1499.8858	6590.1	5654.7
890.1622	1501.6924	6582.2	5646.8
890.3053	1503.4981	6546.85	5611.25
890.4484	1505.3032	6528.1	5590.85
890.5914	1507.1075	6503.15	5566.25
890.7345	1508.911	6466.35	5534.45
890.8776	1510.7138	6398.45	5463
891.0206	1512.5159	6367.85	5434.85
891.1637	1514.3172	6345.9	5410.95
891.3067	1516.1178	6315.1	5384.4
891.4497	1517.9176	6285.45	5347.65
891.5927	1519.7166	6236.65	5304.4
891.7357	1521.515	6219.5	5279.9
891.8786	1523.3126	6186.4	5253.6
892.0216	1525.1094	6177.25	5244.35
892.1645	1526.9055	6132.55	5202.2
892.3074	1528.7008	6116.85	5185.4
892.4503	1530.4954	6074	5138.95
892.5932	1532.2893	6080.55	5152.35
892.7361	1534.0824	6045.25	5111.45
892.879	1535.8747	6030.1	5102.85
893.0218	1537.6663	6044.8	5119
893.1647	1539.4572	6020	5093.45
893.3075	1541.2473	6034.65	5105.5
893.4503	1543.0367	6015.9	5087.1
893.5931	1544.8253	6019.45	5086.3
893.7359	1546.6132	6050.3	5115.7
893.8787	1548.4003	6037.75	5098.6
894.0214	1550.1867	6082.65	5145.2
894.1642	1551.9723	6105.45	5174.3
894.3069	1553.7572	6151.6	5224.7
894.4496	1555.5414	6217.55	5289.35
894.5923	1557.3247	6288.15	5364.65
894.735	1559.1074	6390.15	5470
894.8777	1560.8893	6466.35	5542.95
895.0204	1562.6705	6561.15	5641.55
895.163	1564.4509	6678.1	5757.55
895.3056	1566.2305	6749.75	5831.4
895.4482	1568.0094	6783.05	5868.6
895.5908	1569.7876	6812.55	5892.8
895.7334	1571.565	6820.3	5900.4
895.876	1573.3417	6824.85	5901.5
896.0186	1575.1176	6799.45	5881.35
896.1611	1576.8928	6778.8	5862.3
896.3036	1578.6672	6724.05	5809.45
896.4461	1580.4409	6646.9	5735.9
896.5886	1582.2138	6569.75	5655.65
896.7311	1583.986	6504.9	5587.7
896.8736	1585.7575	6475.1	5554.5
897.0161	1587.5282	6450.75	5537.4
897.1585	1589.2981	6438.9	5528.05
897.3009	1591.0673	6445.3	5532.35
897.4433	1592.8358	6461.65	5548.5
897.5857	1594.6035	6506.3	5589.75
897.7281	1596.3704	6534.35	5619.3
897.8705	1598.1366	6580.8	5664.1
898.0128	1599.9021	6655.65	5743.55
898.1551	1601.6668	6740.05	5824.3
898.2975	1603.4308	6845.35	5927.45
898.4398	1605.194	6968.6	6049.4
898.5821	1606.9564	7091.05	6184.65
898.7243	1608.7182	7257.1	6351.7
898.8666	1610.4791	7439.15	6539.1
899.0088	1612.2394	7641.5	6744.2
899.1511	1613.9988	7863.2	6960.6
899.2933	1615.7576	8061.2	7153.75
899.4355	1617.5156	8259.3	7339.7
899.5776	1619.2728	8449.35	7534.35
899.7198	1621.0293	8510	7596.4
899.862	1622.785	8476.75	7564
900.0041	1624.54	8365.7	7452.9
900.1462	1626.2942	8173.75	7267.25
900.2883	1628.0477	7913.1	7005.25
900.4304	1629.8005	7675.85	6765.55
900.5725	1631.5525	7442.85	6536.5
900.7145	1633.3037	7253.7	6346.45
900.8566	1635.0542	7132.15	6225.95
900.9986	1636.804	7022.85	6115.75
901.1406	1638.553	7008.6	6040.25
901.2826	1640.3013	6911.25	6003.6
901.4245	1642.0488	6910.4	6002.4
901.5665	1643.7955	6950.1	6048.3
901.7085	1645.5416	7031.45	6124.25
901.8504	1647.2868	7105.85	6199.85
901.9923	1649.0313	7198.6	6290.1
902.1342	1650.7751	7345.85	6435.95
902.2761	1652.5181	7503.1	6597.4
902.4179	1654.2604	7694.7	6789.45
902.5598	1656.0019	7965.5	7060
902.7016	1657.7427	8249.45	7345.65
902.8434	1659.4828	8538.45	7628.9
902.9852	1661.222	8687.75	7778.55
903.127	1662.9606	8708.4	7801.55
903.2687	1664.6984	8465.95	7555.3
903.4105	1666.4354	8087.05	7176.8
903.5522	1668.1717	7558.2	6645.1
903.6939	1669.9072	7049.15	6137.45
903.8356	1671.642	6617.9	5705.2
903.9773	1673.3761	6266.8	5358.65
904.119	1675.1094	5969.55	5060.65
904.2606	1676.8419	5748.2	4841.4
904.4022	1678.5737	5585.45	4677.35
904.5439	1680.3048	5450	4537.85
904.6855	1682.0351	5339.15	4429.9
904.827	1683.7646	5244.5	4331.9
904.9686	1685.4934	5162.1	4254.45
905.1101	1687.2215	5102.7	4197.85
905.2517	1688.9488	5044.5	4137.55
905.3932	1690.6754	5003.75	4096.95
905.5347	1692.4012	4979.9	4072.9
905.6761	1694.1263	4933.5	4025.15
905.8176	1695.8506	4912.55	4005.15
905.9591	1697.5742	4866.5	3963.2
906.1005	1699.297	4844.15	3942.45
906.2419	1701.0191	4802.3	3903
906.3833	1702.7404	4788	3886.75
906.5246	1704.461	4745.75	3841.3
906.666	1706.1808	4714.35	3806.55
906.8073	1707.8999	4685.1	3782
906.9487	1709.6182	4661.8	3764.05
907.09	1711.3358	4636.7	3739.4
907.2313	1713.0527	4613.7	3716.9
907.3725	1714.7688	4604.15	3700.05
907.5138	1716.4841	4574.85	3671.15
907.655	1718.1987	4568.45	3661.8
907.7962	1719.9126	4552.75	3653.75
907.9374	1721.6257	4522.45	3624.05
908.0786	1723.338	4512.5	3615.75
908.2198	1725.0496	4488.1	3589.45
908.3609	1726.7605	4477.6	3575.65
908.502	1728.4706	4482.4	3581.4
908.6431	1730.18	4450	3550.2
908.7842	1731.8886	4428.65	3532.5
908.9253	1733.5964	4439.2	3521.35
909.0664	1735.3036	4406.35	3503.2
909.2074	1737.0099	4377.65	3480.35
909.3484	1738.7156	4371.15	3475.4
909.4894	1740.4204	4344.5	3444.2
909.6304	1742.1246	4341.9	3439.35
909.7714	1743.8279	4319.75	3421.85
909.9123	1745.5306	4303.95	3405.7
910.0532	1747.2325	4290.05	3393.95
910.1941	1748.9336	4273.95	3374.65
910.335	1750.634	4242.7	3338.95
910.4759	1752.3336	4246.15	3347.5
910.6168	1754.0325	4235.4	3342.35
910.7576	1755.7307	4209.6	3314.05
910.8984	1757.4281	4224.85	3325.45
911.0392	1759.1247	4229.25	3319.85
911.18	1760.8206	4212.35	3303.5
911.3208	1762.5158	4199.45	3294.55
911.4615	1764.2102	4181.45	3280.55
911.6022	1765.9039	4158.5	3262.35
911.7429	1767.5968	4145.75	3252.3
911.8836	1769.289	4142.7	3247.15
912.0243	1770.9804	4142.65	3245
912.1649	1772.6711	4144.05	3241.65
912.3056	1774.361	4132.3	3227.9
912.4462	1776.0502	4122.2	3219.95
912.5868	1777.7386	4104.75	3202.7
912.7274	1779.4263	4090.25	3191.65
912.8679	1781.1132	4074.5	3179
913.0084	1782.7994	4056.85	3162.45
913.149	1784.4849	4057.65	3163.3
913.2895	1786.1696	4052.4	3137.2
913.4299	1787.8535	4039	3148.5
913.5704	1789.5367	4026.15	3133.8
913.7108	1791.2192	4037.45	3143
913.8513	1792.9009	4028.85	3103.4
913.9917	1794.5818	3997.45	3096.7
914.132	1796.2621	3991.1	3094.2
914.2724	1797.9415	3998.35	3096.65
914.4128	1799.6202	3978.2	3079.5
914.5531	1801.2982	3973.25	3076.1
914.6934	1802.9755	3984.6	3085.35
914.8337	1804.6519	3974.5	3076.85
914.9739	1806.3277	3929.1	3033.2
915.1142	1808.0027	3930.6	3039.2
915.2544	1809.6769	3929.3	3038.8
915.3946	1811.3504	3910.1	3016.55
915.5348	1813.0231	3918.4	3024.85
915.675	1814.6951	3917.75	3023.9
915.8151	1816.3664	3895.15	2995.05
915.9553	1818.0369	3895.65	2997.45
916.0954	1819.7067	3885.3	2988.85
916.2355	1821.3757	3869.95	2971.55
916.3755	1823.044	3881.25	2983.9
916.5156	1824.7115	3872.2	2974.5
916.6556	1826.3783	3838.4	2941.65
916.7956	1828.0443	3843.95	2946.85
916.9356	1829.7096	3840.55	2943.7
917.0756	1831.3741	3841.7	2940.65
917.2155	1833.0379	3817	2923.05
917.3555	1834.701	3799.6	2904.65
917.4954	1836.3633	3809.05	2915.7
917.6353	1838.0248	3793.75	2900.85
917.7751	1839.6856	3806.7	2913.45
917.915	1841.3457	3794.75	2899.2
918.0548	1843.005	3786.2	2890.4
918.1946	1844.6636	3781.85	2885.95
918.3344	1846.3214	3786.95	2891.35
918.4742	1847.9785	3769	2872.7
918.6139	1849.6349	3773.25	2874.45
918.7537	1851.2904	3777.55	2872.15
918.8934	1852.9453	3746.8	2844.55
919.0331	1854.5994	3743.15	2843.95
919.1727	1856.2528	3739.25	2836.05
919.3124	1857.9054	3733.05	2835.2
919.452	1859.5572	3732.5	2838.5
919.5916	1861.2083	3727.85	2830.35
919.7312	1862.8587	3718.2	2821.15
919.8708	1864.5084	3717.1	2818.25
920.0103	1866.1572	3705.55	2806.4
920.1498	1867.8054	3684.4	2783.35
920.2893	1869.4528	3696.85	2796.85
920.4288	1871.0994	3674.25	2773.85
920.5683	1872.7453	3672	2773.55
920.7077	1874.3905	3675.7	2760.5
920.8471	1876.0349	3659.1	2763.2
920.9865	1877.6786	3649	2749.35
921.1259	1879.3215	3647.4	2753.35
921.2653	1880.9637	3636.55	2739.85
921.4046	1882.6051	3614.05	2718.9
921.5439	1884.2458	3627.3	2730.5
921.6832	1885.8858	3616.65	2721.15
921.8225	1887.525	3606.9	2708.55
921.9617	1889.1634	3590.75	2694.05
922.101	1890.8011	3595.5	2697.45
922.2402	1892.4381	3586.35	2688.65
922.3794	1894.0743	3575.95	2679.85
922.5185	1895.7098	3562.75	2665.05
922.6577	1897.3446	3566.8	2668.1
922.7968	1898.9786	3558.85	2658.7
922.9359	1900.6118	3550.4	2657.35
923.075	1902.2443	3522.7	2628.8
923.214	1903.8761	3526.85	2633.4
923.3531	1905.5071	3516.05	2618.5
923.4921	1907.1374	3491.35	2594.85
923.6311	1908.7669	3498.2	2601.6
923.77	1910.3957	3498.95	2605.9
923.909	1912.0237	3487.75	2591.6
924.0479	1913.651	3469.3	2572.7
924.1868	1915.2776	3463.45	2567.05
924.3257	1916.9034	3447.25	2554.25
924.4646	1918.5285	3443.85	2550.65
924.6034	1920.1528	3417.55	2522.9
924.7422	1921.7764	3438.25	2544.5
924.881	1923.3992	3422.5	2527.25
925.0198	1925.0213	3394.85	2499.8
925.1586	1926.6427	3380	2486.65
925.2973	1928.2633	3561.65	2462.85
925.436	1929.8832	3413.4	2512
925.5747	1931.5023	3362.8	2466.35
925.7134	1933.1207	3358.6	2464.4
925.852	1934.7383	3378.75	2484
925.9906	1936.3552	3342.4	2451.7
926.1292	1937.9714	3337.55	2441.35
926.2678	1939.5868	3346.2	2448.3
926.4064	1941.2015	3320.4	2425.2
926.5449	1942.8154	3309.3	2411.45
926.6834	1944.4286	3298.65	2401.4
926.8219	1946.041	3309.1	2394.05
926.9604	1947.6528	3281.7	2381.15
927.0988	1949.2637	3268.3	2375.5
927.2372	1950.8739	3271.15	2377.05
927.3756	1952.4834	3265.05	2371.35
927.514	1954.0921	3252.5	2360.2
927.6523	1955.7001	3248.35	2349.65
927.7907	1957.3074	3229.95	2339.7
927.929	1958.9139	3224.7	2333.55
928.0673	1960.5197	3222.75	2327.75
928.2055	1962.1247	3196.25	2303.25
928.3438	1963.729	3193.5	2301.75
928.482	1965.3325	3186.5	2290.65
928.6202	1966.9353	3175.35	2287.15
928.7584	1968.5374	3178.5	2287.65
928.8965	1970.1387	3167.9	2278.05
929.0346	1971.7393	3152.55	2260.05
929.1727	1973.3392	3149.85	2256.25
929.3108	1974.9383	3132.2	2241.55
929.4489	1976.5366	3117.55	2229.05
929.5869	1978.1342	3131.4	2241.8
929.7249	1979.7311	3101.5	2211.95
929.8629	1981.3273	3104.35	2214.75
930.0009	1982.9227	3101.05	2212.5
930.1388	1984.5173	3094.1	2204.9
930.2767	1986.1112	3077.75	2189.6
930.4146	1987.7044	3079.45	2190.4
930.5525	1989.2968	3066.25	2176.1
930.6904	1990.8885	3075.05	2185.25
930.8282	1992.4795	3058.05	2169.7
930.966	1994.0697	3056.5	2172.6
931.1038	1995.6592	3037.55	2150.3
931.2415	1997.2479	3047.9	2158.35
931.3793	1998.8359	3030.05	2142.95
931.517	2000.4232	3007.8	2122.7
931.6547	2002.0097	3015.95	2134.25
931.7923	2003.5955	3001.05	2115.9
931.93	2005.1805	3003.7	2117.8
932.0676	2006.7648	2997.75	2114.75
932.2052	2008.3484	2990.55	2106.6
932.3427	2009.9312	2995.2	2112.45
932.4803	2011.5133	2979.95	2098.3
932.6178	2013.0946	2972.9	2087.25
932.7553	2014.6752	2961.4	2077.75
932.8928	2016.2551	2964.2	2076.75
933.0302	2017.8342	2943.3	2057.55
933.1676	2019.4126	2938.45	2055.95
933.305	2020.9902	2931.35	2051.2
933.4424	2022.5672	2936.4	2053.75
933.5798	2024.1433	2928.15	2040.65
933.7171	2025.7188	2925.65	2045.95
933.8544	2027.2935	2912.7	2030.75
933.9917	2028.8674	2913.2	2032.55
934.129	2030.4406	2901.9	2023.2
934.2662	2032.0131	2893	2012.55
934.4034	2033.5849	2893.5	2011.9
934.5406	2035.1559	2874.65	1995.75
934.6778	2036.7261	2874.05	1989.05
934.8149	2038.2957	2877.45	1991.25
934.952	2039.8645	2872.35	1986.8
935.0891	2041.4325	2876.1	1987.3
935.2262	2042.9998	2857.55	1974
935.3632	2044.5664	2851.35	1965.5
935.5002	2046.1323	2846.1	1965.15
935.6372	2047.6974	2845.4	1963.6
935.7742	2049.2617	2836.45	1954.85
935.9111	2050.8254	2865.25	1948.4
936.048	2052.3883	2836.25	1950.5
936.1849	2053.9504	2834.3	1948
936.3218	2055.5118	2822.85	1936.5
936.4586	2057.0725	2814.3	1922.15
936.5955	2058.6325	2811.65	1930.1
936.7323	2060.1917	2796	1912.35
936.869	2061.7502	2792.6	1906.45
937.0058	2063.3079	2775.45	1896.6
937.1425	2064.8649	2780.7	1896.2
937.2792	2066.4212	2774.3	1888.45
937.4159	2067.9767	2765.1	1880.35
937.5525	2069.5315	2762.7	1877.95
937.6891	2071.0856	2761.05	1876.75
937.8257	2072.6389	2767.2	1883.8
937.9623	2074.1915	2735.75	1855.4
938.0989	2075.7433	2720.6	1836.1
938.2354	2077.2945	2716.1	1832
938.3719	2078.8448	2737.9	1850.6
938.5084	2080.3945	2714.15	1823.9
938.6448	2081.9434	2720.85	1833.1
938.7812	2083.4916	2705.65	1816.75
938.9176	2085.039	2709.65	1817.05
939.054	2086.5857	2704.7	1809.3
939.1903	2088.1317	2701.25	1806.5
939.3267	2089.677	2694.45	1802.7
939.463	2091.2215	2679.5	1784.55
939.5992	2092.7652	2677	1780.85
939.7355	2094.3083	2680.4	1787.1
939.8717	2095.8506	2676.9	1788.85
940.0079	2097.3921	2665	1777.4
940.1441	2098.933	2651.7	1758.65
940.2802	2100.4731	2661.25	1772.65
940.4163	2102.0124	2658.25	1762.95
940.5524	2103.5511	2653.35	1763.25
940.6885	2105.089	2644.4	1754.15
940.8245	2106.6261	2639.85	1749.5
940.9606	2108.1626	2630.4	1742.2
941.0965	2109.6983	2663	1747.1
941.2325	2111.2332	2624.85	1734.7
941.3684	2112.7675	2626.9	1735.45
941.5044	2114.301	2619.8	1726.25
941.6403	2115.8337	2618.3	1728.15
941.7761	2117.3657	2627.15	1737.5
941.912	2118.897	2622.05	1727.7
942.0478	2120.4276	2611.9	1714.95
942.1835	2121.9575	2593.35	1701.85
942.3193	2123.4866	2594.1	1698.55
942.455	2125.0149	2588.1	1696.2
942.5907	2126.5426	2571.55	1686.05
942.7264	2128.0695	2574.85	1687.25
942.8621	2129.5956	2560.55	1679.45
942.9977	2131.1211	2560.5	1671.15
943.1333	2132.6458	2571.85	1684.25
943.2689	2134.1698	2569.2	1677.2
943.4044	2135.693	2558.95	1662.5
943.54	2137.2155	2546.5	1654.4
943.6755	2138.7373	2550.1	1660.2
943.8109	2140.2584	2548.8	1661.75
943.9464	2141.7787	2539.75	1651.7
944.0818	2143.2983	2519.9	1637.9
944.2172	2144.8171	2514.8	1632.25
944.3526	2146.3353	2512.5	1625.85
944.4879	2147.8527	2510.6	1626.15
944.6232	2149.3693	2514.05	1624
944.7585	2150.8853	2510.15	1618.45
944.8938	2152.4005	2497.95	1604.15
945.029	2153.9149	2499.35	1605.8
945.1642	2155.4287	2490.7	1600.9
945.2994	2156.9417	2482.5	1592.5
945.4346	2158.454	2480.3	1589.8
945.5697	2159.9655	2473.6	1588.2
945.7048	2161.4764	2469.8	1584.1
945.8399	2162.9865	2471.35	1584.25
945.9749	2164.4958	2456.7	1569.35
946.1099	2166.0045	2456.4	1566.15
946.2449	2167.5124	2458.1	1568.05
946.3799	2169.0195	2453.4	1562.95
946.5148	2170.526	2457.45	1566.95
946.6498	2172.0317	2455.35	1566.65
946.7846	2173.5367	2446.8	1556.25
946.9195	2175.0409	2438.55	1552.75
947.0543	2176.5445	2438.25	1547.55
947.1891	2178.0473	2437.55	1544.15
947.3239	2179.5494	2430.7	1533.2
947.4587	2181.0507	2419.85	1530.15
947.5934	2182.5513	2413.5	1525.25
947.7281	2184.0512	2412.45	1521.75
947.8628	2185.5504	2404	1515.25
947.9974	2187.0488	2398.75	1510.5
948.132	2188.5465	2398.5	1512.45
948.2666	2190.0435	2389.6	1502.05
948.4012	2191.5397	2391.8	1501.3
948.5357	2193.0353	2378.35	1487.15
948.6702	2194.5301	2376.25	1478.45
948.8047	2196.0241	2368.9	1475.8
948.9392	2197.5175	2379	1482.85
949.0736	2199.0101	2372.5	1477.65
949.208	2200.502	2350.35	1459.95
949.3424	2201.9931	2352.45	1464.75
949.4767	2203.4835	2342.35	1454.4
949.611	2204.9733	2342.3	1448.8
949.7453	2206.4622	2332.2	1448.35
949.8796	2207.9505	2332.5	1445
950.0138	2209.438	2311.55	1429.05
950.148	2210.9248	2317.3	1429.8
950.2822	2212.4109	2317.55	1428.85
950.4164	2213.8962	2318.15	1424.7
950.5505	2215.3809	2316.2	1419
950.6846	2216.8648	2316.4	1417.1
950.8186	2218.3479	2309.8	1408.5
950.9527	2219.8304	2308.35	1407.5
951.0867	2221.3121	2296.6	1398.25
951.2207	2222.7931	2294.75	1400.05
951.3546	2224.2733	2280.45	1388.55
951.4886	2225.7529	2271.1	1378.35
951.6225	2227.2317	2282.25	1390.05
951.7563	2228.7098	2272.05	1384.35
951.8902	2230.1872	2264.65	1377.35
952.024	2231.6638	2253.7	1366.8
952.1578	2233.1397	2256.8	1367.7
952.2916	2234.6149	2250.25	1362.6
952.4253	2236.0894	2248.15	1357.75
952.559	2237.5632	2253.25	1352.7
952.6927	2239.0362	2235.3	1343.7
952.8263	2240.5085	2232.65	1341
952.9599	2241.9801	2224.9	1333.75
953.0935	2243.4509	2221.05	1328.35
953.2271	2244.921	2217.65	1326.75
953.3606	2246.3904	2225	1328.7
953.4941	2247.8591	2204.9	1311.45
953.6276	2249.3271	2205.5	1313.9
953.7611	2250.7943	2190.8	1296
953.8945	2252.2608	2193.2	1299.9
954.0279	2253.7266	2200.45	1307.5
954.1612	2255.1917	2186.75	1296.05
954.2946	2256.656	2180.15	1292.6
954.4279	2258.1197	2174.95	1288.6
954.5612	2259.5826	2169.55	1278.8
954.6944	2261.0447	2172.55	1282.35
954.8276	2262.5062	2165.95	1270.95
954.9608	2263.9669	2171.15	1275.35
955.094	2265.4269	2160.1	1267.05
955.2271	2266.8862	2162.95	1271.2
955.3602	2268.3448	2165.7	1276.25
955.4933	2269.8026	2147.55	1261.35
955.6264	2271.2598	2148.9	1260.55
955.7594	2272.7162	2142.1	1254.4
955.8924	2274.1719	2146.8	1252.7
956.0253	2275.6268	2144.6	1252.65
956.1583	2277.0811	2144.05	1251
956.2912	2278.5346	2132.05	1240.85
956.4241	2279.9874	2130.65	1241.2
956.5569	2281.4395	2133.95	1247.75
956.6897	2282.8908	2131.35	1240
956.8225	2284.3414	2125.8	1233.3
956.9553	2285.7914	2126.45	1234.65
957.088	2287.2406	2117.25	1222.15
957.2207	2288.689	2118.05	1223.8
957.3534	2290.1368	2108.8	1211.3
957.486	2291.5838	2115.3	1214.3
957.6186	2293.0302	2113.85	1215.5
957.7512	2294.4758	2106.1	1212.6
957.8838	2295.9206	2103.7	1209.4
958.0163	2297.3648	2086.9	1198.6
958.1488	2298.8082	2095.3	1204.3
958.2813	2300.251	2083.45	1191.25
958.4137	2301.693	2086.6	1188.25
958.5461	2303.1343	2077.2	1184.05
958.6785	2304.5748	2084.65	1192.6
958.8108	2306.0147	2073.55	1183.7
958.9432	2307.4538	2066.55	1177.05
959.0754	2308.8922	2060.7	1174.5
959.2077	2310.3299	2056.85	1167.2
959.3399	2311.7669	2047.85	1159.05
959.4721	2313.2031	2046.7	1156.15
959.6043	2314.6387	2055.25	1162.45
959.7365	2316.0735	2045.35	1153.85
959.8686	2317.5076	2040.85	1149.15
960.0006	2318.941	2046.5	1154.1
960.1327	2320.3737	2038.85	1142.55
960.2647	2321.8056	2032.35	1137.35
960.3967	2323.2369	2038.85	1144.45
960.5287	2324.6674	2020.2	1127.65
960.6606	2326.0972	2020.1	1126.85
960.7925	2327.5263	2025.5	1135.5
960.9244	2328.9547	2026.5	1130.5
961.0562	2330.3823	2025.25	1130.7
961.1881	2331.8092	2023.4	1125.35
961.3198	2333.2355	2017.4	1121.6
961.4516	2334.661	2016.8	1123.85
961.5833	2336.0858	2010.9	1113.95
961.715	2337.5098	2001.1	1107.75
961.8467	2338.9332	1993.1	1101.75
961.9783	2340.3558	1990.15	1095.4
962.1099	2341.7778	1986.35	1094
962.2415	2343.199	1993	1100.55
962.373	2344.6195	1987.05	1097.2
962.5045	2346.0393	1982.4	1092.25
962.636	2347.4583	1982.35	1090.7
962.7675	2348.8767	1977.05	1082.05
962.8989	2350.2943	1976.1	1081.5
963.0303	2351.7113	1978.15	1081.75
963.1617	2353.1275	1985.5	1089.7
963.293	2354.543	1971.7	1067.45
963.4243	2355.9578	1966.8	1071.25
963.5556	2357.3718	1958.3	1068.45
963.6868	2358.7852	1964.15	1072.6
963.818	2360.1978	1956.55	1068.7
963.9492	2361.6098	1954.9	1066.35
964.0803	2363.021	1955.9	1059.75
964.2114	2364.4315	1946.65	1055.85
964.3425	2365.8413	1937.4	1044.35
964.4736	2367.2504	1936.15	1049
964.6046	2368.6587	1925.55	1037.3
964.7356	2370.0664	1925.05	1036.9
964.8666	2371.4733	1923.3	1034.4
964.9975	2372.8795	1917.9	1031.1
965.1284	2374.285	1923.25	1035.15
965.2593	2375.6899	1916.3	1025.65
965.3901	2377.0939	1904.05	1014.4
965.5209	2378.4973	1911.7	1023.55
965.6517	2379.9	1904.6	1016.35
965.7825	2381.3019	1896.85	1006.9
965.9132	2382.7032	1897.35	1009.35
966.0439	2384.1037	1889.85	1004.85
966.1745	2385.5035	1878	991.5
966.3051	2386.9027	1882.65	999.05
966.4357	2388.3011	1890.95	1001.95
966.5663	2389.6987	1881.45	994.7
966.6968	2391.0957	1866	981.1
966.8273	2392.492	1874.65	988.55
966.9578	2393.8876	1872.45	984.7
967.0882	2395.2824	1857.45	971.2
967.2186	2396.6765	1853.45	966.95
967.349	2398.07	1853.85	964.55
967.4793	2399.4627	1864.35	973.8
967.6097	2400.8547	1851.35	961.45
967.7399	2402.246	1851.2	958.45
967.8702	2403.6366	1842.65	956.85
968.0004	2405.0265	1838.7	951.8
968.1306	2406.4156	1834.4	945.45
968.2607	2407.8041	1829.9	938.25
968.3909	2409.1918	1837.4	946.9
968.521	2410.5789	1829.75	941.7
968.651	2411.9652	1828.2	936.4
968.781	2413.3508	1821.5	934.85
968.911	2414.7358	1816.4	927.9
969.041	2416.12	1822.3	935.85
969.1709	2417.5035	1815.3	928.55
969.3008	2418.8863	1812.6	924.15
969.4307	2420.2684	1814.7	926.4
969.5606	2421.6497	1809.1	919.15
969.6904	2423.0304	1807.65	920.25
969.8201	2424.4104	1797	908.8
969.9499	2425.7896	1790.95	901.95
970.0796	2427.1682	1787.6	899.15
970.2093	2428.546	1796.3	908.15
970.3389	2429.9232	1797.95	907.3
970.4685	2431.2996	1788.6	902.75
970.5981	2432.6753	1785.3	899.25
970.7277	2434.0503	1792.1	904.9
970.8572	2435.4246	1769.6	881.85
970.9867	2436.7982	1767.45	875.6
971.1161	2438.1711	1774.55	887.4
971.2456	2439.5433	1780.35	890.9
971.375	2440.9148	1770.05	878.05
971.5043	2442.2856	1768.65	878.9
971.6336	2443.6557	1759.7	869.6
971.7629	2445.025	1761.3	873.05
971.8922	2446.3937	1754.6	863.5
972.0214	2447.7617	1750.9	862.85
972.1506	2449.1289	1750.55	863.35
972.2798	2450.4955	1753.4	862.35
972.4089	2451.8613	1743.95	854.7
972.538	2453.2265	1744.35	856.8
972.6671	2454.5909	1741.1	852.55
972.7961	2455.9546	1735.25	846.75
972.9251	2457.3177	1730.35	843.85
973.0541	2458.68	1734.95	844.9
973.1831	2460.0416	1737.7	847.55
973.312	2461.4025	1738.05	849.45
973.4408	2462.7627	1749	850.95
973.5697	2464.1222	1728.45	842.25
973.6985	2465.4811	1728.65	840.85
973.8273	2466.8392	1731.55	845.1
973.956	2468.1966	1729.65	840.55
974.0847	2469.5533	1717.95	825.9
974.2134	2470.9093	1723.05	835.45
974.3421	2472.2645	1719.75	829.15
974.4707	2473.6191	1715.35	826.8
974.5993	2474.973	1718.25	830.35
974.7278	2476.3262	1716.1	828.5
974.8563	2477.6787	1708.2	818.8
974.9848	2479.0305	1698.95	810.85
975.1132	2480.3816	1710.2	817.15
975.2417	2481.7319	1707.85	818.35
975.37	2483.0816	1705.25	815.8
975.4984	2484.4306	1700.95	811.45
975.6267	2485.7789	1696.9	811
975.755	2487.1264	1692.9	805
975.8833	2488.4733	1681.4	793.8
976.0115	2489.8195	1704.1	798.8
976.1397	2491.165	1687.3	795.05
976.2678	2492.5097	1679.5	790.35
976.3959	2493.8538	1664.85	776.75
976.524	2495.1972	1672.8	783.35
976.6521	2496.5398	1665.7	775.45
976.7801	2497.8818	1674.9	785.5
976.9081	2499.2231	1671.7	781.15
977.036	2500.5637	1671	777.95
977.164	2501.9035	1659.7	767.9
977.2918	2503.2427	1666.05	774.3
977.4197	2504.5812	1657.6	769.05
977.5475	2505.919	1662.55	772.05
977.6753	2507.256	1657.3	766.3
977.8031	2508.5924	1654.1	764.9
977.9308	2509.9281	1657.95	764.15
978.0585	2511.2631	1651.8	763.4
978.1861	2512.5974	1643.05	756.05
978.3137	2513.9309	1642.8	752.35
978.4413	2515.2638	1671.05	755.55
978.5689	2516.596	1643.35	754.6
978.6964	2517.9275	1637.4	747.4
978.8239	2519.2583	1635.6	746.25
978.9513	2520.5884	1635.7	744.3
979.0788	2521.9178	1635.45	746.25
979.2062	2523.2465	1624.25	735.9
979.3335	2524.5745	1617.3	729.15
979.4608	2525.9018	1623.1	734.2
979.5881	2527.2284	1626.25	738.6
979.7154	2528.5543	1617.6	727.25
979.8426	2529.8796	1626.65	737.45
979.9698	2531.2041	1617	727.75
980.0969	2532.5279	1619.5	731.15
980.224	2533.851	1617.5	729
980.3511	2535.1735	1615.05	725.3
980.4781	2536.4952	1617.1	727
980.6052	2537.8163	1611.65	721
980.7321	2539.1366	1606.25	715.2
980.8591	2540.4562	1612.15	721.15
980.986	2541.7752	1607.1	714.3
981.1129	2543.0935	1614.55	724.3
981.2397	2544.411	1607.65	715.7
981.3665	2545.7279	1602	711.6
981.4933	2547.0441	1605.15	718.4
981.62	2548.3596	1612.35	720.4
981.7467	2549.6744	1600.05	710.45
981.8734	2550.9885	1596.55	702.9
982.0001	2552.3019	1594.65	705.75
982.1267	2553.6146	1593.35	703.15
982.2532	2554.9266	1583.65	694.35
982.3798	2556.2379	1587.45	694.65
982.5063	2557.5485	1584.25	696
982.6327	2558.8585	1589.45	692.1
982.7592	2560.1677	1585.7	694.1
982.8856	2561.4762	1586.55	699.1
983.0119	2562.7841	1580.4	688.95
983.1383	2564.0913	1576.55	687.7
983.2646	2565.3977	1574.4	684.9
983.3908	2566.7035	1565.35	675.45
983.517	2568.0086	1580.4	689.1
983.6432	2569.313	1574.9	680.8
983.7694	2570.6167	1581.25	685.85
983.8955	2571.9197	1571.35	681.6
984.0216	2573.222	1570.25	677.5
984.1476	2574.5236	1570.15	679.95
984.2737	2575.8246	1569	676.1
984.3996	2577.1248	1570.75	676.8
984.5256	2578.4244	1570.15	681.8
984.6515	2579.7232	1568.65	678.65
984.7774	2581.0214	1595.45	676.7
984.9032	2582.3189	1567.7	675.95
985.029	2583.6157	1575.45	682.6
985.1548	2584.9118	1563.9	671.6
985.2806	2586.2072	1567.6	676.3
985.4063	2587.5019	1564.15	674.75
985.5319	2588.7959	1559.95	669.7
985.6576	2590.0893	1570	678.25
985.7832	2591.3819	1567.8	679.5
985.9087	2592.6739	1565.45	675.15
986.0343	2593.9652	1561.05	670.25
986.1597	2595.2557	1566.2	676.45
986.2852	2596.5456	1567.35	675.55
986.4106	2597.8348	1570.6	680.95
986.536	2599.1234	1562	672.7
986.6614	2600.4112	1557.85	669.6
986.7867	2601.6983	1570.25	678.7
986.912	2602.9848	1561.9	673.2
987.0372	2604.2705	1569.85	675.45
987.1624	2605.5556	1559.75	669.75
987.2876	2606.84	1553.9	666
987.4128	2608.1237	1558.55	667.9
987.5379	2609.4067	1552.05	660
987.6629	2610.689	1564.75	665.55
987.788	2611.9707	1550.7	657.6
987.913	2613.2516	1548.9	653.25
988.0379	2614.5319	1544.6	656.95
988.1629	2615.8115	1536.6	645.5
988.2878	2617.0903	1536.15	647.8
988.4126	2618.3685	1535.65	645.45
988.5375	2619.6461	1534.4	644.8
988.6622	2620.9229	1542.6	653.65
988.787	2622.199	1537.05	644.55
988.9117	2623.4745	1535.15	644.95
989.0364	2624.7493	1532.6	643.15
989.161	2626.0234	1531.9	642.5
989.2857	2627.2968	1536.4	647.4
989.4102	2628.5695	1526.25	635.25
989.5348	2629.8415	1528.2	641.4
989.6593	2631.1128	1531	639.75
989.7837	2632.3835	1529.5	641.6
989.9082	2633.6535	1523.25	633.8
990.0326	2634.9228	1527.95	637.7
990.1569	2636.1914	1523.55	632.7
990.2812	2637.4593	1524.5	634
990.4055	2638.7265	1521.4	632.2
990.5298	2639.9931	1518.15	630.3
990.654	2641.259	1519.4	629.4
990.7782	2642.5242	1511.45	622
990.9023	2643.7887	1514.35	624.4
991.0264	2645.0525	1516.05	628.95
991.1505	2646.3156	1512.7	623.55
991.2745	2647.5781	1503.8	614.85
991.3985	2648.8398	1499.35	612.3
991.5225	2650.1009	1508.75	610.55
991.6464	2651.3613	1501.9	612.95
991.7703	2652.6211	1500.35	612.7
991.8942	2653.8801	1494.5	605.25
992.018	2655.1385	1506.35	616.75
992.1418	2656.3961	1497.8	608.85
992.2655	2657.6531	1497.8	609.95
992.3892	2658.9094	1495.75	608.25
992.5129	2660.1651	1489.25	600.7
992.6366	2661.42	1494.75	606.65
992.7602	2662.6743	1507.05	617.65
992.8837	2663.9279	1498.8	610
993.0073	2665.1808	1501.9	614.05
993.1307	2666.433	1497.1	605.95
993.2542	2667.6846	1501.55	612.15
993.3776	2668.9354	1508.65	616.65
993.501	2670.1856	1511.6	620.65
993.6244	2671.4351	1506.55	621.05
993.7477	2672.6839	1518.7	630.3
993.8709	2673.9321	1504.25	618
993.9942	2675.1795	1511.55	622.8
994.1174	2676.4263	1509.55	621.4
994.2405	2677.6724	1515.2	626.9
994.3637	2678.9179	1511.45	622.7
994.4868	2680.1626	1511.9	621.05
994.6098	2681.4067	1514.9	626.95
994.7328	2682.6501	1512.7	625.3
994.8558	2683.8928	1506.85	617.45
994.9788	2685.1348	1507.4	619.9
995.1017	2686.3761	1503.65	616.3
995.2245	2687.6168	1496.9	609.2
995.3474	2688.8568	1503.65	615.7
995.4702	2690.0961	1493.25	605.35
995.5929	2691.3348	1494.4	604.65
995.7156	2692.5727	1488.6	599.45
995.8383	2693.81	1487.2	599.55
995.961	2695.0466	1481	593.5
996.0836	2696.2826	1483.7	593.25
996.2062	2697.5178	1485	594.15
996.3287	2698.7524	1478.55	590.75
996.4512	2699.9863	1488.75	601.6
996.5737	2701.2195	1486.95	600.25
996.6961	2702.452	1491.25	601.05
996.8185	2703.6839	1499.2	610.65
996.9408	2704.9151	1498.2	608.85
997.0631	2706.1456	1493.7	605.6
997.1854	2707.3755	1505.6	615.6
997.3077	2708.6046	1515.4	624.3
997.4299	2709.8331	1515	627.7
997.552	2711.0609	1525.6	634.5
997.6742	2712.2881	1528.5	640.2
997.7963	2713.5145	1544.35	653.1
997.9183	2714.7403	1546.1	658.35
998.0403	2715.9654	1566.45	678.05
998.1623	2717.1899	1581	678.95
998.2842	2718.4136	1578.7	691.5
998.4062	2719.6367	1590.5	700.9
998.528	2720.8591	1603.9	709
998.6498	2722.0809	1605.7	719.75
998.7716	2723.3019	1623.6	732.35
998.8934	2724.5223	1623.15	733.5
999.0151	2725.7421	1634.9	747.7
999.1368	2726.9611	1637.05	748.05
999.2584	2728.1795	1636.5	745.7
999.38	2729.3972	1630.35	743.05
999.5016	2730.6142	1630.7	729.15
999.6231	2731.8306	1596.65	706.35
999.7446	2733.0462	1581	689.7
999.8661	2734.2612	1563.55	672.4
999.9875	2735.4756	1551.1	661.75
1000.1089	2736.6892	1537.65	650.95
1000.2302	2737.9022	1518.2	634.6
1000.3515	2739.1145	1509.6	621
1000.4728	2740.3262	1501.2	605.25
1000.594	2741.5372	1482.3	594.5
1000.7152	2742.7475	1478.95	591
1000.8363	2743.9571	1461.65	575.8
1000.9575	2745.1661	1465	570.6
1001.0785	2746.3744	1452.55	566.4
1001.1996	2747.582	1435.45	549.05
1001.3206	2748.7889	1435.2	546.95
1001.4415	2749.9952	1424	536.75
1001.5625	2751.2008	1414.15	525.45
1001.6833	2752.4057	1422.6	533.05
1001.8042	2753.61	1413.25	524.75
1001.925	2754.8136	1417.25	526.75
1002.0458	2756.0165	1400.95	514.4
1002.1665	2757.2188	1403.8	516.6
1002.2872	2758.4204	1404.65	519.5
1002.4078	2759.6213	1398.8	510.65
1002.5285	2760.8215	1402.55	508.65
1002.649	2762.0211	1410.65	521.4
1002.7696	2763.22	1402.6	509.25
1002.8901	2764.4182	1404.6	516.1
1003.0106	2765.6158	1403	515.8
1003.131	2766.8127	1397.5	510.95
1003.2514	2768.009	1392.4	507.55
1003.3717	2769.2045	1391.75	503.1
1003.492	2770.3994	1391.55	503.25
1003.6123	2771.5936	1381.35	493.45
1003.7325	2772.7872	1381.95	495.65
1003.8527	2773.9801	1383.1	494.5
1003.9729	2775.1723	1400.3	497.35
1004.093	2776.3639	1381.35	496.35
1004.2131	2777.5548	1379.15	488.8
1004.3331	2778.745	1384.45	495.15
1004.4531	2779.9346	1377.9	492.5
1004.5731	2781.1235	1383.05	495.5
1004.693	2782.3117	1388.1	503.05
1004.8129	2783.4992	1382.3	496.15
1004.9328	2784.6861	1386.35	498.6
1005.0526	2785.8723	1391.1	504.95
1005.1723	2787.0579	1400.6	511.7
1005.2921	2788.2428	1406.95	521
1005.4118	2789.427	1414.7	530.35
1005.5314	2790.6106	1417.25	530.85
1005.651	2791.7935	1432	546.6
1005.7706	2792.9757	1436.6	551.05
1005.8902	2794.1573	1456.55	568.75
1006.0097	2795.3382	1458.65	572.85
1006.1291	2796.5184	1473.85	588.6
1006.2485	2797.698	1485.8	598.4
1006.3679	2798.8769	1504.25	618.15
1006.4873	2800.0551	1510.4	623.45
1006.6066	2801.2327	1528.75	639.2
1006.7258	2802.4096	1542.55	655.95
1006.8451	2803.5859	1568.15	682.35
1006.9642	2804.7615	1589.25	704.15
1007.0834	2805.9364	1602.05	716.2
1007.2025	2807.1106	1630.1	745.15
1007.3216	2808.2842	1663.5	777.8
1007.4406	2809.4572	1683.85	796.7
1007.5596	2810.6294	1721.35	834.7
1007.6785	2811.801	1762.25	879.5
1007.7975	2812.972	1795.2	909.05
1007.9163	2814.1423	1838.2	952.15
1008.0352	2815.3119	1874.5	988.55
1008.154	2816.4808	1926.4	1042.85
1008.2727	2817.6491	1981.75	1094.65
1008.3914	2818.8167	2025.7	1140.2
1008.5101	2819.9837	2075.55	1186.25
1008.6288	2821.15	2117	1230.9
1008.7474	2822.3157	2175.8	1291.1
1008.8659	2823.4807	2220.45	1335.15
1008.9844	2824.645	2260.4	1372.45
1009.1029	2825.8086	2319	1433.85
1009.2214	2826.9716	2358.65	1475.3
1009.3398	2828.134	2405.7	1521.65
1009.4581	2829.2957	2436.15	1551.4
1009.5764	2830.4567	2472.65	1589.1
1009.6947	2831.617	2491.95	1607.8
1009.813	2832.7767	2505.15	1620.15
1009.9312	2833.9358	2507.95	1622.4
1010.0493	2835.0941	2496.6	1610.3
1010.1675	2836.2519	2497.4	1613.6
1010.2855	2837.4089	2487.6	1601.65
1010.4036	2838.5653	2468.6	1584.7
1010.5216	2839.7211	2469.75	1585.4
1010.6396	2840.8761	2467.2	1578.8
1010.7575	2842.0306	2497.4	1613.55
1010.8754	2843.1843	2523.15	1637.3
1010.9932	2844.3374	2562.85	1677.9
1011.111	2845.4899	2620.65	1735.8
1011.2288	2846.6417	2688.25	1803.15
1011.3465	2847.7928	2758	1873.35
1011.4642	2848.9433	2832.3	1946.45
1011.5818	2850.0931	2900.7	2015.8
1011.6995	2851.2422	2980.5	2095.7
1011.817	2852.3907	3032.9	2147.15
1011.9345	2853.5385	3108.75	2222.9
1012.052	2854.6857	3159.95	2248.95
1012.1695	2855.8323	3191.8	2307.65
1012.2869	2856.9781	3247.85	2362.2
1012.4042	2858.1233	3297.85	2414.9
1012.5216	2859.2679	3324.35	2440.8
1012.6389	2860.4118	3373.6	2489.6
1012.7561	2861.555	3426.55	2538.45
1012.8733	2862.6976	3470.2	2584.75
1012.9905	2863.8395	3490.15	2607.15
1013.1076	2864.9808	3503.55	2617.05
1013.2247	2866.1214	3532.4	2648.6
1013.3417	2867.2614	3547.15	2659.95
1013.4587	2868.4007	3567.7	2680.4
1013.5757	2869.5393	3585.3	2698.4
1013.6926	2870.6773	3591.35	2704
1013.8095	2871.8146	3604.75	2718.65
1013.9263	2872.9513	3607.9	2719.8
1014.0431	2874.0874	3601.25	2717.5
1014.1599	2875.2227	3588.45	2701.75
1014.2766	2876.3574	3570.9	2687.2
1014.3933	2877.4915	3545.65	2661.1
1014.51	2878.6249	3522.6	2639.35
1014.6266	2879.7577	3521	2635.75
1014.7431	2880.8898	3488.25	2593.25
1014.8596	2882.0212	3472.2	2588.35
1014.9761	2883.152	3463.95	2578.8
1015.0925	2884.2821	3448.55	2564.65
1015.2089	2885.4116	3432.85	2552.5
1015.3253	2886.5405	3451.8	2568.6
1015.4416	2887.6686	3441.35	2556.05
1015.5579	2888.7962	3457.95	2576.15
1015.6741	2889.923	3447.6	2565
1015.7903	2891.0493	3478.5	2595.5
1015.9065	2892.1748	3484.4	2597.4
1016.0226	2893.2997	3491.5	2605.5
1016.1387	2894.424	3497.15	2615
1016.2547	2895.5476	3508.8	2626.55
1016.3707	2896.6706	3536.55	2653.5
1016.4866	2897.7929	3573.9	2689.65
1016.6025	2898.9145	3610.75	2727.3
1016.7184	2900.0355	3632.25	2748
1016.8342	2901.1559	3651.2	2765.2
1016.95	2902.2756	3685.8	2803.8
1017.0658	2903.3946	3722.7	2840.1
1017.1815	2904.513	3751.35	2864.1
1017.2971	2905.6308	3768.6	2885.75
1017.4127	2906.7479	3799.2	2914.1
1017.5283	2907.8643	3812.8	2931.55
1017.6439	2908.9801	3830.55	2946.8
1017.7594	2910.0953	3839.5	2955.85
1017.8748	2911.2098	3855.8	2967.75
1017.9902	2912.3236	3847.8	2955.6
1018.1056	2913.4368	3828.1	2942.15
1018.2209	2914.5494	3817.6	2935.95
1018.3362	2915.6613	3783.45	2894.7
1018.4515	2916.7725	3767.8	2882.85
1018.5667	2917.8831	3713.3	2826.7
1018.6819	2918.9931	3691.7	2806.3
1018.797	2920.1024	3656.7	2773.2
1018.9121	2921.211	3647.1	2765.7
1019.0271	2922.319	3631.25	2746.95
1019.1421	2923.4264	3603.8	2721.6
1019.2571	2924.5331	3601.35	2721.3
1019.372	2925.6391	3592.6	2711.6
1019.4869	2926.7445	3591.6	2709.9
1019.6017	2927.8493	3580.65	2700.85
1019.7165	2928.9534	3581.05	2696.6
1019.8313	2930.0569	3561.75	2678.8
1019.946	2931.1597	3580.6	2696.6
1020.0606	2932.2619	3562.6	2680.35
1020.1753	2933.3634	3568.25	2683.65
1020.2899	2934.4643	3567.75	2678.4
1020.4044	2935.5645	3551.9	2662.9
1020.5189	2936.6641	3511.55	2624
1020.6334	2937.763	3458.65	2576.75
1020.7478	2938.8613	3429.55	2546.65
1020.8622	2939.959	3386.35	2497.35
1020.9765	2941.056	3314.55	2432.9
1021.0908	2942.1523	3223	2338.15
1021.2051	2943.248	3148.8	2264.15
1021.3193	2944.3431	3052.8	2171.1
1021.4334	2945.4375	2968.5	2086.55
1021.5476	2946.5313	2874.8	1994.7
1021.6617	2947.6244	2753.05	1869.75
1021.7757	2948.7169	2669	1785.7
1021.8897	2949.8087	2585.65	1704.35
1022.0037	2950.8999	2488.7	1606.6
1022.1176	2951.9904	2402.3	1520.8
1022.2315	2953.0803	2331.75	1448.15
1022.3453	2954.1696	2275.9	1394.7
1022.4591	2955.2582	2218.6	1336.45
1022.5728	2956.3462	2171	1290.4
1022.6865	2957.4335	2145.9	1262.7
1022.8002	2958.5202	2098.75	1214.35
1022.9138	2959.6062	2075.75	1192.25
1023.0274	2960.6916	2050.55	1169
1023.141	2961.7764	2043.6	1158.55
1023.2545	2962.8605	2018.9	1135.2
1023.3679	2963.9439	1994.95	1115.05
1023.4813	2965.0267	1994.8	1108.75
1023.5947	2966.1089	2011.5	1108.15
1023.708	2967.1905	1989.35	1107.75
1023.8213	2968.2714	1979.4	1099.7
1023.9346	2969.3516	1974.5	1091.8
1024.0478	2970.4312	1987	1096.75
1024.1609	2971.5102	1992.75	1111.9
1024.274	2972.5885	1984.55	1104.55
1024.3871	2973.6662	1991.55	1103.7
1024.5002	2974.7432	1988.85	1108.05
1024.6132	2975.8196	1976.75	1092.85
1024.7261	2976.8954	1961.35	1079.85
1024.839	2977.9705	1951.45	1071.5
1024.9519	2979.045	1949.05	1067.9
1025.0647	2980.1188	1933.05	1050.45
1025.1775	2981.192	1910.8	1029.4
1025.2902	2982.2645	1898.75	1016.05
1025.4029	2983.3364	1865.55	984.75
1025.5156	2984.4077	1843.25	960.25
1025.6282	2985.4783	1823.7	935.2
1025.7407	2986.5483	1782.5	900.95
1025.8532	2987.6177	1743.75	862.15
1025.9657	2988.6864	1715.65	834.9
1026.0782	2989.7545	1685.85	802.9
1026.1906	2990.8219	1660.6	777.8
1026.3029	2991.8887	1621.45	735.1
1026.4152	2992.9548	1588.35	704.9
1026.5275	2994.0204	1551.4	671.2
1026.6397	2995.0852	1529.75	649.7
1026.7519	2996.1495	1504	622.5
1026.864	2997.2131	1471.5	590.25
1026.9761	2998.276	1449.6	569.25
1027.0882	2999.3383	1439.95	557.7
1027.2002	3000.4	1418.35	537.25
1027.3122	3001.4611	1407.8	526.1
1027.4241	3002.5215	1391.55	511.35
1027.536	3003.5812	1371.2	489.15
1027.6478	3004.6404	1353.55	473
1027.7596	3005.6989	1354.85	471.35
1027.8714	3006.7567	1344.55	462.3
1027.9831	3007.8139	1363.3	448.65
1028.0947	3008.8705	1324.3	444
1028.2064	3009.9264	1325.7	439.15
1028.3179	3010.9818	1317.05	437.55
1028.4295	3012.0364	1309.35	425.4
1028.541	3013.0905	1302.75	420.9
1028.6524	3014.1439	1313.55	432.25
1028.7638	3015.1966	1304.4	421.8
1028.8752	3016.2487	1292.95	412.7
1028.9865	3017.3002	1303.25	414.35
1029.0978	3018.3511	1291.35	413
1029.209	3019.4013	1291.45	409.55
1029.3202	3020.4509	1289.8	408.55
1029.4314	3021.4998	1290.3	407.7
1029.5425	3022.5481	1295.95	415.4
1029.6535	3023.5958	1289.2	408.3
1029.7645	3024.6428	1288.75	406.25
1029.8755	3025.6892	1286.85	408.25
1029.9864	3026.735	1295.55	413.55
1030.0973	3027.7802	1293.25	410.75
1030.2082	3028.8247	1291.65	411.8
1030.319	3029.8685	1299.7	419.1
1030.4297	3030.9118	1298.95	416.5
1030.5404	3031.9544	1305.9	425.3
1030.6511	3032.9963	1309.05	426.85
1030.7617	3034.0376	1310.55	430.85
1030.8723	3035.0783	1313.4	429.55
1030.9829	3036.1184	1320.55	437.25
1031.0934	3037.1578	1315.3	434.4
1031.2038	3038.1966	1326.85	443.5
1031.3142	3039.2348	1322.25	444.1
1031.4246	3040.2723	1335.9	446.4
1031.5349	3041.3092	1324.45	446.05
1031.6452	3042.3455	1327.8	446.3
1031.7554	3043.3811	1323.25	441.65
1031.8656	3044.4161	1321	438.55
1031.9758	3045.4505	1309.9	431.1
1032.0859	3046.4842	1310.95	430
1032.1959	3047.5173	1302.1	420.85
1032.3059	3048.5498	1298.4	418.55
1032.4159	3049.5816	1295.55	414.3
1032.5258	3050.6128	1293.8	413.85
1032.6357	3051.6434	1292.65	411.8
1032.7455	3052.6734	1281.95	400.25
1032.8553	3053.7027	1275.1	394.45
1032.9651	3054.7314	1269.7	387.8
1033.0748	3055.7594	1259.25	379.1
1033.1845	3056.7868	1258.65	377.65
1033.2941	3057.8136	1252.4	371.25
1033.4037	3058.8398	1257.5	379.3
1033.5132	3059.8653	1242.05	362
1033.6227	3060.8902	1237.55	356.1
1033.7321	3061.9145	1237.9	357.6
1033.8415	3062.9381	1240.2	359.8
1033.9509	3063.9612	1246.5	348.7
1034.0602	3064.9835	1228.8	346.8
1034.1694	3066.0053	1223.25	342.45
1034.2787	3067.0264	1219.7	339.15
1034.3878	3068.0469	1211.2	330.35
1034.497	3069.0668	1211	328.2
1034.6061	3070.086	1198.3	319.6
1034.7151	3071.1046	1194.8	313.95
1034.8241	3072.1226	1185.75	304.4
1034.9331	3073.1399	1169.5	290.8
1035.042	3074.1567	1165.5	285.3
1035.1508	3075.1727	1158.25	274.85
1035.2597	3076.1882	1155.15	276.15
1035.3684	3077.203	1144.95	263.25
1035.4772	3078.2173	1137.9	256.9
1035.5859	3079.2308	1131.95	249.65
1035.6945	3080.2438	1127.8	244.55
1035.8031	3081.2561	1119.45	239.8
1035.9117	3082.2678	1112.4	231.5
1036.0202	3083.2789	1101.95	224.15
1036.1286	3084.2893	1092.3	213
1036.2371	3085.2991	1094.9	215.4
1036.3454	3086.3083	1091.05	206.7
1036.4538	3087.3169	1084.1	202.9
1036.562	3088.3248	1077.05	195.35
1036.6703	3089.3321	1079.35	197.65
1036.7785	3090.3388	1071.05	190.6
1036.8866	3091.3449	1063.6	183.7
1036.9948	3092.3503	1068.85	184
1037.1028	3093.3551	1057.15	178.9
1037.2108	3094.3593	1053.75	174.65
1037.3188	3095.3629	1053.45	174.5
1037.4267	3096.3658	1053.9	171.95
1037.5346	3097.3681	1048.3	167.55
1037.6425	3098.3698	1045.45	163.65
1037.7503	3099.3708	1049.55	163.1
1037.858	3100.3713	1042	162.9
1037.9657	3101.3711	1042.5	162.9
1038.0734	3102.3702	1172.85	157.45
1038.181	3103.3688	1037	155.05
1038.2886	3104.3667	1034.3	155.45
1038.3961	3105.364	1031.15	151.15
1038.5036	3106.3607	1032	150.9
1038.611	3107.3568	1032.55	151.2
1038.7184	3108.3522	1025.25	147.05
1038.8257	3109.347	1026.5	147.25
1038.933	3110.3412	1028.35	145.65
1039.0403	3111.3348	1016.7	138.25
1039.1475	3112.3277	1020.05	139.6
1039.2547	3113.32	1016.9	137.15
1039.3618	3114.3117	1014.45	136.2
1039.4689	3115.3028	1009.3	129.85
1039.5759	3116.2932	1016.55	136.65
1039.6829	3117.2831	1016.9	133.45
1039.7898	3118.2723	1010.45	133.35
1039.8967	3119.2608	1006.85	125.85
1040.0035	3120.2488	1009.55	128.45
1040.1103	3121.2361	1009.55	129.65
1040.2171	3122.2229	1005.9	126.4
1040.3238	3123.209	1003.15	120.9
1040.4305	3124.1944	1000.3	122.1
1040.5371	3125.1793	1005.45	125.2
1040.6437	3126.1635	1000.7	122.9
1040.7502	3127.1471	998.1	120.25
1040.8567	3128.1301	995.4	119
1040.9631	3129.1125	998	118.25
1041.0695	3130.0942	995	116.2
1041.1759	3131.0753	1008.75	121.55
1041.2822	3132.0558	994.4	113.3
1041.3884	3133.0357	995.15	113.3
1041.4946	3134.015	992.45	112.15
1041.6008	3134.9936	991.75	112.2
1041.7069	3135.9716	1009.75	112.65
1041.813	3136.949	988.2	110.5
1041.919	3137.9258	1004.4	108.15
1042.025	3138.902	993.45	108.3
1042.1309	3139.8775	984.35	105.4
1042.2368	3140.8524	982.1	101.7
1042.3427	3141.8267	984.6	102.15
1042.4485	3142.8004	984.4	104.6
1042.5542	3143.7735	987.65	103
1042.6599	3144.7459	981	99.6
1042.7656	3145.7178	981	103.35
1042.8712	3146.689	979.7	99.85
1042.9768	3147.6596	979.7	99.35
1043.0823	3148.6295	977.9	97.45
1043.1878	3149.5989	977.2	98.85
1043.2932	3150.5676	975.2	96.3
1043.3986	3151.5357	976.4	99.85
1043.5039	3152.5032	974.9	94.9
1043.6092	3153.4701	975.75	98.1
1043.7145	3154.4364	972.75	90.1
1043.8197	3155.402	973.3	95.35
1043.9248	3156.367	972.85	91.7
1044.03	3157.3315	1000.85	92.1
1044.135	3158.2952	968.2	88.65
1044.24	3159.2584	971.1	91.6
1044.345	3160.221	968.3	90.15
1044.4499	3161.1829	966.95	89
1044.5548	3162.1442	967.25	86.75
1044.6596	3163.105	966.05	87.1
1044.7644	3164.065	964.5	84.4
1044.8692	3165.0245	964.1	82.1
1044.9739	3165.9834	965.15	87.7
1045.0785	3166.9416	964.15	87.95
1045.1831	3167.8993	961.8	82.55
1045.2877	3168.8563	962.7	84.35
1045.3922	3169.8127	959.4	80.7
1045.4966	3170.7684	961.05	81.65
1045.6011	3171.7236	960.9	82.4
1045.7054	3172.6782	961.5	83.8
1045.8098	3173.6321	961.75	83.65
1045.914	3174.5854	962.8	79.6
1046.0183	3175.5381	958.15	79.25
1046.1224	3176.4902	955.85	78.15
1046.2266	3177.4417	958.6	80.35
1046.3307	3178.3926	957.7	79
1046.4347	3179.3428	953.9	77.5
1046.5387	3180.2924	957.45	80.65
1046.6427	3181.2415	956	77.35
1046.7466	3182.1899	957.15	77.05
1046.8504	3183.1377	950.15	71.8
1046.9542	3184.0848	953.7	72.55
1047.058	3185.0314	955.15	76.05
1047.1617	3185.9773	954.85	75.95
1047.2654	3186.9227	950.8	72.2
1047.369	3187.8674	952.5	76
1047.4726	3188.8115	959.55	78.25
1047.5761	3189.755	950.2	72.4
1047.6796	3190.6979	947.6	69.4
1047.783	3191.6402	947.55	70.15
1047.8864	3192.5818	947.65	70.9
1047.9898	3193.5229	969.55	72.6
1048.0931	3194.4633	950.8	73.45
1048.1963	3195.4031	951.3	72.45
1048.2995	3196.3423	948.45	70.3
1048.4027	3197.2809	945.55	67.85
1048.5058	3198.2189	948.9	71.35
1048.6089	3199.1563	954.2	70.1
1048.7119	3200.0931	944.65	69.55
1048.8148	3201.0292	942.4	65.9
1048.9178	3201.9648	944.55	65.3
1049.0206	3202.8997	944.8	62.5
1049.1235	3203.834	944.4	67
1049.2262	3204.7677	944.2	67.05
1049.329	3205.7008	946	66.1
1049.4317	3206.6333	941.15	64.6
1049.5343	3207.5652	945.7	64.1
1049.6369	3208.4964	943.3	67.2
1049.7394	3209.4271	943.8	66.55
1049.8419	3210.3571	940.7	62.75
1049.9444	3211.2865	940.55	61.5
1050.0468	3212.2154	939.4	59.35
1050.1491	3213.1436	941.25	61.85
1050.2514	3214.0712	948.9	63.75
1050.3537	3214.9982	938.75	60.9
1050.4559	3215.9246	939.65	62.35
1050.5581	3216.8503	937.05	59.85
1050.6602	3217.7755	938.45	60.95
1050.7623	3218.7001	938.3	60.6
1050.8643	3219.624	939.9	61.4
1050.9663	3220.5473	938.1	59.3
1051.0682	3221.4701	939.9	59.9
1051.1701	3222.3922	940.6	62
1051.2719	3223.3137	937.95	64
1051.3737	3224.2346	940.75	64.25
1051.4754	3225.1549	933.7	56.35
1051.5771	3226.0746	934.7	56.15
1051.6788	3226.9937	936.25	57.85
1051.7804	3227.9121	933.9	56.1
1051.8819	3228.83	931.9	55.85
1051.9834	3229.7473	935.3	56.15
1052.0849	3230.6639	934.2	57.2
1052.1863	3231.5799	932.35	55.7
1052.2876	3232.4954	934.15	56.8
1052.3889	3233.4102	933.1	54.95
1052.4902	3234.3244	933.4	56.1
1052.5914	3235.238	933.9	54.3
1052.6926	3236.151	958.2	57.5
1052.7937	3237.0634	931.2	55.1
1052.8948	3237.9752	928.35	50.2
1052.9958	3238.8864	930.1	53.65
1053.0968	3239.797	930.75	54.1
1053.1977	3240.7069	928.85	51.85
1053.2986	3241.6163	932.95	52.4
1053.3994	3242.5251	929.45	55.65
1053.5002	3243.4332	928	51.1
1053.6009	3244.3408	930.1	52.05
1053.7016	3245.2477	927.65	52.3
1053.8022	3246.154	929.9	52.45
1053.9028	3247.0598	930.6	53.1
1054.0034	3247.9649	925.55	48.45
1054.1039	3248.8694	927.85	52.45
1054.2043	3249.7733	927.8	49.75
1054.3047	3250.6766	923.85	47.1
1054.4051	3251.5793	924.1	44.25
1054.5054	3252.4814	924.05	47.9
1054.6056	3253.3829	925.7	50.15
1054.7058	3254.2838	922.3	46.05
1054.806	3255.1841	921.7	46.65
1054.9061	3256.0838	922.15	45.9
1055.0061	3256.9829	922.3	47.45
1055.1062	3257.8814	923.05	45.1
1055.2061	3258.7792	921.6	41.2
1055.306	3259.6765	922	43.75
1055.4059	3260.5731	918.95	42.4
1055.5057	3261.4692	916.95	39.1
1055.6055	3262.3647	918.5	40.95
1055.7052	3263.2595	916.8	39.8
1055.8049	3264.1538	919.6	44.8
1055.9045	3265.0474	917.6	40.45
1056.0041	3265.9404	916.75	40.8
1056.1036	3266.8329	913.4	39.25
1056.2031	3267.7247	923.95	36.95
1056.3025	3268.616	913.95	41.35
1056.4019	3269.5066	911.2	33.7
1056.5013	3270.3966	913.05	34.25
1056.6005	3271.286	907.95	31.8
