Software Version:	3.9.2.0
Unit SN:	10000200
Spectrometer SN:	6960
Date:	3/8/2024 11:46:05 AM
Data Line Index:	25
Spectral Points:	2048
Integration time (ms):	125
Averages:	20
Delay (ms):	30000
Sequence Number:	1
Processing:	dark subtract
Laser Power (mW):	305
Laser Current (mA):	821
Laser Diode Temp (C):	25
Laser Case Temp (C):	25.3
System Temp (C):	25.3
Spectrometer Temp (C):	23.1
CCD Temp (C):	-0.002
Secondary Temp (C):	20.008
Heatsink Temp (C):	19.96
CCDPCB Temp (C):	35.04
SecondaryPCB Temp (C):	27.67

Wavelength	RamanShift	Raw Counts	Dark Subtracted
787.061	30.1047	413.75	4.3
787.2016	32.3739	412.15	7.5
787.3422	34.6426	412.55	5.6
787.4828	36.9109	414.45	5.1
787.6235	39.1787	419.2	6.6
787.7642	41.4461	426.65	6.6
787.9049	43.7131	429.6	8
788.0456	45.9796	433.7	9.6
788.1863	48.2456	438.5	8.95
788.3271	50.5112	441.1	8.7
788.4679	52.7764	446.1	11.2
788.6087	55.0411	450.35	11.15
788.7496	57.3054	457.15	12.7
788.8904	59.5692	461.15	13.95
789.0313	61.8326	460.75	11.9
789.1722	64.0955	466.75	13.25
789.3132	66.3579	474.3	16.4
789.4541	68.6199	479.95	18.1
789.5951	70.8815	490.85	24.4
789.7361	73.1426	508.1	38.3
789.8771	75.4032	542.1	69.35
790.0181	77.6634	614.15	137.7
790.1592	79.9231	780.1	297.7
790.3003	82.1824	1127.7	636.95
790.4414	84.4412	1690.2	1184.85
790.5825	86.6995	2402.85	1878.2
790.7237	88.9574	3092.3	2554.85
790.8648	91.2148	3552.1	3001.55
791.006	93.4717	3746.4	3190
791.1472	95.7282	3758.25	3198.5
791.2885	97.9842	3761.75	3196.45
791.4297	100.2398	3709.65	3144.75
791.571	102.4949	3642.05	3071.6
791.7123	104.7495	3603.3	3032.05
791.8536	107.0036	3546.75	2970.5
791.9949	109.2573	3489.6	2918.9
792.1363	111.5105	3369.25	2795.05
792.2777	113.7632	3268.6	2690.65
792.4191	116.0154	3176.85	2589.8
792.5605	118.2672	3061.15	2480.8
792.7019	120.5185	2948.35	2366.95
792.8434	122.7693	2868.35	2282.5
792.9849	125.0197	2781	2189.1
793.1264	127.2696	2696.25	2100.5
793.2679	129.519	2666.15	2070.5
793.4094	131.7679	2644.45	2043.2
793.551	134.0163	2613.65	2011.7
793.6926	136.2642	2605.9	1998.35
793.8342	138.5117	2595.35	1986
793.9758	140.7587	2568.05	1955.7
794.1175	143.0052	2522.2	1909.35
794.2591	145.2512	2459.75	1845.7
794.4008	147.4967	2414.15	1799.15
794.5425	149.7417	2381.7	1765.1
794.6842	151.9863	2360.05	1737.1
794.826	154.2304	2336.4	1710.95
794.9677	156.4739	2339.45	1710.4
795.1095	158.717	2350.35	1716.6
795.2513	160.9596	2378.75	1744.8
795.3931	163.2017	2393.7	1753.85
795.535	165.4433	2412.25	1772.05
795.6768	167.6844	2389.85	1745.8
795.8187	169.925	2364.2	1719.2
795.9606	172.1651	2309.4	1659.7
796.1025	174.4047	2256.6	1606.75
796.2445	176.6439	2223.65	1572.6
796.3864	178.8825	2195.9	1536.9
796.5284	181.1206	2170.95	1510.65
796.6704	183.3582	2176.35	1508.75
796.8124	185.5954	2175.05	1507
796.9544	187.832	2163.65	1494.75
797.0965	190.0681	2171.4	1500.5
797.2386	192.3037	2169	1491.8
797.3806	194.5388	2176.55	1498.7
797.5228	196.7734	2202.75	1521.3
797.6649	199.0075	2198.95	1519.15
797.807	201.2411	2230.7	1550.2
797.9492	203.4742	2247.6	1565.35
798.0914	205.7068	2276.35	1586.45
798.2336	207.9389	2297	1607.9
798.3758	210.1704	2305.5	1622.05
798.518	212.4015	2309.95	1635.9
798.6603	214.632	2293.8	1624.95
798.8025	216.862	2302.65	1636.3
798.9448	219.0915	2314.15	1642.65
799.0871	221.3205	2339.7	1668.6
799.2294	223.549	2349.95	1684.05
799.3718	225.777	2336.25	1667
799.5141	228.0044	2334.85	1660.8
799.6565	230.2314	2315.05	1635.45
799.7989	232.4578	2310.9	1630.25
799.9413	234.6837	2286.85	1597.75
800.0837	236.909	2282.7	1592.45
800.2262	239.1339	2295.95	1578.95
800.3687	241.3582	2275.7	1573.1
800.5111	243.582	2300.65	1569.65
800.6536	245.8053	2286.35	1569.9
800.7961	248.0281	2309	1594.25
800.9387	250.2503	2312.8	1598.35
801.0812	252.472	2316.3	1597.7
801.2238	254.6932	2334.2	1614.55
801.3664	256.9139	2334.8	1614.85
801.509	259.134	2350.35	1625.5
801.6516	261.3536	2375.45	1654.9
801.7942	263.5727	2432.45	1706.15
801.9369	265.7912	2475.75	1751.35
802.0795	268.0092	2522.45	1800.95
802.2222	270.2267	2576.65	1852.85
802.3649	272.4436	2622.6	1895.3
802.5076	274.6601	2661.45	1926.25
802.6504	276.8759	2687.8	1954.95
802.7931	279.0913	2709.6	1979.85
802.9359	281.3061	2728.15	1994.85
803.0787	283.5204	2734.55	2000.45
803.2215	285.7341	2771.75	2031.6
803.3643	287.9473	2785.9	2043.6
803.5071	290.16	2777.4	2034.75
803.6499	292.3721	2747.8	2011.35
803.7928	294.5837	2714.5	1977.1
803.9357	296.7947	2690.1	1949.4
804.0786	299.0052	2678.75	1939.25
804.2215	301.2152	2660.15	1916.4
804.3644	303.4246	2646.5	1907.2
804.5074	305.6334	2633	1894.75
804.6503	307.8418	2602.4	1856.9
804.7933	310.0495	2582.75	1839.45
804.9363	312.2568	2544.65	1800.5
805.0793	314.4635	2508.65	1760.2
805.2223	316.6696	2442.95	1695.45
805.3653	318.8752	2405.15	1647.75
805.5084	321.0802	2378.65	1625.8
805.6514	323.2847	2371.85	1617.2
805.7945	325.4887	2372.9	1618.65
805.9376	327.692	2389.3	1632.9
806.0807	329.8949	2435.65	1678.75
806.2238	332.0972	2467.5	1708.75
806.367	334.2989	2509.6	1748.3
806.5101	336.5001	2498	1736.75
806.6533	338.7007	2463.4	1699.85
806.7965	340.9008	2429.5	1664.55
806.9397	343.1003	2373	1605
807.0829	345.2992	2318.55	1551.25
807.2261	347.4976	2275.75	1509.25
807.3693	349.6955	2246.55	1476.2
807.5126	351.8927	2241	1469.65
807.6559	354.0895	2225.9	1439.3
807.7991	356.2856	2208.5	1431.55
807.9424	358.4812	2201.7	1429.5
808.0857	360.6763	2201	1423.35
808.2291	362.8707	2188.45	1407.95
808.3724	365.0646	2198.4	1416.4
808.5158	367.258	2216.35	1431.2
808.6591	369.4508	2225.55	1439.45
808.8025	371.643	2256.9	1471.1
808.9459	373.8346	2274.45	1485.4
809.0893	376.0257	2315.75	1521.5
809.2327	378.2162	2334.95	1544.15
809.3762	380.4062	2351.05	1559.05
809.5196	382.5956	2317.3	1528.1
809.6631	384.7844	2277.9	1492.25
809.8066	386.9726	2241.05	1458.65
809.9501	389.1603	2217.9	1435.15
810.0936	391.3474	2224.1	1409.8
810.2371	393.5339	2209.45	1426.8
810.3806	395.7199	2213.5	1432.25
810.5241	397.9052	2247.45	1465.45
810.6677	400.09	2284.1	1501.75
810.8113	402.2743	2326.3	1542.05
810.9548	404.4579	2365.2	1577.9
811.0984	406.641	2407.15	1620.65
811.2421	408.8235	2449.3	1659.75
811.3857	411.0054	2489.65	1701.4
811.5293	413.1868	2557.95	1765.25
811.673	415.3675	2614.95	1817.7
811.8166	417.5477	2609.65	1811.05
811.9603	419.7273	2543.05	1739.95
812.104	421.9064	2468.6	1658.2
812.2477	424.0848	2397.5	1595.15
812.3914	426.2627	2353.75	1549.7
812.5351	428.4399	2299.3	1497.45
812.6788	430.6166	2237.5	1430.2
812.8226	432.7928	2181.05	1372.85
812.9663	434.9683	2150.55	1341.65
813.1101	437.1432	2122.15	1312.8
813.2539	439.3176	2100.1	1293.95
813.3977	441.4914	2083.65	1276.3
813.5415	443.6645	2081.5	1274.1
813.6853	445.8371	2085.05	1276.6
813.8291	448.0091	2087.2	1278.05
813.973	450.1806	2088.75	1278.8
814.1168	452.3514	2072.55	1261.3
814.2607	454.5216	2090.3	1271.7
814.4046	456.6913	2070.95	1258.95
814.5485	458.8603	2082.6	1270.45
814.6924	461.0288	2086.65	1275.1
814.8363	463.1967	2075.75	1265.55
814.9802	465.3639	2084.6	1274.2
815.1241	467.5306	2082.45	1268.1
815.2681	469.6967	2070.3	1254.55
815.412	471.8622	2059.6	1246.75
815.556	474.0271	2052.45	1240.6
815.7	476.1914	2062.55	1245.7
815.844	478.3551	2061.4	1247.45
815.988	480.5182	2060.8	1247.65
816.132	482.6807	2059.5	1246.9
816.276	484.8426	2088.5	1278.95
816.4201	487.0039	2121.8	1306.45
816.5641	489.1647	2187.45	1368.95
816.7082	491.3248	2220.5	1401.75
816.8522	493.4843	2235.65	1419.5
816.9963	495.6432	2231.6	1414.2
817.1404	497.8015	2202.55	1379.35
817.2845	499.9592	2155.25	1331.05
817.4286	502.1163	2110.3	1286.2
817.5727	504.2728	2055.15	1233.05
817.7168	506.4287	2031.15	1212.1
817.861	508.5839	2010.65	1187.5
818.0051	510.7386	2000.3	1178.15
818.1493	512.8927	2018.05	1186.35
818.2935	515.0461	2025.8	1201.15
818.4377	517.199	2047.15	1219.6
818.5818	519.3512	2092	1265.45
818.726	521.5029	2163.2	1329.05
818.8703	523.6539	2215.6	1383.95
819.0145	525.8043	2217.9	1390.85
819.1587	527.9541	2162.5	1332.5
819.303	530.1033	2094.15	1263.95
819.4472	532.2519	2048.1	1218.35
819.5915	534.3999	2033	1201.55
819.7357	536.5472	2022.7	1192.6
819.88	538.694	2020	1191.2
820.0243	540.8401	2035.1	1202.45
820.1686	542.9856	2052.25	1216.55
820.3129	545.1305	2064.85	1228.95
820.4572	547.2748	2090.75	1254.2
820.6016	549.4185	2090.5	1251.65
820.7459	551.5615	2095.3	1257.45
820.8902	553.704	2122.15	1285.5
821.0346	555.8458	2139.9	1303.75
821.1789	557.987	2169.65	1334.7
821.3233	560.1276	2198.05	1359.35
821.4677	562.2675	2234.9	1401.05
821.6121	564.4069	2302.15	1465.9
821.7565	566.5456	2345.2	1508.45
821.9009	568.6837	2329.5	1488.1
822.0453	570.8212	2255.95	1418.05
822.1897	572.958	2177.95	1337.8
822.3342	575.0942	2121.25	1282.95
822.4786	577.2299	2083.95	1247.4
822.6231	579.3648	2059.2	1225.55
822.7675	581.4992	2042.95	1210.75
822.912	583.6329	2056.55	1226.1
823.0565	585.766	2080.3	1246
823.201	587.8985	2127	1294.2
823.3454	590.0304	2184.9	1331.25
823.4899	592.1616	2201.35	1357.5
823.6345	594.2922	2193.35	1348.75
823.779	596.4222	2153.3	1308.3
823.9235	598.5515	2091.45	1245.75
824.068	600.6802	2052.9	1207.55
824.2126	602.8083	2003.15	1161.6
824.3571	604.9358	1996.3	1148.9
824.5017	607.0626	1993.05	1146.75
824.6462	609.1888	2019.2	1170.7
824.7908	611.3144	2031.85	1179.55
824.9354	613.4393	2085.4	1236.6
825.08	615.5636	2131.15	1279.9
825.2246	617.6873	2171.1	1324.1
825.3692	619.8103	2200.95	1354.2
825.5138	621.9327	2189.7	1340.35
825.6584	624.0544	2160.95	1314.1
825.803	626.1756	2097.75	1250.75
825.9477	628.2961	2064.4	1214.4
826.0923	630.4159	2033.95	1184.55
826.237	632.5351	2019.4	1165
826.3816	634.6537	2014.3	1161.3
826.5263	636.7716	2008.7	1154
826.6709	638.8889	2011.5	1157.7
826.8156	641.0056	2003.35	1148.1
826.9603	643.1216	2016.65	1161.8
827.105	645.237	2017.35	1160.55
827.2497	647.3518	1998.55	1146.25
827.3944	649.4659	1986.05	1132.3
827.5391	651.5793	1964.35	1111.95
827.6838	653.6922	1945.65	1091.35
827.8285	655.8043	1929.7	1077
827.9733	657.9159	1913.9	1061.4
828.118	660.0268	1908	1053.4
828.2627	662.137	1907.3	1051.95
828.4075	664.2466	1916.35	1053.8
828.5522	666.3556	1913.8	1054.85
828.697	668.4639	1913.35	1054.45
828.8418	670.5716	1897.95	1044.15
828.9865	672.6786	1892.7	1036.3
829.1313	674.785	1879.1	1019.85
829.2761	676.8907	1883.6	1026.8
829.4209	678.9958	1874.15	1020.55
829.5657	681.1002	1881.35	1022.3
829.7105	683.204	1885.7	1022.85
829.8553	685.3072	1884.95	1024.2
830.0001	687.4097	1877.15	1015.9
830.1449	689.5115	1881.25	1019.6
830.2898	691.6127	1872.45	1014.7
830.4346	693.7132	1876.55	1017.1
830.5794	695.8131	1902.45	1017
830.7243	697.9123	1884.75	1020.15
830.8691	700.0109	1895.4	1032.55
831.014	702.1089	1896.2	1033.35
831.1588	704.2061	1911.6	1048.2
831.3037	706.3028	1942.2	1076.5
831.4486	708.3987	1967.8	1104.9
831.5935	710.4941	1964.7	1100.35
831.7383	712.5887	1974.05	1107.6
831.8832	714.6827	1976.4	1110.5
832.0281	716.7761	1959.65	1096.85
832.173	718.8688	1962.95	1096.95
832.3179	720.9608	1967	1096.05
832.4628	723.0522	1991.2	1121.15
832.6077	725.1429	2004.8	1138.05
832.7527	727.233	2050.65	1182.95
832.8976	729.3224	2118.25	1252.25
833.0425	731.4112	2156.55	1286
833.1874	733.4993	2166.85	1296
833.3324	735.5867	2112.4	1244.25
833.4773	737.6735	2040.45	1171.75
833.6222	739.7596	1979.2	1108.1
833.7672	741.845	1956.7	1089.4
833.9122	743.9298	1944.35	1073.4
834.0571	746.014	1959.8	1093.4
834.2021	748.0974	1964.9	1091.15
834.347	750.1802	1971.15	1098.9
834.492	752.2624	1953.8	1083.85
834.637	754.3439	1946.3	1072.2
834.782	756.4247	1956.45	1080.3
834.9269	758.5048	1956.05	1082.5
835.0719	760.5843	1965.35	1092.8
835.2169	762.6631	1998.55	1124.55
835.3619	764.7413	2064.1	1193.2
835.5069	766.8188	2139.25	1264.9
835.6519	768.8956	2226.75	1353.35
835.7969	770.9718	2280.35	1408.1
835.9419	773.0473	2278.3	1403.5
836.0869	775.1221	2245.8	1374.5
836.232	777.1962	2229.85	1357.05
836.377	779.2697	2297.1	1422.25
836.522	781.3426	2403.05	1513.1
836.667	783.4147	2454.05	1577.25
836.8121	785.4862	2423.35	1547.4
836.9571	787.557	2339.35	1464.65
837.1021	789.6271	2210.7	1333.85
837.2472	791.6966	2089.3	1215.45
837.3922	793.7654	1997.95	1123.65
837.5373	795.8335	1942.2	1066.2
837.6823	797.901	1922.25	1046.7
837.8274	799.9678	1905	1026.5
837.9724	802.0339	1907.7	1032
838.1175	804.0993	1912.8	1026.5
838.2626	806.1641	1895.3	1018.7
838.4076	808.2282	1870.1	993.7
838.5527	810.2916	1864.6	984.65
838.6978	812.3544	1844.95	971.25
838.8428	814.4164	1838.1	963.15
838.9879	816.4778	1842.65	963.25
839.133	818.5385	1858.3	980
839.2781	820.5986	1886.75	1007.5
839.4232	822.658	1946.8	1068.7
839.5682	824.7166	2000.4	1119.85
839.7133	826.7747	2087.45	1211.55
839.8584	828.832	2177.85	1296.8
840.0035	830.8886	2238.7	1357.3
840.1486	832.9446	2259.5	1379.55
840.2937	834.9999	2209.85	1332.55
840.4388	837.0545	2151.4	1270.85
840.5839	839.1085	2058.85	1178.4
840.729	841.1618	1997.3	1113.5
840.8741	843.2143	1949.1	1068.1
841.0192	845.2662	1908.95	1027
841.1643	847.3175	1887.05	1006.5
841.3095	849.368	1882.8	1001.7
841.4546	851.4179	1881.55	1001.05
841.5997	853.467	1881.45	1000.55
841.7448	855.5155	1883.8	1003.25
841.8899	857.5633	1880.2	1001.4
842.0351	859.6105	1873	989.9
842.1802	861.6569	1866.1	984.95
842.3253	863.7027	1851.25	968.05
842.4704	865.7478	1845.4	962.6
842.6156	867.7922	1832.75	948.85
842.7607	869.8359	1825.5	941.15
842.9058	871.8789	1826.1	943.95
843.0509	873.9212	1853.25	937.95
843.1961	875.9629	1831.9	950.85
843.3412	878.0039	1837.75	952.65
843.4863	880.0441	1862.75	981.3
843.6315	882.0837	1880	995.85
843.7766	884.1226	1900.85	1015.95
843.9218	886.1609	1934.45	1049.2
844.0669	888.1984	1986.5	1105.25
844.212	890.2352	2033.7	1151.85
844.3572	892.2714	2035.4	1144.05
844.5023	894.3069	2014.35	1132.9
844.6475	896.3416	1960.95	1074.1
844.7926	898.3757	1914.85	1029.55
844.9377	900.4091	1904.45	1016.7
845.0829	902.4418	1903.45	1010.65
845.228	904.4739	1914	1028.45
845.3732	906.5052	1936.95	1049.9
845.5183	908.5358	1925.5	1039
845.6635	910.5658	1899.15	1012.7
845.8086	912.595	1863.7	976.3
845.9538	914.6236	1825.7	939.45
846.0989	916.6515	1804.75	917.9
846.2441	918.6786	1783.4	896.75
846.3892	920.7051	1772.25	883.15
846.5344	922.7309	1773.2	887.55
846.6795	924.756	1779.3	893.05
846.8246	926.7804	1782.7	894.6
846.9698	928.8041	1794.7	902.65
847.1149	930.8272	1812.2	925.05
847.2601	932.8495	1822.6	933.4
847.4052	934.8711	1831.9	940.5
847.5504	936.892	1837.25	948.6
847.6955	938.9123	1861.05	972.35
847.8407	940.9318	1882.8	995.25
847.9858	942.9506	1887.15	997.05
848.131	944.9688	1875.4	989.9
848.2761	946.9862	1854.1	966.95
848.4213	949.003	1824.65	935.35
848.5664	951.019	1799.05	910.7
848.7115	953.0344	1779.75	890.7
848.8567	955.0491	1775.2	884.75
849.0018	957.063	1767.7	880.35
849.147	959.0763	1773	886.9
849.2921	961.0888	1757.5	866.6
849.4373	963.1007	1752	863.35
849.5824	965.1119	1747.05	862.35
849.7275	967.1223	1741.6	859.7
849.8727	969.1321	1739.15	859
850.0178	971.1412	1726.75	842
850.1629	973.1495	1737.75	850.45
850.3081	975.1572	1769.3	846.7
850.4532	977.1641	1744.9	853
850.5983	979.1704	1733.7	841.05
850.7435	981.1759	1726.05	833.7
850.8886	983.1808	1729.25	838.4
851.0337	985.1849	1726.15	828.9
851.1788	987.1884	1721.4	831
851.324	989.1911	1724.4	832.4
851.4691	991.1932	1733.9	844.75
851.6142	993.1945	1745.45	858.85
851.7593	995.1951	1733.05	842.9
851.9045	997.1951	1735.45	841.65
852.0496	999.1943	1722.3	831.95
852.1947	1001.1928	1730	838.4
852.3398	1003.1906	1730.15	840.55
852.4849	1005.1877	1757.35	864.5
852.63	1007.1841	1778.05	889.2
852.7751	1009.1798	1792.95	901.7
852.9202	1011.1748	1791.35	900.75
853.0653	1013.1691	1766.95	874.1
853.2104	1015.1627	1733.9	843.55
853.3555	1017.1556	1700.85	811.8
853.5006	1019.1477	1683.55	795.15
853.6457	1021.1392	1672.25	783.55
853.7908	1023.1299	1658.55	770.75
853.9359	1025.12	1659.6	771
854.081	1027.1093	1657.35	776.55
854.2261	1029.0979	1685.95	805.15
854.3712	1031.0859	1704.3	823.4
854.5163	1033.0731	1723.25	836.55
854.6613	1035.0596	1716.7	831.2
854.8064	1037.0454	1711.2	821
854.9515	1039.0304	1708.2	819.3
855.0965	1041.0148	1680.8	788.55
855.2416	1042.9985	1663.85	770.5
855.3867	1044.9814	1648.45	759.55
855.5317	1046.9636	1647.75	756.6
855.6768	1048.9452	1653.05	762.55
855.8219	1050.926	1670.65	781.1
855.9669	1052.9061	1681.55	792.2
856.112	1054.8855	1696.1	804.15
856.257	1056.8642	1691.7	800.55
856.4021	1058.8421	1686.8	793.4
856.5471	1060.8194	1691.25	801.45
856.6921	1062.7959	1681.85	790.6
856.8372	1064.7717	1683.7	790.95
856.9822	1066.7469	1681.3	790
857.1272	1068.7213	1691.5	798.4
857.2723	1070.695	1699.05	807.55
857.4173	1072.6679	1718.65	824.45
857.5623	1074.6402	1744.25	850.15
857.7073	1076.6117	1749.45	853
857.8523	1078.5826	1727.5	834.25
857.9973	1080.5527	1699.5	804.2
858.1423	1082.5221	1663.3	770.75
858.2873	1084.4908	1634.4	742.4
858.4323	1086.4587	1622.75	726.75
858.5773	1088.426	1615	721.3
858.7223	1090.3925	1611.45	712.65
858.8673	1092.3584	1622.9	729.7
859.0123	1094.3235	1623.7	732.15
859.1573	1096.2879	1647.35	754.1
859.3022	1098.2515	1668.05	775.45
859.4472	1100.2145	1702.3	811.35
859.5922	1102.1767	1725.6	829.9
859.7371	1104.1382	1770.45	876.95
859.8821	1106.099	1834.5	938.95
860.027	1108.0591	1876	985.65
860.172	1110.0185	1921.25	1026.8
860.3169	1111.9771	1964.6	1070.95
860.4619	1113.9351	1998.6	1105.05
860.6068	1115.8923	2045.7	1153.55
860.7517	1117.8488	2061.45	1168.25
860.8967	1119.8045	2019.4	1127.95
861.0416	1121.7596	1921.2	1027.55
861.1865	1123.7139	1832.4	939.8
861.3314	1125.6675	1778.5	884.95
861.4763	1127.6204	1785.5	892.35
861.6212	1129.5726	1805.25	911
861.7661	1131.524	1793.35	901
861.911	1133.4748	1745.1	852.15
862.0559	1135.4248	1705.4	812.15
862.2008	1137.3741	1654.55	762.15
862.3457	1139.3226	1640.6	747.3
862.4905	1141.2705	1636.4	744.4
862.6354	1143.2176	1642.1	740.95
862.7803	1145.164	1649.1	753.5
862.9251	1147.1097	1655.55	759.85
863.07	1149.0546	1627	732.3
863.2148	1150.9989	1592	697.5
863.3597	1152.9424	1579.05	684.3
863.5045	1154.8852	1567.65	672.05
863.6493	1156.8272	1562.8	669.35
863.7942	1158.7686	1564.3	663.6
863.939	1160.7092	1570.45	674.4
864.0838	1162.6491	1565.2	670.5
864.2286	1164.5883	1585.55	691.35
864.3734	1166.5267	1600.15	703.9
864.5182	1168.4644	1620.9	725.6
864.663	1170.4014	1656.3	759.6
864.8078	1172.3377	1694.05	803
864.9526	1174.2732	1749.65	856.45
865.0974	1176.2081	1838.05	942.95
865.2421	1178.1421	1950.6	1054.05
865.3869	1180.0755	2056.65	1162.05
865.5317	1182.0082	2114.9	1224
865.6764	1183.9401	2088.8	1196.7
865.8212	1185.8713	1986.8	1095.1
865.9659	1187.8017	1861.85	971.2
866.1106	1189.7315	1759.55	872.5
866.2554	1191.6605	1712.65	800.7
866.4001	1193.5888	1651.5	763.3
866.5448	1195.5163	1626.15	733.55
866.6895	1197.4432	1610.95	717.1
866.8342	1199.3693	1589.95	696
866.9789	1201.2947	1579.8	687.5
867.1236	1203.2193	1578	685.3
867.2683	1205.1432	1575.9	680.05
867.413	1207.0664	1570.1	675.45
867.5576	1208.9889	1566.25	669.5
867.7023	1210.9106	1569.35	677.45
867.847	1212.8316	1576.2	684.65
867.9916	1214.7519	1595.6	692.25
868.1363	1216.6715	1607.25	713.6
868.2809	1218.5903	1614.15	719.9
868.4255	1220.5084	1632.2	741.15
868.5701	1222.4257	1650.55	759.25
868.7148	1224.3424	1652.15	760.7
868.8594	1226.2583	1673.15	775.5
869.004	1228.1735	1705.55	810.45
869.1486	1230.0879	1730.65	835.15
869.2932	1232.0016	1779.85	885.3
869.4377	1233.9146	1812	917.2
869.5823	1235.8269	1841.65	946.6
869.7269	1237.7384	1841.2	946.55
869.8715	1239.6492	1836.75	943.95
870.016	1241.5592	1858.7	965.2
870.1606	1243.4686	1909.6	1016.1
870.3051	1245.3772	1982.95	1086.15
870.4496	1247.285	2067.6	1174.6
870.5941	1249.1922	2139.75	1246.15
870.7387	1251.0986	2198.75	1305.85
870.8832	1253.0042	2280.7	1387.55
871.0277	1254.9092	2353.65	1459.9
871.1722	1256.8134	2428.6	1536.2
871.3167	1258.7169	2491.3	1598
871.4611	1260.6196	2531.85	1637.2
871.6056	1262.5216	2530.55	1636.35
871.7501	1264.4229	2500.3	1606.55
871.8945	1266.3234	2474.7	1580.95
872.039	1268.2232	2425.8	1528.8
872.1834	1270.1223	2381.8	1485.45
872.3278	1272.0207	2359.7	1461.45
872.4723	1273.9183	2337.75	1438.8
872.6167	1275.8151	2349.3	1455.1
872.7611	1277.7113	2386	1491.75
872.9055	1279.6067	2477.35	1582.8
873.0499	1281.5014	2607.6	1710.6
873.1943	1283.3953	2773.4	1876.8
873.3386	1285.2885	2937.3	2044
873.483	1287.181	3052.2	2156.25
873.6274	1289.0727	3095.1	2201.8
873.7717	1290.9637	3056.1	2160.8
873.9161	1292.854	2976.1	2081.5
874.0604	1294.7435	2868.05	1973.85
874.2047	1296.6323	2769.95	1874.8
874.349	1298.5204	2687.35	1788.7
874.4933	1300.4077	2620.5	1723.8
874.6376	1302.2943	2577.7	1681.7
874.7819	1304.1802	2552.75	1658.55
874.9262	1306.0653	2508.4	1611.85
875.0705	1307.9497	2475.4	1580.65
875.2147	1309.8333	2434.85	1540.8
875.359	1311.7162	2391.45	1499.15
875.5032	1313.5984	2381.85	1484.4
875.6475	1315.4798	2348.95	1442
875.7917	1317.3605	2328.95	1428.8
875.9359	1319.2405	2344.75	1450.1
876.0801	1321.1197	2312.1	1412.8
876.2243	1322.9982	2238.9	1338.95
876.3685	1324.876	2166.65	1272.5
876.5127	1326.753	2083	1186.05
876.6569	1328.6293	1996.8	1100.6
876.801	1330.5048	1934.3	1034.35
876.9452	1332.3796	1848.55	950.6
877.0893	1334.2537	1830.1	909.5
877.2335	1336.127	1773.3	877.55
877.3776	1337.9996	1752.7	856.75
877.5217	1339.8714	1732.9	838.95
877.6658	1341.7426	1750.9	809.65
877.8099	1343.6129	1712.5	817.2
877.954	1345.4826	1687.9	793.9
878.0981	1347.3515	1676.65	776.1
878.2422	1349.2196	1664.2	766.15
878.3862	1351.087	1663.25	766.35
878.5303	1352.9537	1656.55	759.35
878.6743	1354.8197	1662.2	766.9
878.8184	1356.6849	1666.8	771.75
878.9624	1358.5493	1683.2	788.05
879.1064	1360.4131	1708.8	815.6
879.2504	1362.276	1744.8	850.9
879.3944	1364.1383	1779.25	885
879.5384	1365.9998	1784.3	882.45
879.6823	1367.8606	1773.55	877.3
879.8263	1369.7206	1763.1	864.15
879.9702	1371.5799	1761.55	861.2
880.1142	1373.4384	1747.4	850.5
880.2581	1375.2962	1732.6	835.95
880.402	1377.1533	1677.2	780.9
880.5459	1379.0096	1628.85	736.95
880.6898	1380.8652	1592.25	698.15
880.8337	1382.7201	1573.75	680.35
880.9776	1384.5742	1543.5	648.05
881.1215	1386.4275	1529.25	631.8
881.2653	1388.2802	1510.8	613.3
881.4092	1390.132	1507.7	611.15
881.553	1391.9832	1494.2	596.25
881.6968	1393.8336	1489.5	592.2
881.8406	1395.6832	1481.95	585.95
881.9844	1397.5322	1475.4	580.25
882.1282	1399.3803	1466.6	565.55
882.272	1401.2278	1449.8	555
882.4158	1403.0745	1444.65	549.75
882.5595	1404.9204	1436.3	545
882.7033	1406.7656	1438.65	542.2
882.847	1408.6101	1430.7	535.1
882.9908	1410.4538	1434.6	537.35
883.1345	1412.2968	1422.6	527.85
883.2782	1414.139	1436	540.65
883.4219	1415.9805	1435.7	543.4
883.5656	1417.8213	1455.95	555
883.7092	1419.6613	1461.9	566.65
883.8529	1421.5006	1494.25	601
883.9965	1423.3391	1527.9	631
884.1402	1425.1769	1576.85	682.8
884.2838	1427.0139	1643.95	749.45
884.4274	1428.8502	1727.55	833.15
884.571	1430.6858	1793.65	897.4
884.7146	1432.5206	1817.65	921.65
884.8582	1434.3547	1809.95	914.3
885.0018	1436.188	1794.25	900.85
885.1453	1438.0206	1775.8	880.85
885.2889	1439.8524	1769.65	872.7
885.4324	1441.6835	1762.4	866.55
885.5759	1443.5139	1769.25	870.7
885.7194	1445.3435	1764.05	870.2
885.8629	1447.1724	1763.75	871.55
886.0064	1449.0005	1768.75	874.35
886.1499	1450.8279	1758	861.55
886.2933	1452.6545	1750.2	855.35
886.4368	1454.4804	1752.4	857.15
886.5802	1456.3056	1749.35	846.1
886.7237	1458.13	1723.6	828.4
886.8671	1459.9536	1702.95	809
887.0105	1461.7766	1672.55	777.8
887.1539	1463.5987	1631.1	736.65
887.2972	1465.4202	1593.3	699.35
887.4406	1467.2409	1563.85	668.05
887.584	1469.0608	1536.7	639.3
887.7273	1470.88	1497.55	602.65
887.8706	1472.6984	1478.9	583.95
888.0139	1474.5161	1455.5	558.25
888.1572	1476.3331	1440.95	546
888.3005	1478.1493	1434.4	538.1
888.4438	1479.9648	1427.65	532.1
888.5871	1481.7795	1435.25	541.65
888.7303	1483.5935	1428.8	532.7
888.8736	1485.4067	1429.35	534.85
889.0168	1487.2192	1428.35	534
889.16	1489.031	1434.1	536.55
889.3032	1490.842	1423.65	528.4
889.4464	1492.6522	1425.1	530.65
889.5896	1494.4618	1428.1	531.6
889.7327	1496.2705	1427.55	534.35
889.8759	1498.0785	1413.3	517.85
890.019	1499.8858	1421.35	526.2
890.1622	1501.6924	1401.4	508.25
890.3053	1503.4981	1395.7	499.75
890.4484	1505.3032	1394.35	499.25
890.5914	1507.1075	1382.6	487.25
890.7345	1508.911	1381.3	486.35
890.8776	1510.7138	1370.65	472.5
891.0206	1512.5159	1371.6	477.45
891.1637	1514.3172	1357.05	463.6
891.3067	1516.1178	1348.1	454.4
891.4497	1517.9176	1349.85	453.4
891.5927	1519.7166	1342.75	450.05
891.7357	1521.515	1345.85	444.55
891.8786	1523.3126	1331.3	437.95
892.0216	1525.1094	1334.6	441.55
892.1645	1526.9055	1328.65	435.9
892.3074	1528.7008	1329.75	437.85
892.4503	1530.4954	1326.2	425.5
892.5932	1532.2893	1314.15	421.35
892.7361	1534.0824	1323.45	426.75
892.879	1535.8747	1319.9	427.25
893.0218	1537.6663	1310.5	418.3
893.1647	1539.4572	1318	423.3
893.3075	1541.2473	1312.5	417.55
893.4503	1543.0367	1315.35	422.5
893.5931	1544.8253	1322.85	426.2
893.7359	1546.6132	1325.3	430.55
893.8787	1548.4003	1324.65	421
894.0214	1550.1867	1346.1	443.5
894.1642	1551.9723	1339.1	440.85
894.3069	1553.7572	1359.2	463.5
894.4496	1555.5414	1366.45	473.45
894.5923	1557.3247	1394.9	500.7
894.735	1559.1074	1431.15	542.45
894.8777	1560.8893	1460.9	570.15
895.0204	1562.6705	1497.7	606.05
895.163	1564.4509	1515.5	624.8
895.3056	1566.2305	1518.8	630.15
895.4482	1568.0094	1519.55	628.3
895.5908	1569.7876	1527.15	635.45
895.7334	1571.565	1524.35	630.95
895.876	1573.3417	1533	641.75
896.0186	1575.1176	1526.95	638.45
896.1611	1576.8928	1536.5	646.95
896.3036	1578.6672	1553.3	668.15
896.4461	1580.4409	1580.05	692.55
896.5886	1582.2138	1611.35	722.65
896.7311	1583.986	1642.55	751.25
896.8736	1585.7575	1678.4	788.55
897.0161	1587.5282	1705.7	817.35
897.1585	1589.2981	1722.6	834.8
897.3009	1591.0673	1744.05	857
897.4433	1592.8358	1751.8	863.05
897.5857	1594.6035	1750.75	860.35
897.7281	1596.3704	1741.05	846.55
897.8705	1598.1366	1723.7	836
898.0128	1599.9021	1709.1	819.45
898.1551	1601.6668	1693.1	802.3
898.2975	1603.4308	1686.4	794
898.4398	1605.194	1691.45	798.55
898.5821	1606.9564	1711.85	824.1
898.7243	1608.7182	1765.1	877.2
898.8666	1610.4791	1835.55	951.1
899.0088	1612.2394	1925.25	1042.8
899.1511	1613.9988	2011.85	1126.1
899.2933	1615.7576	2060.55	1173.35
899.4355	1617.5156	2091.5	1196.6
899.5776	1619.2728	2056	1165.8
899.7198	1621.0293	1977.05	1087.05
899.862	1622.785	1880.3	987.45
900.0041	1624.54	1761.05	873.4
900.1462	1626.2942	1662.35	776.35
900.2883	1628.0477	1574.35	685.25
900.4304	1629.8005	1504.45	614
900.5725	1631.5525	1450.5	563.7
900.7145	1633.3037	1403.15	513.6
900.8566	1635.0542	1358.9	472.75
900.9986	1636.804	1339.9	451.3
901.1406	1638.553	1424.75	439.4
901.2826	1640.3013	1309.8	421.75
901.4245	1642.0488	1283.1	392.6
901.5665	1643.7955	1263	377.6
901.7085	1645.5416	1257.05	373.55
901.8504	1647.2868	1248.9	361.55
901.9923	1649.0313	1246.8	357.25
902.1342	1650.7751	1247.45	357.65
902.2761	1652.5181	1238.55	350.9
902.4179	1654.2604	1236.65	348
902.5598	1656.0019	1241.1	353.6
902.7016	1657.7427	1259.9	372.3
902.8434	1659.4828	1269.3	383.7
902.9852	1661.222	1302.5	410.9
903.127	1662.9606	1330.4	441.25
903.2687	1664.6984	1350.75	460.6
903.4105	1666.4354	1356.5	467.15
903.5522	1668.1717	1331.65	442.8
903.6939	1669.9072	1288.85	398.85
903.8356	1671.642	1254.65	364
903.9773	1673.3761	1220.9	332.9
904.119	1675.1094	1199.6	311.1
904.2606	1676.8419	1187.85	298.8
904.4022	1678.5737	1178.85	290.7
904.5439	1680.3048	1159.9	269.9
904.6855	1682.0351	1156.85	267.85
904.827	1683.7646	1153.3	261.75
904.9686	1685.4934	1148.25	259.85
905.1101	1687.2215	1141.4	252.5
905.2517	1688.9488	1138.1	249.7
905.3932	1690.6754	1133.45	243.6
905.5347	1692.4012	1133.4	244.6
905.6761	1694.1263	1125.05	235.1
905.8176	1695.8506	1129.95	240.65
905.9591	1697.5742	1121.15	232.7
906.1005	1699.297	1120.1	234.35
906.2419	1701.0191	1120.35	235.3
906.3833	1702.7404	1116	228.85
906.5246	1704.461	1117.2	228.25
906.666	1706.1808	1116.9	228.25
906.8073	1707.8999	1109.65	219.75
906.9487	1709.6182	1108.5	221.5
907.09	1711.3358	1110.8	224.45
907.2313	1713.0527	1101.8	217.5
907.3725	1714.7688	1112.2	220.4
907.5138	1716.4841	1108.65	220.6
907.655	1718.1987	1106.1	214.85
907.7962	1719.9126	1100.65	216.35
907.9374	1721.6257	1100.3	212.5
908.0786	1723.338	1097.8	208.65
908.2198	1725.0496	1094.9	207.65
908.3609	1726.7605	1094.55	209
908.502	1728.4706	1096.25	209.35
908.6431	1730.18	1095.1	208.75
908.7842	1731.8886	1096.8	211.15
908.9253	1733.5964	1114.65	206.7
909.0664	1735.3036	1098.3	210.75
909.2074	1737.0099	1091.75	205.1
909.3484	1738.7156	1091.85	207.85
909.4894	1740.4204	1093.65	204.25
909.6304	1742.1246	1096	208.1
909.7714	1743.8279	1089.05	204
909.9123	1745.5306	1090.35	204.1
910.0532	1747.2325	1085.95	200.9
910.1941	1748.9336	1085.8	198.75
910.335	1750.634	1089.85	202.15
910.4759	1752.3336	1086.6	200.75
910.6168	1754.0325	1083.85	201.3
910.7576	1755.7307	1080.35	193.95
910.8984	1757.4281	1088.55	202.5
911.0392	1759.1247	1093.8	198.15
911.18	1760.8206	1090.75	197.2
911.3208	1762.5158	1090.75	200.4
911.4615	1764.2102	1081.2	194.65
911.6022	1765.9039	1084.6	196.4
911.7429	1767.5968	1081.15	198.3
911.8836	1769.289	1086.45	200.3
912.0243	1770.9804	1083.4	196.6
912.1649	1772.6711	1085.5	196.75
912.3056	1774.361	1085.05	195.45
912.4462	1776.0502	1085.25	195.4
912.5868	1777.7386	1086.9	195.75
912.7274	1779.4263	1079.65	191.3
912.8679	1781.1132	1074.95	190.6
913.0084	1782.7994	1075.85	188.6
913.149	1784.4849	1075.3	190.8
913.2895	1786.1696	1097.95	193.9
913.4299	1787.8535	1077.05	193.8
913.5704	1789.5367	1072.7	189.25
913.7108	1791.2192	1074.8	190.55
913.8513	1792.9009	1097.55	188.35
913.9917	1794.5818	1081.95	193.45
914.132	1796.2621	1073.8	186.65
914.2724	1797.9415	1069.9	183.65
914.4128	1799.6202	1072.4	183.6
914.5531	1801.2982	1070.75	182.6
914.6934	1802.9755	1076	187.1
914.8337	1804.6519	1072.15	186.05
914.9739	1806.3277	1065.3	180.7
915.1142	1808.0027	1062.5	180
915.2544	1809.6769	1068.05	185.55
915.3946	1811.3504	1066.3	178.35
915.5348	1813.0231	1061.6	174.7
915.675	1814.6951	1060.1	173.2
915.8151	1816.3664	1072.6	182.65
915.9553	1818.0369	1062.65	174.8
916.0954	1819.7067	1063.45	177.3
916.2355	1821.3757	1066.05	178.95
916.3755	1823.044	1065.15	178.1
916.5156	1824.7115	1065.7	178.7
916.6556	1826.3783	1061.05	176.7
916.7956	1828.0443	1061.3	174.65
916.9356	1829.7096	1065.15	176.45
917.0756	1831.3741	1065.4	174.55
917.2155	1833.0379	1059.8	173.55
917.3555	1834.701	1059.6	173.25
917.4954	1836.3633	1057.2	174.8
917.6353	1838.0248	1057.05	170.25
917.7751	1839.6856	1055.95	169.75
917.915	1841.3457	1055.7	172.3
918.0548	1843.005	1059.45	174.15
918.1946	1844.6636	1055.4	169.85
918.3344	1846.3214	1053.7	165.4
918.4742	1847.9785	1059.25	173.9
918.6139	1849.6349	1056.75	169.15
918.7537	1851.2904	1069.75	170.85
918.8934	1852.9453	1059.25	171.15
919.0331	1854.5994	1058.4	169.45
919.1727	1856.2528	1058.8	166.65
919.3124	1857.9054	1056.2	169.6
919.452	1859.5572	1048.35	164.6
919.5916	1861.2083	1055.25	168.15
919.7312	1862.8587	1058.05	170.65
919.8708	1864.5084	1053.75	166.5
920.0103	1866.1572	1055.7	169.8
920.1498	1867.8054	1052.7	163.9
920.2893	1869.4528	1049.7	161.45
920.4288	1871.0994	1051.85	163.05
920.5683	1872.7453	1051.3	163.25
920.7077	1874.3905	1058.9	166.05
920.8471	1876.0349	1051.35	161.25
920.9865	1877.6786	1050.65	162.3
921.1259	1879.3215	1050	161.95
921.2653	1880.9637	1054.85	168.9
921.4046	1882.6051	1052.5	167.3
921.5439	1884.2458	1048.4	159.3
921.6832	1885.8858	1043	157.15
921.8225	1887.525	1047.6	159.1
921.9617	1889.1634	1049.1	161.5
922.101	1890.8011	1048	162
922.2402	1892.4381	1047.8	160.65
922.3794	1894.0743	1043.2	157.3
922.5185	1895.7098	1047.9	160.7
922.6577	1897.3446	1045.9	157.3
922.7968	1898.9786	1048.35	157.65
922.9359	1900.6118	1041.85	157.2
923.075	1902.2443	1046.3	160.45
923.214	1903.8761	1042.35	154.25
923.3531	1905.5071	1041.2	156.05
923.4921	1907.1374	1042.55	154.45
923.6311	1908.7669	1039.15	153.4
923.77	1910.3957	1040.85	155.65
923.909	1912.0237	1041.85	154.55
924.0479	1913.651	1036.4	147.2
924.1868	1915.2776	1039.2	153.65
924.3257	1916.9034	1036.25	149.75
924.4646	1918.5285	1034.4	150.35
924.6034	1920.1528	1036.95	151.4
924.7422	1921.7764	1037.3	152.7
924.881	1923.3992	1035.25	149.2
925.0198	1925.0213	1036.3	149.4
925.1586	1926.6427	1029.4	144.9
925.2973	1928.2633	1245.75	138.4
925.436	1929.8832	1037.7	146.85
925.5747	1931.5023	1032.25	145.2
925.7134	1933.1207	1028.6	142.95
925.852	1934.7383	1034.7	146.85
925.9906	1936.3552	1032.75	148.7
926.1292	1937.9714	1031.65	145.25
926.2678	1939.5868	1032.65	144.05
926.4064	1941.2015	1034.35	146.35
926.5449	1942.8154	1029.75	142
926.6834	1944.4286	1032.8	143.5
926.8219	1946.041	1054.15	141.85
926.9604	1947.6528	1037.35	146.55
927.0988	1949.2637	1029.45	143.95
927.2372	1950.8739	1028.15	142.25
927.3756	1952.4834	1029.3	139.65
927.514	1954.0921	1028.5	143.15
927.6523	1955.7001	1031.9	146.45
927.7907	1957.3074	1024.75	139.65
927.929	1958.9139	1023	139.55
928.0673	1960.5197	1026	139.7
928.2055	1962.1247	1021.15	137.4
928.3438	1963.729	1023.2	142.05
928.482	1965.3325	1027.95	139.9
928.6202	1966.9353	1020.95	136.6
928.7584	1968.5374	1019.7	134.35
928.8965	1970.1387	1022.8	139.7
929.0346	1971.7393	1019.75	134.4
929.1727	1973.3392	1020.65	137.55
929.3108	1974.9383	1020.2	135
929.4489	1976.5366	1022.35	138.5
929.5869	1978.1342	1020.15	138.05
929.7249	1979.7311	1018.65	134.7
929.8629	1981.3273	1022	139.65
930.0009	1982.9227	1021.05	138.05
930.1388	1984.5173	1016.05	135.05
930.2767	1986.1112	1021.4	142.6
930.4146	1987.7044	1015.8	133
930.5525	1989.2968	1015.5	130.4
930.6904	1990.8885	1020.75	135.85
930.8282	1992.4795	1019.25	137.3
930.966	1994.0697	1014.2	133.9
931.1038	1995.6592	1012.3	130.7
931.2415	1997.2479	1015.95	132.65
931.3793	1998.8359	1012.5	131.75
931.517	2000.4232	1010.55	129.85
931.6547	2002.0097	1011.2	132.75
931.7923	2003.5955	1009.25	129.65
931.93	2005.1805	1014.75	131.1
932.0676	2006.7648	1012.1	132.6
932.2052	2008.3484	1007.7	128.15
932.3427	2009.9312	1012.7	131.35
932.4803	2011.5133	1007.6	128.8
932.6178	2013.0946	1006.2	125.75
932.7553	2014.6752	1009.2	128.6
932.8928	2016.2551	1012.1	131.5
933.0302	2017.8342	1011.85	130.65
933.1676	2019.4126	1009.05	129.05
933.305	2020.9902	1005.3	125.15
933.4424	2022.5672	1005.5	125.45
933.5798	2024.1433	1012.6	126.3
933.7171	2025.7188	1007.65	130.45
933.8544	2027.2935	1007.5	127.85
933.9917	2028.8674	1006.85	129.1
934.129	2030.4406	1006.4	127.55
934.2662	2032.0131	1006	129.9
934.4034	2033.5849	1009.05	128.85
934.5406	2035.1559	1004.25	125.95
934.6778	2036.7261	1003.6	125.05
934.8149	2038.2957	1009.9	128.35
934.952	2039.8645	1009	127.55
935.0891	2041.4325	1015.25	130.9
935.2262	2042.9998	1005.6	125.1
935.3632	2044.5664	1008	125.4
935.5002	2046.1323	1004.1	127.35
935.6372	2047.6974	1004.55	125.75
935.7742	2049.2617	1002.8	125.3
935.9111	2050.8254	1012.15	127.85
936.048	2052.3883	1007.1	127.85
936.1849	2053.9504	1008.85	127.7
936.3218	2055.5118	1008.3	125.85
936.4586	2057.0725	1010.8	123.35
936.5955	2058.6325	999.8	118.65
936.7323	2060.1917	1002	124
936.869	2061.7502	1006	122.9
937.0058	2063.3079	1006.75	129.7
937.1425	2064.8649	1007.35	123.35
937.2792	2066.4212	1005.3	125.6
937.4159	2067.9767	1002.65	124.5
937.5525	2069.5315	1005.45	127.25
937.6891	2071.0856	1001.45	121
937.8257	2072.6389	999.75	119.7
937.9623	2074.1915	1004	125.95
938.0989	2075.7433	1002.15	122
938.2354	2077.2945	1000.4	123.35
938.3719	2078.8448	1000.65	120.95
938.5084	2080.3945	1000.7	119.4
938.6448	2081.9434	1006.55	125.2
938.7812	2083.4916	1001.05	120.2
938.9176	2085.039	1004.2	121.6
939.054	2086.5857	1005.85	122.5
939.1903	2088.1317	1000.7	116.55
939.3267	2089.677	1006.65	122.85
939.463	2091.2215	1004.4	122.85
939.5992	2092.7652	1006.35	119.6
939.7355	2094.3083	1008.15	122.7
939.8717	2095.8506	1005.95	125.45
940.0079	2097.3921	1002.5	121.65
940.1441	2098.933	1004	122.25
940.2802	2100.4731	999.55	118.4
940.4163	2102.0124	1021.55	119.1
940.5524	2103.5511	1000.2	119.05
940.6885	2105.089	1000.5	117.5
940.8245	2106.6261	1005.25	125.9
940.9606	2108.1626	1000.4	116.85
941.0965	2109.6983	1031.1	123.3
941.2325	2111.2332	1000	117.1
941.3684	2112.7675	1001.25	117.05
941.5044	2114.301	1004.65	121.05
941.6403	2115.8337	999.2	117.35
941.7761	2117.3657	1002.65	118.8
941.912	2118.897	999.7	117.75
942.0478	2120.4276	1008.75	120.4
942.1835	2121.9575	1001.55	121.2
942.3193	2123.4866	1013.85	114.65
942.455	2125.0149	1002.55	118
942.5907	2126.5426	997.75	119.25
942.7264	2128.0695	1003.55	117.3
942.8621	2129.5956	999.2	118.15
942.9977	2131.1211	1002.55	117.75
943.1333	2132.6458	999.45	118.55
943.2689	2134.1698	998.8	116.3
943.4044	2135.693	1002.25	117.8
943.54	2137.2155	1003.55	118.5
943.6755	2138.7373	999.35	119.3
943.8109	2140.2584	998.15	119.5
943.9464	2141.7787	1000.4	114.65
944.0818	2143.2983	996.6	118.55
944.2172	2144.8171	990.25	114.25
944.3526	2146.3353	998.85	119.15
944.4879	2147.8527	997.85	116.2
944.6232	2149.3693	997.35	115.7
944.7585	2150.8853	999.65	117.25
944.8938	2152.4005	999.35	117.35
945.029	2153.9149	1001.55	117.35
945.1642	2155.4287	994.65	113.85
945.2994	2156.9417	998.4	117.35
945.4346	2158.454	998.9	115.45
945.5697	2159.9655	995.2	117
945.7048	2161.4764	993.75	114.45
945.8399	2162.9865	996.2	114.8
945.9749	2164.4958	995.1	114.65
946.1099	2166.0045	997.95	115.35
946.2449	2167.5124	993.75	112.35
946.3799	2169.0195	999.65	119.6
946.5148	2170.526	998.8	117.15
946.6498	2172.0317	993.95	111.75
946.7846	2173.5367	997.3	115.7
946.9195	2175.0409	994.05	111.25
947.0543	2176.5445	991.75	112.55
947.1891	2178.0473	997.35	112.4
947.3239	2179.5494	997.35	113.5
947.4587	2181.0507	990.5	107.45
947.5934	2182.5513	991.5	108.2
947.7281	2184.0512	996.1	115.4
947.8628	2185.5504	992.55	111.85
947.9974	2187.0488	989.35	110.4
948.132	2188.5465	990.4	111.3
948.2666	2190.0435	987.55	106.3
948.4012	2191.5397	991.35	110.95
948.5357	2193.0353	989.35	106.55
948.6702	2194.5301	994.95	111.7
948.8047	2196.0241	996.75	113.25
948.9392	2197.5175	991.65	108.6
949.0736	2199.0101	1000	116.4
949.208	2200.502	991.5	111.75
949.3424	2201.9931	989.5	108.8
949.4767	2203.4835	990.05	110.05
949.611	2204.9733	1005	108.2
949.7453	2206.4622	986.95	110.35
949.8796	2207.9505	989.4	108.4
950.0138	2209.438	985.05	107.8
950.148	2210.9248	990.3	109.55
950.2822	2212.4109	989.6	110
950.4164	2213.8962	990.7	107.35
950.5505	2215.3809	989.75	104.4
950.6846	2216.8648	988.35	105
950.8186	2218.3479	993.35	106.35
950.9527	2219.8304	987.45	101.3
951.0867	2221.3121	989.9	104.7
951.2207	2222.7931	987.55	104.5
951.3546	2224.2733	985.55	103.65
951.4886	2225.7529	988.55	109.1
951.6225	2227.2317	988.65	103.75
951.7563	2228.7098	984.95	107.6
951.8902	2230.1872	982.8	104.2
952.024	2231.6638	985.45	103.15
952.1578	2233.1397	989.05	106.05
952.2916	2234.6149	980.35	99.7
952.4253	2236.0894	983.25	102.25
952.559	2237.5632	992.8	102
952.6927	2239.0362	982.6	101.75
952.8263	2240.5085	984.4	104.4
952.9599	2241.9801	983.95	102.3
953.0935	2243.4509	982.9	101.7
953.2271	2244.921	984.6	99.85
953.3606	2246.3904	984.95	99.35
953.4941	2247.8591	980.4	99.45
953.6276	2249.3271	983.35	101.65
953.7611	2250.7943	981.25	99.25
953.8945	2252.2608	982.35	100.85
954.0279	2253.7266	981.75	99.85
954.1612	2255.1917	982.5	101.85
954.2946	2256.656	980.05	100.75
954.4279	2258.1197	978.75	99.7
954.5612	2259.5826	979.5	98.05
954.6944	2261.0447	979.7	96.5
954.8276	2262.5062	984.7	103.05
954.9608	2263.9669	979.75	97
955.094	2265.4269	979.25	96.75
955.2271	2266.8862	979.65	97.25
955.3602	2268.3448	975.85	92.4
955.4933	2269.8026	979.1	100.6
955.6264	2271.2598	976.15	96.35
955.7594	2272.7162	976.1	97.35
955.8924	2274.1719	976.6	93.4
956.0253	2275.6268	979.7	99.45
956.1583	2277.0811	979.05	97.65
956.2912	2278.5346	977.45	96.95
956.4241	2279.9874	977.45	97.25
956.5569	2281.4395	976.05	98.75
956.6897	2282.8908	979.7	95.5
956.8225	2284.3414	975.65	94.1
956.9553	2285.7914	972	90.3
957.088	2287.2406	977.05	94.45
957.2207	2288.689	975.2	95.05
957.3534	2290.1368	976.6	91.85
957.486	2291.5838	979.4	94.5
957.6186	2293.0302	980.5	97.25
957.7512	2294.4758	974.3	93.25
957.8838	2295.9206	977.55	95.95
958.0163	2297.3648	974.85	94.75
958.1488	2298.8082	973.9	91.8
958.2813	2300.251	978	95.4
958.4137	2301.693	978.45	92.7
958.5461	2303.1343	977.5	96
958.6785	2304.5748	973.15	92.3
958.8108	2306.0147	972.4	91.5
958.9432	2307.4538	977.15	95.9
959.0754	2308.8922	969.55	90.05
959.2077	2310.3299	973.35	92.1
959.3399	2311.7669	971.9	90.85
959.4721	2313.2031	970.75	87.65
959.6043	2314.6387	974.75	93.8
959.7365	2316.0735	972.8	91.25
959.8686	2317.5076	973.05	91.2
960.0006	2318.941	972.1	90.55
960.1327	2320.3737	970.05	87.25
960.2647	2321.8056	975.8	89.3
960.3967	2323.2369	976.55	95
960.5287	2324.6674	978.85	95.95
960.6606	2326.0972	979	95.45
960.7925	2327.5263	978.7	97.1
960.9244	2328.9547	982.35	99.7
961.0562	2330.3823	981.25	95.85
961.1881	2331.8092	982.3	96.3
961.3198	2333.2355	972.15	89.45
961.4516	2334.661	968.85	86.4
961.5833	2336.0858	970.3	86.05
961.715	2337.5098	968.55	88.05
961.8467	2338.9332	972.45	90
961.9783	2340.3558	969.7	84.2
962.1099	2341.7778	966.6	87.6
962.2415	2343.199	972.5	89.8
962.373	2344.6195	966.2	85.55
962.5045	2346.0393	966.3	87.05
962.636	2347.4583	971.85	91.2
962.7675	2348.8767	966.95	82.8
962.8989	2350.2943	972.05	88.25
963.0303	2351.7113	973.85	88.1
963.1617	2353.1275	968.8	86.9
963.293	2354.543	989.95	81.35
963.4243	2355.9578	969.6	85.25
963.5556	2357.3718	966.65	85.3
963.6868	2358.7852	967.8	84.5
963.818	2360.1978	967.85	85.35
963.9492	2361.6098	967.9	85.3
964.0803	2363.021	973.45	88.3
964.2114	2364.4315	966.35	85
964.3425	2365.8413	972.5	84.25
964.4736	2367.2504	963.6	82.55
964.6046	2368.6587	962.55	79.8
964.7356	2370.0664	966.05	83.45
964.8666	2371.4733	965.55	83.05
964.9975	2372.8795	963	79.75
965.1284	2374.285	968.15	87.75
965.2593	2375.6899	962.5	81.3
965.3901	2377.0939	963.6	83.45
965.5209	2378.4973	965.85	82.15
965.6517	2379.9	962.75	79.95
965.7825	2381.3019	963.3	80.4
965.9132	2382.7032	965.5	84.05
966.0439	2384.1037	962.9	82.95
966.1745	2385.5035	963.85	81.5
966.3051	2386.9027	959.3	77.6
966.4357	2388.3011	966.75	79.5
966.5663	2389.6987	962.65	80.55
966.6968	2391.0957	960.45	78.75
966.8273	2392.492	961.2	79.7
966.9578	2393.8876	959.7	76.7
967.0882	2395.2824	960.3	77.6
967.2186	2396.6765	960.95	78.1
967.349	2398.07	963.1	78.7
967.4793	2399.4627	963.9	78.05
967.6097	2400.8547	959.7	75.25
967.7399	2402.246	967	76.15
967.8702	2403.6366	958.05	74.5
968.0004	2405.0265	957.9	74.55
968.1306	2406.4156	963.4	77.4
968.2607	2407.8041	961.9	75.75
968.3909	2409.1918	960.05	74.85
968.521	2410.5789	962.75	77.55
968.651	2411.9652	963.55	77
968.781	2413.3508	960.65	77.75
968.911	2414.7358	960.75	74.75
969.041	2416.12	956.2	72.2
969.1709	2417.5035	957.75	73.55
969.3008	2418.8863	959.15	73.6
969.4307	2420.2684	957.7	75.6
969.5606	2421.6497	961.85	77.55
969.6904	2423.0304	957.55	74.55
969.8201	2424.4104	957.4	71.4
969.9499	2425.7896	963.75	75.15
970.0796	2427.1682	957.55	74.25
970.2093	2428.546	957.1	71.65
970.3389	2429.9232	958.05	73.2
970.4685	2431.2996	957.4	73.25
970.5981	2432.6753	955.75	71.85
970.7277	2434.0503	956.9	71.85
970.8572	2435.4246	956.6	74.8
970.9867	2436.7982	960.75	74.9
971.1161	2438.1711	956.65	75.05
971.2456	2439.5433	954.7	68.15
971.375	2440.9148	954.6	71.95
971.5043	2442.2856	954.35	72.05
971.6336	2443.6557	955.75	69.95
971.7629	2445.025	955.8	75.05
971.8922	2446.3937	953.35	68.3
972.0214	2447.7617	955.35	69.7
972.1506	2449.1289	952.35	68.2
972.2798	2450.4955	957.45	69.15
972.4089	2451.8613	952	70.45
972.538	2453.2265	952.3	68.5
972.6671	2454.5909	951.65	70.05
972.7961	2455.9546	949.15	66.4
972.9251	2457.3177	949.3	66.9
973.0541	2458.68	953.75	69.85
973.1831	2460.0416	952.1	67.9
973.312	2461.4025	952.65	67.5
973.4408	2462.7627	960.85	67.35
973.5697	2464.1222	948.35	67.8
973.6985	2465.4811	952.4	69.9
973.8273	2466.8392	948.6	66.35
973.956	2468.1966	952.2	68.15
974.0847	2469.5533	952.35	67.35
974.2134	2470.9093	949.95	66.3
974.3421	2472.2645	951.4	67.15
974.4707	2473.6191	949.8	66.95
974.5993	2474.973	951	66.65
974.7278	2476.3262	951.45	67.75
974.8563	2477.6787	950.7	67.55
974.9848	2479.0305	949.55	67.75
975.1132	2480.3816	953.3	67.45
975.2417	2481.7319	951.25	69.15
975.37	2483.0816	950.35	64.55
975.4984	2484.4306	950.55	66.55
975.6267	2485.7789	945.55	60.65
975.755	2487.1264	948.05	64.65
975.8833	2488.4733	946.2	64.05
976.0115	2489.8195	958.05	68.5
976.1397	2491.165	951.1	65.95
976.2678	2492.5097	949.3	67.6
976.3959	2493.8538	947.1	64.65
976.524	2495.1972	946.4	64.3
976.6521	2496.5398	944.85	60.6
976.7801	2497.8818	951.75	65.95
976.9081	2499.2231	949.05	65.7
977.036	2500.5637	952.4	68.5
977.164	2501.9035	946.7	63.95
977.2918	2503.2427	951.8	68.2
977.4197	2504.5812	946.2	63.2
977.5475	2505.919	952.95	66.7
977.6753	2507.256	944.45	64.25
977.8031	2508.5924	945.65	61.45
977.9308	2509.9281	951.25	62.35
978.0585	2511.2631	943.6	61.05
978.1861	2512.5974	945.35	66.65
978.3137	2513.9309	944.95	61.95
978.4413	2515.2638	970.75	62.7
978.5689	2516.596	945.5	62.55
978.6964	2517.9275	946.8	62.15
978.8239	2519.2583	947.75	66.2
978.9513	2520.5884	944.55	60
979.0788	2521.9178	946.55	64.15
979.2062	2523.2465	942.05	59.5
979.3335	2524.5745	942	61.1
979.4608	2525.9018	943.6	62.35
979.5881	2527.2284	940.05	60.35
979.7154	2528.5543	941.3	61.1
979.8426	2529.8796	942.25	60.1
979.9698	2531.2041	941.5	59.8
980.0969	2532.5279	940.35	59
980.224	2533.851	940.65	59.25
980.3511	2535.1735	941.35	59.2
980.4781	2536.4952	942.85	61.85
980.6052	2537.8163	941.2	57
980.7321	2539.1366	944.25	61.75
980.8591	2540.4562	944.05	59.15
980.986	2541.7752	943.05	60.25
981.1129	2543.0935	942.8	60.6
981.2397	2544.411	945.55	62.25
981.3665	2545.7279	941.65	60.15
981.4933	2547.0441	940.9	58.05
981.62	2548.3596	943.4	58
981.7467	2549.6744	941.35	56.7
981.8734	2550.9885	949.5	58.65
982.0001	2552.3019	940.45	59.7
982.1267	2553.6146	939.75	57.65
982.2532	2554.9266	941.8	59.7
982.3798	2556.2379	939.9	55.7
982.5063	2557.5485	937.45	55.3
982.6327	2558.8585	946.95	56.45
982.7592	2560.1677	943.9	55.95
982.8856	2561.4762	940.1	58.65
983.0119	2562.7841	942.8	57.4
983.1383	2564.0913	937.9	57.35
983.2646	2565.3977	942.45	60.45
983.3908	2566.7035	940.3	58.15
983.517	2568.0086	939.8	56.25
983.6432	2569.313	939.2	54.15
983.7694	2570.6167	942	54.55
983.8955	2571.9197	936.6	53.35
984.0216	2573.222	943.2	55.55
984.1476	2574.5236	939.25	55.8
984.2737	2575.8246	938.7	52.5
984.3996	2577.1248	943.25	58.6
984.5256	2578.4244	940.8	60.15
984.6515	2579.7232	937.9	53.4
984.7774	2581.0214	964.9	55.4
984.9032	2582.3189	939.55	58
985.029	2583.6157	941.8	55.05
985.1548	2584.9118	937.25	53.35
985.2806	2586.2072	940.5	58.6
985.4063	2587.5019	938.45	57.95
985.5319	2588.7959	939.75	58.25
985.6576	2590.0893	938.1	53
985.7832	2591.3819	939	55.4
985.9087	2592.6739	937.25	55.3
986.0343	2593.9652	940.35	56.5
986.1597	2595.2557	938.25	55.65
986.2852	2596.5456	940.2	55.1
986.4106	2597.8348	939.95	56.65
986.536	2599.1234	936.05	54.15
986.6614	2600.4112	937.35	51.7
986.7867	2601.6983	943.4	58.85
986.912	2602.9848	941.45	58.6
987.0372	2604.2705	944	54.6
987.1624	2605.5556	939	58.05
987.2876	2606.84	937.1	53.25
987.4128	2608.1237	935.15	52.8
987.5379	2609.4067	935.3	52.45
987.6629	2610.689	943.95	54
987.788	2611.9707	939.6	53.75
987.913	2613.2516	939.75	54.15
988.0379	2614.5319	935.6	52.4
988.1629	2615.8115	936.35	53.3
988.2878	2617.0903	942.05	58.2
988.4126	2618.3685	932.8	50
988.5375	2619.6461	935.75	52.95
988.6622	2620.9229	936.35	52.2
988.787	2622.199	936.2	52.35
988.9117	2623.4745	936	56
989.0364	2624.7493	929.8	49.55
989.161	2626.0234	934.15	53.9
989.2857	2627.2968	935.8	55.25
989.4102	2628.5695	936.15	53.8
989.5348	2629.8415	933.45	51.75
989.6593	2631.1128	930.95	47.8
989.7837	2632.3835	930.75	48.75
989.9082	2633.6535	933.45	52.25
990.0326	2634.9228	931	47.3
990.1569	2636.1914	934.95	54.2
990.2812	2637.4593	941.15	53.15
990.4055	2638.7265	933.85	49.3
990.5298	2639.9931	933.15	50.3
990.654	2641.259	931.35	46.95
990.7782	2642.5242	932.3	50.7
990.9023	2643.7887	935.25	54.1
991.0264	2645.0525	929.9	47.15
991.1505	2646.3156	933.2	50.75
991.2745	2647.5781	929.4	49.65
991.3985	2648.8398	928.5	48
991.5225	2650.1009	938.45	48.7
991.6464	2651.3613	929	46.55
991.7703	2652.6211	930.05	45.7
991.8942	2653.8801	927.85	45.75
992.018	2655.1385	934.3	47.45
992.1418	2656.3961	929.1	47.8
992.2655	2657.6531	927.65	44.7
992.3892	2658.9094	931.7	50.7
992.5129	2660.1651	927.9	46
992.6366	2661.42	929.25	48
992.7602	2662.6743	931.35	49.9
992.8837	2663.9279	927	49.65
993.0073	2665.1808	929.15	45.45
993.1307	2666.433	932.65	48.3
993.2542	2667.6846	931.25	47.85
993.3776	2668.9354	935.6	50.95
993.501	2670.1856	933.65	51.9
993.6244	2671.4351	928.95	48.4
993.7477	2672.6839	929.55	45.05
993.8709	2673.9321	931.6	51.3
993.9942	2675.1795	931.9	50
994.1174	2676.4263	930.5	50.95
994.2405	2677.6724	930.25	48
994.3637	2678.9179	933.4	53.1
994.4868	2680.1626	928.95	47.55
994.6098	2681.4067	931	51.25
994.7328	2682.6501	929.95	48.1
994.8558	2683.8928	927.65	45.4
994.9788	2685.1348	929.3	48.6
995.1017	2686.3761	927.35	47.15
995.2245	2687.6168	926.85	45.75
995.3474	2688.8568	926.9	45.75
995.4702	2690.0961	925.2	45.25
995.5929	2691.3348	927.85	46.65
995.7156	2692.5727	928.1	46.65
995.8383	2693.81	928.15	49.8
995.961	2695.0466	925.55	46
996.0836	2696.2826	925.1	44.6
996.2062	2697.5178	930.35	47.8
996.3287	2698.7524	923.2	42.05
996.4512	2699.9863	927.7	45.15
996.5737	2701.2195	923.25	42.95
996.6961	2702.452	927.75	44.9
996.8185	2703.6839	927.6	45.85
996.9408	2704.9151	924.9	44
997.0631	2706.1456	930.2	48.75
997.1854	2707.3755	927.15	44.2
997.3077	2708.6046	928.85	44.2
997.4299	2709.8331	926.9	47.85
997.552	2711.0609	925.9	43.95
997.6742	2712.2881	930.1	50.1
997.7963	2713.5145	930.6	47.55
997.9183	2714.7403	927.65	46.2
998.0403	2715.9654	933.35	51.5
998.1623	2717.1899	947.7	51.95
998.2842	2718.4136	934.1	53.65
998.4062	2719.6367	935	53.15
998.528	2720.8591	939.75	52.05
998.6498	2722.0809	934.95	55
998.7716	2723.3019	937.75	53.15
998.8934	2724.5223	935.95	54.1
999.0151	2725.7421	935.4	54.95
999.1368	2726.9611	936.75	53
999.2584	2728.1795	938.25	54.8
999.38	2729.3972	932.4	52.8
999.5016	2730.6142	935.75	48.9
999.6231	2731.8306	933	52.2
999.7446	2733.0462	930.55	46.8
999.8661	2734.2612	931.15	43.8
999.9875	2735.4756	931.1	48.3
1000.1089	2736.6892	928.15	45.2
1000.2302	2737.9022	927.15	47.45
1000.3515	2739.1145	923.45	43.15
1000.4728	2740.3262	933.65	43
1000.594	2741.5372	927.5	48.55
1000.7152	2742.7475	925	43.1
1000.8363	2743.9571	925.85	43.65
1000.9575	2745.1661	923.75	39.8
1001.0785	2746.3744	923.65	41.35
1001.1996	2747.582	919.65	40.75
1001.3206	2748.7889	923.75	39.2
1001.4415	2749.9952	919.8	38.75
1001.5625	2751.2008	920.7	37.5
1001.6833	2752.4057	922.1	38.05
1001.8042	2753.61	919.8	39.3
1001.925	2754.8136	921.3	37.35
1002.0458	2756.0165	919.85	39.55
1002.1665	2757.2188	918.5	38
1002.2872	2758.4204	919.45	40.65
1002.4078	2759.6213	921.1	36.05
1002.5285	2760.8215	923.75	41.25
1002.649	2762.0211	923.6	39.75
1002.7696	2763.22	921.35	35.7
1002.8901	2764.4182	919.2	38.2
1003.0106	2765.6158	917.9	36.85
1003.131	2766.8127	916.15	34.05
1003.2514	2768.009	920.15	39.3
1003.3717	2769.2045	917.8	38.35
1003.492	2770.3994	921.55	39.95
1003.6123	2771.5936	917.35	36.8
1003.7325	2772.7872	916.35	37.55
1003.8527	2773.9801	915.65	33.45
1003.9729	2775.1723	930.9	34.95
1004.093	2776.3639	914.75	34
1004.2131	2777.5548	919.7	39.15
1004.3331	2778.745	917.35	34.05
1004.4531	2779.9346	915.05	35.1
1004.5731	2781.1235	916.95	36.2
1004.693	2782.3117	915.55	35.45
1004.8129	2783.4992	916.15	35.7
1004.9328	2784.6861	916.2	35.8
1005.0526	2785.8723	920.35	40.1
1005.1723	2787.0579	914.85	32.75
1005.2921	2788.2428	915.1	35.3
1005.4118	2789.427	916.35	38.65
1005.5314	2790.6106	913.35	31.8
1005.651	2791.7935	915.55	34.45
1005.7706	2792.9757	916.45	39.1
1005.8902	2794.1573	920.15	38.45
1006.0097	2795.3382	916.55	36.1
1006.1291	2796.5184	915.5	36.95
1006.2485	2797.698	920.6	38.9
1006.3679	2798.8769	916	35.7
1006.4873	2800.0551	916.25	36.75
1006.6066	2801.2327	918.3	35.75
1006.7258	2802.4096	916.75	35.75
1006.8451	2803.5859	917.25	37.2
1006.9642	2804.7615	920.7	40.5
1007.0834	2805.9364	918.2	38.6
1007.2025	2807.1106	921.1	44
1007.3216	2808.2842	920.15	41.4
1007.4406	2809.4572	921.2	42.55
1007.5596	2810.6294	924.1	41.8
1007.6785	2811.801	923.45	45.6
1007.7975	2812.972	925.6	46.55
1007.9163	2814.1423	925.9	46.45
1008.0352	2815.3119	929.25	48.6
1008.154	2816.4808	931.7	53.3
1008.2727	2817.6491	934.15	53.25
1008.3914	2818.8167	937.05	60.8
1008.5101	2819.9837	947.3	62.25
1008.6288	2821.15	943.85	65.4
1008.7474	2822.3157	949	70.6
1008.8659	2823.4807	953.5	72.4
1008.9844	2824.645	963.75	81.7
1009.1029	2825.8086	963.05	86.5
1009.2214	2826.9716	974.45	95.25
1009.3398	2828.134	982.95	104.65
1009.4581	2829.2957	986.85	107.1
1009.5764	2830.4567	991.2	113.4
1009.6947	2831.617	997.15	114.85
1009.813	2832.7767	999.55	121.15
1009.9312	2833.9358	996.8	118.1
1010.0493	2835.0941	1000.8	120.35
1010.1675	2836.2519	996.8	119.8
1010.2855	2837.4089	993.05	112.85
1010.4036	2838.5653	987.95	107.7
1010.5216	2839.7211	983.2	105.35
1010.6396	2840.8761	983.05	101.65
1010.7575	2842.0306	981.05	102.5
1010.8754	2843.1843	983.2	104.4
1010.9932	2844.3374	981.85	102.7
1011.111	2845.4899	989.3	109.05
1011.2288	2846.6417	984.8	105.05
1011.3465	2847.7928	987.55	109.8
1011.4642	2848.9433	988.3	109.25
1011.5818	2850.0931	991.3	112.4
1011.6995	2851.2422	993.3	113.4
1011.817	2852.3907	992.35	111.5
1011.9345	2853.5385	996.55	116.6
1012.052	2854.6857	1022.5	115.45
1012.1695	2855.8323	995.1	115.1
1012.2869	2856.9781	1002.3	123.35
1012.4042	2858.1233	1001.75	120.2
1012.5216	2859.2679	1008.4	132.65
1012.6389	2860.4118	1006.85	128.15
1012.7561	2861.555	1016.75	134.3
1012.8733	2862.6976	1011.8	132.2
1012.9905	2863.8395	1017.6	138.5
1013.1076	2864.9808	1016.55	137.3
1013.2247	2866.1214	1017.6	138.35
1013.3417	2867.2614	1017.15	138.1
1013.4587	2868.4007	1020.85	141.65
1013.5757	2869.5393	1021.6	141.75
1013.6926	2870.6773	1023.9	141.6
1013.8095	2871.8146	1031.2	150.2
1013.9263	2872.9513	1026.9	143.25
1014.0431	2874.0874	1029.3	150.35
1014.1599	2875.2227	1027.5	146.6
1014.2766	2876.3574	1030.7	151.85
1014.3933	2877.4915	1030.6	151.25
1014.51	2878.6249	1034.75	156.6
1014.6266	2879.7577	1039.8	159.1
1014.7431	2880.8898	1049.45	160.7
1014.8596	2882.0212	1041.8	164.1
1014.9761	2883.152	1042.5	165.1
1015.0925	2884.2821	1044.6	166.95
1015.2089	2885.4116	1046.1	168.05
1015.3253	2886.5405	1046.3	168.6
1015.4416	2887.6686	1052.75	169.85
1015.5579	2888.7962	1046	168.6
1015.6741	2889.923	1047.7	168.35
1015.7903	2891.0493	1042.8	166.05
1015.9065	2892.1748	1047.4	168.3
1016.0226	2893.2997	1043.75	164.65
1016.1387	2894.424	1046.8	168.5
1016.2547	2895.5476	1050.65	172.75
1016.3707	2896.6706	1046.7	168.95
1016.4866	2897.7929	1049.1	169.8
1016.6025	2898.9145	1051.95	171.8
1016.7184	2900.0355	1049.4	170.75
1016.8342	2901.1559	1048.1	168.25
1016.95	2902.2756	1052.3	170.65
1017.0658	2903.3946	1044.95	165.7
1017.1815	2904.513	1050.85	167.9
1017.2971	2905.6308	1043.15	164.9
1017.4127	2906.7479	1049	169.4
1017.5283	2907.8643	1043.3	164.15
1017.6439	2908.9801	1047.2	167.35
1017.7594	2910.0953	1046.7	168.2
1017.8748	2911.2098	1048.1	167.7
1017.9902	2912.3236	1053.15	166.15
1018.1056	2913.4368	1046.55	163.55
1018.2209	2914.5494	1046.15	165.55
1018.3362	2915.6613	1045.7	161.9
1018.4515	2916.7725	1043.55	160.6
1018.5667	2917.8831	1034.35	152.25
1018.6819	2918.9931	1037.1	156.6
1018.797	2920.1024	1034.6	155.4
1018.9121	2921.211	1031.45	152.6
1019.0271	2922.319	1030.75	153.4
1019.1421	2923.4264	1028.7	151.2
1019.2571	2924.5331	1026.1	149.55
1019.372	2925.6391	1027.4	150.35
1019.4869	2926.7445	1026.55	149.8
1019.6017	2927.8493	1027	147.35
1019.7165	2928.9534	1028.9	149.9
1019.8313	2930.0569	1030.65	148.8
1019.946	2931.1597	1032.9	152.2
1020.0606	2932.2619	1026.7	148.05
1020.1753	2933.3634	1036.85	158.7
1020.2899	2934.4643	1040.85	153.75
1020.4044	2935.5645	1042.65	158.65
1020.5189	2936.6641	1039.45	155
1020.6334	2937.763	1036.15	157
1020.7478	2938.8613	1037.95	157.65
1020.8622	2939.959	1040.15	156.15
1020.9765	2941.056	1027.95	152.65
1021.0908	2942.1523	1026.45	147.9
1021.2051	2943.248	1016.9	138.3
1021.3193	2944.3431	1008.15	131.7
1021.4334	2945.4375	1005.65	125.9
1021.5476	2946.5313	996.75	119.7
1021.6617	2947.6244	991.8	114.35
1021.7757	2948.7169	986.25	107.35
1021.8897	2949.8087	978.45	99.1
1022.0037	2950.8999	976.05	100
1022.1176	2951.9904	970.8	90.45
1022.2315	2953.0803	966.15	85.5
1022.3453	2954.1696	965.75	89.65
1022.4591	2955.2582	957.15	81
1022.5728	2956.3462	958.15	80.5
1022.6865	2957.4335	958.1	79.75
1022.8002	2958.5202	956	75.65
1022.9138	2959.6062	952.65	74.05
1023.0274	2960.6916	955.5	76.15
1023.141	2961.7764	955.7	75.95
1023.2545	2962.8605	953.9	75.4
1023.3679	2963.9439	952.75	76.4
1023.4813	2965.0267	951.55	72.8
1023.5947	2966.1089	974.7	73.45
1023.708	2967.1905	953.1	75.3
1023.8213	2968.2714	950.45	71.3
1023.9346	2969.3516	949.1	70.2
1024.0478	2970.4312	955.65	68.15
1024.1609	2971.5102	951	73.05
1024.274	2972.5885	952.2	74.65
1024.3871	2973.6662	958.1	72.9
1024.5002	2974.7432	951.35	73.6
1024.6132	2975.8196	948.45	70.5
1024.7261	2976.8954	951.45	74.95
1024.839	2977.9705	953.45	77.3
1024.9519	2979.045	948.55	71.4
1025.0647	2980.1188	951.45	73.6
1025.1775	2981.192	950.75	71.85
1025.2902	2982.2645	950.85	70.9
1025.4029	2983.3364	949.4	69.5
1025.5156	2984.4077	948.45	69.45
1025.6282	2985.4783	952.55	68.35
1025.7407	2986.5483	943.3	66.5
1025.8532	2987.6177	940.05	61.95
1025.9657	2988.6864	943.35	64.75
1026.0782	2989.7545	936.6	57.7
1026.1906	2990.8219	931.9	54.1
1026.3029	2991.8887	931.8	53.1
1026.4152	2992.9548	926.9	47.25
1026.5275	2994.0204	926.1	48.6
1026.6397	2995.0852	924.45	45.9
1026.7519	2996.1495	924.05	44.35
1026.864	2997.2131	918.4	41.25
1026.9761	2998.276	917.9	40.75
1027.0882	2999.3383	914.75	37.45
1027.2002	3000.4	918.65	39.9
1027.3122	3001.4611	911.6	35.55
1027.4241	3002.5215	910.85	33.95
1027.536	3003.5812	910.05	30.95
1027.6478	3004.6404	908.8	31.85
1027.7596	3005.6989	910.15	29.2
1027.8714	3006.7567	907.05	28.7
1027.9831	3007.8139	941.9	33.2
1028.0947	3008.8705	906.65	27.15
1028.2064	3009.9264	906.8	25.65
1028.3179	3010.9818	901.1	22.55
1028.4295	3012.0364	905.35	24.75
1028.541	3013.0905	903.5	24.85
1028.6524	3014.1439	904.7	28.6
1028.7638	3015.1966	902.2	25.65
1028.8752	3016.2487	901.8	23.5
1028.9865	3017.3002	908.15	26.05
1029.0978	3018.3511	900.8	26
1029.209	3019.4013	901.85	23.95
1029.3202	3020.4509	898.95	21.45
1029.4314	3021.4998	900.9	21.85
1029.5425	3022.5481	902.55	24.3
1029.6535	3023.5958	901.15	23.5
1029.7645	3024.6428	900.7	22.35
1029.8755	3025.6892	900.25	22.05
1029.9864	3026.735	898.6	21.35
1030.0973	3027.7802	901.85	23.35
1030.2082	3028.8247	900	21.65
1030.319	3029.8685	900.9	22.1
1030.4297	3030.9118	899.55	21.35
1030.5404	3031.9544	900.85	24.35
1030.6511	3032.9963	898.05	19.45
1030.7617	3034.0376	899.75	23.6
1030.8723	3035.0783	902	20.85
1030.9829	3036.1184	901.9	23
1031.0934	3037.1578	898.4	24.4
1031.2038	3038.1966	899.45	19.5
1031.3142	3039.2348	899.3	22.95
1031.4246	3040.2723	906.6	20
1031.5349	3041.3092	900.5	23.55
1031.6452	3042.3455	902.15	24.3
1031.7554	3043.3811	903.05	25.1
1031.8656	3044.4161	901.65	23.65
1031.9758	3045.4505	902.1	24.25
1032.0859	3046.4842	900.6	22.35
1032.1959	3047.5173	899.3	23.2
1032.3059	3048.5498	899.4	19.9
1032.4159	3049.5816	901.75	25.1
1032.5258	3050.6128	901.2	22.55
1032.6357	3051.6434	903.7	22.9
1032.7455	3052.6734	900.6	22.45
1032.8553	3053.7027	898.65	20.3
1032.9651	3054.7314	897.65	19.6
1033.0748	3055.7594	898.6	18.85
1033.1845	3056.7868	901.95	23.1
1033.2941	3057.8136	903.65	27.65
1033.4037	3058.8398	901.7	24.3
1033.5132	3059.8653	901	23.8
1033.6227	3060.8902	901.35	24.1
1033.7321	3061.9145	902.85	25.95
1033.8415	3062.9381	900	23.35
1033.9509	3063.9612	918.65	25.7
1034.0602	3064.9835	903	25.45
1034.1694	3066.0053	903.55	23.45
1034.2787	3067.0264	902.85	24.55
1034.3878	3068.0469	903.4	25.15
1034.497	3069.0668	906.65	26.35
1034.6061	3070.086	900.3	24.25
1034.7151	3071.1046	902.15	23.6
1034.8241	3072.1226	902.1	22.75
1034.9331	3073.1399	901.45	24.15
1035.042	3074.1567	900.9	22.45
1035.1508	3075.1727	902.3	24.1
1035.2597	3076.1882	898.9	21.1
1035.3684	3077.203	897.1	18.75
1035.4772	3078.2173	900.9	21.75
1035.5859	3079.2308	901.6	20.3
1035.6945	3080.2438	898.7	18.5
1035.8031	3081.2561	899.9	23.15
1035.9117	3082.2678	896.85	19.2
1036.0202	3083.2789	897.05	19.6
1036.1286	3084.2893	897.5	18.75
1036.2371	3085.2991	894	13.7
1036.3454	3086.3083	900.65	19.25
1036.4538	3087.3169	896.65	14.75
1036.562	3088.3248	895	15
1036.6703	3089.3321	896.4	16.95
1036.7785	3090.3388	893.8	15.35
1036.8866	3091.3449	895.85	18.7
1036.9948	3092.3503	896.45	16.05
1037.1028	3093.3551	891.05	18.35
1037.2108	3094.3593	891.75	16.85
1037.3188	3095.3629	893.6	17
1037.4267	3096.3658	893.2	15.2
1037.5346	3097.3681	893.5	16.75
1037.6425	3098.3698	897.2	18.75
1037.7503	3099.3708	895.4	17.3
1037.858	3100.3713	889.5	12.5
1037.9657	3101.3711	893.2	14.75
1038.0734	3102.3702	1028	11.3
1038.181	3103.3688	892.9	17.3
1038.2886	3104.3667	890	12.9
1038.3961	3105.364	891.95	13.95
1038.5036	3106.3607	893.15	17
1038.611	3107.3568	892.35	14.05
1038.7184	3108.3522	890.85	15.6
1038.8257	3109.347	894.3	15.35
1038.933	3110.3412	893.25	11.6
1039.0403	3111.3348	889.95	12.35
1039.1475	3112.3277	889.9	11.5
1039.2547	3113.32	888.65	11.8
1039.3618	3114.3117	889.65	12.55
1039.4689	3115.3028	888.05	9.3
1039.5759	3116.2932	892.35	12.45
1039.6829	3117.2831	896.15	13.6
1039.7898	3118.2723	887.7	11.5
1039.8967	3119.2608	889.8	13.2
1040.0035	3120.2488	887.8	8.35
1040.1103	3121.2361	888.7	11.7
1040.2171	3122.2229	890.65	12.65
1040.3238	3123.209	889.05	9.9
1040.4305	3124.1944	889.9	13.2
1040.5371	3125.1793	888.2	8.95
1040.6437	3126.1635	889.1	13.5
1040.7502	3127.1471	888.35	11.95
1040.8567	3128.1301	886.9	10.55
1040.9631	3129.1125	888	9.65
1041.0695	3130.0942	886.5	9.55
1041.1759	3131.0753	895.95	10.25
1041.2822	3132.0558	892.1	12.7
1041.3884	3133.0357	887.15	9.45
1041.4946	3134.015	888.7	10.95
1041.6008	3134.9936	888.65	8.85
1041.7069	3135.9716	906.7	8.05
1041.813	3136.949	888.75	12.9
1041.919	3137.9258	906.45	11.95
1042.025	3138.902	893.95	12.65
1042.1309	3139.8775	886.4	10.05
1042.2368	3140.8524	885.65	8.05
1042.3427	3141.8267	889.1	11.6
1042.4485	3142.8004	887.05	9.5
1042.5542	3143.7735	892.25	9.45
1042.6599	3144.7459	888.65	8.55
1042.7656	3145.7178	887.55	9.2
1042.8712	3146.689	887.15	12.4
1042.9768	3147.6596	886.9	6.2
1043.0823	3148.6295	888.3	10.85
1043.1878	3149.5989	887.6	9.75
1043.2932	3150.5676	883.4	7.6
1043.3986	3151.5357	884.1	9.45
1043.5039	3152.5032	884.85	8.25
1043.6092	3153.4701	887.1	12.45
1043.7145	3154.4364	888.9	9.6
1043.8197	3155.402	885.1	9.65
1043.9248	3156.367	887.65	9.65
1044.03	3157.3315	931.05	11
1044.135	3158.2952	883.15	6.95
1044.24	3159.2584	884.05	7.05
1044.345	3160.221	886.45	8.85
1044.4499	3161.1829	886.85	9.25
1044.5548	3162.1442	886.8	10.85
1044.6596	3163.105	885.45	8.5
1044.7644	3164.065	885.7	8.9
1044.8692	3165.0245	885.95	6.45
1044.9739	3165.9834	884.45	10.65
1045.0785	3166.9416	886.4	10.35
1045.1831	3167.8993	885.6	8.2
1045.2877	3168.8563	888.15	9.65
1045.3922	3169.8127	883	6.55
1045.4966	3170.7684	884.8	9.1
1045.6011	3171.7236	887.7	8.1
1045.7054	3172.6782	885.2	8.2
1045.8098	3173.6321	883.35	7.6
1045.914	3174.5854	888.2	4.65
1046.0183	3175.5381	884.1	7.15
1046.1224	3176.4902	884.4	6.85
1046.2266	3177.4417	881.85	6.25
1046.3307	3178.3926	883.55	8.2
1046.4347	3179.3428	882.6	4.4
1046.5387	3180.2924	882.55	8.15
1046.6427	3181.2415	885.05	10.65
1046.7466	3182.1899	884.45	6.5
1046.8504	3183.1377	885.75	9.75
1046.9542	3184.0848	889	8
1047.058	3185.0314	883.2	6.75
1047.1617	3185.9773	885.65	7.8
1047.2654	3186.9227	884.55	7.45
1047.369	3187.8674	885.4	9.35
1047.4726	3188.8115	886.2	4.05
1047.5761	3189.755	883	7.65
1047.6796	3190.6979	883.1	6.45
1047.783	3191.6402	883.75	8.7
1047.8864	3192.5818	884	5.9
1047.9898	3193.5229	895.35	2.75
1048.0931	3194.4633	884	6.6
1048.1963	3195.4031	884.1	6.7
1048.2995	3196.3423	881.7	5.05
1048.4027	3197.2809	883.25	5.3
1048.5058	3198.2189	882.75	6.4
1048.6089	3199.1563	890.65	9.05
1048.7119	3200.0931	881.6	7.45
1048.8148	3201.0292	882.25	6.2
1048.9178	3201.9648	882.85	5.05
1049.0206	3202.8997	886.4	5.5
1049.1235	3203.834	882.75	6.95
1049.2262	3204.7677	884.75	9.15
1049.329	3205.7008	884.2	6.1
1049.4317	3206.6333	882.3	6.5
1049.5343	3207.5652	884.25	5.05
1049.6369	3208.4964	882.65	6.15
1049.7394	3209.4271	882.4	7.05
1049.8419	3210.3571	882.9	6
1049.9444	3211.2865	884.65	8.25
1050.0468	3212.2154	884.7	7.75
1050.1491	3213.1436	887.05	7.85
1050.2514	3214.0712	888	6.4
1050.3537	3214.9982	884.1	7.95
1050.4559	3215.9246	883.55	6.45
1050.5581	3216.8503	882	6.25
1050.6602	3217.7755	880.65	2.8
1050.7623	3218.7001	882.05	5.85
1050.8643	3219.624	882.3	4.65
1050.9663	3220.5473	883.85	9.3
1051.0682	3221.4701	884.6	5.25
1051.1701	3222.3922	884.8	5.9
1051.2719	3223.3137	881.15	5.25
1051.3737	3224.2346	882.15	4.4
1051.4754	3225.1549	881.25	3.95
1051.5771	3226.0746	878.95	1.3
1051.6788	3226.9937	883	6.6
1051.7804	3227.9121	880	3.8
1051.8819	3228.83	883.1	7.65
1051.9834	3229.7473	882.7	5
1052.0849	3230.6639	882.05	5.75
1052.1863	3231.5799	882.8	5.85
1052.2876	3232.4954	881.35	2.3
1052.3889	3233.4102	882.4	5.55
1052.4902	3234.3244	883.55	6.15
1052.5914	3235.238	880.65	4.35
1052.6926	3236.151	906.65	3.7
1052.7937	3237.0634	879.5	3.7
1052.8948	3237.9752	881.6	5.3
1052.9958	3238.8864	879.55	2.65
1053.0968	3239.797	881.3	5.5
1053.1977	3240.7069	882.9	5.1
1053.2986	3241.6163	884.6	7.45
1053.3994	3242.5251	881.95	7.95
1053.5002	3243.4332	880.9	6.2
1053.6009	3244.3408	881.75	5
1053.7016	3245.2477	882.15	4.8
1053.8022	3246.154	882.6	5.5
1053.9028	3247.0598	880.95	4.05
1054.0034	3247.9649	882.05	8
1054.1039	3248.8694	881.45	6.9
1054.2043	3249.7733	881.15	4.3
1054.3047	3250.6766	882.85	4.05
1054.4051	3251.5793	882.15	6.2
1054.5054	3252.4814	881.8	6.8
1054.6056	3253.3829	879.55	2.2
1054.7058	3254.2838	882.85	4.3
1054.806	3255.1841	880.6	4.8
1054.9061	3256.0838	880.05	4.15
1055.0061	3256.9829	879.5	4.4
1055.1062	3257.8814	882.45	5.25
1055.2061	3258.7792	883.95	5.85
1055.306	3259.6765	882.8	4.1
1055.4059	3260.5731	880.7	6.35
1055.5057	3261.4692	879.2	1.65
1055.6055	3262.3647	880.95	2.85
1055.7052	3263.2595	881.1	3.65
1055.8049	3264.1538	880.85	5.45
1055.9045	3265.0474	883	4.35
1056.0041	3265.9404	879.15	3.4
1056.1036	3266.8329	880.9	5.55
1056.2031	3267.7247	891.4	4.8
1056.3025	3268.616	878.85	5
1056.4019	3269.5066	880.15	3.7
1056.5013	3270.3966	879.6	2
1056.6005	3271.286	880.3	3.9
