Software Version:	3.9.2.0
Unit SN:	10000200
Spectrometer SN:	6960
Date:	3/8/2024 2:07:29 PM
Data Line Index:	25
Spectral Points:	2048
Integration time (ms):	125
Averages:	20
Delay (ms):	30000
Sequence Number:	1
Processing:	dark subtract
Laser Power (mW):	300
Laser Current (mA):	823
Laser Diode Temp (C):	25
Laser Case Temp (C):	26.3
System Temp (C):	26.2
Spectrometer Temp (C):	24.1
CCD Temp (C):	0.007
Secondary Temp (C):	20.01
Heatsink Temp (C):	21.395
CCDPCB Temp (C):	36.362
SecondaryPCB Temp (C):	29.882

Wavelength	RamanShift	Raw Counts	Dark Subtracted
787.061	30.1047	468.05	62.45
787.2016	32.3739	468.35	64.35
787.3422	34.6426	476.85	69.45
787.4828	36.9109	478.55	69.75
787.6235	39.1787	489.45	78.35
787.7642	41.4461	499.55	83.55
787.9049	43.7131	508.75	88.2
788.0456	45.9796	518.1	94.3
788.1863	48.2456	526.2	99.2
788.3271	50.5112	533.85	103.75
788.4679	52.7764	542.6	107.35
788.6087	55.0411	558.95	118.65
788.7496	57.3054	570.95	127.1
788.8904	59.5692	581.95	136.55
789.0313	61.8326	590.9	141.85
789.1722	64.0955	602.85	152.9
789.3132	66.3579	622.4	166.35
789.4541	68.6199	645.75	185.65
789.5951	70.8815	684.6	217.65
789.7361	73.1426	769.45	300.1
789.8771	75.4032	983.2	510.4
790.0181	77.6634	1525.05	1045.95
790.1592	79.9231	2785.75	2297.8
790.3003	82.1824	5543.1	5041.35
790.4414	84.4412	10486.5	9954
790.5825	86.6995	17306.95	16733.3
790.7237	88.9574	23971.25	23364.8
790.8648	91.2148	28526.45	27899.8
791.006	93.4717	30703.3	30065.4
791.1472	95.7282	31237.65	30591.9
791.2885	97.9842	31264.65	30611.3
791.4297	100.2398	30763.05	30103.2
791.571	102.4949	30209	29551.05
791.7123	104.7495	29492.9	28832.15
791.8536	107.0036	28728.6	28071
791.9949	109.2573	28006	27345
792.1363	111.5105	27334.1	26669.7
792.2777	113.7632	26580.4	25916.3
792.4191	116.0154	25987.3	25312.15
792.5605	118.2672	25589.25	24918.75
792.7019	120.5185	25148.1	24475.2
792.8434	122.7693	24823.9	24144.5
792.9849	125.0197	24520.8	23841.45
793.1264	127.2696	24273.2	23591.75
793.2679	129.519	24161.1	23473.1
793.4094	131.7679	23994	23303.7
793.551	134.0163	23863.95	23164.8
793.6926	136.2642	23702.5	23006.9
793.8342	138.5117	23509.25	22809.35
793.9758	140.7587	23334.55	22634.9
794.1175	143.0052	23142.45	22437.45
794.2591	145.2512	22887.7	22188.05
794.4008	147.4967	22740.15	22035.25
794.5425	149.7417	22592.45	21885.15
794.6842	151.9863	22489.9	21777.35
794.826	154.2304	22437.2	21721.65
794.9677	156.4739	22302.45	21580.9
795.1095	158.717	22255.1	21533
795.2513	160.9596	22154.1	21424.25
795.3931	163.2017	21892.95	21165.25
795.535	165.4433	21638.85	20906.85
795.6768	167.6844	21306.75	20576.25
795.8187	169.925	21031.4	20294.5
795.9606	172.1651	20659.1	19926.7
796.1025	174.4047	20432.55	19695
796.2445	176.6439	20172.1	19432.15
796.3864	178.8825	19961.4	19216.55
796.5284	181.1206	19826.05	19074.65
796.6704	183.3582	19686.55	18933.45
796.8124	185.5954	19569.65	18812.8
796.9544	187.832	19515.95	18754.5
797.0965	190.0681	19504.25	18739.25
797.2386	192.3037	19519.6	18754.7
797.3806	194.5388	19545.65	18774.25
797.5228	196.7734	19552.85	18782.9
797.6649	199.0075	19688.75	18914.2
797.807	201.2411	19865.8	19090.5
797.9492	203.4742	19923.8	19148.35
798.0914	205.7068	20114.15	19334.9
798.2336	207.9389	20237.95	19459.25
798.3758	210.1704	20423.15	19647.5
798.518	212.4015	20516.3	19752.45
798.6603	214.632	20722.4	19965.7
798.8025	216.862	20912.35	20155.7
798.9448	219.0915	21074.25	20317.55
799.0871	221.3205	21335.15	20571.55
799.2294	223.549	21612.9	20859.15
799.3718	225.777	21948.15	21190.3
799.5141	228.0044	22313.7	21546.8
799.6565	230.2314	22791.05	22028.7
799.7989	232.4578	23269.9	22502.85
799.9413	234.6837	23607.05	22833.35
800.0837	236.909	23839.55	23063.55
800.2262	239.1339	23892.1	23085.55
800.3687	241.3582	23668.75	22881.1
800.5111	243.582	23365.3	22547.75
800.6536	245.8053	23040	22229.3
800.7961	248.0281	22693.65	21890.95
800.9387	250.2503	22448.9	21640.65
801.0812	252.472	22302.05	21493.55
801.2238	254.6932	22293.75	21486.65
801.3664	256.9139	22167.6	21355.1
801.509	259.134	22215.4	21400.95
801.6516	261.3536	22223.65	21410.3
801.7942	263.5727	22248.4	21436.2
801.9369	265.7912	22180.6	21370
802.0795	268.0092	22237.8	21424.85
802.2222	270.2267	22221.35	21410.75
802.3649	272.4436	22213.55	21402.55
802.5076	274.6601	22153.8	21328.3
802.6504	276.8759	22113.3	21294.8
802.7931	279.0913	22108	21288.85
802.9359	281.3061	22099.2	21280.35
803.0787	283.5204	22203.5	21376.3
803.2215	285.7341	22252.5	21422.7
803.3643	287.9473	22458.6	21620.35
803.5071	290.16	22736.7	21904.95
803.6499	292.3721	23048.75	22224.7
803.7928	294.5837	23475.7	22648.05
803.9357	296.7947	23828.8	23001.85
804.0786	299.0052	24059.95	23235.05
804.2215	301.2152	23957.7	23127.45
804.3644	303.4246	23594.05	22768.25
804.5074	305.6334	23073.75	22249.2
804.6503	307.8418	22590.8	21765
804.7933	310.0495	22129.9	21296.75
804.9363	312.2568	21874.7	21040.15
805.0793	314.4635	21652.35	20822.75
805.2223	316.6696	21622.05	20786.6
805.3653	318.8752	21587.65	20741.55
805.5084	321.0802	21649.8	20809.3
805.6514	323.2847	21751.05	20908.1
805.7945	325.4887	21836.75	20994.25
805.9376	327.692	21781.7	20939.4
806.0807	329.8949	21712.05	20868.35
806.2238	332.0972	21458.8	20614.25
806.367	334.2989	21156.75	20308.35
806.5101	336.5001	20924.95	20076.25
806.6533	338.7007	20750.7	19903.25
806.7965	340.9008	20647.4	19798.75
806.9397	343.1003	20540.95	19689.95
807.0829	345.2992	20543.25	19691.8
807.2261	347.4976	20515.85	19663.15
807.3693	349.6955	20531.5	19671.6
807.5126	351.8927	20612.85	19754.95
807.6559	354.0895	20573.8	19707.55
807.7991	356.2856	20666.8	19804.2
807.9424	358.4812	20674.2	19813.15
808.0857	360.6763	20765.85	19898.7
808.2291	362.8707	20730.1	19866.85
808.3724	365.0646	20773.5	19911.2
808.5158	367.258	20801.95	19939.55
808.6591	369.4508	20828.55	19959.9
808.8025	371.643	20926.25	20054.5
808.9459	373.8346	20909.05	20037.8
809.0893	376.0257	20936.85	20064.8
809.2327	378.2162	20827.65	19952.05
809.3762	380.4062	20777.5	19904.65
809.5196	382.5956	20602.95	19735.35
809.6631	384.7844	20556.05	19691.05
809.8066	386.9726	20443.35	19584.3
809.9501	389.1603	20373.25	19513.25
810.0936	391.3474	20379	19492.35
810.2371	393.5339	20366.05	19497.75
810.3806	395.7199	20365.15	19499.35
810.5241	397.9052	20350.5	19488.1
810.6677	400.09	20413.35	19545.65
810.8113	402.2743	20492.3	19628.75
810.9548	404.4579	20575.4	19710.3
811.0984	406.641	20764.05	19897.45
811.2421	408.8235	20987.75	20121.2
811.3857	411.0054	21321	20452.35
811.5293	413.1868	21762.45	20886.7
811.673	415.3675	22086.9	21209
811.8166	417.5477	22347.2	21467.7
811.9603	419.7273	22371.85	21492.75
812.104	421.9064	22285.95	21399.35
812.2477	424.0848	22159.6	21281.4
812.3914	426.2627	21909.1	21028.8
812.5351	428.4399	21634.55	20754.35
812.6788	430.6166	21279.45	20391.25
812.8226	432.7928	20932.7	20046.05
812.9663	434.9683	20664.1	19783.4
813.1101	437.1432	20414.25	19534.35
813.2539	439.3176	20237.75	19364.1
813.3977	441.4914	20149.8	19275.6
813.5415	443.6645	20167.6	19289.15
813.6853	445.8371	20107.8	19224.25
813.8291	448.0091	20048.15	19168.95
813.973	450.1806	20003.65	19124.6
814.1168	452.3514	19964.2	19084.05
814.2607	454.5216	19969.2	19081.75
814.4046	456.6913	19889.35	19006.7
814.5485	458.8603	19938.75	19061.75
814.6924	461.0288	20011.9	19136.6
814.8363	463.1967	20039.8	19168.3
814.9802	465.3639	20182.2	19303.55
815.1241	467.5306	20307.7	19426.9
815.2681	469.6967	20449.05	19577.3
815.412	471.8622	20610.75	19735.6
815.556	474.0271	20790.85	19912.8
815.7	476.1914	20862.35	19976.7
815.844	478.3551	20853.35	19972.45
815.988	480.5182	20841.6	19962.4
816.132	482.6807	20840.55	19970.45
816.276	484.8426	21004.55	20140.25
816.4201	487.0039	21265.15	20391.8
816.5641	489.1647	21701.75	20820.3
816.7082	491.3248	22125.25	21243.45
816.8522	493.4843	22302.6	21426.1
816.9963	495.6432	22355.9	21480.35
817.1404	497.8015	22267.3	21380
817.2845	499.9592	22298.05	21402.5
817.4286	502.1163	22273.95	21380.25
817.5727	504.2728	22019.65	21133.95
817.7168	506.4287	21770.1	20894
817.861	508.5839	21348.45	20474.55
818.0051	510.7386	21033.7	20152.05
818.1493	512.8927	20876.75	19984.2
818.2935	515.0461	20783.1	19888.5
818.4377	517.199	20742.05	19849.05
818.5818	519.3512	20723.6	19830.9
818.726	521.5029	20815.6	19919.25
818.8703	523.6539	20896.2	20002.7
819.0145	525.8043	20992.05	20098.8
819.1587	527.9541	21006.85	20108.5
819.303	530.1033	21010.2	20116.35
819.4472	532.2519	21039.3	20141.85
819.5915	534.3999	21177.85	20281.65
819.7357	536.5472	21452.3	20555.8
819.88	538.694	21901.4	21012.05
820.0243	540.8401	22570.3	21676.45
820.1686	542.9856	23082.4	22178.95
820.3129	545.1305	23247	22334.55
820.4572	547.2748	23159.8	22246.4
820.6016	549.4185	22794.35	21877.05
820.7459	551.5615	22451.85	21538.95
820.8902	553.704	22317.15	21404.7
821.0346	555.8458	22268.6	21362.75
821.1789	557.987	22282.8	21380.95
821.3233	560.1276	22283.4	21377.2
821.4677	562.2675	22299.4	21394
821.6121	564.4069	22358.95	21452.8
821.7565	566.5456	22331.1	21431.85
821.9009	568.6837	22250.8	21346.6
822.0453	570.8212	21970.15	21068.2
822.1897	572.958	21673.35	20768.05
822.3342	575.0942	21410.9	20511.3
822.4786	577.2299	21243.7	20348.75
822.6231	579.3648	21205.75	20321.6
822.7675	581.4992	21278.65	20403.35
822.912	583.6329	21502.75	20630.6
823.0565	585.766	21751.15	20872.95
823.201	587.8985	21866.3	20981.25
823.3454	590.0304	21890.4	20980.75
823.4899	592.1616	21835	20931.7
823.6345	594.2922	21750.15	20843.2
823.779	596.4222	21599.55	20685.3
823.9235	598.5515	21455.25	20540.9
824.068	600.6802	21234.25	20323.1
824.2126	602.8083	21092.7	20183.75
824.3571	604.9358	21066.75	20160.95
824.5017	607.0626	21001.4	20090.35
824.6462	609.1888	20967.15	20051.15
824.7908	611.3144	20940.2	20020.85
824.9354	613.4393	20847.35	19927.85
825.08	615.5636	20764.3	19846.6
825.2246	617.6873	20641.45	19726.6
825.3692	619.8103	20664.35	19744.85
825.5138	621.9327	20580.35	19666.9
825.6584	624.0544	20512.2	19603.4
825.803	626.1756	20561.95	19650.7
825.9477	628.2961	20540.95	19626.65
826.0923	630.4159	20499.55	19584.2
826.237	632.5351	20425.7	19507.4
826.3816	634.6537	20394.25	19478.85
826.5263	636.7716	20403.4	19480.2
826.6709	638.8889	20428.8	19503.45
826.8156	641.0056	20496.35	19566.25
826.9603	643.1216	20452.75	19532.6
827.105	645.237	20497.95	19578.45
827.2497	647.3518	20485.6	19576
827.3944	649.4659	20549.2	19643.7
827.5391	651.5793	20575.7	19668.05
827.6838	653.6922	20554	19646.05
827.8285	655.8043	20618.05	19706.75
827.9733	657.9159	20605.55	19689.95
828.118	660.0268	20483.2	19568.25
828.2627	662.137	20451.2	19533.25
828.4075	664.2466	20443.1	19517.55
828.5522	666.3556	20477.45	19552.45
828.697	668.4639	20466.6	19546.8
828.8418	670.5716	20518.7	19607.7
828.9865	672.6786	20624.4	19708.1
829.1313	674.785	20647.45	19724.15
829.2761	676.8907	20709.1	19787.8
829.4209	678.9958	20810.65	19893.4
829.5657	681.1002	20781.25	19861.2
829.7105	683.204	20770.5	19839.3
829.8553	685.3072	20778.2	19850.65
830.0001	687.4097	20713.2	19790
830.1449	689.5115	20692	19766.8
830.2898	691.6127	20668.15	19744.95
830.4346	693.7132	20576.55	19656.1
830.5794	695.8131	20594.25	19655.1
830.7243	697.9123	20607.65	19678.9
830.8691	700.0109	20562.25	19632.55
831.014	702.1089	20566.65	19638.45
831.1588	704.2061	20565.3	19636.55
831.3037	706.3028	20629	19699.45
831.4486	708.3987	20663.6	19734.65
831.5935	710.4941	20750.5	19825.5
831.7383	712.5887	20975	20047.6
831.8832	714.6827	21265.95	20338.8
832.0281	716.7761	21637.4	20715.4
832.173	718.8688	22002.8	21075.9
832.3179	720.9608	22222.95	21287.75
832.4628	723.0522	22290.75	21353.9
832.6077	725.1429	22089.8	21159.5
832.7527	727.233	21849.2	20916.05
832.8976	729.3224	21590	20661.05
833.0425	731.4112	21312.1	20382.05
833.1874	733.4993	21154.7	20221.5
833.3324	735.5867	20984.65	20060.2
833.4773	737.6735	20892.6	19962.5
833.6222	739.7596	20854.9	19923.35
833.7672	741.845	20803.7	19877.5
833.9122	743.9298	20774.6	19843.8
834.0571	746.014	20823.35	19894.15
834.2021	748.0974	20839.5	19899.75
834.347	750.1802	20824.65	19884.85
834.492	752.2624	20830.25	19894.65
834.637	754.3439	20876.25	19936.25
834.782	756.4247	20963.95	20019
834.9269	758.5048	21063.75	20128.5
835.0719	760.5843	21282.15	20343.4
835.2169	762.6631	21585.5	20651.55
835.3619	764.7413	22025.15	21087.35
835.5069	766.8188	22592.4	21654.85
835.6519	768.8956	23028.95	22089.2
835.7969	770.9718	23359.95	22424.05
835.9419	773.0473	23225.5	22293.2
836.0869	775.1221	22929.75	21992.95
836.232	777.1962	22555.1	21621.55
836.377	779.2697	22366.9	21426.8
836.522	781.3426	22422.85	21465.45
836.667	783.4147	22678.65	21740.8
836.8121	785.4862	23014.85	22078
836.9571	787.557	22997.2	22057.45
837.1021	789.6271	22716.45	21779.15
837.2472	791.6966	22183.8	21245.2
837.3922	793.7654	21648.35	20708.95
837.5373	795.8335	21349.7	20411.75
837.6823	797.901	21169.5	20234.35
837.8274	799.9678	21134.8	20194.85
837.9724	802.0339	21149.45	20210.7
838.1175	804.0993	21228.2	20281.85
838.2626	806.1641	21209.15	20268.35
838.4076	808.2282	21204.5	20261.85
838.5527	810.2916	21100.35	20158.95
838.6978	812.3544	21025.45	20090.9
838.8428	814.4164	20935.6	20001.35
838.9879	816.4778	20983.25	20044.3
839.133	818.5385	20978.15	20034.95
839.2781	820.5986	21079.1	20135
839.4232	822.658	21192.25	20251.35
839.5682	824.7166	21264.2	20321.8
839.7133	826.7747	21503.2	20560.65
839.8584	828.832	21708.95	20765
840.0035	830.8886	21806.8	20860.7
840.1486	832.9446	21984.6	21040.75
840.2937	834.9999	22009.2	21062.25
840.4388	837.0545	22049.15	21100
840.5839	839.1085	22054.95	21112
840.729	841.1618	22053.05	21106
840.8741	843.2143	22010.35	21063.8
841.0192	845.2662	21967.15	21025.55
841.1643	847.3175	21900.95	20962
841.3095	849.368	21765	20818.65
841.4546	851.4179	21697.95	20757.05
841.5997	853.467	21517.3	20572.65
841.7448	855.5155	21482.9	20535.75
841.8899	857.5633	21381.1	20436.8
842.0351	859.6105	21285.05	20342.15
842.1802	861.6569	21224	20279.7
842.3253	863.7027	21197.3	20251.6
842.4704	865.7478	21177.35	20229.7
842.6156	867.7922	21193.5	20246.6
842.7607	869.8359	21263.6	20317.55
842.9058	871.8789	21398.55	20449.55
843.0509	873.9212	21573.85	20594.9
843.1961	875.9629	21713.15	20762.75
843.3412	878.0039	21934.15	20986.8
843.4863	880.0441	22046.35	21102.35
843.6315	882.0837	22075.65	21133.05
843.7766	884.1226	21976.05	21027.4
843.9218	886.1609	21850.55	20904.2
844.0669	888.1984	21808.7	20863.35
844.212	890.2352	21838.95	20894.2
844.3572	892.2714	21791.45	20838.25
844.5023	894.3069	21818.95	20869.45
844.6475	896.3416	21745.8	20794.95
844.7926	898.3757	21750.2	20799.45
844.9377	900.4091	21708.55	20757.3
845.0829	902.4418	21751.85	20795.4
845.228	904.4739	21769.25	20813.6
845.3732	906.5052	21799.35	20850.95
845.5183	908.5358	21727.5	20778.15
845.6635	910.5658	21570.5	20617.75
845.8086	912.595	21397.95	20447.25
845.9538	914.6236	21252.1	20302
846.0989	916.6515	21227.55	20277.25
846.2441	918.6786	21229.2	20277
846.3892	920.7051	21287.5	20334.8
846.5344	922.7309	21473.9	20523.85
846.6795	924.756	21462.05	20516.9
846.8246	926.7804	21600.15	20651.3
846.9698	928.8041	21464.85	20516.15
847.1149	930.8272	21546.45	20593.8
847.2601	932.8495	21506.65	20559.25
847.4052	934.8711	21445.65	20492.6
847.5504	936.892	21253.9	20301.75
847.6955	938.9123	21085.45	20134.85
847.8407	940.9318	21034.1	20081.6
847.9858	942.9506	20937.1	19987.25
848.131	944.9688	20844.1	19894.25
848.2761	946.9862	20797	19848.95
848.4213	949.003	20672.65	19720.2
848.5664	951.019	20690.8	19739.9
848.7115	953.0344	20735.7	19786
848.8567	955.0491	20736.35	19783.85
849.0018	957.063	20848.5	19898.2
849.147	959.0763	20988.15	20038.95
849.2921	961.0888	21005.95	20053.05
849.4373	963.1007	21152.8	20205
849.5824	965.1119	21215.25	20278.7
849.7275	967.1223	21255.2	20320.85
849.8727	969.1321	21258.85	20328.15
850.0178	971.1412	21306.2	20363.7
850.1629	973.1495	21291.45	20347.5
850.3081	975.1572	21414.9	20413.8
850.4532	977.1641	21415.65	20465.7
850.5983	979.1704	21381.8	20433.9
850.7435	981.1759	21390.1	20433.65
850.8886	983.1808	21439.3	20486.5
851.0337	985.1849	21538.65	20574.8
851.1788	987.1884	21666.95	20717.3
851.324	989.1911	21837	20882
851.4691	991.1932	21967.45	21017
851.6142	993.1945	21981.3	21033.35
851.7593	995.1951	21952.6	21002.75
851.9045	997.1951	21959.4	21001
852.0496	999.1943	21855	20905.2
852.1947	1001.1928	21786.45	20837.05
852.3398	1003.1906	21768	20817.05
852.4849	1005.1877	21858.05	20908.5
852.63	1007.1841	21785.55	20837.45
852.7751	1009.1798	21705.6	20758.45
852.9202	1011.1748	21530.55	20582.9
853.0653	1013.1691	21334	20385.45
853.2104	1015.1627	21106.25	20159.6
853.3555	1017.1556	20846.55	19897.75
853.5006	1019.1477	20767.2	19823
853.6457	1021.1392	20669.3	19724.5
853.7908	1023.1299	20659.65	19722.5
853.9359	1025.12	20658.55	19726
854.081	1027.1093	20688	19768.25
854.2261	1029.0979	20794.2	19875.55
854.3712	1031.0859	20848.9	19924.65
854.5163	1033.0731	20841.25	19906.6
854.6613	1035.0596	20734.45	19793.95
854.8064	1037.0454	20576.25	19630.7
854.9515	1039.0304	20455.4	19509.55
855.0965	1041.0148	20335.65	19388.2
855.2416	1042.9985	20257.65	19306.25
855.3867	1044.9814	20232.7	19286.35
855.5317	1046.9636	20161.35	19212.6
855.6768	1048.9452	20103.1	19162.35
855.8219	1050.926	20173.95	19226.05
855.9669	1052.9061	20145.75	19198.75
856.112	1054.8855	20153.9	19205.95
856.257	1056.8642	20186.2	19238.65
856.4021	1058.8421	20270.75	19317.15
856.5471	1060.8194	20263.4	19313.75
856.6921	1062.7959	20338.3	19388.8
856.8372	1064.7717	20313.25	19365.5
856.9822	1066.7469	20342.85	19393.35
857.1272	1068.7213	20332.3	19378.6
857.2723	1070.695	20382.9	19439.4
857.4173	1072.6679	20225.55	19276.3
857.5623	1074.6402	20262.95	19316
857.7073	1076.6117	20239.5	19285.5
857.8523	1078.5826	20221.3	19268
857.9973	1080.5527	20231.45	19284.3
858.1423	1082.5221	20287.65	19341.7
858.2873	1084.4908	20479.25	19532
858.4323	1086.4587	20677.05	19729.1
858.5773	1088.426	20817.95	19866.7
858.7223	1090.3925	20794.85	19842.95
858.8673	1092.3584	20756.55	19810.2
859.0123	1094.3235	20567.95	19623.8
859.1573	1096.2879	20537.85	19589.25
859.3022	1098.2515	20523.65	19578
859.4472	1100.2145	20581.5	19630.7
859.5922	1102.1767	20668.95	19722.8
859.7371	1104.1382	20814.8	19868.75
859.8821	1106.099	21037.95	20086.4
860.027	1108.0591	21191.75	20247.1
860.172	1110.0185	21344.45	20394.15
860.3169	1111.9771	21350.9	20403.55
860.4619	1113.9351	21145.7	20194.7
860.6068	1115.8923	20854.9	19908.8
860.7517	1117.8488	20595.45	19647.65
860.8967	1119.8045	20282.15	19336.75
861.0416	1121.7596	20171.3	19226.1
861.1865	1123.7139	20087.85	19144.8
861.3314	1125.6675	20087.85	19140.7
861.4763	1127.6204	20160.45	19213.7
861.6212	1129.5726	20134.25	19182.2
861.7661	1131.524	20145.1	19201.9
861.911	1133.4748	20135	19189.75
862.0559	1135.4248	20104.3	19155.55
862.2008	1137.3741	20108.8	19164
862.3457	1139.3226	20061.35	19113.85
862.4905	1141.2705	20049.05	19101.6
862.6354	1143.2176	19884.6	18929.55
862.7803	1145.164	19936.7	18989.05
862.9251	1147.1097	19942.7	18995.5
863.07	1149.0546	19970.8	19023.5
863.2148	1150.9989	19866.55	18916.8
863.3597	1152.9424	19743.25	18795.85
863.5045	1154.8852	19595.75	18648.85
863.6493	1156.8272	19391.3	18446.85
863.7942	1158.7686	19431.5	18480.35
863.939	1160.7092	19377.9	18431.3
864.0838	1162.6491	19378.5	18430.7
864.2286	1164.5883	19415.6	18466.7
864.3734	1166.5267	19493.7	18546
864.5182	1168.4644	19637.25	18692.45
864.663	1170.4014	19813.7	18864.1
864.8078	1172.3377	20068.55	19126.65
864.9526	1174.2732	20296.15	19355.35
865.0974	1176.2081	20548.3	19604.15
865.2421	1178.1421	20746.3	19796.2
865.3869	1180.0755	20979.65	20034.75
865.5317	1182.0082	21024.95	20082.6
865.6764	1183.9401	21073.9	20131.55
865.8212	1185.8713	20881.5	19944.05
865.9659	1187.8017	20669	19739.55
866.1106	1189.7315	20392.75	19470.05
866.2554	1191.6605	20080.1	19156.95
866.4001	1193.5888	19847.8	18922.8
866.5448	1195.5163	19730.2	18794.5
866.6895	1197.4432	19671.7	18733.3
866.8342	1199.3693	19613.1	18673.45
866.9789	1201.2947	19569.6	18618.5
867.1236	1203.2193	19513.6	18571
867.2683	1205.1432	19499.25	18557.9
867.413	1207.0664	19541.95	18598.15
867.5576	1208.9889	19552.8	18606
867.7023	1210.9106	19567.3	18622.9
867.847	1212.8316	19641.9	18699.5
867.9916	1214.7519	19685.7	18732.25
868.1363	1216.6715	19685.2	18745
868.2809	1218.5903	19702.35	18760
868.4255	1220.5084	19630.75	18688
868.5701	1222.4257	19650.45	18708
868.7148	1224.3424	19577.4	18638.2
868.8594	1226.2583	19605.3	18661.5
869.004	1228.1735	19685.05	18741.2
869.1486	1230.0879	19730.5	18791.2
869.2932	1232.0016	19864.9	18923.4
869.4377	1233.9146	19916.7	18976.55
869.5823	1235.8269	19818.6	18876.15
869.7269	1237.7384	19697	18757.2
869.8715	1239.6492	19460.15	18521.95
870.016	1241.5592	19365.75	18426.15
870.1606	1243.4686	19266.75	18323.75
870.3051	1245.3772	19240.75	18303.2
870.4496	1247.285	19216.6	18277
870.5941	1249.1922	19189.15	18253.5
870.7387	1251.0986	19158.1	18218.95
870.8832	1253.0042	19160.3	18220.95
871.0277	1254.9092	19186.45	18245.65
871.1722	1256.8134	19281.6	18346.4
871.3167	1258.7169	19425.15	18485.9
871.4611	1260.6196	19539.3	18601.1
871.6056	1262.5216	19736.25	18793.45
871.7501	1264.4229	19884.7	18945.7
871.8945	1266.3234	20045.9	19108
872.039	1268.2232	20101.5	19162.1
872.1834	1270.1223	20087.45	19146.45
872.3278	1272.0207	20086.45	19143.4
872.4723	1273.9183	20032.25	19082.4
872.6167	1275.8151	19919.35	18979.95
872.7611	1277.7113	19864.35	18923.25
872.9055	1279.6067	19717.1	18778.25
873.0499	1281.5014	19634.85	18692.9
873.1943	1283.3953	19559.45	18620.05
873.3386	1285.2885	19552.75	18619.25
873.483	1287.181	19598.9	18661.45
873.6274	1289.0727	19683.45	18748.4
873.7717	1290.9637	19744.3	18804.05
873.9161	1292.854	19910.9	18972.7
874.0604	1294.7435	20010.7	19073.2
874.2047	1296.6323	20182.65	19243.9
874.349	1298.5204	20436.8	19495.45
874.4933	1300.4077	20626.25	19683.3
874.6376	1302.2943	20755.55	19818.6
874.7819	1304.1802	20792.55	19851.75
874.9262	1306.0653	20669.65	19731
875.0705	1307.9497	20501.7	19562.5
875.2147	1309.8333	20343.55	19406
875.359	1311.7162	20219.8	19284.3
875.5032	1313.5984	20230	19286.85
875.6475	1315.4798	20253.3	19302.5
875.7917	1317.3605	20334.95	19378.2
875.9359	1319.2405	20377.25	19437.65
876.0801	1321.1197	20322.25	19379.55
876.2243	1322.9982	20184.45	19240.5
876.3685	1324.876	20126.9	19187.4
876.5127	1326.753	20035.95	19097.5
876.6569	1328.6293	20026.65	19086.55
876.801	1330.5048	20047.55	19106.15
876.9452	1332.3796	19951.7	19013.8
877.0893	1334.2537	19910	18947.6
877.2335	1336.127	19864.35	18925.6
877.3776	1337.9996	19830.9	18895.75
877.5217	1339.8714	19768.05	18829.35
877.6658	1341.7426	19722.65	18735.5
877.8099	1343.6129	19685.2	18744.65
877.954	1345.4826	19616.7	18676.45
878.0981	1347.3515	19639.25	18695.15
878.2422	1349.2196	19599.9	18659.8
878.3862	1351.087	19548.55	18605
878.5303	1352.9537	19594.05	18652.5
878.6743	1354.8197	19697.2	18756.75
878.8184	1356.6849	19838.6	18901.4
878.9624	1358.5493	19927.5	18988.15
879.1064	1360.4131	19952.9	19013.55
879.2504	1362.276	19872.95	18936.65
879.3944	1364.1383	19721.45	18786.35
879.5384	1365.9998	19488.3	18544.35
879.6823	1367.8606	19188.2	18250.75
879.8263	1369.7206	18846.05	17907.7
879.9702	1371.5799	18637.3	17692.9
880.1142	1373.4384	18483.35	17546.05
880.2581	1375.2962	18327.3	17388.15
880.402	1377.1533	18023.05	17086.1
880.5459	1379.0096	17698.45	16766.4
880.6898	1380.8652	17410	16477.3
880.8337	1382.7201	17129.4	16194.5
880.9776	1384.5742	16893.35	15955.95
881.1215	1386.4275	16723.4	15785.4
881.2653	1388.2802	16551.45	15613.4
881.4092	1390.132	16442.4	15500.9
881.553	1391.9832	16404.95	15465.9
881.6968	1393.8336	16265.8	15328.05
881.8406	1395.6832	16208.85	15270.7
881.9844	1397.5322	16148.3	15212.15
882.1282	1399.3803	16117.05	15177
882.272	1401.2278	16035.2	15097.15
882.4158	1403.0745	16028.3	15093.55
882.5595	1404.9204	15950.25	15017.15
882.7033	1406.7656	16007.2	15071.7
882.847	1408.6101	15947.1	15007.3
882.9908	1410.4538	15953.25	15018.75
883.1345	1412.2968	15970.95	15034.35
883.2782	1414.139	15991.15	15055.25
883.4219	1415.9805	16050.8	15114.35
883.5656	1417.8213	16098.45	15154.95
883.7092	1419.6613	16155.35	15222.5
883.8529	1421.5006	16355.1	15416.95
883.9965	1423.3391	16605.8	15669.05
884.1402	1425.1769	16888.05	15951.75
884.2838	1427.0139	17371.35	16436.7
884.4274	1428.8502	17920.3	16981.5
884.571	1430.6858	18494.2	17560.15
884.7146	1432.5206	18872.5	17938.55
884.8582	1434.3547	19081.9	18150.25
885.0018	1436.188	19093.55	18158.4
885.1453	1438.0206	19009.55	18074.6
885.2889	1439.8524	18831.85	17899.35
885.4324	1441.6835	18757.45	17823
885.5759	1443.5139	18600.35	17662
885.7194	1445.3435	18511.5	17580.05
885.8629	1447.1724	18465.75	17536.95
886.0064	1449.0005	18388.75	17456.95
886.1499	1450.8279	18245.3	17309.3
886.2933	1452.6545	18248.05	17314.5
886.4368	1454.4804	18246.7	17316.35
886.5802	1456.3056	18228.6	17287.9
886.7237	1458.13	18148.1	17215.75
886.8671	1459.9536	17921.85	16990.55
887.0105	1461.7766	17555.25	16623.15
887.1539	1463.5987	17138.6	16202.4
887.2972	1465.4202	16756.6	15824.3
887.4406	1467.2409	16361	15428.15
887.584	1469.0608	16146.3	15212.45
887.7273	1470.88	15838.9	14904.2
887.8706	1472.6984	15634.15	14703.2
888.0139	1474.5161	15374.8	14438.3
888.1572	1476.3331	15185.5	14254.1
888.3005	1478.1493	15057.55	14125.75
888.4438	1479.9648	15004.7	14074.05
888.5871	1481.7795	14880.1	13943.35
888.7303	1483.5935	14807.05	13874.25
888.8736	1485.4067	14715.4	13780.9
889.0168	1487.2192	14678.95	13744.9
889.16	1489.031	14629.25	13693.15
889.3032	1490.842	14547.4	13617.55
889.4464	1492.6522	14522.9	13593.6
889.5896	1494.4618	14465.2	13533.7
889.7327	1496.2705	14418.6	13485.8
889.8759	1498.0785	14379.95	13447.7
890.019	1499.8858	14330.05	13397
890.1622	1501.6924	14301.2	13370.6
890.3053	1503.4981	14297.1	13364.35
890.4484	1505.3032	14227.95	13296.55
890.5914	1507.1075	14183.2	13249.35
890.7345	1508.911	14129.65	13198.9
890.8776	1510.7138	14077.05	13147.15
891.0206	1512.5159	14012.9	13082.4
891.1637	1514.3172	13981.1	13052.85
891.3067	1516.1178	13886.2	12955
891.4497	1517.9176	13870.65	12938.65
891.5927	1519.7166	13798.7	12870.85
891.7357	1521.515	13765.55	12831.8
891.8786	1523.3126	13736.65	12809
892.0216	1525.1094	13676.05	12746.8
892.1645	1526.9055	13650.1	12721.2
892.3074	1528.7008	13605.05	12674.45
892.4503	1530.4954	13519.45	12589.85
892.5932	1532.2893	13490.8	12566.65
892.7361	1534.0824	13403.45	12473.85
892.879	1535.8747	13438	12513.4
893.0218	1537.6663	13398.5	12474.05
893.1647	1539.4572	13318.4	12394.85
893.3075	1541.2473	13339.2	12415.65
893.4503	1543.0367	13280.7	12358.2
893.5931	1544.8253	13279.15	12347.95
893.7359	1546.6132	13270.4	12341.2
893.8787	1548.4003	13230.05	12294.15
894.0214	1550.1867	13259.9	12327.9
894.1642	1551.9723	13265.8	12337.5
894.3069	1553.7572	13261.7	12339.55
894.4496	1555.5414	13290.35	12367.25
894.5923	1557.3247	13310.35	12390.6
894.735	1559.1074	13361.15	12444.45
894.8777	1560.8893	13410.2	12489.6
895.0204	1562.6705	13466.4	12549.25
895.163	1564.4509	13559.05	12639.8
895.3056	1566.2305	13555.4	12642.4
895.4482	1568.0094	13624.15	12711.7
895.5908	1569.7876	13648.25	12733.85
895.7334	1571.565	13668.35	12754.7
895.876	1573.3417	13690.15	12772.25
896.0186	1575.1176	13639.85	12723.95
896.1611	1576.8928	13570.75	12659.75
896.3036	1578.6672	13463.45	12557.1
896.4461	1580.4409	13353.95	12448.3
896.5886	1582.2138	13236.85	12325.1
896.7311	1583.986	13138.9	12226.65
896.8736	1585.7575	13046.95	12132.25
897.0161	1587.5282	12962.25	12051.8
897.1585	1589.2981	12926.8	12019.65
897.3009	1591.0673	12898.9	11991.9
897.4433	1592.8358	12859.7	11950.4
897.5857	1594.6035	12859.9	11946.75
897.7281	1596.3704	12863.4	11947.6
897.8705	1598.1366	12845.55	11933.85
898.0128	1599.9021	12911.7	12004.65
898.1551	1601.6668	12931.8	12020.35
898.2975	1603.4308	12983	12070.45
898.4398	1605.194	13078.6	12161.4
898.5821	1606.9564	13162.6	12259.75
898.7243	1608.7182	13292.4	12392.4
898.8666	1610.4791	13406.15	12509.95
899.0088	1612.2394	13547.25	12653.6
899.1511	1613.9988	13714.3	12817.4
899.2933	1615.7576	13916.2	13012.6
899.4355	1617.5156	14149.6	13233.75
899.5776	1619.2728	14300.4	13386
899.7198	1621.0293	14404.2	13493.7
899.862	1622.785	14405.85	13495.4
900.0041	1624.54	14327.7	13422.15
900.1462	1626.2942	14175.2	13273
900.2883	1628.0477	13874.3	12972.65
900.4304	1629.8005	13637.2	12733.1
900.5725	1631.5525	13432	12530.05
900.7145	1633.3037	13203.45	12299.85
900.8566	1635.0542	13034.5	12131.1
900.9986	1636.804	12953.6	12050.45
901.1406	1638.553	12916.85	11934.05
901.2826	1640.3013	12827.1	11923.4
901.4245	1642.0488	12782.8	11877.25
901.5665	1643.7955	12800.55	11900.6
901.7085	1645.5416	12805.2	11904.8
901.8504	1647.2868	12891.5	11989.95
901.9923	1649.0313	12979.9	12076.05
902.1342	1650.7751	13117.65	12209.8
902.2761	1652.5181	13276.3	12372.4
902.4179	1654.2604	13413.15	12511.2
902.5598	1656.0019	13684.15	12784.45
902.7016	1657.7427	13982.55	13079.55
902.8434	1659.4828	14276.05	13373.1
902.9852	1661.222	14429.8	13525.7
903.127	1662.9606	14387.2	13481.3
903.2687	1664.6984	14186.2	13277.95
903.4105	1666.4354	13819.9	12910.55
903.5522	1668.1717	13321.9	12412.6
903.6939	1669.9072	12782	11872.1
903.8356	1671.642	12398	11489.95
903.9773	1673.3761	12019.35	11113.6
904.119	1675.1094	11742.8	10840
904.2606	1676.8419	11483.8	10581.5
904.4022	1678.5737	11313.35	10407.2
904.5439	1680.3048	11197.75	10290.65
904.6855	1682.0351	11048.05	10140.85
904.827	1683.7646	10942.15	10033.25
904.9686	1685.4934	10859.3	9953.15
905.1101	1687.2215	10770.65	9869.2
905.2517	1688.9488	10707.9	9806.75
905.3932	1690.6754	10627.85	9726.9
905.5347	1692.4012	10602.1	9698.35
905.6761	1694.1263	10538.1	9632
905.8176	1695.8506	10497.5	9594.5
905.9591	1697.5742	10443.1	9544.45
906.1005	1699.297	10391.6	9494.4
906.2419	1701.0191	10325.9	9431.1
906.3833	1702.7404	10289.65	9391.4
906.5246	1704.461	10225.45	9325.55
906.666	1706.1808	10200.65	9298.35
906.8073	1707.8999	10161.25	9262.25
906.9487	1709.6182	10116.85	9220.05
907.09	1711.3358	10074.5	9180.35
907.2313	1713.0527	10018.2	9124.5
907.3725	1714.7688	9992	9090.15
907.5138	1716.4841	9947.25	9048.6
907.655	1718.1987	9943.75	9039.2
907.7962	1719.9126	9883.7	8988.6
907.9374	1721.6257	9853.8	8961.25
908.0786	1723.338	9834.4	8942.5
908.2198	1725.0496	9755.6	8860.4
908.3609	1726.7605	9745.2	8848.5
908.502	1728.4706	9715.45	8817.6
908.6431	1730.18	9661.85	8767.2
908.7842	1731.8886	9660.85	8766.35
908.9253	1733.5964	9624.25	8723.65
909.0664	1735.3036	9572.55	8675.5
909.2074	1737.0099	9570.5	8675.55
909.3484	1738.7156	9550.3	8657.85
909.4894	1740.4204	9495.85	8598.25
909.6304	1742.1246	9460.2	8561.2
909.7714	1743.8279	9463.7	8568.65
909.9123	1745.5306	9413.25	8520
910.0532	1747.2325	9370.4	8476.3
910.1941	1748.9336	9349.15	8453.85
910.335	1750.634	9319	8419.25
910.4759	1752.3336	9294.1	8400.9
910.6168	1754.0325	9292.6	8401.6
910.7576	1755.7307	9257.6	8366.95
910.8984	1757.4281	9250.1	8356.5
911.0392	1759.1247	9222.1	8317.75
911.18	1760.8206	9199.2	8295.9
911.3208	1762.5158	9200.35	8298.1
911.4615	1764.2102	9158.8	8264
911.6022	1765.9039	9128.4	8234.1
911.7429	1767.5968	9080	8187.8
911.8836	1769.289	9066.2	8176.45
912.0243	1770.9804	9037.9	8140.35
912.1649	1772.6711	9029	8128.7
912.3056	1774.361	9004.45	8106.55
912.4462	1776.0502	8976.15	8077.4
912.5868	1777.7386	8984.35	8089
912.7274	1779.4263	8925.1	8032.75
912.8679	1781.1132	8890.3	8001.05
913.0084	1782.7994	8871.65	7980.7
913.149	1784.4849	8871.75	7983.8
913.2895	1786.1696	8838.05	7941.35
913.4299	1787.8535	8821.2	7933
913.5704	1789.5367	8795	7908.2
913.7108	1791.2192	8775.5	7887.05
913.8513	1792.9009	8774.25	7855.5
913.9917	1794.5818	8745.55	7849.85
914.132	1796.2621	8728.15	7836.3
914.2724	1797.9415	8699	7804.85
914.4128	1799.6202	8675	7782.85
914.5531	1801.2982	8663.5	7767.4
914.6934	1802.9755	8610.3	7714.15
914.8337	1804.6519	8617.05	7719.55
914.9739	1806.3277	8574.05	7680.6
915.1142	1808.0027	8534.85	7647.5
915.2544	1809.6769	8536.1	7647.65
915.3946	1811.3504	8520.15	7630.7
915.5348	1813.0231	8479.65	7589.9
915.675	1814.6951	8477.85	7589.1
915.8151	1816.3664	8467.6	7574.3
915.9553	1818.0369	8461.75	7566.55
916.0954	1819.7067	8405.55	7514.5
916.2355	1821.3757	8383.2	7487.95
916.3755	1823.044	8378.75	7485
916.5156	1824.7115	8380.7	7486.3
916.6556	1826.3783	8316.7	7424.95
916.7956	1828.0443	8327.25	7434.5
916.9356	1829.7096	8276.35	7383.55
917.0756	1831.3741	8286.35	7390.05
917.2155	1833.0379	8257.45	7367.9
917.3555	1834.701	8244.1	7355.4
917.4954	1836.3633	8224.35	7336.95
917.6353	1838.0248	8193.7	7303.5
917.7751	1839.6856	8177.6	7286.95
917.915	1841.3457	8145.9	7255.85
918.0548	1843.005	8158.25	7267.05
918.1946	1844.6636	8154.05	7263.4
918.3344	1846.3214	8123	7228.25
918.4742	1847.9785	8125.25	7234.2
918.6139	1849.6349	8103.9	7208.3
918.7537	1851.2904	8069.95	7166.7
918.8934	1852.9453	8041.75	7145.55
919.0331	1854.5994	8013.75	7116.6
919.1727	1856.2528	8063.95	7164.7
919.3124	1857.9054	8024.95	7129.95
919.452	1859.5572	8007.15	7116.7
919.5916	1861.2083	7981.5	7088.95
919.7312	1862.8587	7979.4	7085.7
919.8708	1864.5084	7964.95	7069.05
920.0103	1866.1572	7931.85	7037.35
920.1498	1867.8054	7913.15	7018.95
920.2893	1869.4528	7903.9	7007.75
920.4288	1871.0994	7858.5	6963.45
920.5683	1872.7453	7825.8	6930.25
920.7077	1874.3905	7826.55	6912.9
920.8471	1876.0349	7810.35	6916.25
920.9865	1877.6786	7798.95	6903
921.1259	1879.3215	7797.6	6904.85
921.2653	1880.9637	7766.25	6874.75
921.4046	1882.6051	7761.3	6869.3
921.5439	1884.2458	7715.65	6824.9
921.6832	1885.8858	7691.5	6800.25
921.8225	1887.525	7673.85	6779.35
921.9617	1889.1634	7641.25	6748.25
922.101	1890.8011	7628.3	6733.75
922.2402	1892.4381	7601.35	6707.7
922.3794	1894.0743	7598.3	6705
922.5185	1895.7098	7580.25	6688.1
922.6577	1897.3446	7590.2	6694.95
922.7968	1898.9786	7551.75	6655.2
922.9359	1900.6118	7543.8	6651.85
923.075	1902.2443	7514.7	6623.5
923.214	1903.8761	7486.15	6593.45
923.3531	1905.5071	7466.1	6574.25
923.4921	1907.1374	7439.75	6548.7
923.6311	1908.7669	7408.75	6517.25
923.77	1910.3957	7406.6	6515.6
923.909	1912.0237	7360.2	6468.65
924.0479	1913.651	7357	6461.85
924.1868	1915.2776	7318.2	6427.5
924.3257	1916.9034	7300.8	6409.05
924.4646	1918.5285	7266.15	6375.5
924.6034	1920.1528	7225.95	6334.7
924.7422	1921.7764	7240.25	6348.6
924.881	1923.3992	7212.9	6322.85
925.0198	1925.0213	7158.85	6268.35
925.1586	1926.6427	7144.05	6254.4
925.2973	1928.2633	7223.05	6232.45
925.436	1929.8832	7123.6	6228.85
925.5747	1931.5023	7077.4	6185.7
925.7134	1933.1207	7068.65	6176.4
925.852	1934.7383	7041.5	6149.5
925.9906	1936.3552	7011.55	6123.55
926.1292	1937.9714	7015	6124.4
926.2678	1939.5868	6971.75	6081.2
926.4064	1941.2015	6952.6	6060.8
926.5449	1942.8154	6910.1	6015.95
926.6834	1944.4286	6901.45	6007.45
926.8219	1946.041	6910.3	5997
926.9604	1947.6528	6859.4	5965.1
927.0988	1949.2637	6842.1	5951.9
927.2372	1950.8739	6800.4	5909.9
927.3756	1952.4834	6800.95	5909.6
927.514	1954.0921	6778.95	5886.15
927.6523	1955.7001	6753.75	5859.75
927.7907	1957.3074	6732.4	5846.6
927.929	1958.9139	6700.85	5814.2
928.0673	1960.5197	6694.15	5806.65
928.2055	1962.1247	6662.65	5774.75
928.3438	1963.729	6649.15	5764.55
928.482	1965.3325	6615.4	5724.45
928.6202	1966.9353	6578	5692.35
928.7584	1968.5374	6556	5668.45
928.8965	1970.1387	6539.95	5652.5
929.0346	1971.7393	6508.95	5622.6
929.1727	1973.3392	6516.8	5630
929.3108	1974.9383	6495.6	5612.25
929.4489	1976.5366	6451.95	5569.05
929.5869	1978.1342	6445.25	5560.65
929.7249	1979.7311	6441.7	5556.75
929.8629	1981.3273	6409.8	5523.45
930.0009	1982.9227	6384.65	5498.65
930.1388	1984.5173	6373.6	5491.05
930.2767	1986.1112	6344.6	5459.95
930.4146	1987.7044	6338.2	5456.3
930.5525	1989.2968	6306.55	5419.9
930.6904	1990.8885	6325.3	5437.05
930.8282	1992.4795	6283.15	5400.3
930.966	1994.0697	6266.55	5385.8
931.1038	1995.6592	6232.9	5347.55
931.2415	1997.2479	6230.65	5347.8
931.3793	1998.8359	6207.9	5325.65
931.517	2000.4232	6195.95	5319.25
931.6547	2002.0097	6164.5	5287.9
931.7923	2003.5955	6148.55	5270.9
931.93	2005.1805	6143.05	5262.05
932.0676	2006.7648	6120.55	5242.45
932.2052	2008.3484	6113.3	5232.6
932.3427	2009.9312	6109.25	5231.3
932.4803	2011.5133	6083.95	5206.9
932.6178	2013.0946	6078.05	5197.6
932.7553	2014.6752	6053	5174.45
932.8928	2016.2551	6044	5164.3
933.0302	2017.8342	6010.1	5128.2
933.1676	2019.4126	5988.65	5112
933.305	2020.9902	5981.25	5104.05
933.4424	2022.5672	5942.95	5064.65
933.5798	2024.1433	5937.35	5055.85
933.7171	2025.7188	5920.4	5045.65
933.8544	2027.2935	5899.8	5019.8
933.9917	2028.8674	5864.95	4990.35
934.129	2030.4406	5866.75	4993
934.2662	2032.0131	5848.1	4972.4
934.4034	2033.5849	5825.25	4941.65
934.5406	2035.1559	5820.5	4944.7
934.6778	2036.7261	5832.8	4953.15
934.8149	2038.2957	5790.65	4908.75
934.952	2039.8645	5793.3	4911.6
935.0891	2041.4325	5777.85	4894.5
935.2262	2042.9998	5752.3	4872.3
935.3632	2044.5664	5748.45	4866.35
935.5002	2046.1323	5743.05	4865.1
935.6372	2047.6974	5725.3	4847.4
935.7742	2049.2617	5688.3	4811.7
935.9111	2050.8254	5696.5	4810.05
936.048	2052.3883	5697.3	4811.35
936.1849	2053.9504	5663.55	4779.3
936.3218	2055.5118	5645.3	4755.75
936.4586	2057.0725	5608.6	4716.5
936.5955	2058.6325	5599.2	4711.4
936.7323	2060.1917	5608.65	4719.5
936.869	2061.7502	5605.1	4711.5
937.0058	2063.3079	5575.5	4680.85
937.1425	2064.8649	5547.15	4647.55
937.2792	2066.4212	5534.85	4634.75
937.4159	2067.9767	5519.05	4620.15
937.5525	2069.5315	5508.1	4611.6
937.6891	2071.0856	5476.8	4584
937.8257	2072.6389	5457.65	4568.95
937.9623	2074.1915	5455.7	4575.05
938.0989	2075.7433	5417.05	4532.4
938.2354	2077.2945	5409.5	4528.15
938.3719	2078.8448	5393.45	4508.1
938.5084	2080.3945	5373.85	4491.45
938.6448	2081.9434	5371.75	4489.85
938.7812	2083.4916	5364.9	4480.05
938.9176	2085.039	5338.85	4451.05
939.054	2086.5857	5337.35	4447.75
939.1903	2088.1317	5326.6	4437.45
939.3267	2089.677	5334.1	4445.15
939.463	2091.2215	5300.5	4410.4
939.5992	2092.7652	5288.2	4397.45
939.7355	2094.3083	5265.15	4376.65
939.8717	2095.8506	5270.45	4382.15
940.0079	2097.3921	5262.3	4377.95
940.1441	2098.933	5246.5	4362.65
940.2802	2100.4731	5228.35	4344.95
940.4163	2102.0124	5241.9	4338.35
940.5524	2103.5511	5211.35	4326.75
940.6885	2105.089	5211.4	4328.05
940.8245	2106.6261	5198.85	4315.15
940.9606	2108.1626	5185	4300.35
941.0965	2109.6983	5190.2	4280.5
941.2325	2111.2332	5156.9	4271.1
941.3684	2112.7675	5135.3	4250.3
941.5044	2114.301	5119.35	4232.25
941.6403	2115.8337	5115.3	4228.75
941.7761	2117.3657	5108	4225.45
941.912	2118.897	5090.6	4203.25
942.0478	2120.4276	5083.85	4191.9
942.1835	2121.9575	5070.8	4184.6
942.3193	2123.4866	5065.15	4166
942.455	2125.0149	5053.05	4165.55
942.5907	2126.5426	5016.35	4136.65
942.7264	2128.0695	4985.05	4101.45
942.8621	2129.5956	4991.85	4113.55
942.9977	2131.1211	4988.2	4103.95
943.1333	2132.6458	4987.5	4106.05
943.2689	2134.1698	4962.65	4077.05
943.4044	2135.693	4961.45	4070.45
943.54	2137.2155	4945.5	4057.7
943.6755	2138.7373	4933.8	4047.6
943.8109	2140.2584	4906.35	4023.8
943.9464	2141.7787	4895.55	4013.2
944.0818	2143.2983	4875.6	3998.5
944.2172	2144.8171	4864.2	3987.9
944.3526	2146.3353	4848.15	3965.9
944.4879	2147.8527	4836.65	3955.95
944.6232	2149.3693	4844.25	3959.9
944.7585	2150.8853	4826.4	3939.35
944.8938	2152.4005	4799.85	3912.95
945.029	2153.9149	4805.75	3919.2
945.1642	2155.4287	4755.35	3867.15
945.2994	2156.9417	4788	3902.15
945.4346	2158.454	4763.2	3879.6
945.5697	2159.9655	4755.45	3875.45
945.7048	2161.4764	4745	3862.9
945.8399	2162.9865	4736.8	3854.45
945.9749	2164.4958	4709.2	3830.15
946.1099	2166.0045	4691.15	3807.15
946.2449	2167.5124	4688.9	3804.9
946.3799	2169.0195	4683.95	3799.35
946.5148	2170.526	4681.9	3798.75
946.6498	2172.0317	4677.05	3792.65
946.7846	2173.5367	4661.3	3776.25
946.9195	2175.0409	4617.8	3735.8
947.0543	2176.5445	4621.25	3737.45
947.1891	2178.0473	4615.05	3726.75
947.3239	2179.5494	4614.65	3725.2
947.4587	2181.0507	4581.3	3697.4
947.5934	2182.5513	4586.45	3702.5
947.7281	2184.0512	4574.5	3689.8
947.8628	2185.5504	4562.3	3676.2
947.9974	2187.0488	4530.75	3650.2
948.132	2188.5465	4529.3	3648.55
948.2666	2190.0435	4509.7	3626.8
948.4012	2191.5397	4514.5	3629.75
948.5357	2193.0353	4490.05	3603.8
948.6702	2194.5301	4474.65	3586.6
948.8047	2196.0241	4479.5	3590.55
948.9392	2197.5175	4458.9	3570.85
949.0736	2199.0101	4449.35	3558.65
949.208	2200.502	4409.3	3524.1
949.3424	2201.9931	4419.3	3534.9
949.4767	2203.4835	4389.8	3506.4
949.611	2204.9733	4399.05	3512.7
949.7453	2206.4622	4385.85	3506.15
949.8796	2207.9505	4362.55	3478.65
950.0138	2209.438	4333.75	3456
950.148	2210.9248	4325.35	3443.2
950.2822	2212.4109	4316.95	3433.35
950.4164	2213.8962	4298.1	3407.9
950.5505	2215.3809	4316.6	3426.2
950.6846	2216.8648	4312.95	3423.6
950.8186	2218.3479	4312.7	3419.05
950.9527	2219.8304	4287.35	3394.25
951.0867	2221.3121	4275	3384.9
951.2207	2222.7931	4248.95	3359.5
951.3546	2224.2733	4225	3337.35
951.4886	2225.7529	4216.4	3330.75
951.6225	2227.2317	4220.95	3334.65
951.7563	2228.7098	4195.6	3315.35
951.8902	2230.1872	4176.95	3298.7
952.024	2231.6638	4164.7	3285.65
952.1578	2233.1397	4166.2	3279.85
952.2916	2234.6149	4140.5	3260.05
952.4253	2236.0894	4123.2	3240.35
952.559	2237.5632	4136.25	3243.25
952.6927	2239.0362	4112.35	3228.9
952.8263	2240.5085	4107.4	3222.9
952.9599	2241.9801	4106.6	3219.5
953.0935	2243.4509	4094.05	3204.9
953.2271	2244.921	4088.5	3199.65
953.3606	2246.3904	4074.1	3184.75
953.4941	2247.8591	4056.3	3171.15
953.6276	2249.3271	4042.75	3155
953.7611	2250.7943	4021	3131.3
953.8945	2252.2608	4015.8	3127.65
954.0279	2253.7266	4012.7	3126.1
954.1612	2255.1917	3999.15	3114.9
954.2946	2256.656	3986.8	3103.3
954.4279	2258.1197	3961.3	3078.9
954.5612	2259.5826	3969.85	3085.55
954.6944	2261.0447	3960.45	3073.85
954.8276	2262.5062	3942.85	3055.25
954.9608	2263.9669	3940.7	3051
955.094	2265.4269	3936.85	3052.25
955.2271	2266.8862	3916.2	3031.2
955.3602	2268.3448	3902.75	3019.65
955.4933	2269.8026	3905.1	3024.95
955.6264	2271.2598	3899.95	3015.9
955.7594	2272.7162	3889.85	3008.75
955.8924	2274.1719	3883.6	2994.15
956.0253	2275.6268	3862.3	2975.85
956.1583	2277.0811	3884.4	2995.5
956.2912	2278.5346	3856.75	2970.35
956.4241	2279.9874	3865.75	2983.85
956.5569	2281.4395	3857.8	2976.55
956.6897	2282.8908	3832.3	2943.35
956.8225	2284.3414	3822.9	2937.95
956.9553	2285.7914	3808.7	2926.25
957.088	2287.2406	3799	2910.7
957.2207	2288.689	3800	2910.8
957.3534	2290.1368	3796.95	2903.6
957.486	2291.5838	3782.05	2886.7
957.6186	2293.0302	3774.6	2881.7
957.7512	2294.4758	3748.65	2861.6
957.8838	2295.9206	3751.4	2862.6
958.0163	2297.3648	3747.1	2861.2
958.1488	2298.8082	3725.65	2838.05
958.2813	2300.251	3727.1	2839.95
958.4137	2301.693	3716.55	2823.45
958.5461	2303.1343	3715	2824.9
958.6785	2304.5748	3699.7	2812.75
958.8108	2306.0147	3676.4	2794.85
958.9432	2307.4538	3687.95	2804.15
959.0754	2308.8922	3661.1	2780.55
959.2077	2310.3299	3654.45	2773.05
959.3399	2311.7669	3657.8	2774.75
959.4721	2313.2031	3640.25	2755.3
959.6043	2314.6387	3616.85	2731.05
959.7365	2316.0735	3604.3	2718.55
959.8686	2317.5076	3618.7	2735.2
960.0006	2318.941	3609.3	2722.6
960.1327	2320.3737	3595.45	2705.8
960.2647	2321.8056	3595.2	2706.05
960.3967	2323.2369	3596.9	2707.3
960.5287	2324.6674	3584.7	2698.2
960.6606	2326.0972	3575	2689.85
960.7925	2327.5263	3546.65	2660.95
960.9244	2328.9547	3539.9	2652.85
961.0562	2330.3823	3536.05	2646.5
961.1881	2331.8092	3543.9	2652.2
961.3198	2333.2355	3512.6	2622.3
961.4516	2334.661	3508.75	2618.35
961.5833	2336.0858	3518.85	2630.3
961.715	2337.5098	3499.4	2612.4
961.8467	2338.9332	3496.4	2609.85
961.9783	2340.3558	3492.95	2604.25
962.1099	2341.7778	3475.5	2588.55
962.2415	2343.199	3463.3	2578.85
962.373	2344.6195	3458.55	2575.35
962.5045	2346.0393	3452	2570.4
962.636	2347.4583	3445.8	2559.3
962.7675	2348.8767	3442.2	2554.7
962.8989	2350.2943	3431.65	2543
963.0303	2351.7113	3427.05	2537.15
963.1617	2353.1275	3427.9	2539.15
963.293	2354.543	3425.6	2527.6
963.4243	2355.9578	3411	2523.9
963.5556	2357.3718	3388.95	2502.35
963.6868	2358.7852	3380.8	2495.1
963.818	2360.1978	3380.35	2495.2
963.9492	2361.6098	3375	2490.8
964.0803	2363.021	3367.3	2477.8
964.2114	2364.4315	3343.15	2457.7
964.3425	2365.8413	3333.3	2445.2
964.4736	2367.2504	3335.95	2453.75
964.6046	2368.6587	3320.75	2437.75
964.7356	2370.0664	3305.05	2423.7
964.8666	2371.4733	3308.45	2422.7
964.9975	2372.8795	3286.1	2404.75
965.1284	2374.285	3282.4	2397.85
965.2593	2375.6899	3269.9	2387.9
965.3901	2377.0939	3264.15	2382.15
965.5209	2378.4973	3261	2379.4
965.6517	2379.9	3252.65	2369.75
965.7825	2381.3019	3234	2352.4
965.9132	2382.7032	3232.2	2351.8
966.0439	2384.1037	3220.45	2342.05
966.1745	2385.5035	3200.95	2322.8
966.3051	2386.9027	3205.3	2326
966.4357	2388.3011	3205.1	2320.6
966.5663	2389.6987	3191.15	2311.2
966.6968	2391.0957	3169.55	2289.2
966.8273	2392.492	3169.05	2289.75
966.9578	2393.8876	3155.05	2271.8
967.0882	2395.2824	3156.85	2277.3
967.2186	2396.6765	3134.2	2254.6
967.349	2398.07	3132.95	2253.05
967.4793	2399.4627	3139.1	2257.7
967.6097	2400.8547	3116.65	2231.15
967.7399	2402.246	3118.65	2229.15
967.8702	2403.6366	3088.2	2206.45
968.0004	2405.0265	3084.85	2205.85
968.1306	2406.4156	3081.7	2201.3
968.2607	2407.8041	3082.05	2199.9
968.3909	2409.1918	3068.4	2182.9
968.521	2410.5789	3052.3	2170.7
968.651	2411.9652	3055.8	2169.85
968.781	2413.3508	3024.1	2142.1
968.911	2414.7358	3022.85	2137.75
969.041	2416.12	3031.7	2150.7
969.1709	2417.5035	3020.3	2137.4
969.3008	2418.8863	3001.55	2118.3
969.4307	2420.2684	2995.75	2113.65
969.5606	2421.6497	2990.7	2108.3
969.6904	2423.0304	2992.95	2111.55
969.8201	2424.4104	2972.9	2090.95
969.9499	2425.7896	2971.55	2087.55
970.0796	2427.1682	2963.2	2084.25
970.2093	2428.546	2958	2073.7
970.3389	2429.9232	2955.35	2072.7
970.4685	2431.2996	2948.05	2066
970.5981	2432.6753	2952.9	2070
970.7277	2434.0503	2928.05	2044.5
970.8572	2435.4246	2924.2	2040.5
970.9867	2436.7982	2919.75	2036.1
971.1161	2438.1711	2896.4	2014.6
971.2456	2439.5433	2925.75	2043
971.375	2440.9148	2908.8	2020.95
971.5043	2442.2856	2886.3	2004.3
971.6336	2443.6557	2874.2	1989.3
971.7629	2445.025	2869	1986.5
971.8922	2446.3937	2875.5	1991.6
972.0214	2447.7617	2857.15	1974.75
972.1506	2449.1289	2847.25	1965.3
972.2798	2450.4955	2853.8	1967.7
972.4089	2451.8613	2847.5	1963.65
972.538	2453.2265	2839.8	1958.25
972.6671	2454.5909	2838.8	1953.95
972.7961	2455.9546	2828.65	1945.6
972.9251	2457.3177	2817.6	1934.75
973.0541	2458.68	2813.3	1930.05
973.1831	2460.0416	2820.05	1937.4
973.312	2461.4025	2822.6	1938.75
973.4408	2462.7627	2815.35	1920.4
973.5697	2464.1222	2801.5	1921
973.6985	2465.4811	2787.4	1908.1
973.8273	2466.8392	2780.45	1898.05
973.956	2468.1966	2780.7	1894.45
974.0847	2469.5533	2787.05	1903.4
974.2134	2470.9093	2764.75	1880.85
974.3421	2472.2645	2771.6	1889.5
974.4707	2473.6191	2772.25	1890.15
974.5993	2474.973	2742.35	1858.7
974.7278	2476.3262	2757.1	1873.25
974.8563	2477.6787	2750.15	1867.2
974.9848	2479.0305	2723.4	1841.3
975.1132	2480.3816	2721.3	1838.1
975.2417	2481.7319	2718.1	1836
975.37	2483.0816	2711.65	1831.45
975.4984	2484.4306	2697.7	1812.25
975.6267	2485.7789	2689.05	1808.15
975.755	2487.1264	2697	1813.5
975.8833	2488.4733	2670.05	1789.45
976.0115	2489.8195	2666.85	1775.3
976.1397	2491.165	2667.15	1780.4
976.2678	2492.5097	2666.85	1784.4
976.3959	2493.8538	2655	1774.05
976.524	2495.1972	2639.9	1755.75
976.6521	2496.5398	2643.4	1760.45
976.7801	2497.8818	2633.45	1748.7
976.9081	2499.2231	2624.8	1741.85
977.036	2500.5637	2613.15	1726.85
977.164	2501.9035	2612.25	1724.7
977.2918	2503.2427	2617.5	1731.5
977.4197	2504.5812	2592.5	1708.35
977.5475	2505.919	2598.45	1712.55
977.6753	2507.256	2599	1715.6
977.8031	2508.5924	2589.2	1705.35
977.9308	2509.9281	2579.95	1692.95
978.0585	2511.2631	2576.25	1693.25
978.1861	2512.5974	2576.05	1694.75
978.3137	2513.9309	2561.8	1677.5
978.4413	2515.2638	2594.4	1681.2
978.5689	2516.596	2559.4	1676.25
978.6964	2517.9275	2538.75	1654.25
978.8239	2519.2583	2548.5	1664.35
978.9513	2520.5884	2533.05	1650.2
979.0788	2521.9178	2524.95	1641.75
979.2062	2523.2465	2523.8	1642
979.3335	2524.5745	2514.9	1631
979.4608	2525.9018	2504.75	1623.5
979.5881	2527.2284	2511.15	1628.4
979.7154	2528.5543	2500.05	1618.45
979.8426	2529.8796	2484.85	1601.35
979.9698	2531.2041	2495.95	1611.85
980.0969	2532.5279	2477.05	1596.4
980.224	2533.851	2479.85	1595.05
980.3511	2535.1735	2472.35	1589.85
980.4781	2536.4952	2468	1584.3
980.6052	2537.8163	2472.4	1587.1
980.7321	2539.1366	2461.55	1579.65
980.8591	2540.4562	2470.4	1588.65
980.986	2541.7752	2470.6	1585.9
981.1129	2543.0935	2465.2	1582.05
981.2397	2544.411	2458.65	1573.6
981.3665	2545.7279	2446	1561.2
981.4933	2547.0441	2443	1559.8
981.62	2548.3596	2448.3	1560.8
981.7467	2549.6744	2432.2	1550.2
981.8734	2550.9885	2446.4	1554.45
982.0001	2552.3019	2435.05	1552.15
982.1267	2553.6146	2425.8	1541.15
982.2532	2554.9266	2416.8	1532.55
982.3798	2556.2379	2407.7	1524.2
982.5063	2557.5485	2407.75	1524.6
982.6327	2558.8585	2408.4	1516.8
982.7592	2560.1677	2412.1	1525.1
982.8856	2561.4762	2406.55	1523.35
983.0119	2562.7841	2390.25	1503.35
983.1383	2564.0913	2385.4	1502.4
983.2646	2565.3977	2387.15	1501.3
983.3908	2566.7035	2380.65	1495.9
983.517	2568.0086	2381.5	1496.75
983.6432	2569.313	2377.4	1491.8
983.7694	2570.6167	2379.6	1494.05
983.8955	2571.9197	2374.1	1490.9
984.0216	2573.222	2375.5	1488
984.1476	2574.5236	2365.65	1482.75
984.2737	2575.8246	2373.25	1485.8
984.3996	2577.1248	2358.15	1473.6
984.5256	2578.4244	2364.05	1480.65
984.6515	2579.7232	2350.2	1466.45
984.7774	2581.0214	2362.25	1450.3
984.9032	2582.3189	2350.15	1467.85
985.029	2583.6157	2357.75	1469.5
985.1548	2584.9118	2355.3	1470.2
985.2806	2586.2072	2347.2	1464.65
985.4063	2587.5019	2336.4	1452.5
985.5319	2588.7959	2335.75	1449.05
985.6576	2590.0893	2336.55	1452.15
985.7832	2591.3819	2336.1	1449.55
985.9087	2592.6739	2324.8	1440.05
986.0343	2593.9652	2325.55	1440.3
986.1597	2595.2557	2326.5	1441.6
986.2852	2596.5456	2318.65	1433.85
986.4106	2597.8348	2323.1	1438.5
986.536	2599.1234	2322.45	1439.45
986.6614	2600.4112	2315.1	1432.1
986.7867	2601.6983	2314.55	1426.45
986.912	2602.9848	2297.2	1411.15
987.0372	2604.2705	2301.6	1412.85
987.1624	2605.5556	2288	1404.5
987.2876	2606.84	2283.1	1399.85
987.4128	2608.1237	2286.1	1400.4
987.5379	2609.4067	2272.95	1389.25
987.6629	2610.689	2280.65	1387.4
987.788	2611.9707	2271.25	1385.45
987.913	2613.2516	2263	1374.6
988.0379	2614.5319	2256.05	1372.55
988.1629	2615.8115	2244.1	1360.35
988.2878	2617.0903	2239.25	1353.9
988.4126	2618.3685	2237.1	1351.2
988.5375	2619.6461	2236.3	1350.5
988.6622	2620.9229	2227.7	1342.25
988.787	2622.199	2227.55	1343.05
988.9117	2623.4745	2227.2	1343.05
989.0364	2624.7493	2221.15	1335.85
989.161	2626.0234	2218	1334.7
989.2857	2627.2968	2211.9	1327.45
989.4102	2628.5695	2210.55	1328.4
989.5348	2629.8415	2201.95	1319.5
989.6593	2631.1128	2195.2	1307.65
989.7837	2632.3835	2192.15	1308.55
989.9082	2633.6535	2190.65	1306
990.0326	2634.9228	2191.5	1309.15
990.1569	2636.1914	2181.25	1298
990.2812	2637.4593	2187.45	1303.8
990.4055	2638.7265	2166.75	1283.6
990.5298	2639.9931	2165.9	1283.05
990.654	2641.259	2175.15	1290.1
990.7782	2642.5242	2165.5	1278.8
990.9023	2643.7887	2155.8	1271.3
991.0264	2645.0525	2165.75	1280.1
991.1505	2646.3156	2152.9	1268.15
991.2745	2647.5781	2145.2	1261.35
991.3985	2648.8398	2144.95	1263.4
991.5225	2650.1009	2141.95	1249.4
991.6464	2651.3613	2129.95	1248.75
991.7703	2652.6211	2132.5	1248.35
991.8942	2653.8801	2132.45	1249.7
992.018	2655.1385	2116.9	1229.45
992.1418	2656.3961	2128.3	1245.4
992.2655	2657.6531	2119.5	1237.6
992.3892	2658.9094	2113.5	1228.1
992.5129	2660.1651	2117.85	1235.05
992.6366	2661.42	2111.65	1228.3
992.7602	2662.6743	2117.5	1231.95
992.8837	2663.9279	2112.5	1230.25
993.0073	2665.1808	2105.9	1223.15
993.1307	2666.433	2108.15	1222.5
993.2542	2667.6846	2103	1218.9
993.3776	2668.9354	2111.45	1225.45
993.501	2670.1856	2107.65	1224.1
993.6244	2671.4351	2105.95	1224.95
993.7477	2672.6839	2113.15	1228.2
993.8709	2673.9321	2102.65	1220
993.9942	2675.1795	2110.45	1227.15
994.1174	2676.4263	2095.7	1211.4
994.2405	2677.6724	2098.55	1217.65
994.3637	2678.9179	2097.65	1213.65
994.4868	2680.1626	2094	1211.35
994.6098	2681.4067	2094.8	1212.3
994.7328	2682.6501	2096.7	1214.6
994.8558	2683.8928	2081.2	1198.65
994.9788	2685.1348	2075	1191.5
995.1017	2686.3761	2076.8	1195.3
995.2245	2687.6168	2061.3	1179
995.3474	2688.8568	2062.95	1176.05
995.4702	2690.0961	2057.65	1175.55
995.5929	2691.3348	2054.25	1172.7
995.7156	2692.5727	2050.05	1167.45
995.8383	2693.81	2045.95	1163.65
995.961	2695.0466	2044.05	1163.7
996.0836	2696.2826	2037.2	1153.2
996.2062	2697.5178	2049.8	1162.2
996.3287	2698.7524	2033.85	1150.7
996.4512	2699.9863	2037.85	1151.7
996.5737	2701.2195	2032.05	1150.65
996.6961	2702.452	2030.9	1145.95
996.8185	2703.6839	2034.45	1150.05
996.9408	2704.9151	2033.3	1152.8
997.0631	2706.1456	2038.35	1156.25
997.1854	2707.3755	2036.1	1152.2
997.3077	2708.6046	2035	1149.85
997.4299	2709.8331	2045.55	1162.9
997.552	2711.0609	2050.75	1169.25
997.6742	2712.2881	2055.25	1175.1
997.7963	2713.5145	2066.15	1179
997.9183	2714.7403	2068.45	1186.45
998.0403	2715.9654	2080.35	1195.85
998.1623	2717.1899	2100.15	1203.35
998.2842	2718.4136	2097.75	1217.3
998.4062	2719.6367	2103.2	1221.6
998.528	2720.8591	2114.55	1225.55
998.6498	2722.0809	2105.5	1222.9
998.7716	2723.3019	2114.5	1229.2
998.8934	2724.5223	2132.8	1250.3
999.0151	2725.7421	2135.85	1251.45
999.1368	2726.9611	2134.1	1248.3
999.2584	2728.1795	2126.4	1237.3
999.38	2729.3972	2109.15	1228.45
999.5016	2730.6142	2112.55	1219.9
999.6231	2731.8306	2088.1	1205.65
999.7446	2733.0462	2071.25	1187.8
999.8661	2734.2612	2048.25	1161.05
999.9875	2735.4756	2030.05	1146.7
1000.1089	2736.6892	2019.15	1135.65
1000.2302	2737.9022	2003.55	1121.8
1000.3515	2739.1145	1987.8	1105.1
1000.4728	2740.3262	1979.95	1089.5
1000.594	2741.5372	1962.1	1082.15
1000.7152	2742.7475	1936.6	1057.25
1000.8363	2743.9571	1939.05	1055.2
1000.9575	2745.1661	1932.45	1045.15
1001.0785	2746.3744	1912.4	1027.7
1001.1996	2747.582	1895.3	1013.85
1001.3206	2748.7889	1898.95	1015.35
1001.4415	2749.9952	1880.05	997.75
1001.5625	2751.2008	1869.85	987.6
1001.6833	2752.4057	1874.65	990.85
1001.8042	2753.61	1868.6	984.95
1001.925	2754.8136	1866.8	983.9
1002.0458	2756.0165	1852.5	970.35
1002.1665	2757.2188	1860.25	980.45
1002.2872	2758.4204	1848.05	966.05
1002.4078	2759.6213	1854.85	969.95
1002.5285	2760.8215	1843.9	960.5
1002.649	2762.0211	1841.95	958.8
1002.7696	2763.22	1843.05	958.35
1002.8901	2764.4182	1837.35	955.45
1003.0106	2765.6158	1832.1	948.45
1003.131	2766.8127	1823.45	942.35
1003.2514	2768.009	1819.2	938.25
1003.3717	2769.2045	1815.95	934.2
1003.492	2770.3994	1815.15	932.55
1003.6123	2771.5936	1809.15	925
1003.7325	2772.7872	1807.3	928.1
1003.8527	2773.9801	1804.05	920.75
1003.9729	2775.1723	1813.35	917.45
1004.093	2776.3639	1805	924.9
1004.2131	2777.5548	1794.65	908.85
1004.3331	2778.745	1800.95	917.6
1004.4531	2779.9346	1794.45	913.15
1004.5731	2781.1235	1790.85	909.15
1004.693	2782.3117	1782.85	904.55
1004.8129	2783.4992	1791.75	911.15
1004.9328	2784.6861	1789.6	909.9
1005.0526	2785.8723	1809.05	926.5
1005.1723	2787.0579	1810.85	932.9
1005.2921	2788.2428	1817.9	938.1
1005.4118	2789.427	1819.85	939.3
1005.5314	2790.6106	1820.85	940.1
1005.651	2791.7935	1830.05	949.15
1005.7706	2792.9757	1832.2	951.6
1005.8902	2794.1573	1840.45	958.1
1006.0097	2795.3382	1846.95	965.15
1006.1291	2796.5184	1861	982.85
1006.2485	2797.698	1875.3	994.35
1006.3679	2798.8769	1888.05	1006.5
1006.4873	2800.0551	1897.25	1019.55
1006.6066	2801.2327	1922.75	1038.1
1006.7258	2802.4096	1937.3	1059.5
1006.8451	2803.5859	1953.35	1074.35
1006.9642	2804.7615	1967	1084.35
1007.0834	2805.9364	1988.4	1105.95
1007.2025	2807.1106	2022.15	1141.55
1007.3216	2808.2842	2050.9	1167.6
1007.4406	2809.4572	2079.15	1199.6
1007.5596	2810.6294	2120.5	1238
1007.6785	2811.801	2153.75	1274.4
1007.7975	2812.972	2177.7	1298.5
1007.9163	2814.1423	2220.65	1341.35
1008.0352	2815.3119	2268.75	1387.1
1008.154	2816.4808	2299.3	1420.5
1008.2727	2817.6491	2362.4	1479.6
1008.3914	2818.8167	2407.9	1527.85
1008.5101	2819.9837	2457.4	1572
1008.6288	2821.15	2493.75	1614.4
1008.7474	2822.3157	2540.5	1661.1
1008.8659	2823.4807	2588.8	1708.85
1008.9844	2824.645	2643.9	1762.45
1009.1029	2825.8086	2683.8	1804.95
1009.2214	2826.9716	2722.3	1846.55
1009.3398	2828.134	2775.05	1896.8
1009.4581	2829.2957	2794.2	1914.4
1009.5764	2830.4567	2824.6	1947
1009.6947	2831.617	2843.25	1961.3
1009.813	2832.7767	2858.3	1978.8
1009.9312	2833.9358	2849.5	1969.85
1010.0493	2835.0941	2839.15	1954.7
1010.1675	2836.2519	2844.55	1964.45
1010.2855	2837.4089	2834.65	1952.4
1010.4036	2838.5653	2822.35	1944.8
1010.5216	2839.7211	2821.75	1943.05
1010.6396	2840.8761	2827.35	1945.9
1010.7575	2842.0306	2857.7	1980.1
1010.8754	2843.1843	2872.35	1993.9
1010.9932	2844.3374	2925.2	2046.05
1011.111	2845.4899	2990.3	2108.5
1011.2288	2846.6417	3053.55	2174.8
1011.3465	2847.7928	3113.35	2235.65
1011.4642	2848.9433	3186.25	2307.15
1011.5818	2850.0931	3266.05	2386.75
1011.6995	2851.2422	3346.15	2465.95
1011.817	2852.3907	3402.3	2522.3
1011.9345	2853.5385	3471.45	2589.7
1012.052	2854.6857	3559.6	2652.4
1012.1695	2855.8323	3582.4	2706.85
1012.2869	2856.9781	3622.7	2742.8
1012.4042	2858.1233	3676.95	2797.7
1012.5216	2859.2679	3724.95	2845.85
1012.6389	2860.4118	3758.3	2878.55
1012.7561	2861.555	3805.15	2922.8
1012.8733	2862.6976	3825.9	2943.45
1012.9905	2863.8395	3862.1	2983.25
1013.1076	2864.9808	3883.9	3006.8
1013.2247	2866.1214	3896.3	3018.4
1013.3417	2867.2614	3904.05	3023.15
1013.4587	2868.4007	3925.6	3045.45
1013.5757	2869.5393	3925.25	3044.8
1013.6926	2870.6773	3947.5	3064.65
1013.8095	2871.8146	3973.45	3088.6
1013.9263	2872.9513	3963.35	3079.3
1014.0431	2874.0874	3947.9	3067.35
1014.1599	2875.2227	3934.6	3053.35
1014.2766	2876.3574	3915.75	3036.35
1014.3933	2877.4915	3899.6	3020.6
1014.51	2878.6249	3861.5	2983.05
1014.6266	2879.7577	3848.35	2968.4
1014.7431	2880.8898	3829.95	2938.85
1014.8596	2882.0212	3794.75	2918.1
1014.9761	2883.152	3796.85	2916.15
1015.0925	2884.2821	3779.7	2903.2
1015.2089	2885.4116	3768.65	2893.45
1015.3253	2886.5405	3773.55	2894.4
1015.4416	2887.6686	3796.35	2914.75
1015.5579	2888.7962	3793.1	2917
1015.6741	2889.923	3780.65	2902
1015.7903	2891.0493	3810.7	2933.45
1015.9065	2892.1748	3817.7	2938.8
1016.0226	2893.2997	3822	2942.55
1016.1387	2894.424	3840.2	2962.35
1016.2547	2895.5476	3861.35	2984.75
1016.3707	2896.6706	3881.5	3006.2
1016.4866	2897.7929	3889.3	3010.7
1016.6025	2898.9145	3915.25	3036.35
1016.7184	2900.0355	3956.35	3076.25
1016.8342	2901.1559	3988.9	3109.7
1016.95	2902.2756	4034.2	3154.8
1017.0658	2903.3946	4051.6	3173.45
1017.1815	2904.513	4083.35	3201.5
1017.2971	2905.6308	4095.7	3215.55
1017.4127	2906.7479	4119.2	3240.3
1017.5283	2907.8643	4132.45	3253.45
1017.6439	2908.9801	4156.55	3276.8
1017.7594	2910.0953	4161.8	3285.4
1017.8748	2911.2098	4159.65	3275.4
1017.9902	2912.3236	4167.5	3283.8
1018.1056	2913.4368	4146.2	3265.6
1018.2209	2914.5494	4123.85	3245
1018.3362	2915.6613	4084.25	3198.7
1018.4515	2916.7725	4054.95	3176.1
1018.5667	2917.8831	4015.5	3136.35
1018.6819	2918.9931	4005	3125.75
1018.797	2920.1024	3960.95	3082.25
1018.9121	2921.211	3938	3060.55
1019.0271	2922.319	3932.95	3054.65
1019.1421	2923.4264	3899.95	3023.4
1019.2571	2924.5331	3908.7	3031.4
1019.372	2925.6391	3890.55	3014.15
1019.4869	2926.7445	3886.25	3009.4
1019.6017	2927.8493	3869.6	2991.15
1019.7165	2928.9534	3866	2986.4
1019.8313	2930.0569	3870.3	2988.7
1019.946	2931.1597	3851.3	2973.45
1020.0606	2932.2619	3858.5	2980.35
1020.1753	2933.3634	3836.4	2958.25
1020.2899	2934.4643	3843.85	2957.7
1020.4044	2935.5645	3813.55	2929.2
1020.5189	2936.6641	3777.85	2895.2
1020.6334	2937.763	3730.85	2853.1
1020.7478	2938.8613	3687.25	2808.7
1020.8622	2939.959	3618.1	2737.35
1020.9765	2941.056	3559.15	2682.55
1021.0908	2942.1523	3475	2596.9
1021.2051	2943.248	3392.8	2513.8
1021.3193	2944.3431	3295.25	2417.95
1021.4334	2945.4375	3195.6	2316.7
1021.5476	2946.5313	3099.6	2222.3
1021.6617	2947.6244	2983.75	2106.35
1021.7757	2948.7169	2883.8	2003.7
1021.8897	2949.8087	2789	1912.05
1022.0037	2950.8999	2701.35	1823.65
1022.1176	2951.9904	2613.2	1735.4
1022.2315	2953.0803	2543.2	1666.5
1022.3453	2954.1696	2478.1	1600.25
1022.4591	2955.2582	2426.8	1549.25
1022.5728	2956.3462	2389.1	1509.35
1022.6865	2957.4335	2356.95	1479.95
1022.8002	2958.5202	2323.45	1442.05
1022.9138	2959.6062	2278.5	1402
1023.0274	2960.6916	2269.95	1394.1
1023.141	2961.7764	2247.35	1368.9
1023.2545	2962.8605	2224.7	1346.8
1023.3679	2963.9439	2210.05	1336.3
1023.4813	2965.0267	2193.7	1314.3
1023.5947	2966.1089	2210.2	1311.7
1023.708	2967.1905	2185.2	1309.45
1023.8213	2968.2714	2177.55	1301.3
1023.9346	2969.3516	2179.1	1300.75
1024.0478	2970.4312	2191.2	1307.55
1024.1609	2971.5102	2177.5	1301.1
1024.274	2972.5885	2180.15	1303.4
1024.3871	2973.6662	2186.7	1304.35
1024.5002	2974.7432	2169.4	1295.25
1024.6132	2975.8196	2165.2	1288.3
1024.7261	2976.8954	2151.8	1277.25
1024.839	2977.9705	2145.85	1268.3
1024.9519	2979.045	2123.85	1247.55
1025.0647	2980.1188	2103.45	1227.8
1025.1775	2981.192	2099.55	1222.8
1025.2902	2982.2645	2075.3	1196.4
1025.4029	2983.3364	2045.3	1168.4
1025.5156	2984.4077	2008.25	1131.2
1025.6282	2985.4783	1986.15	1103
1025.7407	2986.5483	1958.5	1081.7
1025.8532	2987.6177	1919.15	1044.25
1025.9657	2988.6864	1886.05	1011.1
1026.0782	2989.7545	1857.95	978.4
1026.1906	2990.8219	1810.6	933.05
1026.3029	2991.8887	1782.7	904.35
1026.4152	2992.9548	1758.05	879.4
1026.5275	2994.0204	1726.4	850.85
1026.6397	2995.0852	1691.75	815.7
1026.7519	2996.1495	1669	791.45
1026.864	2997.2131	1659.05	782.6
1026.9761	2998.276	1620.75	744.85
1027.0882	2999.3383	1604	728.25
1027.2002	3000.4	1585.4	708.3
1027.3122	3001.4611	1563.8	686.65
1027.4241	3002.5215	1548.75	672.2
1027.536	3003.5812	1530.9	652.85
1027.6478	3004.6404	1523.45	648.1
1027.7596	3005.6989	1517.25	639.6
1027.8714	3006.7567	1500.55	623.95
1027.9831	3007.8139	1518.75	610.25
1028.0947	3008.8705	1490.9	614.1
1028.2064	3009.9264	1481.6	599.85
1028.3179	3010.9818	1479.85	603.35
1028.4295	3012.0364	1479	601.75
1028.541	3013.0905	1478.8	601.8
1028.6524	3014.1439	1458.35	582.3
1028.7638	3015.1966	1458.45	581.6
1028.8752	3016.2487	1457.85	582.2
1028.9865	3017.3002	1458.3	577.95
1029.0978	3018.3511	1454.9	578.9
1029.209	3019.4013	1460.9	583.55
1029.3202	3020.4509	1454	576.9
1029.4314	3021.4998	1452.25	573.9
1029.5425	3022.5481	1452.6	575
1029.6535	3023.5958	1452.1	575.4
1029.7645	3024.6428	1450.65	573.85
1029.8755	3025.6892	1453.8	577.25
1029.9864	3026.735	1451.9	576.25
1030.0973	3027.7802	1450.05	575.05
1030.2082	3028.8247	1448.65	571.55
1030.319	3029.8685	1462.15	585.4
1030.4297	3030.9118	1458.5	580.25
1030.5404	3031.9544	1460.6	584.9
1030.6511	3032.9963	1467.95	592.4
1030.7617	3034.0376	1473.95	598.95
1030.8723	3035.0783	1478.75	599.65
1030.9829	3036.1184	1475.15	598.45
1031.0934	3037.1578	1474.3	598.45
1031.2038	3038.1966	1474.5	596.8
1031.3142	3039.2348	1483.9	610.55
1031.4246	3040.2723	1482.2	598.05
1031.5349	3041.3092	1468.2	594.3
1031.6452	3042.3455	1468.9	592.9
1031.7554	3043.3811	1467.75	590.65
1031.8656	3044.4161	1465.55	587.2
1031.9758	3045.4505	1454.4	580.85
1032.0859	3046.4842	1450.85	574.65
1032.1959	3047.5173	1446.05	572.05
1032.3059	3048.5498	1439.35	562.5
1032.4159	3049.5816	1440.95	565.05
1032.5258	3050.6128	1429.9	552.75
1032.6357	3051.6434	1424.85	548.85
1032.7455	3052.6734	1421.75	545
1032.8553	3053.7027	1416.55	541.5
1032.9651	3054.7314	1405.7	530
1033.0748	3055.7594	1400.4	523.85
1033.1845	3056.7868	1391.8	516.35
1033.2941	3057.8136	1392.7	514.4
1033.4037	3058.8398	1384.85	510.3
1033.5132	3059.8653	1379.05	503.25
1033.6227	3060.8902	1374.55	498.95
1033.7321	3061.9145	1364.45	487.95
1033.8415	3062.9381	1366.05	491.2
1033.9509	3063.9612	1373.45	483.15
1034.0602	3064.9835	1350.35	474.75
1034.1694	3066.0053	1347.95	468.85
1034.2787	3067.0264	1343.6	468.25
1034.3878	3068.0469	1335.5	460.35
1034.497	3069.0668	1324.8	445.95
1034.6061	3070.086	1320.15	446.8
1034.7151	3071.1046	1313	438.15
1034.8241	3072.1226	1308.1	429.45
1034.9331	3073.1399	1288.7	412.6
1035.042	3074.1567	1283.2	406.3
1035.1508	3075.1727	1278.15	400.3
1035.2597	3076.1882	1267.65	390.7
1035.3684	3077.203	1256.4	383.15
1035.4772	3078.2173	1246.6	369.65
1035.5859	3079.2308	1245	367
1035.6945	3080.2438	1237.35	359.3
1035.8031	3081.2561	1224.9	348.8
1035.9117	3082.2678	1222.05	347.15
1036.0202	3083.2789	1208.1	333.45
1036.1286	3084.2893	1206.45	330.75
1036.2371	3085.2991	1201.85	326.6
1036.3454	3086.3083	1203.25	324.25
1036.4538	3087.3169	1189.35	311.65
1036.562	3088.3248	1185.5	309.8
1036.6703	3089.3321	1179.5	301.15
1036.7785	3090.3388	1171.45	297.3
1036.8866	3091.3449	1168.5	293.7
1036.9948	3092.3503	1169.2	292.45
1037.1028	3093.3551	1163.5	289.15
1037.2108	3094.3593	1152.55	277.55
1037.3188	3095.3629	1153.1	279.35
1037.4267	3096.3658	1155.7	279.45
1037.5346	3097.3681	1142.45	267.1
1037.6425	3098.3698	1148.45	271.6
1037.7503	3099.3708	1146.65	264.65
1037.858	3100.3713	1132.15	256.65
1037.9657	3101.3711	1135.2	259.9
1038.0734	3102.3702	1272	257.9
1038.181	3103.3688	1134	255.55
1038.2886	3104.3667	1128	254.45
1038.3961	3105.364	1131.25	257
1038.5036	3106.3607	1123.1	247.25
1038.611	3107.3568	1124	246.95
1038.7184	3108.3522	1118.75	244
1038.8257	3109.347	1117.25	241.1
1038.933	3110.3412	1111.65	233.75
1039.0403	3111.3348	1108.2	234
1039.1475	3112.3277	1110	235.05
1039.2547	3113.32	1102.8	228.5
1039.3618	3114.3117	1104.15	228.35
1039.4689	3115.3028	1106.4	232.25
1039.5759	3116.2932	1108.15	232.45
1039.6829	3117.2831	1099.5	217
1039.7898	3118.2723	1092.85	219.65
1039.8967	3119.2608	1095.1	220.55
1040.0035	3120.2488	1092.75	216.55
1040.1103	3121.2361	1094.2	219.8
1040.2171	3122.2229	1095.9	219.95
1040.3238	3123.209	1091.8	217.45
1040.4305	3124.1944	1089.25	214.05
1040.5371	3125.1793	1084.5	206.05
1040.6437	3126.1635	1083.95	207.1
1040.7502	3127.1471	1086	211.45
1040.8567	3128.1301	1082.75	209.9
1040.9631	3129.1125	1080.15	205.8
1041.0695	3130.0942	1081.45	207.15
1041.1759	3131.0753	1090.9	208.55
1041.2822	3132.0558	1081.15	204.6
1041.3884	3133.0357	1072	196.3
1041.4946	3134.015	1072.9	198.7
1041.6008	3134.9936	1072.9	195.55
1041.7069	3135.9716	1091.8	194.9
1041.813	3136.949	1071.45	199.3
1041.919	3137.9258	1081.95	188.5
1042.025	3138.902	1071.3	191.95
1042.1309	3139.8775	1066.25	191.5
1042.2368	3140.8524	1063.6	189.8
1042.3427	3141.8267	1063.1	186.35
1042.4485	3142.8004	1058.25	182.8
1042.5542	3143.7735	1066.1	185
1042.6599	3144.7459	1062.2	184.5
1042.7656	3145.7178	1055.25	179.9
1042.8712	3146.689	1054.75	181.75
1042.9768	3147.6596	1059.2	183.4
1043.0823	3148.6295	1054.8	180
1043.1878	3149.5989	1051.3	175.8
1043.2932	3150.5676	1050.4	175.25
1043.3986	3151.5357	1045.15	172.2
1043.5039	3152.5032	1049.95	175.3
1043.6092	3153.4701	1046.05	173.55
1043.7145	3154.4364	1045.55	168.4
1043.8197	3155.402	1044.65	170.8
1043.9248	3156.367	1048.15	172.25
1044.03	3157.3315	1069.05	167.6
1044.135	3158.2952	1043.15	169.1
1044.24	3159.2584	1036.05	160.75
1044.345	3160.221	1036.85	159.75
1044.4499	3161.1829	1039.25	163.25
1044.5548	3162.1442	1035.05	160.2
1044.6596	3163.105	1035.85	161.45
1044.7644	3164.065	1033.85	157.8
1044.8692	3165.0245	1036.45	160.7
1044.9739	3165.9834	1034.1	163.1
1045.0785	3166.9416	1031.65	158.85
1045.1831	3167.8993	1029.6	155.8
1045.2877	3168.8563	1031.65	155.5
1045.3922	3169.8127	1028.75	154.65
1045.4966	3170.7684	1024.15	150.55
1045.6011	3171.7236	1022.5	147.65
1045.7054	3172.6782	1026.25	153.2
1045.8098	3173.6321	1027	151.85
1045.914	3174.5854	1025.65	148.55
1046.0183	3175.5381	1023.8	150.1
1046.1224	3176.4902	1020.85	146.15
1046.2266	3177.4417	1014.9	140.85
1046.3307	3178.3926	1017.1	143.3
1046.4347	3179.3428	1017.15	145.6
1046.5387	3180.2924	1016.6	143.15
1046.6427	3181.2415	1013.55	138.5
1046.7466	3182.1899	1014.85	140.1
1046.8504	3183.1377	1012.2	138.6
1046.9542	3184.0848	1016.95	140.7
1047.058	3185.0314	1013.5	139.55
1047.1617	3185.9773	1011.5	138.3
1047.2654	3186.9227	1012.75	138.85
1047.369	3187.8674	1008.35	134.45
1047.4726	3188.8115	1011.25	131.9
1047.5761	3189.755	1010.45	136.8
1047.6796	3190.6979	1009.45	136.1
1047.783	3191.6402	1008.6	137.1
1047.8864	3192.5818	1007.8	133.75
1047.9898	3193.5229	1011.35	131.5
1048.0931	3194.4633	1006.8	132.95
1048.1963	3195.4031	1006.3	132.1
1048.2995	3196.3423	1006.3	133.95
1048.4027	3197.2809	1002.6	130
1048.5058	3198.2189	1003.75	131.2
1048.6089	3199.1563	1017.2	130.8
1048.7119	3200.0931	998.7	124.2
1048.8148	3201.0292	1000.05	127.3
1048.9178	3201.9648	995.85	121.15
1049.0206	3202.8997	1001.45	124
1049.1235	3203.834	1000.95	128.6
1049.2262	3204.7677	997.85	124.4
1049.329	3205.7008	999.85	124.55
1049.4317	3206.6333	995.75	123.5
1049.5343	3207.5652	999.85	124
1049.6369	3208.4964	990.9	116.5
1049.7394	3209.4271	991.5	118.75
1049.8419	3210.3571	995.2	121.95
1049.9444	3211.2865	990.3	115.45
1050.0468	3212.2154	995.15	118.55
1050.1491	3213.1436	991.55	117.05
1050.2514	3214.0712	996.45	114.4
1050.3537	3214.9982	988.7	114.25
1050.4559	3215.9246	990.1	114.5
1050.5581	3216.8503	988.35	114.05
1050.6602	3217.7755	984.9	112.15
1050.7623	3218.7001	990.05	117.9
1050.8643	3219.624	987.9	115.6
1050.9663	3220.5473	987.55	113.35
1051.0682	3221.4701	983.95	108.35
1051.1701	3222.3922	986.5	110.65
1051.2719	3223.3137	983.9	110.6
1051.3737	3224.2346	985.8	112.7
1051.4754	3225.1549	984.2	109.8
1051.5771	3226.0746	982.65	111.45
1051.6788	3226.9937	984.9	110.9
1051.7804	3227.9121	981.95	107.9
1051.8819	3228.83	978.2	104.8
1051.9834	3229.7473	981.45	107.55
1052.0849	3230.6639	980.1	107.45
1052.1863	3231.5799	980.3	109.45
1052.2876	3232.4954	981.45	105.9
1052.3889	3233.4102	977.7	105.5
1052.4902	3234.3244	978.85	106.9
1052.5914	3235.238	973.9	101.2
1052.6926	3236.151	990.4	104.05
1052.7937	3237.0634	976.7	106.55
1052.8948	3237.9752	974.85	101.55
1052.9958	3238.8864	975.65	102.45
1053.0968	3239.797	967.5	94.9
1053.1977	3240.7069	973.1	99
1053.2986	3241.6163	973.7	99.75
1053.3994	3242.5251	971.15	97.65
1053.5002	3243.4332	969.35	97.15
1053.6009	3244.3408	969.6	96.15
1053.7016	3245.2477	967.25	94.2
1053.8022	3246.154	970.2	96.4
1053.9028	3247.0598	968.1	93.65
1054.0034	3247.9649	966.95	92.65
1054.1039	3248.8694	964.85	92.3
1054.2043	3249.7733	963.9	89.1
1054.3047	3250.6766	966.85	93.95
1054.4051	3251.5793	963.3	88.35
1054.5054	3252.4814	964.35	91.9
1054.6056	3253.3829	958.7	86.25
1054.7058	3254.2838	960.95	87.35
1054.806	3255.1841	963.95	93.05
1054.9061	3256.0838	959.8	86.75
1055.0061	3256.9829	958.45	87.35
1055.1062	3257.8814	961.45	84.85
1055.2061	3258.7792	958.85	83.15
1055.306	3259.6765	960.15	87.75
1055.4059	3260.5731	952.4	79.1
1055.5057	3261.4692	951.8	78.55
1055.6055	3262.3647	952.3	79
1055.7052	3263.2595	951.75	80.3
1055.8049	3264.1538	947.65	75.25
1055.9045	3265.0474	951.45	78.25
1056.0041	3265.9404	949.35	76
1056.1036	3266.8329	946.25	75.4
1056.2031	3267.7247	955.25	73.55
1056.3025	3268.616	941.75	70.6
1056.4019	3269.5066	940.4	67.6
1056.5013	3270.3966	940.3	65.75
1056.6005	3271.286	939.3	66.95
