Software Version:	3.9.2.0
Unit SN:	10000200
Spectrometer SN:	6960
Date:	3/8/2024 2:06:42 PM
Data Line Index:	25
Spectral Points:	2048
Integration time (ms):	125
Averages:	20
Delay (ms):	30000
Sequence Number:	1
Processing:	dark subtract
Laser Power (mW):	305
Laser Current (mA):	823
Laser Diode Temp (C):	25.1
Laser Case Temp (C):	26.2
System Temp (C):	26.3
Spectrometer Temp (C):	24.1
CCD Temp (C):	0.012
Secondary Temp (C):	20.011
Heatsink Temp (C):	21.379
CCDPCB Temp (C):	36.24
SecondaryPCB Temp (C):	29.882

Wavelength	RamanShift	Raw Counts	Dark Subtracted
787.061	30.1047	468.05	60.3
787.2016	32.3739	467.05	60.95
787.3422	34.6426	471.05	62.8
787.4828	36.9109	481.55	71.15
787.6235	39.1787	485	71.8
787.7642	41.4461	496.75	79.85
787.9049	43.7131	506.3	87.55
788.0456	45.9796	518.95	97.05
788.1863	48.2456	527.8	101.45
788.3271	50.5112	537.7	106.75
788.4679	52.7764	549	115.05
788.6087	55.0411	558.45	119.15
788.7496	57.3054	568.2	124.3
788.8904	59.5692	579.65	133.45
789.0313	61.8326	588	140.2
789.1722	64.0955	605.9	154.75
789.3132	66.3579	623.6	166.75
789.4541	68.6199	644	184.9
789.5951	70.8815	687.5	219.8
789.7361	73.1426	766.8	298.15
789.8771	75.4032	977.15	503.3
790.0181	77.6634	1515.1	1037.75
790.1592	79.9231	2760.2	2275.95
790.3003	82.1824	5507.8	5010.7
790.4414	84.4412	10431.8	9912.3
790.5825	86.6995	17232	16679.75
790.7237	88.9574	23848.3	23269.25
790.8648	91.2148	28408.45	27810.5
791.006	93.4717	30546.8	29939.65
791.1472	95.7282	31112.25	30499.6
791.2885	97.9842	31063.6	30447.65
791.4297	100.2398	30592.8	29970.05
791.571	102.4949	30015.1	29393.2
791.7123	104.7495	29347.2	28719.4
791.8536	107.0036	28562.65	27933.95
791.9949	109.2573	27854.5	27227.8
792.1363	111.5105	27161.4	26532.55
792.2777	113.7632	26448.3	25816
792.4191	116.0154	25863.95	25221
792.5605	118.2672	25452.35	24818.5
792.7019	120.5185	25004.1	24368.05
792.8434	122.7693	24669.55	24028.3
792.9849	125.0197	24387.05	23744.85
793.1264	127.2696	24113.65	23463.75
793.2679	129.519	24020.7	23368.05
793.4094	131.7679	23821.75	23167.6
793.551	134.0163	23695	23035.75
793.6926	136.2642	23530	22866.5
793.8342	138.5117	23344.05	22681.4
793.9758	140.7587	23163.35	22497.2
794.1175	143.0052	22988.7	22317.4
794.2591	145.2512	22770.5	22105.25
794.4008	147.4967	22530.55	21857.75
794.5425	149.7417	22400.75	21727.75
794.6842	151.9863	22313.9	21634.55
794.826	154.2304	22222.4	21540.45
794.9677	156.4739	22126.3	21441.5
795.1095	158.717	22101.25	21413.8
795.2513	160.9596	21943.35	21251.25
795.3931	163.2017	21749.25	21057.35
795.535	165.4433	21474.45	20781.05
795.6768	167.6844	21162.05	20464
795.8187	169.925	20852.35	20151.8
795.9606	172.1651	20489.25	19790.55
796.1025	174.4047	20204.6	19498.05
796.2445	176.6439	19965.6	19261.45
796.3864	178.8825	19762.75	19055.6
796.5284	181.1206	19630.6	18912.95
796.6704	183.3582	19482.4	18766.25
796.8124	185.5954	19378.5	18657.9
796.9544	187.832	19305.5	18582
797.0965	190.0681	19328.6	18601.7
797.2386	192.3037	19321.7	18589.05
797.3806	194.5388	19345.5	18610.35
797.5228	196.7734	19403.1	18668.85
797.6649	199.0075	19484.3	18748.9
797.807	201.2411	19639.05	18900.3
797.9492	203.4742	19714.7	18971.7
798.0914	205.7068	19876.7	19136.15
798.2336	207.9389	20042.25	19300.25
798.3758	210.1704	20227.4	19492.3
798.518	212.4015	20316.05	19590.5
798.6603	214.632	20508.3	19783.75
798.8025	216.862	20732.95	20014.45
798.9448	219.0915	20911.55	20187.8
799.0871	221.3205	21129.5	20404.55
799.2294	223.549	21404.75	20686.8
799.3718	225.777	21728.45	21007.35
799.5141	228.0044	22129.75	21398.2
799.6565	230.2314	22592.05	21863.85
799.7989	232.4578	23040.95	22310.7
799.9413	234.6837	23405.65	22663.35
800.0837	236.909	23661.2	22916.45
800.2262	239.1339	23686.55	22915.35
800.3687	241.3582	23478.85	22723.75
800.5111	243.582	23154	22370.25
800.6536	245.8053	22804.05	22033.95
800.7961	248.0281	22512.4	21750.1
800.9387	250.2503	22282.4	21514.8
801.0812	252.472	22138.4	21367.65
801.2238	254.6932	22090.7	21325.2
801.3664	256.9139	21988.35	21219.6
801.509	259.134	21987.7	21211.25
801.6516	261.3536	21983.8	21211.4
801.7942	263.5727	22084.85	21312.1
801.9369	265.7912	21978.5	21203.15
802.0795	268.0092	22086.75	21311.9
802.2222	270.2267	22040.8	21266.25
802.3649	272.4436	22013.45	21238.35
802.5076	274.6601	21953.9	21166.35
802.6504	276.8759	21933.45	21151.5
802.7931	279.0913	21949.35	21166.5
802.9359	281.3061	21884.3	21099.35
803.0787	283.5204	21970.35	21181.7
803.2215	285.7341	22063.6	21272.25
803.3643	287.9473	22239.6	21441.25
803.5071	290.16	22502.1	21709.35
803.6499	292.3721	22815	22030
803.7928	294.5837	23265.9	22477.25
803.9357	296.7947	23645.9	22857.95
804.0786	299.0052	23832.4	23040.5
804.2215	301.2152	23715.25	22923.4
804.3644	303.4246	23406.15	22618.55
804.5074	305.6334	22877.45	22088.5
804.6503	307.8418	22375.85	21580.15
804.7933	310.0495	21983.05	21186
804.9363	312.2568	21664.8	20865.95
805.0793	314.4635	21474.5	20676.45
805.2223	316.6696	21404.05	20604.1
805.3653	318.8752	21354	20545.95
805.5084	321.0802	21424.15	20622.65
805.6514	323.2847	21576.1	20773.95
805.7945	325.4887	21625.35	20818.8
805.9376	327.692	21588.1	20779.65
806.0807	329.8949	21464.65	20654.85
806.2238	332.0972	21232.05	20423.8
806.367	334.2989	20942.8	20129.6
806.5101	336.5001	20697.35	19883.6
806.6533	338.7007	20508.45	19692.55
806.7965	340.9008	20419.95	19607.6
806.9397	343.1003	20326.3	19511.45
807.0829	345.2992	20319.85	19506.15
807.2261	347.4976	20308.3	19491.8
807.3693	349.6955	20271	19448.1
807.5126	351.8927	20381.95	19559.85
807.6559	354.0895	20373.1	19536.85
807.7991	356.2856	20440.45	19617.65
807.9424	358.4812	20418.45	19597.75
808.0857	360.6763	20521.65	19694.75
808.2291	362.8707	20495	19667.8
808.3724	365.0646	20543.2	19713.4
808.5158	367.258	20580	19750.55
808.6591	369.4508	20591.9	19756.95
808.8025	371.643	20659.25	19823.5
808.9459	373.8346	20664.85	19831.35
809.0893	376.0257	20673.85	19833.7
809.2327	378.2162	20618.6	19783.9
809.3762	380.4062	20532.05	19696.65
809.5196	382.5956	20405.35	19572.2
809.6631	384.7844	20311.4	19481.6
809.8066	386.9726	20186.7	19360.7
809.9501	389.1603	20143.45	19320.65
810.0936	391.3474	20126.2	19273.6
810.2371	393.5339	20148.75	19318.65
810.3806	395.7199	20066.85	19235.4
810.5241	397.9052	20142.4	19314.2
810.6677	400.09	20161.15	19329.05
810.8113	402.2743	20257.55	19425.5
810.9548	404.4579	20301.15	19468.6
811.0984	406.641	20517.65	19683.5
811.2421	408.8235	20744	19908.9
811.3857	411.0054	21037.75	20200.95
811.5293	413.1868	21541.65	20699.35
811.673	415.3675	21870.45	21027.25
811.8166	417.5477	22056.1	21209.9
811.9603	419.7273	22105.2	21260.4
812.104	421.9064	22050.8	21199.05
812.2477	424.0848	21874.05	21026.25
812.3914	426.2627	21676.25	20833.55
812.5351	428.4399	21413.55	20566.45
812.6788	430.6166	21031.05	20179
812.8226	432.7928	20673.5	19817.45
812.9663	434.9683	20413.1	19562.9
813.1101	437.1432	20187.4	19338.4
813.2539	439.3176	20038.95	19191.05
813.3977	441.4914	19901.9	19059.05
813.5415	443.6645	19898.15	19048.2
813.6853	445.8371	19834.4	18983.1
813.8291	448.0091	19780.35	18931.95
813.973	450.1806	19762	18915
814.1168	452.3514	19689.8	18838.3
814.2607	454.5216	19724.5	18864.95
814.4046	456.6913	19649.65	18796.5
814.5485	458.8603	19713.15	18863.2
814.6924	461.0288	19792.9	18947.35
814.8363	463.1967	19827.5	18981.95
814.9802	465.3639	19954.95	19112.25
815.1241	467.5306	20032.35	19182.9
815.2681	469.6967	20204.1	19357.65
815.412	471.8622	20358.4	19512.65
815.556	474.0271	20553.9	19705.45
815.7	476.1914	20596.6	19737.6
815.844	478.3551	20625.3	19771.85
815.988	480.5182	20616.4	19764.3
816.132	482.6807	20589.8	19741.8
816.276	484.8426	20692.9	19847.8
816.4201	487.0039	20998.95	20148.5
816.5641	489.1647	21411.2	20556.5
816.7082	491.3248	21888.65	21032.85
816.8522	493.4843	22057.6	21209.05
816.9963	495.6432	22086.2	21235.15
817.1404	497.8015	22015.8	21154.6
817.2845	499.9592	22029.95	21171.25
817.4286	502.1163	21998	21138.4
817.5727	504.2728	21768.25	20910.65
817.7168	506.4287	21527	20674.25
817.861	508.5839	21070.95	20220.3
818.0051	510.7386	20748.05	19893.9
818.1493	512.8927	20590.65	19727.9
818.2935	515.0461	20488.2	19629.75
818.4377	517.199	20462.65	19598.4
818.5818	519.3512	20468.6	19604.55
818.726	521.5029	20539.75	19675.1
818.8703	523.6539	20630.6	19767.65
819.0145	525.8043	20671.15	19801.2
819.1587	527.9541	20725.25	19859.6
819.303	530.1033	20735.75	19867.5
819.4472	532.2519	20749.05	19885
819.5915	534.3999	20905.65	20038.3
819.7357	536.5472	21182.5	20318.65
819.88	538.694	21670.4	20807.8
820.0243	540.8401	22292.4	21422.8
820.1686	542.9856	22793.95	21922.65
820.3129	545.1305	22936.4	22058
820.4572	547.2748	22859.1	21980.9
820.6016	549.4185	22516.45	21634.75
820.7459	551.5615	22134.45	21257.15
820.8902	553.704	22029.15	21154.5
821.0346	555.8458	21973.05	21100.75
821.1789	557.987	22009.75	21137.4
821.3233	560.1276	21991.35	21118.4
821.4677	562.2675	22000.35	21123.35
821.6121	564.4069	22052.25	21178.65
821.7565	566.5456	22048.3	21178.25
821.9009	568.6837	21982.5	21111.25
822.0453	570.8212	21717.95	20847.35
822.1897	572.958	21394.35	20520.85
822.3342	575.0942	21149.8	20278.95
822.4786	577.2299	20952	20082.25
822.6231	579.3648	20909.8	20050.5
822.7675	581.4992	20978.35	20120.2
822.912	583.6329	21193.4	20339.25
823.0565	585.766	21436.3	20580.3
823.201	587.8985	21581.15	20718.35
823.3454	590.0304	21583.4	20701.5
823.4899	592.1616	21549.45	20674
823.6345	594.2922	21445.45	20570.4
823.779	596.4222	21312	20428.5
823.9235	598.5515	21132.85	20251.65
824.068	600.6802	20986.5	20104.75
824.2126	602.8083	20813.95	19936.15
824.3571	604.9358	20791.65	19913.45
824.5017	607.0626	20716.6	19838.3
824.6462	609.1888	20742	19855.8
824.7908	611.3144	20708.9	19826.15
824.9354	613.4393	20563.65	19677.65
825.08	615.5636	20454.6	19567.05
825.2246	617.6873	20370.5	19488
825.3692	619.8103	20351.85	19465.85
825.5138	621.9327	20279.35	19396.75
825.6584	624.0544	20282.5	19404.1
825.803	626.1756	20242.7	19363.05
825.9477	628.2961	20226.8	19344.35
826.0923	630.4159	20176.25	19292.55
826.237	632.5351	20146.15	19261.7
826.3816	634.6537	20063.05	19173.35
826.5263	636.7716	20070.15	19178.5
826.6709	638.8889	20124.1	19233.95
826.8156	641.0056	20170.3	19280
826.9603	643.1216	20188.1	19294.6
827.105	645.237	20219	19328.65
827.2497	647.3518	20202.15	19320.7
827.3944	649.4659	20236.8	19353.45
827.5391	651.5793	20270.5	19389.45
827.6838	653.6922	20281.8	19398.25
827.8285	655.8043	20281.9	19394.95
827.9733	657.9159	20300.1	19415.45
828.118	660.0268	20188.25	19299.05
828.2627	662.137	20183.25	19296.2
828.4075	664.2466	20149.35	19252.45
828.5522	666.3556	20154.05	19265.1
828.697	668.4639	20118.6	19231.25
828.8418	670.5716	20208.45	19321.6
828.9865	672.6786	20298.05	19409.5
829.1313	674.785	20325.1	19432.15
829.2761	676.8907	20410.75	19522.75
829.4209	678.9958	20533.7	19648.2
829.5657	681.1002	20510.2	19617.4
829.7105	683.204	20516.55	19619.2
829.8553	685.3072	20459.5	19563.95
830.0001	687.4097	20399.55	19508.25
830.1449	689.5115	20370.8	19477.65
830.2898	691.6127	20353.65	19461.05
830.4346	693.7132	20254.65	19365.95
830.5794	695.8131	20267.95	19356.75
830.7243	697.9123	20308.7	19411.75
830.8691	700.0109	20223	19327.6
831.014	702.1089	20211.35	19314.7
831.1588	704.2061	20260.1	19367.25
831.3037	706.3028	20321.9	19424.2
831.4486	708.3987	20369.6	19472.65
831.5935	710.4941	20474.5	19580.45
831.7383	712.5887	20643.9	19749.75
831.8832	714.6827	20945.1	20048.65
832.0281	716.7761	21301.65	20411.5
832.173	718.8688	21668.75	20773.4
832.3179	720.9608	21863.85	20958.15
832.4628	723.0522	21962.2	21056.95
832.6077	725.1429	21783.05	20884.1
832.7527	727.233	21529.8	20630.45
832.8976	729.3224	21276.2	20376.1
833.0425	731.4112	20966.2	20066.35
833.1874	733.4993	20780.25	19878.55
833.3324	735.5867	20652.85	19755.85
833.4773	737.6735	20594.25	19694.6
833.6222	739.7596	20525.1	19621.75
833.7672	741.845	20490.75	19589.4
833.9122	743.9298	20457.6	19552.75
834.0571	746.014	20490.1	19593.6
834.2021	748.0974	20529.4	19628.5
834.347	750.1802	20487.95	19582.6
834.492	752.2624	20501.5	19599.65
834.637	754.3439	20522.9	19618.25
834.782	756.4247	20583.2	19669.95
834.9269	758.5048	20727.95	19822.15
835.0719	760.5843	20958.6	20053.15
835.2169	762.6631	21246.6	20341.4
835.3619	764.7413	21719.2	20815.3
835.5069	766.8188	22292.85	21388.75
835.6519	768.8956	22719	21813.85
835.7969	770.9718	23052.5	22147.05
835.9419	773.0473	22890.35	21987.85
836.0869	775.1221	22586.25	21679.65
836.232	777.1962	22189.6	21287.55
836.377	779.2697	21993.55	21088.9
836.522	781.3426	22088.5	21165.25
836.667	783.4147	22324.85	21418.5
836.8121	785.4862	22663.4	21759.3
836.9571	787.557	22715.4	21809.7
837.1021	789.6271	22392.55	21483.95
837.2472	791.6966	21836.9	20928.9
837.3922	793.7654	21305.35	20400.6
837.5373	795.8335	21043.6	20138.55
837.6823	797.901	20863.5	19955.35
837.8274	799.9678	20806.35	19898.85
837.9724	802.0339	20813.9	19905.35
838.1175	804.0993	20898.8	19979
838.2626	806.1641	20882.55	19969.35
838.4076	808.2282	20846.25	19939.3
838.5527	810.2916	20776.35	19863.95
838.6978	812.3544	20705.6	19802.1
838.8428	814.4164	20572.75	19667.15
838.9879	816.4778	20675.4	19762.55
839.133	818.5385	20631.6	19720.6
839.2781	820.5986	20721.05	19812.05
839.4232	822.658	20886.65	19974.1
839.5682	824.7166	20967.35	20058.85
839.7133	826.7747	21196.45	20281.5
839.8584	828.832	21379.95	20471.8
840.0035	830.8886	21462.15	20551.8
840.1486	832.9446	21647.3	20735.6
840.2937	834.9999	21709.45	20796.35
840.4388	837.0545	21709.1	20797.25
840.5839	839.1085	21720.5	20806.05
840.729	841.1618	21711.35	20794.6
840.8741	843.2143	21684.6	20772.45
841.0192	845.2662	21572.2	20658.95
841.1643	847.3175	21517.55	20605.85
841.3095	849.368	21407.65	20496.6
841.4546	851.4179	21322.05	20415.6
841.5997	853.467	21191.2	20280.2
841.7448	855.5155	21151.6	20240.95
841.8899	857.5633	21038.2	20125.25
842.0351	859.6105	20928.6	20017.75
842.1802	861.6569	20873.8	19962.35
842.3253	863.7027	20839.45	19923.35
842.4704	865.7478	20821.25	19909.1
842.6156	867.7922	20848.6	19937.6
842.7607	869.8359	20929.75	20014.15
842.9058	871.8789	21071.15	20156.8
843.0509	873.9212	21246.3	20299.6
843.1961	875.9629	21365.6	20451.3
843.3412	878.0039	21558.65	20645.1
843.4863	880.0441	21705.8	20793.15
843.6315	882.0837	21705.8	20795
843.7766	884.1226	21615.3	20698.5
843.9218	886.1609	21565.5	20653.3
844.0669	888.1984	21457.45	20543.5
844.212	890.2352	21503.6	20589.8
844.3572	892.2714	21463	20542.4
844.5023	894.3069	21481.25	20564.55
844.6475	896.3416	21364.9	20450.55
844.7926	898.3757	21376	20460.75
844.9377	900.4091	21344.25	20426.7
845.0829	902.4418	21383.25	20461.05
845.228	904.4739	21395.2	20474.35
845.3732	906.5052	21401.6	20483.05
845.5183	908.5358	21314.95	20397.65
845.6635	910.5658	21199.95	20277.85
845.8086	912.595	21044.55	20127.8
845.9538	914.6236	20889.15	19971.9
846.0989	916.6515	20840.7	19924.05
846.2441	918.6786	20834.75	19913.8
846.3892	920.7051	20911.65	19993.85
846.5344	922.7309	21061.25	20145.1
846.6795	924.756	21107.65	20189.05
846.8246	926.7804	21238.05	20320.75
846.9698	928.8041	21135.9	20216.1
847.1149	930.8272	21232.5	20315.25
847.2601	932.8495	21100.7	20180.95
847.4052	934.8711	21096.1	20176.75
847.5504	936.892	20919.6	20002
847.6955	938.9123	20766.25	19846.65
847.8407	940.9318	20653.25	19733.3
847.9858	942.9506	20556.9	19639.2
848.131	944.9688	20425	19507.6
848.2761	946.9862	20426.15	19507.8
848.4213	949.003	20322.7	19403.6
848.5664	951.019	20349.45	19430.4
848.7115	953.0344	20343.75	19429.2
848.8567	955.0491	20404.3	19486.7
849.0018	957.063	20504.15	19586.85
849.147	959.0763	20662.3	19747.4
849.2921	961.0888	20674.35	19755
849.4373	963.1007	20768.3	19847.95
849.5824	965.1119	20817.35	19902.95
849.7275	967.1223	20855.75	19949.75
849.8727	969.1321	20896.9	19980.05
850.0178	971.1412	20947.8	19997.25
850.1629	973.1495	20911.1	19994.5
850.3081	975.1572	21040.65	20072.4
850.4532	977.1641	21060.1	20140.9
850.5983	979.1704	21036.85	20116.5
850.7435	981.1759	21002.15	20076.6
850.8886	983.1808	21097.45	20177.3
851.0337	985.1849	21177.3	20246.85
851.1788	987.1884	21316.05	20398.4
851.324	989.1911	21488.05	20566.6
851.4691	991.1932	21592.6	20673.7
851.6142	993.1945	21670.9	20750.8
851.7593	995.1951	21589.25	20669.95
851.9045	997.1951	21542.3	20616.1
852.0496	999.1943	21496.2	20581
852.1947	1001.1928	21409.7	20489.15
852.3398	1003.1906	21413.2	20493.65
852.4849	1005.1877	21500.2	20582
852.63	1007.1841	21414	20494.9
852.7751	1009.1798	21354	20436.1
852.9202	1011.1748	21161.45	20206.15
853.0653	1013.1691	20987.05	20063.2
853.2104	1015.1627	20727.2	19807.5
853.3555	1017.1556	20494.35	19576.4
853.5006	1019.1477	20437	19519.4
853.6457	1021.1392	20269.8	19355.05
853.7908	1023.1299	20273.25	19364.45
853.9359	1025.12	20331.6	19423.35
854.081	1027.1093	20345.4	19446.15
854.2261	1029.0979	20447.2	19549.2
854.3712	1031.0859	20466.7	19564.9
854.5163	1033.0731	20485.9	19576.45
854.6613	1035.0596	20418.85	19508.35
854.8064	1037.0454	20239	19326.25
854.9515	1039.0304	20157.7	19241
855.0965	1041.0148	19999.5	19079.2
855.2416	1042.9985	19890.35	18970.75
855.3867	1044.9814	19889.8	18973.7
855.5317	1046.9636	19835.4	18916.75
855.6768	1048.9452	19803.75	18887.35
855.8219	1050.926	19830.2	18914.2
855.9669	1052.9061	19760.9	18844.1
856.112	1054.8855	19787.75	18871.95
856.257	1056.8642	19840	18925.1
856.4021	1058.8421	19914.7	18993.2
856.5471	1060.8194	19921.3	19003.3
856.6921	1062.7959	19949.4	19030.85
856.8372	1064.7717	19979.95	19060.15
856.9822	1066.7469	19975.65	19058.35
857.1272	1068.7213	20011.4	19088.25
857.2723	1070.695	20032.85	19117
857.4173	1072.6679	19922.8	19003.9
857.5623	1074.6402	19873.15	18955.2
857.7073	1076.6117	19900.95	18976.85
857.8523	1078.5826	19907.6	18985.8
857.9973	1080.5527	19923.9	19006.05
858.1423	1082.5221	19960.9	19039.9
858.2873	1084.4908	20151.2	19231.6
858.4323	1086.4587	20335.3	19419.05
858.5773	1088.426	20490.55	19574.1
858.7223	1090.3925	20425.4	19501.35
858.8673	1092.3584	20425.55	19505.7
859.0123	1094.3235	20270.65	19351.55
859.1573	1096.2879	20168.7	19249
859.3022	1098.2515	20171.7	19255.15
859.4472	1100.2145	20214.45	19297.55
859.5922	1102.1767	20295.35	19373.8
859.7371	1104.1382	20480	19561.8
859.8821	1106.099	20704.7	19786.45
860.027	1108.0591	20862.9	19944.65
860.172	1110.0185	20994.25	20075.95
860.3169	1111.9771	21020.8	20102.65
860.4619	1113.9351	20774.55	19858.75
860.6068	1115.8923	20544.8	19626.3
860.7517	1117.8488	20208.45	19288.7
860.8967	1119.8045	19934.55	19016
861.0416	1121.7596	19822.45	18901.6
861.1865	1123.7139	19711.2	18796.3
861.3314	1125.6675	19739.05	18822.25
861.4763	1127.6204	19800.85	18883.3
861.6212	1129.5726	19788.2	18869.55
861.7661	1131.524	19785.65	18866.55
861.911	1133.4748	19826.15	18909.65
862.0559	1135.4248	19737.3	18821.3
862.2008	1137.3741	19796.85	18877.65
862.3457	1139.3226	19739.2	18819.6
862.4905	1141.2705	19664.4	18747.6
862.6354	1143.2176	19579.15	18656.15
862.7803	1145.164	19578.9	18656.3
862.9251	1147.1097	19604.5	18686.1
863.07	1149.0546	19590.75	18670.6
863.2148	1150.9989	19483.95	18564.65
863.3597	1152.9424	19377.3	18456.5
863.5045	1154.8852	19219.5	18302.65
863.6493	1156.8272	19094.9	18176.35
863.7942	1158.7686	19068.55	18144.95
863.939	1160.7092	18995.05	18075.5
864.0838	1162.6491	18980.95	18063.2
864.2286	1164.5883	19076.85	18156.1
864.3734	1166.5267	19144.9	18221.05
864.5182	1168.4644	19288.8	18370.4
864.663	1170.4014	19486.55	18568.1
864.8078	1172.3377	19721.05	18804.3
864.9526	1174.2732	19979.9	19063.6
865.0974	1176.2081	20212	19295.7
865.2421	1178.1421	20421.25	19502.15
865.3869	1180.0755	20628.7	19709.25
865.5317	1182.0082	20695.4	19778.35
865.6764	1183.9401	20685.95	19766.85
865.8212	1185.8713	20540.25	19628.15
865.9659	1187.8017	20308.6	19400.05
866.1106	1189.7315	20067.75	19166.2
866.2554	1191.6605	19746.85	18841.6
866.4001	1193.5888	19551.4	18645.75
866.5448	1195.5163	19426.3	18510.8
866.6895	1197.4432	19332.3	18416.55
866.8342	1199.3693	19265.55	18350.85
866.9789	1201.2947	19168.7	18248.15
867.1236	1203.2193	19159.6	18244.4
867.2683	1205.1432	19194.95	18278.9
867.413	1207.0664	19218.5	18302.6
867.5576	1208.9889	19223.8	18306.25
867.7023	1210.9106	19252.25	18338.65
867.847	1212.8316	19273.45	18356.45
867.9916	1214.7519	19339.4	18410.95
868.1363	1216.6715	19316.65	18400.95
868.2809	1218.5903	19345.35	18430.5
868.4255	1220.5084	19337.25	18420.75
868.5701	1222.4257	19307.55	18392.75
868.7148	1224.3424	19228.1	18317.05
868.8594	1226.2583	19289.6	18370
869.004	1228.1735	19337.8	18422.6
869.1486	1230.0879	19431.05	18516.3
869.2932	1232.0016	19583.4	18670.6
869.4377	1233.9146	19583.3	18666.5
869.5823	1235.8269	19480.45	18566.65
869.7269	1237.7384	19364.4	18446.25
869.8715	1239.6492	19143.1	18227.4
870.016	1241.5592	19044.8	18128.1
870.1606	1243.4686	18961.25	18045.5
870.3051	1245.3772	18905.7	17990.85
870.4496	1247.285	18903.55	17988.05
870.5941	1249.1922	18824.95	17910.4
870.7387	1251.0986	18827	17911.75
870.8832	1253.0042	18838.8	17925.35
871.0277	1254.9092	18871.75	17956
871.1722	1256.8134	18906.2	17994
871.3167	1258.7169	19083.1	18168.8
871.4611	1260.6196	19168.9	18255.6
871.6056	1262.5216	19443.55	18526.8
871.7501	1264.4229	19588.4	18673.6
871.8945	1266.3234	19720.1	18808.2
872.039	1268.2232	19798.2	18881.5
872.1834	1270.1223	19769.3	18854.75
872.3278	1272.0207	19775.5	18860
872.4723	1273.9183	19717.35	18796.5
872.6167	1275.8151	19613.1	18697.8
872.7611	1277.7113	19524.5	18610.25
872.9055	1279.6067	19372.45	18457.45
873.0499	1281.5014	19269.85	18352.3
873.1943	1283.3953	19256.5	18339.05
873.3386	1285.2885	19264.1	18352
873.483	1287.181	19285.55	18372.2
873.6274	1289.0727	19382.9	18473.3
873.7717	1290.9637	19416.25	18505
873.9161	1292.854	19584.25	18669.85
874.0604	1294.7435	19693.4	18780.3
874.2047	1296.6323	19878.9	18968.95
874.349	1298.5204	20078.85	19161.2
874.4933	1300.4077	20292.4	19375.1
874.6376	1302.2943	20429.1	19513.35
874.7819	1304.1802	20485.85	19572.3
874.9262	1306.0653	20359.9	19443.45
875.0705	1307.9497	20146.65	19231
875.2147	1309.8333	20012	19101.15
875.359	1311.7162	19947.65	19035.2
875.5032	1313.5984	19899.3	18983.6
875.6475	1315.4798	19961.25	19029.65
875.7917	1317.3605	20023	19094.35
875.9359	1319.2405	20112.2	19195.2
876.0801	1321.1197	20028.3	19113.3
876.2243	1322.9982	19899.2	18978.95
876.3685	1324.876	19826.45	18911.2
876.5127	1326.753	19751.9	18842.3
876.6569	1328.6293	19692.1	18777.15
876.801	1330.5048	19723.35	18804.7
876.9452	1332.3796	19613.05	18696.85
877.0893	1334.2537	19639.05	18702
877.2335	1336.127	19562.55	18651.05
877.3776	1337.9996	19475.3	18564.05
877.5217	1339.8714	19461.7	18547.8
877.6658	1341.7426	19403.75	18446.15
877.8099	1343.6129	19375.9	18459.15
877.954	1345.4826	19286.9	18374.4
878.0981	1347.3515	19274.85	18360.05
878.2422	1349.2196	19227.5	18311.35
878.3862	1351.087	19246.45	18328.9
878.5303	1352.9537	19238.4	18319.55
878.6743	1354.8197	19388.6	18471.3
878.8184	1356.6849	19535.7	18618.2
878.9624	1358.5493	19615.15	18701.05
879.1064	1360.4131	19623.45	18710.6
879.2504	1362.276	19574.85	18663.3
879.3944	1364.1383	19402.65	18489.35
879.5384	1365.9998	19165.25	18245
879.6823	1367.8606	18834.8	17917.65
879.8263	1369.7206	18547.2	17632.1
879.9702	1371.5799	18314.35	17398.5
880.1142	1373.4384	18166.8	17251.35
880.2581	1375.2962	17998.85	17081
880.402	1377.1533	17712.3	16799.1
880.5459	1379.0096	17398.9	16489.6
880.6898	1380.8652	17105.65	16192.75
880.8337	1382.7201	16851.25	15939.25
880.9776	1384.5742	16611.9	15701.4
881.1215	1386.4275	16397.6	15480.5
881.2653	1388.2802	16265.45	15351.8
881.4092	1390.132	16159.55	15243.35
881.553	1391.9832	16079.3	15164.1
881.6968	1393.8336	15957.85	15042.55
881.8406	1395.6832	15885.5	14967.3
881.9844	1397.5322	15834.25	14919.9
882.1282	1399.3803	15796.6	14877.25
882.272	1401.2278	15734.45	14820.95
882.4158	1403.0745	15752.2	14839.55
882.5595	1404.9204	15670.75	14759.25
882.7033	1406.7656	15698.3	14785.85
882.847	1408.6101	15684.65	14774.7
882.9908	1410.4538	15637.35	14723.4
883.1345	1412.2968	15675.1	14761.75
883.2782	1414.139	15701.55	14788.75
883.4219	1415.9805	15752.85	14839.45
883.5656	1417.8213	15844.55	14926.35
883.7092	1419.6613	15932.9	15020.5
883.8529	1421.5006	16101.35	15189.15
883.9965	1423.3391	16292.4	15378.1
884.1402	1425.1769	16610.6	15697.4
884.2838	1427.0139	17057.1	16143.85
884.4274	1428.8502	17614.7	16698.75
884.571	1430.6858	18182.6	17270.95
884.7146	1432.5206	18550.55	17637.05
884.8582	1434.3547	18782.8	17868.15
885.0018	1436.188	18832.45	17917.55
885.1453	1438.0206	18749.4	17836.3
885.2889	1439.8524	18562.95	17649.05
885.4324	1441.6835	18430.3	17519.95
885.5759	1443.5139	18368.45	17453.65
885.7194	1445.3435	18261	17351.6
885.8629	1447.1724	18219.8	17309.2
886.0064	1449.0005	18113.65	17203.05
886.1499	1450.8279	18005.5	17094.6
886.2933	1452.6545	17950.9	17039.45
886.4368	1454.4804	17995.8	17087.35
886.5802	1456.3056	17967.2	17051.5
886.7237	1458.13	17850.15	16939.25
886.8671	1459.9536	17620.45	16709.25
887.0105	1461.7766	17306	16394.95
887.1539	1463.5987	16853.05	15939.7
887.2972	1465.4202	16481.25	15567.4
887.4406	1467.2409	16132.7	15221.3
887.584	1469.0608	15849.6	14939.35
887.7273	1470.88	15564.45	14655.35
887.8706	1472.6984	15371.4	14461.85
888.0139	1474.5161	15132.2	14218.25
888.1572	1476.3331	14939.4	14029.1
888.3005	1478.1493	14819.05	13906.5
888.4438	1479.9648	14719.95	13806.85
888.5871	1481.7795	14601.7	13690.7
888.7303	1483.5935	14542.75	13634.85
888.8736	1485.4067	14459.6	13547.6
889.0168	1487.2192	14411.85	13498.9
889.16	1489.031	14358.9	13444.75
889.3032	1490.842	14279.9	13367.25
889.4464	1492.6522	14280.05	13367.35
889.5896	1494.4618	14234.15	13323.05
889.7327	1496.2705	14190.1	13278.8
889.8759	1498.0785	14150.55	13240.3
890.019	1499.8858	14086	13174.35
890.1622	1501.6924	14014	13105.65
890.3053	1503.4981	14011.9	13099.2
890.4484	1505.3032	13964.3	13052.85
890.5914	1507.1075	13933.05	13022
890.7345	1508.911	13876.95	12967.45
890.8776	1510.7138	13830.4	12918.4
891.0206	1512.5159	13771.7	12860.15
891.1637	1514.3172	13686.9	12778.65
891.3067	1516.1178	13653.4	12744
891.4497	1517.9176	13622.65	12712.95
891.5927	1519.7166	13549.6	12639.65
891.7357	1521.515	13484.65	12569.8
891.8786	1523.3126	13466.75	12557.3
892.0216	1525.1094	13446.15	12533.95
892.1645	1526.9055	13381.3	12476.15
892.3074	1528.7008	13329.15	12421.05
892.4503	1530.4954	13261.2	12352.5
892.5932	1532.2893	13245.3	12341.4
892.7361	1534.0824	13195.85	12281.65
892.879	1535.8747	13171.35	12265.35
893.0218	1537.6663	13149.7	12242.75
893.1647	1539.4572	13128.1	12221.25
893.3075	1541.2473	13082.95	12177.8
893.4503	1543.0367	13048.55	12142.15
893.5931	1544.8253	13031.15	12122.75
893.7359	1546.6132	13032.6	12124.8
893.8787	1548.4003	12975.15	12059.2
894.0214	1550.1867	13005.5	12090.05
894.1642	1551.9723	13001.75	12094.85
894.3069	1553.7572	13015.6	12112.4
894.4496	1555.5414	13021.2	12118.2
894.5923	1557.3247	13089.4	12188.85
894.735	1559.1074	13132.75	12231.95
894.8777	1560.8893	13195.55	12293.3
895.0204	1562.6705	13215.35	12311.65
895.163	1564.4509	13284.85	12383.15
895.3056	1566.2305	13315.15	12416.6
895.4482	1568.0094	13394.4	12496.35
895.5908	1569.7876	13420.75	12522.45
895.7334	1571.565	13444.1	12541.95
895.876	1573.3417	13443.95	12545.05
896.0186	1575.1176	13410.45	12508.45
896.1611	1576.8928	13360.45	12463.3
896.3036	1578.6672	13237.85	12340.85
896.4461	1580.4409	13144.55	12252.95
896.5886	1582.2138	12991.6	12093.45
896.7311	1583.986	12906.9	12008.4
896.8736	1585.7575	12828.7	11929
897.0161	1587.5282	12771.4	11874.65
897.1585	1589.2981	12735.45	11839.85
897.3009	1591.0673	12683.25	11789.1
897.4433	1592.8358	12664.8	11767.35
897.5857	1594.6035	12657.15	11755.15
897.7281	1596.3704	12635.15	11737.1
897.8705	1598.1366	12647.15	11747.75
898.0128	1599.9021	12675.7	11781
898.1551	1601.6668	12724.65	11823.6
898.2975	1603.4308	12744.95	11845.2
898.4398	1605.194	12853.45	11951.05
898.5821	1606.9564	12964.6	12072.1
898.7243	1608.7182	13063.45	12171.05
898.8666	1610.4791	13164.25	12276.95
899.0088	1612.2394	13335.15	12449.8
899.1511	1613.9988	13510	12621.4
899.2933	1615.7576	13707.2	12813.9
899.4355	1617.5156	13911.9	13010.6
899.5776	1619.2728	14098.8	13200.7
899.7198	1621.0293	14186.35	13290
899.862	1622.785	14203.6	13306.55
900.0041	1624.54	14127.7	13231.9
900.1462	1626.2942	13947	13056.5
900.2883	1628.0477	13664.95	12771.85
900.4304	1629.8005	13433.3	12537.7
900.5725	1631.5525	13172.05	12282.3
900.7145	1633.3037	12994.15	12103.7
900.8566	1635.0542	12840.45	11948.85
900.9986	1636.804	12720	11829.1
901.1406	1638.553	12719.25	11745
901.2826	1640.3013	12618.3	11726.35
901.4245	1642.0488	12582.7	11689.9
901.5665	1643.7955	12603.05	11714.1
901.7085	1645.5416	12613.75	11723.15
901.8504	1647.2868	12700.95	11810.85
901.9923	1649.0313	12779.2	11884.3
902.1342	1650.7751	12920.15	12024.15
902.2761	1652.5181	13068.2	12176.75
902.4179	1654.2604	13234.55	12343.6
902.5598	1656.0019	13473.1	12583.2
902.7016	1657.7427	13748.6	12856.7
902.8434	1659.4828	14025.05	13133.1
902.9852	1661.222	14230.45	13335.15
903.127	1662.9606	14216.85	13324.35
903.2687	1664.6984	14028.15	13133.4
903.4105	1666.4354	13609.45	12714.05
903.5522	1668.1717	13118.75	12223.7
903.6939	1669.9072	12618.2	11724.65
903.8356	1671.642	12186.3	11290.65
903.9773	1673.3761	11808.75	10914.5
904.119	1675.1094	11508.5	10616.35
904.2606	1676.8419	11305.5	10415.5
904.4022	1678.5737	11116.2	10223.2
904.5439	1680.3048	10992.6	10099.55
904.6855	1682.0351	10857.3	9963.6
904.827	1683.7646	10746.75	9849.25
904.9686	1685.4934	10661.45	9770.75
905.1101	1687.2215	10598.5	9706.05
905.2517	1688.9488	10524.5	9635.75
905.3932	1690.6754	10420.35	9528.35
905.5347	1692.4012	10398.7	9506.65
905.6761	1694.1263	10364.55	9471.65
905.8176	1695.8506	10312.4	9420.3
905.9591	1697.5742	10252.3	9360.95
906.1005	1699.297	10216.7	9329
906.2419	1701.0191	10123.4	9233.75
906.3833	1702.7404	10092.45	9205.9
906.5246	1704.461	10044.05	9153.9
906.666	1706.1808	9982.3	9092.25
906.8073	1707.8999	9964.25	9074.75
906.9487	1709.6182	9933.3	9046.6
907.09	1711.3358	9898.9	9012.6
907.2313	1713.0527	9861.15	8976.55
907.3725	1714.7688	9816.5	8922.8
907.5138	1716.4841	9769.4	8878.7
907.655	1718.1987	9779.15	8883.75
907.7962	1719.9126	9710.5	8822.4
907.9374	1721.6257	9674.85	8786.15
908.0786	1723.338	9660.35	8775.55
908.2198	1725.0496	9604.6	8714.35
908.3609	1726.7605	9557.05	8668.9
908.502	1728.4706	9520.3	8631.45
908.6431	1730.18	9469.7	8582.75
908.7842	1731.8886	9458.05	8573.2
908.9253	1733.5964	9430.35	8540.5
909.0664	1735.3036	9402.3	8514.3
909.2074	1737.0099	9381.75	8495.25
909.3484	1738.7156	9350.35	8465.35
909.4894	1740.4204	9303.75	8415.35
909.6304	1742.1246	9288.8	8399.5
909.7714	1743.8279	9254.5	8367.35
909.9123	1745.5306	9263.65	8378.15
910.0532	1747.2325	9211.75	8328.9
910.1941	1748.9336	9172.45	8288.8
910.335	1750.634	9120.05	8232.3
910.4759	1752.3336	9119.8	8234.35
910.6168	1754.0325	9100.45	8217.75
910.7576	1755.7307	9070.6	8186
910.8984	1757.4281	9097.1	8209.35
911.0392	1759.1247	9056.55	8159.9
911.18	1760.8206	9026.45	8132.1
911.3208	1762.5158	9013.95	8119.35
911.4615	1764.2102	8974.7	8088.3
911.6022	1765.9039	8952.8	8067.45
911.7429	1767.5968	8913.65	8030.6
911.8836	1769.289	8891.75	8006.95
912.0243	1770.9804	8869.05	7982.6
912.1649	1772.6711	8850.95	7962.2
912.3056	1774.361	8835.7	7944.95
912.4462	1776.0502	8807.95	7919.55
912.5868	1777.7386	8795.5	7904.85
912.7274	1779.4263	8785.2	7898.75
912.8679	1781.1132	8753	7868.85
913.0084	1782.7994	8719.8	7835.8
913.149	1784.4849	8693.9	7812.35
913.2895	1786.1696	8696.55	7802.55
913.4299	1787.8535	8688.8	7805.5
913.5704	1789.5367	8642	7758.8
913.7108	1791.2192	8648.6	7765.45
913.8513	1792.9009	8621.7	7709.65
913.9917	1794.5818	8588.6	7702.25
914.132	1796.2621	8550.1	7665.55
914.2724	1797.9415	8521	7634.2
914.4128	1799.6202	8505.05	7619.15
914.5531	1801.2982	8494.3	7607.25
914.6934	1802.9755	8482.15	7595.3
914.8337	1804.6519	8459.6	7573.9
914.9739	1806.3277	8436.4	7551.5
915.1142	1808.0027	8387	7504.85
915.2544	1809.6769	8393	7510.75
915.3946	1811.3504	8363.6	7480.95
915.5348	1813.0231	8342.85	7460.7
915.675	1814.6951	8297.15	7413.35
915.8151	1816.3664	8323.35	7437.3
915.9553	1818.0369	8293	7405.2
916.0954	1819.7067	8254.1	7369.6
916.2355	1821.3757	8245.5	7358.3
916.3755	1823.044	8233.75	7348
916.5156	1824.7115	8229.3	7342.1
916.6556	1826.3783	8195.55	7309.6
916.7956	1828.0443	8156.1	7273.4
916.9356	1829.7096	8141.4	7257.4
917.0756	1831.3741	8128.15	7238.85
917.2155	1833.0379	8101.85	7217.65
917.3555	1834.701	8071.75	7187.3
917.4954	1836.3633	8052.2	7170.15
917.6353	1838.0248	8032.95	7148.25
917.7751	1839.6856	8017.1	7131.75
917.915	1841.3457	8017.15	7132.95
918.0548	1843.005	8010.4	7126.1
918.1946	1844.6636	7987	7104.1
918.3344	1846.3214	7985	7102.1
918.4742	1847.9785	7968.7	7085.9
918.6139	1849.6349	7955.6	7067.6
918.7537	1851.2904	7962.25	7065.1
918.8934	1852.9453	7928.05	7038.9
919.0331	1854.5994	7898.65	7010.65
919.1727	1856.2528	7902.75	7013
919.3124	1857.9054	7879.9	6993.75
919.452	1859.5572	7860.5	6977.5
919.5916	1861.2083	7831.05	6945.15
919.7312	1862.8587	7820.05	6934.9
919.8708	1864.5084	7793.35	6906.8
920.0103	1866.1572	7768.05	6882.55
920.1498	1867.8054	7729.55	6844.7
920.2893	1869.4528	7724.15	6836.05
920.4288	1871.0994	7712.6	6825.9
920.5683	1872.7453	7709.25	6823.55
920.7077	1874.3905	7705.9	6802.55
920.8471	1876.0349	7657.5	6770.65
920.9865	1877.6786	7662.2	6775.55
921.1259	1879.3215	7632.5	6748.65
921.2653	1880.9637	7642.2	6756.25
921.4046	1882.6051	7615.25	6732.3
921.5439	1884.2458	7578.8	6691.95
921.6832	1885.8858	7545.6	6661.8
921.8225	1887.525	7538.35	6651.55
921.9617	1889.1634	7493.7	6608.55
922.101	1890.8011	7488.8	6601.65
922.2402	1892.4381	7476.3	6590.55
922.3794	1894.0743	7482.2	6596.9
922.5185	1895.7098	7473.05	6590.75
922.6577	1897.3446	7439.35	6551.4
922.7968	1898.9786	7411.05	6520.65
922.9359	1900.6118	7397.7	6512.1
923.075	1902.2443	7358.65	6475.3
923.214	1903.8761	7340.8	6455.85
923.3531	1905.5071	7302.5	6415.75
923.4921	1907.1374	7281.85	6397.05
923.6311	1908.7669	7238.75	6354.7
923.77	1910.3957	7255.5	6371.25
923.909	1912.0237	7232.1	6349.3
924.0479	1913.651	7220.15	6336.65
924.1868	1915.2776	7197.75	6314.05
924.3257	1916.9034	7175.45	6292.15
924.4646	1918.5285	7135.85	6254.25
924.6034	1920.1528	7116.25	6230.45
924.7422	1921.7764	7090.4	6207.6
924.881	1923.3992	7067.15	6183.15
925.0198	1925.0213	7028.5	6143.75
925.1586	1926.6427	7006.55	6124.35
925.2973	1928.2633	7069.8	6087.7
925.436	1929.8832	6972.55	6085.65
925.5747	1931.5023	6952.1	6070.65
925.7134	1933.1207	6934.2	6049.4
925.852	1934.7383	6934.75	6050.55
925.9906	1936.3552	6888.15	6004.8
926.1292	1937.9714	6888.55	6005.3
926.2678	1939.5868	6836.3	5951.85
926.4064	1941.2015	6823	5937.75
926.5449	1942.8154	6822.9	5938
926.6834	1944.4286	6775.25	5888.95
926.8219	1946.041	6763	5851.8
926.9604	1947.6528	6735.25	5845.3
927.0988	1949.2637	6690.3	5808.15
927.2372	1950.8739	6676.3	5790.95
927.3756	1952.4834	6667.95	5783.65
927.514	1954.0921	6672.5	5786.8
927.6523	1955.7001	6645.8	5760.15
927.7907	1957.3074	6609.85	5728.5
927.929	1958.9139	6582.95	5702.05
928.0673	1960.5197	6564.2	5679.7
928.2055	1962.1247	6539.7	5657.5
928.3438	1963.729	6515.85	5634.8
928.482	1965.3325	6486.65	5602.55
928.6202	1966.9353	6478.8	5600.4
928.7584	1968.5374	6470.45	5589.5
928.8965	1970.1387	6427.45	5542.55
929.0346	1971.7393	6405.75	5523.25
929.1727	1973.3392	6384.6	5504.05
929.3108	1974.9383	6355.1	5476.1
929.4489	1976.5366	6327.45	5448.15
929.5869	1978.1342	6330.05	5451.1
929.7249	1979.7311	6327.4	5445.6
929.8629	1981.3273	6299.75	5420.15
930.0009	1982.9227	6298.25	5416.85
930.1388	1984.5173	6262.6	5383.75
930.2767	1986.1112	6245.75	5368.1
930.4146	1987.7044	6210.85	5330.25
930.5525	1989.2968	6205.05	5324
930.6904	1990.8885	6184.6	5301.05
930.8282	1992.4795	6168.5	5288.25
930.966	1994.0697	6150.4	5273.1
931.1038	1995.6592	6132.1	5250.7
931.2415	1997.2479	6119.85	5239.15
931.3793	1998.8359	6105.3	5227.25
931.517	2000.4232	6075.5	5199.25
931.6547	2002.0097	6061.95	5187.35
931.7923	2003.5955	6038.45	5160.1
931.93	2005.1805	6042.4	5161.3
932.0676	2006.7648	6017.45	5141.45
932.2052	2008.3484	5996.2	5115.8
932.3427	2009.9312	6008.85	5130.6
932.4803	2011.5133	5948.4	5074.45
932.6178	2013.0946	5945.75	5070.55
932.7553	2014.6752	5929.1	5053.1
932.8928	2016.2551	5925.75	5048.85
933.0302	2017.8342	5876.1	5000.8
933.1676	2019.4126	5875.4	4999.2
933.305	2020.9902	5856.8	4982.1
933.4424	2022.5672	5851.65	4976.1
933.5798	2024.1433	5841.35	4961.8
933.7171	2025.7188	5830.9	4958.4
933.8544	2027.2935	5803.45	4925.65
933.9917	2028.8674	5785.1	4910.6
934.129	2030.4406	5771.05	4897.55
934.2662	2032.0131	5732.9	4858.1
934.4034	2033.5849	5719.85	4842.45
934.5406	2035.1559	5710.35	4835.2
934.6778	2036.7261	5717.6	4843.6
934.8149	2038.2957	5693.45	4816.85
934.952	2039.8645	5710.1	4830.75
935.0891	2041.4325	5690.55	4807.7
935.2262	2042.9998	5667.15	4792.5
935.3632	2044.5664	5656.65	4778.25
935.5002	2046.1323	5622.4	4746.4
935.6372	2047.6974	5621.95	4749.2
935.7742	2049.2617	5579.3	4703.85
935.9111	2050.8254	5607.15	4726.2
936.048	2052.3883	5588.5	4709.35
936.1849	2053.9504	5563.7	4685.6
936.3218	2055.5118	5530.65	4652.25
936.4586	2057.0725	5529.75	4648.85
936.5955	2058.6325	5524.1	4648.25
936.7323	2060.1917	5508.15	4632.35
936.869	2061.7502	5482.05	4602.15
937.0058	2063.3079	5472.9	4598.5
937.1425	2064.8649	5451	4571.3
937.2792	2066.4212	5430.65	4553.75
937.4159	2067.9767	5425.25	4548.75
937.5525	2069.5315	5407.3	4528.95
937.6891	2071.0856	5395.65	4519.15
937.8257	2072.6389	5361.3	4485.2
937.9623	2074.1915	5346.55	4473.85
938.0989	2075.7433	5335.15	4456.95
938.2354	2077.2945	5322.2	4446.6
938.3719	2078.8448	5299.15	4421.8
938.5084	2080.3945	5285.6	4408.15
938.6448	2081.9434	5292.55	4415.3
938.7812	2083.4916	5270.9	4391.85
938.9176	2085.039	5241.55	4357.9
939.054	2086.5857	5248.65	4365.9
939.1903	2088.1317	5233.25	4351.05
939.3267	2089.677	5213.7	4328.85
939.463	2091.2215	5194.7	4313.3
939.5992	2092.7652	5200.95	4317.5
939.7355	2094.3083	5172.75	4289.65
939.8717	2095.8506	5166.8	4285.3
940.0079	2097.3921	5151.45	4271.45
940.1441	2098.933	5167.4	4288.9
940.2802	2100.4731	5136.2	4257.95
940.4163	2102.0124	5133.2	4234.45
940.5524	2103.5511	5118.75	4237.7
940.6885	2105.089	5112.75	4231.25
940.8245	2106.6261	5114.7	4232.95
940.9606	2108.1626	5075.5	4195.4
941.0965	2109.6983	5080.15	4169.5
941.2325	2111.2332	5063.65	4181.65
941.3684	2112.7675	5049.5	4168.45
941.5044	2114.301	5011.9	4131.15
941.6403	2115.8337	5020.8	4138.7
941.7761	2117.3657	5011.4	4131.15
941.912	2118.897	4999.4	4118.45
942.0478	2120.4276	5007.35	4120
942.1835	2121.9575	4980.2	4101.85
942.3193	2123.4866	4985.9	4092.9
942.455	2125.0149	4970.65	4088.95
942.5907	2126.5426	4931.7	4051.8
942.7264	2128.0695	4922.85	4041.35
942.8621	2129.5956	4895	4018.65
942.9977	2131.1211	4899.95	4016.3
943.1333	2132.6458	4887.5	4008.65
943.2689	2134.1698	4873.2	3992.15
943.4044	2135.693	4878.25	3992
943.54	2137.2155	4846.35	3965.9
943.6755	2138.7373	4840.15	3961.1
943.8109	2140.2584	4829.25	3951.9
943.9464	2141.7787	4818.15	3934.6
944.0818	2143.2983	4785.6	3908.05
944.2172	2144.8171	4773.25	3897.1
944.3526	2146.3353	4750	3871.8
944.4879	2147.8527	4753.1	3876.9
944.6232	2149.3693	4764.95	3882.65
944.7585	2150.8853	4751.55	3869.05
944.8938	2152.4005	4726.45	3843.45
945.029	2153.9149	4723.4	3841
945.1642	2155.4287	4710.3	3829.1
945.2994	2156.9417	4715.9	3833.05
945.4346	2158.454	4686.35	3804.65
945.5697	2159.9655	4676	3796.75
945.7048	2161.4764	4660	3783.4
945.8399	2162.9865	4640.75	3762.95
945.9749	2164.4958	4627.8	3749.1
946.1099	2166.0045	4621.05	3739.4
946.2449	2167.5124	4615.8	3736.75
946.3799	2169.0195	4620.5	3741.3
946.5148	2170.526	4598.25	3717.55
946.6498	2172.0317	4582.7	3703.35
946.7846	2173.5367	4582.05	3700.2
946.9195	2175.0409	4578.95	3698.4
947.0543	2176.5445	4569.45	3691.7
947.1891	2178.0473	4552.35	3671.4
947.3239	2179.5494	4530.85	3646.65
947.4587	2181.0507	4513.95	3633.05
947.5934	2182.5513	4490.75	3610.4
947.7281	2184.0512	4510.05	3629.35
947.8628	2185.5504	4465.1	3586.9
947.9974	2187.0488	4457.05	3578.3
948.132	2188.5465	4435.4	3557.65
948.2666	2190.0435	4431	3552.2
948.4012	2191.5397	4425	3543.9
948.5357	2193.0353	4431.45	3552
948.6702	2194.5301	4399.05	3515.65
948.8047	2196.0241	4374.9	3494.3
948.9392	2197.5175	4372.2	3488
949.0736	2199.0101	4367.5	3481.25
949.208	2200.502	4352.3	3471.9
949.3424	2201.9931	4340.95	3462.7
949.4767	2203.4835	4319.05	3439
949.611	2204.9733	4306.75	3421.5
949.7453	2206.4622	4293.65	3417.15
949.8796	2207.9505	4292.65	3413.8
950.0138	2209.438	4267.35	3392.5
950.148	2210.9248	4256.9	3378.2
950.2822	2212.4109	4251.15	3369.1
950.4164	2213.8962	4252.15	3368.55
950.5505	2215.3809	4229.9	3343.4
950.6846	2216.8648	4240.5	3355.9
950.8186	2218.3479	4224.1	3334
950.9527	2219.8304	4199.1	3310.8
951.0867	2221.3121	4190.15	3304.45
951.2207	2222.7931	4188.65	3305.8
951.3546	2224.2733	4168.5	3284.05
951.4886	2225.7529	4150.25	3270.1
951.6225	2227.2317	4129.45	3247.65
951.7563	2228.7098	4132.6	3256.35
951.8902	2230.1872	4124.2	3248.25
952.024	2231.6638	4107	3229.65
952.1578	2233.1397	4091.35	3210.65
952.2916	2234.6149	4079.75	3201.25
952.4253	2236.0894	4074.4	3195.25
952.559	2237.5632	4080.65	3191
952.6927	2239.0362	4057.4	3178.85
952.8263	2240.5085	4034.3	3154.1
952.9599	2241.9801	4031.65	3149.35
953.0935	2243.4509	4010.65	3129.7
953.2271	2244.921	3993.35	3110.1
953.3606	2246.3904	3996	3112.45
953.4941	2247.8591	3987	3105.1
953.6276	2249.3271	3978.7	3096.25
953.7611	2250.7943	3949.65	3066.15
953.8945	2252.2608	3938.55	3056.3
954.0279	2253.7266	3946.05	3066.8
954.1612	2255.1917	3921	3039.65
954.2946	2256.656	3921.4	3039.3
954.4279	2258.1197	3909.15	3032.2
954.5612	2259.5826	3901	3020.25
954.6944	2261.0447	3901.2	3021.3
954.8276	2262.5062	3879.1	2997.25
954.9608	2263.9669	3878.1	2995.15
955.094	2265.4269	3876.3	2994.85
955.2271	2266.8862	3852.65	2974.15
955.3602	2268.3448	3850.3	2969.8
955.4933	2269.8026	3852.15	2972.65
955.6264	2271.2598	3836.55	2955.2
955.7594	2272.7162	3826.45	2946.25
955.8924	2274.1719	3820.8	2939.9
956.0253	2275.6268	3804.1	2921.85
956.1583	2277.0811	3825	2943.8
956.2912	2278.5346	3786.7	2906.8
956.4241	2279.9874	3792.2	2913.9
956.5569	2281.4395	3776.5	2896.3
956.6897	2282.8908	3758.35	2874.2
956.8225	2284.3414	3757.95	2876
956.9553	2285.7914	3759.5	2880.35
957.088	2287.2406	3736.25	2856.1
957.2207	2288.689	3731	2846.1
957.3534	2290.1368	3731.2	2846.3
957.486	2291.5838	3711.35	2823.6
957.6186	2293.0302	3717.85	2831.9
957.7512	2294.4758	3692.75	2809.55
957.8838	2295.9206	3678.6	2793.7
958.0163	2297.3648	3674.7	2793.5
958.1488	2298.8082	3674.8	2793.5
958.2813	2300.251	3662.6	2780.75
958.4137	2301.693	3662.7	2777.2
958.5461	2303.1343	3653.9	2767.9
958.6785	2304.5748	3641.05	2760.35
958.8108	2306.0147	3630.35	2748.3
958.9432	2307.4538	3611.45	2729
959.0754	2308.8922	3600.15	2722.7
959.2077	2310.3299	3604.45	2726.15
959.3399	2311.7669	3599.75	2720.9
959.4721	2313.2031	3591	2709.85
959.6043	2314.6387	3581.75	2700.95
959.7365	2316.0735	3563.9	2682.45
959.8686	2317.5076	3553	2671.1
960.0006	2318.941	3556.5	2673.75
960.1327	2320.3737	3542.95	2657.8
960.2647	2321.8056	3537.45	2654.1
960.3967	2323.2369	3519.6	2637.65
960.5287	2324.6674	3502.75	2618.8
960.6606	2326.0972	3504.55	2621.5
960.7925	2327.5263	3484.35	2603.2
960.9244	2328.9547	3490.55	2605.95
961.0562	2330.3823	3481.6	2597.1
961.1881	2331.8092	3487.35	2599.9
961.3198	2333.2355	3456.2	2573.3
961.4516	2334.661	3458.6	2573.85
961.5833	2336.0858	3464.4	2579.15
961.715	2337.5098	3449.2	2567.55
961.8467	2338.9332	3442.1	2560.2
961.9783	2340.3558	3438.8	2554.5
962.1099	2341.7778	3408.95	2528.7
962.2415	2343.199	3421.65	2538.85
962.373	2344.6195	3401.5	2519.85
962.5045	2346.0393	3393.45	2512.45
962.636	2347.4583	3409.25	2528.35
962.7675	2348.8767	3376.65	2496.1
962.8989	2350.2943	3381.85	2499.95
963.0303	2351.7113	3381.95	2497.95
963.1617	2353.1275	3374.5	2490.45
963.293	2354.543	3367.4	2476.05
963.4243	2355.9578	3356.2	2473.6
963.5556	2357.3718	3347	2465.65
963.6868	2358.7852	3321.5	2438.85
963.818	2360.1978	3317	2437.3
963.9492	2361.6098	3300.8	2421.55
964.0803	2363.021	3301.85	2417.35
964.2114	2364.4315	3299.15	2418.5
964.3425	2365.8413	3301.4	2420
964.4736	2367.2504	3274.7	2396.55
964.6046	2368.6587	3257.2	2380
964.7356	2370.0664	3258.65	2380.05
964.8666	2371.4733	3245.6	2365.55
964.9975	2372.8795	3228.7	2349.75
965.1284	2374.285	3227.8	2348.5
965.2593	2375.6899	3229.15	2351.5
965.3901	2377.0939	3221.5	2343.5
965.5209	2378.4973	3202	2323.55
965.6517	2379.9	3196.9	2318.05
965.7825	2381.3019	3183.45	2306.4
965.9132	2382.7032	3187	2308.45
966.0439	2384.1037	3162.55	2287.1
966.1745	2385.5035	3161.65	2283.25
966.3051	2386.9027	3141.6	2265.6
966.4357	2388.3011	3146.9	2266.3
966.5663	2389.6987	3146.1	2270.55
966.6968	2391.0957	3135.75	2255.4
966.8273	2392.492	3105.9	2231.7
966.9578	2393.8876	3106.95	2229.8
967.0882	2395.2824	3099.85	2223.6
967.2186	2396.6765	3085.85	2205.75
967.349	2398.07	3066.5	2187.9
967.4793	2399.4627	3073.45	2195
967.6097	2400.8547	3071.6	2192.4
967.7399	2402.246	3059.25	2174.95
967.8702	2403.6366	3058.5	2181.1
968.0004	2405.0265	3047.35	2168.05
968.1306	2406.4156	3046.95	2164.95
968.2607	2407.8041	3040.2	2156.65
968.3909	2409.1918	3008.85	2130.75
968.521	2410.5789	3022.2	2144.1
968.651	2411.9652	3009.7	2127.9
968.781	2413.3508	2986.75	2108.95
968.911	2414.7358	2983.8	2104.85
969.041	2416.12	2984	2105.9
969.1709	2417.5035	2987.3	2109.4
969.3008	2418.8863	2955.95	2074.15
969.4307	2420.2684	2960.65	2081.35
969.5606	2421.6497	2946.6	2067.45
969.6904	2423.0304	2935.25	2057.8
969.8201	2424.4104	2943.65	2063.2
969.9499	2425.7896	2928.65	2046.85
970.0796	2427.1682	2931.15	2052.75
970.2093	2428.546	2916.85	2037.15
970.3389	2429.9232	2910.25	2029.8
970.4685	2431.2996	2908.35	2030.6
970.5981	2432.6753	2900.8	2019.2
970.7277	2434.0503	2904.4	2025
970.8572	2435.4246	2885.7	2005
970.9867	2436.7982	2873.9	1990.9
971.1161	2438.1711	2867.95	1990.85
971.2456	2439.5433	2868.75	1989.35
971.375	2440.9148	2862.4	1977.1
971.5043	2442.2856	2843.8	1964.95
971.6336	2443.6557	2850.5	1969.3
971.7629	2445.025	2825.05	1949.15
971.8922	2446.3937	2831.95	1950.4
972.0214	2447.7617	2825.55	1945.6
972.1506	2449.1289	2828.4	1948.9
972.2798	2450.4955	2806.6	1926
972.4089	2451.8613	2807.15	1929.95
972.538	2453.2265	2794.55	1914.8
972.6671	2454.5909	2799.55	1916.05
972.7961	2455.9546	2795.45	1917.85
972.9251	2457.3177	2768.6	1888.2
973.0541	2458.68	2772.6	1891.55
973.1831	2460.0416	2782.05	1902.65
973.312	2461.4025	2775.9	1897.7
973.4408	2462.7627	2774.25	1884.95
973.5697	2464.1222	2752.55	1876.15
973.6985	2465.4811	2744.45	1866.95
973.8273	2466.8392	2738.4	1858.25
973.956	2468.1966	2743	1862.75
974.0847	2469.5533	2738.5	1857.5
974.2134	2470.9093	2729.7	1850.75
974.3421	2472.2645	2715.25	1836.65
974.4707	2473.6191	2725.15	1845.95
974.5993	2474.973	2720.8	1841.85
974.7278	2476.3262	2708	1828.9
974.8563	2477.6787	2710.25	1830.5
974.9848	2479.0305	2684.4	1804.2
975.1132	2480.3816	2693.1	1811.7
975.2417	2481.7319	2682.05	1802.55
975.37	2483.0816	2667	1785.65
975.4984	2484.4306	2662.05	1782.5
975.6267	2485.7789	2660.2	1784.1
975.755	2487.1264	2654	1774.95
975.8833	2488.4733	2649.3	1771.9
976.0115	2489.8195	2637.15	1750.8
976.1397	2491.165	2624.75	1743.15
976.2678	2492.5097	2626.65	1748.05
976.3959	2493.8538	2605.8	1726.75
976.524	2495.1972	2604.85	1726.35
976.6521	2496.5398	2600.15	1718.6
976.7801	2497.8818	2600.05	1717.15
976.9081	2499.2231	2588.9	1708.4
977.036	2500.5637	2575.05	1691.9
977.164	2501.9035	2583.95	1701.7
977.2918	2503.2427	2575.15	1691.55
977.4197	2504.5812	2572.8	1693.25
977.5475	2505.919	2567.45	1685.15
977.6753	2507.256	2553.55	1672.05
977.8031	2508.5924	2552.4	1672.8
977.9308	2509.9281	2562.85	1677.85
978.0585	2511.2631	2538.85	1658.9
978.1861	2512.5974	2538.2	1658.6
978.3137	2513.9309	2524.1	1645.2
978.4413	2515.2638	2549.95	1645.2
978.5689	2516.596	2521.65	1640.9
978.6964	2517.9275	2523.45	1642.55
978.8239	2519.2583	2510.2	1631.45
978.9513	2520.5884	2508.15	1628.1
979.0788	2521.9178	2491.55	1612.1
979.2062	2523.2465	2491.65	1613.8
979.3335	2524.5745	2484.4	1605.85
979.4608	2525.9018	2484.2	1605.5
979.5881	2527.2284	2470.05	1592
979.7154	2528.5543	2473.3	1594.05
979.8426	2529.8796	2451.1	1571.6
979.9698	2531.2041	2458.45	1578.7
980.0969	2532.5279	2458.8	1580.8
980.224	2533.851	2456.7	1578
980.3511	2535.1735	2448.35	1567.7
980.4781	2536.4952	2448.5	1567.95
980.6052	2537.8163	2441.45	1559.6
980.7321	2539.1366	2430.2	1552.15
980.8591	2540.4562	2421.35	1540.35
980.986	2541.7752	2433.3	1551.5
981.1129	2543.0935	2427.35	1546.6
981.2397	2544.411	2424.1	1542.75
981.3665	2545.7279	2419.2	1537.15
981.4933	2547.0441	2418.55	1537.2
981.62	2548.3596	2416.8	1533.95
981.7467	2549.6744	2417.05	1537.2
981.8734	2550.9885	2412.95	1523.95
982.0001	2552.3019	2395.05	1515.7
982.1267	2553.6146	2392.3	1515.25
982.2532	2554.9266	2384.05	1503.8
982.3798	2556.2379	2388.35	1506.9
982.5063	2557.5485	2368.3	1491.25
982.6327	2558.8585	2373.7	1486.05
982.7592	2560.1677	2363.5	1479.85
982.8856	2561.4762	2364.4	1484.2
983.0119	2562.7841	2364.15	1482.65
983.1383	2564.0913	2377.8	1499.25
983.2646	2565.3977	2348.5	1466.65
983.3908	2566.7035	2356.6	1476.75
983.517	2568.0086	2360.45	1478.85
983.6432	2569.313	2349.85	1469.4
983.7694	2570.6167	2344.1	1459.5
983.8955	2571.9197	2342.35	1462.55
984.0216	2573.222	2331.35	1446.9
984.1476	2574.5236	2335.35	1454.45
984.2737	2575.8246	2328.3	1443.45
984.3996	2577.1248	2333.65	1451.4
984.5256	2578.4244	2319.95	1437.3
984.6515	2579.7232	2330.85	1451.75
984.7774	2581.0214	2342.25	1437.2
984.9032	2582.3189	2325.05	1446.4
985.029	2583.6157	2327.75	1443.75
985.1548	2584.9118	2314.2	1434
985.2806	2586.2072	2309.65	1429.25
985.4063	2587.5019	2305.45	1424.95
985.5319	2588.7959	2306.8	1425.45
985.6576	2590.0893	2313.25	1432.9
985.7832	2591.3819	2305.45	1425.1
985.9087	2592.6739	2302.65	1423.2
986.0343	2593.9652	2310.4	1427.75
986.1597	2595.2557	2301.3	1421.3
986.2852	2596.5456	2289.75	1407.7
986.4106	2597.8348	2285.85	1406.05
986.536	2599.1234	2282.2	1402.4
986.6614	2600.4112	2290.15	1409.75
986.7867	2601.6983	2282.2	1400.95
986.912	2602.9848	2271.5	1391.2
987.0372	2604.2705	2276.2	1388.05
987.1624	2605.5556	2270.15	1389.65
987.2876	2606.84	2265.4	1384.75
987.4128	2608.1237	2251.8	1371.15
987.5379	2609.4067	2241.35	1362.65
987.6629	2610.689	2253	1364.25
987.788	2611.9707	2237.25	1353.5
987.913	2613.2516	2233.3	1348.3
988.0379	2614.5319	2220.5	1341.05
988.1629	2615.8115	2224.65	1344.4
988.2878	2617.0903	2204.35	1323.9
988.4126	2618.3685	2219.05	1338.35
988.5375	2619.6461	2208.85	1328.65
988.6622	2620.9229	2200.7	1322.05
988.787	2622.199	2198.3	1318.7
988.9117	2623.4745	2203.5	1323.7
989.0364	2624.7493	2190.2	1309.7
989.161	2626.0234	2190.7	1312.4
989.2857	2627.2968	2179.2	1299.05
989.4102	2628.5695	2187	1304.9
989.5348	2629.8415	2187.6	1306.75
989.6593	2631.1128	2175.4	1293.35
989.7837	2632.3835	2168.1	1287.45
989.9082	2633.6535	2168.2	1289.45
990.0326	2634.9228	2165.85	1286.75
990.1569	2636.1914	2161.75	1282.15
990.2812	2637.4593	2156.55	1277.2
990.4055	2638.7265	2159.95	1279.95
990.5298	2639.9931	2165.3	1283.35
990.654	2641.259	2151.45	1269.3
990.7782	2642.5242	2136.25	1254.1
990.9023	2643.7887	2131.35	1251.05
991.0264	2645.0525	2135.85	1255.15
991.1505	2646.3156	2124.15	1242.3
991.2745	2647.5781	2120.1	1241.65
991.3985	2648.8398	2114.65	1238.45
991.5225	2650.1009	2131.1	1241.55
991.6464	2651.3613	2110.85	1232.05
991.7703	2652.6211	2101.9	1221.6
991.8942	2653.8801	2100.05	1220.4
992.018	2655.1385	2093.4	1212.3
992.1418	2656.3961	2092.45	1213.3
992.2655	2657.6531	2099.4	1221.1
992.3892	2658.9094	2097.75	1218.35
992.5129	2660.1651	2094.6	1217.5
992.6366	2661.42	2097	1214.4
992.7602	2662.6743	2089.4	1208.05
992.8837	2663.9279	2089.45	1211.2
993.0073	2665.1808	2094.55	1213.8
993.1307	2666.433	2089.55	1209.05
993.2542	2667.6846	2084.55	1204.6
993.3776	2668.9354	2091.5	1208.65
993.501	2670.1856	2083.75	1204.4
993.6244	2671.4351	2081	1202.25
993.7477	2672.6839	2085.35	1206.1
993.8709	2673.9321	2085.7	1207.45
993.9942	2675.1795	2082.6	1201.9
994.1174	2676.4263	2083.05	1205.55
994.2405	2677.6724	2074.95	1195.7
994.3637	2678.9179	2077.65	1199.35
994.4868	2680.1626	2071.9	1190.65
994.6098	2681.4067	2066.45	1185.6
994.7328	2682.6501	2071.2	1192.65
994.8558	2683.8928	2075.25	1195.1
994.9788	2685.1348	2051.05	1172.95
995.1017	2686.3761	2050.65	1172.3
995.2245	2687.6168	2033.2	1152.8
995.3474	2688.8568	2037.9	1156.15
995.4702	2690.0961	2039.65	1161.1
995.5929	2691.3348	2025.15	1144.7
995.7156	2692.5727	2024.45	1145.9
995.8383	2693.81	2024.55	1145.25
995.961	2695.0466	2011.35	1132.55
996.0836	2696.2826	2014.75	1133.35
996.2062	2697.5178	2020.5	1135.75
996.3287	2698.7524	2013.65	1135
996.4512	2699.9863	2010.6	1128.05
996.5737	2701.2195	2004	1125.7
996.6961	2702.452	2019.35	1138.2
996.8185	2703.6839	2018.05	1137.7
996.9408	2704.9151	2004.5	1127.15
997.0631	2706.1456	2003.25	1123.3
997.1854	2707.3755	2014.15	1135.9
997.3077	2708.6046	2020.75	1137.5
997.4299	2709.8331	2028.1	1147.35
997.552	2711.0609	2026.2	1146.15
997.6742	2712.2881	2041.6	1163.8
997.7963	2713.5145	2038.55	1159.6
997.9183	2714.7403	2051.9	1174.45
998.0403	2715.9654	2051.25	1173.35
998.1623	2717.1899	2082.55	1188.65
998.2842	2718.4136	2078.8	1201
998.4062	2719.6367	2083.95	1202.5
998.528	2720.8591	2090	1204.35
998.6498	2722.0809	2102.05	1220.6
998.7716	2723.3019	2103.45	1219.55
998.8934	2724.5223	2116.35	1235.55
999.0151	2725.7421	2112.9	1231.85
999.1368	2726.9611	2110.85	1230.75
999.2584	2728.1795	2112.2	1228.6
999.38	2729.3972	2084	1205.6
999.5016	2730.6142	2088.3	1199.4
999.6231	2731.8306	2066.25	1186
999.7446	2733.0462	2049.65	1166.8
999.8661	2734.2612	2031.35	1146.95
999.9875	2735.4756	2015.9	1134.65
1000.1089	2736.6892	1999.15	1119.5
1000.2302	2737.9022	1991.85	1115.2
1000.3515	2739.1145	1955.2	1075.95
1000.4728	2740.3262	1962.1	1076.3
1000.594	2741.5372	1928.4	1050.65
1000.7152	2742.7475	1927.9	1048.4
1000.8363	2743.9571	1917.75	1035.6
1000.9575	2745.1661	1896.55	1013.55
1001.0785	2746.3744	1895.1	1015.15
1001.1996	2747.582	1870.65	991.8
1001.3206	2748.7889	1868.25	988.25
1001.4415	2749.9952	1865.15	985.95
1001.5625	2751.2008	1852.8	974.5
1001.6833	2752.4057	1851.4	969.4
1001.8042	2753.61	1841.1	960.7
1001.925	2754.8136	1842.6	961.75
1002.0458	2756.0165	1838.95	963.15
1002.1665	2757.2188	1828.8	951.1
1002.2872	2758.4204	1841.25	962.55
1002.4078	2759.6213	1831.75	951.65
1002.5285	2760.8215	1835.9	952.9
1002.649	2762.0211	1829.75	948.75
1002.7696	2763.22	1829.6	949.4
1002.8901	2764.4182	1816.3	935.6
1003.0106	2765.6158	1818	939.3
1003.131	2766.8127	1806.7	927.4
1003.2514	2768.009	1801.35	922.3
1003.3717	2769.2045	1791.85	915.45
1003.492	2770.3994	1796.7	914.75
1003.6123	2771.5936	1791.95	910.45
1003.7325	2772.7872	1779.35	898.95
1003.8527	2773.9801	1789.15	907.6
1003.9729	2775.1723	1800.4	905.3
1004.093	2776.3639	1776.65	899.2
1004.2131	2777.5548	1783.8	904.25
1004.3331	2778.745	1774.3	893.7
1004.4531	2779.9346	1775.05	898.15
1004.5731	2781.1235	1778.05	898.35
1004.693	2782.3117	1785.45	907.45
1004.8129	2783.4992	1778.35	898.7
1004.9328	2784.6861	1778.35	900.45
1005.0526	2785.8723	1782.45	902.1
1005.1723	2787.0579	1784.7	907.6
1005.2921	2788.2428	1794.7	917.55
1005.4118	2789.427	1794.25	917.6
1005.5314	2790.6106	1809.8	932.4
1005.651	2791.7935	1819.5	939.45
1005.7706	2792.9757	1820.5	944.8
1005.8902	2794.1573	1829.05	949.95
1006.0097	2795.3382	1842.25	964.15
1006.1291	2796.5184	1848.25	971.85
1006.2485	2797.698	1865.05	983.15
1006.3679	2798.8769	1873.4	995.6
1006.4873	2800.0551	1894.65	1017.35
1006.6066	2801.2327	1901.2	1019.1
1006.7258	2802.4096	1925.65	1049.75
1006.8451	2803.5859	1939.7	1059.9
1006.9642	2804.7615	1952.65	1074.35
1007.0834	2805.9364	1970.65	1095
1007.2025	2807.1106	2002.6	1127.35
1007.3216	2808.2842	2029.4	1151.8
1007.4406	2809.4572	2058.85	1178.5
1007.5596	2810.6294	2092.45	1211.85
1007.6785	2811.801	2135.2	1257
1007.7975	2812.972	2169	1290.95
1007.9163	2814.1423	2219.55	1343.4
1008.0352	2815.3119	2255.3	1377.6
1008.154	2816.4808	2291.65	1414.25
1008.2727	2817.6491	2345.05	1468.1
1008.3914	2818.8167	2395.9	1520.45
1008.5101	2819.9837	2446.15	1565.2
1008.6288	2821.15	2490.8	1613.3
1008.7474	2822.3157	2519.7	1641.8
1008.8659	2823.4807	2581.95	1703.45
1008.9844	2824.645	2623.25	1744.9
1009.1029	2825.8086	2666.45	1790.65
1009.2214	2826.9716	2693.7	1818.55
1009.3398	2828.134	2750	1875.6
1009.4581	2829.2957	2784.7	1907.1
1009.5764	2830.4567	2812.95	1936.4
1009.6947	2831.617	2837.05	1959.55
1009.813	2832.7767	2851.5	1974.6
1009.9312	2833.9358	2845.15	1967.7
1010.0493	2835.0941	2842.15	1964.85
1010.1675	2836.2519	2819.9	1941.75
1010.2855	2837.4089	2807.85	1929.2
1010.4036	2838.5653	2805.25	1928.35
1010.5216	2839.7211	2813.15	1938.05
1010.6396	2840.8761	2805.75	1925.85
1010.7575	2842.0306	2819.25	1943.95
1010.8754	2843.1843	2865.4	1988.3
1010.9932	2844.3374	2912.5	2034.55
1011.111	2845.4899	2967.3	2085.75
1011.2288	2846.6417	3038.9	2163.35
1011.3465	2847.7928	3106.25	2229.1
1011.4642	2848.9433	3180.9	2305.35
1011.5818	2850.0931	3265.05	2388.25
1011.6995	2851.2422	3335.45	2456.65
1011.817	2852.3907	3393.4	2516.6
1011.9345	2853.5385	3458.6	2578.8
1012.052	2854.6857	3530.85	2625.6
1012.1695	2855.8323	3558.85	2684.8
1012.2869	2856.9781	3607.1	2727.7
1012.4042	2858.1233	3651	2776.05
1012.5216	2859.2679	3709.45	2833.8
1012.6389	2860.4118	3746.45	2869.65
1012.7561	2861.555	3796.75	2914.1
1012.8733	2862.6976	3819.8	2941.8
1012.9905	2863.8395	3845.1	2969.3
1013.1076	2864.9808	3861.25	2984.6
1013.2247	2866.1214	3872.3	2996.4
1013.3417	2867.2614	3888.8	3010.65
1013.4587	2868.4007	3902.4	3021.4
1013.5757	2869.5393	3927.1	3049.95
1013.6926	2870.6773	3933.15	3053.5
1013.8095	2871.8146	3942.7	3061.15
1013.9263	2872.9513	3931.8	3052.15
1014.0431	2874.0874	3923.9	3046.55
1014.1599	2875.2227	3926	3047.6
1014.2766	2876.3574	3916.6	3039.2
1014.3933	2877.4915	3898.05	3022.95
1014.51	2878.6249	3860.15	2985.1
1014.6266	2879.7577	3838.35	2960.15
1014.7431	2880.8898	3819.15	2932.8
1014.8596	2882.0212	3795.7	2920.75
1014.9761	2883.152	3794	2915.9
1015.0925	2884.2821	3770.1	2895.25
1015.2089	2885.4116	3764.3	2887.95
1015.3253	2886.5405	3764.35	2887.6
1015.4416	2887.6686	3783.2	2903.6
1015.5579	2888.7962	3770.05	2894.9
1015.6741	2889.923	3782	2905.6
1015.7903	2891.0493	3782.15	2906.15
1015.9065	2892.1748	3788.05	2913.45
1016.0226	2893.2997	3803	2927.9
1016.1387	2894.424	3815.35	2938.55
1016.2547	2895.5476	3844.9	2968.45
1016.3707	2896.6706	3869.55	2992.15
1016.4866	2897.7929	3885.7	3006.85
1016.6025	2898.9145	3919.25	3042.25
1016.7184	2900.0355	3952.4	3074.2
1016.8342	2901.1559	3985.75	3107.85
1016.95	2902.2756	4007.45	3130.25
1017.0658	2903.3946	4044.9	3166.6
1017.1815	2904.513	4061.9	3181.75
1017.2971	2905.6308	4092.45	3214.5
1017.4127	2906.7479	4111.9	3233.05
1017.5283	2907.8643	4142.6	3265.1
1017.6439	2908.9801	4142.1	3266.4
1017.7594	2910.0953	4152.65	3276.05
1017.8748	2911.2098	4154.85	3273.3
1017.9902	2912.3236	4149.75	3266
1018.1056	2913.4368	4145.65	3265.2
1018.2209	2914.5494	4100.05	3221.6
1018.3362	2915.6613	4102.05	3219.4
1018.4515	2916.7725	4072.9	3194.6
1018.5667	2917.8831	4035.7	3158.95
1018.6819	2918.9931	4013.7	3134.05
1018.797	2920.1024	3973.45	3095
1018.9121	2921.211	3945.45	3069.6
1019.0271	2922.319	3918.65	3041.95
1019.1421	2923.4264	3902.4	3024.45
1019.2571	2924.5331	3885.85	3009.15
1019.372	2925.6391	3879.15	3001.3
1019.4869	2926.7445	3860.25	2987.55
1019.6017	2927.8493	3864.55	2988.7
1019.7165	2928.9534	3862.75	2987.9
1019.8313	2930.0569	3839.55	2961.3
1019.946	2931.1597	3853.7	2975.6
1020.0606	2932.2619	3842.3	2967.55
1020.1753	2933.3634	3828.7	2950.85
1020.2899	2934.4643	3832.75	2947.9
1020.4044	2935.5645	3800.55	2918.65
1020.5189	2936.6641	3765.25	2885.2
1020.6334	2937.763	3728.25	2854.7
1020.7478	2938.8613	3690	2814.15
1020.8622	2939.959	3628.15	2748.7
1020.9765	2941.056	3542.15	2668.5
1021.0908	2942.1523	3459.35	2584.35
1021.2051	2943.248	3366.65	2489.9
1021.3193	2944.3431	3284.25	2409.9
1021.4334	2945.4375	3175.25	2299.3
1021.5476	2946.5313	3082.35	2207.4
1021.6617	2947.6244	2970.05	2093.35
1021.7757	2948.7169	2879.35	2004.15
1021.8897	2949.8087	2785.3	1910.45
1022.0037	2950.8999	2693.4	1815.9
1022.1176	2951.9904	2615.2	1740.35
1022.2315	2953.0803	2540.5	1663.65
1022.3453	2954.1696	2480.9	1605.3
1022.4591	2955.2582	2424.95	1550.3
1022.5728	2956.3462	2388.45	1512.55
1022.6865	2957.4335	2331.75	1455.4
1022.8002	2958.5202	2313.2	1435.1
1022.9138	2959.6062	2275.1	1401.05
1023.0274	2960.6916	2253.7	1379.05
1023.141	2961.7764	2231.9	1354.25
1023.2545	2962.8605	2215.5	1338.1
1023.3679	2963.9439	2212.7	1336.4
1023.4813	2965.0267	2186.55	1309.55
1023.5947	2966.1089	2214.35	1313.45
1023.708	2967.1905	2175.4	1300.3
1023.8213	2968.2714	2186.7	1310.75
1023.9346	2969.3516	2169.9	1294.25
1024.0478	2970.4312	2174.25	1290.5
1024.1609	2971.5102	2169.55	1295.45
1024.274	2972.5885	2166.15	1289.05
1024.3871	2973.6662	2189.95	1311.4
1024.5002	2974.7432	2175.4	1300.5
1024.6132	2975.8196	2161.2	1286.35
1024.7261	2976.8954	2157.15	1283.8
1024.839	2977.9705	2141.95	1266.95
1024.9519	2979.045	2127.1	1251.85
1025.0647	2980.1188	2109.55	1234.6
1025.1775	2981.192	2085	1209.2
1025.2902	2982.2645	2063.35	1188.55
1025.4029	2983.3364	2036.05	1159.65
1025.5156	2984.4077	2008.55	1135.85
1025.6282	2985.4783	1977.45	1098.45
1025.7407	2986.5483	1949.7	1075.15
1025.8532	2987.6177	1920.15	1044.6
1025.9657	2988.6864	1871.3	994.2
1026.0782	2989.7545	1847.3	971.3
1026.1906	2990.8219	1813.95	940.2
1026.3029	2991.8887	1783.25	907.5
1026.4152	2992.9548	1741.2	865.4
1026.5275	2994.0204	1715.9	842.25
1026.6397	2995.0852	1690.7	817.4
1026.7519	2996.1495	1663.25	785.55
1026.864	2997.2131	1638.35	763.8
1026.9761	2998.276	1619.8	744.15
1027.0882	2999.3383	1598.45	723.85
1027.2002	3000.4	1578.15	701.05
1027.3122	3001.4611	1567.7	691.8
1027.4241	3002.5215	1545.25	669.15
1027.536	3003.5812	1532.5	657.7
1027.6478	3004.6404	1514.85	640.6
1027.7596	3005.6989	1516.65	639
1027.8714	3006.7567	1498.9	623.55
1027.9831	3007.8139	1517.25	607.35
1028.0947	3008.8705	1477.95	602.7
1028.2064	3009.9264	1474.45	595.65
1028.3179	3010.9818	1463.75	587.9
1028.4295	3012.0364	1461.45	585.75
1028.541	3013.0905	1466.7	592.8
1028.6524	3014.1439	1452.2	577.15
1028.7638	3015.1966	1458.45	582.9
1028.8752	3016.2487	1451.45	574.4
1028.9865	3017.3002	1459.25	581.4
1029.0978	3018.3511	1446.8	573.1
1029.209	3019.4013	1450.35	576.55
1029.3202	3020.4509	1448	573.9
1029.4314	3021.4998	1450.4	574.65
1029.5425	3022.5481	1446.05	572
1029.6535	3023.5958	1444.6	567.8
1029.7645	3024.6428	1445.05	570.25
1029.8755	3025.6892	1447.3	572.5
1029.9864	3026.735	1454.9	580
1030.0973	3027.7802	1446.2	569.4
1030.2082	3028.8247	1438.15	564
1030.319	3029.8685	1449.65	574.7
1030.4297	3030.9118	1452.1	576.45
1030.5404	3031.9544	1452.85	577.8
1030.6511	3032.9963	1459.05	583.15
1030.7617	3034.0376	1457.8	584.9
1030.8723	3035.0783	1466.75	588.75
1030.9829	3036.1184	1472.4	598.75
1031.0934	3037.1578	1474.05	601.45
1031.2038	3038.1966	1472.6	596.75
1031.3142	3039.2348	1474.65	601.15
1031.4246	3040.2723	1482.85	599.1
1031.5349	3041.3092	1470.65	596.25
1031.6452	3042.3455	1471.85	596.6
1031.7554	3043.3811	1465.45	590.45
1031.8656	3044.4161	1465.45	587.85
1031.9758	3045.4505	1457.45	583.85
1032.0859	3046.4842	1453.45	577.35
1032.1959	3047.5173	1438.7	567.4
1032.3059	3048.5498	1438.05	562.55
1032.4159	3049.5816	1430.65	553
1032.5258	3050.6128	1433.35	559.15
1032.6357	3051.6434	1422.2	544.3
1032.7455	3052.6734	1410.5	533.8
1032.8553	3053.7027	1404.6	530.45
1032.9651	3054.7314	1405.1	529.5
1033.0748	3055.7594	1391.45	519.55
1033.1845	3056.7868	1398.8	524.65
1033.2941	3057.8136	1378.65	505.45
1033.4037	3058.8398	1377.15	503.15
1033.5132	3059.8653	1368.15	493.55
1033.6227	3060.8902	1372.7	498.15
1033.7321	3061.9145	1362.8	489.3
1033.8415	3062.9381	1356.7	482.2
1033.9509	3063.9612	1361.4	469.9
1034.0602	3064.9835	1356.9	481.65
1034.1694	3066.0053	1340.4	463
1034.2787	3067.0264	1341.35	466.4
1034.3878	3068.0469	1336.4	461.4
1034.497	3069.0668	1321.55	444.15
1034.6061	3070.086	1314.5	439.95
1034.7151	3071.1046	1301.6	429.15
1034.8241	3072.1226	1297.5	422.45
1034.9331	3073.1399	1285.65	411.85
1035.042	3074.1567	1277.45	403.5
1035.1508	3075.1727	1266.9	389.65
1035.2597	3076.1882	1263.6	388.7
1035.3684	3077.203	1254.35	380.25
1035.4772	3078.2173	1240.7	368.05
1035.5859	3079.2308	1243.1	367.2
1035.6945	3080.2438	1227.85	350.35
1035.8031	3081.2561	1219.45	344.15
1035.9117	3082.2678	1213.55	339.3
1036.0202	3083.2789	1205.25	330.65
1036.1286	3084.2893	1201.7	327.5
1036.2371	3085.2991	1201.55	326.4
1036.3454	3086.3083	1192.35	312.85
1036.4538	3087.3169	1180.5	303.95
1036.562	3088.3248	1178.8	302.55
1036.6703	3089.3321	1180	303.5
1036.7785	3090.3388	1168.5	293.6
1036.8866	3091.3449	1167.35	291.1
1036.9948	3092.3503	1160.2	285.35
1037.1028	3093.3551	1153.8	278.95
1037.2108	3094.3593	1150.9	276.35
1037.3188	3095.3629	1152.65	278.5
1037.4267	3096.3658	1149.25	274.45
1037.5346	3097.3681	1143.85	270.05
1037.6425	3098.3698	1142.4	266.3
1037.7503	3099.3708	1145.65	266.05
1037.858	3100.3713	1137.15	264
1037.9657	3101.3711	1133.6	259.3
1038.0734	3102.3702	1267	252.55
1038.181	3103.3688	1127.95	251.3
1038.2886	3104.3667	1124.45	251.5
1038.3961	3105.364	1114.65	240.9
1038.5036	3106.3607	1125.65	249.3
1038.611	3107.3568	1119.1	244.7
1038.7184	3108.3522	1111.9	237
1038.8257	3109.347	1113.3	239.75
1038.933	3110.3412	1117.4	238.8
1039.0403	3111.3348	1105.75	231.5
1039.1475	3112.3277	1108.1	232.4
1039.2547	3113.32	1099.95	226.2
1039.3618	3114.3117	1103	228.35
1039.4689	3115.3028	1103.95	230.05
1039.5759	3116.2932	1100.95	224.15
1039.6829	3117.2831	1099.7	221.8
1039.7898	3118.2723	1096.25	222.95
1039.8967	3119.2608	1093.6	218.1
1040.0035	3120.2488	1089.4	214.5
1040.1103	3121.2361	1091.7	216.15
1040.2171	3122.2229	1089.4	215.3
1040.3238	3123.209	1084.05	208.7
1040.4305	3124.1944	1086.85	213.35
1040.5371	3125.1793	1079.65	204.35
1040.6437	3126.1635	1082.35	209.75
1040.7502	3127.1471	1075.95	203
1040.8567	3128.1301	1080.6	208
1040.9631	3129.1125	1076.35	201.85
1041.0695	3130.0942	1081.75	207.4
1041.1759	3131.0753	1085.2	204.1
1041.2822	3132.0558	1079.1	205.35
1041.3884	3133.0357	1070.75	196.5
1041.4946	3134.015	1070.85	194.7
1041.6008	3134.9936	1069.85	192.7
1041.7069	3135.9716	1092.25	194.6
1041.813	3136.949	1070.9	198.65
1041.919	3137.9258	1084.8	192.1
1042.025	3138.902	1066.35	188.9
1042.1309	3139.8775	1065.15	192.05
1042.2368	3140.8524	1058.7	185.85
1042.3427	3141.8267	1063.75	187.7
1042.4485	3142.8004	1054.3	179.25
1042.5542	3143.7735	1062.5	184
1042.6599	3144.7459	1057.9	181.35
1042.7656	3145.7178	1058.6	183
1042.8712	3146.689	1049.3	177.7
1042.9768	3147.6596	1055	179.8
1043.0823	3148.6295	1047.4	173.45
1043.1878	3149.5989	1046.65	174.05
1043.2932	3150.5676	1046.15	173.25
1043.3986	3151.5357	1051.5	179.25
1043.5039	3152.5032	1048.4	175.35
1043.6092	3153.4701	1042.6	168.25
1043.7145	3154.4364	1040.75	163.5
1043.8197	3155.402	1044	172.15
1043.9248	3156.367	1040.55	164.8
1044.03	3157.3315	1066.55	167.5
1044.135	3158.2952	1040.5	167.8
1044.24	3159.2584	1038.35	165.5
1044.345	3160.221	1034.5	159.95
1044.4499	3161.1829	1031.55	156.95
1044.5548	3162.1442	1032.25	160.3
1044.6596	3163.105	1030.1	157.5
1044.7644	3164.065	1027.1	154.35
1044.8692	3165.0245	1033.8	157.75
1044.9739	3165.9834	1030	156.6
1045.0785	3166.9416	1025.4	153.2
1045.1831	3167.8993	1026.2	151.7
1045.2877	3168.8563	1023.25	148.65
1045.3922	3169.8127	1026.5	152.95
1045.4966	3170.7684	1023.25	149.2
1045.6011	3171.7236	1023.55	148
1045.7054	3172.6782	1023.55	147.75
1045.8098	3173.6321	1024.45	151.9
1045.914	3174.5854	1021.5	143.35
1046.0183	3175.5381	1021.1	147.45
1046.1224	3176.4902	1017.35	144.35
1046.2266	3177.4417	1018.85	147
1046.3307	3178.3926	1010.1	139.2
1046.4347	3179.3428	1012.65	141.15
1046.5387	3180.2924	1012.65	139.85
1046.6427	3181.2415	1013.6	139.1
1046.7466	3182.1899	1012.25	136.3
1046.8504	3183.1377	1015.25	142.95
1046.9542	3184.0848	1013.1	135.45
1047.058	3185.0314	1013.5	139.65
1047.1617	3185.9773	1008.75	132.95
1047.2654	3186.9227	1003.95	129.95
1047.369	3187.8674	1007.8	133.4
1047.4726	3188.8115	1007.75	129.75
1047.5761	3189.755	1005.9	133.3
1047.6796	3190.6979	1004.2	130.95
1047.783	3191.6402	1005.25	133.45
1047.8864	3192.5818	1004.95	131.35
1047.9898	3193.5229	1011.55	133.55
1048.0931	3194.4633	1006	132.25
1048.1963	3195.4031	1004.15	130.5
1048.2995	3196.3423	1000.8	129.55
1048.4027	3197.2809	998.2	123.2
1048.5058	3198.2189	999.15	125.7
1048.6089	3199.1563	1015	125.35
1048.7119	3200.0931	995.4	124.4
1048.8148	3201.0292	994.95	120.65
1048.9178	3201.9648	994.35	122.1
1049.0206	3202.8997	997.75	120.8
1049.1235	3203.834	994.85	123.75
1049.2262	3204.7677	990.95	118.45
1049.329	3205.7008	996.15	120.45
1049.4317	3206.6333	990.1	116
1049.5343	3207.5652	998.6	125.35
1049.6369	3208.4964	991.3	118.7
1049.7394	3209.4271	988	115.05
1049.8419	3210.3571	989.55	115
1049.9444	3211.2865	994.4	119.3
1050.0468	3212.2154	988.4	114.95
1050.1491	3213.1436	990.15	114.05
1050.2514	3214.0712	989.8	110.2
1050.3537	3214.9982	988.9	116.7
1050.4559	3215.9246	988.85	116.45
1050.5581	3216.8503	983.35	111.4
1050.6602	3217.7755	986.6	114.15
1050.7623	3218.7001	983.75	111.35
1050.8643	3219.624	986.1	111.85
1050.9663	3220.5473	983.95	110.5
1051.0682	3221.4701	983.55	111.15
1051.1701	3222.3922	985.05	109.55
1051.2719	3223.3137	982.25	111.4
1051.3737	3224.2346	982.55	110.55
1051.4754	3225.1549	984	112.3
1051.5771	3226.0746	981	109.55
1051.6788	3226.9937	978.9	106.05
1051.7804	3227.9121	979.15	106.95
1051.8819	3228.83	977.1	105.5
1051.9834	3229.7473	982.05	107.4
1052.0849	3230.6639	980.65	107.85
1052.1863	3231.5799	976.15	102.35
1052.2876	3232.4954	980.2	107.3
1052.3889	3233.4102	972	99.9
1052.4902	3234.3244	974.8	102.9
1052.5914	3235.238	975.8	103.7
1052.6926	3236.151	988.55	101.65
1052.7937	3237.0634	969.5	98.35
1052.8948	3237.9752	973	101.45
1052.9958	3238.8864	972	98.05
1053.0968	3239.797	967.55	92.55
1053.1977	3240.7069	972.15	99.55
1053.2986	3241.6163	973.05	99.25
1053.3994	3242.5251	968.05	95
1053.5002	3243.4332	969.3	98
1053.6009	3244.3408	966	93.85
1053.7016	3245.2477	968.45	97.15
1053.8022	3246.154	969	95.65
1053.9028	3247.0598	963	89.6
1054.0034	3247.9649	963.45	90.2
1054.1039	3248.8694	964.3	89.75
1054.2043	3249.7733	965.7	94.8
1054.3047	3250.6766	962.8	90.3
1054.4051	3251.5793	963.2	88.9
1054.5054	3252.4814	959.1	85.85
1054.6056	3253.3829	959	85.65
1054.7058	3254.2838	956.3	83.7
1054.806	3255.1841	960.15	88.75
1054.9061	3256.0838	959.2	85.95
1055.0061	3256.9829	955.9	83.85
1055.1062	3257.8814	961.55	85.75
1055.2061	3258.7792	953.55	79.65
1055.306	3259.6765	958.9	86.1
1055.4059	3260.5731	954.85	85.2
1055.5057	3261.4692	955.1	81.35
1055.6055	3262.3647	953	77.35
1055.7052	3263.2595	948.8	75.25
1055.8049	3264.1538	947.15	76.5
1055.9045	3265.0474	949.8	75.85
1056.0041	3265.9404	943.8	71.55
1056.1036	3266.8329	945.3	73.95
1056.2031	3267.7247	952.55	71.3
1056.3025	3268.616	942.65	72.25
1056.4019	3269.5066	940.7	68.25
1056.5013	3270.3966	943.7	69
1056.6005	3271.286	934.75	64.25
