Software Version:	3.9.2.0
Unit SN:	10000200
Spectrometer SN:	6960
Date:	3/8/2024 12:00:26 PM
Data Line Index:	25
Spectral Points:	2048
Integration time (ms):	125
Averages:	20
Delay (ms):	30000
Sequence Number:	1
Processing:	dark subtract
Laser Power (mW):	300
Laser Current (mA):	822
Laser Diode Temp (C):	25.1
Laser Case Temp (C):	25.5
System Temp (C):	25.5
Spectrometer Temp (C):	23.3
CCD Temp (C):	0.005
Secondary Temp (C):	20.004
Heatsink Temp (C):	20.09
CCDPCB Temp (C):	35.14
SecondaryPCB Temp (C):	28.081

Wavelength	RamanShift	Raw Counts	Dark Subtracted
787.061	30.1047	412.8	4.35
787.2016	32.3739	413	6.3
787.3422	34.6426	414.9	7.45
787.4828	36.9109	417	7.8
787.6235	39.1787	420.6	7.65
787.7642	41.4461	425.85	7.7
787.9049	43.7131	430.75	8.9
788.0456	45.9796	430.5	5.15
788.1863	48.2456	437.45	8.05
788.3271	50.5112	440.8	8.75
788.4679	52.7764	445.9	9.45
788.6087	55.0411	450.9	10
788.7496	57.3054	456.65	10.25
788.8904	59.5692	459.45	13.1
789.0313	61.8326	459.3	11.8
789.1722	64.0955	466.85	12.8
789.3132	66.3579	475.9	16.1
789.4541	68.6199	482.3	18.5
789.5951	70.8815	491.5	24.65
789.7361	73.1426	507.55	39.15
789.8771	75.4032	541.05	67.15
790.0181	77.6634	614.3	137.4
790.1592	79.9231	781.7	297.75
790.3003	82.1824	1119.8	625.75
790.4414	84.4412	1683.65	1171.7
790.5825	86.6995	2402.6	1868.35
790.7237	88.9574	3061.5	2505.2
790.8648	91.2148	3532.05	2960.1
791.006	93.4717	3726.75	3146.7
791.1472	95.7282	3743.25	3161.35
791.2885	97.9842	3738.1	3153.1
791.4297	100.2398	3691.05	3102.65
791.571	102.4949	3629.15	3036.6
791.7123	104.7495	3598.7	3003.15
791.8536	107.0036	3526.15	2929.95
791.9949	109.2573	3454.95	2858.95
792.1363	111.5105	3347.95	2750.7
792.2777	113.7632	3267.3	2669.1
792.4191	116.0154	3175.15	2566.95
792.5605	118.2672	3058.15	2453.3
792.7019	120.5185	2946.25	2340.2
792.8434	122.7693	2869.25	2262.55
792.9849	125.0197	2795	2181.7
793.1264	127.2696	2718.65	2103.25
793.2679	129.519	2683	2064.8
793.4094	131.7679	2669	2045.9
793.551	134.0163	2641.75	2016.2
793.6926	136.2642	2628.75	1996.95
793.8342	138.5117	2612.35	1975.75
793.9758	140.7587	2595.2	1961
794.1175	143.0052	2536.15	1901.65
794.2591	145.2512	2501.4	1866.65
794.4008	147.4967	2441.75	1806.3
794.5425	149.7417	2402.45	1765.8
794.6842	151.9863	2379.8	1733.85
794.826	154.2304	2378.6	1729.25
794.9677	156.4739	2381.15	1727.9
795.1095	158.717	2381.9	1728.8
795.2513	160.9596	2407	1747.1
795.3931	163.2017	2422.75	1760.3
795.535	165.4433	2412.25	1751.9
795.6768	167.6844	2410.4	1747.8
795.8187	169.925	2370.35	1703.2
795.9606	172.1651	2332.2	1660.7
796.1025	174.4047	2282.05	1608.65
796.2445	176.6439	2240.1	1568
796.3864	178.8825	2210.65	1529.7
796.5284	181.1206	2218.7	1535.35
796.6704	183.3582	2199.85	1512.65
796.8124	185.5954	2200.35	1513.95
796.9544	187.832	2196.6	1507.15
797.0965	190.0681	2197	1500.25
797.2386	192.3037	2217.25	1519.8
797.3806	194.5388	2209.45	1508.9
797.5228	196.7734	2221.8	1521.05
797.6649	199.0075	2236.3	1534.65
797.807	201.2411	2253.05	1544.2
797.9492	203.4742	2273.1	1563.85
798.0914	205.7068	2301.75	1590.9
798.2336	207.9389	2313.25	1597.6
798.3758	210.1704	2320.95	1618.25
798.518	212.4015	2320.7	1625.95
798.6603	214.632	2320.8	1628
798.8025	216.862	2327.75	1638.95
798.9448	219.0915	2329.1	1637.9
799.0871	221.3205	2343.85	1648.75
799.2294	223.549	2355.3	1665.7
799.3718	225.777	2351.75	1662.65
799.5141	228.0044	2355	1658.8
799.6565	230.2314	2342.9	1644.2
799.7989	232.4578	2317.15	1613.55
799.9413	234.6837	2323.7	1611.85
800.0837	236.909	2300.85	1587.15
800.2262	239.1339	2313.4	1576.65
800.3687	241.3582	2305.35	1580.4
800.5111	243.582	2324.6	1569.55
800.6536	245.8053	2311.1	1568.15
800.7961	248.0281	2312.6	1575.55
800.9387	250.2503	2327.65	1588.8
801.0812	252.472	2330.75	1592.1
801.2238	254.6932	2335.95	1595
801.3664	256.9139	2354	1615.3
801.509	259.134	2363.5	1617.85
801.6516	261.3536	2388.75	1645.3
801.7942	263.5727	2447.85	1701.55
801.9369	265.7912	2486.1	1738.15
802.0795	268.0092	2543.65	1799.65
802.2222	270.2267	2601	1857.9
802.3649	272.4436	2638	1890.5
802.5076	274.6601	2674.95	1919.75
802.6504	276.8759	2690.55	1936.9
802.7931	279.0913	2718.25	1965.4
802.9359	281.3061	2712.55	1959.05
803.0787	283.5204	2737.85	1979.35
803.2215	285.7341	2748.4	1987.55
803.3643	287.9473	2781.7	2020.2
803.5071	290.16	2775.85	2009.25
803.6499	292.3721	2742.15	1986.55
803.7928	294.5837	2718.3	1956
803.9357	296.7947	2696.15	1938.9
804.0786	299.0052	2687.5	1928.05
804.2215	301.2152	2679.05	1918.7
804.3644	303.4246	2646.75	1888.7
804.5074	305.6334	2623.7	1862.45
804.6503	307.8418	2607.85	1846
804.7933	310.0495	2574.25	1809.65
804.9363	312.2568	2555.3	1789.55
805.0793	314.4635	2503.5	1734.05
805.2223	316.6696	2451.05	1682.15
805.3653	318.8752	2407.55	1627.4
805.5084	321.0802	2386.9	1616.55
805.6514	323.2847	2386.6	1614.6
805.7945	325.4887	2394.9	1622.15
805.9376	327.692	2409.05	1634
806.0807	329.8949	2452.5	1672.7
806.2238	332.0972	2479.35	1700.8
806.367	334.2989	2503.05	1717.5
806.5101	336.5001	2488.3	1703.7
806.6533	338.7007	2454.35	1668.75
806.7965	340.9008	2421.15	1636.15
806.9397	343.1003	2369.4	1581.35
807.0829	345.2992	2336.05	1547.35
807.2261	347.4976	2287	1498.6
807.3693	349.6955	2267.35	1476.65
807.5126	351.8927	2249.75	1455.35
807.6559	354.0895	2223.35	1415.6
807.7991	356.2856	2222.5	1428.4
807.9424	358.4812	2215.7	1421.25
808.0857	360.6763	2223.15	1420.5
808.2291	362.8707	2206	1406.8
808.3724	365.0646	2215.6	1415.25
808.5158	367.258	2221.4	1418.8
808.6591	369.4508	2252.9	1446.7
808.8025	371.643	2277.45	1467.25
808.9459	373.8346	2294.3	1487.5
809.0893	376.0257	2318.8	1507.3
809.2327	378.2162	2339.15	1532.85
809.3762	380.4062	2352.15	1539.25
809.5196	382.5956	2331.15	1524
809.6631	384.7844	2291.6	1486.25
809.8066	386.9726	2248.35	1444.55
809.9501	389.1603	2223.95	1421.65
810.0936	391.3474	2240.25	1407.6
810.2371	393.5339	2230.3	1425.65
810.3806	395.7199	2223.2	1420.1
810.5241	397.9052	2254.15	1451.45
810.6677	400.09	2279.3	1476.45
810.8113	402.2743	2327	1521.1
810.9548	404.4579	2366.3	1562.45
811.0984	406.641	2409.4	1601.3
811.2421	408.8235	2449.65	1643.55
811.3857	411.0054	2489.5	1676.5
811.5293	413.1868	2555.55	1738.55
811.673	415.3675	2611.3	1796.2
811.8166	417.5477	2594.15	1773.15
811.9603	419.7273	2531.25	1708.85
812.104	421.9064	2464.65	1636.75
812.2477	424.0848	2410.65	1589.5
812.3914	426.2627	2351.7	1532.15
812.5351	428.4399	2292.75	1468.9
812.6788	430.6166	2235.9	1411.05
812.8226	432.7928	2196.6	1367.5
812.9663	434.9683	2164.9	1340.6
813.1101	437.1432	2128.9	1306.2
813.2539	439.3176	2107.7	1285.15
813.3977	441.4914	2093.4	1271.6
813.5415	443.6645	2095	1268.95
813.6853	445.8371	2108.1	1282.3
813.8291	448.0091	2103.35	1275.45
813.973	450.1806	2097.6	1271.9
814.1168	452.3514	2095.15	1265.5
814.2607	454.5216	2098.2	1262.4
814.4046	456.6913	2096.25	1268.7
814.5485	458.8603	2096.45	1265.65
814.6924	461.0288	2107.1	1280.55
814.8363	463.1967	2094.35	1267.15
814.9802	465.3639	2102.4	1274.05
815.1241	467.5306	2092.45	1264.15
815.2681	469.6967	2078.95	1251.9
815.412	471.8622	2073.05	1246.15
815.556	474.0271	2068.8	1239.9
815.7	476.1914	2067.2	1234.05
815.844	478.3551	2054.7	1221.4
815.988	480.5182	2069.7	1236.2
816.132	482.6807	2069.4	1240.65
816.276	484.8426	2093.7	1270.45
816.4201	487.0039	2135	1307.2
816.5641	489.1647	2176.05	1342.75
816.7082	491.3248	2216.85	1380.2
816.8522	493.4843	2231.8	1399.85
816.9963	495.6432	2232	1398.3
817.1404	497.8015	2194.2	1354.05
817.2845	499.9592	2165.2	1320.65
817.4286	502.1163	2121.45	1278.6
817.5727	504.2728	2077.6	1239.3
817.7168	506.4287	2057.8	1224
817.861	508.5839	2037.7	1202.2
818.0051	510.7386	2034.9	1199
818.1493	512.8927	2030.8	1189.8
818.2935	515.0461	2036.1	1196.1
818.4377	517.199	2054.6	1214.7
818.5818	519.3512	2100.85	1253.7
818.726	521.5029	2165.9	1313.75
818.8703	523.6539	2216.6	1372.15
819.0145	525.8043	2220.3	1371.65
819.1587	527.9541	2169.25	1320.35
819.303	530.1033	2112.6	1269.45
819.4472	532.2519	2062.3	1215.8
819.5915	534.3999	2053.65	1205
819.7357	536.5472	2043.05	1191.2
819.88	538.694	2042.7	1198.35
820.0243	540.8401	2055.95	1206.4
820.1686	542.9856	2083.3	1229.55
820.3129	545.1305	2082.85	1225.15
820.4572	547.2748	2098.05	1244.65
820.6016	549.4185	2112.45	1251.7
820.7459	551.5615	2117.65	1262.7
820.8902	553.704	2124.8	1270.15
821.0346	555.8458	2151.05	1297.65
821.1789	557.987	2165.4	1313.15
821.3233	560.1276	2193.5	1338.6
821.4677	562.2675	2238.1	1384.05
821.6121	564.4069	2290.15	1432.1
821.7565	566.5456	2332.9	1480.25
821.9009	568.6837	2320.5	1468.9
822.0453	570.8212	2255.25	1401.85
822.1897	572.958	2188.6	1333.95
822.3342	575.0942	2135.75	1284.4
822.4786	577.2299	2097.75	1245.3
822.6231	579.3648	2074.35	1228.35
822.7675	581.4992	2054.4	1211.85
822.912	583.6329	2064.3	1222.6
823.0565	585.766	2101.4	1254.15
823.201	587.8985	2129.4	1280.25
823.3454	590.0304	2188	1320
823.4899	592.1616	2210.5	1351.6
823.6345	594.2922	2189.85	1331.3
823.779	596.4222	2160	1298.25
823.9235	598.5515	2097.05	1233.6
824.068	600.6802	2056.6	1193.7
824.2126	602.8083	2013.75	1154.4
824.3571	604.9358	2018.3	1158.6
824.5017	607.0626	2013.05	1150.3
824.6462	609.1888	2017.3	1155.35
824.7908	611.3144	2049.1	1182.7
824.9354	613.4393	2087.4	1222.75
825.08	615.5636	2129.3	1262.35
825.2246	617.6873	2166.75	1301.55
825.3692	619.8103	2196.9	1329.9
825.5138	621.9327	2184.9	1319.2
825.6584	624.0544	2164.5	1303.15
825.803	626.1756	2099.45	1237.9
825.9477	628.2961	2071.3	1201.5
826.0923	630.4159	2046.45	1179.4
826.237	632.5351	2048.5	1179.8
826.3816	634.6537	2030.55	1159.15
826.5263	636.7716	2019.1	1150.15
826.6709	638.8889	2008.8	1138.2
826.8156	641.0056	2024.55	1153.3
826.9603	643.1216	2014.8	1143.65
827.105	645.237	2027.2	1155.5
827.2497	647.3518	2001.85	1134.05
827.3944	649.4659	1977.25	1109.5
827.5391	651.5793	1966.75	1099.95
827.6838	653.6922	1960.75	1092.95
827.8285	655.8043	1944.4	1075.4
827.9733	657.9159	1940.9	1075.3
828.118	660.0268	1924.9	1054.15
828.2627	662.137	1934.5	1064.5
828.4075	664.2466	1941.35	1066.4
828.5522	666.3556	1934.55	1063.55
828.697	668.4639	1925.85	1053.35
828.8418	670.5716	1916.7	1047.95
828.9865	672.6786	1920.1	1046.1
829.1313	674.785	1902.85	1024.3
829.2761	676.8907	1906.15	1032.05
829.4209	678.9958	1902.4	1031.65
829.5657	681.1002	1898.35	1024.3
829.7105	683.204	1907.2	1026.55
829.8553	685.3072	1907.45	1030.85
830.0001	687.4097	1906.15	1031.6
830.1449	689.5115	1905.05	1025.8
830.2898	691.6127	1900.55	1026.1
830.4346	693.7132	1885.75	1009.85
830.5794	695.8131	1918.8	1019.45
830.7243	697.9123	1910.35	1028.55
830.8691	700.0109	1910.8	1032.35
831.014	702.1089	1919.2	1041.6
831.1588	704.2061	1942.55	1067.8
831.3037	706.3028	1951.95	1072.3
831.4486	708.3987	1977	1097.1
831.5935	710.4941	1979.3	1099.1
831.7383	712.5887	1989.3	1108.5
831.8832	714.6827	1977.2	1093.95
832.0281	716.7761	1982.15	1103.7
832.173	718.8688	1977.7	1100.05
832.3179	720.9608	1977.3	1091.7
832.4628	723.0522	1997.85	1111.9
832.6077	725.1429	2022.35	1140.05
832.7527	727.233	2060.55	1178.35
832.8976	729.3224	2126.65	1245
833.0425	731.4112	2159.7	1278.2
833.1874	733.4993	2150.45	1268.75
833.3324	735.5867	2116.3	1236.35
833.4773	737.6735	2050.45	1164.35
833.6222	739.7596	1997.95	1112.1
833.7672	741.845	1974.65	1090.85
833.9122	743.9298	1965.35	1079.6
834.0571	746.014	1969.65	1086.35
834.2021	748.0974	1989.65	1104.3
834.347	750.1802	1983.75	1095.4
834.492	752.2624	1977.6	1093.75
834.637	754.3439	1965.2	1080.55
834.782	756.4247	1970.05	1071.8
834.9269	758.5048	1975.15	1089.7
835.0719	760.5843	1989.4	1102.05
835.2169	762.6631	2024.7	1135.7
835.3619	764.7413	2067.85	1180.2
835.5069	766.8188	2150.35	1262.05
835.6519	768.8956	2236.35	1348
835.7969	770.9718	2273.75	1384.25
835.9419	773.0473	2271.85	1382.8
836.0869	775.1221	2260.2	1372.85
836.232	777.1962	2237.35	1349.4
836.377	779.2697	2291.05	1400.3
836.522	781.3426	2386.05	1479.15
836.667	783.4147	2426.8	1539.9
836.8121	785.4862	2387.8	1499.85
836.9571	787.557	2313.1	1420.95
837.1021	789.6271	2190.05	1299.8
837.2472	791.6966	2073.15	1182.55
837.3922	793.7654	2009.7	1116.35
837.5373	795.8335	1951.9	1061.35
837.6823	797.901	1914.55	1026.3
837.8274	799.9678	1917.35	1026.65
837.9724	802.0339	1916.05	1025.6
838.1175	804.0993	1933.35	1035
838.2626	806.1641	1918.25	1024.5
838.4076	808.2282	1890.05	998.65
838.5527	810.2916	1874.1	978.3
838.6978	812.3544	1858.7	968.5
838.8428	814.4164	1859.85	967.2
838.9879	816.4778	1865.1	974.2
839.133	818.5385	1879.2	986.55
839.2781	820.5986	1911.5	1018.6
839.4232	822.658	1947.35	1051.55
839.5682	824.7166	2011.65	1118.65
839.7133	826.7747	2100.4	1208.8
839.8584	828.832	2169	1275.05
840.0035	830.8886	2225.45	1328.8
840.1486	832.9446	2237.9	1343.4
840.2937	834.9999	2199.1	1305.5
840.4388	837.0545	2145.7	1247.65
840.5839	839.1085	2071.65	1177.75
840.729	841.1618	2002.6	1103.65
840.8741	843.2143	1947.25	1053.9
841.0192	845.2662	1916.5	1022.65
841.1643	847.3175	1911.45	1016.75
841.3095	849.368	1894.65	1001.35
841.4546	851.4179	1891.55	997.15
841.5997	853.467	1890.9	994.9
841.7448	855.5155	1901.4	1008.1
841.8899	857.5633	1894.45	999.15
842.0351	859.6105	1887.2	990.05
842.1802	861.6569	1875.25	977.25
842.3253	863.7027	1870.15	972.8
842.4704	865.7478	1855.05	955.95
842.6156	867.7922	1841.95	941.5
842.7607	869.8359	1849.65	953.1
842.9058	871.8789	1840.5	943.35
843.0509	873.9212	1870.95	940.5
843.1961	875.9629	1845.1	948.95
843.3412	878.0039	1853.5	952.35
843.4863	880.0441	1864.35	971.1
843.6315	882.0837	1895.85	998.1
843.7766	884.1226	1917.55	1018
843.9218	886.1609	1953.8	1058.75
844.0669	888.1984	1994.65	1097.65
844.212	890.2352	2029.9	1130.7
844.3572	892.2714	2044.75	1141.35
844.5023	894.3069	2019.6	1118.95
844.6475	896.3416	1962.9	1063.7
844.7926	898.3757	1933.65	1033.15
844.9377	900.4091	1905.2	1003.6
845.0829	902.4418	1909.9	1006.05
845.228	904.4739	1929.9	1025.25
845.3732	906.5052	1938.05	1036.45
845.5183	908.5358	1920.95	1022.1
845.6635	910.5658	1914.25	1011.5
845.8086	912.595	1871.7	969.8
845.9538	914.6236	1840.25	940
846.0989	916.6515	1823.35	921.95
846.2441	918.6786	1799.35	891.2
846.3892	920.7051	1796.65	892.6
846.5344	922.7309	1783.1	883.65
846.6795	924.756	1787.1	886.1
846.8246	926.7804	1798.1	894.6
846.9698	928.8041	1812.8	911
847.1149	930.8272	1828.85	925.3
847.2601	932.8495	1831.15	926.45
847.4052	934.8711	1846.2	943
847.5504	936.892	1849.9	946.75
847.6955	938.9123	1874.4	971.4
847.8407	940.9318	1881.15	978.8
847.9858	942.9506	1890.9	988.15
848.131	944.9688	1881.2	980.3
848.2761	946.9862	1870.1	968.05
848.4213	949.003	1830.55	928
848.5664	951.019	1801.8	898.85
848.7115	953.0344	1793.65	888.9
848.8567	955.0491	1777.05	874.65
849.0018	957.063	1779.85	876.95
849.147	959.0763	1785.65	884.6
849.2921	961.0888	1772.5	869.75
849.4373	963.1007	1777.05	879.1
849.5824	965.1119	1768.6	873.65
849.7275	967.1223	1762.9	866.6
849.8727	969.1321	1764.85	868.95
850.0178	971.1412	1756	856.35
850.1629	973.1495	1744.4	842.85
850.3081	975.1572	1775.1	841.4
850.4532	977.1641	1756.65	851.4
850.5983	979.1704	1747.35	843.1
850.7435	981.1759	1750.2	845.2
850.8886	983.1808	1752.9	844.6
851.0337	985.1849	1744.85	828
851.1788	987.1884	1743.55	837.35
851.324	989.1911	1744.4	837.45
851.4691	991.1932	1749.05	845.75
851.6142	993.1945	1751.1	847.35
851.7593	995.1951	1751.05	847.85
851.9045	997.1951	1749.55	839.65
852.0496	999.1943	1736.2	833.25
852.1947	1001.1928	1749.45	846.85
852.3398	1003.1906	1757.4	853.75
852.4849	1005.1877	1776.1	869.5
852.63	1007.1841	1802.15	898.9
852.7751	1009.1798	1803.2	897.2
852.9202	1011.1748	1788.1	884.85
853.0653	1013.1691	1775.85	871.4
853.2104	1015.1627	1748.9	844.9
853.3555	1017.1556	1719.05	817.3
853.5006	1019.1477	1706.4	804.2
853.6457	1021.1392	1676.8	779.8
853.7908	1023.1299	1669.35	774.05
853.9359	1025.12	1679.7	782.95
854.081	1027.1093	1681.5	793.6
854.2261	1029.0979	1700.85	811.35
854.3712	1031.0859	1709.1	816.2
854.5163	1033.0731	1726.75	827.3
854.6613	1035.0596	1732.2	832.7
854.8064	1037.0454	1713.7	811.2
854.9515	1039.0304	1707.45	805
855.0965	1041.0148	1686.65	784.35
855.2416	1042.9985	1680.35	776.55
855.3867	1044.9814	1671.95	769.35
855.5317	1046.9636	1663.3	761.45
855.6768	1048.9452	1670.75	766.5
855.8219	1050.926	1683.3	780
855.9669	1052.9061	1705.55	802.55
856.112	1054.8855	1701	796.75
856.257	1056.8642	1695.15	793.35
856.4021	1058.8421	1702.85	797.15
856.5471	1060.8194	1690.6	786.7
856.6921	1062.7959	1694.4	789.05
856.8372	1064.7717	1681.55	776.7
856.9822	1066.7469	1700.5	793.45
857.1272	1068.7213	1699.9	792.7
857.2723	1070.695	1717.6	811.25
857.4173	1072.6679	1724.25	819.8
857.5623	1074.6402	1749.7	845.45
857.7073	1076.6117	1751.35	839.4
857.8523	1078.5826	1730.95	824.8
857.9973	1080.5527	1690.8	784.65
858.1423	1082.5221	1666.4	765.2
858.2873	1084.4908	1650.35	746.75
858.4323	1086.4587	1636.55	732.65
858.5773	1088.426	1631.05	723.05
858.7223	1090.3925	1623.4	714.3
858.8673	1092.3584	1627.5	722.6
859.0123	1094.3235	1644.3	740.7
859.1573	1096.2879	1664.3	761.3
859.3022	1098.2515	1686.6	781.85
859.4472	1100.2145	1716.45	811.4
859.5922	1102.1767	1735.65	828.5
859.7371	1104.1382	1779.6	875.5
859.8821	1106.099	1825.6	919.05
860.027	1108.0591	1865.75	959.6
860.172	1110.0185	1905.25	1000.2
860.3169	1111.9771	1936.55	1032.85
860.4619	1113.9351	1978.65	1074.35
860.6068	1115.8923	2029.1	1124.95
860.7517	1117.8488	2043.9	1136.85
860.8967	1119.8045	2002.45	1099.85
861.0416	1121.7596	1911.25	1007.25
861.1865	1123.7139	1826.3	924.85
861.3314	1125.6675	1774.05	870.6
861.4763	1127.6204	1785.9	882.6
861.6212	1129.5726	1795.15	887.5
861.7661	1131.524	1787.7	881.4
861.911	1133.4748	1753.65	849.4
862.0559	1135.4248	1707	800.55
862.2008	1137.3741	1664.85	760.95
862.3457	1139.3226	1644.05	735.65
862.4905	1141.2705	1644.95	740.05
862.6354	1143.2176	1650.6	739.85
862.7803	1145.164	1668.2	760.6
862.9251	1147.1097	1639.95	736.05
863.07	1149.0546	1628.95	721.8
863.2148	1150.9989	1611.35	704.45
863.3597	1152.9424	1591.7	685.4
863.5045	1154.8852	1583.55	677.25
863.6493	1156.8272	1573.8	671.85
863.7942	1158.7686	1583.9	672.05
863.939	1160.7092	1582.85	675.6
864.0838	1162.6491	1579.9	671.95
864.2286	1164.5883	1599.05	693.4
864.3734	1166.5267	1620.75	715.8
864.5182	1168.4644	1636.25	732.2
864.663	1170.4014	1667.95	757.4
864.8078	1172.3377	1699.4	794.5
864.9526	1174.2732	1755.8	852.85
865.0974	1176.2081	1840.65	935.1
865.2421	1178.1421	1950.1	1041.45
865.3869	1180.0755	2038.35	1134.7
865.5317	1182.0082	2077.4	1175.2
865.6764	1183.9401	2048.5	1144.65
865.8212	1185.8713	1962.5	1060.6
865.9659	1187.8017	1851.5	952.4
866.1106	1189.7315	1753.3	858
866.2554	1191.6605	1712.55	789
866.4001	1193.5888	1657.95	758.4
866.5448	1195.5163	1625.65	725.7
866.6895	1197.4432	1619.85	715.55
866.8342	1199.3693	1596.95	694.6
866.9789	1201.2947	1597.45	691.9
867.1236	1203.2193	1590.1	685.3
867.2683	1205.1432	1583.75	678.9
867.413	1207.0664	1588.75	684
867.5576	1208.9889	1588.8	681.6
867.7023	1210.9106	1578.95	674.25
867.847	1212.8316	1584.15	682.65
867.9916	1214.7519	1602.3	689
868.1363	1216.6715	1611.7	706.05
868.2809	1218.5903	1618.1	715.8
868.4255	1220.5084	1643.05	738.25
868.5701	1222.4257	1655.9	750.15
868.7148	1224.3424	1655.5	752.3
868.8594	1226.2583	1682.45	776.1
869.004	1228.1735	1712.6	807.7
869.1486	1230.0879	1736.55	830.9
869.2932	1232.0016	1780.2	878.55
869.4377	1233.9146	1819.65	914
869.5823	1235.8269	1830.35	926.9
869.7269	1237.7384	1836.65	930.55
869.8715	1239.6492	1832	927.55
870.016	1241.5592	1858.45	952.95
870.1606	1243.4686	1901.55	996.7
870.3051	1245.3772	1970.15	1066.2
870.4496	1247.285	2050.85	1144.25
870.5941	1249.1922	2123.2	1217.7
870.7387	1251.0986	2183.5	1280.75
870.8832	1253.0042	2249.3	1346.6
871.0277	1254.9092	2335.45	1434.7
871.1722	1256.8134	2399.45	1496
871.3167	1258.7169	2453.65	1549.4
871.4611	1260.6196	2464.4	1559.75
871.6056	1262.5216	2456.75	1550.5
871.7501	1264.4229	2427.25	1523.05
871.8945	1266.3234	2409.85	1505.15
872.039	1268.2232	2364.9	1457.05
872.1834	1270.1223	2335.7	1428.7
872.3278	1272.0207	2307.4	1403.55
872.4723	1273.9183	2287	1377.85
872.6167	1275.8151	2292.25	1389.65
872.7611	1277.7113	2340.25	1435.6
872.9055	1279.6067	2421.15	1516.8
873.0499	1281.5014	2544.05	1638.1
873.1943	1283.3953	2698.3	1790.7
873.3386	1285.2885	2837.45	1931.15
873.483	1287.181	2942.6	2039.1
873.6274	1289.0727	2974.25	2071.15
873.7717	1290.9637	2932.8	2029.6
873.9161	1292.854	2863.6	1959.4
874.0604	1294.7435	2768.9	1862.85
874.2047	1296.6323	2700.85	1795.1
874.349	1298.5204	2632.25	1725
874.4933	1300.4077	2564.85	1656.85
874.6376	1302.2943	2524.8	1619.15
874.7819	1304.1802	2501.1	1595.2
874.9262	1306.0653	2462.1	1557.65
875.0705	1307.9497	2422.55	1518.85
875.2147	1309.8333	2390.45	1488.4
875.359	1311.7162	2349.2	1442.65
875.5032	1313.5984	2305.95	1397.8
875.6475	1315.4798	2302.25	1387.25
875.7917	1317.3605	2288.3	1365.9
875.9359	1319.2405	2277.95	1369.9
876.0801	1321.1197	2231.85	1325.45
876.2243	1322.9982	2180.25	1272.75
876.3685	1324.876	2109.25	1205.3
876.5127	1326.753	2024.75	1118.6
876.6569	1328.6293	1957.15	1051.55
876.801	1330.5048	1890.8	979.25
876.9452	1332.3796	1834.65	928.65
877.0893	1334.2537	1813.1	884.85
877.2335	1336.127	1760	854.45
877.3776	1337.9996	1738.15	832.2
877.5217	1339.8714	1718.7	811.95
877.6658	1341.7426	1742.35	790.5
877.8099	1343.6129	1699.4	792.8
877.954	1345.4826	1688.55	780.95
878.0981	1347.3515	1671.85	762.6
878.2422	1349.2196	1663.3	755.1
878.3862	1351.087	1659.65	752.45
878.5303	1352.9537	1644.8	738.3
878.6743	1354.8197	1653.15	745.1
878.8184	1356.6849	1661.9	756.65
878.9624	1358.5493	1675.85	769.45
879.1064	1360.4131	1699.05	793.3
879.2504	1362.276	1741.6	839
879.3944	1364.1383	1769.95	866.4
879.5384	1365.9998	1779.2	868.35
879.6823	1367.8606	1761.55	855.85
879.8263	1369.7206	1748.3	843.7
879.9702	1371.5799	1751.75	844.4
880.1142	1373.4384	1739.5	832.85
880.2581	1375.2962	1708.2	799.2
880.402	1377.1533	1667.5	762.9
880.5459	1379.0096	1621.1	717.5
880.6898	1380.8652	1588.6	685.9
880.8337	1382.7201	1560.45	656.85
880.9776	1384.5742	1542.8	637.6
881.1215	1386.4275	1533.35	627.05
881.2653	1388.2802	1516.4	612.2
881.4092	1390.132	1503	597.9
881.553	1391.9832	1492.5	585.25
881.6968	1393.8336	1481.45	573.8
881.8406	1395.6832	1482.45	575.1
881.9844	1397.5322	1467.5	563.1
882.1282	1399.3803	1464	555.3
882.272	1401.2278	1462.95	556.5
882.4158	1403.0745	1445.85	542.2
882.5595	1404.9204	1442.15	537.85
882.7033	1406.7656	1438.55	531.25
882.847	1408.6101	1436.1	531
882.9908	1410.4538	1432.1	526.4
883.1345	1412.2968	1436.65	532.1
883.2782	1414.139	1438	532.35
883.4219	1415.9805	1446.4	543.05
883.5656	1417.8213	1458.15	548.9
883.7092	1419.6613	1463.45	559.9
883.8529	1421.5006	1499.2	593.45
883.9965	1423.3391	1522.8	619.65
884.1402	1425.1769	1565.15	660.05
884.2838	1427.0139	1627.45	722.8
884.4274	1428.8502	1708.8	804.15
884.571	1430.6858	1760.25	854.35
884.7146	1432.5206	1778.4	875.35
884.8582	1434.3547	1781.65	875.55
885.0018	1436.188	1764.1	859.7
885.1453	1438.0206	1756.8	853.15
885.2889	1439.8524	1741.6	838.25
885.4324	1441.6835	1735.85	832.95
885.5759	1443.5139	1742.55	836.8
885.7194	1445.3435	1742	838.75
885.8629	1447.1724	1746.5	844.65
886.0064	1449.0005	1733.6	831.8
886.1499	1450.8279	1732.3	827.95
886.2933	1452.6545	1730.7	828.45
886.4368	1454.4804	1728	826.15
886.5802	1456.3056	1721.25	811.05
886.7237	1458.13	1700.95	797.25
886.8671	1459.9536	1675.25	769.4
887.0105	1461.7766	1646.6	744.2
887.1539	1463.5987	1616.5	711.8
887.2972	1465.4202	1576.1	673.3
887.4406	1467.2409	1545.35	642.35
887.584	1469.0608	1529.15	626.5
887.7273	1470.88	1493.55	590.1
887.8706	1472.6984	1467.5	561.75
888.0139	1474.5161	1459.75	555
888.1572	1476.3331	1443.15	539.7
888.3005	1478.1493	1439.45	535.35
888.4438	1479.9648	1439	537.55
888.5871	1481.7795	1428.65	526.35
888.7303	1483.5935	1430.15	527
888.8736	1485.4067	1429.2	526.05
889.0168	1487.2192	1426.25	522.15
889.16	1489.031	1430.75	526.35
889.3032	1490.842	1421.2	517.55
889.4464	1492.6522	1417.2	510.6
889.5896	1494.4618	1422.6	517.85
889.7327	1496.2705	1417.45	516.75
889.8759	1498.0785	1409.05	504.25
890.019	1499.8858	1406.35	500.85
890.1622	1501.6924	1395.25	495.2
890.3053	1503.4981	1393.9	491.65
890.4484	1505.3032	1385.15	482.2
890.5914	1507.1075	1380.55	476.55
890.7345	1508.911	1369.9	467.25
890.8776	1510.7138	1364.2	459.6
891.0206	1512.5159	1360.3	459.45
891.1637	1514.3172	1353.4	450.7
891.3067	1516.1178	1347.75	448.15
891.4497	1517.9176	1347.5	441.25
891.5927	1519.7166	1342.55	439.4
891.7357	1521.515	1335	426.75
891.8786	1523.3126	1332.45	429.95
892.0216	1525.1094	1333.85	428.95
892.1645	1526.9055	1326.25	424.2
892.3074	1528.7008	1323.1	423.1
892.4503	1530.4954	1325.05	417.95
892.5932	1532.2893	1316.4	415.95
892.7361	1534.0824	1319.1	412.45
892.879	1535.8747	1317.9	416.45
893.0218	1537.6663	1310.65	411.25
893.1647	1539.4572	1311.5	409.1
893.3075	1541.2473	1311.85	410.1
893.4503	1543.0367	1313.9	413.65
893.5931	1544.8253	1317.4	413.75
893.7359	1546.6132	1320.55	417.45
893.8787	1548.4003	1327.4	417
894.0214	1550.1867	1341.65	429.65
894.1642	1551.9723	1347	442.5
894.3069	1553.7572	1353.4	450.15
894.4496	1555.5414	1366.75	468.3
894.5923	1557.3247	1399.8	501.35
894.735	1559.1074	1425.05	527.6
894.8777	1560.8893	1449.25	551.3
895.0204	1562.6705	1482.4	581.5
895.163	1564.4509	1500.2	603.4
895.3056	1566.2305	1512.6	617.15
895.4482	1568.0094	1507.1	612.5
895.5908	1569.7876	1504.75	608.55
895.7334	1571.565	1492.15	594.6
895.876	1573.3417	1498.75	602.9
896.0186	1575.1176	1508.85	612.65
896.1611	1576.8928	1522	625.3
896.3036	1578.6672	1533.05	638.85
896.4461	1580.4409	1551.2	658.95
896.5886	1582.2138	1583.55	689.2
896.7311	1583.986	1607.25	710.4
896.8736	1585.7575	1642.1	747.15
897.0161	1587.5282	1658.2	763.95
897.1585	1589.2981	1686.15	793.35
897.3009	1591.0673	1690.8	795.8
897.4433	1592.8358	1705.7	812.45
897.5857	1594.6035	1718.6	824.05
897.7281	1596.3704	1705	807.55
897.8705	1598.1366	1691.55	796.75
898.0128	1599.9021	1672.25	778.15
898.1551	1601.6668	1662.4	765.4
898.2975	1603.4308	1656.6	758.95
898.4398	1605.194	1663.5	763
898.5821	1606.9564	1681.1	788.7
898.7243	1608.7182	1744.35	851.65
898.8666	1610.4791	1807.35	921.4
899.0088	1612.2394	1878	989.35
899.1511	1613.9988	1955.5	1066.75
899.2933	1615.7576	2008.7	1117.95
899.4355	1617.5156	2021.6	1118.3
899.5776	1619.2728	1981.25	1084
899.7198	1621.0293	1907.55	1013.5
899.862	1622.785	1807.35	912.3
900.0041	1624.54	1705.6	809.7
900.1462	1626.2942	1618.95	725.75
900.2883	1628.0477	1539.5	645.85
900.4304	1629.8005	1475.05	578.65
900.5725	1631.5525	1426.65	534.8
900.7145	1633.3037	1385.45	495.05
900.8566	1635.0542	1356.7	464.3
900.9986	1636.804	1333.05	440.4
901.1406	1638.553	1373.95	409.7
901.2826	1640.3013	1293.9	402.35
901.4245	1642.0488	1270.3	376.55
901.5665	1643.7955	1259.1	369.2
901.7085	1645.5416	1250.65	360.35
901.8504	1647.2868	1252.75	361.3
901.9923	1649.0313	1238.7	345.8
902.1342	1650.7751	1237.05	340.9
902.2761	1652.5181	1231.05	337.15
902.4179	1654.2604	1234.3	341.2
902.5598	1656.0019	1243.35	352.8
902.7016	1657.7427	1248.9	357.85
902.8434	1659.4828	1275.2	379.25
902.9852	1661.222	1296.85	403.05
903.127	1662.9606	1318.45	426.15
903.2687	1664.6984	1340	442.95
903.4105	1666.4354	1333.3	437.75
903.5522	1668.1717	1310.45	414.65
903.6939	1669.9072	1277.95	382.75
903.8356	1671.642	1240.05	341.9
903.9773	1673.3761	1217.1	323.65
904.119	1675.1094	1191.4	297.6
904.2606	1676.8419	1185.75	292.25
904.4022	1678.5737	1161.75	266.2
904.5439	1680.3048	1161.05	266.35
904.6855	1682.0351	1149.05	251.65
904.827	1683.7646	1149.1	252.9
904.9686	1685.4934	1148	252.25
905.1101	1687.2215	1140.6	247.65
905.2517	1688.9488	1134.15	240.95
905.3932	1690.6754	1133.7	240.8
905.5347	1692.4012	1130.15	234.65
905.6761	1694.1263	1126.9	234.6
905.8176	1695.8506	1128.25	234
905.9591	1697.5742	1123.15	232.35
906.1005	1699.297	1116.55	224.75
906.2419	1701.0191	1117.15	227.7
906.3833	1702.7404	1114.4	222.8
906.5246	1704.461	1117.05	223.4
906.666	1706.1808	1112.95	218.75
906.8073	1707.8999	1114.25	221.4
906.9487	1709.6182	1107.2	217.3
907.09	1711.3358	1105.95	217.45
907.2313	1713.0527	1100.65	212.95
907.3725	1714.7688	1108.6	213.4
907.5138	1716.4841	1103.2	210.4
907.655	1718.1987	1108.35	209.75
907.7962	1719.9126	1100.05	211.85
907.9374	1721.6257	1095.7	204.05
908.0786	1723.338	1096.55	207.2
908.2198	1725.0496	1096.1	204.6
908.3609	1726.7605	1096.85	206.75
908.502	1728.4706	1097.2	207.4
908.6431	1730.18	1091.5	199.85
908.7842	1731.8886	1089.9	198.85
908.9253	1733.5964	1113.95	203.1
909.0664	1735.3036	1102.75	207.65
909.2074	1737.0099	1088.6	198.35
909.3484	1738.7156	1084.1	195.3
909.4894	1740.4204	1091.75	200.55
909.6304	1742.1246	1093.6	200.6
909.7714	1743.8279	1085.2	195.65
909.9123	1745.5306	1090.2	199.45
910.0532	1747.2325	1086.4	196.3
910.1941	1748.9336	1087.1	197.05
910.335	1750.634	1089	197.1
910.4759	1752.3336	1088.8	199.85
910.6168	1754.0325	1081.9	194.2
910.7576	1755.7307	1083.9	196.85
910.8984	1757.4281	1085.7	195.75
911.0392	1759.1247	1092.35	191.9
911.18	1760.8206	1090.85	193.5
911.3208	1762.5158	1083.65	185.35
911.4615	1764.2102	1085.2	194.75
911.6022	1765.9039	1083.2	194.5
911.7429	1767.5968	1078.7	192.05
911.8836	1769.289	1079.7	187.65
912.0243	1770.9804	1081.25	188.25
912.1649	1772.6711	1080.55	184.35
912.3056	1774.361	1084.2	191.25
912.4462	1776.0502	1079.45	186.55
912.5868	1777.7386	1083.45	186.55
912.7274	1779.4263	1080.95	190.25
912.8679	1781.1132	1075.5	186.75
913.0084	1782.7994	1076.15	187.95
913.149	1784.4849	1072.85	186.25
913.2895	1786.1696	1092.4	183.35
913.4299	1787.8535	1070.55	182.45
913.5704	1789.5367	1077.05	189.9
913.7108	1791.2192	1068.55	180.15
913.8513	1792.9009	1099.35	182.95
913.9917	1794.5818	1077.2	184.1
914.132	1796.2621	1073.5	182.5
914.2724	1797.9415	1073.35	183.25
914.4128	1799.6202	1072.4	181.6
914.5531	1801.2982	1071.05	180.9
914.6934	1802.9755	1074.25	183.4
914.8337	1804.6519	1066.45	173
914.9739	1806.3277	1067.45	179.25
915.1142	1808.0027	1060.05	172.8
915.2544	1809.6769	1065.3	177.5
915.3946	1811.3504	1063.3	172.1
915.5348	1813.0231	1064.6	174.85
915.675	1814.6951	1062.2	175.15
915.8151	1816.3664	1066.45	172.1
915.9553	1818.0369	1064.4	173.5
916.0954	1819.7067	1063.65	175.35
916.2355	1821.3757	1066.15	172.85
916.3755	1823.044	1064.3	174.1
916.5156	1824.7115	1064.9	172.2
916.6556	1826.3783	1056.2	164.25
916.7956	1828.0443	1066.6	177.8
916.9356	1829.7096	1059.65	169.15
917.0756	1831.3741	1067.05	174.55
917.2155	1833.0379	1057.5	168.4
917.3555	1834.701	1053.05	164
917.4954	1836.3633	1056.4	168.2
917.6353	1838.0248	1060.5	170.95
917.7751	1839.6856	1059.95	171.55
917.915	1841.3457	1059.05	169.25
918.0548	1843.005	1056.7	166.15
918.1946	1844.6636	1056.7	165.85
918.3344	1846.3214	1050.35	160
918.4742	1847.9785	1054.95	166.3
918.6139	1849.6349	1059.95	167.3
918.7537	1851.2904	1069.5	168.55
918.8934	1852.9453	1052.1	159.25
919.0331	1854.5994	1055.7	162.05
919.1727	1856.2528	1059.95	165.55
919.3124	1857.9054	1059.45	166.95
919.452	1859.5572	1050.85	160.5
919.5916	1861.2083	1048.45	156.45
919.7312	1862.8587	1053.75	163.6
919.8708	1864.5084	1053.3	161.25
920.0103	1866.1572	1059.45	167
920.1498	1867.8054	1048.9	156.95
920.2893	1869.4528	1056.05	164.45
920.4288	1871.0994	1047.35	154.75
920.5683	1872.7453	1056	166.2
920.7077	1874.3905	1054.95	160.05
920.8471	1876.0349	1048.5	157.3
920.9865	1877.6786	1049.8	159.15
921.1259	1879.3215	1042.7	153.25
921.2653	1880.9637	1045.95	153.8
921.4046	1882.6051	1049.3	159.6
921.5439	1884.2458	1047.9	156.4
921.6832	1885.8858	1046.4	155.55
921.8225	1887.525	1045.3	153.3
921.9617	1889.1634	1044.6	155.25
922.101	1890.8011	1046.3	155.1
922.2402	1892.4381	1042.1	150.4
922.3794	1894.0743	1043.9	153.7
922.5185	1895.7098	1045.1	152.35
922.6577	1897.3446	1041.6	151.45
922.7968	1898.9786	1045.05	151.3
922.9359	1900.6118	1036.65	147.5
923.075	1902.2443	1042.5	151
923.214	1903.8761	1042.65	153.45
923.3531	1905.5071	1038.45	147.25
923.4921	1907.1374	1042	149.75
923.6311	1908.7669	1039.9	148.3
923.77	1910.3957	1041.05	152.45
923.909	1912.0237	1036.4	147.65
924.0479	1913.651	1041.75	152.35
924.1868	1915.2776	1036.15	147.2
924.3257	1916.9034	1034.55	145.1
924.4646	1918.5285	1034.25	145.7
924.6034	1920.1528	1039.1	148.45
924.7422	1921.7764	1034.1	143.75
924.881	1923.3992	1036.85	147.9
925.0198	1925.0213	1034.2	143.9
925.1586	1926.6427	1035.45	144.45
925.2973	1928.2633	1248.25	145.8
925.436	1929.8832	1037.5	142.7
925.5747	1931.5023	1035.45	143.95
925.7134	1933.1207	1033.1	141.5
925.852	1934.7383	1031.85	143.1
925.9906	1936.3552	1031.85	143.15
926.1292	1937.9714	1035.75	147.4
926.2678	1939.5868	1033.95	143.2
926.4064	1941.2015	1032.9	140.45
926.5449	1942.8154	1031.65	140.8
926.6834	1944.4286	1032.35	141.7
926.8219	1946.041	1050.55	135.7
926.9604	1947.6528	1033.75	139.4
927.0988	1949.2637	1029.7	140.55
927.2372	1950.8739	1030.65	140.5
927.3756	1952.4834	1027.75	139.35
927.514	1954.0921	1032.7	141.9
927.6523	1955.7001	1029.35	137
927.7907	1957.3074	1023.2	135
927.929	1958.9139	1024.8	138.7
928.0673	1960.5197	1025.8	137.65
928.2055	1962.1247	1024.4	138
928.3438	1963.729	1024.1	137.8
928.482	1965.3325	1028.45	137.15
928.6202	1966.9353	1019.6	133.95
928.7584	1968.5374	1018.75	130
928.8965	1970.1387	1019.55	130.25
929.0346	1971.7393	1022.3	135.05
929.1727	1973.3392	1020.35	135.8
929.3108	1974.9383	1013.2	128.05
929.4489	1976.5366	1019.8	134.85
929.5869	1978.1342	1018.6	134
929.7249	1979.7311	1020.7	134.45
929.8629	1981.3273	1016.55	130.95
930.0009	1982.9227	1017.65	134.25
930.1388	1984.5173	1013.6	132.05
930.2767	1986.1112	1012.2	129
930.4146	1987.7044	1013.9	130.25
930.5525	1989.2968	1017.3	129.9
930.6904	1990.8885	1018	128.95
930.8282	1992.4795	1018.85	132.4
930.966	1994.0697	1013.4	130.05
931.1038	1995.6592	1014.6	129.75
931.2415	1997.2479	1014.2	129.8
931.3793	1998.8359	1011.25	127.3
931.517	2000.4232	1008.35	126.2
931.6547	2002.0097	1007.2	126.8
931.7923	2003.5955	1011.4	131.05
931.93	2005.1805	1013.25	130.4
932.0676	2006.7648	1008	125.95
932.2052	2008.3484	1005.5	121.4
932.3427	2009.9312	1015.65	132.65
932.4803	2011.5133	1004.7	124.8
932.6178	2013.0946	1008.8	124.85
932.7553	2014.6752	1010.05	128.45
932.8928	2016.2551	1010.55	128.1
933.0302	2017.8342	1009.75	128.45
933.1676	2019.4126	1009.4	128.55
933.305	2020.9902	1010.8	132.2
933.4424	2022.5672	1010.45	128.55
933.5798	2024.1433	1010.15	126.9
933.7171	2025.7188	1005.4	128.15
933.8544	2027.2935	1008.7	126.25
933.9917	2028.8674	1007.05	126.55
934.129	2030.4406	1003.35	123.8
934.2662	2032.0131	1006.2	128.45
934.4034	2033.5849	1002.55	118.85
934.5406	2035.1559	1004.35	124.95
934.6778	2036.7261	1003.2	123.05
934.8149	2038.2957	1004.9	121.75
934.952	2039.8645	1005.7	123
935.0891	2041.4325	1009.55	124.05
935.2262	2042.9998	1006.6	125.9
935.3632	2044.5664	1003.45	119.35
935.5002	2046.1323	1002.2	120.55
935.6372	2047.6974	1002.3	123.65
935.7742	2049.2617	1002.05	121.8
935.9111	2050.8254	1004.8	119.1
936.048	2052.3883	1006.75	124.7
936.1849	2053.9504	1003.85	119.9
936.3218	2055.5118	1006.1	123.7
936.4586	2057.0725	1004.45	118
936.5955	2058.6325	1005.7	124.9
936.7323	2060.1917	1001	120.2
936.869	2061.7502	1006.15	123.65
937.0058	2063.3079	999.6	120.55
937.1425	2064.8649	1008.6	125.3
937.2792	2066.4212	1002.65	122.5
937.4159	2067.9767	1004.55	120.6
937.5525	2069.5315	1000.9	117.75
937.6891	2071.0856	1004.2	121.4
937.8257	2072.6389	1002.5	121.1
937.9623	2074.1915	1003.1	124.35
938.0989	2075.7433	1002.4	120.55
938.2354	2077.2945	999.1	119
938.3719	2078.8448	1001.75	119.7
938.5084	2080.3945	1001.55	119.85
938.6448	2081.9434	1004.4	121.85
938.7812	2083.4916	999.7	114.3
938.9176	2085.039	1000.6	111.7
939.054	2086.5857	1003.9	115.8
939.1903	2088.1317	1003.15	116.8
939.3267	2089.677	1006.15	120.75
939.463	2091.2215	1006.45	122.5
939.5992	2092.7652	1002.35	114.45
939.7355	2094.3083	1003.5	118.6
939.8717	2095.8506	1001.9	118.65
940.0079	2097.3921	1002.5	119.35
940.1441	2098.933	1001.9	117.1
940.2802	2100.4731	1002.15	118
940.4163	2102.0124	1023.8	122.4
940.5524	2103.5511	999.1	114.75
940.6885	2105.089	1002.55	119.05
940.8245	2106.6261	1000.35	116.75
940.9606	2108.1626	1000.7	116.1
941.0965	2109.6983	1029.95	121.1
941.2325	2111.2332	1003.3	118.95
941.3684	2112.7675	1002.35	115.1
941.5044	2114.301	1004.5	119.25
941.6403	2115.8337	1003.5	120.4
941.7761	2117.3657	1000.45	117.85
941.912	2118.897	1002.6	114.75
942.0478	2120.4276	1007	115.65
942.1835	2121.9575	1002.5	116.85
942.3193	2123.4866	1006.95	120.9
942.455	2125.0149	1003.1	115.95
942.5907	2126.5426	1000.65	120.4
942.7264	2128.0695	1001.4	115.95
942.8621	2129.5956	995.45	116.6
942.9977	2131.1211	995.65	109.55
943.1333	2132.6458	995.7	112.9
943.2689	2134.1698	1002.75	117.2
943.4044	2135.693	1001.6	112
943.54	2137.2155	1000.7	115.15
943.6755	2138.7373	1000.5	119
943.8109	2140.2584	996.25	115.4
943.9464	2141.7787	999.6	111.95
944.0818	2143.2983	994.1	115.8
944.2172	2144.8171	994.85	115.15
944.3526	2146.3353	1001.1	116.7
944.4879	2147.8527	996.75	116.6
944.6232	2149.3693	997.5	112.3
944.7585	2150.8853	1000.3	113.65
944.8938	2152.4005	997.15	113.65
945.029	2153.9149	1001.85	116.9
945.1642	2155.4287	997.85	113.7
945.2994	2156.9417	1000.05	115.65
945.4346	2158.454	998.6	112.9
945.5697	2159.9655	992.55	112.15
945.7048	2161.4764	996	114.25
945.8399	2162.9865	993.55	110.7
945.9749	2164.4958	991.6	109.85
946.1099	2166.0045	996.65	109.85
946.2449	2167.5124	995.05	112.55
946.3799	2169.0195	996	111
946.5148	2170.526	993.7	108.3
946.6498	2172.0317	997.35	113.8
946.7846	2173.5367	997.2	113.8
946.9195	2175.0409	993.55	110.9
947.0543	2176.5445	992.6	109.15
947.1891	2178.0473	995.3	108.35
947.3239	2179.5494	995.2	108.7
947.4587	2181.0507	993.75	110.6
947.5934	2182.5513	991.1	108.9
947.7281	2184.0512	995.15	111.95
947.8628	2185.5504	994.65	112.3
947.9974	2187.0488	989.95	107.55
948.132	2188.5465	990.25	109.55
948.2666	2190.0435	991.9	110.55
948.4012	2191.5397	988.8	105.25
948.5357	2193.0353	989.65	104.85
948.6702	2194.5301	992.1	105.35
948.8047	2196.0241	992.8	107.3
948.9392	2197.5175	991.75	107.7
949.0736	2199.0101	996.65	106.6
949.208	2200.502	989.3	107.3
949.3424	2201.9931	988.55	107.35
949.4767	2203.4835	987.25	103.15
949.611	2204.9733	1006.7	110.35
949.7453	2206.4622	989.85	107.85
949.8796	2207.9505	985.85	100.2
950.0138	2209.438	985.65	106.85
950.148	2210.9248	989.1	105.65
950.2822	2212.4109	989.95	109.1
950.4164	2213.8962	991.95	106
950.5505	2215.3809	990.45	102.85
950.6846	2216.8648	992.8	106.6
950.8186	2218.3479	993.8	101.9
950.9527	2219.8304	991.35	103.2
951.0867	2221.3121	989.4	102.05
951.2207	2222.7931	987.85	101.4
951.3546	2224.2733	988.65	106.25
951.4886	2225.7529	988.8	106.7
951.6225	2227.2317	988	101.65
951.7563	2228.7098	984.05	102.9
951.8902	2230.1872	985.6	104.95
952.024	2231.6638	982.05	100.55
952.1578	2233.1397	987.85	102.5
952.2916	2234.6149	979.1	99.7
952.4253	2236.0894	981.85	99.2
952.559	2237.5632	990.5	96.65
952.6927	2239.0362	981.45	99.95
952.8263	2240.5085	984.2	103.3
952.9599	2241.9801	982.05	97.75
953.0935	2243.4509	982.45	98.85
953.2271	2244.921	980.85	95
953.3606	2246.3904	980.25	95.65
953.4941	2247.8591	980.7	96.2
953.6276	2249.3271	980.4	95.8
953.7611	2250.7943	981.45	98.85
953.8945	2252.2608	980.05	95.1
954.0279	2253.7266	980.4	95.65
954.1612	2255.1917	983.3	102.9
954.2946	2256.656	981.9	99.1
954.4279	2258.1197	980.45	98.85
954.5612	2259.5826	976.85	95.05
954.6944	2261.0447	978.3	95.2
954.8276	2262.5062	983.6	98.75
954.9608	2263.9669	982.8	95.85
955.094	2265.4269	977.8	93.9
955.2271	2266.8862	978.55	95.65
955.3602	2268.3448	980.3	97.95
955.4933	2269.8026	979.55	97.55
955.6264	2271.2598	978.2	94.55
955.7594	2272.7162	975.45	95.4
955.8924	2274.1719	979.2	95.5
956.0253	2275.6268	976.85	92.3
956.1583	2277.0811	978.1	94.2
956.2912	2278.5346	978.8	95.55
956.4241	2279.9874	977.45	94.35
956.5569	2281.4395	975.1	92.05
956.6897	2282.8908	980.75	92.05
956.8225	2284.3414	974.45	91.15
956.9553	2285.7914	971.9	88
957.088	2287.2406	976.55	92.6
957.2207	2288.689	979.65	94.05
957.3534	2290.1368	978.2	90.65
957.486	2291.5838	981	93.35
957.6186	2293.0302	976.95	88
957.7512	2294.4758	976.7	90.35
957.8838	2295.9206	977.4	91.75
958.0163	2297.3648	972.75	88.55
958.1488	2298.8082	976.25	94.5
958.2813	2300.251	976.05	92.4
958.4137	2301.693	974.95	87.6
958.5461	2303.1343	978.15	92.95
958.6785	2304.5748	972.5	88.9
958.8108	2306.0147	973.4	90.45
958.9432	2307.4538	972.1	87.05
959.0754	2308.8922	967.25	87.75
959.2077	2310.3299	973.1	89.7
959.3399	2311.7669	969.7	88.35
959.4721	2313.2031	973.45	92.15
959.6043	2314.6387	975	92.5
959.7365	2316.0735	972.1	88.05
959.8686	2317.5076	972.25	87.8
960.0006	2318.941	975.7	91.2
960.1327	2320.3737	974.55	89.7
960.2647	2321.8056	975.2	87.85
960.3967	2323.2369	974.15	90.5
960.5287	2324.6674	977.7	91.45
960.6606	2326.0972	977.9	92.75
960.7925	2327.5263	981.3	96.4
960.9244	2328.9547	980.85	96
961.0562	2330.3823	981	94.9
961.1881	2331.8092	977.85	90.1
961.3198	2333.2355	975.95	91.25
961.4516	2334.661	973	88.35
961.5833	2336.0858	970	84.65
961.715	2337.5098	972.55	87.75
961.8467	2338.9332	972.3	87.35
961.9783	2340.3558	971.3	83.15
962.1099	2341.7778	965.1	81.85
962.2415	2343.199	968.85	82.8
962.373	2344.6195	970.35	89.5
962.5045	2346.0393	963.7	81.4
962.636	2347.4583	973.1	89.95
962.7675	2348.8767	971.55	85.65
962.8989	2350.2943	968.35	80.25
963.0303	2351.7113	972.7	85.95
963.1617	2353.1275	967.8	79.1
963.293	2354.543	992	79.45
963.4243	2355.9578	971.1	84.5
963.5556	2357.3718	964.1	80.35
963.6868	2358.7852	968.8	83.6
963.818	2360.1978	967.35	81.85
963.9492	2361.6098	965.3	81.7
964.0803	2363.021	970.8	84.1
964.2114	2364.4315	968.65	84.25
964.3425	2365.8413	967.9	81.8
964.4736	2367.2504	965.65	84
964.6046	2368.6587	966.2	81.35
964.7356	2370.0664	966.55	81.75
964.8666	2371.4733	965.05	77.85
964.9975	2372.8795	966.7	79.9
965.1284	2374.285	964.25	78.05
965.2593	2375.6899	967.45	80.55
965.3901	2377.0939	965.35	81
965.5209	2378.4973	961.25	75.9
965.6517	2379.9	966.15	80
965.7825	2381.3019	965.3	81.4
965.9132	2382.7032	963.4	78.35
966.0439	2384.1037	961.3	79.8
966.1745	2385.5035	963.8	77.75
966.3051	2386.9027	959.15	76.55
966.4357	2388.3011	969.15	81.6
966.5663	2389.6987	964.95	79.4
966.6968	2391.0957	965.4	78.6
966.8273	2392.492	959.9	76.6
966.9578	2393.8876	964.7	77.05
967.0882	2395.2824	962.6	78
967.2186	2396.6765	958.25	71.7
967.349	2398.07	962.25	77.7
967.4793	2399.4627	965.2	77
967.6097	2400.8547	964.25	76
967.7399	2402.246	968.35	75
967.8702	2403.6366	960.05	72.4
968.0004	2405.0265	957.95	72.35
968.1306	2406.4156	967.1	77.8
968.2607	2407.8041	964.55	75.35
968.3909	2409.1918	962.1	73.15
968.521	2410.5789	962.4	74.45
968.651	2411.9652	962.25	73.35
968.781	2413.3508	962.45	75.75
968.911	2414.7358	962.6	74.95
969.041	2416.12	957.15	69.8
969.1709	2417.5035	959.85	73.45
969.3008	2418.8863	961.6	73.35
969.4307	2420.2684	961.15	74.55
969.5606	2421.6497	963.05	75.25
969.6904	2423.0304	957	70.2
969.8201	2424.4104	960.4	73.25
969.9499	2425.7896	964.75	72.8
970.0796	2427.1682	955.5	71.45
970.2093	2428.546	958.6	71.95
970.3389	2429.9232	955.9	68.95
970.4685	2431.2996	957.6	68.8
970.5981	2432.6753	959.1	71
970.7277	2434.0503	956.55	70.45
970.8572	2435.4246	955.05	69.2
970.9867	2436.7982	957.1	67.8
971.1161	2438.1711	955.15	67.3
971.2456	2439.5433	955.8	68.6
971.375	2440.9148	956.55	69.25
971.5043	2442.2856	955.35	68.85
971.6336	2443.6557	956.75	69.65
971.7629	2445.025	955	68.6
971.8922	2446.3937	953.6	66.35
972.0214	2447.7617	956.25	68.1
972.1506	2449.1289	952.2	68.1
972.2798	2450.4955	956.05	68.75
972.4089	2451.8613	955.1	69.55
972.538	2453.2265	951.15	64.5
972.6671	2454.5909	954.8	69.05
972.7961	2455.9546	951.9	66.9
972.9251	2457.3177	950.3	63.45
973.0541	2458.68	954.2	64.85
973.1831	2460.0416	954.05	68.95
973.312	2461.4025	954.35	69.25
973.4408	2462.7627	960.8	65.05
973.5697	2464.1222	951.65	66.65
973.6985	2465.4811	950.45	64.2
973.8273	2466.8392	952.55	69.6
973.956	2468.1966	952.55	63.15
974.0847	2469.5533	956.05	67
974.2134	2470.9093	951.7	66
974.3421	2472.2645	952.05	65.95
974.4707	2473.6191	949.5	63.6
974.5993	2474.973	948	62.95
974.7278	2476.3262	954.2	66.95
974.8563	2477.6787	949.55	65.85
974.9848	2479.0305	952.4	68
975.1132	2480.3816	950.1	62.1
975.2417	2481.7319	951.3	66.65
975.37	2483.0816	948.25	61.35
975.4984	2484.4306	949.2	65.9
975.6267	2485.7789	948.2	65.65
975.755	2487.1264	949.4	62.7
975.8833	2488.4733	948.7	67.55
976.0115	2489.8195	966.9	65.75
976.1397	2491.165	955.3	68.55
976.2678	2492.5097	948.2	63.5
976.3959	2493.8538	946.45	63.1
976.524	2495.1972	944.4	58.85
976.6521	2496.5398	948.2	62.4
976.7801	2497.8818	954.45	66.55
976.9081	2499.2231	949.65	63.7
977.036	2500.5637	947.95	60.5
977.164	2501.9035	952.25	65.25
977.2918	2503.2427	950.95	61.3
977.4197	2504.5812	947.25	62.65
977.5475	2505.919	947.6	59.6
977.6753	2507.256	945.8	62
977.8031	2508.5924	944.75	59.85
977.9308	2509.9281	951.65	58.95
978.0585	2511.2631	942.6	57.5
978.1861	2512.5974	939.95	55.6
978.3137	2513.9309	943.6	56.75
978.4413	2515.2638	974.35	63.8
978.5689	2516.596	945.6	58.6
978.6964	2517.9275	946.65	60.7
978.8239	2519.2583	947.9	61.5
978.9513	2520.5884	946.85	59.05
979.0788	2521.9178	943.55	57.25
979.2062	2523.2465	943.1	58.95
979.3335	2524.5745	943	58.85
979.4608	2525.9018	942.95	58.75
979.5881	2527.2284	939.65	52.85
979.7154	2528.5543	941	57.7
979.8426	2529.8796	944.7	60.15
979.9698	2531.2041	941.55	55.95
980.0969	2532.5279	939.4	57.05
980.224	2533.851	941.4	56.7
980.3511	2535.1735	941.1	57.5
980.4781	2536.4952	943.2	59.9
980.6052	2537.8163	937.45	51.85
980.7321	2539.1366	944	57.25
980.8591	2540.4562	943.2	55.4
980.986	2541.7752	943.5	59.05
981.1129	2543.0935	941.25	56.8
981.2397	2544.411	943.15	56.75
981.3665	2545.7279	943.7	57.85
981.4933	2547.0441	942.15	55.45
981.62	2548.3596	943.85	56.05
981.7467	2549.6744	944.5	58.85
981.8734	2550.9885	951.45	57.75
982.0001	2552.3019	942.6	58.15
982.1267	2553.6146	941.45	57.8
982.2532	2554.9266	941.25	53.75
982.3798	2556.2379	942.25	56.95
982.5063	2557.5485	938.8	55.15
982.6327	2558.8585	949.05	56.35
982.7592	2560.1677	941.9	53.15
982.8856	2561.4762	940.9	55.85
983.0119	2562.7841	945.55	55.7
983.1383	2564.0913	936.45	53
983.2646	2565.3977	942.15	56.3
983.3908	2566.7035	942.15	55.2
983.517	2568.0086	939.55	52.3
983.6432	2569.313	943	55.7
983.7694	2570.6167	941.6	53.7
983.8955	2571.9197	937.95	53.25
984.0216	2573.222	944.95	55
984.1476	2574.5236	939.75	54.05
984.2737	2575.8246	940.85	54.1
984.3996	2577.1248	944.25	54.15
984.5256	2578.4244	937.25	53.55
984.6515	2579.7232	939.95	54.7
984.7774	2581.0214	964.8	54.4
984.9032	2582.3189	937.95	53.1
985.029	2583.6157	943.1	53.5
985.1548	2584.9118	940.25	55.65
985.2806	2586.2072	942.1	56.8
985.4063	2587.5019	936.65	53.15
985.5319	2588.7959	940.3	54.35
985.6576	2590.0893	940.9	55.15
985.7832	2591.3819	936.15	51.7
985.9087	2592.6739	935.8	49.2
986.0343	2593.9652	944.2	60.4
986.1597	2595.2557	939.1	55.25
986.2852	2596.5456	942.65	55.5
986.4106	2597.8348	937.8	54.2
986.536	2599.1234	941.05	56.75
986.6614	2600.4112	937	52.1
986.7867	2601.6983	941.3	53.8
986.912	2602.9848	936.95	50.3
987.0372	2604.2705	942.95	50.8
987.1624	2605.5556	941.1	56.3
987.2876	2606.84	936.95	52.25
987.4128	2608.1237	940.4	53.9
987.5379	2609.4067	937.05	51.2
987.6629	2610.689	947.45	54
987.788	2611.9707	941.1	54.7
987.913	2613.2516	937.45	49.3
988.0379	2614.5319	935.6	52.7
988.1629	2615.8115	937.6	52.65
988.2878	2617.0903	937.5	51.1
988.4126	2618.3685	936.3	50.45
988.5375	2619.6461	937.85	53.35
988.6622	2620.9229	934.9	52.9
988.787	2622.199	934.15	49
988.9117	2623.4745	934.25	48.05
989.0364	2624.7493	934.4	51.1
989.161	2626.0234	930.7	45.7
989.2857	2627.2968	934.05	48.55
989.4102	2628.5695	935.65	50.55
989.5348	2629.8415	933.05	51.6
989.6593	2631.1128	931.25	47.2
989.7837	2632.3835	934.05	49.3
989.9082	2633.6535	931.3	48.15
990.0326	2634.9228	931.8	49.35
990.1569	2636.1914	935.4	52.8
990.2812	2637.4593	932	46.15
990.4055	2638.7265	933.65	48.05
990.5298	2639.9931	932.8	48.3
990.654	2641.259	932.25	48
990.7782	2642.5242	933.9	48.55
990.9023	2643.7887	930.15	46.4
991.0264	2645.0525	932.6	47.45
991.1505	2646.3156	931.4	47.65
991.2745	2647.5781	931.1	47.2
991.3985	2648.8398	929.6	47.95
991.5225	2650.1009	941	47.3
991.6464	2651.3613	932.65	48.2
991.7703	2652.6211	931.9	46.05
991.8942	2653.8801	926.6	44
992.018	2655.1385	932.9	45.95
992.1418	2656.3961	931.95	46.75
992.2655	2657.6531	932.4	48.8
992.3892	2658.9094	929.3	44.2
992.5129	2660.1651	926.5	45.85
992.6366	2661.42	930.55	47.9
992.7602	2662.6743	929.45	44.8
992.8837	2663.9279	928.9	46.4
993.0073	2665.1808	927.7	45.65
993.1307	2666.433	932.45	46.55
993.2542	2667.6846	928.25	45.05
993.3776	2668.9354	933.75	48.45
993.501	2670.1856	931.1	46.05
993.6244	2671.4351	927.8	45.35
993.7477	2672.6839	928.05	43.7
993.8709	2673.9321	928.5	42.9
993.9942	2675.1795	930.6	47
994.1174	2676.4263	927.95	45.35
994.2405	2677.6724	927.95	45.05
994.3637	2678.9179	931.85	49.1
994.4868	2680.1626	928.15	43.8
994.6098	2681.4067	930	47.4
994.7328	2682.6501	931.25	46.55
994.8558	2683.8928	927.9	44.35
994.9788	2685.1348	928.6	47.5
995.1017	2686.3761	927.55	44.3
995.2245	2687.6168	928.05	45.5
995.3474	2688.8568	925.1	41.55
995.4702	2690.0961	926.85	43.4
995.5929	2691.3348	924.05	40.35
995.7156	2692.5727	929.6	45
995.8383	2693.81	925	40.9
995.961	2695.0466	924.35	40.55
996.0836	2696.2826	925.25	39.65
996.2062	2697.5178	947.5	61.35
996.3287	2698.7524	925.25	42.1
996.4512	2699.9863	930.35	44.5
996.5737	2701.2195	927.9	46.1
996.6961	2702.452	925.9	40.45
996.8185	2703.6839	926.4	41.45
996.9408	2704.9151	926.5	44
997.0631	2706.1456	924.4	40.45
997.1854	2707.3755	925.85	40.4
997.3077	2708.6046	931.15	44.8
997.4299	2709.8331	929.75	46.25
997.552	2711.0609	928.1	45.5
997.6742	2712.2881	929.95	45.8
997.7963	2713.5145	934	48.1
997.9183	2714.7403	927.85	44.65
998.0403	2715.9654	933.65	51.2
998.1623	2717.1899	945.55	47.45
998.2842	2718.4136	931.5	50.95
998.4062	2719.6367	930.6	48.05
998.528	2720.8591	942.95	54.8
998.6498	2722.0809	933.5	51.7
998.7716	2723.3019	938.35	51.3
998.8934	2724.5223	934.8	47.8
999.0151	2725.7421	935.55	50.45
999.1368	2726.9611	936.15	50.65
999.2584	2728.1795	939.15	48.5
999.38	2729.3972	930.55	47.6
999.5016	2730.6142	938.4	48
999.6231	2731.8306	931.05	47.35
999.7446	2733.0462	930.45	47.25
999.8661	2734.2612	932.9	46.2
999.9875	2735.4756	929	45.1
1000.1089	2736.6892	928.5	43.8
1000.2302	2737.9022	925.1	44.85
1000.3515	2739.1145	922.75	39.2
1000.4728	2740.3262	932.25	43.45
1000.594	2741.5372	927.8	44.95
1000.7152	2742.7475	923.05	39.05
1000.8363	2743.9571	924.8	41.4
1000.9575	2745.1661	926.7	41.35
1001.0785	2746.3744	924.5	41.25
1001.1996	2747.582	922.55	39.3
1001.3206	2748.7889	924.9	40.65
1001.4415	2749.9952	920.6	39.8
1001.5625	2751.2008	919.75	34.8
1001.6833	2752.4057	921.9	37.2
1001.8042	2753.61	918.45	36.95
1001.925	2754.8136	922.3	36.45
1002.0458	2756.0165	917.1	35.8
1002.1665	2757.2188	917.95	35.2
1002.2872	2758.4204	917.2	36.6
1002.4078	2759.6213	921.15	36.75
1002.5285	2760.8215	924.05	37.15
1002.649	2762.0211	920.8	39.55
1002.7696	2763.22	922.65	37.6
1002.8901	2764.4182	920.9	38.5
1003.0106	2765.6158	920.05	37.85
1003.131	2766.8127	919	37.45
1003.2514	2768.009	918.35	35.9
1003.3717	2769.2045	916.55	35.75
1003.492	2770.3994	920.75	34.8
1003.6123	2771.5936	916.15	32.75
1003.7325	2772.7872	914.25	32.4
1003.8527	2773.9801	918.15	33.1
1003.9729	2775.1723	933.8	36.4
1004.093	2776.3639	917.4	37.7
1004.2131	2777.5548	919.75	36.9
1004.3331	2778.745	913.8	31.45
1004.4531	2779.9346	917.4	36.4
1004.5731	2781.1235	915.35	31.7
1004.693	2782.3117	916.3	37.45
1004.8129	2783.4992	917.5	36.3
1004.9328	2784.6861	915.15	33.45
1005.0526	2785.8723	916.95	34.9
1005.1723	2787.0579	917.8	34.35
1005.2921	2788.2428	913.95	31.95
1005.4118	2789.427	915.85	36.25
1005.5314	2790.6106	915.6	36.05
1005.651	2791.7935	915.1	33.8
1005.7706	2792.9757	914.15	35.4
1005.8902	2794.1573	919.8	34.95
1006.0097	2795.3382	916.45	35.55
1006.1291	2796.5184	915	36.55
1006.2485	2797.698	916.9	32.05
1006.3679	2798.8769	916.65	35.6
1006.4873	2800.0551	916.85	36.05
1006.6066	2801.2327	917.9	35.8
1006.7258	2802.4096	917.25	36.95
1006.8451	2803.5859	920.75	38.65
1006.9642	2804.7615	918.75	35.55
1007.0834	2805.9364	919.1	38.25
1007.2025	2807.1106	918.2	37.7
1007.3216	2808.2842	922.15	38.85
1007.4406	2809.4572	921.8	39.9
1007.5596	2810.6294	921.75	41.75
1007.6785	2811.801	923.45	45.7
1007.7975	2812.972	922.55	42.1
1007.9163	2814.1423	926.35	45.15
1008.0352	2815.3119	928.7	47.1
1008.154	2816.4808	928.05	47.7
1008.2727	2817.6491	931.9	50.8
1008.3914	2818.8167	933.9	53.05
1008.5101	2819.9837	942.15	53
1008.6288	2821.15	941.8	59.9
1008.7474	2822.3157	946.8	66.65
1008.8659	2823.4807	954.35	74.15
1008.9844	2824.645	961.6	79
1009.1029	2825.8086	962.3	82.3
1009.2214	2826.9716	968.5	89.6
1009.3398	2828.134	975.55	93.15
1009.4581	2829.2957	982	101.75
1009.5764	2830.4567	986.55	106.8
1009.6947	2831.617	993.65	112.6
1009.813	2832.7767	995.25	113.85
1009.9312	2833.9358	992.6	116.1
1010.0493	2835.0941	994.9	112.15
1010.1675	2836.2519	991.6	110.65
1010.2855	2837.4089	989.5	106
1010.4036	2838.5653	982.05	100.4
1010.5216	2839.7211	975.1	95.7
1010.6396	2840.8761	975.95	93.8
1010.7575	2842.0306	973.5	95
1010.8754	2843.1843	977.9	95.95
1010.9932	2844.3374	971.25	91.2
1011.111	2845.4899	979.9	97.55
1011.2288	2846.6417	979.55	98.75
1011.3465	2847.7928	980.95	101.35
1011.4642	2848.9433	982.1	101.6
1011.5818	2850.0931	979.15	100
1011.6995	2851.2422	987.9	104.85
1011.817	2852.3907	990.5	108.15
1011.9345	2853.5385	989.85	109.25
1012.052	2854.6857	1018.25	111.1
1012.1695	2855.8323	990.65	110.15
1012.2869	2856.9781	991.3	110.85
1012.4042	2858.1233	998.4	119.1
1012.5216	2859.2679	995.2	117.8
1012.6389	2860.4118	1003.8	124.25
1012.7561	2861.555	1011.25	125.7
1012.8733	2862.6976	1008	127.4
1012.9905	2863.8395	1009.95	130.25
1013.1076	2864.9808	1012.3	132.8
1013.2247	2866.1214	1010.65	132.1
1013.3417	2867.2614	1011	128.5
1013.4587	2868.4007	1012.75	131.1
1013.5757	2869.5393	1014.65	132.4
1013.6926	2870.6773	1014.4	131.75
1013.8095	2871.8146	1020.8	137.1
1013.9263	2872.9513	1020.95	136.4
1014.0431	2874.0874	1021.65	141.6
1014.1599	2875.2227	1020.3	138.45
1014.2766	2876.3574	1022.15	142.65
1014.3933	2877.4915	1022.55	143
1014.51	2878.6249	1021.15	140.6
1014.6266	2879.7577	1027.8	146.7
1014.7431	2880.8898	1040.8	151.6
1014.8596	2882.0212	1028.6	151.3
1014.9761	2883.152	1026.75	147.65
1015.0925	2884.2821	1028.1	148.6
1015.2089	2885.4116	1031.2	152.75
1015.3253	2886.5405	1037	156
1015.4416	2887.6686	1034.9	153.35
1015.5579	2888.7962	1036.05	157.45
1015.6741	2889.923	1039.2	160.35
1015.7903	2891.0493	1035.9	157.2
1015.9065	2892.1748	1039.15	156.9
1016.0226	2893.2997	1036.65	157.6
1016.1387	2894.424	1033.55	157.3
1016.2547	2895.5476	1032.95	154.3
1016.3707	2896.6706	1033.1	155.4
1016.4866	2897.7929	1037.45	156.8
1016.6025	2898.9145	1037.75	156.7
1016.7184	2900.0355	1036.5	155.4
1016.8342	2901.1559	1035.7	152.2
1016.95	2902.2756	1039.65	155.2
1017.0658	2903.3946	1033.7	153.4
1017.1815	2904.513	1037.95	153.85
1017.2971	2905.6308	1039.2	160.15
1017.4127	2906.7479	1037.3	155.85
1017.5283	2907.8643	1036.3	156.65
1017.6439	2908.9801	1036.65	156.55
1017.7594	2910.0953	1037.2	157.15
1017.8748	2911.2098	1039.95	158.4
1017.9902	2912.3236	1044.8	154.6
1018.1056	2913.4368	1036.45	153.1
1018.2209	2914.5494	1033.9	153.6
1018.3362	2915.6613	1038.4	152.45
1018.4515	2916.7725	1030.05	148.6
1018.5667	2917.8831	1030.25	146.6
1018.6819	2918.9931	1029.45	145.9
1018.797	2920.1024	1025.7	145.7
1018.9121	2921.211	1022.65	141.3
1019.0271	2922.319	1020.15	138
1019.1421	2923.4264	1016.45	138.4
1019.2571	2924.5331	1016.85	140.5
1019.372	2925.6391	1017.7	138
1019.4869	2926.7445	1017.15	137.15
1019.6017	2927.8493	1019.25	140.2
1019.7165	2928.9534	1019.2	139.4
1019.8313	2930.0569	1025.6	141
1019.946	2931.1597	1019.95	137.65
1020.0606	2932.2619	1022.8	141.8
1020.1753	2933.3634	1023.45	144.95
1020.2899	2934.4643	1035.4	149.65
1020.4044	2935.5645	1031.45	145
1020.5189	2936.6641	1029.5	145.95
1020.6334	2937.763	1023.1	145.1
1020.7478	2938.8613	1022.15	139.7
1020.8622	2939.959	1026	139.8
1020.9765	2941.056	1020.95	141.4
1021.0908	2942.1523	1012.55	131.55
1021.2051	2943.248	1011.05	130
1021.3193	2944.3431	1005.7	127.25
1021.4334	2945.4375	998.95	120.75
1021.5476	2946.5313	990.25	112.1
1021.6617	2947.6244	981.55	101.8
1021.7757	2948.7169	977.4	98.15
1021.8897	2949.8087	972	91.6
1022.0037	2950.8999	967.65	87.65
1022.1176	2951.9904	964.75	84.4
1022.2315	2953.0803	961.65	82.1
1022.3453	2954.1696	957.55	77.85
1022.4591	2955.2582	950.85	71.5
1022.5728	2956.3462	950.4	69.35
1022.6865	2957.4335	952.75	73.85
1022.8002	2958.5202	951.15	68.1
1022.9138	2959.6062	950.9	71.15
1023.0274	2960.6916	946.65	68.8
1023.141	2961.7764	950.15	69.6
1023.2545	2962.8605	952	73.45
1023.3679	2963.9439	951.15	72.55
1023.4813	2965.0267	953.3	73.2
1023.5947	2966.1089	970.6	68.25
1023.708	2967.1905	944.65	66.95
1023.8213	2968.2714	946.4	69.2
1023.9346	2969.3516	942.75	62.45
1024.0478	2970.4312	953.8	66.3
1024.1609	2971.5102	945.6	65.8
1024.274	2972.5885	947.25	69.35
1024.3871	2973.6662	950.75	65.65
1024.5002	2974.7432	947.45	68.1
1024.6132	2975.8196	945.2	63.65
1024.7261	2976.8954	946	68
1024.839	2977.9705	947.55	68.3
1024.9519	2979.045	944.3	64.25
1025.0647	2980.1188	946.7	67.9
1025.1775	2981.192	944.4	67.6
1025.2902	2982.2645	945.9	65.5
1025.4029	2983.3364	944.85	66.65
1025.5156	2984.4077	942.75	64.35
1025.6282	2985.4783	947.5	61.8
1025.7407	2986.5483	936.3	57.85
1025.8532	2987.6177	934.05	52.4
1025.9657	2988.6864	936.5	56.7
1026.0782	2989.7545	932.75	51.6
1026.1906	2990.8219	930.05	53
1026.3029	2991.8887	929.95	48.75
1026.4152	2992.9548	927.65	47.1
1026.5275	2994.0204	922.6	44.4
1026.6397	2995.0852	919.85	43.25
1026.7519	2996.1495	919.75	40.75
1026.864	2997.2131	917.65	40.25
1026.9761	2998.276	914.6	36.9
1027.0882	2999.3383	913.55	32.2
1027.2002	3000.4	912.9	33.65
1027.3122	3001.4611	912.1	33
1027.4241	3002.5215	912.35	34.65
1027.536	3003.5812	910.4	30.4
1027.6478	3004.6404	909.2	28.9
1027.7596	3005.6989	908.1	28.3
1027.8714	3006.7567	908.15	28.4
1027.9831	3007.8139	936.25	27.15
1028.0947	3008.8705	907.4	30.1
1028.2064	3009.9264	907.2	24.3
1028.3179	3010.9818	904.85	26.35
1028.4295	3012.0364	903.45	23.25
1028.541	3013.0905	905.4	25.2
1028.6524	3014.1439	904.1	25.7
1028.7638	3015.1966	901.05	20.9
1028.8752	3016.2487	901.55	22.2
1028.9865	3017.3002	905.8	22.8
1029.0978	3018.3511	902	24.9
1029.209	3019.4013	901.7	23.45
1029.3202	3020.4509	900.35	21.6
1029.4314	3021.4998	904	25.4
1029.5425	3022.5481	901.35	20.85
1029.6535	3023.5958	900.8	22.2
1029.7645	3024.6428	901.3	21.45
1029.8755	3025.6892	899.5	20.35
1029.9864	3026.735	900.5	21.6
1030.0973	3027.7802	899.7	19.25
1030.2082	3028.8247	900.2	21.85
1030.319	3029.8685	899.05	20.9
1030.4297	3030.9118	899.8	19.45
1030.5404	3031.9544	899.15	22.35
1030.6511	3032.9963	898.1	18.7
1030.7617	3034.0376	900.45	22.45
1030.8723	3035.0783	900.85	20.05
1030.9829	3036.1184	900.85	23.65
1031.0934	3037.1578	898.2	20.6
1031.2038	3038.1966	900.75	19.1
1031.3142	3039.2348	898.9	21.35
1031.4246	3040.2723	907.55	20.95
1031.5349	3041.3092	901.5	23.75
1031.6452	3042.3455	896.15	18.25
1031.7554	3043.3811	899.85	21.05
1031.8656	3044.4161	900.35	19.9
1031.9758	3045.4505	899.05	21.9
1032.0859	3046.4842	900	22.6
1032.1959	3047.5173	896.8	20.6
1032.3059	3048.5498	900.3	21.6
1032.4159	3049.5816	899.95	20.25
1032.5258	3050.6128	900.15	20.55
1032.6357	3051.6434	902.5	24.5
1032.7455	3052.6734	901.1	22.4
1032.8553	3053.7027	900.6	21.8
1032.9651	3054.7314	899.55	21.75
1033.0748	3055.7594	898.5	21.1
1033.1845	3056.7868	905.75	25.8
1033.2941	3057.8136	900.5	23.7
1033.4037	3058.8398	901.4	24.25
1033.5132	3059.8653	900.1	21.3
1033.6227	3060.8902	900.7	20.85
1033.7321	3061.9145	902	24.1
1033.8415	3062.9381	901.1	22.35
1033.9509	3063.9612	917.2	22.7
1034.0602	3064.9835	902.6	24.15
1034.1694	3066.0053	904	21.85
1034.2787	3067.0264	903.2	24.3
1034.3878	3068.0469	902.85	23.85
1034.497	3069.0668	905	23.15
1034.6061	3070.086	901.05	24.4
1034.7151	3071.1046	900.95	24.6
1034.8241	3072.1226	900.85	21.55
1034.9331	3073.1399	901.9	22
1035.042	3074.1567	899.55	21.9
1035.1508	3075.1727	900.5	19.65
1035.2597	3076.1882	899.2	21.3
1035.3684	3077.203	899.3	20.8
1035.4772	3078.2173	898.85	18.1
1035.5859	3079.2308	899.85	18.35
1035.6945	3080.2438	901.2	22.25
1035.8031	3081.2561	896	17.55
1035.9117	3082.2678	894.25	16.15
1036.0202	3083.2789	894.55	16.85
1036.1286	3084.2893	896.3	20.25
1036.2371	3085.2991	893.4	15.5
1036.3454	3086.3083	899.05	16.45
1036.4538	3087.3169	897.6	18.95
1036.562	3088.3248	896.4	16.7
1036.6703	3089.3321	894.75	15.65
1036.7785	3090.3388	893.85	17
1036.8866	3091.3449	893.4	14
1036.9948	3092.3503	894.55	14.15
1037.1028	3093.3551	892.7	16.85
1037.2108	3094.3593	890.9	15.35
1037.3188	3095.3629	892.2	14.8
1037.4267	3096.3658	894.55	13.35
1037.5346	3097.3681	893.05	15.35
1037.6425	3098.3698	893.9	13.7
1037.7503	3099.3708	892.85	14.5
1037.858	3100.3713	890.3	12.8
1037.9657	3101.3711	892.65	12.4
1038.0734	3102.3702	1029.75	17.45
1038.181	3103.3688	893.2	13.3
1038.2886	3104.3667	889.15	11
1038.3961	3105.364	891.95	13
1038.5036	3106.3607	893.5	13.7
1038.611	3107.3568	894.55	13.8
1038.7184	3108.3522	890.95	12.45
1038.8257	3109.347	893.15	15.25
1038.933	3110.3412	897.1	15.05
1039.0403	3111.3348	890.25	13.35
1039.1475	3112.3277	890.6	11.8
1039.2547	3113.32	889.45	12.75
1039.3618	3114.3117	890.25	12.95
1039.4689	3115.3028	888.5	9.25
1039.5759	3116.2932	892.15	13.3
1039.6829	3117.2831	895.7	11.5
1039.7898	3118.2723	889.9	13.75
1039.8967	3119.2608	889.05	13.55
1040.0035	3120.2488	890.7	12.55
1040.1103	3121.2361	889.3	11.55
1040.2171	3122.2229	889.85	11.2
1040.3238	3123.209	890.3	10.7
1040.4305	3124.1944	888.25	10.35
1040.5371	3125.1793	890.35	10.95
1040.6437	3126.1635	888.75	10.45
1040.7502	3127.1471	885.5	8.45
1040.8567	3128.1301	887.9	11.25
1040.9631	3129.1125	886.8	9.95
1041.0695	3130.0942	890.65	12.5
1041.1759	3131.0753	894.85	10.9
1041.2822	3132.0558	892	10.05
1041.3884	3133.0357	888.55	7.85
1041.4946	3134.015	888.45	10.55
1041.6008	3134.9936	887.7	8.25
1041.7069	3135.9716	908.35	9.65
1041.813	3136.949	887.05	7.95
1041.919	3137.9258	903.8	7.8
1042.025	3138.902	894.05	10.3
1042.1309	3139.8775	886.8	10.6
1042.2368	3140.8524	886.15	7.3
1042.3427	3141.8267	887.6	7.2
1042.4485	3142.8004	887.35	8.25
1042.5542	3143.7735	892.3	8.25
1042.6599	3144.7459	889	8.25
1042.7656	3145.7178	887.15	7.2
1042.8712	3146.689	884.8	7.25
1042.9768	3147.6596	887.25	8.15
1043.0823	3148.6295	888.75	11.15
1043.1878	3149.5989	886.45	8.4
1043.2932	3150.5676	884.15	7.7
1043.3986	3151.5357	885.7	10.55
1043.5039	3152.5032	885.25	9.85
1043.6092	3153.4701	885.9	7.6
1043.7145	3154.4364	887.4	8.1
1043.8197	3155.402	884.55	7.15
1043.9248	3156.367	887.45	10.75
1044.03	3157.3315	926.2	3.9
1044.135	3158.2952	885.5	6.35
1044.24	3159.2584	885.75	10.7
1044.345	3160.221	887.1	8.45
1044.4499	3161.1829	885.5	8.15
1044.5548	3162.1442	886.35	9.75
1044.6596	3163.105	885.5	8.7
1044.7644	3164.065	885.1	7.3
1044.8692	3165.0245	886.2	5
1044.9739	3165.9834	883.8	7.6
1045.0785	3166.9416	883.1	6.05
1045.1831	3167.8993	886.45	9.5
1045.2877	3168.8563	885.95	8.15
1045.3922	3169.8127	884.15	7.35
1045.4966	3170.7684	885.05	7.05
1045.6011	3171.7236	886.3	7.7
1045.7054	3172.6782	885.6	7.15
1045.8098	3173.6321	887	8.9
1045.914	3174.5854	888.05	7.2
1046.0183	3175.5381	886.4	7.85
1046.1224	3176.4902	885.55	10
1046.2266	3177.4417	883.55	6.85
1046.3307	3178.3926	882.45	7.85
1046.4347	3179.3428	885	8.8
1046.5387	3180.2924	882.45	6.9
1046.6427	3181.2415	883.25	7.8
1046.7466	3182.1899	885.05	6.55
1046.8504	3183.1377	882.5	4.65
1046.9542	3184.0848	887.25	5.6
1047.058	3185.0314	884.45	5.15
1047.1617	3185.9773	886.25	7.3
1047.2654	3186.9227	883.35	3.25
1047.369	3187.8674	884.4	8.1
1047.4726	3188.8115	887.85	6.15
1047.5761	3189.755	881.2	4
1047.6796	3190.6979	881.35	4.1
1047.783	3191.6402	881.5	5.05
1047.8864	3192.5818	881.9	4.45
1047.9898	3193.5229	902.55	7.55
1048.0931	3194.4633	884.45	5.45
1048.1963	3195.4031	885.7	7.45
1048.2995	3196.3423	884.25	6.95
1048.4027	3197.2809	884.55	6
1048.5058	3198.2189	883.2	5.55
1048.6089	3199.1563	899.9	4.55
1048.7119	3200.0931	884.8	7.95
1048.8148	3201.0292	882.05	4.5
1048.9178	3201.9648	882.1	3.75
1049.0206	3202.8997	886.45	6.4
1049.1235	3203.834	884.75	8.4
1049.2262	3204.7677	883.6	6.85
1049.329	3205.7008	885.45	3.75
1049.4317	3206.6333	882.85	5.55
1049.5343	3207.5652	886	6.25
1049.6369	3208.4964	883.55	5.65
1049.7394	3209.4271	882.8	5.7
1049.8419	3210.3571	884.75	9.15
1049.9444	3211.2865	884.6	6.1
1050.0468	3212.2154	884.1	7
1050.1491	3213.1436	887.1	6.7
1050.2514	3214.0712	888.25	5.1
1050.3537	3214.9982	883.35	5.7
1050.4559	3215.9246	884	6.1
1050.5581	3216.8503	882.85	4.15
1050.6602	3217.7755	883.65	4.55
1050.7623	3218.7001	882.8	4.65
1050.8643	3219.624	884.5	8.3
1050.9663	3220.5473	883.05	5.2
1051.0682	3221.4701	882.95	4.6
1051.1701	3222.3922	885.55	4.5
1051.2719	3223.3137	882.15	2.4
1051.3737	3224.2346	881.65	2.4
1051.4754	3225.1549	881.75	4.3
1051.5771	3226.0746	882.1	3.7
1051.6788	3226.9937	882.3	4.05
1051.7804	3227.9121	882.4	7.75
1051.8819	3228.83	881.3	4.85
1051.9834	3229.7473	882.8	4.55
1052.0849	3230.6639	884	5.65
1052.1863	3231.5799	880.75	2.55
1052.2876	3232.4954	882.8	4.85
1052.3889	3233.4102	882.6	5.35
1052.4902	3234.3244	882.05	2.8
1052.5914	3235.238	882.1	6.85
1052.6926	3236.151	906.85	6
1052.7937	3237.0634	880	5.35
1052.8948	3237.9752	883.4	6.15
1052.9958	3238.8864	882.65	5
1053.0968	3239.797	882.95	6.4
1053.1977	3240.7069	881.65	1.55
1053.2986	3241.6163	883.7	5.55
1053.3994	3242.5251	882.6	6.3
1053.5002	3243.4332	880.2	4
1053.6009	3244.3408	880.25	5.6
1053.7016	3245.2477	881.8	6.9
1053.8022	3246.154	883.1	5.85
1053.9028	3247.0598	881.15	3.9
1054.0034	3247.9649	880.7	2.75
1054.1039	3248.8694	881.55	4.3
1054.2043	3249.7733	882.5	5.65
1054.3047	3250.6766	882.6	6.25
1054.4051	3251.5793	881.7	4.6
1054.5054	3252.4814	881.85	3.7
1054.6056	3253.3829	880.4	3.4
1054.7058	3254.2838	880.6	2.8
1054.806	3255.1841	880.8	3.35
1054.9061	3256.0838	880.8	4
1055.0061	3256.9829	878.3	2.45
1055.1062	3257.8814	882.9	3.6
1055.2061	3258.7792	883.9	4.5
1055.306	3259.6765	881.45	2.8
1055.4059	3260.5731	882.8	7.3
1055.5057	3261.4692	880.6	2.95
1055.6055	3262.3647	881.7	2.35
1055.7052	3263.2595	879.9	0.85
1055.8049	3264.1538	881.4	4.25
1055.9045	3265.0474	880.6	3.8
1056.0041	3265.9404	881.05	4.3
1056.1036	3266.8329	878.4	1.9
1056.2031	3267.7247	891.15	3.15
1056.3025	3268.616	880.6	6.3
1056.4019	3269.5066	879.5	1.65
1056.5013	3270.3966	881.85	3.6
1056.6005	3271.286	879.15	1.85
