Software Version:	3.9.2.0
Unit SN:	10000200
Spectrometer SN:	6960
Date:	3/8/2024 12:11:40 PM
Data Line Index:	25
Spectral Points:	2048
Integration time (ms):	125
Averages:	20
Delay (ms):	30000
Sequence Number:	1
Processing:	dark subtract
Laser Power (mW):	300
Laser Current (mA):	822
Laser Diode Temp (C):	25.1
Laser Case Temp (C):	25.7
System Temp (C):	25.7
Spectrometer Temp (C):	23.5
CCD Temp (C):	0.007
Secondary Temp (C):	20.008
Heatsink Temp (C):	19.884
CCDPCB Temp (C):	35.607
SecondaryPCB Temp (C):	28.47

Wavelength	RamanShift	Raw Counts	Dark Subtracted
787.061	30.1047	448.85	40.3
787.2016	32.3739	450.5	43.6
787.3422	34.6426	455.45	48.75
787.4828	36.9109	459.95	49.75
787.6235	39.1787	469.5	55.95
787.7642	41.4461	478.8	59.85
787.9049	43.7131	486.6	65.45
788.0456	45.9796	493.05	69.15
788.1863	48.2456	503.15	75.35
788.3271	50.5112	510.8	76.65
788.4679	52.7764	518.15	82.55
788.6087	55.0411	531.35	89.45
788.7496	57.3054	539.55	94.35
788.8904	59.5692	549.45	101.9
789.0313	61.8326	557.45	108.05
789.1722	64.0955	570.1	118.5
789.3132	66.3579	580.9	122
789.4541	68.6199	605.55	144.05
789.5951	70.8815	645.4	179.15
789.7361	73.1426	726.25	255.2
789.8771	75.4032	944.1	472.25
790.0181	77.6634	1488.2	1011.35
790.1592	79.9231	2754.95	2272.05
790.3003	82.1824	5481.15	4987.65
790.4414	84.4412	10258.4	9745.65
790.5825	86.6995	16673.7	16140.5
790.7237	88.9574	22703.9	22154.75
790.8648	91.2148	26693.15	26127.8
791.006	93.4717	28332.65	27756.65
791.1472	95.7282	28388.4	27806.5
791.2885	97.9842	27951.45	27371.75
791.4297	100.2398	27017.1	26431.05
791.571	102.4949	26022.75	25437.1
791.7123	104.7495	24920.75	24331.2
791.8536	107.0036	23812.15	23223.45
791.9949	109.2573	22797.65	22207.45
792.1363	111.5105	21880.45	21286.05
792.2777	113.7632	21051.65	20458
792.4191	116.0154	20418.6	19812.35
792.5605	118.2672	19911.2	19307.25
792.7019	120.5185	19425.5	18826.7
792.8434	122.7693	19076.1	18470.45
792.9849	125.0197	18793.6	18184.75
793.1264	127.2696	18500.4	17888.45
793.2679	129.519	18322.1	17706.2
793.4094	131.7679	17982.2	17363.65
793.551	134.0163	17674.7	17055.5
793.6926	136.2642	17258.15	16632.55
793.8342	138.5117	16797.2	16161.2
793.9758	140.7587	16335.9	15707.4
794.1175	143.0052	15907.1	15275.3
794.2591	145.2512	15418.85	14790.05
794.4008	147.4967	14989.3	14357.6
794.5425	149.7417	14617.15	13981.15
794.6842	151.9863	14376.35	13736.8
794.826	154.2304	14215.95	13571.4
794.9677	156.4739	14035.35	13386.15
795.1095	158.717	13956.6	13305.55
795.2513	160.9596	13811.7	13156.4
795.3931	163.2017	13588.85	12932.6
795.535	165.4433	13287.8	12625.85
795.6768	167.6844	12927.7	12270.75
795.8187	169.925	12594.65	11931.5
795.9606	172.1651	12200.4	11534.95
796.1025	174.4047	11833.1	11163.95
796.2445	176.6439	11504.7	10831.3
796.3864	178.8825	11261.4	10587.9
796.5284	181.1206	11070.05	10392.45
796.6704	183.3582	10929.55	10245.05
796.8124	185.5954	10791.7	10106.85
796.9544	187.832	10700.45	10008.75
797.0965	190.0681	10666.05	9973.35
797.2386	192.3037	10656.8	9962.45
797.3806	194.5388	10639.05	9942.5
797.5228	196.7734	10663.85	9965.15
797.6649	199.0075	10715.25	10013.95
797.807	201.2411	10813.25	10108.9
797.9492	203.4742	10924.5	10219.85
798.0914	205.7068	11098.1	10391.4
798.2336	207.9389	11230.1	10519.4
798.3758	210.1704	11430.6	10722.7
798.518	212.4015	11581.85	10885.75
798.6603	214.632	11738.55	11052.4
798.8025	216.862	11893.7	11209.15
798.9448	219.0915	12000.95	11312.9
799.0871	221.3205	12118.35	11426.45
799.2294	223.549	12180.75	11497.4
799.3718	225.777	12202.55	11516.4
799.5141	228.0044	12227.3	11533.5
799.6565	230.2314	12289.9	11597.6
799.7989	232.4578	12309.45	11612.1
799.9413	234.6837	12339.35	11632.5
800.0837	236.909	12359.05	11648.55
800.2262	239.1339	12326.1	11594.8
800.3687	241.3582	12281.15	11563.6
800.5111	243.582	12187.3	11437.4
800.6536	245.8053	12107.6	11374.4
800.7961	248.0281	12087.65	11358.45
800.9387	250.2503	12108.35	11374.9
801.0812	252.472	12178.9	11443.2
801.2238	254.6932	12278.8	11541.45
801.3664	256.9139	12404.65	11669.75
801.509	259.134	12633.1	11892.3
801.6516	261.3536	12867.6	12130.6
801.7942	263.5727	13257.6	12516.05
801.9369	265.7912	13625.4	12882.85
802.0795	268.0092	14094.45	13353.65
802.2222	270.2267	14481.25	13738.05
802.3649	272.4436	14812.95	14073.95
802.5076	274.6601	15033.8	14282.45
802.6504	276.8759	15079.3	14331
802.7931	279.0913	15046	14293.85
802.9359	281.3061	14942.4	14195.9
803.0787	283.5204	14900.7	14146.25
803.2215	285.7341	14902.65	14147.3
803.3643	287.9473	14952.7	14194.3
803.5071	290.16	14902.95	14141.3
803.6499	292.3721	14857.45	14104.9
803.7928	294.5837	14876.95	14120.85
803.9357	296.7947	15060.2	14306.3
804.0786	299.0052	15303.65	14544.35
804.2215	301.2152	15426.85	14663
804.3644	303.4246	15440.65	14683.45
804.5074	305.6334	15191	14436.4
804.6503	307.8418	14803.6	14041.45
804.7933	310.0495	14336	13572.7
804.9363	312.2568	13791.15	13026.3
805.0793	314.4635	13186	12418.8
805.2223	316.6696	12704.9	11938.25
805.3653	318.8752	12281.85	11504.4
805.5084	321.0802	12095.8	11323.7
805.6514	323.2847	12064.15	11292.4
805.7945	325.4887	12115.05	11341
805.9376	327.692	12208.2	11436.1
806.0807	329.8949	12263.95	11490.65
806.2238	332.0972	12147.7	11374.15
806.367	334.2989	11943.8	11161.6
806.5101	336.5001	11665.15	10886.3
806.6533	338.7007	11396.7	10616.3
806.7965	340.9008	11154.2	10375.65
806.9397	343.1003	10861.15	10076.85
807.0829	345.2992	10648.9	9864.4
807.2261	347.4976	10454.85	9668.35
807.3693	349.6955	10325.05	9538.55
807.5126	351.8927	10241.3	9454.1
807.6559	354.0895	10153.6	9352.95
807.7991	356.2856	10039.6	9247.4
807.9424	358.4812	9950.8	9159
808.0857	360.6763	9897.5	9104.2
808.2291	362.8707	9837.5	9043.4
808.3724	365.0646	9890.4	9091.7
808.5158	367.258	9945.4	9143.5
808.6591	369.4508	10036.5	9234.8
808.8025	371.643	10231.95	9426.35
808.9459	373.8346	10392.45	9586.3
809.0893	376.0257	10606.45	9792.6
809.2327	378.2162	10741.05	9938.25
809.3762	380.4062	10813.65	10006.65
809.5196	382.5956	10725.15	9922.5
809.6631	384.7844	10526.45	9731.5
809.8066	386.9726	10323.15	9525.3
809.9501	389.1603	10136.85	9341.3
810.0936	391.3474	10089.05	9257.75
810.2371	393.5339	10035	9234.75
810.3806	395.7199	10055.35	9256.4
810.5241	397.9052	10163.55	9363.45
810.6677	400.09	10310	9509.3
810.8113	402.2743	10556.6	9757.1
810.9548	404.4579	10816.2	10015.6
811.0984	406.641	11111.15	10310.75
811.2421	408.8235	11321.9	10516.95
811.3857	411.0054	11425.35	10616.55
811.5293	413.1868	11523.7	10713.35
811.673	415.3675	11478.65	10661.75
811.8166	417.5477	11426.95	10611.3
811.9603	419.7273	11338.1	10519.55
812.104	421.9064	11234.3	10409
812.2477	424.0848	11160.95	10344.75
812.3914	426.2627	11015.55	10198.55
812.5351	428.4399	10738.75	9919.85
812.6788	430.6166	10342.35	9518
812.8226	432.7928	9919.75	9092.6
812.9663	434.9683	9530.65	8708.95
813.1101	437.1432	9247.95	8424.15
813.2539	439.3176	9039.4	8221.1
813.3977	441.4914	8905.2	8087.55
813.5415	443.6645	8851.1	8031.75
813.6853	445.8371	8815.05	7993.1
813.8291	448.0091	8798.85	7975.7
813.973	450.1806	8812.05	7986.5
814.1168	452.3514	8791.7	7966.9
814.2607	454.5216	8858.95	8024.25
814.4046	456.6913	8850.85	8024.35
814.5485	458.8603	8939.35	8115.6
814.6924	461.0288	8971.3	8147.85
814.8363	463.1967	8987.15	8165.2
814.9802	465.3639	8944.45	8118.75
815.1241	467.5306	8926.1	8099.05
815.2681	469.6967	8900.15	8074.4
815.412	471.8622	8889.2	8067.6
815.556	474.0271	8925.75	8100.15
815.7	476.1914	8949.4	8119.15
815.844	478.3551	8956.05	8128.45
815.988	480.5182	9010.65	8180.05
816.132	482.6807	9126.65	8301.65
816.276	484.8426	9334.4	8511.05
816.4201	487.0039	9747.25	8918
816.5641	489.1647	10228.7	9396.7
816.7082	491.3248	10640	9807.75
816.8522	493.4843	10774.25	9946.4
816.9963	495.6432	10679.25	9851.25
817.1404	497.8015	10509.6	9672.1
817.2845	499.9592	10284.2	9444.5
817.4286	502.1163	10017.85	9180.75
817.5727	504.2728	9621.45	8782.1
817.7168	506.4287	9250.5	8417.35
817.861	508.5839	8885.25	8053.65
818.0051	510.7386	8685.65	7852.65
818.1493	512.8927	8578.75	7739.7
818.2935	515.0461	8584.05	7748.15
818.4377	517.199	8687.45	7846.9
818.5818	519.3512	8939.3	8100.45
818.726	521.5029	9386	8540.3
818.8703	523.6539	9841.2	9000.55
819.0145	525.8043	10051.55	9209.8
819.1587	527.9541	9962.05	9117.5
819.303	530.1033	9634.05	8790.35
819.4472	532.2519	9286	8443.35
819.5915	534.3999	9103.75	8259.85
819.7357	536.5472	9085.25	8239.7
819.88	538.694	9236.75	8394.5
820.0243	540.8401	9493.55	8648.2
820.1686	542.9856	9744.1	8894.4
820.3129	545.1305	9758.35	8908.2
820.4572	547.2748	9701	8845.4
820.6016	549.4185	9529.95	8677.4
820.7459	551.5615	9437.4	8583.3
820.8902	553.704	9472	8617.6
821.0346	555.8458	9623.75	8774.1
821.1789	557.987	9894.55	9047.8
821.3233	560.1276	10191.75	9340.1
821.4677	562.2675	10728.55	9877.8
821.6121	564.4069	11519.8	10668.65
821.7565	566.5456	12329.7	11481.3
821.9009	568.6837	12682.95	11835
822.0453	570.8212	12209.9	11361.95
822.1897	572.958	11200.4	10347.95
822.3342	575.0942	10180.6	9333.9
822.4786	577.2299	9501.95	8656.1
822.6231	579.3648	9151.35	8308
822.7675	581.4992	9029.7	8191.3
822.912	583.6329	9144.95	8307.9
823.0565	585.766	9383.8	8541.95
823.201	587.8985	9617.9	8772.85
823.3454	590.0304	9823.9	8945.7
823.4899	592.1616	9865.9	9012.8
823.6345	594.2922	9808.75	8950.9
823.779	596.4222	9557.95	8700.45
823.9235	598.5515	9261.95	8403.7
824.068	600.6802	9016.3	8156.15
824.2126	602.8083	8784.3	7929.85
824.3571	604.9358	8717.35	7861.25
824.5017	607.0626	8763.95	7906.1
824.6462	609.1888	8933.15	8071.75
824.7908	611.3144	9214.65	8350.15
824.9354	613.4393	9497.9	8636.5
825.08	615.5636	9779.65	8916
825.2246	617.6873	9889.85	9027.85
825.3692	619.8103	9853.5	8990.7
825.5138	621.9327	9586.55	8722.3
825.6584	624.0544	9218.85	8360.4
825.803	626.1756	8880.7	8018.75
825.9477	628.2961	8606.75	7744.3
826.0923	630.4159	8503.8	7639.25
826.237	632.5351	8506.9	7643.7
826.3816	634.6537	8504.1	7640.95
826.5263	636.7716	8515.65	7646.75
826.6709	638.8889	8523	7654.5
826.8156	641.0056	8548.8	7681.5
826.9603	643.1216	8566.05	7696.75
827.105	645.237	8572.95	7704.8
827.2497	647.3518	8429.1	7565.15
827.3944	649.4659	8290.95	7428.45
827.5391	651.5793	8195.6	7335.5
827.6838	653.6922	8139.8	7278.45
827.8285	655.8043	8115.25	7251.5
827.9733	657.9159	8109.75	7248.15
828.118	660.0268	8096.6	7229.9
828.2627	662.137	8115.3	7246.55
828.4075	664.2466	8175.5	7301.35
828.5522	666.3556	8147.3	7276.6
828.697	668.4639	8116.85	7249
828.8418	670.5716	8029.85	7162.25
828.9865	672.6786	7937.1	7067.95
829.1313	674.785	7836.4	6963.7
829.2761	676.8907	7748.7	6882.15
829.4209	678.9958	7715.85	6848.15
829.5657	681.1002	7694.75	6825.2
829.7105	683.204	7681.15	6803.5
829.8553	685.3072	7654.35	6780.75
830.0001	687.4097	7640.5	6768.45
830.1449	689.5115	7622.25	6748.1
830.2898	691.6127	7622.25	6749
830.4346	693.7132	7631.3	6759
830.5794	695.8131	7674.3	6775.75
830.7243	697.9123	7698.3	6824
830.8691	700.0109	7742.25	6865.15
831.014	702.1089	7844.4	6970.75
831.1588	704.2061	7955.95	7083.4
831.3037	706.3028	8106.7	7232.05
831.4486	708.3987	8200.9	7326.65
831.5935	710.4941	8286.55	7409.15
831.7383	712.5887	8273.9	7396.35
831.8832	714.6827	8268.55	7389.7
832.0281	716.7761	8323.7	7450.25
832.173	718.8688	8445.6	7564.5
832.3179	720.9608	8602.65	7721.5
832.4628	723.0522	8807.2	7924
832.6077	725.1429	9006.05	8126.5
832.7527	727.233	9213.35	8334.75
832.8976	729.3224	9402.75	8521.5
833.0425	731.4112	9451.8	8571.9
833.1874	733.4993	9286.75	8406.05
833.3324	735.5867	8956.4	8076.5
833.4773	737.6735	8577.6	7696.05
833.6222	739.7596	8261.25	7379.5
833.7672	741.845	8051.55	7172.05
833.9122	743.9298	7890.05	7006.35
834.0571	746.014	7818.45	6938.4
834.2021	748.0974	7829.85	6946.4
834.347	750.1802	7839.15	6957.05
834.492	752.2624	7835.95	6955.2
834.637	754.3439	7917.4	7031.4
834.782	756.4247	8023.75	7129.3
834.9269	758.5048	8197	7311.4
835.0719	760.5843	8498.75	7613.95
835.2169	762.6631	8963.65	8079.5
835.3619	764.7413	9658	8774.5
835.5069	766.8188	10599.65	9713.75
835.6519	768.8956	11490.3	10603.15
835.7969	770.9718	12220.3	11335.35
835.9419	773.0473	12315.4	11430.25
836.0869	775.1221	12000.7	11118.55
836.232	777.1962	11705.5	10820.2
836.377	779.2697	11761.7	10874.35
836.522	781.3426	12068.55	11162.65
836.667	783.4147	12371.3	11484.6
836.8121	785.4862	12468.5	11582.6
836.9571	787.557	12170.35	11284
837.1021	789.6271	11473.2	10586
837.2472	791.6966	10529.15	9641.8
837.3922	793.7654	9569.15	8683.2
837.5373	795.8335	8900.3	8015.3
837.6823	797.901	8430.2	7542.95
837.8274	799.9678	8169.35	7280.2
837.9724	802.0339	8034.7	7144.25
838.1175	804.0993	7974.4	7080.3
838.2626	806.1641	7913.65	7024.5
838.4076	808.2282	7824.05	6936.65
838.5527	810.2916	7727.9	6837.45
838.6978	812.3544	7611.25	6724.75
838.8428	814.4164	7532.05	6644.75
838.9879	816.4778	7553.85	6665.35
839.133	818.5385	7588.75	6698.6
839.2781	820.5986	7748.05	6857.1
839.4232	822.658	8052.15	7158.55
839.5682	824.7166	8509.1	7622.15
839.7133	826.7747	9230.45	8341.45
839.8584	828.832	10095	9202.6
840.0035	830.8886	10879.3	9987.05
840.1486	832.9446	11308.25	10416.15
840.2937	834.9999	11238.45	10349.7
840.4388	837.0545	10786.1	9892.6
840.5839	839.1085	10196.65	9303.35
840.729	841.1618	9620.9	8725.35
840.8741	843.2143	9157.5	8265.25
841.0192	845.2662	8787	7897.1
841.1643	847.3175	8632.1	7741.1
841.3095	849.368	8445.35	7550.1
841.4546	851.4179	8344.35	7454.75
841.5997	853.467	8256.1	7360.9
841.7448	855.5155	8164.1	7272.25
841.8899	857.5633	8093.45	7200.15
842.0351	859.6105	7990.9	7096
842.1802	861.6569	7905.45	7014.1
842.3253	863.7027	7789	6892.45
842.4704	865.7478	7713.75	6820.9
842.6156	867.7922	7607.35	6711.7
842.7607	869.8359	7561.85	6668.8
842.9058	871.8789	7550.6	6654.65
843.0509	873.9212	7631.6	6703.2
843.1961	875.9629	7694.15	6803.6
843.3412	878.0039	7817.1	6921.35
843.4863	880.0441	7923.3	7029.1
843.6315	882.0837	8010.1	7114.35
843.7766	884.1226	8114	7217.95
843.9218	886.1609	8261.4	7367.15
844.0669	888.1984	8488.35	7594
844.212	890.2352	8768.95	7873.9
844.3572	892.2714	8894	7994.4
844.5023	894.3069	8896.85	8000.3
844.6475	896.3416	8605	7708.25
844.7926	898.3757	8317.6	7420.05
844.9377	900.4091	8091	7193.15
845.0829	902.4418	8013.25	7110.65
845.228	904.4739	8076.9	7178.45
845.3732	906.5052	8193.45	7297
845.5183	908.5358	8224.35	7328.2
845.6635	910.5658	8107.45	7207.75
845.8086	912.595	7842.85	6945.7
845.9538	914.6236	7524.45	6626.15
846.0989	916.6515	7283.6	6385.6
846.2441	918.6786	7125.3	6227.15
846.3892	920.7051	7099.1	6199.05
846.5344	922.7309	7134.4	6236
846.6795	924.756	7151.8	6253.65
846.8246	926.7804	7235.6	6336.35
846.9698	928.8041	7279.9	6379.75
847.1149	930.8272	7354.55	6454.5
847.2601	932.8495	7345.7	6444.9
847.4052	934.8711	7376.6	6475.9
847.5504	936.892	7345.65	6447.5
847.6955	938.9123	7411.1	6511.15
847.8407	940.9318	7553.1	6653.75
847.9858	942.9506	7659.9	6761
848.131	944.9688	7636.1	6738.65
848.2761	946.9862	7516.75	6615
848.4213	949.003	7259.15	6360.15
848.5664	951.019	7066.35	6164.65
848.7115	953.0344	6935.4	6037.2
848.8567	955.0491	6887.15	5987.1
849.0018	957.063	6896.95	5996.2
849.147	959.0763	6965.7	6067.3
849.2921	961.0888	7016.3	6114.25
849.4373	963.1007	7115.25	6216.7
849.5824	965.1119	7107	6214.45
849.7275	967.1223	7082.8	6189.75
849.8727	969.1321	7030.1	6140.65
850.0178	971.1412	6997.75	6102.4
850.1629	973.1495	6986.75	6087.4
850.3081	975.1572	7027.15	6094.7
850.4532	977.1641	7014.15	6113.55
850.5983	979.1704	6980.25	6079.65
850.7435	981.1759	6943.8	6041.3
850.8886	983.1808	6930.1	6025.9
851.0337	985.1849	6917.95	6006.85
851.1788	987.1884	6980.6	6080.55
851.324	989.1911	7060	6160.3
851.4691	991.1932	7161.85	6260.4
851.6142	993.1945	7196.9	6294.5
851.7593	995.1951	7194.55	6293.25
851.9045	997.1951	7193.6	6287.55
852.0496	999.1943	7146.75	6245.7
852.1947	1001.1928	7150.35	6249.85
852.3398	1003.1906	7231.8	6330.8
852.4849	1005.1877	7416.05	6515.85
852.63	1007.1841	7617.6	6718.4
852.7751	1009.1798	7749.2	6848.75
852.9202	1011.1748	7704.45	6802.6
853.0653	1013.1691	7548.15	6648.75
853.2104	1015.1627	7274.5	6373.75
853.3555	1017.1556	7007.25	6107.45
853.5006	1019.1477	6797	5897.75
853.6457	1021.1392	6647.55	5752.8
853.7908	1023.1299	6597.3	5701
853.9359	1025.12	6595.35	5699.7
854.081	1027.1093	6691.95	5805.75
854.2261	1029.0979	6866.7	5982.8
854.3712	1031.0859	7058.15	6170.3
854.5163	1033.0731	7160.45	6263.75
854.6613	1035.0596	7119.55	6226.4
854.8064	1037.0454	7013.05	6114.35
854.9515	1039.0304	6907.3	6007.8
855.0965	1041.0148	6761.3	5863.35
855.2416	1042.9985	6634	5733.75
855.3867	1044.9814	6546.7	5648
855.5317	1046.9636	6485.95	5581.75
855.6768	1048.9452	6493.85	5595.25
855.8219	1050.926	6553.75	5656.95
855.9669	1052.9061	6636.75	5735.8
856.112	1054.8855	6697.85	5797.8
856.257	1056.8642	6746.5	5845.9
856.4021	1058.8421	6793.25	5890.1
856.5471	1060.8194	6816.7	5916.85
856.6921	1062.7959	6869.6	5968.85
856.8372	1064.7717	6939.3	6036.65
856.9822	1066.7469	7041.15	6138.85
857.1272	1068.7213	7159.8	6255.65
857.2723	1070.695	7298.45	6399.2
857.4173	1072.6679	7420.95	6517.65
857.5623	1074.6402	7552.65	6654.5
857.7073	1076.6117	7570.3	6665.3
857.8523	1078.5826	7426.35	6524.95
857.9973	1080.5527	7166.95	6264.25
858.1423	1082.5221	6942.6	6040.8
858.2873	1084.4908	6774.6	5875.1
858.4323	1086.4587	6708.4	5808.45
858.5773	1088.426	6694.75	5792.35
858.7223	1090.3925	6712.05	5807.7
858.8673	1092.3584	6760.5	5860.45
859.0123	1094.3235	6831.55	5934.3
859.1573	1096.2879	6961.85	6062.85
859.3022	1098.2515	7186.45	6288.4
859.4472	1100.2145	7428.1	6529.8
859.5922	1102.1767	7710.6	6808.1
859.7371	1104.1382	8050.4	7151.75
859.8821	1106.099	8441.85	7537.4
860.027	1108.0591	8808.4	7906.6
860.172	1110.0185	9084.15	8181.2
860.3169	1111.9771	9216.5	8316.3
860.4619	1113.9351	9164.7	8263.8
860.6068	1115.8923	9075.15	8175.95
860.7517	1117.8488	8990.45	8087
860.8967	1119.8045	8795.15	7895.6
861.0416	1121.7596	8550.85	7652.1
861.1865	1123.7139	8247.45	7347.4
861.3314	1125.6675	8055.2	7155.35
861.4763	1127.6204	8076.8	7176.45
861.6212	1129.5726	8071.3	7167.15
861.7661	1131.524	8055.4	7153.95
861.911	1133.4748	7862.85	6962.45
862.0559	1135.4248	7558.55	6657.1
862.2008	1137.3741	7301.85	6403.1
862.3457	1139.3226	7101	6200.3
862.4905	1141.2705	7025.8	6124.9
862.6354	1143.2176	7008.8	6102.4
862.7803	1145.164	6980.1	6078.85
862.9251	1147.1097	6908.7	6007.35
863.07	1149.0546	6749.95	5846.6
863.2148	1150.9989	6541.2	5638.5
863.3597	1152.9424	6374.35	5473.5
863.5045	1154.8852	6271	5369.15
863.6493	1156.8272	6206.25	5305.4
863.7942	1158.7686	6196.4	5286.45
863.939	1160.7092	6214.4	5314.35
864.0838	1162.6491	6262.9	5358.4
864.2286	1164.5883	6411.45	5513.35
864.3734	1166.5267	6544.1	5643.45
864.5182	1168.4644	6752.45	5851.5
864.663	1170.4014	7013.5	6108.55
864.8078	1172.3377	7318.5	6416.35
864.9526	1174.2732	7705.55	6804.55
865.0974	1176.2081	8242.95	7345.2
865.2421	1178.1421	9002.15	8099.45
865.3869	1180.0755	9901.4	9002.5
865.5317	1182.0082	10605.1	9704.45
865.6764	1183.9401	11002.6	10102.5
865.8212	1185.8713	10871.15	9973.85
865.9659	1187.8017	10306	9412.55
866.1106	1189.7315	9564.15	8673.5
866.2554	1191.6605	8895.8	8001.55
866.4001	1193.5888	8364.3	7472.55
866.5448	1195.5163	8056	7159.15
866.6895	1197.4432	7799.5	6902.35
866.8342	1199.3693	7680.9	6782.85
866.9789	1201.2947	7582.7	6681.1
867.1236	1203.2193	7517.6	6617.3
867.2683	1205.1432	7506.7	6607.35
867.413	1207.0664	7497.55	6600.2
867.5576	1208.9889	7491.1	6586.85
867.7023	1210.9106	7497.25	6596.65
867.847	1212.8316	7542.75	6644.15
867.9916	1214.7519	7630.15	6723.3
868.1363	1216.6715	7702.1	6802
868.2809	1218.5903	7820.7	6923.55
868.4255	1220.5084	7940.7	7040.05
868.5701	1222.4257	8102.75	7203.65
868.7148	1224.3424	8227.35	7329.65
868.8594	1226.2583	8449.45	7544
869.004	1228.1735	8724.05	7824.65
869.1486	1230.0879	9036.35	8135.55
869.2932	1232.0016	9406.2	8506.95
869.4377	1233.9146	9716.4	8815.1
869.5823	1235.8269	9863.85	8961.9
869.7269	1237.7384	9895.6	8996.85
869.8715	1239.6492	9741.05	8842.9
870.016	1241.5592	9657.85	8757.7
870.1606	1243.4686	9751.6	8853
870.3051	1245.3772	10078.2	9178.6
870.4496	1247.285	10503.55	9604.3
870.5941	1249.1922	11001	10102.7
870.7387	1251.0986	11415.85	10515.1
870.8832	1253.0042	11788.05	10889.35
871.0277	1254.9092	12109.85	11212.75
871.1722	1256.8134	12363.9	11467.8
871.3167	1258.7169	12584.45	11686.45
871.4611	1260.6196	12762.2	11864.2
871.6056	1262.5216	13059.35	12160.75
871.7501	1264.4229	13327.85	12427.85
871.8945	1266.3234	13615.35	12718.5
872.039	1268.2232	13831.45	12929.6
872.1834	1270.1223	13962.9	13063.4
872.3278	1272.0207	14075	13178
872.4723	1273.9183	14031.9	13128.15
872.6167	1275.8151	13875.7	12979.2
872.7611	1277.7113	13781.85	12885.05
872.9055	1279.6067	13890.75	12994.95
873.0499	1281.5014	14352.95	13451.2
873.1943	1283.3953	15195.25	14294.9
873.3386	1285.2885	16396.3	15499.75
873.483	1287.181	17723.35	16823.75
873.6274	1289.0727	19072.85	18173.3
873.7717	1290.9637	20149.3	19250.15
873.9161	1292.854	20902.45	20004.1
874.0604	1294.7435	21056.5	20158.1
874.2047	1296.6323	20789.6	19891
874.349	1298.5204	20229	19326.55
874.4933	1300.4077	19456.15	18555.9
874.6376	1302.2943	18573.25	17673.4
874.7819	1304.1802	17686.6	16788.15
874.9262	1306.0653	16673.3	15771.95
875.0705	1307.9497	15679.35	14780.3
875.2147	1309.8333	14798.15	13901.6
875.359	1311.7162	14124.2	13225.75
875.5032	1313.5984	13739.55	12840.35
875.6475	1315.4798	13540.7	12634.05
875.7917	1317.3605	13432.85	12516.4
875.9359	1319.2405	13322.5	12422.1
876.0801	1321.1197	13029.75	12130.75
876.2243	1322.9982	12588.05	11684.35
876.3685	1324.876	12029.55	11131.35
876.5127	1326.753	11433.2	10534.75
876.6569	1328.6293	10917.95	10017
876.801	1330.5048	10419.65	9516.95
876.9452	1332.3796	9989.95	9092.3
877.0893	1334.2537	9665.3	8742.45
877.2335	1336.127	9372.75	8472.6
877.3776	1337.9996	9164.75	8267.95
877.5217	1339.8714	9058.7	8158.8
877.6658	1341.7426	9047.85	8101.95
877.8099	1343.6129	9017.5	8116.95
877.954	1345.4826	8969.9	8071.6
878.0981	1347.3515	8944.85	8043.85
878.2422	1349.2196	8876.45	7978.7
878.3862	1351.087	8845.6	7943.8
878.5303	1352.9537	8911.35	8011.55
878.6743	1354.8197	9031.65	8131.4
878.8184	1356.6849	9214.25	8311.95
878.9624	1358.5493	9473.3	8575.5
879.1064	1360.4131	9783.45	8882.45
879.2504	1362.276	10115.9	9218.15
879.3944	1364.1383	10335.95	9439.35
879.5384	1365.9998	10307.3	9399.1
879.6823	1367.8606	10028	9127
879.8263	1369.7206	9670.55	8770.05
879.9702	1371.5799	9305.75	8404.9
880.1142	1373.4384	9027.6	8128.3
880.2581	1375.2962	8729.75	7829.55
880.402	1377.1533	8303.4	7406.6
880.5459	1379.0096	7838.35	6941.2
880.6898	1380.8652	7387.3	6492
880.8337	1382.7201	7006.4	6109
880.9776	1384.5742	6696.05	5795.45
881.1215	1386.4275	6458.05	5557.8
881.2653	1388.2802	6284.9	5386.75
881.4092	1390.132	6118.95	5221.4
881.553	1391.9832	6047.55	5148.5
881.6968	1393.8336	5948.35	5047.05
881.8406	1395.6832	5904.3	5002.65
881.9844	1397.5322	5869.85	4972.3
882.1282	1399.3803	5817.2	4915.5
882.272	1401.2278	5766.3	4867.65
882.4158	1403.0745	5734	4834.3
882.5595	1404.9204	5686.25	4788.65
882.7033	1406.7656	5669.8	4770.55
882.847	1408.6101	5667.2	4766.15
882.9908	1410.4538	5678.65	4778.5
883.1345	1412.2968	5729.5	4832.15
883.2782	1414.139	5772.2	4874.8
883.4219	1415.9805	5846.9	4949.45
883.5656	1417.8213	5963.9	5044.4
883.7092	1419.6613	6080.3	5184.45
883.8529	1421.5006	6300.3	5403.45
883.9965	1423.3391	6595.4	5692.55
884.1402	1425.1769	6963.6	6066.35
884.2838	1427.0139	7539.25	6640.15
884.4274	1428.8502	8235.1	7334.75
884.571	1430.6858	8894.15	7997.65
884.7146	1432.5206	9426.65	8529.3
884.8582	1434.3547	9749.9	8850.35
885.0018	1436.188	9811.15	8912.6
885.1453	1438.0206	9705.85	8807.75
885.2889	1439.8524	9536.9	8638.75
885.4324	1441.6835	9395.05	8496.15
885.5759	1443.5139	9251.25	8349.35
885.7194	1445.3435	9207.85	8312.5
885.8629	1447.1724	9168.9	8272.5
886.0064	1449.0005	9118.75	8220.15
886.1499	1450.8279	9035.55	8137.3
886.2933	1452.6545	9028.75	8132.35
886.4368	1454.4804	9057.45	8161.5
886.5802	1456.3056	9074.6	8171
886.7237	1458.13	9020.55	8124.05
886.8671	1459.9536	8839.55	7941.1
887.0105	1461.7766	8558.8	7659.45
887.1539	1463.5987	8182.6	7282.9
887.2972	1465.4202	7783.95	6886.25
887.4406	1467.2409	7386.05	6489.3
887.584	1469.0608	7008.85	6114.5
887.7273	1470.88	6664.55	5766.55
887.8706	1472.6984	6352.4	5456.55
888.0139	1474.5161	6103	5204.2
888.1572	1476.3331	5915.55	5017.4
888.3005	1478.1493	5762.8	4865.45
888.4438	1479.9648	5675.75	4777.35
888.5871	1481.7795	5598.8	4703.75
888.7303	1483.5935	5550.8	4657.75
888.8736	1485.4067	5501.55	4605.2
889.0168	1487.2192	5487.1	4591.5
889.16	1489.031	5459.2	4559.9
889.3032	1490.842	5412.3	4515.45
889.4464	1492.6522	5402.75	4505.8
889.5896	1494.4618	5368.4	4470.8
889.7327	1496.2705	5346.3	4453.5
889.8759	1498.0785	5335.15	4438.35
890.019	1499.8858	5299.9	4401.4
890.1622	1501.6924	5253.35	4359.8
890.3053	1503.4981	5197.6	4302.75
890.4484	1505.3032	5152.45	4256.25
890.5914	1507.1075	5105.15	4207.85
890.7345	1508.911	5044.3	4148.5
890.8776	1510.7138	4999.95	4105.3
891.0206	1512.5159	4951.95	4056.5
891.1637	1514.3172	4879.4	3984.65
891.3067	1516.1178	4827.95	3935
891.4497	1517.9176	4810.4	3911.95
891.5927	1519.7166	4747	3852.7
891.7357	1521.515	4717.15	3816.05
891.8786	1523.3126	4678.25	3784.4
892.0216	1525.1094	4669.85	3775.15
892.1645	1526.9055	4631.1	3737.35
892.3074	1528.7008	4610.3	3715.45
892.4503	1530.4954	4595.3	3699.4
892.5932	1532.2893	4583.35	3691.65
892.7361	1534.0824	4577.45	3681.75
892.879	1535.8747	4557.35	3665.9
893.0218	1537.6663	4556.9	3663.7
893.1647	1539.4572	4566.15	3672.85
893.3075	1541.2473	4577.85	3684.25
893.4503	1543.0367	4595.15	3704.75
893.5931	1544.8253	4610.95	3713.75
893.7359	1546.6132	4642.1	3745.05
893.8787	1548.4003	4682.35	3779.75
894.0214	1550.1867	4752.2	3850.55
894.1642	1551.9723	4820.75	3924.6
894.3069	1553.7572	4966.85	4074.7
894.4496	1555.5414	5102.2	4212.55
894.5923	1557.3247	5313.65	4421.45
894.735	1559.1074	5544.5	4653.8
894.8777	1560.8893	5839.65	4952.3
895.0204	1562.6705	6106.8	5215.4
895.163	1564.4509	6361.3	5473.35
895.3056	1566.2305	6532.1	5645.4
895.4482	1568.0094	6641	5752.1
895.5908	1569.7876	6713.15	5825.75
895.7334	1571.565	6722.05	5831.75
895.876	1573.3417	6764.8	5874.85
896.0186	1575.1176	6798.95	5909.6
896.1611	1576.8928	6888.1	5999.45
896.3036	1578.6672	6997.55	6113.8
896.4461	1580.4409	7111.9	6227.3
896.5886	1582.2138	7276.45	6386.85
896.7311	1583.986	7458.95	6570.15
896.8736	1585.7575	7687.2	6801.8
897.0161	1587.5282	7872.5	6986.25
897.1585	1589.2981	8121.35	7234.35
897.3009	1591.0673	8276.2	7390.6
897.4433	1592.8358	8464.05	7576.25
897.5857	1594.6035	8592.55	7702.85
897.7281	1596.3704	8637	7748.25
897.8705	1598.1366	8699.85	7813.6
898.0128	1599.9021	8740.95	7854.95
898.1551	1601.6668	8759.1	7871.6
898.2975	1603.4308	8799.1	7909.85
898.4398	1605.194	8882.1	7989.95
898.5821	1606.9564	9063.75	8179.7
898.7243	1608.7182	9363	8476.8
898.8666	1610.4791	9763.55	8881.4
899.0088	1612.2394	10236.8	9355
899.1511	1613.9988	10840.1	9957.95
899.2933	1615.7576	11418.7	10536.85
899.4355	1617.5156	11901.95	11012.3
899.5776	1619.2728	12162.25	11277.2
899.7198	1621.0293	12147.85	11261.6
899.862	1622.785	11794.2	10909.45
900.0041	1624.54	11264.4	10377.45
900.1462	1626.2942	10608.4	9724.55
900.2883	1628.0477	9876.05	8989.25
900.4304	1629.8005	9177.75	8287.65
900.5725	1631.5525	8541.2	7659.9
900.7145	1633.3037	7975.05	7090.15
900.8566	1635.0542	7525.1	6641.8
900.9986	1636.804	7161.9	6278.35
901.1406	1638.553	6957.05	6001
901.2826	1640.3013	6690.8	5807.8
901.4245	1642.0488	6540.25	5653.65
901.5665	1643.7955	6470.1	5589.3
901.7085	1645.5416	6429.45	5546.25
901.8504	1647.2868	6463.25	5579.1
901.9923	1649.0313	6491.55	5608.95
902.1342	1650.7751	6598.65	5714.4
902.2761	1652.5181	6686	5802.15
902.4179	1654.2604	6773.45	5890.35
902.5598	1656.0019	6987.25	6103.65
902.7016	1657.7427	7278.15	6395.4
902.8434	1659.4828	7612.05	6727.2
902.9852	1661.222	7940.85	7055.55
903.127	1662.9606	8124.7	7242.8
903.2687	1664.6984	8048.35	7164.45
903.4105	1666.4354	7717.55	6832.8
903.5522	1668.1717	7168.2	6285.75
903.6939	1669.9072	6501.1	5614.9
903.8356	1671.642	5912.9	5025.8
903.9773	1673.3761	5389.5	4506.25
904.119	1675.1094	4986.15	4103
904.2606	1676.8419	4665.05	3781.6
904.4022	1678.5737	4442.65	3559.15
904.5439	1680.3048	4256.25	3372.55
904.6855	1682.0351	4114.6	3231.4
904.827	1683.7646	4011.25	3123.65
904.9686	1685.4934	3916.65	3033.4
905.1101	1687.2215	3837.8	2954
905.2517	1688.9488	3764.7	2883.05
905.3932	1690.6754	3686.1	2803.3
905.5347	1692.4012	3657.55	2775.5
905.6761	1694.1263	3627.5	2745.2
905.8176	1695.8506	3586.6	2703.1
905.9591	1697.5742	3547.75	2664.25
906.1005	1699.297	3510.9	2628.7
906.2419	1701.0191	3447.65	2567
906.3833	1702.7404	3438.6	2556.65
906.5246	1704.461	3393.5	2508.75
906.666	1706.1808	3380.7	2498.85
906.8073	1707.8999	3346.25	2462.75
906.9487	1709.6182	3308	2426.05
907.09	1711.3358	3287.3	2406.05
907.2313	1713.0527	3278.15	2398.55
907.3725	1714.7688	3255.6	2368.25
907.5138	1716.4841	3218.7	2335.25
907.655	1718.1987	3225.5	2337.75
907.7962	1719.9126	3194.3	2315.2
907.9374	1721.6257	3179.75	2295.9
908.0786	1723.338	3170.85	2287.55
908.2198	1725.0496	3161.3	2281
908.3609	1726.7605	3151.45	2267.4
908.502	1728.4706	3141.25	2258.7
908.6431	1730.18	3111.95	2228.05
908.7842	1731.8886	3098.2	2216.5
908.9253	1733.5964	3120.45	2219.5
909.0664	1735.3036	3084.7	2200.8
909.2074	1737.0099	3069.45	2188.5
909.3484	1738.7156	3050.2	2170.95
909.4894	1740.4204	3023.7	2140.35
909.6304	1742.1246	3027	2143.35
909.7714	1743.8279	3016.75	2136.95
909.9123	1745.5306	2994.35	2110.55
910.0532	1747.2325	2978.7	2097.6
910.1941	1748.9336	2970.85	2088.95
910.335	1750.634	2954.6	2069.85
910.4759	1752.3336	2948.65	2067.95
910.6168	1754.0325	2938.9	2059.5
910.7576	1755.7307	2928	2049.5
910.8984	1757.4281	2935.4	2055.65
911.0392	1759.1247	2939.1	2050.75
911.18	1760.8206	2916.35	2032.25
911.3208	1762.5158	2913.8	2027.85
911.4615	1764.2102	2901.5	2019.4
911.6022	1765.9039	2889.4	2007.8
911.7429	1767.5968	2890.55	2010.95
911.8836	1769.289	2885.95	2004.9
912.0243	1770.9804	2875.95	1994.15
912.1649	1772.6711	2881.65	1997.95
912.3056	1774.361	2871.75	1988.85
912.4462	1776.0502	2858.1	1975.65
912.5868	1777.7386	2852.55	1969.1
912.7274	1779.4263	2839.2	1957
912.8679	1781.1132	2844.55	1964.15
913.0084	1782.7994	2834.1	1952.5
913.149	1784.4849	2823.1	1942.35
913.2895	1786.1696	2841.5	1940.85
913.4299	1787.8535	2820.35	1940.3
913.5704	1789.5367	2816.4	1937.15
913.7108	1791.2192	2813	1933.4
913.8513	1792.9009	2810.5	1904.9
913.9917	1794.5818	2793.45	1909.95
914.132	1796.2621	2776.3	1894.1
914.2724	1797.9415	2771.7	1888.5
914.4128	1799.6202	2770.45	1887.7
914.5531	1801.2982	2764	1882.55
914.6934	1802.9755	2758.1	1874.7
914.8337	1804.6519	2750.9	1869.6
914.9739	1806.3277	2746.8	1865.65
915.1142	1808.0027	2731.05	1851.5
915.2544	1809.6769	2731.9	1850.8
915.3946	1811.3504	2736.6	1855.45
915.5348	1813.0231	2731.8	1847.55
915.675	1814.6951	2723.3	1842.75
915.8151	1816.3664	2727.6	1843.35
915.9553	1818.0369	2713.15	1830.9
916.0954	1819.7067	2719.95	1838.5
916.2355	1821.3757	2709.75	1827.65
916.3755	1823.044	2699	1819.35
916.5156	1824.7115	2705.6	1823.5
916.6556	1826.3783	2686.55	1806.25
916.7956	1828.0443	2701.8	1821.15
916.9356	1829.7096	2678.3	1795.95
917.0756	1831.3741	2690.4	1806.95
917.2155	1833.0379	2672.95	1794.85
917.3555	1834.701	2680.95	1801.1
917.4954	1836.3633	2666.05	1787.8
917.6353	1838.0248	2663.65	1778.9
917.7751	1839.6856	2658.8	1778.5
917.915	1841.3457	2653.3	1772.95
918.0548	1843.005	2659.85	1779.4
918.1946	1844.6636	2654.3	1776.35
918.3344	1846.3214	2648.15	1767.15
918.4742	1847.9785	2654.55	1775.35
918.6139	1849.6349	2650.2	1768.05
918.7537	1851.2904	2646.3	1756.95
918.8934	1852.9453	2642.75	1760.95
919.0331	1854.5994	2629.25	1744.55
919.1727	1856.2528	2639.35	1753.5
919.3124	1857.9054	2621.05	1738.5
919.452	1859.5572	2627.2	1747.15
919.5916	1861.2083	2620.05	1737.55
919.7312	1862.8587	2613.85	1734.05
919.8708	1864.5084	2628	1744.85
920.0103	1866.1572	2607.7	1727.1
920.1498	1867.8054	2605.6	1724.3
920.2893	1869.4528	2596.1	1715.2
920.4288	1871.0994	2592.2	1710.7
920.5683	1872.7453	2594.7	1713.3
920.7077	1874.3905	2587.65	1699.3
920.8471	1876.0349	2571.7	1689.25
920.9865	1877.6786	2565.4	1684.4
921.1259	1879.3215	2574.05	1691.8
921.2653	1880.9637	2577	1696.85
921.4046	1882.6051	2567.9	1687.5
921.5439	1884.2458	2558.25	1675.7
921.6832	1885.8858	2551.9	1669.55
921.8225	1887.525	2558.4	1677.3
921.9617	1889.1634	2540.65	1660
922.101	1890.8011	2529.95	1647.45
922.2402	1892.4381	2540.6	1661.7
922.3794	1894.0743	2523.1	1643.1
922.5185	1895.7098	2520.75	1638.6
922.6577	1897.3446	2514.95	1633.35
922.7968	1898.9786	2522.15	1637.6
922.9359	1900.6118	2510.25	1630.2
923.075	1902.2443	2505.6	1622.05
923.214	1903.8761	2500.5	1620.55
923.3531	1905.5071	2488.85	1605.35
923.4921	1907.1374	2487.3	1605.95
923.6311	1908.7669	2485.95	1603.45
923.77	1910.3957	2467.05	1588.9
923.909	1912.0237	2463.85	1582.55
924.0479	1913.651	2464	1581.55
924.1868	1915.2776	2464.8	1586.65
924.3257	1916.9034	2452.65	1572.25
924.4646	1918.5285	2447.05	1566.25
924.6034	1920.1528	2438.15	1558.45
924.7422	1921.7764	2441.05	1560.5
924.881	1923.3992	2434.45	1554.1
925.0198	1925.0213	2415.1	1536.25
925.1586	1926.6427	2419.15	1539.4
925.2973	1928.2633	2488.35	1524.2
925.436	1929.8832	2422.5	1539.8
925.5747	1931.5023	2406.3	1525.7
925.7134	1933.1207	2397.2	1515.35
925.852	1934.7383	2396.85	1516.25
925.9906	1936.3552	2394.3	1512.15
926.1292	1937.9714	2386.9	1505.55
926.2678	1939.5868	2380.5	1496.4
926.4064	1941.2015	2378.75	1497.6
926.5449	1942.8154	2367.95	1487.65
926.6834	1944.4286	2363.05	1481.7
926.8219	1946.041	2378.3	1475.3
926.9604	1947.6528	2352.25	1466.2
927.0988	1949.2637	2342.05	1460.25
927.2372	1950.8739	2348.45	1467.15
927.3756	1952.4834	2337.05	1457.15
927.514	1954.0921	2338.85	1457.35
927.6523	1955.7001	2337.35	1453.4
927.7907	1957.3074	2321.95	1444.25
927.929	1958.9139	2321.85	1444
928.0673	1960.5197	2324.55	1442.8
928.2055	1962.1247	2311.85	1434.5
928.3438	1963.729	2301.4	1420.95
928.482	1965.3325	2290.9	1407.15
928.6202	1966.9353	2292.05	1412.9
928.7584	1968.5374	2291.95	1409.45
928.8965	1970.1387	2291.3	1412.1
929.0346	1971.7393	2285.4	1404.8
929.1727	1973.3392	2276	1393.7
929.3108	1974.9383	2267.7	1387.95
929.4489	1976.5366	2261.7	1381.9
929.5869	1978.1342	2263.3	1383.9
929.7249	1979.7311	2257.25	1376.55
929.8629	1981.3273	2258.9	1377.45
930.0009	1982.9227	2250.85	1370.4
930.1388	1984.5173	2243.35	1366.4
930.2767	1986.1112	2241	1361.55
930.4146	1987.7044	2236.7	1358.45
930.5525	1989.2968	2233.4	1354.85
930.6904	1990.8885	2230.75	1347.65
930.8282	1992.4795	2221.35	1343.5
930.966	1994.0697	2218.6	1339.35
931.1038	1995.6592	2210.8	1331.55
931.2415	1997.2479	2210.6	1330.45
931.3793	1998.8359	2209.25	1331.3
931.517	2000.4232	2201.05	1326
931.6547	2002.0097	2205.5	1330.25
931.7923	2003.5955	2197.45	1319.55
931.93	2005.1805	2198.95	1319.95
932.0676	2006.7648	2194.3	1316.2
932.2052	2008.3484	2186.25	1307.35
932.3427	2009.9312	2189.6	1309.55
932.4803	2011.5133	2179.7	1302.05
932.6178	2013.0946	2181.3	1304.05
932.7553	2014.6752	2170.5	1293.6
932.8928	2016.2551	2171.9	1293.85
933.0302	2017.8342	2172.5	1293.6
933.1676	2019.4126	2156.45	1282.15
933.305	2020.9902	2167.2	1290.25
933.4424	2022.5672	2146.85	1267.55
933.5798	2024.1433	2158.7	1277.5
933.7171	2025.7188	2149.2	1272.8
933.8544	2027.2935	2153.35	1275.45
933.9917	2028.8674	2144.25	1263.2
934.129	2030.4406	2141.65	1265.95
934.2662	2032.0131	2134.55	1260.55
934.4034	2033.5849	2142.5	1260.45
934.5406	2035.1559	2124.95	1249.6
934.6778	2036.7261	2132.3	1254.65
934.8149	2038.2957	2129.15	1250.5
934.952	2039.8645	2116.3	1236.7
935.0891	2041.4325	2126.65	1247.45
935.2262	2042.9998	2110.55	1234.4
935.3632	2044.5664	2118.35	1239.25
935.5002	2046.1323	2104.85	1228.2
935.6372	2047.6974	2100.65	1224
935.7742	2049.2617	2097.35	1219.85
935.9111	2050.8254	2102.5	1221
936.048	2052.3883	2109.35	1230.9
936.1849	2053.9504	2099.7	1221.8
936.3218	2055.5118	2085.35	1208.5
936.4586	2057.0725	2080.3	1199.45
936.5955	2058.6325	2092	1215
936.7323	2060.1917	2083.1	1206.2
936.869	2061.7502	2074.2	1194.3
937.0058	2063.3079	2067.25	1191.3
937.1425	2064.8649	2069.5	1187.85
937.2792	2066.4212	2072.2	1193.75
937.4159	2067.9767	2060.45	1183.3
937.5525	2069.5315	2060.85	1181.1
937.6891	2071.0856	2058.7	1182.05
937.8257	2072.6389	2059.05	1181
937.9623	2074.1915	2054.9	1178.55
938.0989	2075.7433	2046.4	1166.75
938.2354	2077.2945	2047.1	1171.55
938.3719	2078.8448	2032.15	1154.55
938.5084	2080.3945	2035.95	1157.1
938.6448	2081.9434	2038.05	1161.45
938.7812	2083.4916	2034.25	1154.9
938.9176	2085.039	2024.85	1143.65
939.054	2086.5857	2026.75	1144.55
939.1903	2088.1317	2030.2	1149.05
939.3267	2089.677	2029.3	1147.6
939.463	2091.2215	2017.7	1136
939.5992	2092.7652	2015.55	1133.25
939.7355	2094.3083	2003	1124.3
939.8717	2095.8506	2008.1	1130.5
940.0079	2097.3921	2010.05	1131.9
940.1441	2098.933	2010.8	1131.95
940.2802	2100.4731	2009.15	1130.45
940.4163	2102.0124	2013.3	1116.1
940.5524	2103.5511	1999.7	1121.3
940.6885	2105.089	1999.35	1117.3
940.8245	2106.6261	1989.35	1110.15
940.9606	2108.1626	1989.7	1109.65
941.0965	2109.6983	2017.8	1110.8
941.2325	2111.2332	1988.85	1108.45
941.3684	2112.7675	1985.9	1104.2
941.5044	2114.301	1980.35	1099.35
941.6403	2115.8337	1982.7	1102.45
941.7761	2117.3657	1979.65	1100.5
941.912	2118.897	1978.25	1100.2
942.0478	2120.4276	1985.2	1099.05
942.1835	2121.9575	1964	1085.2
942.3193	2123.4866	1966.65	1084.6
942.455	2125.0149	1957.55	1075.75
942.5907	2126.5426	1951.75	1073.85
942.7264	2128.0695	1958.5	1077.1
942.8621	2129.5956	1949.9	1072.9
942.9977	2131.1211	1960.1	1077.1
943.1333	2132.6458	1955.5	1075.85
943.2689	2134.1698	1944.45	1063.1
943.4044	2135.693	1935.2	1052.8
943.54	2137.2155	1942.45	1060.4
943.6755	2138.7373	1941.45	1063.15
943.8109	2140.2584	1928.65	1048.9
943.9464	2141.7787	1930.95	1045.95
944.0818	2143.2983	1922.95	1045.25
944.2172	2144.8171	1924.45	1048.85
944.3526	2146.3353	1915.3	1033.8
944.4879	2147.8527	1916.75	1039.2
944.6232	2149.3693	1919.65	1038.8
944.7585	2150.8853	1925.15	1043.75
944.8938	2152.4005	1917.9	1038.25
945.029	2153.9149	1908.35	1027.65
945.1642	2155.4287	1910.05	1029.8
945.2994	2156.9417	1899.7	1017.25
945.4346	2158.454	1894.75	1012.6
945.5697	2159.9655	1894.05	1013.1
945.7048	2161.4764	1897.95	1020.3
945.8399	2162.9865	1888.2	1006.75
945.9749	2164.4958	1892.6	1014
946.1099	2166.0045	1886.15	1003.7
946.2449	2167.5124	1884.85	1008.85
946.3799	2169.0195	1883.9	1004.25
946.5148	2170.526	1887.05	1006.2
946.6498	2172.0317	1879.95	1000.1
946.7846	2173.5367	1881.5	1000.45
946.9195	2175.0409	1876.8	998.3
947.0543	2176.5445	1879.1	1000.2
947.1891	2178.0473	1867.05	987.15
947.3239	2179.5494	1872.3	990.5
947.4587	2181.0507	1866.6	986.9
947.5934	2182.5513	1868.85	989.3
947.7281	2184.0512	1867.5	988.25
947.8628	2185.5504	1862.35	982.1
947.9974	2187.0488	1854.15	975.9
948.132	2188.5465	1863.15	983.25
948.2666	2190.0435	1856	978.1
948.4012	2191.5397	1846.35	966.4
948.5357	2193.0353	1853.45	972.05
948.6702	2194.5301	1852.2	969.45
948.8047	2196.0241	1842.95	959.95
948.9392	2197.5175	1842.3	959.9
949.0736	2199.0101	1849.5	965.05
949.208	2200.502	1836.8	957.25
949.3424	2201.9931	1827.85	948.65
949.4767	2203.4835	1828.05	948.25
949.611	2204.9733	1828.85	946.05
949.7453	2206.4622	1837.35	959.5
949.8796	2207.9505	1822.8	941.8
950.0138	2209.438	1807.4	932.35
950.148	2210.9248	1810.85	930.9
950.2822	2212.4109	1811.25	932.65
950.4164	2213.8962	1809.3	927.6
950.5505	2215.3809	1810.9	929.65
950.6846	2216.8648	1803.95	921.25
950.8186	2218.3479	1809.05	921.4
950.9527	2219.8304	1805.05	920.75
951.0867	2221.3121	1791.6	908.5
951.2207	2222.7931	1798.7	919.45
951.3546	2224.2733	1791.1	909.2
951.4886	2225.7529	1784.3	902.25
951.6225	2227.2317	1787.3	903.25
951.7563	2228.7098	1784.35	907.2
951.8902	2230.1872	1773.5	894.85
952.024	2231.6638	1778.2	901.6
952.1578	2233.1397	1772.2	889.4
952.2916	2234.6149	1767.4	887.85
952.4253	2236.0894	1767.95	888.35
952.559	2237.5632	1773.95	886.35
952.6927	2239.0362	1767.6	887.15
952.8263	2240.5085	1768.9	888.6
952.9599	2241.9801	1752.7	868.8
953.0935	2243.4509	1756.4	878.05
953.2271	2244.921	1747.9	866.35
953.3606	2246.3904	1748	864.15
953.4941	2247.8591	1742.6	864.3
953.6276	2249.3271	1744.75	863.9
953.7611	2250.7943	1731.55	849.1
953.8945	2252.2608	1738.2	857.9
954.0279	2253.7266	1727.95	844.5
954.1612	2255.1917	1732.6	852.75
954.2946	2256.656	1726.1	843.95
954.4279	2258.1197	1722.75	844.3
954.5612	2259.5826	1726.15	845.5
954.6944	2261.0447	1714.4	832.55
954.8276	2262.5062	1724.85	844
954.9608	2263.9669	1725.35	842.7
955.094	2265.4269	1712.65	832.1
955.2271	2266.8862	1706.9	827.25
955.3602	2268.3448	1716.65	835.9
955.4933	2269.8026	1714.4	834.4
955.6264	2271.2598	1709.7	827.85
955.7594	2272.7162	1692.15	814.15
955.8924	2274.1719	1702.1	819.85
956.0253	2275.6268	1700.15	818.1
956.1583	2277.0811	1712.6	833.35
956.2912	2278.5346	1706.2	828.2
956.4241	2279.9874	1703.2	823.8
956.5569	2281.4395	1695	817.3
956.6897	2282.8908	1699.8	814.8
956.8225	2284.3414	1703.6	821.15
956.9553	2285.7914	1695.1	817.25
957.088	2287.2406	1687.45	804.2
957.2207	2288.689	1696.65	814.95
957.3534	2290.1368	1696.55	811.9
957.486	2291.5838	1699.4	816.6
957.6186	2293.0302	1693.7	809.6
957.7512	2294.4758	1697	814.95
957.8838	2295.9206	1689.6	806.95
958.0163	2297.3648	1680.6	798.95
958.1488	2298.8082	1680.6	797.75
958.2813	2300.251	1673.35	790.5
958.4137	2301.693	1676.5	792.3
958.5461	2303.1343	1683.2	801.6
958.6785	2304.5748	1679.5	797.75
958.8108	2306.0147	1666.1	785.3
958.9432	2307.4538	1669	788.7
959.0754	2308.8922	1658.45	781.1
959.2077	2310.3299	1659.3	779.95
959.3399	2311.7669	1664.3	787.3
959.4721	2313.2031	1662.9	785.4
959.6043	2314.6387	1661.8	780.7
959.7365	2316.0735	1652.6	772.1
959.8686	2317.5076	1650.95	769.75
960.0006	2318.941	1659.8	779.05
960.1327	2320.3737	1647.45	766.95
960.2647	2321.8056	1649.95	768.05
960.3967	2323.2369	1644.3	761.25
960.5287	2324.6674	1643.75	757.8
960.6606	2326.0972	1653.25	771
960.7925	2327.5263	1636.2	755.05
960.9244	2328.9547	1642.3	759.4
961.0562	2330.3823	1640.4	756.75
961.1881	2331.8092	1642.6	756.9
961.3198	2333.2355	1636.4	753.1
961.4516	2334.661	1634.1	750.25
961.5833	2336.0858	1630.75	745.45
961.715	2337.5098	1624.3	743.2
961.8467	2338.9332	1633.05	752.9
961.9783	2340.3558	1627.1	741.1
962.1099	2341.7778	1626.95	745.6
962.2415	2343.199	1629.7	747.65
962.373	2344.6195	1631.9	751.8
962.5045	2346.0393	1623.65	745.7
962.636	2347.4583	1630.5	748.3
962.7675	2348.8767	1625.2	742.4
962.8989	2350.2943	1623.15	738.3
963.0303	2351.7113	1619.9	735.5
963.1617	2353.1275	1624.4	739.8
963.293	2354.543	1640.2	730.35
963.4243	2355.9578	1620.8	737.45
963.5556	2357.3718	1615.3	735.3
963.6868	2358.7852	1613.1	730.1
963.818	2360.1978	1612.1	728.2
963.9492	2361.6098	1606.6	728.15
964.0803	2363.021	1600.75	715
964.2114	2364.4315	1605.3	724.45
964.3425	2365.8413	1610.2	725.85
964.4736	2367.2504	1597.75	717.3
964.6046	2368.6587	1605.9	726.55
964.7356	2370.0664	1604.4	722.4
964.8666	2371.4733	1600.55	719.6
964.9975	2372.8795	1599.7	721.1
965.1284	2374.285	1599.65	719
965.2593	2375.6899	1592.25	711.8
965.3901	2377.0939	1592.2	710.55
965.5209	2378.4973	1585.7	705.7
965.6517	2379.9	1580.3	698.3
965.7825	2381.3019	1580.15	700.5
965.9132	2382.7032	1579.3	699.6
966.0439	2384.1037	1579.8	700.85
966.1745	2385.5035	1572	692.35
966.3051	2386.9027	1577.5	698.3
966.4357	2388.3011	1570.75	688.7
966.5663	2389.6987	1572.05	691.15
966.6968	2391.0957	1570.15	691.7
966.8273	2392.492	1566.5	685.7
966.9578	2393.8876	1556.5	676
967.0882	2395.2824	1557.7	676.15
967.2186	2396.6765	1547.6	667.4
967.349	2398.07	1553.3	671.4
967.4793	2399.4627	1553.6	672.15
967.6097	2400.8547	1551.95	670.6
967.7399	2402.246	1558.65	671.75
967.8702	2403.6366	1556.4	674.9
968.0004	2405.0265	1552.55	671.35
968.1306	2406.4156	1550.35	664
968.2607	2407.8041	1546.75	662.55
968.3909	2409.1918	1546.25	660.4
968.521	2410.5789	1547.8	665.85
968.651	2411.9652	1552.2	668.45
968.781	2413.3508	1535.85	654.55
968.911	2414.7358	1520.95	638
969.041	2416.12	1529.55	648.8
969.1709	2417.5035	1541.65	660.7
969.3008	2418.8863	1530.6	648.55
969.4307	2420.2684	1533.1	652.65
969.5606	2421.6497	1527.15	644.25
969.6904	2423.0304	1532	650.7
969.8201	2424.4104	1530.45	648.1
969.9499	2425.7896	1536.45	650.2
970.0796	2427.1682	1522	642.3
970.2093	2428.546	1525.9	643.4
970.3389	2429.9232	1523.8	641.75
970.4685	2431.2996	1518.3	638.05
970.5981	2432.6753	1519.9	639.95
970.7277	2434.0503	1517	633.75
970.8572	2435.4246	1517.45	636.4
970.9867	2436.7982	1515.15	632.35
971.1161	2438.1711	1509.45	628.35
971.2456	2439.5433	1509.1	626.55
971.375	2440.9148	1506.4	621.4
971.5043	2442.2856	1505	623.45
971.6336	2443.6557	1501.85	617.15
971.7629	2445.025	1496.85	614.4
971.8922	2446.3937	1502.45	621.9
972.0214	2447.7617	1504.15	619.85
972.1506	2449.1289	1496.2	615.9
972.2798	2450.4955	1499.3	612.95
972.4089	2451.8613	1492.4	612.3
972.538	2453.2265	1489.95	608.6
972.6671	2454.5909	1496.55	617.1
972.7961	2455.9546	1485.15	604.75
972.9251	2457.3177	1490.95	611.15
973.0541	2458.68	1484.8	602.35
973.1831	2460.0416	1487.1	606.8
973.312	2461.4025	1489.45	607.1
973.4408	2462.7627	1499.5	606
973.5697	2464.1222	1487.4	608.45
973.6985	2465.4811	1480.05	598.65
973.8273	2466.8392	1474.35	593.75
973.956	2468.1966	1475.15	591.7
974.0847	2469.5533	1488.05	606.45
974.2134	2470.9093	1481.05	598.95
974.3421	2472.2645	1487.4	605.35
974.4707	2473.6191	1484.25	601.3
974.5993	2474.973	1480.65	600.5
974.7278	2476.3262	1477.95	595.75
974.8563	2477.6787	1481.1	602.3
974.9848	2479.0305	1477.95	598.8
975.1132	2480.3816	1480.3	599.3
975.2417	2481.7319	1482.25	602
975.37	2483.0816	1477.9	594.7
975.4984	2484.4306	1473.5	593.55
975.6267	2485.7789	1478.95	599.35
975.755	2487.1264	1474.85	593
975.8833	2488.4733	1462.2	585.5
976.0115	2489.8195	1484.25	585.85
976.1397	2491.165	1469.5	586.25
976.2678	2492.5097	1465.65	582.55
976.3959	2493.8538	1461.45	580.45
976.524	2495.1972	1459.25	577.3
976.6521	2496.5398	1456.55	573.7
976.7801	2497.8818	1457.2	574.45
976.9081	2499.2231	1455.65	573.4
977.036	2500.5637	1461.2	577.5
977.164	2501.9035	1462.2	581.25
977.2918	2503.2427	1456.85	573.05
977.4197	2504.5812	1448.45	569.95
977.5475	2505.919	1458.95	576
977.6753	2507.256	1450.9	569.95
977.8031	2508.5924	1453.85	576
977.9308	2509.9281	1459.5	573.55
978.0585	2511.2631	1450.45	570.3
978.1861	2512.5974	1443.85	562.45
978.3137	2513.9309	1450.15	567.65
978.4413	2515.2638	1475.05	564.7
978.5689	2516.596	1451.35	571.3
978.6964	2517.9275	1436.65	554.05
978.8239	2519.2583	1445	564.3
978.9513	2520.5884	1437.95	554.15
979.0788	2521.9178	1436.4	554.6
979.2062	2523.2465	1431.35	550.35
979.3335	2524.5745	1433.3	553.75
979.4608	2525.9018	1430.65	549.4
979.5881	2527.2284	1427.35	548.8
979.7154	2528.5543	1436.5	555.8
979.8426	2529.8796	1432.5	553.25
979.9698	2531.2041	1427.05	545.1
980.0969	2532.5279	1424	545.1
980.224	2533.851	1433.95	551.95
980.3511	2535.1735	1433.05	551.25
980.4781	2536.4952	1425.1	543.55
980.6052	2537.8163	1427.1	546.4
980.7321	2539.1366	1424.55	545.1
980.8591	2540.4562	1429.9	547.9
980.986	2541.7752	1428.55	548.65
981.1129	2543.0935	1417.65	534.8
981.2397	2544.411	1427.35	544.5
981.3665	2545.7279	1431	550
981.4933	2547.0441	1428.65	548.9
981.62	2548.3596	1428.25	545.1
981.7467	2549.6744	1421.65	540.35
981.8734	2550.9885	1428.45	541.2
982.0001	2552.3019	1421.2	540.35
982.1267	2553.6146	1421.75	541.3
982.2532	2554.9266	1414.6	532.05
982.3798	2556.2379	1413.7	531.65
982.5063	2557.5485	1418.55	538.35
982.6327	2558.8585	1425.4	537.7
982.7592	2560.1677	1418.15	533.1
982.8856	2561.4762	1414.05	533.15
983.0119	2562.7841	1425.5	541.05
983.1383	2564.0913	1419	540.6
983.2646	2565.3977	1409.1	529.8
983.3908	2566.7035	1414.3	534
983.517	2568.0086	1411.2	528.65
983.6432	2569.313	1409.85	527.65
983.7694	2570.6167	1420.75	537.6
983.8955	2571.9197	1417.25	538.85
984.0216	2573.222	1402.4	518.35
984.1476	2574.5236	1414.05	532.15
984.2737	2575.8246	1420.65	538.35
984.3996	2577.1248	1418.55	534.2
984.5256	2578.4244	1410.7	530.75
984.6515	2579.7232	1407.4	527.85
984.7774	2581.0214	1439.35	532.8
984.9032	2582.3189	1412.05	532.9
985.029	2583.6157	1421.4	537.6
985.1548	2584.9118	1414.6	533.15
985.2806	2586.2072	1417.8	537.35
985.4063	2587.5019	1417.35	537.9
985.5319	2588.7959	1414.55	533.55
985.6576	2590.0893	1421	539.85
985.7832	2591.3819	1416.05	537.05
985.9087	2592.6739	1423.2	544.05
986.0343	2593.9652	1421.05	539.4
986.1597	2595.2557	1418.25	539.1
986.2852	2596.5456	1426.7	544.75
986.4106	2597.8348	1427.25	547.7
986.536	2599.1234	1430.95	552
986.6614	2600.4112	1432.2	552
986.7867	2601.6983	1428.15	546
986.912	2602.9848	1433.4	553.5
987.0372	2604.2705	1432.35	543.45
987.1624	2605.5556	1429.65	551.6
987.2876	2606.84	1429.8	547.7
987.4128	2608.1237	1429.5	548.4
987.5379	2609.4067	1414.7	535.3
987.6629	2610.689	1421.4	532.4
987.788	2611.9707	1412.65	530.5
987.913	2613.2516	1415.45	531.65
988.0379	2614.5319	1416.8	537.5
988.1629	2615.8115	1408.15	528.2
988.2878	2617.0903	1400.1	521.7
988.4126	2618.3685	1411.05	531
988.5375	2619.6461	1401.85	520.45
988.6622	2620.9229	1401.75	521.4
988.787	2622.199	1396.75	516.55
988.9117	2623.4745	1400.1	521.85
989.0364	2624.7493	1398.25	520.1
989.161	2626.0234	1398.6	520.55
989.2857	2627.2968	1397.7	519.65
989.4102	2628.5695	1399.15	518.45
989.5348	2629.8415	1391.15	513.2
989.6593	2631.1128	1394.1	513.25
989.7837	2632.3835	1400.15	520.75
989.9082	2633.6535	1391.2	512.2
990.0326	2634.9228	1395.1	516.15
990.1569	2636.1914	1395.55	516.9
990.2812	2637.4593	1393.2	512.35
990.4055	2638.7265	1385.85	506.35
990.5298	2639.9931	1388.65	508.6
990.654	2641.259	1383.45	501.15
990.7782	2642.5242	1381.45	500.05
990.9023	2643.7887	1378.35	499
991.0264	2645.0525	1381.9	503.2
991.1505	2646.3156	1383.95	505.15
991.2745	2647.5781	1378.4	500.1
991.3985	2648.8398	1374.3	495.45
991.5225	2650.1009	1381.5	491.75
991.6464	2651.3613	1375.4	497.35
991.7703	2652.6211	1372.25	492.45
991.8942	2653.8801	1364.4	485.4
992.018	2655.1385	1371	489.35
992.1418	2656.3961	1370.5	489.8
992.2655	2657.6531	1363.75	484.65
992.3892	2658.9094	1371.1	491.55
992.5129	2660.1651	1371.1	493.1
992.6366	2661.42	1373.3	495.6
992.7602	2662.6743	1379.7	500.55
992.8837	2663.9279	1375.45	500.15
993.0073	2665.1808	1379.65	501.3
993.1307	2666.433	1383.7	502.45
993.2542	2667.6846	1381.75	502.85
993.3776	2668.9354	1392	508.1
993.501	2670.1856	1391.35	511.65
993.6244	2671.4351	1397.45	517.45
993.7477	2672.6839	1400.65	521.8
993.8709	2673.9321	1400.8	522.15
993.9942	2675.1795	1408.3	530.15
994.1174	2676.4263	1405.7	526.15
994.2405	2677.6724	1412.3	534.05
994.3637	2678.9179	1415.05	534.5
994.4868	2680.1626	1412.25	533.6
994.6098	2681.4067	1414.05	534.75
994.7328	2682.6501	1408.55	529.85
994.8558	2683.8928	1414.45	534.2
994.9788	2685.1348	1406.95	529.75
995.1017	2686.3761	1395.85	517.55
995.2245	2687.6168	1391.75	512.95
995.3474	2688.8568	1388.1	510.05
995.4702	2690.0961	1380.3	503.6
995.5929	2691.3348	1381.6	503.45
995.7156	2692.5727	1375.75	497.4
995.8383	2693.81	1377.75	499.75
995.961	2695.0466	1368.2	489.05
996.0836	2696.2826	1373.5	491.9
996.2062	2697.5178	1397.6	499.9
996.3287	2698.7524	1375.6	498.1
996.4512	2699.9863	1389	507.05
996.5737	2701.2195	1383.05	505.4
996.6961	2702.452	1388.65	507.3
996.8185	2703.6839	1403.35	523.6
996.9408	2704.9151	1405.05	526.3
997.0631	2706.1456	1405.45	526.6
997.1854	2707.3755	1414.65	535.55
997.3077	2708.6046	1424.65	545.95
997.4299	2709.8331	1433.2	553.6
997.552	2711.0609	1451	571.35
997.6742	2712.2881	1449.5	568.8
997.7963	2713.5145	1463.65	582.7
997.9183	2714.7403	1474.65	596.35
998.0403	2715.9654	1483.7	603.6
998.1623	2717.1899	1513.85	622.1
998.2842	2718.4136	1516.2	636.35
998.4062	2719.6367	1527.95	649.45
998.528	2720.8591	1542.85	656.3
998.6498	2722.0809	1560.6	681.75
998.7716	2723.3019	1572.35	690.65
998.8934	2724.5223	1588.75	707.35
999.0151	2725.7421	1584.25	704.55
999.1368	2726.9611	1594.85	714.95
999.2584	2728.1795	1590.25	705.65
999.38	2729.3972	1566.95	690.3
999.5016	2730.6142	1554.3	668.8
999.6231	2731.8306	1537.1	657.05
999.7446	2733.0462	1515.05	635.85
999.8661	2734.2612	1504.8	621.2
999.9875	2735.4756	1475.9	594.5
1000.1089	2736.6892	1464.7	584.65
1000.2302	2737.9022	1451.5	572.85
1000.3515	2739.1145	1437.2	559.85
1000.4728	2740.3262	1432.45	545.45
1000.594	2741.5372	1408.25	529.7
1000.7152	2742.7475	1398.95	520.95
1000.8363	2743.9571	1391.95	511.75
1000.9575	2745.1661	1380	496.9
1001.0785	2746.3744	1371.5	493.45
1001.1996	2747.582	1361.05	484
1001.3206	2748.7889	1356.25	476.1
1001.4415	2749.9952	1346	467.75
1001.5625	2751.2008	1344.95	465.4
1001.6833	2752.4057	1338.45	456.55
1001.8042	2753.61	1332.15	452.8
1001.925	2754.8136	1327.85	448.55
1002.0458	2756.0165	1328.2	450.15
1002.1665	2757.2188	1325.5	448.45
1002.2872	2758.4204	1327.75	450.1
1002.4078	2759.6213	1328.75	449.7
1002.5285	2760.8215	1330.45	448.2
1002.649	2762.0211	1329.8	449.95
1002.7696	2763.22	1329.9	447.3
1002.8901	2764.4182	1326.3	448.2
1003.0106	2765.6158	1325.9	446.6
1003.131	2766.8127	1322.95	444.3
1003.2514	2768.009	1317	437.95
1003.3717	2769.2045	1313.3	435.9
1003.492	2770.3994	1306.5	425.95
1003.6123	2771.5936	1305.75	426.9
1003.7325	2772.7872	1301.3	424.65
1003.8527	2773.9801	1303.75	424.5
1003.9729	2775.1723	1313.25	419.45
1004.093	2776.3639	1296.4	420.3
1004.2131	2777.5548	1298.25	415.15
1004.3331	2778.745	1302.2	422.25
1004.4531	2779.9346	1298.1	420.6
1004.5731	2781.1235	1302.85	423.85
1004.693	2782.3117	1294.05	416.15
1004.8129	2783.4992	1300.6	423.95
1004.9328	2784.6861	1306.45	431.55
1005.0526	2785.8723	1311.75	432.25
1005.1723	2787.0579	1307.75	428.4
1005.2921	2788.2428	1311.5	434.05
1005.4118	2789.427	1323.05	444.45
1005.5314	2790.6106	1314.9	437.95
1005.651	2791.7935	1328.9	448.75
1005.7706	2792.9757	1330.35	453.75
1005.8902	2794.1573	1343.3	462.1
1006.0097	2795.3382	1348.85	469.5
1006.1291	2796.5184	1357.65	481.4
1006.2485	2797.698	1374.05	494.15
1006.3679	2798.8769	1382.4	507.05
1006.4873	2800.0551	1393.35	517.1
1006.6066	2801.2327	1408.7	526.15
1006.7258	2802.4096	1422.3	544.6
1006.8451	2803.5859	1438.15	559.45
1006.9642	2804.7615	1449.4	570.85
1007.0834	2805.9364	1477.6	599.5
1007.2025	2807.1106	1502.7	625.65
1007.3216	2808.2842	1523.15	645.1
1007.4406	2809.4572	1554.6	677.2
1007.5596	2810.6294	1592.35	713.1
1007.6785	2811.801	1628.9	751.2
1007.7975	2812.972	1677.5	797.9
1007.9163	2814.1423	1722.75	844.95
1008.0352	2815.3119	1768.5	891.05
1008.154	2816.4808	1823.5	946.95
1008.2727	2817.6491	1889.25	1010.6
1008.3914	2818.8167	1943.95	1067.35
1008.5101	2819.9837	2005.35	1123.05
1008.6288	2821.15	2076.5	1198.2
1008.7474	2822.3157	2142.15	1268.85
1008.8659	2823.4807	2212.8	1335.85
1008.9844	2824.645	2280.7	1403.4
1009.1029	2825.8086	2361.2	1484.85
1009.2214	2826.9716	2426	1550.25
1009.3398	2828.134	2493.25	1615.05
1009.4581	2829.2957	2540.85	1664.2
1009.5764	2830.4567	2577.2	1699.55
1009.6947	2831.617	2604.6	1726.05
1009.813	2832.7767	2623.75	1747.25
1009.9312	2833.9358	2621.5	1743.85
1010.0493	2835.0941	2603.45	1726.55
1010.1675	2836.2519	2592.8	1716.05
1010.2855	2837.4089	2570.7	1690.85
1010.4036	2838.5653	2534.2	1657.25
1010.5216	2839.7211	2529.6	1654.15
1010.6396	2840.8761	2531.45	1654.15
1010.7575	2842.0306	2541.5	1663.05
1010.8754	2843.1843	2573.25	1695.1
1010.9932	2844.3374	2610.3	1733.35
1011.111	2845.4899	2658.1	1780.15
1011.2288	2846.6417	2704	1827.65
1011.3465	2847.7928	2786.3	1909.25
1011.4642	2848.9433	2840.9	1963.2
1011.5818	2850.0931	2909.95	2033.65
1011.6995	2851.2422	2985.1	2106.25
1011.817	2852.3907	3035.05	2156.25
1011.9345	2853.5385	3097.05	2217.15
1012.052	2854.6857	3162.15	2256.35
1012.1695	2855.8323	3197.15	2320.7
1012.2869	2856.9781	3254.95	2377.6
1012.4042	2858.1233	3323.65	2444.9
1012.5216	2859.2679	3386.3	2509.65
1012.6389	2860.4118	3442.95	2565.5
1012.7561	2861.555	3497.05	2616.45
1012.8733	2862.6976	3557.75	2680.25
1012.9905	2863.8395	3589.5	2713.45
1013.1076	2864.9808	3620.55	2745.4
1013.2247	2866.1214	3644.9	2767.95
1013.3417	2867.2614	3679.95	2804.65
1013.4587	2868.4007	3690.3	2809.6
1013.5757	2869.5393	3706.05	2825.25
1013.6926	2870.6773	3718.9	2841.4
1013.8095	2871.8146	3743.4	2860.9
1013.9263	2872.9513	3743.95	2865.8
1014.0431	2874.0874	3730.3	2853.1
1014.1599	2875.2227	3708.4	2830.5
1014.2766	2876.3574	3670.2	2793.1
1014.3933	2877.4915	3653.35	2775.45
1014.51	2878.6249	3619.7	2743.2
1014.6266	2879.7577	3599.6	2722.3
1014.7431	2880.8898	3577.75	2691.55
1014.8596	2882.0212	3555.35	2678.9
1014.9761	2883.152	3554.4	2676.05
1015.0925	2884.2821	3553.4	2676.85
1015.2089	2885.4116	3539.45	2661.75
1015.3253	2886.5405	3551.5	2673.75
1015.4416	2887.6686	3583.55	2702.2
1015.5579	2888.7962	3570.15	2695.2
1015.6741	2889.923	3587.5	2713.1
1015.7903	2891.0493	3597.65	2722.8
1015.9065	2892.1748	3602.55	2726.45
1016.0226	2893.2997	3608.45	2732.15
1016.1387	2894.424	3624.3	2746.75
1016.2547	2895.5476	3644.9	2768.4
1016.3707	2896.6706	3662.05	2784.95
1016.4866	2897.7929	3688.1	2809.85
1016.6025	2898.9145	3708.25	2830.4
1016.7184	2900.0355	3740.35	2863.15
1016.8342	2901.1559	3788.6	2911.45
1016.95	2902.2756	3814.4	2933.5
1017.0658	2903.3946	3841	2965
1017.1815	2904.513	3859.4	2979.8
1017.2971	2905.6308	3902	3027.3
1017.4127	2906.7479	3912.35	3034.6
1017.5283	2907.8643	3954.05	3074.9
1017.6439	2908.9801	3956.2	3077.8
1017.7594	2910.0953	3960.1	3083.2
1017.8748	2911.2098	3948.75	3068.8
1017.9902	2912.3236	3953	3066.25
1018.1056	2913.4368	3926.95	3046.7
1018.2209	2914.5494	3884.65	3008.6
1018.3362	2915.6613	3850.55	2968.25
1018.4515	2916.7725	3812.85	2932.25
1018.5667	2917.8831	3776.7	2897.45
1018.6819	2918.9931	3736.35	2858.15
1018.797	2920.1024	3710	2831.3
1018.9121	2921.211	3683.5	2806.45
1019.0271	2922.319	3649.25	2772.75
1019.1421	2923.4264	3639.6	2765.1
1019.2571	2924.5331	3628.6	2752.65
1019.372	2925.6391	3615.85	2739.25
1019.4869	2926.7445	3623.2	2748.6
1019.6017	2927.8493	3629.6	2750.7
1019.7165	2928.9534	3641.4	2762.75
1019.8313	2930.0569	3651.85	2772.45
1019.946	2931.1597	3664.9	2786.95
1020.0606	2932.2619	3674.9	2797.85
1020.1753	2933.3634	3680.95	2803.75
1020.2899	2934.4643	3699.15	2816.15
1020.4044	2935.5645	3684.35	2801.45
1020.5189	2936.6641	3656.65	2775.05
1020.6334	2937.763	3634.1	2757.4
1020.7478	2938.8613	3603.85	2726
1020.8622	2939.959	3567.65	2685.35
1020.9765	2941.056	3496.85	2621.95
1021.0908	2942.1523	3437.4	2559.45
1021.2051	2943.248	3362.75	2484.75
1021.3193	2944.3431	3250.9	2376.15
1021.4334	2945.4375	3147.75	2269.95
1021.5476	2946.5313	3037.35	2163.9
1021.6617	2947.6244	2921	2043.25
1021.7757	2948.7169	2809.55	1932.6
1021.8897	2949.8087	2711.45	1834.9
1022.0037	2950.8999	2615.25	1736.85
1022.1176	2951.9904	2533.9	1657.4
1022.2315	2953.0803	2446.65	1567.95
1022.3453	2954.1696	2391.6	1514.65
1022.4591	2955.2582	2327.35	1451.4
1022.5728	2956.3462	2282.4	1403.55
1022.6865	2957.4335	2236.4	1359.4
1022.8002	2958.5202	2199.25	1321
1022.9138	2959.6062	2174.55	1299.3
1023.0274	2960.6916	2144.3	1268.25
1023.141	2961.7764	2118.6	1242.05
1023.2545	2962.8605	2098.35	1221.15
1023.3679	2963.9439	2091.85	1217.15
1023.4813	2965.0267	2079.05	1200.2
1023.5947	2966.1089	2086.4	1187.8
1023.708	2967.1905	2068.8	1193.75
1023.8213	2968.2714	2067.7	1193.95
1023.9346	2969.3516	2065	1186.85
1024.0478	2970.4312	2073.5	1187.55
1024.1609	2971.5102	2077.8	1202.8
1024.274	2972.5885	2082.2	1206.05
1024.3871	2973.6662	2093.95	1212.6
1024.5002	2974.7432	2084.85	1209.5
1024.6132	2975.8196	2079.95	1203.75
1024.7261	2976.8954	2082	1208
1024.839	2977.9705	2069.6	1191.95
1024.9519	2979.045	2064.1	1188.7
1025.0647	2980.1188	2057.15	1180.2
1025.1775	2981.192	2027.95	1154.5
1025.2902	2982.2645	2007.5	1127.85
1025.4029	2983.3364	1986.65	1110
1025.5156	2984.4077	1954.75	1078.75
1025.6282	2985.4783	1930.6	1048.25
1025.7407	2986.5483	1901.7	1026.5
1025.8532	2987.6177	1863.4	986.85
1025.9657	2988.6864	1822.35	946.2
1026.0782	2989.7545	1794.8	916.7
1026.1906	2990.8219	1749.7	872.3
1026.3029	2991.8887	1716.95	836.85
1026.4152	2992.9548	1671.65	793.65
1026.5275	2994.0204	1647.6	773.4
1026.6397	2995.0852	1600.05	725.15
1026.7519	2996.1495	1572.45	694
1026.864	2997.2131	1540.55	662.55
1026.9761	2998.276	1512.15	637.2
1027.0882	2999.3383	1479.95	602.45
1027.2002	3000.4	1463.1	587.05
1027.3122	3001.4611	1432.8	556.5
1027.4241	3002.5215	1415.2	537.7
1027.536	3003.5812	1399.65	521.75
1027.6478	3004.6404	1383.8	506.9
1027.7596	3005.6989	1372.25	494.9
1027.8714	3006.7567	1353.15	477.75
1027.9831	3007.8139	1363.7	456.25
1028.0947	3008.8705	1328.35	452.7
1028.2064	3009.9264	1320	440.9
1028.3179	3010.9818	1306.65	430.2
1028.4295	3012.0364	1298.8	420.6
1028.541	3013.0905	1290.1	413.3
1028.6524	3014.1439	1282.3	407.7
1028.7638	3015.1966	1268.75	393.4
1028.8752	3016.2487	1267.55	392.15
1028.9865	3017.3002	1264	383.75
1029.0978	3018.3511	1258.75	384.9
1029.209	3019.4013	1257.3	380.25
1029.3202	3020.4509	1252.45	377.05
1029.4314	3021.4998	1253.15	377.35
1029.5425	3022.5481	1246.05	370.7
1029.6535	3023.5958	1253.3	376.8
1029.7645	3024.6428	1243.9	367.4
1029.8755	3025.6892	1243.9	369
1029.9864	3026.735	1244.25	368.1
1030.0973	3027.7802	1241	365.75
1030.2082	3028.8247	1236.3	360.35
1030.319	3029.8685	1240.4	362.85
1030.4297	3030.9118	1249.5	372.3
1030.5404	3031.9544	1247	373
1030.6511	3032.9963	1246.2	370.1
1030.7617	3034.0376	1251.5	376.1
1030.8723	3035.0783	1252.55	371.95
1030.9829	3036.1184	1246.95	371.35
1031.0934	3037.1578	1255.1	379.5
1031.2038	3038.1966	1254.9	377.85
1031.3142	3039.2348	1263.6	387.3
1031.4246	3040.2723	1270.15	385.4
1031.5349	3041.3092	1264.8	390
1031.6452	3042.3455	1265.1	388.8
1031.7554	3043.3811	1263.8	387.4
1031.8656	3044.4161	1258	380.7
1031.9758	3045.4505	1258.35	382.8
1032.0859	3046.4842	1260.65	384.05
1032.1959	3047.5173	1255.95	380.65
1032.3059	3048.5498	1258.5	383.95
1032.4159	3049.5816	1261.3	385.3
1032.5258	3050.6128	1251.75	375.05
1032.6357	3051.6434	1248.35	370.75
1032.7455	3052.6734	1249.6	372.8
1032.8553	3053.7027	1247.8	369.55
1032.9651	3054.7314	1242.75	367.95
1033.0748	3055.7594	1239.5	364.6
1033.1845	3056.7868	1239.05	361.5
1033.2941	3057.8136	1241.3	365.15
1033.4037	3058.8398	1240.7	365.85
1033.5132	3059.8653	1238.4	364.65
1033.6227	3060.8902	1236.7	361.4
1033.7321	3061.9145	1236.05	361.8
1033.8415	3062.9381	1234.25	359.9
1033.9509	3063.9612	1247	354.3
1034.0602	3064.9835	1231.8	354.2
1034.1694	3066.0053	1223.35	344.2
1034.2787	3067.0264	1228.8	352.85
1034.3878	3068.0469	1225.85	350.1
1034.497	3069.0668	1223.25	344.55
1034.6061	3070.086	1209.4	333.4
1034.7151	3071.1046	1210.4	334.05
1034.8241	3072.1226	1206.5	330.1
1034.9331	3073.1399	1199.25	322.5
1035.042	3074.1567	1186.3	309.9
1035.1508	3075.1727	1183.2	306
1035.2597	3076.1882	1175.35	298.85
1035.3684	3077.203	1170.8	295.85
1035.4772	3078.2173	1168.9	291.5
1035.5859	3079.2308	1165.45	287.15
1035.6945	3080.2438	1149.6	270.95
1035.8031	3081.2561	1139.5	263.15
1035.9117	3082.2678	1139.75	263
1036.0202	3083.2789	1128	251.45
1036.1286	3084.2893	1120.3	244.3
1036.2371	3085.2991	1117.25	241.45
1036.3454	3086.3083	1117.2	236.95
1036.4538	3087.3169	1104.9	227.3
1036.562	3088.3248	1101.85	225.15
1036.6703	3089.3321	1097.9	221
1036.7785	3090.3388	1090.15	216.2
1036.8866	3091.3449	1088.1	211.45
1036.9948	3092.3503	1085.85	206.2
1037.1028	3093.3551	1081.15	206.4
1037.2108	3094.3593	1073.85	200.6
1037.3188	3095.3629	1076.35	201.75
1037.4267	3096.3658	1076.55	199.35
1037.5346	3097.3681	1065.15	188.85
1037.6425	3098.3698	1065.55	188.05
1037.7503	3099.3708	1067.05	184.25
1037.858	3100.3713	1054.75	181.1
1037.9657	3101.3711	1053.85	176.8
1038.0734	3102.3702	1188.9	178.5
1038.181	3103.3688	1054.05	177.05
1038.2886	3104.3667	1049.15	173.95
1038.3961	3105.364	1044.15	168.5
1038.5036	3106.3607	1041.85	163.2
1038.611	3107.3568	1041.8	164.55
1038.7184	3108.3522	1034.05	160.9
1038.8257	3109.347	1036.5	158.55
1038.933	3110.3412	1039.1	159.35
1039.0403	3111.3348	1030.4	154.45
1039.1475	3112.3277	1028.65	152.55
1039.2547	3113.32	1021.35	146.65
1039.3618	3114.3117	1024.95	147.8
1039.4689	3115.3028	1020.5	145
1039.5759	3116.2932	1024.3	146.1
1039.6829	3117.2831	1023.5	142.1
1039.7898	3118.2723	1017.3	141.75
1039.8967	3119.2608	1016.15	139.95
1040.0035	3120.2488	1013.35	138.55
1040.1103	3121.2361	1016.3	140.85
1040.2171	3122.2229	1006.2	129.65
1040.3238	3123.209	1010.95	136.3
1040.4305	3124.1944	1005.9	131.2
1040.5371	3125.1793	1008.95	130.2
1040.6437	3126.1635	1001.65	128
1040.7502	3127.1471	999.75	124.25
1040.8567	3128.1301	998.65	122.15
1040.9631	3129.1125	999.15	124.05
1041.0695	3130.0942	997.25	120.5
1041.1759	3131.0753	1006.7	123.8
1041.2822	3132.0558	994.9	115.7
1041.3884	3133.0357	994.65	119.5
1041.4946	3134.015	995.15	117.95
1041.6008	3134.9936	991.2	112.4
1041.7069	3135.9716	1011.5	113.45
1041.813	3136.949	985.5	109.65
1041.919	3137.9258	1006.75	112.55
1042.025	3138.902	991.45	109.7
1042.1309	3139.8775	987.25	109.9
1042.2368	3140.8524	987.05	111.55
1042.3427	3141.8267	985.95	107.95
1042.4485	3142.8004	983.05	106.35
1042.5542	3143.7735	989.1	106.75
1042.6599	3144.7459	985.6	109.9
1042.7656	3145.7178	980.45	106.25
1042.8712	3146.689	978.1	104.35
1042.9768	3147.6596	979.65	100.35
1043.0823	3148.6295	980.55	102.05
1043.1878	3149.5989	978.6	100.55
1043.2932	3150.5676	977.5	102.95
1043.3986	3151.5357	973.95	97.85
1043.5039	3152.5032	970.85	97.45
1043.6092	3153.4701	970.9	95.25
1043.7145	3154.4364	974.3	98.1
1043.8197	3155.402	971.85	96.55
1043.9248	3156.367	973.75	96.5
1044.03	3157.3315	1004.5	93.45
1044.135	3158.2952	969.3	93.65
1044.24	3159.2584	967.25	91.95
1044.345	3160.221	969.35	93
1044.4499	3161.1829	965.1	88.25
1044.5548	3162.1442	968.8	92.15
1044.6596	3163.105	964.1	88.7
1044.7644	3164.065	965.5	90.1
1044.8692	3165.0245	969.15	91.3
1044.9739	3165.9834	963.6	91.25
1045.0785	3166.9416	965.1	89.95
1045.1831	3167.8993	967.45	89.85
1045.2877	3168.8563	964	86
1045.3922	3169.8127	961.5	86.15
1045.4966	3170.7684	964	86.5
1045.6011	3171.7236	963.65	87.05
1045.7054	3172.6782	961.55	84.85
1045.8098	3173.6321	961.5	86.95
1045.914	3174.5854	963.9	85.75
1046.0183	3175.5381	960.15	85.7
1046.1224	3176.4902	960.85	85.55
1046.2266	3177.4417	955.55	81.65
1046.3307	3178.3926	955.6	80.25
1046.4347	3179.3428	956.8	82.55
1046.5387	3180.2924	954.8	77.25
1046.6427	3181.2415	956.25	78.9
1046.7466	3182.1899	954.2	76.7
1046.8504	3183.1377	954.2	79.4
1046.9542	3184.0848	959.35	80.75
1047.058	3185.0314	953.5	76.35
1047.1617	3185.9773	954.45	77.9
1047.2654	3186.9227	952.7	75.4
1047.369	3187.8674	951.75	76.6
1047.4726	3188.8115	956.6	77.55
1047.5761	3189.755	951.5	76
1047.6796	3190.6979	950.25	75.4
1047.783	3191.6402	951.2	75.7
1047.8864	3192.5818	950.95	75.5
1047.9898	3193.5229	955.05	72.9
1048.0931	3194.4633	948.7	72.9
1048.1963	3195.4031	946.95	71.95
1048.2995	3196.3423	946.65	72.05
1048.4027	3197.2809	945.85	71
1048.5058	3198.2189	946.05	69.8
1048.6089	3199.1563	962.8	68.7
1048.7119	3200.0931	945.45	71.35
1048.8148	3201.0292	943.95	68.45
1048.9178	3201.9648	945.5	70.35
1049.0206	3202.8997	946.2	68.95
1049.1235	3203.834	943.1	69.1
1049.2262	3204.7677	940.5	65.3
1049.329	3205.7008	942.95	64.5
1049.4317	3206.6333	940.35	65.3
1049.5343	3207.5652	939.9	62.7
1049.6369	3208.4964	942	66.5
1049.7394	3209.4271	938.4	62.8
1049.8419	3210.3571	942.55	69.05
1049.9444	3211.2865	940	63.65
1050.0468	3212.2154	939.85	62.7
1050.1491	3213.1436	942.3	64.5
1050.2514	3214.0712	945.55	61.4
1050.3537	3214.9982	938.7	63.7
1050.4559	3215.9246	936.8	59.5
1050.5581	3216.8503	937.65	63.85
1050.6602	3217.7755	938.9	63.5
1050.7623	3218.7001	934.65	59.75
1050.8643	3219.624	936.2	61.7
1050.9663	3220.5473	936.6	60.7
1051.0682	3221.4701	937.2	59.5
1051.1701	3222.3922	936.35	58.65
1051.2719	3223.3137	931.85	55.1
1051.3737	3224.2346	935.35	59.8
1051.4754	3225.1549	932.75	57.75
1051.5771	3226.0746	933.5	57.7
1051.6788	3226.9937	932.3	55.65
1051.7804	3227.9121	932.8	59.4
1051.8819	3228.83	932.9	57.85
1051.9834	3229.7473	934.05	57.25
1052.0849	3230.6639	935.8	59.15
1052.1863	3231.5799	931.9	56.4
1052.2876	3232.4954	932.1	54.25
1052.3889	3233.4102	929.95	54.85
1052.4902	3234.3244	928.85	52.55
1052.5914	3235.238	932.45	56.9
1052.6926	3236.151	954.75	54.55
1052.7937	3237.0634	928.85	55.5
1052.8948	3237.9752	928.25	54.05
1052.9958	3238.8864	928.65	51.9
1053.0968	3239.797	927.2	51.45
1053.1977	3240.7069	927.25	51.45
1053.2986	3241.6163	931.1	54.35
1053.3994	3242.5251	926.8	53.85
1053.5002	3243.4332	924.25	48.65
1053.6009	3244.3408	927.05	50.4
1053.7016	3245.2477	926.9	52.55
1053.8022	3246.154	925	48.4
1053.9028	3247.0598	925.55	50.5
1054.0034	3247.9649	925.8	49.25
1054.1039	3248.8694	923.75	46.8
1054.2043	3249.7733	924.6	51.15
1054.3047	3250.6766	923.45	46.8
1054.4051	3251.5793	924.55	49.65
1054.5054	3252.4814	920.35	45.85
1054.6056	3253.3829	919.7	44.55
1054.7058	3254.2838	922.2	47.25
1054.806	3255.1841	918.2	43.8
1054.9061	3256.0838	919.45	45.15
1055.0061	3256.9829	917.35	42.95
1055.1062	3257.8814	919.65	41
1055.2061	3258.7792	921.05	44.15
1055.306	3259.6765	918.05	40.9
1055.4059	3260.5731	917.1	41.3
1055.5057	3261.4692	918.05	43.4
1055.6055	3262.3647	918.35	42.75
1055.7052	3263.2595	917.75	42.25
1055.8049	3264.1538	914.55	40.2
1055.9045	3265.0474	914.7	37.55
1056.0041	3265.9404	915.45	39.75
1056.1036	3266.8329	913.1	38.1
1056.2031	3267.7247	923.75	38.1
1056.3025	3268.616	910.55	36.55
1056.4019	3269.5066	910.9	34.2
1056.5013	3270.3966	912.15	34.35
1056.6005	3271.286	906.1	31.7
