Software Version:	3.9.2.0
Unit SN:	10000200
Spectrometer SN:	6960
Date:	3/8/2024 11:16:34 AM
Data Line Index:	25
Spectral Points:	2048
Integration time (ms):	125
Averages:	20
Delay (ms):	30000
Sequence Number:	1
Processing:	dark subtract
Laser Power (mW):	300
Laser Current (mA):	822
Laser Diode Temp (C):	25.1
Laser Case Temp (C):	24.7
System Temp (C):	24.6
Spectrometer Temp (C):	22.5
CCD Temp (C):	0.008
Secondary Temp (C):	20.003
Heatsink Temp (C):	19.459
CCDPCB Temp (C):	32.516
SecondaryPCB Temp (C):	26.191

Wavelength	RamanShift	Raw Counts	Dark Subtracted
787.061	30.1047	420.85	10.05
787.2016	32.3739	419.4	11.15
787.3422	34.6426	420.2	11.2
787.4828	36.9109	424.95	14.35
787.6235	39.1787	429.1	15.4
787.7642	41.4461	432.05	13.6
787.9049	43.7131	438.9	18.6
788.0456	45.9796	441.6	16.3
788.1863	48.2456	446.5	19.35
788.3271	50.5112	453.35	20.25
788.4679	52.7764	455.3	20.45
788.6087	55.0411	459.8	19.55
788.7496	57.3054	466.05	19.5
788.8904	59.5692	468	21.75
789.0313	61.8326	473.15	22.4
789.1722	64.0955	475.3	22.7
789.3132	66.3579	487.05	30.2
789.4541	68.6199	493.3	32.9
789.5951	70.8815	507.35	42.5
789.7361	73.1426	532.65	63.85
789.8771	75.4032	588.55	116.5
790.0181	77.6634	706.65	229.85
790.1592	79.9231	1010.2	530.4
790.3003	82.1824	1609.65	1126
790.4414	84.4412	2588.4	2094.6
790.5825	86.6995	3872.95	3368.8
790.7237	88.9574	5101.35	4586.5
790.8648	91.2148	5947.8	5425.85
791.006	93.4717	6296.25	5769.35
791.1472	95.7282	6368.6	5840.85
791.2885	97.9842	6357.9	5826.85
791.4297	100.2398	6259.35	5726.6
791.571	102.4949	6165.7	5631.1
791.7123	104.7495	6081.95	5541.45
791.8536	107.0036	6005.55	5465
791.9949	109.2573	5878.95	5340.25
792.1363	111.5105	5774.6	5231.6
792.2777	113.7632	5585.1	5040.75
792.4191	116.0154	5423.65	4869.85
792.5605	118.2672	5230.75	4682.6
792.7019	120.5185	5036.9	4487.05
792.8434	122.7693	4844.05	4290.35
792.9849	125.0197	4697.95	4137.65
793.1264	127.2696	4536.95	3976.15
793.2679	129.519	4444.4	3879.5
793.4094	131.7679	4380.65	3813.45
793.551	134.0163	4354.7	3783.7
793.6926	136.2642	4334.75	3763.45
793.8342	138.5117	4329.8	3753.4
793.9758	140.7587	4279.45	3705.7
794.1175	143.0052	4205.8	3627.5
794.2591	145.2512	4118.75	3536.8
794.4008	147.4967	4008.4	3427.8
794.5425	149.7417	3914.6	3330.85
794.6842	151.9863	3852.5	3262.95
794.826	154.2304	3833.3	3241.6
794.9677	156.4739	3802.85	3205.6
795.1095	158.717	3836.5	3238.05
795.2513	160.9596	3883.85	3280.7
795.3931	163.2017	3944	3340.35
795.535	165.4433	3982.9	3373.45
795.6768	167.6844	3985.75	3376.05
795.8187	169.925	3942.85	3327.9
795.9606	172.1651	3837.95	3222.75
796.1025	174.4047	3755.3	3136.7
796.2445	176.6439	3664	3044.55
796.3864	178.8825	3600	2975.1
796.5284	181.1206	3568.75	2940.65
796.6704	183.3582	3549.1	2916.55
796.8124	185.5954	3533.6	2901.05
796.9544	187.832	3523.65	2886.15
797.0965	190.0681	3526.85	2886.35
797.2386	192.3037	3540.25	2897.35
797.3806	194.5388	3565	2920.85
797.5228	196.7734	3563.95	2918.45
797.6649	199.0075	3606.15	2956.1
797.807	201.2411	3635.95	2987.5
797.9492	203.4742	3674.9	3023.5
798.0914	205.7068	3717.45	3064.1
798.2336	207.9389	3766.25	3109.75
798.3758	210.1704	3778.3	3124.75
798.518	212.4015	3775.25	3131.6
798.6603	214.632	3800.3	3164.75
798.8025	216.862	3799.05	3166.85
798.9448	219.0915	3815.6	3179.3
799.0871	221.3205	3837.5	3199.7
799.2294	223.549	3860.35	3225.45
799.3718	225.777	3868.5	3232.1
799.5141	228.0044	3849.55	3207.7
799.6565	230.2314	3858.1	3213.9
799.7989	232.4578	3811.1	3163.75
799.9413	234.6837	3786.6	3128.95
800.0837	236.909	3782.95	3123.5
800.2262	239.1339	3773.1	3090.3
800.3687	241.3582	3743.6	3074.05
800.5111	243.582	3746.95	3045.45
800.6536	245.8053	3763.8	3078.05
800.7961	248.0281	3768.15	3086.65
800.9387	250.2503	3784.15	3100.15
801.0812	252.472	3784	3095.6
801.2238	254.6932	3795.7	3111.15
801.3664	256.9139	3802.65	3113.55
801.509	259.134	3844.85	3153.35
801.6516	261.3536	3864.25	3176.6
801.7942	263.5727	3950.15	3258.65
801.9369	265.7912	4016.7	3324.6
802.0795	268.0092	4126	3435.7
802.2222	270.2267	4238.3	3546.05
802.3649	272.4436	4335.4	3642.05
802.5076	274.6601	4415.45	3709.8
802.6504	276.8759	4450	3750.8
802.7931	279.0913	4490.55	3789.4
802.9359	281.3061	4533.95	3829.15
803.0787	283.5204	4571.25	3865.75
803.2215	285.7341	4628.15	3918.2
803.3643	287.9473	4679.55	3970.25
803.5071	290.16	4657.25	3946.8
803.6499	292.3721	4591.3	3886.45
803.7928	294.5837	4495.7	3790.25
803.9357	296.7947	4431.6	3723.3
804.0786	299.0052	4418.7	3710.4
804.2215	301.2152	4371.65	3659.95
804.3644	303.4246	4349.95	3641.8
804.5074	305.6334	4326.15	3615.9
804.6503	307.8418	4296.4	3582.7
804.7933	310.0495	4245.65	3531.8
804.9363	312.2568	4202.75	3488.05
805.0793	314.4635	4128.05	3410.05
805.2223	316.6696	4032.2	3312.55
805.3653	318.8752	3939.2	3210.9
805.5084	321.0802	3862.6	3140.3
805.6514	323.2847	3857.7	3132.5
805.7945	325.4887	3856	3134.15
805.9376	327.692	3883.4	3158.85
806.0807	329.8949	3971.2	3243.7
806.2238	332.0972	4051.05	3322.75
806.367	334.2989	4125.5	3394.6
806.5101	336.5001	4152.7	3422.7
806.6533	338.7007	4092.35	3359.5
806.7965	340.9008	4000	3267.3
806.9397	343.1003	3894.45	3157.95
807.0829	345.2992	3781.95	3046.45
807.2261	347.4976	3695.45	2956.5
807.3693	349.6955	3624.7	2883.6
807.5126	351.8927	3592.25	2848.25
807.6559	354.0895	3552.8	2797.8
807.7991	356.2856	3532.8	2791.2
807.9424	358.4812	3498.35	2754.8
808.0857	360.6763	3494.9	2749.15
808.2291	362.8707	3493.6	2745.5
808.3724	365.0646	3490.45	2738.5
808.5158	367.258	3511.2	2757
808.6591	369.4508	3550.1	2790.7
808.8025	371.643	3598.45	2841.7
808.9459	373.8346	3639.85	2881
809.0893	376.0257	3721.15	2956.95
809.2327	378.2162	3763.75	3000.4
809.3762	380.4062	3801.05	3036.75
809.5196	382.5956	3774.1	3014.15
809.6631	384.7844	3701	2947.85
809.8066	386.9726	3588.1	2834.35
809.9501	389.1603	3532.2	2780.15
810.0936	391.3474	3528.2	2733.65
810.2371	393.5339	3494.65	2738.6
810.3806	395.7199	3505.6	2752.15
810.5241	397.9052	3558.5	2807.85
810.6677	400.09	3643.7	2887.65
810.8113	402.2743	3736.45	2979.2
810.9548	404.4579	3816.8	3058.8
811.0984	406.641	3884.45	3124.25
811.2421	408.8235	3963.1	3201.35
811.3857	411.0054	4039.15	3276.4
811.5293	413.1868	4112.4	3347.2
811.673	415.3675	4134.85	3364.85
811.8166	417.5477	4131.7	3360.1
811.9603	419.7273	4084.7	3311.65
812.104	421.9064	3982.9	3201.25
812.2477	424.0848	3884.65	3109.2
812.3914	426.2627	3753.5	2975.85
812.5351	428.4399	3630.6	2853.35
812.6788	430.6166	3530.2	2752
812.8226	432.7928	3429.15	2645.8
812.9663	434.9683	3368.95	2585.85
813.1101	437.1432	3323.8	2538.25
813.2539	439.3176	3287.7	2505.3
813.3977	441.4914	3250.95	2468.85
813.5415	443.6645	3243.55	2460.7
813.6853	445.8371	3233.2	2450.1
813.8291	448.0091	3230.5	2444.35
813.973	450.1806	3235.05	2451.25
814.1168	452.3514	3223.9	2436.75
814.2607	454.5216	3229.4	2433.55
814.4046	456.6913	3237.25	2448
814.5485	458.8603	3248.85	2463.3
814.6924	461.0288	3259.85	2473.3
814.8363	463.1967	3250.6	2464.1
814.9802	465.3639	3258.4	2467.9
815.1241	467.5306	3234.25	2444.2
815.2681	469.6967	3213.45	2424.35
815.412	471.8622	3215.2	2425.7
815.556	474.0271	3205.75	2417.55
815.7	476.1914	3208	2414.9
815.844	478.3551	3185.1	2392.7
815.988	480.5182	3187.6	2394.9
816.132	482.6807	3186.3	2393.75
816.276	484.8426	3226.6	2435.9
816.4201	487.0039	3301.3	2507.95
816.5641	489.1647	3430	2633.75
816.7082	491.3248	3519.15	2726.15
816.8522	493.4843	3542.85	2748.5
816.9963	495.6432	3512.25	2717.65
817.1404	497.8015	3461.15	2664.25
817.2845	499.9592	3381.05	2580.2
817.4286	502.1163	3274.4	2474.6
817.5727	504.2728	3178.6	2376.85
817.7168	506.4287	3133.1	2336.95
817.861	508.5839	3108.2	2308.25
818.0051	510.7386	3082.35	2281.15
818.1493	512.8927	3089.25	2279.3
818.2935	515.0461	3108.1	2306.7
818.4377	517.199	3142.5	2338.85
818.5818	519.3512	3225.1	2418.95
818.726	521.5029	3355.95	2546.5
818.8703	523.6539	3478.6	2673.15
819.0145	525.8043	3503.95	2695.15
819.1587	527.9541	3398	2587.2
819.303	530.1033	3257.35	2450.4
819.4472	532.2519	3162.2	2353.45
819.5915	534.3999	3107.25	2296.95
819.7357	536.5472	3090.15	2278.9
819.88	538.694	3090.35	2281.1
820.0243	540.8401	3112.1	2300.2
820.1686	542.9856	3156.65	2340.95
820.3129	545.1305	3184.35	2372.1
820.4572	547.2748	3216.7	2401.75
820.6016	549.4185	3224.4	2407.85
820.7459	551.5615	3236.8	2420.4
820.8902	553.704	3262.5	2448.85
821.0346	555.8458	3289.15	2474.05
821.1789	557.987	3332.2	2520.3
821.3233	560.1276	3392.85	2577.5
821.4677	562.2675	3533.65	2720.1
821.6121	564.4069	3667.4	2852.8
821.7565	566.5456	3768.65	2954.6
821.9009	568.6837	3728.75	2915.2
822.0453	570.8212	3558.4	2744.3
822.1897	572.958	3352.8	2537.05
822.3342	575.0942	3245.65	2430.7
822.4786	577.2299	3175.05	2358.55
822.6231	579.3648	3127.95	2311.3
822.7675	581.4992	3095	2277
822.912	583.6329	3113.9	2298.65
823.0565	585.766	3180.2	2362.8
823.201	587.8985	3260.1	2442.85
823.3454	590.0304	3359.95	2527.45
823.4899	592.1616	3440.55	2619
823.6345	594.2922	3454.1	2630.3
823.779	596.4222	3401.35	2578.4
823.9235	598.5515	3272.35	2448.25
824.068	600.6802	3150.65	2329.05
824.2126	602.8083	3062.7	2238.9
824.3571	604.9358	3030.7	2206.35
824.5017	607.0626	3011.65	2187.8
824.6462	609.1888	3024.3	2197.4
824.7908	611.3144	3076.1	2247.6
824.9354	613.4393	3155.75	2332.95
825.08	615.5636	3254.2	2429.1
825.2246	617.6873	3355.3	2529.05
825.3692	619.8103	3436.55	2605.85
825.5138	621.9327	3458.35	2630.4
825.6584	624.0544	3371.25	2544.8
825.803	626.1756	3258.15	2430.7
825.9477	628.2961	3132.15	2302.25
826.0923	630.4159	3084.15	2253.7
826.237	632.5351	3067.8	2237.65
826.3816	634.6537	3051.15	2220.55
826.5263	636.7716	3046.55	2212.3
826.6709	638.8889	3025.65	2193.05
826.8156	641.0056	3024.5	2193.3
826.9603	643.1216	3067.8	2234.7
827.105	645.237	3092.5	2257.3
827.2497	647.3518	3034.95	2202.05
827.3944	649.4659	2989.25	2157.25
827.5391	651.5793	2929.35	2098.75
827.6838	653.6922	2914.85	2084.5
827.8285	655.8043	2886.75	2053.25
827.9733	657.9159	2872.05	2038.3
828.118	660.0268	2842.75	2007
828.2627	662.137	2842.85	2007.5
828.4075	664.2466	2848	2011.6
828.5522	666.3556	2836.5	1999.65
828.697	668.4639	2820.3	1981.9
828.8418	670.5716	2818.45	1983.55
828.9865	672.6786	2796.55	1959.15
829.1313	674.785	2799.25	1958.65
829.2761	676.8907	2776.2	1937.7
829.4209	678.9958	2780.05	1945
829.5657	681.1002	2783.25	1943.6
829.7105	683.204	2795.85	1953.5
829.8553	685.3072	2777.8	1936.55
830.0001	687.4097	2772.2	1934.05
830.1449	689.5115	2779.25	1936.75
830.2898	691.6127	2778.15	1938.3
830.4346	693.7132	2762.35	1920.35
830.5794	695.8131	2786.25	1931.35
830.7243	697.9123	2771.05	1928.35
830.8691	700.0109	2783.4	1939
831.014	702.1089	2793.05	1949.95
831.1588	704.2061	2828.3	1985.4
831.3037	706.3028	2864.9	2019.95
831.4486	708.3987	2935.45	2092.45
831.5935	710.4941	2945.35	2101.6
831.7383	712.5887	2972.65	2128.6
831.8832	714.6827	2960.65	2112.65
832.0281	716.7761	2936.6	2092.25
832.173	718.8688	2919	2074.1
832.3179	720.9608	2922.5	2073.55
832.4628	723.0522	2947.15	2096.35
832.6077	725.1429	2963.45	2117.35
832.7527	727.233	3046.2	2199.8
832.8976	729.3224	3171.6	2325.45
833.0425	731.4112	3278.8	2432.6
833.1874	733.4993	3339.75	2491.55
833.3324	735.5867	3241.8	2394.55
833.4773	737.6735	3094.05	2245.3
833.6222	739.7596	2961.65	2111.55
833.7672	741.845	2879.45	2030.55
833.9122	743.9298	2862.25	2012.45
834.0571	746.014	2854.1	2006.5
834.2021	748.0974	2858.75	2009.05
834.347	750.1802	2859.35	2009.55
834.492	752.2624	2852.05	2001.7
834.637	754.3439	2835.65	1982.3
834.782	756.4247	2851.3	1991.5
834.9269	758.5048	2860.05	2007.85
835.0719	760.5843	2894.95	2042.7
835.2169	762.6631	2956.7	2104.15
835.3619	764.7413	3069.5	2219.65
835.5069	766.8188	3245.65	2390.55
835.6519	768.8956	3415.85	2561.15
835.7969	770.9718	3542.15	2690.05
835.9419	773.0473	3526.35	2673.5
836.0869	775.1221	3442.55	2589.75
836.232	777.1962	3412.8	2559.75
836.377	779.2697	3522.45	2667
836.522	781.3426	3752	2881.9
836.667	783.4147	3911.8	3057.85
836.8121	785.4862	3908.85	3055.2
836.9571	787.557	3749.5	2896.9
837.1021	789.6271	3481.6	2624.4
837.2472	791.6966	3211.65	2357.8
837.3922	793.7654	3006.95	2150.35
837.5373	795.8335	2879.1	2024.9
837.6823	797.901	2810.8	1953.2
837.8274	799.9678	2773.7	1915.8
837.9724	802.0339	2773.25	1917.95
838.1175	804.0993	2811.35	1944
838.2626	806.1641	2799.05	1939.45
838.4076	808.2282	2766.8	1909.35
838.5527	810.2916	2731.3	1870.85
838.6978	812.3544	2686.9	1830.55
838.8428	814.4164	2664.15	1807.8
838.9879	816.4778	2678.85	1819.4
839.133	818.5385	2711.35	1852.65
839.2781	820.5986	2777.8	1921.25
839.4232	822.658	2878.4	2018.65
839.5682	824.7166	3015.75	2158.45
839.7133	826.7747	3166.9	2308.5
839.8584	828.832	3353.3	2495.2
840.0035	830.8886	3465.2	2604.2
840.1486	832.9446	3533.9	2671.3
840.2937	834.9999	3487.6	2626.55
840.4388	837.0545	3361.2	2498.85
840.5839	839.1085	3159.6	2299
840.729	841.1618	3018.7	2154.6
840.8741	843.2143	2894.4	2033.95
841.0192	845.2662	2813.55	1952.6
841.1643	847.3175	2764.45	1905
841.3095	849.368	2748.9	1887.35
841.4546	851.4179	2749.85	1886.45
841.5997	853.467	2747.4	1886.8
841.7448	855.5155	2748.6	1887.25
841.8899	857.5633	2773.45	1911.9
842.0351	859.6105	2756.2	1894.45
842.1802	861.6569	2731.45	1869.4
842.3253	863.7027	2714.3	1850.7
842.4704	865.7478	2692.65	1833
842.6156	867.7922	2651.55	1787.8
842.7607	869.8359	2644.85	1782.5
842.9058	871.8789	2626.3	1760.95
843.0509	873.9212	2653.15	1757.4
843.1961	875.9629	2641	1774.9
843.3412	878.0039	2656.1	1791
843.4863	880.0441	2691.9	1827.15
843.6315	882.0837	2729.4	1864.45
843.7766	884.1226	2771.8	1906.5
843.9218	886.1609	2850.3	1988.2
844.0669	888.1984	2945.55	2081.95
844.212	890.2352	3043.05	2181.35
844.3572	892.2714	3086.15	2216.45
844.5023	894.3069	3026.5	2161.1
844.6475	896.3416	2916.85	2050.7
844.7926	898.3757	2822.55	1957.3
844.9377	900.4091	2766.7	1901.6
845.0829	902.4418	2786.55	1916.45
845.228	904.4739	2831.7	1963.45
845.3732	906.5052	2857.2	1991.1
845.5183	908.5358	2865.9	2000.3
845.6635	910.5658	2828.15	1960.55
845.8086	912.595	2756.25	1890.4
845.9538	914.6236	2682.1	1816.25
846.0989	916.6515	2616.6	1751.75
846.2441	918.6786	2585.5	1716.8
846.3892	920.7051	2568	1698.8
846.5344	922.7309	2564.6	1697.4
846.6795	924.756	2561.35	1693.8
846.8246	926.7804	2585.85	1716.95
846.9698	928.8041	2587.5	1717
847.1149	930.8272	2642.2	1775
847.2601	932.8495	2658.05	1789.85
847.4052	934.8711	2676.6	1808.45
847.5504	936.892	2682.5	1815.2
847.6955	938.9123	2722.55	1851.7
847.8407	940.9318	2778.2	1908.05
847.9858	942.9506	2833.3	1963.9
848.131	944.9688	2805.8	1938.8
848.2761	946.9862	2762.35	1892.7
848.4213	949.003	2687.55	1818.6
848.5664	951.019	2638.55	1769.05
848.7115	953.0344	2615.7	1747.15
848.8567	955.0491	2571.8	1700.65
849.0018	957.063	2568.3	1698.6
849.147	959.0763	2556.35	1685.3
849.2921	961.0888	2538.65	1666.5
849.4373	963.1007	2527.85	1657.6
849.5824	965.1119	2520.4	1649.45
849.7275	967.1223	2514.05	1645.65
849.8727	969.1321	2505.05	1635.95
850.0178	971.1412	2504.7	1634.15
850.1629	973.1495	2490.8	1620.15
850.3081	975.1572	2516.1	1614.45
850.4532	977.1641	2500.3	1631.05
850.5983	979.1704	2503.8	1632.55
850.7435	981.1759	2488.95	1612.35
850.8886	983.1808	2482.2	1610.15
851.0337	985.1849	2467.4	1584.7
851.1788	987.1884	2456.45	1584.7
851.324	989.1911	2456.6	1579.75
851.4691	991.1932	2476.2	1604.8
851.6142	993.1945	2493.8	1624.2
851.7593	995.1951	2494.15	1621
851.9045	997.1951	2483.85	1605.85
852.0496	999.1943	2463	1591.35
852.1947	1001.1928	2474.25	1600.35
852.3398	1003.1906	2494.45	1621.2
852.4849	1005.1877	2553.55	1678.75
852.63	1007.1841	2595.95	1721.9
852.7751	1009.1798	2623.15	1751.3
852.9202	1011.1748	2615.9	1743.15
853.0653	1013.1691	2568.85	1695.2
853.2104	1015.1627	2508.65	1635.25
853.3555	1017.1556	2443	1572.05
853.5006	1019.1477	2406.6	1533.15
853.6457	1021.1392	2360.2	1488.8
853.7908	1023.1299	2351.15	1477.85
853.9359	1025.12	2343.9	1470.65
854.081	1027.1093	2352.3	1482.2
854.2261	1029.0979	2407.55	1538.85
854.3712	1031.0859	2443.9	1573.5
854.5163	1033.0731	2481.45	1610.8
854.6613	1035.0596	2472.15	1598.2
854.8064	1037.0454	2467.5	1595.3
854.9515	1039.0304	2448.8	1573.4
855.0965	1041.0148	2407.1	1533.95
855.2416	1042.9985	2370.75	1493.9
855.3867	1044.9814	2338.2	1464.75
855.5317	1046.9636	2327.85	1449.75
855.6768	1048.9452	2338.5	1464.4
855.8219	1050.926	2385.65	1511.45
855.9669	1052.9061	2410	1537
856.112	1054.8855	2432.7	1557.85
856.257	1056.8642	2435.25	1558.35
856.4021	1058.8421	2422.95	1544.25
856.5471	1060.8194	2419.25	1543.95
856.6921	1062.7959	2402.95	1527.4
856.8372	1064.7717	2414.05	1537.05
856.9822	1066.7469	2409.6	1532.7
857.1272	1068.7213	2405.5	1525.65
857.2723	1070.695	2435.1	1560.25
857.4173	1072.6679	2485.7	1608.95
857.5623	1074.6402	2537.6	1661.75
857.7073	1076.6117	2570.4	1687.8
857.8523	1078.5826	2534.3	1658.25
857.9973	1080.5527	2453.85	1575.8
858.1423	1082.5221	2382.9	1507.2
858.2873	1084.4908	2334.05	1456.55
858.4323	1086.4587	2285.65	1407.7
858.5773	1088.426	2259.8	1382.15
858.7223	1090.3925	2263.4	1383.8
858.8673	1092.3584	2275.75	1399.35
859.0123	1094.3235	2294.5	1420.4
859.1573	1096.2879	2336.7	1460.1
859.3022	1098.2515	2388.35	1514.55
859.4472	1100.2145	2419.9	1544.7
859.5922	1102.1767	2484.55	1606
859.7371	1104.1382	2582.95	1705.45
859.8821	1106.099	2693.6	1813.95
860.027	1108.0591	2786.85	1910.9
860.172	1110.0185	2864.1	1986.85
860.3169	1111.9771	2948.2	2070.8
860.4619	1113.9351	3027.1	2150.05
860.6068	1115.8923	3192.35	2311.15
860.7517	1117.8488	3270.6	2392.7
860.8967	1119.8045	3201.4	2323.2
861.0416	1121.7596	2997.55	2119.65
861.1865	1123.7139	2780.2	1902.75
861.3314	1125.6675	2644.7	1766.55
861.4763	1127.6204	2633.1	1754.45
861.6212	1129.5726	2664.4	1784.4
861.7661	1131.524	2687.7	1808.9
861.911	1133.4748	2622.15	1742.55
862.0559	1135.4248	2492.15	1613.15
862.2008	1137.3741	2392.75	1514.35
862.3457	1139.3226	2313.2	1434.35
862.4905	1141.2705	2311.05	1431.7
862.6354	1143.2176	2334.4	1449.85
862.7803	1145.164	2373.05	1494.2
862.9251	1147.1097	2364.65	1484.7
863.07	1149.0546	2330.2	1449.85
863.2148	1150.9989	2274.25	1397.5
863.3597	1152.9424	2237.75	1358.2
863.5045	1154.8852	2203.8	1324.4
863.6493	1156.8272	2179.9	1304.05
863.7942	1158.7686	2187.55	1301.45
863.939	1160.7092	2182.3	1302.45
864.0838	1162.6491	2194.4	1312.3
864.2286	1164.5883	2210.45	1331.35
864.3734	1166.5267	2242.95	1361
864.5182	1168.4644	2291.65	1411.35
864.663	1170.4014	2351.75	1466.85
864.8078	1172.3377	2425.4	1548.75
864.9526	1174.2732	2534.4	1656.75
865.0974	1176.2081	2683.7	1805.9
865.2421	1178.1421	2941.65	2060.4
865.3869	1180.0755	3206.45	2328.65
865.5317	1182.0082	3383.5	2505.15
865.6764	1183.9401	3387.25	2506.4
865.8212	1185.8713	3219.6	2342.3
865.9659	1187.8017	2948.6	2070
866.1106	1189.7315	2695.9	1821
866.2554	1191.6605	2538.55	1633.45
866.4001	1193.5888	2413.05	1534.75
866.5448	1195.5163	2362.6	1482.65
866.6895	1197.4432	2313.25	1431.75
866.8342	1199.3693	2269.7	1391.1
866.9789	1201.2947	2246	1360.75
867.1236	1203.2193	2214	1334.1
867.2683	1205.1432	2208.55	1327.5
867.413	1207.0664	2201.95	1322.4
867.5576	1208.9889	2204.05	1321.65
867.7023	1210.9106	2199.35	1317.95
867.847	1212.8316	2210.2	1330.4
867.9916	1214.7519	2247.1	1356.85
868.1363	1216.6715	2251.45	1372.2
868.2809	1218.5903	2273.9	1393.3
868.4255	1220.5084	2312.7	1432
868.5701	1222.4257	2339.75	1458.55
868.7148	1224.3424	2352.4	1472.75
868.8594	1226.2583	2404.8	1519.95
869.004	1228.1735	2447.4	1567
869.1486	1230.0879	2526.8	1644
869.2932	1232.0016	2605.75	1723.45
869.4377	1233.9146	2683.5	1799.25
869.5823	1235.8269	2710.15	1831.35
869.7269	1237.7384	2718.2	1835.5
869.8715	1239.6492	2710.3	1831.85
870.016	1241.5592	2739.85	1858.2
870.1606	1243.4686	2808.4	1926.95
870.3051	1245.3772	2956.35	2074.95
870.4496	1247.285	3141.8	2261.15
870.5941	1249.1922	3298.95	2419
870.7387	1251.0986	3454.75	2575.5
870.8832	1253.0042	3591.25	2709.1
871.0277	1254.9092	3768.1	2885.45
871.1722	1256.8134	3976.2	3095.2
871.3167	1258.7169	4174.95	3291.55
871.4611	1260.6196	4299.2	3420.55
871.6056	1262.5216	4411.85	3529.05
871.7501	1264.4229	4409.5	3528.8
871.8945	1266.3234	4332.25	3451.35
872.039	1268.2232	4211.3	3329.1
872.1834	1270.1223	4098.65	3216.5
872.3278	1272.0207	4030.1	3146.35
872.4723	1273.9183	3985.15	3099.4
872.6167	1275.8151	3945.95	3063
872.7611	1277.7113	4018.85	3136.1
872.9055	1279.6067	4173.8	3292.75
873.0499	1281.5014	4454.5	3569.1
873.1943	1283.3953	4852.8	3968.65
873.3386	1285.2885	5282.05	4401.7
873.483	1287.181	5622.85	4738.8
873.6274	1289.0727	5801.55	4919.8
873.7717	1290.9637	5696.9	4813.5
873.9161	1292.854	5468	4584.65
874.0604	1294.7435	5159.9	4276.95
874.2047	1296.6323	4881.95	4000.65
874.349	1298.5204	4642.35	3756.1
874.4933	1300.4077	4454.9	3572
874.6376	1302.2943	4335.05	3452.7
874.7819	1304.1802	4262.55	3381.55
874.9262	1306.0653	4169.05	3286.05
875.0705	1307.9497	4106.9	3223.9
875.2147	1309.8333	4051.35	3169.55
875.359	1311.7162	3996.65	3112.5
875.5032	1313.5984	3930.6	3042.9
875.6475	1315.4798	3896.05	3000.6
875.7917	1317.3605	3916.25	3018.85
875.9359	1319.2405	3951.8	3068.05
876.0801	1321.1197	3946.45	3060.5
876.2243	1322.9982	3879.45	2992.5
876.3685	1324.876	3761.6	2877.75
876.5127	1326.753	3580.35	2697.05
876.6569	1328.6293	3361.05	2475.35
876.801	1330.5048	3179.85	2296
876.9452	1332.3796	2979.95	2098.35
877.0893	1334.2537	2870.95	1962.35
877.2335	1336.127	2743.35	1858.4
877.3776	1337.9996	2677.6	1793.15
877.5217	1339.8714	2633.4	1752.35
877.6658	1341.7426	2618.9	1692.75
877.8099	1343.6129	2561.7	1677.25
877.954	1345.4826	2519.35	1636.4
878.0981	1347.3515	2487.85	1602.55
878.2422	1349.2196	2453.55	1567.7
878.3862	1351.087	2429.1	1544.5
878.5303	1352.9537	2421.45	1537.35
878.6743	1354.8197	2431.05	1546.95
878.8184	1356.6849	2442.05	1559.15
878.9624	1358.5493	2477.6	1594.4
879.1064	1360.4131	2521.65	1640.1
879.2504	1362.276	2599.5	1718.55
879.3944	1364.1383	2682.85	1800.15
879.5384	1365.9998	2724.7	1834.75
879.6823	1367.8606	2702.65	1820
879.8263	1369.7206	2693.95	1811.25
879.9702	1371.5799	2694.4	1809.2
880.1142	1373.4384	2680.35	1797.15
880.2581	1375.2962	2621.6	1735.8
880.402	1377.1533	2536.6	1654.35
880.5459	1379.0096	2428.1	1543.3
880.6898	1380.8652	2364.65	1481.75
880.8337	1382.7201	2297.3	1412
880.9776	1384.5742	2248.2	1362.35
881.1215	1386.4275	2192.3	1307.6
881.2653	1388.2802	2162.05	1278.7
881.4092	1390.132	2125.45	1243.2
881.553	1391.9832	2114.6	1227.45
881.6968	1393.8336	2109.25	1224
881.8406	1395.6832	2099.25	1215.7
881.9844	1397.5322	2084.05	1198.75
882.1282	1399.3803	2064.25	1176.15
882.272	1401.2278	2032.75	1146.9
882.4158	1403.0745	2028	1145.05
882.5595	1404.9204	2011.75	1128.4
882.7033	1406.7656	1992.95	1109.1
882.847	1408.6101	1983.15	1098.5
882.9908	1410.4538	1977.5	1092
883.1345	1412.2968	1974.7	1091.65
883.2782	1414.139	1988.9	1103.55
883.4219	1415.9805	1993.15	1110.2
883.5656	1417.8213	2023.3	1132.6
883.7092	1419.6613	2060.25	1175.15
883.8529	1421.5006	2124.55	1239.45
883.9965	1423.3391	2188.1	1301.6
884.1402	1425.1769	2299.75	1414.2
884.2838	1427.0139	2462.65	1578
884.4274	1428.8502	2638.1	1752.25
884.571	1430.6858	2792	1906.4
884.7146	1432.5206	2849.85	1964.2
884.8582	1434.3547	2848.1	1964.8
885.0018	1436.188	2813.9	1927.45
885.1453	1438.0206	2774.25	1890.1
885.2889	1439.8524	2750.3	1866.2
885.4324	1441.6835	2750.75	1866.4
885.5759	1443.5139	2750.1	1862.7
885.7194	1445.3435	2767.3	1883.3
885.8629	1447.1724	2767.9	1884.3
886.0064	1449.0005	2755.75	1871.5
886.1499	1450.8279	2746.25	1861.15
886.2933	1452.6545	2733.25	1848.4
886.4368	1454.4804	2730.9	1846.95
886.5802	1456.3056	2702.05	1811.05
886.7237	1458.13	2680.5	1796.05
886.8671	1459.9536	2627.75	1742.1
887.0105	1461.7766	2556.65	1672.9
887.1539	1463.5987	2475.75	1588.6
887.2972	1465.4202	2389.35	1505.3
887.4406	1467.2409	2309.4	1423.85
887.584	1469.0608	2246.85	1364.7
887.7273	1470.88	2186.3	1300.85
887.8706	1472.6984	2115.3	1230.6
888.0139	1474.5161	2061.2	1173.1
888.1572	1476.3331	2029.2	1146.2
888.3005	1478.1493	2021.35	1136.05
888.4438	1479.9648	1999.2	1113.85
888.5871	1481.7795	2005.25	1120.55
888.7303	1483.5935	2002.9	1118.25
888.8736	1485.4067	2000.65	1116.2
889.0168	1487.2192	2008.85	1124.15
889.16	1489.031	2021.3	1133.5
889.3032	1490.842	2009.95	1125.6
889.4464	1492.6522	2016	1131.4
889.5896	1494.4618	2007.4	1123
889.7327	1496.2705	2002.65	1119.2
889.8759	1498.0785	1994.9	1108.85
890.019	1499.8858	1991.4	1106.95
890.1622	1501.6924	1972.1	1088.1
890.3053	1503.4981	1952.6	1069.2
890.4484	1505.3032	1948.65	1064.3
890.5914	1507.1075	1933.95	1050.1
890.7345	1508.911	1928.55	1044.9
890.8776	1510.7138	1917.55	1031.85
891.0206	1512.5159	1899.2	1015.75
891.1637	1514.3172	1882.55	998
891.3067	1516.1178	1862.4	979
891.4497	1517.9176	1867.45	981.2
891.5927	1519.7166	1856.95	973.4
891.7357	1521.515	1849	956.3
891.8786	1523.3126	1835.3	950.8
892.0216	1525.1094	1832.45	945.15
892.1645	1526.9055	1818.4	936.4
892.3074	1528.7008	1800.25	916.9
892.4503	1530.4954	1811.15	921.05
892.5932	1532.2893	1795.05	910.75
892.7361	1534.0824	1799.2	909.05
892.879	1535.8747	1786.55	903.25
893.0218	1537.6663	1793.65	909.8
893.1647	1539.4572	1789.9	904.05
893.3075	1541.2473	1793.7	908.45
893.4503	1543.0367	1790.85	907.25
893.5931	1544.8253	1800.35	913.65
893.7359	1546.6132	1806.55	921.45
893.8787	1548.4003	1823.05	930
894.0214	1550.1867	1832.05	939.1
894.1642	1551.9723	1844.1	953.15
894.3069	1553.7572	1874.9	990.4
894.4496	1555.5414	1912.15	1028.25
894.5923	1557.3247	1970.05	1085.55
894.735	1559.1074	2025.5	1142.7
894.8777	1560.8893	2115.05	1232.1
895.0204	1562.6705	2208	1324.45
895.163	1564.4509	2263.05	1383.2
895.3056	1566.2305	2291.9	1408.85
895.4482	1568.0094	2316.65	1434.6
895.5908	1569.7876	2310.85	1428.15
895.7334	1571.565	2304.2	1419.3
895.876	1573.3417	2303.5	1421.45
896.0186	1575.1176	2318.35	1434.9
896.1611	1576.8928	2334.75	1451.05
896.3036	1578.6672	2389.15	1505.45
896.4461	1580.4409	2448.5	1566.5
896.5886	1582.2138	2525.2	1638.95
896.7311	1583.986	2620.65	1736.4
896.8736	1585.7575	2713.9	1832.25
897.0161	1587.5282	2788.1	1906.3
897.1585	1589.2981	2862.65	1980.9
897.3009	1591.0673	2886	2003.1
897.4433	1592.8358	2897.95	2014.2
897.5857	1594.6035	2895.1	2008.1
897.7281	1596.3704	2864.45	1980.95
897.8705	1598.1366	2816.1	1932.9
898.0128	1599.9021	2779.3	1897.5
898.1551	1601.6668	2722	1838.75
898.2975	1603.4308	2674.95	1790.4
898.4398	1605.194	2669.45	1784.2
898.5821	1606.9564	2705.65	1822.95
898.7243	1608.7182	2818.3	1931.3
898.8666	1610.4791	2993.9	2110.55
899.0088	1612.2394	3198.95	2319.5
899.1511	1613.9988	3439.95	2558.55
899.2933	1615.7576	3645.9	2765.8
899.4355	1617.5156	3769.45	2880
899.5776	1619.2728	3731.15	2847.65
899.7198	1621.0293	3577.35	2694.6
899.862	1622.785	3335.3	2447.7
900.0041	1624.54	3054.65	2169.25
900.1462	1626.2942	2795.7	1913.5
900.2883	1628.0477	2562.4	1676.35
900.4304	1629.8005	2365.3	1479.35
900.5725	1631.5525	2218.3	1336.5
900.7145	1633.3037	2105.6	1222.3
900.8566	1635.0542	2009.05	1127.55
900.9986	1636.804	1931	1048.3
901.1406	1638.553	1939.45	994.7
901.2826	1640.3013	1842.2	960.05
901.4245	1642.0488	1791.4	907.25
901.5665	1643.7955	1758.3	876.7
901.7085	1645.5416	1743.55	862.2
901.8504	1647.2868	1723.15	840.95
901.9923	1649.0313	1701	819.05
902.1342	1650.7751	1689.25	804.1
902.2761	1652.5181	1680.85	797.9
902.4179	1654.2604	1675.9	792.6
902.5598	1656.0019	1680.35	799.15
902.7016	1657.7427	1706.7	823.8
902.8434	1659.4828	1747.6	864.4
902.9852	1661.222	1811.6	928.8
903.127	1662.9606	1887.1	1006.5
903.2687	1664.6984	1961.4	1077.95
903.4105	1666.4354	1996.4	1114.55
903.5522	1668.1717	1984.2	1102.05
903.6939	1669.9072	1900	1016.95
903.8356	1671.642	1809.3	923.45
903.9773	1673.3761	1713	830.9
904.119	1675.1094	1639.15	755.7
904.2606	1676.8419	1591.2	708.4
904.4022	1678.5737	1558.1	675.65
904.5439	1680.3048	1536.85	652.55
904.6855	1682.0351	1522.65	639.6
904.827	1683.7646	1505.35	618.4
904.9686	1685.4934	1490.2	606.8
905.1101	1687.2215	1479.85	596.05
905.2517	1688.9488	1479.4	596.85
905.3932	1690.6754	1470.2	587.15
905.5347	1692.4012	1466.7	582.35
905.6761	1694.1263	1463.95	581
905.8176	1695.8506	1454.35	573.1
905.9591	1697.5742	1453.2	571.65
906.1005	1699.297	1450.85	568.6
906.2419	1701.0191	1441.05	559
906.3833	1702.7404	1434.65	552.2
906.5246	1704.461	1428.5	544.8
906.666	1706.1808	1430	544.9
906.8073	1707.8999	1425.15	541.65
906.9487	1709.6182	1420	539.3
907.09	1711.3358	1415.2	535.55
907.2313	1713.0527	1402.3	522.25
907.3725	1714.7688	1413.6	526.05
907.5138	1716.4841	1413.15	527.3
907.655	1718.1987	1409.15	518.8
907.7962	1719.9126	1394.4	512.5
907.9374	1721.6257	1402.55	517.2
908.0786	1723.338	1396.3	513.95
908.2198	1725.0496	1391.45	507.2
908.3609	1726.7605	1397.6	514.65
908.502	1728.4706	1385.65	501.9
908.6431	1730.18	1391.05	507.4
908.7842	1731.8886	1385.3	505
908.9253	1733.5964	1400.25	496.55
909.0664	1735.3036	1390.05	505.1
909.2074	1737.0099	1380.1	498.95
909.3484	1738.7156	1374.5	492.2
909.4894	1740.4204	1378.4	494.3
909.6304	1742.1246	1373.05	485.8
909.7714	1743.8279	1368.65	486.95
909.9123	1745.5306	1371.05	488.15
910.0532	1747.2325	1364.05	482.3
910.1941	1748.9336	1363.25	482.3
910.335	1750.634	1362.7	479.55
910.4759	1752.3336	1359.9	477.45
910.6168	1754.0325	1361.25	482.3
910.7576	1755.7307	1353.25	471.55
910.8984	1757.4281	1361.45	478.9
911.0392	1759.1247	1367.1	475.8
911.18	1760.8206	1354.65	466.9
911.3208	1762.5158	1357.85	470.15
911.4615	1764.2102	1357.55	475.45
911.6022	1765.9039	1347.75	466.85
911.7429	1767.5968	1350.5	468.45
911.8836	1769.289	1344.6	462.85
912.0243	1770.9804	1344.35	461.55
912.1649	1772.6711	1348.45	466.35
912.3056	1774.361	1347.95	463.75
912.4462	1776.0502	1347.6	464.8
912.5868	1777.7386	1344.4	459.35
912.7274	1779.4263	1346.45	464.2
912.8679	1781.1132	1343.55	460.15
913.0084	1782.7994	1336.5	454.6
913.149	1784.4849	1334.45	450.5
913.2895	1786.1696	1351.45	451.9
913.4299	1787.8535	1337.15	456.25
913.5704	1789.5367	1335.35	450.6
913.7108	1791.2192	1336.45	456.45
913.8513	1792.9009	1337.7	441.5
913.9917	1794.5818	1326.85	443.05
914.132	1796.2621	1323.55	440.75
914.2724	1797.9415	1328.8	445.1
914.4128	1799.6202	1324.4	442.65
914.5531	1801.2982	1324.35	443
914.6934	1802.9755	1327.4	443.1
914.8337	1804.6519	1315.25	435.15
914.9739	1806.3277	1319.85	438.15
915.1142	1808.0027	1312.6	432.35
915.2544	1809.6769	1308.65	426.4
915.3946	1811.3504	1316.9	431.3
915.5348	1813.0231	1309.6	427.15
915.675	1814.6951	1311.45	428.85
915.8151	1816.3664	1311.75	427.95
915.9553	1818.0369	1310.55	428.25
916.0954	1819.7067	1305.9	423.6
916.2355	1821.3757	1315.3	432.15
916.3755	1823.044	1304.1	421.9
916.5156	1824.7115	1303.45	418.85
916.6556	1826.3783	1300.2	415.9
916.7956	1828.0443	1302.95	420.65
916.9356	1829.7096	1304	419.7
917.0756	1831.3741	1305.85	421
917.2155	1833.0379	1299.05	417.6
917.3555	1834.701	1297.6	414.05
917.4954	1836.3633	1295.8	412.85
917.6353	1838.0248	1295.85	413.4
917.7751	1839.6856	1300.85	416.75
917.915	1841.3457	1295.7	415.05
918.0548	1843.005	1289.9	405.45
918.1946	1844.6636	1286.4	404.95
918.3344	1846.3214	1290.75	408.4
918.4742	1847.9785	1289.15	405.45
918.6139	1849.6349	1293.75	410.25
918.7537	1851.2904	1310.2	418.25
918.8934	1852.9453	1291.4	407.35
919.0331	1854.5994	1292.65	408.3
919.1727	1856.2528	1298.15	408.2
919.3124	1857.9054	1281.85	398.65
919.452	1859.5572	1278.85	395.95
919.5916	1861.2083	1283.6	399.25
919.7312	1862.8587	1284.05	399.6
919.8708	1864.5084	1284.65	402.2
920.0103	1866.1572	1286.7	403.45
920.1498	1867.8054	1274.35	390.6
920.2893	1869.4528	1275.65	391.9
920.4288	1871.0994	1274.5	391.3
920.5683	1872.7453	1280.8	396.9
920.7077	1874.3905	1280.25	389.95
920.8471	1876.0349	1276.65	394.2
920.9865	1877.6786	1277.8	393.35
921.1259	1879.3215	1273.8	390.25
921.2653	1880.9637	1272.85	388.3
921.4046	1882.6051	1277.2	395.05
921.5439	1884.2458	1272.8	388.65
921.6832	1885.8858	1267	384.05
921.8225	1887.525	1269.2	385.55
921.9617	1889.1634	1267.8	387.25
922.101	1890.8011	1263.85	380.35
922.2402	1892.4381	1263.85	381.7
922.3794	1894.0743	1267.1	383.55
922.5185	1895.7098	1260.8	377
922.6577	1897.3446	1260.5	375.5
922.7968	1898.9786	1260.2	374.85
922.9359	1900.6118	1258.85	377.4
923.075	1902.2443	1254.75	369.8
923.214	1903.8761	1258.3	376.05
923.3531	1905.5071	1254.3	371.1
923.4921	1907.1374	1256.7	373.1
923.6311	1908.7669	1254.85	376.35
923.77	1910.3957	1254.05	368.5
923.909	1912.0237	1247.05	365.8
924.0479	1913.651	1251.2	368.45
924.1868	1915.2776	1247.55	366.25
924.3257	1916.9034	1244.5	363
924.4646	1918.5285	1243.55	360.55
924.6034	1920.1528	1243.55	359.9
924.7422	1921.7764	1241.4	359.9
924.881	1923.3992	1245.85	362.55
925.0198	1925.0213	1237.7	355.2
925.1586	1926.6427	1234.25	352.65
925.2973	1928.2633	1436.45	340.2
925.436	1929.8832	1244.15	357.35
925.5747	1931.5023	1238.35	356.25
925.7134	1933.1207	1239.1	355.5
925.852	1934.7383	1231.15	347.95
925.9906	1936.3552	1233.7	349.2
926.1292	1937.9714	1229.35	346.45
926.2678	1939.5868	1226.75	342.55
926.4064	1941.2015	1232.45	347.95
926.5449	1942.8154	1228.8	346.05
926.6834	1944.4286	1225.7	341.5
926.8219	1946.041	1246.3	340.25
926.9604	1947.6528	1226	338.25
927.0988	1949.2637	1219.3	338.2
927.2372	1950.8739	1219.15	337.35
927.3756	1952.4834	1216.65	334.7
927.514	1954.0921	1220.15	336.6
927.6523	1955.7001	1222.8	335
927.7907	1957.3074	1217.75	337.25
927.929	1958.9139	1209.6	327.15
928.0673	1960.5197	1216.1	331.1
928.2055	1962.1247	1210.8	329.9
928.3438	1963.729	1210.2	328.5
928.482	1965.3325	1233.2	325.8
928.6202	1966.9353	1213.5	333.4
928.7584	1968.5374	1208.55	324.7
928.8965	1970.1387	1202.8	321.45
929.0346	1971.7393	1206.75	324.4
929.1727	1973.3392	1204.65	323.05
929.3108	1974.9383	1202.75	323.65
929.4489	1976.5366	1201.1	319.75
929.5869	1978.1342	1202.55	319.85
929.7249	1979.7311	1205.55	323.9
929.8629	1981.3273	1197.05	314.55
930.0009	1982.9227	1200.6	317.7
930.1388	1984.5173	1193.55	314.6
930.2767	1986.1112	1199.35	318.85
930.4146	1987.7044	1195.9	316.3
930.5525	1989.2968	1193.25	311
930.6904	1990.8885	1196.45	310.75
930.8282	1992.4795	1190.3	307.9
930.966	1994.0697	1190.45	310.35
931.1038	1995.6592	1191.85	311.65
931.2415	1997.2479	1189.85	307.85
931.3793	1998.8359	1192.55	312.8
931.517	2000.4232	1182.85	303.65
931.6547	2002.0097	1183.05	303.85
931.7923	2003.5955	1188.35	306.35
931.93	2005.1805	1181.15	298.95
932.0676	2006.7648	1187.2	306.25
932.2052	2008.3484	1184.15	300.75
932.3427	2009.9312	1189.7	307.75
932.4803	2011.5133	1183.6	304.6
932.6178	2013.0946	1179.05	300.8
932.7553	2014.6752	1181.1	301.5
932.8928	2016.2551	1180.85	302.25
933.0302	2017.8342	1184.15	302.2
933.1676	2019.4126	1175.15	295.65
933.305	2020.9902	1180.6	299.3
933.4424	2022.5672	1186.85	304.35
933.5798	2024.1433	1179.6	295.75
933.7171	2025.7188	1170	292.15
933.8544	2027.2935	1174.05	293.85
933.9917	2028.8674	1173.9	294.1
934.129	2030.4406	1169.7	293.05
934.2662	2032.0131	1169.65	289.8
934.4034	2033.5849	1177	292.15
934.5406	2035.1559	1171.6	292.95
934.6778	2036.7261	1165.45	285.25
934.8149	2038.2957	1167.85	286.85
934.952	2039.8645	1173.65	293.3
935.0891	2041.4325	1169.45	286.65
935.2262	2042.9998	1174.15	296.15
935.3632	2044.5664	1164.5	282.25
935.5002	2046.1323	1169.35	291.1
935.6372	2047.6974	1167.2	286.6
935.7742	2049.2617	1162.35	283.7
935.9111	2050.8254	1201.2	288
936.048	2052.3883	1173.55	293.15
936.1849	2053.9504	1168.45	286.9
936.3218	2055.5118	1165.15	284.45
936.4586	2057.0725	1162.75	279.45
936.5955	2058.6325	1164.2	284.8
936.7323	2060.1917	1161.25	280.65
936.869	2061.7502	1167.9	285.55
937.0058	2063.3079	1160.85	282.8
937.1425	2064.8649	1157.95	273.35
937.2792	2066.4212	1157.3	275.6
937.4159	2067.9767	1160.3	281.2
937.5525	2069.5315	1162.1	281.35
937.6891	2071.0856	1156.2	276.5
937.8257	2072.6389	1158.45	276.6
937.9623	2074.1915	1158.5	279.75
938.0989	2075.7433	1158.65	275.65
938.2354	2077.2945	1151	273.7
938.3719	2078.8448	1155.3	276.05
938.5084	2080.3945	1152.35	271.05
938.6448	2081.9434	1159.45	278.25
938.7812	2083.4916	1154.7	272.95
938.9176	2085.039	1154.55	270.75
939.054	2086.5857	1154.3	272.2
939.1903	2088.1317	1151.7	267.4
939.3267	2089.677	1151.6	270.25
939.463	2091.2215	1147.15	263.85
939.5992	2092.7652	1153.5	270.5
939.7355	2094.3083	1148.85	268.75
939.8717	2095.8506	1147.6	265.4
940.0079	2097.3921	1149.1	268.4
940.1441	2098.933	1140.2	258.45
940.2802	2100.4731	1149.45	269.15
940.4163	2102.0124	1166.15	268.25
940.5524	2103.5511	1140.45	261.45
940.6885	2105.089	1147.75	265.4
940.8245	2106.6261	1148.5	268
940.9606	2108.1626	1149.45	269.3
941.0965	2109.6983	1175.85	267.45
941.2325	2111.2332	1144.5	263.2
941.3684	2112.7675	1152.7	272.5
941.5044	2114.301	1147.1	262.3
941.6403	2115.8337	1142.85	261.85
941.7761	2117.3657	1143.3	261.95
941.912	2118.897	1142.9	260.8
942.0478	2120.4276	1144.15	258.05
942.1835	2121.9575	1142.2	259.85
942.3193	2123.4866	1161.9	264.95
942.455	2125.0149	1143.3	260.6
942.5907	2126.5426	1136.4	256.9
942.7264	2128.0695	1142.35	258.5
942.8621	2129.5956	1132.1	252.55
942.9977	2131.1211	1146.45	261.6
943.1333	2132.6458	1134.5	255.15
943.2689	2134.1698	1139.3	257.1
943.4044	2135.693	1138.35	254.6
943.54	2137.2155	1140.75	259.05
943.6755	2138.7373	1135.95	255.3
943.8109	2140.2584	1129.85	249.35
943.9464	2141.7787	1140.55	254.65
944.0818	2143.2983	1129.4	250.5
944.2172	2144.8171	1128.45	249.35
944.3526	2146.3353	1133.75	251.15
944.4879	2147.8527	1127.65	249.95
944.6232	2149.3693	1133.45	252.3
944.7585	2150.8853	1135.5	254.85
944.8938	2152.4005	1130.85	251.25
945.029	2153.9149	1134.3	252.5
945.1642	2155.4287	1129.2	251.15
945.2994	2156.9417	1132.4	248.5
945.4346	2158.454	1133	251.05
945.5697	2159.9655	1126.7	246.75
945.7048	2161.4764	1128.35	246.65
945.8399	2162.9865	1124.95	244.1
945.9749	2164.4958	1128.65	247.8
946.1099	2166.0045	1128.1	243.05
946.2449	2167.5124	1126.35	247.75
946.3799	2169.0195	1127.75	247.35
946.5148	2170.526	1122.8	242.1
946.6498	2172.0317	1125.1	244.25
946.7846	2173.5367	1123.2	243
946.9195	2175.0409	1126	246.8
947.0543	2176.5445	1119	239.75
947.1891	2178.0473	1120.25	238.85
947.3239	2179.5494	1126.55	241.45
947.4587	2181.0507	1123.45	242.55
947.5934	2182.5513	1118.7	239.9
947.7281	2184.0512	1121.8	239.6
947.8628	2185.5504	1115.2	236.3
947.9974	2187.0488	1113.25	233
948.132	2188.5465	1115.75	234.15
948.2666	2190.0435	1113.9	232.15
948.4012	2191.5397	1115.05	234.45
948.5357	2193.0353	1116.25	237.15
948.6702	2194.5301	1119.45	237.6
948.8047	2196.0241	1111.85	229.7
948.9392	2197.5175	1118.85	237.65
949.0736	2199.0101	1116.85	232.85
949.208	2200.502	1116.2	237.7
949.3424	2201.9931	1118.3	237.4
949.4767	2203.4835	1111.6	229.05
949.611	2204.9733	1127.35	229.65
949.7453	2206.4622	1112.95	234
949.8796	2207.9505	1111.05	227.5
950.0138	2209.438	1107.25	228.15
950.148	2210.9248	1110.3	228.6
950.2822	2212.4109	1105.8	227.6
950.4164	2213.8962	1111.2	229.75
950.5505	2215.3809	1107.95	228.1
950.6846	2216.8648	1104.25	221.9
950.8186	2218.3479	1108.9	222.75
950.9527	2219.8304	1108.8	226.25
951.0867	2221.3121	1106	223.4
951.2207	2222.7931	1107.15	227.85
951.3546	2224.2733	1100.35	218.1
951.4886	2225.7529	1097.9	216.6
951.6225	2227.2317	1105.55	220.2
951.7563	2228.7098	1095.75	217.75
951.8902	2230.1872	1097.65	216.5
952.024	2231.6638	1094.9	217.1
952.1578	2233.1397	1103.35	217.4
952.2916	2234.6149	1097.75	218.4
952.4253	2236.0894	1094.75	212.15
952.559	2237.5632	1101.3	211.1
952.6927	2239.0362	1096.6	217.3
952.8263	2240.5085	1093.45	210.45
952.9599	2241.9801	1095.15	214.8
953.0935	2243.4509	1092.6	212.4
953.2271	2244.921	1088.2	205.9
953.3606	2246.3904	1095.8	214.35
953.4941	2247.8591	1099.05	218.3
953.6276	2249.3271	1090.3	209.35
953.7611	2250.7943	1089.45	208.95
953.8945	2252.2608	1090.6	208.9
954.0279	2253.7266	1087.2	206.75
954.1612	2255.1917	1087.1	208.8
954.2946	2256.656	1088.4	207.5
954.4279	2258.1197	1083.85	204.1
954.5612	2259.5826	1092	208.8
954.6944	2261.0447	1087.65	208.45
954.8276	2262.5062	1085.85	204.45
954.9608	2263.9669	1087.15	203.65
955.094	2265.4269	1087.25	208.75
955.2271	2266.8862	1085.3	204.85
955.3602	2268.3448	1084.3	203
955.4933	2269.8026	1083.65	202.65
955.6264	2271.2598	1081.05	199.85
955.7594	2272.7162	1077.7	200.8
955.8924	2274.1719	1083.8	202.45
956.0253	2275.6268	1078.45	196.8
956.1583	2277.0811	1080.5	200.55
956.2912	2278.5346	1083.55	203.4
956.4241	2279.9874	1077.7	196.25
956.5569	2281.4395	1079.4	200.9
956.6897	2282.8908	1084.75	197.05
956.8225	2284.3414	1080.15	198.75
956.9553	2285.7914	1079.85	200.15
957.088	2287.2406	1078.45	197
957.2207	2288.689	1076.4	194.75
957.3534	2290.1368	1081.05	199.6
957.486	2291.5838	1079.85	198.5
957.6186	2293.0302	1077.7	195.35
957.7512	2294.4758	1073.1	193.75
957.8838	2295.9206	1078.55	196.95
958.0163	2297.3648	1076.25	196.7
958.1488	2298.8082	1075.45	194.95
958.2813	2300.251	1075.6	193.1
958.4137	2301.693	1078.25	195
958.5461	2303.1343	1071.4	188.3
958.6785	2304.5748	1073.95	191.95
958.8108	2306.0147	1075.45	192.9
958.9432	2307.4538	1074.95	193.1
959.0754	2308.8922	1068.95	189.45
959.2077	2310.3299	1069	189.55
959.3399	2311.7669	1065.9	187.5
959.4721	2313.2031	1065.7	186.45
959.6043	2314.6387	1068.4	185.65
959.7365	2316.0735	1068.15	186.55
959.8686	2317.5076	1068.4	186.95
960.0006	2318.941	1068.7	185.4
960.1327	2320.3737	1070.7	189.7
960.2647	2321.8056	1072.4	190.45
960.3967	2323.2369	1068.95	188.5
960.5287	2324.6674	1073.4	190.6
960.6606	2326.0972	1079.55	198
960.7925	2327.5263	1079.95	200.8
960.9244	2328.9547	1076.85	194.85
961.0562	2330.3823	1074.5	195.2
961.1881	2331.8092	1071	184.8
961.3198	2333.2355	1065.6	185.75
961.4516	2334.661	1064.1	182.25
961.5833	2336.0858	1064.75	181.7
961.715	2337.5098	1063.15	181.05
961.8467	2338.9332	1064.45	182.4
961.9783	2340.3558	1062.75	177.85
962.1099	2341.7778	1057.85	176.05
962.2415	2343.199	1066.9	185.85
962.373	2344.6195	1060.5	179.55
962.5045	2346.0393	1058.55	178.1
962.636	2347.4583	1060.05	178.05
962.7675	2348.8767	1060.45	178.45
962.8989	2350.2943	1058.65	177.95
963.0303	2351.7113	1062.65	180.85
963.1617	2353.1275	1057	176.9
963.293	2354.543	1067.75	177.15
963.4243	2355.9578	1061.95	181.3
963.5556	2357.3718	1055.2	174.05
963.6868	2358.7852	1059.05	175.4
963.818	2360.1978	1056.75	175.6
963.9492	2361.6098	1056.3	174.9
964.0803	2363.021	1053.9	171
964.2114	2364.4315	1056.35	176.15
964.3425	2365.8413	1057.5	174.45
964.4736	2367.2504	1056.3	176.6
964.6046	2368.6587	1051.05	169.1
964.7356	2370.0664	1053.45	174.65
964.8666	2371.4733	1051.05	168
964.9975	2372.8795	1054.45	173.55
965.1284	2374.285	1056.15	173.7
965.2593	2375.6899	1051.45	172.35
965.3901	2377.0939	1054.25	171.75
965.5209	2378.4973	1054.9	173.35
965.6517	2379.9	1052.3	169.45
965.7825	2381.3019	1050.8	170.7
965.9132	2382.7032	1056.3	176.45
966.0439	2384.1037	1045.7	167.9
966.1745	2385.5035	1052.7	169.65
966.3051	2386.9027	1049.15	168.4
966.4357	2388.3011	1049.85	164.1
966.5663	2389.6987	1049.2	168.25
966.6968	2391.0957	1051.95	170.55
966.8273	2392.492	1046.6	165.85
966.9578	2393.8876	1044.1	162.4
967.0882	2395.2824	1046.6	166.65
967.2186	2396.6765	1039.25	159.2
967.349	2398.07	1044.55	163.95
967.4793	2399.4627	1045.35	163.5
967.6097	2400.8547	1046.15	163.7
967.7399	2402.246	1048.5	159.8
967.8702	2403.6366	1044.1	160.15
968.0004	2405.0265	1038.5	156.4
968.1306	2406.4156	1045.4	159.2
968.2607	2407.8041	1044.15	160.5
968.3909	2409.1918	1042.2	157.5
968.521	2410.5789	1042.55	160.45
968.651	2411.9652	1043.85	157.7
968.781	2413.3508	1038.3	155.2
968.911	2414.7358	1042.1	158.7
969.041	2416.12	1034.1	152.6
969.1709	2417.5035	1036.45	154.95
969.3008	2418.8863	1039.65	156.2
969.4307	2420.2684	1037.05	155.55
969.5606	2421.6497	1037.35	156.55
969.6904	2423.0304	1035.55	154.95
969.8201	2424.4104	1033.8	152.1
969.9499	2425.7896	1035.15	149.95
970.0796	2427.1682	1035.1	152.4
970.2093	2428.546	1037.25	155.55
970.3389	2429.9232	1041.6	158.15
970.4685	2431.2996	1035.45	153.95
970.5981	2432.6753	1039.45	159.45
970.7277	2434.0503	1032.85	152.35
970.8572	2435.4246	1035.85	153.75
970.9867	2436.7982	1032.05	148.15
971.1161	2438.1711	1035.15	154.25
971.2456	2439.5433	1035.45	153.8
971.375	2440.9148	1033.4	149.9
971.5043	2442.2856	1030.9	150.4
971.6336	2443.6557	1031	148.75
971.7629	2445.025	1031.8	150.85
971.8922	2446.3937	1032.7	151.75
972.0214	2447.7617	1031.05	148.65
972.1506	2449.1289	1029.35	149.9
972.2798	2450.4955	1035.25	149.75
972.4089	2451.8613	1026.45	146.7
972.538	2453.2265	1027.1	146.7
972.6671	2454.5909	1033.15	150.8
972.7961	2455.9546	1024.9	143.55
972.9251	2457.3177	1026.3	145.95
973.0541	2458.68	1028.35	145.5
973.1831	2460.0416	1026.75	145.1
973.312	2461.4025	1022.95	140.9
973.4408	2462.7627	1035.15	142.65
973.5697	2464.1222	1022.45	142.6
973.6985	2465.4811	1023.85	141.15
973.8273	2466.8392	1024.95	143.3
973.956	2468.1966	1028.9	144.05
974.0847	2469.5533	1027.6	142.8
974.2134	2470.9093	1028.15	144.55
974.3421	2472.2645	1029.2	144.35
974.4707	2473.6191	1021.15	142.2
974.5993	2474.973	1024.95	145.35
974.7278	2476.3262	1025.55	140.55
974.8563	2477.6787	1023.1	143.7
974.9848	2479.0305	1020.4	140.75
975.1132	2480.3816	1021.45	139.05
975.2417	2481.7319	1016.8	135.6
975.37	2483.0816	1024.05	140.4
975.4984	2484.4306	1026.6	144.45
975.6267	2485.7789	1021.65	139.65
975.755	2487.1264	1026.55	143.3
975.8833	2488.4733	1021.65	141.35
976.0115	2489.8195	1026.45	136.55
976.1397	2491.165	1026.45	144.65
976.2678	2492.5097	1022.4	139.2
976.3959	2493.8538	1019.3	140.2
976.524	2495.1972	1020.25	138.85
976.6521	2496.5398	1019.35	135.55
976.7801	2497.8818	1017.25	135.55
976.9081	2499.2231	1018.75	135.65
977.036	2500.5637	1021.45	137.1
977.164	2501.9035	1019.85	136.15
977.2918	2503.2427	1021	135.4
977.4197	2504.5812	1018.8	137.95
977.5475	2505.919	1018.95	135.15
977.6753	2507.256	1016.55	134.55
977.8031	2508.5924	1016.2	134.35
977.9308	2509.9281	1019.65	131.65
978.0585	2511.2631	1012.3	131.75
978.1861	2512.5974	1013	132.7
978.3137	2513.9309	1016.95	134.8
978.4413	2515.2638	1046	136.3
978.5689	2516.596	1011.5	129.25
978.6964	2517.9275	1013.4	130.45
978.8239	2519.2583	1012.15	131.25
978.9513	2520.5884	1015.05	132.35
979.0788	2521.9178	1013.4	133.6
979.2062	2523.2465	1012.3	131.75
979.3335	2524.5745	1010.05	129.9
979.4608	2525.9018	1011.85	130.7
979.5881	2527.2284	1011.95	133.25
979.7154	2528.5543	1005.85	126.6
979.8426	2529.8796	1008.25	127.4
979.9698	2531.2041	1010.3	129.75
980.0969	2532.5279	1014.45	136.05
980.224	2533.851	1007.75	126.45
980.3511	2535.1735	1010.2	129.95
980.4781	2536.4952	1011.25	129.8
980.6052	2537.8163	1009.35	128.3
980.7321	2539.1366	1011.45	131.2
980.8591	2540.4562	1012.45	129.8
980.986	2541.7752	1009.75	129.2
981.1129	2543.0935	1012.3	131.55
981.2397	2544.411	1012.4	129.65
981.3665	2545.7279	1004.45	124.3
981.4933	2547.0441	1006.05	124.8
981.62	2548.3596	1013.15	127.35
981.7467	2549.6744	1004.65	123.75
981.8734	2550.9885	1016.35	125.65
982.0001	2552.3019	1003.95	124.8
982.1267	2553.6146	1005.3	123
982.2532	2554.9266	1004.7	123.75
982.3798	2556.2379	1007.65	125.5
982.5063	2557.5485	1005.1	125.65
982.6327	2558.8585	1012.6	123.7
982.7592	2560.1677	1007.95	124
982.8856	2561.4762	1003.85	122.3
983.0119	2562.7841	1007.3	123.9
983.1383	2564.0913	1003.35	123.5
983.2646	2565.3977	1001.75	119.5
983.3908	2566.7035	1000.35	119.65
983.517	2568.0086	1007.25	125.35
983.6432	2569.313	1006.35	124.05
983.7694	2570.6167	1005.2	120.35
983.8955	2571.9197	1003.3	123.25
984.0216	2573.222	1003.75	118.85
984.1476	2574.5236	1003.05	120.75
984.2737	2575.8246	1005.6	119.25
984.3996	2577.1248	1007.8	123.4
984.5256	2578.4244	1003.05	122.2
984.6515	2579.7232	1002.45	123.35
984.7774	2581.0214	1034.1	119.55
984.9032	2582.3189	1005.1	125.45
985.029	2583.6157	1008.7	122.75
985.1548	2584.9118	1002.9	120.65
985.2806	2586.2072	998.95	116.45
985.4063	2587.5019	1004.2	122.7
985.5319	2588.7959	1002.75	120
985.6576	2590.0893	1002.35	120.6
985.7832	2591.3819	1003.65	125.4
985.9087	2592.6739	1000.75	120.6
986.0343	2593.9652	1006.6	123.8
986.1597	2595.2557	1002.3	120.6
986.2852	2596.5456	1007.3	123.8
986.4106	2597.8348	1005.9	126.2
986.536	2599.1234	1003.4	120.5
986.6614	2600.4112	1004.3	123.6
986.7867	2601.6983	1006.15	120.45
986.912	2602.9848	1004.9	126.6
987.0372	2604.2705	1011.85	124.05
987.1624	2605.5556	1001.9	120.6
987.2876	2606.84	1003.9	122.15
987.4128	2608.1237	1003.7	119.15
987.5379	2609.4067	998.85	118.1
987.6629	2610.689	1011.25	120.95
987.788	2611.9707	1005.15	119.45
987.913	2613.2516	1002.2	115.5
988.0379	2614.5319	998.85	120.1
988.1629	2615.8115	999.9	116.85
988.2878	2617.0903	1000.6	119.95
988.4126	2618.3685	997.85	116.35
988.5375	2619.6461	997.25	115.45
988.6622	2620.9229	999.45	118.9
988.787	2622.199	995.45	111.7
988.9117	2623.4745	998.65	114.45
989.0364	2624.7493	997.25	116.35
989.161	2626.0234	994.35	114.5
989.2857	2627.2968	995.9	115.3
989.4102	2628.5695	991.1	108.5
989.5348	2629.8415	997.55	115.85
989.6593	2631.1128	996.6	116.25
989.7837	2632.3835	996.25	114.85
989.9082	2633.6535	996.9	115.85
990.0326	2634.9228	991.2	108.85
990.1569	2636.1914	992.8	112.75
990.2812	2637.4593	995.7	112.9
990.4055	2638.7265	994.55	112.35
990.5298	2639.9931	993.3	113.45
990.654	2641.259	991.4	109.4
990.7782	2642.5242	994.7	113.6
990.9023	2643.7887	990.1	107.55
991.0264	2645.0525	987.35	107.6
991.1505	2646.3156	992.45	109.4
991.2745	2647.5781	992.5	113.55
991.3985	2648.8398	991.2	111.45
991.5225	2650.1009	1025.1	105.85
991.6464	2651.3613	989.75	109.05
991.7703	2652.6211	987.45	106.25
991.8942	2653.8801	987	105.45
992.018	2655.1385	986.25	102.85
992.1418	2656.3961	987.55	105.55
992.2655	2657.6531	985.3	105.5
992.3892	2658.9094	990.15	110.1
992.5129	2660.1651	984.4	103.75
992.6366	2661.42	987.7	106.75
992.7602	2662.6743	987.5	106.5
992.8837	2663.9279	985.45	105.4
993.0073	2665.1808	988.05	106.1
993.1307	2666.433	987.65	104.95
993.2542	2667.6846	985	103.55
993.3776	2668.9354	992.2	107.1
993.501	2670.1856	989.35	106.85
993.6244	2671.4351	986.65	105.5
993.7477	2672.6839	991.7	109.95
993.8709	2673.9321	988.35	109.25
993.9942	2675.1795	987.85	105.85
994.1174	2676.4263	989.15	108.7
994.2405	2677.6724	994.3	115.9
994.3637	2678.9179	992.95	112.3
994.4868	2680.1626	991.9	113.95
994.6098	2681.4067	995.9	115.35
994.7328	2682.6501	992.35	112.4
994.8558	2683.8928	992.85	112.05
994.9788	2685.1348	987.4	106.95
995.1017	2686.3761	985.8	107.85
995.2245	2687.6168	986.95	106.4
995.3474	2688.8568	983.05	101.1
995.4702	2690.0961	979.7	100.2
995.5929	2691.3348	982.4	99.7
995.7156	2692.5727	981.5	101.65
995.8383	2693.81	980.8	99.95
995.961	2695.0466	981.7	102.4
996.0836	2696.2826	983.45	101.8
996.2062	2697.5178	1003.4	103
996.3287	2698.7524	979.7	100.9
996.4512	2699.9863	986.5	102.4
996.5737	2701.2195	981.05	100.35
996.6961	2702.452	983.7	100.65
996.8185	2703.6839	989.45	107
996.9408	2704.9151	986.35	106.7
997.0631	2706.1456	984.7	103.95
997.1854	2707.3755	988.05	105.8
997.3077	2708.6046	990.4	108.05
997.4299	2709.8331	989.85	108.7
997.552	2711.0609	989.85	110.4
997.6742	2712.2881	989.3	111.7
997.7963	2713.5145	995.65	111.6
997.9183	2714.7403	992.5	113.95
998.0403	2715.9654	993.85	111
998.1623	2717.1899	1007.75	113.15
998.2842	2718.4136	996.6	116.05
998.4062	2719.6367	1000.55	120
998.528	2720.8591	1007.65	119.55
998.6498	2722.0809	1001.95	120.25
998.7716	2723.3019	1007.2	123.15
998.8934	2724.5223	1006.95	126.3
999.0151	2725.7421	1010.15	128
999.1368	2726.9611	1007.9	126.3
999.2584	2728.1795	1003.65	118.5
999.38	2729.3972	999.4	119.05
999.5016	2730.6142	1005	115.3
999.6231	2731.8306	994.2	112.7
999.7446	2733.0462	995.65	114.95
999.8661	2734.2612	995.25	109.95
999.9875	2735.4756	990	109
1000.1089	2736.6892	987.5	106
1000.2302	2737.9022	985.8	107.35
1000.3515	2739.1145	981.1	99.65
1000.4728	2740.3262	990.45	101.25
1000.594	2741.5372	981.95	102
1000.7152	2742.7475	979.05	100.05
1000.8363	2743.9571	979.35	96.9
1000.9575	2745.1661	982.25	98.4
1001.0785	2746.3744	975.05	95.05
1001.1996	2747.582	975.4	95.25
1001.3206	2748.7889	973.95	92.8
1001.4415	2749.9952	975.45	95.45
1001.5625	2751.2008	972	90.8
1001.6833	2752.4057	971.95	91.35
1001.8042	2753.61	969.25	86.35
1001.925	2754.8136	969.9	88.65
1002.0458	2756.0165	969.1	88.95
1002.1665	2757.2188	969.8	89.2
1002.2872	2758.4204	967.55	88
1002.4078	2759.6213	975.3	93.65
1002.5285	2760.8215	971.45	86.85
1002.649	2762.0211	972.15	90.55
1002.7696	2763.22	969.55	84.8
1002.8901	2764.4182	969.85	89
1003.0106	2765.6158	968.9	86.9
1003.131	2766.8127	964.7	84.4
1003.2514	2768.009	966	83.9
1003.3717	2769.2045	968.75	88.45
1003.492	2770.3994	966.45	83.75
1003.6123	2771.5936	967.6	85.55
1003.7325	2772.7872	958.7	80.7
1003.8527	2773.9801	963.25	82.5
1003.9729	2775.1723	978.2	81.4
1004.093	2776.3639	960.55	82.6
1004.2131	2777.5548	961.45	80.15
1004.3331	2778.745	963.45	81.9
1004.4531	2779.9346	958.05	79.15
1004.5731	2781.1235	962.5	80.65
1004.693	2782.3117	961.35	80.4
1004.8129	2783.4992	962.8	83.35
1004.9328	2784.6861	960.85	80.15
1005.0526	2785.8723	963.55	82.8
1005.1723	2787.0579	963.95	82.45
1005.2921	2788.2428	963.65	81.65
1005.4118	2789.427	965.7	84.75
1005.5314	2790.6106	964.9	81.9
1005.651	2791.7935	966.45	85.2
1005.7706	2792.9757	962.7	84.6
1005.8902	2794.1573	968.9	84.6
1006.0097	2795.3382	963.25	84.15
1006.1291	2796.5184	964.05	85.95
1006.2485	2797.698	968.45	87.85
1006.3679	2798.8769	962.05	81.3
1006.4873	2800.0551	967.25	86.4
1006.6066	2801.2327	970.45	86.7
1006.7258	2802.4096	968.6	87.35
1006.8451	2803.5859	964.6	84.05
1006.9642	2804.7615	971.3	90.1
1007.0834	2805.9364	972.4	93.8
1007.2025	2807.1106	973.8	93.6
1007.3216	2808.2842	975	93.3
1007.4406	2809.4572	977.15	98.45
1007.5596	2810.6294	982.5	101.9
1007.6785	2811.801	982.25	104
1007.7975	2812.972	983.95	105.3
1007.9163	2814.1423	992.5	111.85
1008.0352	2815.3119	996.85	116.1
1008.154	2816.4808	999.45	119.25
1008.2727	2817.6491	1008.65	128.15
1008.3914	2818.8167	1013.5	134.5
1008.5101	2819.9837	1024.55	139.6
1008.6288	2821.15	1032	152.05
1008.7474	2822.3157	1047	167.45
1008.8659	2823.4807	1061.05	179.85
1008.9844	2824.645	1081.85	199.6
1009.1029	2825.8086	1093.9	211.5
1009.2214	2826.9716	1109.15	231.2
1009.3398	2828.134	1127.8	248.3
1009.4581	2829.2957	1140.5	260.9
1009.5764	2830.4567	1152.5	274.8
1009.6947	2831.617	1165.45	285.7
1009.813	2832.7767	1170.95	290.6
1009.9312	2833.9358	1167.9	287.5
1010.0493	2835.0941	1171.2	289.3
1010.1675	2836.2519	1162.05	283.8
1010.2855	2837.4089	1161.1	277.9
1010.4036	2838.5653	1141.15	261.65
1010.5216	2839.7211	1140.85	264.35
1010.6396	2840.8761	1133.25	251.85
1010.7575	2842.0306	1131.3	252.9
1010.8754	2843.1843	1136.25	253.75
1010.9932	2844.3374	1134.75	255.75
1011.111	2845.4899	1142.15	262.3
1011.2288	2846.6417	1142.5	262.8
1011.3465	2847.7928	1144.45	264.7
1011.4642	2848.9433	1148.75	271.1
1011.5818	2850.0931	1153.75	274
1011.6995	2851.2422	1156.95	276.15
1011.817	2852.3907	1157.8	275.35
1011.9345	2853.5385	1153.05	271.6
1012.052	2854.6857	1181.6	275.55
1012.1695	2855.8323	1167.45	287.9
1012.2869	2856.9781	1167.35	288.05
1012.4042	2858.1233	1173.2	292.3
1012.5216	2859.2679	1180.4	298.6
1012.6389	2860.4118	1194.15	314.65
1012.7561	2861.555	1203	320.45
1012.8733	2862.6976	1207.35	325.35
1012.9905	2863.8395	1208.05	328.05
1013.1076	2864.9808	1213.1	333.25
1013.2247	2866.1214	1218.05	340
1013.3417	2867.2614	1217.5	337.8
1013.4587	2868.4007	1228.3	348.95
1013.5757	2869.5393	1231.25	349.25
1013.6926	2870.6773	1244.2	362.65
1013.8095	2871.8146	1249.05	366.55
1013.9263	2872.9513	1244.3	361.65
1014.0431	2874.0874	1249.8	369.85
1014.1599	2875.2227	1256.85	376.9
1014.2766	2876.3574	1254	372.7
1014.3933	2877.4915	1269.75	390.6
1014.51	2878.6249	1268.55	388.35
1014.6266	2879.7577	1272.25	392
1014.7431	2880.8898	1288.55	399.05
1014.8596	2882.0212	1285.5	407.15
1014.9761	2883.152	1288.1	408.35
1015.0925	2884.2821	1295	416.25
1015.2089	2885.4116	1305.25	425.65
1015.3253	2886.5405	1297.9	418.05
1015.4416	2887.6686	1313.95	430.65
1015.5579	2888.7962	1311.75	432.85
1015.6741	2889.923	1309	429.2
1015.7903	2891.0493	1304.7	425.3
1015.9065	2892.1748	1301.25	419.85
1016.0226	2893.2997	1308.35	428.15
1016.1387	2894.424	1301.15	423.5
1016.2547	2895.5476	1304.8	426.3
1016.3707	2896.6706	1301.7	421.75
1016.4866	2897.7929	1304.2	423.9
1016.6025	2898.9145	1306.45	426.35
1016.7184	2900.0355	1310.4	430.6
1016.8342	2901.1559	1305.95	423.05
1016.95	2902.2756	1313.15	427.15
1017.0658	2903.3946	1293.3	414.4
1017.1815	2904.513	1296	412.5
1017.2971	2905.6308	1293.4	414.65
1017.4127	2906.7479	1297.45	416.65
1017.5283	2907.8643	1297	415.9
1017.6439	2908.9801	1295.6	416.6
1017.7594	2910.0953	1290.75	411.55
1017.8748	2911.2098	1294.9	412.15
1017.9902	2912.3236	1292	403.6
1018.1056	2913.4368	1292.25	407.2
1018.2209	2914.5494	1290.2	410.05
1018.3362	2915.6613	1287.35	401.55
1018.4515	2916.7725	1276	391.2
1018.5667	2917.8831	1277.5	396.7
1018.6819	2918.9931	1268.65	385.35
1018.797	2920.1024	1258.7	377.95
1018.9121	2921.211	1252.15	374.05
1019.0271	2922.319	1249.6	368.6
1019.1421	2923.4264	1248	368.9
1019.2571	2924.5331	1244.45	367.6
1019.372	2925.6391	1239.45	358.9
1019.4869	2926.7445	1244.6	366.75
1019.6017	2927.8493	1248.25	367.3
1019.7165	2928.9534	1247.6	365.4
1019.8313	2930.0569	1249.9	367.1
1019.946	2931.1597	1254.95	373.85
1020.0606	2932.2619	1252.1	373.3
1020.1753	2933.3634	1251	370.6
1020.2899	2934.4643	1264.3	376.9
1020.4044	2935.5645	1273.55	386.55
1020.5189	2936.6641	1267	384.1
1020.6334	2937.763	1266.15	390
1020.7478	2938.8613	1263.3	383.5
1020.8622	2939.959	1269.1	385.6
1020.9765	2941.056	1253.55	373.2
1021.0908	2942.1523	1247.85	366.55
1021.2051	2943.248	1227.2	346.45
1021.3193	2944.3431	1207.6	328
1021.4334	2945.4375	1195.9	314.9
1021.5476	2946.5313	1172.75	294.25
1021.6617	2947.6244	1158	278.5
1021.7757	2948.7169	1138.8	259.35
1021.8897	2949.8087	1130.8	250
1022.0037	2950.8999	1116.4	236.75
1022.1176	2951.9904	1106.35	228.2
1022.2315	2953.0803	1093.65	213.9
1022.3453	2954.1696	1087.9	207.5
1022.4591	2955.2582	1078.7	200.05
1022.5728	2956.3462	1072.55	193.2
1022.6865	2957.4335	1071.1	191.35
1022.8002	2958.5202	1074.1	193.65
1022.9138	2959.6062	1066.65	185.9
1023.0274	2960.6916	1067.55	187.1
1023.141	2961.7764	1070.4	190.5
1023.2545	2962.8605	1070.15	188.05
1023.3679	2963.9439	1069.45	187.8
1023.4813	2965.0267	1068.85	187.9
1023.5947	2966.1089	1090.5	188.5
1023.708	2967.1905	1066.95	188.6
1023.8213	2968.2714	1062.4	182.55
1023.9346	2969.3516	1061.95	183.7
1024.0478	2970.4312	1067.05	179.6
1024.1609	2971.5102	1056.85	178.3
1024.274	2972.5885	1056.95	178.05
1024.3871	2973.6662	1067.1	182.75
1024.5002	2974.7432	1064.45	186.35
1024.6132	2975.8196	1061.9	183.2
1024.7261	2976.8954	1060.85	183.25
1024.839	2977.9705	1062	180.65
1024.9519	2979.045	1061.75	182.75
1025.0647	2980.1188	1059.1	181
1025.1775	2981.192	1057.45	180.8
1025.2902	2982.2645	1055.7	175.75
1025.4029	2983.3364	1050.45	169.6
1025.5156	2984.4077	1045.5	166.85
1025.6282	2985.4783	1041.7	157.4
1025.7407	2986.5483	1035.7	156.55
1025.8532	2987.6177	1032.85	154.8
1025.9657	2988.6864	1025.85	146.1
1026.0782	2989.7545	1023.75	142.45
1026.1906	2990.8219	1016.45	138.3
1026.3029	2991.8887	1015.35	134.05
1026.4152	2992.9548	1005.55	125
1026.5275	2994.0204	1001.5	124
1026.6397	2995.0852	994.05	117.5
1026.7519	2996.1495	988.25	108
1026.864	2997.2131	982.1	102.7
1026.9761	2998.276	975.05	95.35
1027.0882	2999.3383	973.9	92.3
1027.2002	3000.4	968.35	87.65
1027.3122	3001.4611	962.85	83.8
1027.4241	3002.5215	960.25	80.6
1027.536	3003.5812	958.1	78.55
1027.6478	3004.6404	956.15	76.15
1027.7596	3005.6989	956.05	73.45
1027.8714	3006.7567	949.15	68.35
1027.9831	3007.8139	984	72.15
1028.0947	3008.8705	943.85	64.85
1028.2064	3009.9264	947.35	65
1028.3179	3010.9818	944.6	66.95
1028.4295	3012.0364	942.3	63.65
1028.541	3013.0905	942.25	61.9
1028.6524	3014.1439	943.3	64.15
1028.7638	3015.1966	938.45	58.8
1028.8752	3016.2487	937.65	57.7
1028.9865	3017.3002	940.1	57.85
1029.0978	3018.3511	935.8	59.55
1029.209	3019.4013	937.2	56.25
1029.3202	3020.4509	935.5	57.25
1029.4314	3021.4998	936	54.95
1029.5425	3022.5481	935.2	55.2
1029.6535	3023.5958	934.6	55.35
1029.7645	3024.6428	935.5	56.2
1029.8755	3025.6892	928.6	50.6
1029.9864	3026.735	933.05	54.65
1030.0973	3027.7802	934.3	56.85
1030.2082	3028.8247	931.9	53.65
1030.319	3029.8685	932.8	51.55
1030.4297	3030.9118	934.7	54.65
1030.5404	3031.9544	933.9	53.7
1030.6511	3032.9963	932.2	53.7
1030.7617	3034.0376	929.4	50.9
1030.8723	3035.0783	935.95	53.95
1030.9829	3036.1184	933.05	52.95
1031.0934	3037.1578	932.2	52.4
1031.2038	3038.1966	936.15	54.8
1031.3142	3039.2348	931.65	54.7
1031.4246	3040.2723	944	55.65
1031.5349	3041.3092	936.15	57.35
1031.6452	3042.3455	934.5	54.9
1031.7554	3043.3811	934.85	55.6
1031.8656	3044.4161	934.4	53.2
1031.9758	3045.4505	933.9	57.7
1032.0859	3046.4842	934.45	53.8
1032.1959	3047.5173	932.6	55.3
1032.3059	3048.5498	935.1	55.45
1032.4159	3049.5816	935.3	54.65
1032.5258	3050.6128	936.25	54.7
1032.6357	3051.6434	935.8	55.9
1032.7455	3052.6734	936.45	55.65
1032.8553	3053.7027	934	54.5
1032.9651	3054.7314	931.75	52.4
1033.0748	3055.7594	933	52.8
1033.1845	3056.7868	935.45	54.65
1033.2941	3057.8136	937.8	57.75
1033.4037	3058.8398	938.1	58.8
1033.5132	3059.8653	939.25	61.15
1033.6227	3060.8902	940.15	61.25
1033.7321	3061.9145	937.5	56.9
1033.8415	3062.9381	938.4	60.2
1033.9509	3063.9612	952.6	57.55
1034.0602	3064.9835	939.25	62.05
1034.1694	3066.0053	939.4	57.3
1034.2787	3067.0264	937.6	59.55
1034.3878	3068.0469	942.4	62.4
1034.497	3069.0668	941.9	59.45
1034.6061	3070.086	937.4	60
1034.7151	3071.1046	939.15	59.5
1034.8241	3072.1226	938.6	57.8
1034.9331	3073.1399	933.1	51.85
1035.042	3074.1567	934.45	55.2
1035.1508	3075.1727	934.4	54.4
1035.2597	3076.1882	931	51.85
1035.3684	3077.203	932.75	54.55
1035.4772	3078.2173	934.5	54.2
1035.5859	3079.2308	931.5	49.2
1035.6945	3080.2438	933.1	49.8
1035.8031	3081.2561	927.3	48.85
1035.9117	3082.2678	925.65	44.6
1036.0202	3083.2789	926.45	46
1036.1286	3084.2893	922.55	44.2
1036.2371	3085.2991	926	47.6
1036.3454	3086.3083	925.75	43.1
1036.4538	3087.3169	924.85	47.15
1036.562	3088.3248	922.05	42.4
1036.6703	3089.3321	922.2	42.25
1036.7785	3090.3388	921.75	43.85
1036.8866	3091.3449	919.75	42.05
1036.9948	3092.3503	922.8	39.7
1037.1028	3093.3551	915.85	38.35
1037.2108	3094.3593	917.4	37.85
1037.3188	3095.3629	915.3	37.1
1037.4267	3096.3658	918.45	38.5
1037.5346	3097.3681	918.65	39.85
1037.6425	3098.3698	916.2	34.1
1037.7503	3099.3708	917.2	39.35
1037.858	3100.3713	914.9	35.8
1037.9657	3101.3711	915.6	35.25
1038.0734	3102.3702	1050.85	37.2
1038.181	3103.3688	917.6	36.15
1038.2886	3104.3667	909.8	31.7
1038.3961	3105.364	911.2	31.9
1038.5036	3106.3607	913.8	34.85
1038.611	3107.3568	915.55	34.15
1038.7184	3108.3522	913.9	36.3
1038.8257	3109.347	910.7	30.4
1038.933	3110.3412	914.85	31.85
1039.0403	3111.3348	909.05	28.9
1039.1475	3112.3277	911.55	32.75
1039.2547	3113.32	906.95	28.15
1039.3618	3114.3117	907.95	27.45
1039.4689	3115.3028	907.75	28.5
1039.5759	3116.2932	912.05	29.55
1039.6829	3117.2831	911.05	26.45
1039.7898	3118.2723	906.05	26.95
1039.8967	3119.2608	906.25	26.9
1040.0035	3120.2488	907.1	27.2
1040.1103	3121.2361	906.1	27.75
1040.2171	3122.2229	906.1	27.25
1040.3238	3123.209	905.75	24.85
1040.4305	3124.1944	904.65	26.5
1040.5371	3125.1793	906.25	24.2
1040.6437	3126.1635	902.35	24.2
1040.7502	3127.1471	904.45	25.8
1040.8567	3128.1301	902.45	23.9
1040.9631	3129.1125	903.9	23.95
1041.0695	3130.0942	902.2	22.1
1041.1759	3131.0753	912.8	25.9
1041.2822	3132.0558	905.95	25.6
1041.3884	3133.0357	905.95	26.35
1041.4946	3134.015	904.1	23.05
1041.6008	3134.9936	903.25	23.1
1041.7069	3135.9716	923.15	21.95
1041.813	3136.949	903.65	25.9
1041.919	3137.9258	919.5	21.3
1042.025	3138.902	907.55	22.3
1042.1309	3139.8775	902.45	23.3
1042.2368	3140.8524	898.55	20.95
1042.3427	3141.8267	903.8	22.15
1042.4485	3142.8004	900.45	20.4
1042.5542	3143.7735	907.45	22.6
1042.6599	3144.7459	904.85	24.15
1042.7656	3145.7178	903.7	22.55
1042.8712	3146.689	898.5	18.65
1042.9768	3147.6596	901.15	20.3
1043.0823	3148.6295	899.45	20
1043.1878	3149.5989	899.35	18.45
1043.2932	3150.5676	899.35	22.05
1043.3986	3151.5357	898.3	20.9
1043.5039	3152.5032	896.65	18.1
1043.6092	3153.4701	897.85	18.85
1043.7145	3154.4364	901.7	20.1
1043.8197	3155.402	898.6	20.4
1043.9248	3156.367	901.55	21.35
1044.03	3157.3315	935.1	20.7
1044.135	3158.2952	897.9	18.3
1044.24	3159.2584	897.15	18.5
1044.345	3160.221	898.95	20.45
1044.4499	3161.1829	898.05	17.5
1044.5548	3162.1442	898.9	19.85
1044.6596	3163.105	897.05	17.85
1044.7644	3164.065	898.5	19.55
1044.8692	3165.0245	900.35	18.2
1044.9739	3165.9834	895.5	17.7
1045.0785	3166.9416	897.3	17.65
1045.1831	3167.8993	899.3	19.45
1045.2877	3168.8563	898.75	19.4
1045.3922	3169.8127	897.25	18.55
1045.4966	3170.7684	895.3	17.05
1045.6011	3171.7236	897.25	17.65
1045.7054	3172.6782	896.25	18.35
1045.8098	3173.6321	896.45	17.55
1045.914	3174.5854	902.25	17.4
1046.0183	3175.5381	896.3	18.15
1046.1224	3176.4902	895.75	17.65
1046.2266	3177.4417	896.6	17.85
1046.3307	3178.3926	895.5	17.15
1046.4347	3179.3428	895	17.25
1046.5387	3180.2924	895.4	19.15
1046.6427	3181.2415	897.7	18.45
1046.7466	3182.1899	895.65	15.35
1046.8504	3183.1377	894.45	16.85
1046.9542	3184.0848	895.2	10.85
1047.058	3185.0314	895.45	18
1047.1617	3185.9773	895	14.55
1047.2654	3186.9227	896.5	18.1
1047.369	3187.8674	894.9	13.5
1047.4726	3188.8115	900.15	17.6
1047.5761	3189.755	896.2	17.45
1047.6796	3190.6979	895.25	15.6
1047.783	3191.6402	892.65	13.25
1047.8864	3192.5818	893.45	15.6
1047.9898	3193.5229	920.55	16.55
1048.0931	3194.4633	892.55	14.5
1048.1963	3195.4031	892.75	13.75
1048.2995	3196.3423	893.75	14.55
1048.4027	3197.2809	893.3	14.85
1048.5058	3198.2189	893.3	14.05
1048.6089	3199.1563	899.2	13.3
1048.7119	3200.0931	891.1	13.2
1048.8148	3201.0292	890.7	12.05
1048.9178	3201.9648	893.2	14.5
1049.0206	3202.8997	898.7	18.3
1049.1235	3203.834	892.8	13.25
1049.2262	3204.7677	891.8	13.45
1049.329	3205.7008	895.05	14.45
1049.4317	3206.6333	890.6	15.05
1049.5343	3207.5652	894.2	12.85
1049.6369	3208.4964	895.85	17.3
1049.7394	3209.4271	892	12.5
1049.8419	3210.3571	890.85	12.05
1049.9444	3211.2865	893.95	14.35
1050.0468	3212.2154	893.15	13.3
1050.1491	3213.1436	896	13.5
1050.2514	3214.0712	898.25	13.1
1050.3537	3214.9982	891.3	12.95
1050.4559	3215.9246	892.5	11.35
1050.5581	3216.8503	890.6	12.4
1050.6602	3217.7755	891.6	11.7
1050.7623	3218.7001	891.75	13.4
1050.8643	3219.624	892.05	12.95
1050.9663	3220.5473	891.45	13.9
1051.0682	3221.4701	892.5	11.45
1051.1701	3222.3922	891.35	11.5
1051.2719	3223.3137	891.35	12.6
1051.3737	3224.2346	890.55	9.8
1051.4754	3225.1549	892.35	14.45
1051.5771	3226.0746	890.85	12.85
1051.6788	3226.9937	891.75	11.1
1051.7804	3227.9121	891.85	13.65
1051.8819	3228.83	890.9	13.7
1051.9834	3229.7473	892.75	14.85
1052.0849	3230.6639	889.45	9.85
1052.1863	3231.5799	889.35	10.6
1052.2876	3232.4954	890.95	11.6
1052.3889	3233.4102	891.35	14
1052.4902	3234.3244	891.1	10.65
1052.5914	3235.238	892.3	15.3
1052.6926	3236.151	914.5	12.15
1052.7937	3237.0634	890.25	11.4
1052.8948	3237.9752	889.75	11.6
1052.9958	3238.8864	891.45	10.9
1053.0968	3239.797	889.6	9.85
1053.1977	3240.7069	888.25	9.5
1053.2986	3241.6163	890.75	10.65
1053.3994	3242.5251	889.5	12.7
1053.5002	3243.4332	889.15	11.25
1053.6009	3244.3408	889.6	10.25
1053.7016	3245.2477	887.9	8.35
1053.8022	3246.154	892.2	11.75
1053.9028	3247.0598	889.95	10.75
1054.0034	3247.9649	889.4	11.45
1054.1039	3248.8694	887.6	8.9
1054.2043	3249.7733	888	9.7
1054.3047	3250.6766	889.45	10.05
1054.4051	3251.5793	888.25	9.05
1054.5054	3252.4814	888.25	9.5
1054.6056	3253.3829	887.25	7
1054.7058	3254.2838	888.05	9.95
1054.806	3255.1841	885.5	7.25
1054.9061	3256.0838	888.3	9.5
1055.0061	3256.9829	887.45	10.15
1055.1062	3257.8814	891.4	10
1055.2061	3258.7792	888.4	9.15
1055.306	3259.6765	888.7	10.8
1055.4059	3260.5731	887.4	8.35
1055.5057	3261.4692	889.75	9.3
1055.6055	3262.3647	888.85	7.75
1055.7052	3263.2595	887.85	10.5
1055.8049	3264.1538	887.45	7.95
1055.9045	3265.0474	887.2	8.4
1056.0041	3265.9404	884.75	5.2
1056.1036	3266.8329	886.9	6.9
1056.2031	3267.7247	895.75	6.4
1056.3025	3268.616	885.9	9.45
1056.4019	3269.5066	885.65	8.5
1056.5013	3270.3966	888.9	8.4
1056.6005	3271.286	883.9	5.7
