Software Version:	3.9.2.0
Unit SN:	10000200
Spectrometer SN:	6960
Date:	3/8/2024 11:09:24 AM
Data Line Index:	25
Spectral Points:	2048
Integration time (ms):	125
Averages:	20
Delay (ms):	30000
Sequence Number:	1
Processing:	dark subtract
Laser Power (mW):	300
Laser Current (mA):	817
Laser Diode Temp (C):	25
Laser Case Temp (C):	24.3
System Temp (C):	24.3
Spectrometer Temp (C):	22.3
CCD Temp (C):	0
Secondary Temp (C):	20.006
Heatsink Temp (C):	19.055
CCDPCB Temp (C):	32.728
SecondaryPCB Temp (C):	25.958

Wavelength	RamanShift	Raw Counts	Dark Subtracted
787.061	30.1047	435.7	24.8
787.2016	32.3739	434.95	27.15
787.3422	34.6426	441.8	31.05
787.4828	36.9109	444.2	32.95
787.6235	39.1787	448.3	32.1
787.7642	41.4461	456.8	36.45
787.9049	43.7131	462	40.2
788.0456	45.9796	467.15	40.05
788.1863	48.2456	474.55	46.2
788.3271	50.5112	479.5	45.75
788.4679	52.7764	486.35	49.25
788.6087	55.0411	492.85	52.35
788.7496	57.3054	504.4	57.95
788.8904	59.5692	508.05	62.25
789.0313	61.8326	517.15	68.7
789.1722	64.0955	521.5	69.2
789.3132	66.3579	534.55	79.05
789.4541	68.6199	546.75	84.15
789.5951	70.8815	577.9	113.95
789.7361	73.1426	624.6	156.45
789.8771	75.4032	751.85	279.5
790.0181	77.6634	1067.1	591.65
790.1592	79.9231	1803.5	1325.4
790.3003	82.1824	3275.25	2793.1
790.4414	84.4412	5818.05	5331.35
790.5825	86.6995	9117.35	8623
790.7237	88.9574	12250.6	11752.8
790.8648	91.2148	14359.25	13855.3
791.006	93.4717	15363.9	14856.95
791.1472	95.7282	15544.9	15038.6
791.2885	97.9842	15524.4	15013.8
791.4297	100.2398	15324.6	14812.4
791.571	102.4949	15131.55	14614.75
791.7123	104.7495	14908.7	14390.6
791.8536	107.0036	14667.45	14147
791.9949	109.2573	14434.95	13917.9
792.1363	111.5105	14168.55	13646.55
792.2777	113.7632	13755.1	13233.05
792.4191	116.0154	13347.8	12815.3
792.5605	118.2672	12908.5	12380.5
792.7019	120.5185	12448.25	11917.05
792.8434	122.7693	11943.25	11411.35
792.9849	125.0197	11553.85	11015.35
793.1264	127.2696	11184	10643.4
793.2679	129.519	10960.55	10417.3
793.4094	131.7679	10781.15	10232.6
793.551	134.0163	10665.6	10117.9
793.6926	136.2642	10613.15	10060.6
793.8342	138.5117	10574.55	10017.55
793.9758	140.7587	10473.1	9920.25
794.1175	143.0052	10355.4	9795.4
794.2591	145.2512	10154.1	9594.15
794.4008	147.4967	9884.2	9320.75
794.5425	149.7417	9635.8	9070.95
794.6842	151.9863	9458.95	8890.5
794.826	154.2304	9356.3	8782.4
794.9677	156.4739	9297.05	8719.1
795.1095	158.717	9363.2	8785.05
795.2513	160.9596	9475.65	8891.45
795.3931	163.2017	9637.05	9052.8
795.535	165.4433	9750.65	9166.3
795.6768	167.6844	9783.95	9194.75
795.8187	169.925	9656.6	9063
795.9606	172.1651	9407.65	8811.5
796.1025	174.4047	9186.6	8586.8
796.2445	176.6439	8989.9	8388.6
796.3864	178.8825	8807.6	8201.3
796.5284	181.1206	8705.45	8097.9
796.6704	183.3582	8651.05	8035.1
796.8124	185.5954	8619.45	8006.45
796.9544	187.832	8585.35	7967.35
797.0965	190.0681	8616.7	7996.65
797.2386	192.3037	8618.55	7993.9
797.3806	194.5388	8624.3	7999.85
797.5228	196.7734	8638.25	8012.55
797.6649	199.0075	8733.35	8105.9
797.807	201.2411	8831.25	8200.7
797.9492	203.4742	8928	8297.45
798.0914	205.7068	9058.5	8422.95
798.2336	207.9389	9144.8	8506.75
798.3758	210.1704	9196.6	8564.3
798.518	212.4015	9242.2	8620.15
798.6603	214.632	9277.65	8662.5
798.8025	216.862	9287.25	8672.85
798.9448	219.0915	9303.5	8685.65
799.0871	221.3205	9397.6	8777.4
799.2294	223.549	9440.4	8824.95
799.3718	225.777	9470.55	8854.35
799.5141	228.0044	9427.2	8802.5
799.6565	230.2314	9431.1	8806.05
799.7989	232.4578	9351.3	8721
799.9413	234.6837	9283.2	8643.2
800.0837	236.909	9236.9	8595.9
800.2262	239.1339	9166.8	8504.75
800.3687	241.3582	9105.5	8456.45
800.5111	243.582	9114	8435.1
800.6536	245.8053	9109	8442.25
800.7961	248.0281	9129	8467.05
800.9387	250.2503	9182.2	8517.95
801.0812	252.472	9194.3	8528.5
801.2238	254.6932	9228.65	8562.25
801.3664	256.9139	9231.3	8562.05
801.509	259.134	9289.7	8615.75
801.6516	261.3536	9364.55	8695.6
801.7942	263.5727	9522.55	8851.15
801.9369	265.7912	9721.35	9048.4
802.0795	268.0092	10001.65	9327.45
802.2222	270.2267	10295.95	9624.95
802.3649	272.4436	10544.2	9868.3
802.5076	274.6601	10696.15	10011.7
802.6504	276.8759	10822.35	10140.1
802.7931	279.0913	10921.55	10239.7
802.9359	281.3061	10983.8	10301.1
803.0787	283.5204	11106.05	10419.35
803.2215	285.7341	11253.4	10563.75
803.3643	287.9473	11364.45	10675.5
803.5071	290.16	11377.6	10683.75
803.6499	292.3721	11160.1	10474.95
803.7928	294.5837	10929.4	10241.35
803.9357	296.7947	10714.75	10026.3
804.0786	299.0052	10633.65	9945.35
804.2215	301.2152	10511.7	9819
804.3644	303.4246	10505.75	9815.65
804.5074	305.6334	10498.85	9809.55
804.6503	307.8418	10429.85	9735.6
804.7933	310.0495	10324.35	9628.4
804.9363	312.2568	10169.15	9472.45
805.0793	314.4635	9979	9279.45
805.2223	316.6696	9727.35	9024.35
805.3653	318.8752	9495.65	8785.5
805.5084	321.0802	9324.1	8622.1
805.6514	323.2847	9261.45	8557.75
805.7945	325.4887	9275	8572.1
805.9376	327.692	9359.25	8653.55
806.0807	329.8949	9550	8840.95
806.2238	332.0972	9803.7	9091.85
806.367	334.2989	10004.2	9290.8
806.5101	336.5001	10063.75	9351.35
806.6533	338.7007	9945.5	9233.25
806.7965	340.9008	9706.8	8992.65
806.9397	343.1003	9374.35	8656.35
807.0829	345.2992	9091.25	8374.9
807.2261	347.4976	8877.7	8159.45
807.3693	349.6955	8692.6	7967.35
807.5126	351.8927	8582.35	7858.45
807.6559	354.0895	8483	7749.35
807.7991	356.2856	8426.35	7698
807.9424	358.4812	8380.65	7652.9
808.0857	360.6763	8357.6	7628.6
808.2291	362.8707	8316.2	7584.1
808.3724	365.0646	8321.45	7586.65
808.5158	367.258	8338.7	7603
808.6591	369.4508	8404.25	7664.25
808.8025	371.643	8547.6	7808.7
808.9459	373.8346	8641.6	7899.35
809.0893	376.0257	8841.75	8097
809.2327	378.2162	8994.55	8251.95
809.3762	380.4062	9112.1	8369.65
809.5196	382.5956	9038.3	8297.9
809.6631	384.7844	8868.9	8131.4
809.8066	386.9726	8614.4	7880.7
809.9501	389.1603	8416.75	7682.45
810.0936	391.3474	8339.45	7561.75
810.2371	393.5339	8315.15	7576.1
810.3806	395.7199	8301.75	7566.55
810.5241	397.9052	8425.2	7688
810.6677	400.09	8644.35	7904.7
810.8113	402.2743	8860.6	8121.85
810.9548	404.4579	9054.75	8314.55
811.0984	406.641	9238.35	8493.65
811.2421	408.8235	9432	8686.1
811.3857	411.0054	9618.55	8870.8
811.5293	413.1868	9708.1	8956.25
811.673	415.3675	9686	8933.95
811.8166	417.5477	9606.75	8852.8
811.9603	419.7273	9530.2	8774.05
812.104	421.9064	9410.3	8647.3
812.2477	424.0848	9168.6	8410.5
812.3914	426.2627	8870.1	8111.45
812.5351	428.4399	8565.4	7805.15
812.6788	430.6166	8291.45	7525.65
812.8226	432.7928	8064.05	7298
812.9663	434.9683	7908.05	7143.45
813.1101	437.1432	7764.35	6997.6
813.2539	439.3176	7691.95	6926.7
813.3977	441.4914	7608.35	6843.35
813.5415	443.6645	7594.3	6827.35
813.6853	445.8371	7548.25	6781.7
813.8291	448.0091	7550.5	6784.95
813.973	450.1806	7537	6768.05
814.1168	452.3514	7512.05	6741.1
814.2607	454.5216	7563.2	6783.4
814.4046	456.6913	7523.6	6752.3
814.5485	458.8603	7555.6	6783.4
814.6924	461.0288	7603.3	6834.3
814.8363	463.1967	7584.35	6814.25
814.9802	465.3639	7567.55	6795.3
815.1241	467.5306	7533.3	6758.35
815.2681	469.6967	7485.4	6713.35
815.412	471.8622	7451.15	6676.35
815.556	474.0271	7444.95	6670.3
815.7	476.1914	7421.65	6645.7
815.844	478.3551	7403.55	6627.6
815.988	480.5182	7416.95	6640.95
816.132	482.6807	7413.65	6637.8
816.276	484.8426	7508.65	6732.45
816.4201	487.0039	7712.3	6934.25
816.5641	489.1647	7966.75	7186.15
816.7082	491.3248	8211.85	7431.8
816.8522	493.4843	8299.5	7518.5
816.9963	495.6432	8248.7	7466.3
817.1404	497.8015	8094.7	7310.05
817.2845	499.9592	7888	7106.5
817.4286	502.1163	7611.9	6829.3
817.5727	504.2728	7387.75	6601.3
817.7168	506.4287	7274.25	6489.35
817.861	508.5839	7163.4	6378.85
818.0051	510.7386	7133.75	6348.4
818.1493	512.8927	7126.9	6331.8
818.2935	515.0461	7138.6	6349.8
818.4377	517.199	7235.4	6445.85
818.5818	519.3512	7440.9	6652.2
818.726	521.5029	7788.3	6991.9
818.8703	523.6539	8125.2	7335.4
819.0145	525.8043	8215.75	7423.85
819.1587	527.9541	7967.15	7174.55
819.303	530.1033	7589.1	6796.15
819.4472	532.2519	7306.45	6513.45
819.5915	534.3999	7153.9	6356.85
819.7357	536.5472	7115.3	6321.25
819.88	538.694	7108.45	6314.2
820.0243	540.8401	7163.1	6368.2
820.1686	542.9856	7265.85	6469.1
820.3129	545.1305	7322.9	6526.15
820.4572	547.2748	7399.7	6602.05
820.6016	549.4185	7435.25	6637.35
820.7459	551.5615	7446.75	6646.55
820.8902	553.704	7516.3	6719.85
821.0346	555.8458	7609.05	6813.05
821.1789	557.987	7690.8	6892.75
821.3233	560.1276	7865.2	7066.2
821.4677	562.2675	8185.7	7389.1
821.6121	564.4069	8642.9	7844.05
821.7565	566.5456	8881.6	8082.7
821.9009	568.6837	8761.05	7959.75
822.0453	570.8212	8310.9	7512.15
822.1897	572.958	7816.35	7013.75
822.3342	575.0942	7426.6	6625.05
822.4786	577.2299	7226.5	6424.1
822.6231	579.3648	7127.7	6326.4
822.7675	581.4992	7059.3	6256.5
822.912	583.6329	7108.7	6307.45
823.0565	585.766	7260.9	6455.85
823.201	587.8985	7486.95	6683.6
823.3454	590.0304	7727.3	6909.25
823.4899	592.1616	7961.8	7153.3
823.6345	594.2922	8043.85	7237.95
823.779	596.4222	7890.3	7081.95
823.9235	598.5515	7609.1	6799.45
824.068	600.6802	7274.65	6464.55
824.2126	602.8083	7026.65	6217.1
824.3571	604.9358	6920.95	6112.25
824.5017	607.0626	6895.85	6085.7
824.6462	609.1888	6908.8	6095.5
824.7908	611.3144	7028.9	6217.25
824.9354	613.4393	7211.5	6401.55
825.08	615.5636	7481.05	6669.45
825.2246	617.6873	7743.3	6933.5
825.3692	619.8103	7928.65	7113.75
825.5138	621.9327	7967.25	7150.65
825.6584	624.0544	7837.95	7025.2
825.803	626.1756	7510.6	6697.35
825.9477	628.2961	7178	6363.15
826.0923	630.4159	7013.85	6201.35
826.237	632.5351	6970.7	6156.55
826.3816	634.6537	6926	6109.5
826.5263	636.7716	6889.35	6071.15
826.6709	638.8889	6881.4	6063.45
826.8156	641.0056	6932.2	6116.15
826.9603	643.1216	7007.15	6188.1
827.105	645.237	7052.75	6230.65
827.2497	647.3518	6951.75	6134.2
827.3944	649.4659	6806.85	5988.8
827.5391	651.5793	6686.75	5868.5
827.6838	653.6922	6591.8	5773.65
827.8285	655.8043	6509.8	5691.05
827.9733	657.9159	6466.55	5643.1
828.118	660.0268	6428.4	5605.5
828.2627	662.137	6405.9	5584.2
828.4075	664.2466	6418.55	5594.4
828.5522	666.3556	6413.55	5591.2
828.697	668.4639	6385.4	5560.35
828.8418	670.5716	6332.1	5510.55
828.9865	672.6786	6301.1	5475.75
829.1313	674.785	6279	5453
829.2761	676.8907	6258.95	5431.35
829.4209	678.9958	6251.8	5426.9
829.5657	681.1002	6214.4	5389.05
829.7105	683.204	6222.8	5393
829.8553	685.3072	6232.8	5405.35
830.0001	687.4097	6235.6	5409.1
830.1449	689.5115	6232.3	5404.5
830.2898	691.6127	6221.45	5396.25
830.4346	693.7132	6185.45	5358.4
830.5794	695.8131	6185.8	5345.85
830.7243	697.9123	6208.15	5379.7
830.8691	700.0109	6201.25	5373.8
831.014	702.1089	6266.65	5439.45
831.1588	704.2061	6336.1	5507.95
831.3037	706.3028	6461.85	5632.4
831.4486	708.3987	6575.25	5745.75
831.5935	710.4941	6659.05	5828.1
831.7383	712.5887	6718.45	5887.85
831.8832	714.6827	6691.3	5856.5
832.0281	716.7761	6618.15	5786.1
832.173	718.8688	6573.8	5740.4
832.3179	720.9608	6560	5722.2
832.4628	723.0522	6608.4	5772.35
832.6077	725.1429	6687.1	5856.3
832.7527	727.233	6849.9	6018.6
832.8976	729.3224	7144.7	6312.5
833.0425	731.4112	7450.05	6613.35
833.1874	733.4993	7584.1	6748.35
833.3324	735.5867	7415.4	6579.65
833.4773	737.6735	6985.25	6147.75
833.6222	739.7596	6644.15	5807.2
833.7672	741.845	6410.2	5573.8
833.9122	743.9298	6296.05	5458.75
834.0571	746.014	6228.7	5393.9
834.2021	748.0974	6234.25	5395
834.347	750.1802	6230.45	5392.7
834.492	752.2624	6228.45	5390.05
834.637	754.3439	6244.35	5404.75
834.782	756.4247	6273.7	5429.35
834.9269	758.5048	6326.35	5487.8
835.0719	760.5843	6437.4	5599.7
835.2169	762.6631	6583.9	5745.05
835.3619	764.7413	6894.6	6058.5
835.5069	766.8188	7305.95	6464.5
835.6519	768.8956	7765.7	6924.05
835.7969	770.9718	8101.9	7262.45
835.9419	773.0473	8064.7	7226.2
836.0869	775.1221	7901.1	7062.55
836.232	777.1962	7784.5	6944.85
836.377	779.2697	8063.3	7219.95
836.522	781.3426	8637.4	7779.95
836.667	783.4147	9085.65	8243
836.8121	785.4862	9149.75	8310.95
836.9571	787.557	8738.95	7900
837.1021	789.6271	8065.35	7223.05
837.2472	791.6966	7345.6	6502.9
837.3922	793.7654	6781.6	5938.1
837.5373	795.8335	6441	5600.75
837.6823	797.901	6233.8	5392.6
837.8274	799.9678	6158.2	5313.2
837.9724	802.0339	6154.55	5311.5
838.1175	804.0993	6192.7	5342.6
838.2626	806.1641	6190	5346.4
838.4076	808.2282	6125.2	5282
838.5527	810.2916	6040.05	5194.7
838.6978	812.3544	5974.3	5133.55
838.8428	814.4164	5898.3	5056.25
838.9879	816.4778	5939.95	5095.45
839.133	818.5385	5973.3	5128.05
839.2781	820.5986	6134.2	5290.25
839.4232	822.658	6407.65	5562
839.5682	824.7166	6768.05	5922.85
839.7133	826.7747	7192.15	6347.35
839.8584	828.832	7602.1	6756.55
840.0035	830.8886	7921.2	7072.5
840.1486	832.9446	8125.9	7277.35
840.2937	834.9999	8023.55	7177.9
840.4388	837.0545	7669.75	6818.65
840.5839	839.1085	7230.25	6384.35
840.729	841.1618	6796.6	5945.8
840.8741	843.2143	6481	5636.65
841.0192	845.2662	6275.85	5430.35
841.1643	847.3175	6145.05	5297.7
841.3095	849.368	6112.75	5266.5
841.4546	851.4179	6082.5	5234.6
841.5997	853.467	6074.85	5226.6
841.7448	855.5155	6102	5254.15
841.8899	857.5633	6139.45	5288.1
842.0351	859.6105	6116.4	5268.4
842.1802	861.6569	6054.6	5206.5
842.3253	863.7027	5975.35	5125.05
842.4704	865.7478	5905.65	5055.3
842.6156	867.7922	5832.3	4982.6
842.7607	869.8359	5789.7	4942.3
842.9058	871.8789	5752.65	4901.65
843.0509	873.9212	5775	4892.85
843.1961	875.9629	5751.1	4902.5
843.3412	878.0039	5798	4947.9
843.4863	880.0441	5896.15	5045.65
843.6315	882.0837	6001.85	5148.45
843.7766	884.1226	6121.8	5268.15
843.9218	886.1609	6295.1	5444.9
844.0669	888.1984	6550.15	5700.6
844.212	890.2352	6836.15	5985.4
844.3572	892.2714	6918	6060.85
844.5023	894.3069	6813.65	5960.3
844.6475	896.3416	6527.75	5675.85
844.7926	898.3757	6289.55	5436.85
844.9377	900.4091	6121.1	5267.9
845.0829	902.4418	6135.7	5279.45
845.228	904.4739	6243.2	5388.85
845.3732	906.5052	6381.55	5528.65
845.5183	908.5358	6392.9	5540.2
845.6635	910.5658	6300.45	5444.85
845.8086	912.595	6134.15	5281.2
845.9538	914.6236	5917.75	5066.45
846.0989	916.6515	5764.25	4908.95
846.2441	918.6786	5673.35	4816.45
846.3892	920.7051	5615.1	4756.7
846.5344	922.7309	5610.45	4756.55
846.6795	924.756	5601.95	4746.35
846.8246	926.7804	5654.1	4798.8
846.9698	928.8041	5700.4	4842.1
847.1149	930.8272	5801.4	4946.4
847.2601	932.8495	5849.45	4994
847.4052	934.8711	5892.6	5035.9
847.5504	936.892	5895.35	5041
847.6955	938.9123	6011.9	5153.65
847.8407	940.9318	6167.6	5313.4
847.9858	942.9506	6269.5	5412.25
848.131	944.9688	6256.35	5399.55
848.2761	946.9862	6130.8	5274.3
848.4213	949.003	5950.85	5092.25
848.5664	951.019	5824.2	4967.35
848.7115	953.0344	5732.35	4874.65
848.8567	955.0491	5646	4786.1
849.0018	957.063	5604.05	4746.75
849.147	959.0763	5581.8	4726.1
849.2921	961.0888	5559.15	4700.2
849.4373	963.1007	5569.55	4711.35
849.5824	965.1119	5521.25	4664.1
849.7275	967.1223	5468.7	4611.55
849.8727	969.1321	5420.75	4563.6
850.0178	971.1412	5413.7	4558.25
850.1629	973.1495	5382.1	4524.25
850.3081	975.1572	5393.45	4496.05
850.4532	977.1641	5416.1	4560
850.5983	979.1704	5428.6	4569.75
850.7435	981.1759	5406.5	4544.15
850.8886	983.1808	5380.6	4519.75
851.0337	985.1849	5315.35	4447.3
851.1788	987.1884	5297.35	4437
851.324	989.1911	5325.05	4460.9
851.4691	991.1932	5369.95	4511.35
851.6142	993.1945	5390.3	4530.6
851.7593	995.1951	5394.35	4534.2
851.9045	997.1951	5370.6	4504.05
852.0496	999.1943	5356.45	4495.95
852.1947	1001.1928	5351.6	4491.35
852.3398	1003.1906	5399.6	4539.65
852.4849	1005.1877	5532.5	4670.85
852.63	1007.1841	5668.65	4805.8
852.7751	1009.1798	5781.7	4921.75
852.9202	1011.1748	5737.5	4877.55
853.0653	1013.1691	5619.8	4756.35
853.2104	1015.1627	5445.15	4583.2
853.3555	1017.1556	5272.25	4411.5
853.5006	1019.1477	5180.2	4318.1
853.6457	1021.1392	5087.35	4229.75
853.7908	1023.1299	5053.05	4192.85
853.9359	1025.12	5033.35	4169.9
854.081	1027.1093	5059.8	4200.55
854.2261	1029.0979	5171	4312.6
854.3712	1031.0859	5284.65	4424.95
854.5163	1033.0731	5372.4	4509.2
854.6613	1035.0596	5388.6	4526.85
854.8064	1037.0454	5362.1	4501.9
854.9515	1039.0304	5301.85	4437.25
855.0965	1041.0148	5184.4	4323.85
855.2416	1042.9985	5075.35	4212.75
855.3867	1044.9814	4994.8	4133.35
855.5317	1046.9636	4957.6	4093.75
855.6768	1048.9452	4995.95	4134.5
855.8219	1050.926	5073.9	4211.25
855.9669	1052.9061	5175.05	4312.5
856.112	1054.8855	5235.8	4372.3
856.257	1056.8642	5250.95	4387.4
856.4021	1058.8421	5234.6	4366.05
856.5471	1060.8194	5210.65	4347.2
856.6921	1062.7959	5188.05	4324.5
856.8372	1064.7717	5174.85	4308.3
856.9822	1066.7469	5173.4	4307.7
857.1272	1068.7213	5180.05	4311.65
857.2723	1070.695	5264	4401.05
857.4173	1072.6679	5360.75	4497.45
857.5623	1074.6402	5510.95	4644.95
857.7073	1076.6117	5599.1	4728
857.8523	1078.5826	5543.05	4678.05
857.9973	1080.5527	5360.3	4491.6
858.1423	1082.5221	5151.9	4288.65
858.2873	1084.4908	4980.4	4114.8
858.4323	1086.4587	4892.15	4026.15
858.5773	1088.426	4832.15	3965.6
858.7223	1090.3925	4804.95	3932.65
858.8673	1092.3584	4828.75	3963.7
859.0123	1094.3235	4880.85	4016.65
859.1573	1096.2879	4955.75	4089.3
859.3022	1098.2515	5072.4	4207.1
859.4472	1100.2145	5204	4338.3
859.5922	1102.1767	5364.3	4495.05
859.7371	1104.1382	5603.8	4738.85
859.8821	1106.099	5890.35	5021.9
860.027	1108.0591	6163.85	5298.2
860.172	1110.0185	6395.15	5528.15
860.3169	1111.9771	6570.3	5703.7
860.4619	1113.9351	6827.2	5961.45
860.6068	1115.8923	7195.65	6328.2
860.7517	1117.8488	7483.85	6614.05
860.8967	1119.8045	7311.3	6444.2
861.0416	1121.7596	6854.9	5988.1
861.1865	1123.7139	6241.7	5374.35
861.3314	1125.6675	5852.75	4985.25
861.4763	1127.6204	5769.7	4902.05
861.6212	1129.5726	5879	5011.85
861.7661	1131.524	5926.15	5059.65
861.911	1133.4748	5754.95	4889.1
862.0559	1135.4248	5449.25	4580.25
862.2008	1137.3741	5143.15	4274.65
862.3457	1139.3226	4982.4	4113.45
862.4905	1141.2705	4940.8	4071.9
862.6354	1143.2176	4990.15	4117.8
862.7803	1145.164	5062.1	4192.4
862.9251	1147.1097	5095.35	4228.9
863.07	1149.0546	4996.35	4127.55
863.2148	1150.9989	4872.25	4004.95
863.3597	1152.9424	4767.65	3899.2
863.5045	1154.8852	4651.5	3783.65
863.6493	1156.8272	4620.15	3753.1
863.7942	1158.7686	4612.7	3736.55
863.939	1160.7092	4600.75	3731.45
864.0838	1162.6491	4600.35	3729.45
864.2286	1164.5883	4662.65	3793.55
864.3734	1166.5267	4743.25	3873.25
864.5182	1168.4644	4867.15	3997.85
864.663	1170.4014	5024.95	4156.25
864.8078	1172.3377	5203.9	4338.8
864.9526	1174.2732	5470.7	4604.5
865.0974	1176.2081	5897.65	5029.55
865.2421	1178.1421	6481.9	5610.7
865.3869	1180.0755	7232.75	6362.25
865.5317	1182.0082	7727.95	6858.95
865.6764	1183.9401	7807.7	6938.55
865.8212	1185.8713	7395.3	6528.65
865.9659	1187.8017	6698.9	5831
866.1106	1189.7315	6051.8	5184.05
866.2554	1191.6605	5568.05	4671.05
866.4001	1193.5888	5253.9	4385.75
866.5448	1195.5163	5084.7	4216.3
866.6895	1197.4432	4945.3	4073.1
866.8342	1199.3693	4846.8	3978.55
866.9789	1201.2947	4751.8	3875.35
867.1236	1203.2193	4705.4	3834.05
867.2683	1205.1432	4687.45	3817.55
867.413	1207.0664	4663.25	3791.95
867.5576	1208.9889	4667.8	3796.15
867.7023	1210.9106	4674.3	3804.3
867.847	1212.8316	4678.2	3810
867.9916	1214.7519	4713.55	3834.6
868.1363	1216.6715	4789.35	3920.25
868.2809	1218.5903	4863.25	3992.65
868.4255	1220.5084	4922.85	4052.85
868.5701	1222.4257	4998.2	4127.55
868.7148	1224.3424	5039.95	4171
868.8594	1226.2583	5136.65	4262.1
869.004	1228.1735	5274.3	4402.45
869.1486	1230.0879	5444.85	4573.65
869.2932	1232.0016	5688.7	4819.45
869.4377	1233.9146	5854.15	4981.4
869.5823	1235.8269	5967.15	5097.05
869.7269	1237.7384	5975.3	5105.2
869.8715	1239.6492	5947.9	5078.55
870.016	1241.5592	6011.5	5140.45
870.1606	1243.4686	6176.2	5305.05
870.3051	1245.3772	6547.9	5677.6
870.4496	1247.285	7014.65	6144.35
870.5941	1249.1922	7449.25	6577.3
870.7387	1251.0986	7845.5	6972.95
870.8832	1253.0042	8199.85	7327.9
871.0277	1254.9092	8638.1	7765.45
871.1722	1256.8134	9149	8279.65
871.3167	1258.7169	9739.55	8865.1
871.4611	1260.6196	10158.5	9287.1
871.6056	1262.5216	10486.35	9611.85
871.7501	1264.4229	10540.55	9670.75
871.8945	1266.3234	10406	9533.8
872.039	1268.2232	10112.2	9238.75
872.1834	1270.1223	9755.9	8882.55
872.3278	1272.0207	9502.65	8630.95
872.4723	1273.9183	9394.5	8514.4
872.6167	1275.8151	9344	8471.9
872.7611	1277.7113	9501.65	8629.65
872.9055	1279.6067	9873	9000.8
873.0499	1281.5014	10610.15	9731.95
873.1943	1283.3953	11650.4	10775.1
873.3386	1285.2885	12824	11952.2
873.483	1287.181	13829.05	12957.85
873.6274	1289.0727	14296.95	13426.55
873.7717	1290.9637	14106.5	13233.7
873.9161	1292.854	13439.95	12569.25
874.0604	1294.7435	12601.25	11729.3
874.2047	1296.6323	11839.15	10965.6
874.349	1298.5204	11164.75	10288.4
874.4933	1300.4077	10640.2	9765.75
874.6376	1302.2943	10258.9	9386.3
874.7819	1304.1802	10005.85	9132.25
874.9262	1306.0653	9757.35	8882.75
875.0705	1307.9497	9570.85	8698.8
875.2147	1309.8333	9468	8594.85
875.359	1311.7162	9332.9	8459.65
875.5032	1313.5984	9194.3	8316.75
875.6475	1315.4798	9119.5	8236.55
875.7917	1317.3605	9142.75	8252.15
875.9359	1319.2405	9237.05	8360.1
876.0801	1321.1197	9288.6	8412.8
876.2243	1322.9982	9170.3	8293.25
876.3685	1324.876	8893.85	8020.9
876.5127	1326.753	8462.65	7589.95
876.6569	1328.6293	7950.15	7073.65
876.801	1330.5048	7385.45	6509.55
876.9452	1332.3796	6857.1	5984.45
877.0893	1334.2537	6462.9	5564.65
877.2335	1336.127	6164.1	5292.9
877.3776	1337.9996	5964.05	5091.5
877.5217	1339.8714	5825.65	4952.75
877.6658	1341.7426	5739.4	4821.1
877.8099	1343.6129	5613.6	4738.9
877.954	1345.4826	5520.1	4645.35
878.0981	1347.3515	5409.95	4533.75
878.2422	1349.2196	5334.75	4461.35
878.3862	1351.087	5273.95	4401.35
878.5303	1352.9537	5248.9	4374.1
878.6743	1354.8197	5268.95	4395.75
878.8184	1356.6849	5302.75	4428.55
878.9624	1358.5493	5363.25	4488.95
879.1064	1360.4131	5479.4	4603
879.2504	1362.276	5689.35	4813.45
879.3944	1364.1383	5908.3	5036.8
879.5384	1365.9998	6001.2	5122.4
879.6823	1367.8606	5974.3	5101.5
879.8263	1369.7206	5941.75	5069
879.9702	1371.5799	5967.9	5091.55
880.1142	1373.4384	5946.95	5073.2
880.2581	1375.2962	5810.35	4934.15
880.402	1377.1533	5558.75	4684.8
880.5459	1379.0096	5300.7	4427.75
880.6898	1380.8652	5106.35	4232.05
880.8337	1382.7201	4944.05	4070.5
880.9776	1384.5742	4806.7	3933.25
881.1215	1386.4275	4654.05	3776.85
881.2653	1388.2802	4546.85	3672.9
881.4092	1390.132	4487.8	3613.55
881.553	1391.9832	4439.2	3564.25
881.6968	1393.8336	4396.05	3521.15
881.8406	1395.6832	4357.45	3480.75
881.9844	1397.5322	4343.3	3469.1
882.1282	1399.3803	4289.25	3409.2
882.272	1401.2278	4228.3	3352.45
882.4158	1403.0745	4192.75	3318.1
882.5595	1404.9204	4121.25	3246.95
882.7033	1406.7656	4108.9	3233.35
882.847	1408.6101	4074.1	3199.85
882.9908	1410.4538	4059.75	3184.9
883.1345	1412.2968	4065.1	3190.25
883.2782	1414.139	4069.1	3194.55
883.4219	1415.9805	4106.8	3232.4
883.5656	1417.8213	4158.7	3275.3
883.7092	1419.6613	4260.25	3388
883.8529	1421.5006	4404.9	3525.8
883.9965	1423.3391	4614.95	3738.45
884.1402	1425.1769	4894.9	4019.05
884.2838	1427.0139	5295.45	4421.65
884.4274	1428.8502	5796.6	4921.65
884.571	1430.6858	6192.5	5316.15
884.7146	1432.5206	6388	5513.8
884.8582	1434.3547	6372.2	5496.05
885.0018	1436.188	6295.75	5420.4
885.1453	1438.0206	6204.55	5329.35
885.2889	1439.8524	6153.4	5277.4
885.4324	1441.6835	6125.75	5250
885.5759	1443.5139	6108.4	5227.9
885.7194	1445.3435	6147.9	5273.95
885.8629	1447.1724	6177.55	5302.5
886.0064	1449.0005	6144.2	5272.15
886.1499	1450.8279	6112.15	5237.55
886.2933	1452.6545	6087.35	5212.25
886.4368	1454.4804	6062.3	5189.7
886.5802	1456.3056	6018	5134.9
886.7237	1458.13	5914.25	5038.75
886.8671	1459.9536	5785.5	4910.5
887.0105	1461.7766	5618.9	4743.2
887.1539	1463.5987	5402	4524.25
887.2972	1465.4202	5185.8	4310.25
887.4406	1467.2409	4988.6	4111.6
887.584	1469.0608	4801.8	3926.75
887.7273	1470.88	4616.1	3739.35
887.8706	1472.6984	4456.8	3582.65
888.0139	1474.5161	4322.75	3444.25
888.1572	1476.3331	4210.8	3335.85
888.3005	1478.1493	4149.5	3272.45
888.4438	1479.9648	4142.2	3266.6
888.5871	1481.7795	4101.6	3223.85
888.7303	1483.5935	4119.6	3245.35
888.8736	1485.4067	4120.1	3244.25
889.0168	1487.2192	4146.75	3270.1
889.16	1489.031	4172.15	3295.95
889.3032	1490.842	4168.15	3294.2
889.4464	1492.6522	4147.1	3272.8
889.5896	1494.4618	4147.9	3271.85
889.7327	1496.2705	4146.95	3272
889.8759	1498.0785	4116.05	3238.3
890.019	1499.8858	4096.8	3219.9
890.1622	1501.6924	4057.15	3182.75
890.3053	1503.4981	4035.25	3158.7
890.4484	1505.3032	3992.65	3115.8
890.5914	1507.1075	3961.05	3086.1
890.7345	1508.911	3925.3	3049.05
890.8776	1510.7138	3887.4	3009.45
891.0206	1512.5159	3865.15	2988.95
891.1637	1514.3172	3837	2960.9
891.3067	1516.1178	3792.75	2917.6
891.4497	1517.9176	3774.1	2895.75
891.5927	1519.7166	3725.5	2852.35
891.7357	1521.515	3713.2	2829.8
891.8786	1523.3126	3696.15	2821.7
892.0216	1525.1094	3681.4	2802.45
892.1645	1526.9055	3638.85	2763.85
892.3074	1528.7008	3624.45	2746.8
892.4503	1530.4954	3611.7	2731.55
892.5932	1532.2893	3583.35	2709.7
892.7361	1534.0824	3587.35	2706.7
892.879	1535.8747	3588.1	2711.75
893.0218	1537.6663	3576.6	2698.5
893.1647	1539.4572	3578.1	2699.9
893.3075	1541.2473	3561.25	2683.1
893.4503	1543.0367	3584.15	2710.8
893.5931	1544.8253	3581.4	2699.45
893.7359	1546.6132	3606.65	2728.7
893.8787	1548.4003	3618.95	2733.55
894.0214	1550.1867	3659.55	2774.15
894.1642	1551.9723	3705.2	2823.8
894.3069	1553.7572	3776.95	2897.75
894.4496	1555.5414	3884.25	3007.1
894.5923	1557.3247	4012.6	3135.55
894.735	1559.1074	4204.7	3328.1
894.8777	1560.8893	4431.85	3556.2
895.0204	1562.6705	4653	3776.95
895.163	1564.4509	4836.1	3960.2
895.3056	1566.2305	4929.95	4055.3
895.4482	1568.0094	4972.55	4096.65
895.5908	1569.7876	4971.05	4096.7
895.7334	1571.565	4958.15	4081.8
895.876	1573.3417	4969.15	4091.95
896.0186	1575.1176	5002.55	4126.6
896.1611	1576.8928	5106	4227.35
896.3036	1578.6672	5210.05	4336.45
896.4461	1580.4409	5388.05	4515.3
896.5886	1582.2138	5614.3	4736.25
896.7311	1583.986	5843	4967
896.8736	1585.7575	6107.75	5232.35
897.0161	1587.5282	6333	5458.7
897.1585	1589.2981	6526.35	5650.1
897.3009	1591.0673	6622.65	5745.4
897.4433	1592.8358	6647.85	5771.75
897.5857	1594.6035	6649.7	5773
897.7281	1596.3704	6586.95	5711.5
897.8705	1598.1366	6461.4	5585.5
898.0128	1599.9021	6323.6	5447.55
898.1551	1601.6668	6145.35	5267.2
898.2975	1603.4308	6010.85	5133.4
898.4398	1605.194	5985.25	5104.25
898.5821	1606.9564	6078.2	5202.65
898.7243	1608.7182	6351.25	5472.25
898.8666	1610.4791	6818.8	5942
899.0088	1612.2394	7412.05	6539.3
899.1511	1613.9988	8088.05	7210.35
899.2933	1615.7576	8695.55	7819.75
899.4355	1617.5156	9023.2	8140.7
899.5776	1619.2728	9000.4	8123.75
899.7198	1621.0293	8601.65	7726.25
899.862	1622.785	7964.3	7083.5
900.0041	1624.54	7211.4	6332.2
900.1462	1626.2942	6491.45	5614.4
900.2883	1628.0477	5836.95	4956.6
900.4304	1629.8005	5298.5	4419.3
900.5725	1631.5525	4852.6	3977.45
900.7145	1633.3037	4524.55	3649.8
900.8566	1635.0542	4262.7	3385.4
900.9986	1636.804	4053.1	3178.15
901.1406	1638.553	3942.05	3005.15
901.2826	1640.3013	3769.5	2893.85
901.4245	1642.0488	3643.7	2767.55
901.5665	1643.7955	3563.8	2686.4
901.7085	1645.5416	3493.5	2616.4
901.8504	1647.2868	3439.25	2562.55
901.9923	1649.0313	3392.55	2515.85
902.1342	1650.7751	3366.2	2487.15
902.2761	1652.5181	3337.25	2461.8
902.4179	1654.2604	3331.05	2455.25
902.5598	1656.0019	3356.5	2482.25
902.7016	1657.7427	3403.1	2526.3
902.8434	1659.4828	3486.45	2612.3
902.9852	1661.222	3640.35	2764.45
903.127	1662.9606	3861	2985.2
903.2687	1664.6984	4091.85	3216.5
903.4105	1666.4354	4224.25	3347.15
903.5522	1668.1717	4216.4	3341.1
903.6939	1669.9072	4020.2	3143.5
903.8356	1671.642	3778.6	2897.5
903.9773	1673.3761	3499.8	2626
904.119	1675.1094	3294.35	2416.25
904.2606	1676.8419	3127.95	2252.95
904.4022	1678.5737	3036.5	2160.1
904.5439	1680.3048	2955.3	2076.8
904.6855	1682.0351	2909.8	2034.75
904.827	1683.7646	2847.25	1966.4
904.9686	1685.4934	2821.05	1945.5
905.1101	1687.2215	2799.9	1923.5
905.2517	1688.9488	2775.4	1900.95
905.3932	1690.6754	2747.45	1873.35
905.5347	1692.4012	2741	1865.15
905.6761	1694.1263	2727.15	1850.55
905.8176	1695.8506	2710.7	1833.8
905.9591	1697.5742	2699.65	1824.2
906.1005	1699.297	2680	1804.15
906.2419	1701.0191	2665.55	1790.05
906.3833	1702.7404	2654.6	1778.35
906.5246	1704.461	2637.45	1758.6
906.666	1706.1808	2627.15	1748.15
906.8073	1707.8999	2624.3	1746.75
906.9487	1709.6182	2606.95	1729.4
907.09	1711.3358	2597.35	1720.95
907.2313	1713.0527	2591.25	1718.1
907.3725	1714.7688	2578.95	1693.4
907.5138	1716.4841	2572.45	1695.25
907.655	1718.1987	2558.55	1679.15
907.7962	1719.9126	2559.55	1684
907.9374	1721.6257	2536.85	1657.5
908.0786	1723.338	2531.55	1653.25
908.2198	1725.0496	2516.15	1639.15
908.3609	1726.7605	2515.95	1640.1
908.502	1728.4706	2510.65	1632.75
908.6431	1730.18	2502.9	1624.1
908.7842	1731.8886	2504.95	1627.85
908.9253	1733.5964	2501.45	1604.2
909.0664	1735.3036	2481.85	1604.4
909.2074	1737.0099	2482.8	1605.9
909.3484	1738.7156	2475.55	1600.45
909.4894	1740.4204	2461.4	1581.45
909.6304	1742.1246	2461.1	1585.55
909.7714	1743.8279	2445.15	1569.1
909.9123	1745.5306	2457.3	1581.45
910.0532	1747.2325	2444.05	1566.4
910.1941	1748.9336	2431.9	1555.75
910.335	1750.634	2425.45	1549.05
910.4759	1752.3336	2431.95	1553.95
910.6168	1754.0325	2424.65	1550.1
910.7576	1755.7307	2419.2	1542.85
910.8984	1757.4281	2422.1	1544.75
911.0392	1759.1247	2416.7	1530.65
911.18	1760.8206	2413.6	1531.6
911.3208	1762.5158	2419.85	1540.6
911.4615	1764.2102	2404.4	1528.05
911.6022	1765.9039	2387.6	1508.75
911.7429	1767.5968	2391.35	1513.2
911.8836	1769.289	2388.05	1512.9
912.0243	1770.9804	2379.55	1502.55
912.1649	1772.6711	2376.3	1500.35
912.3056	1774.361	2378.7	1499.55
912.4462	1776.0502	2366.9	1488.3
912.5868	1777.7386	2364.45	1484.2
912.7274	1779.4263	2353.9	1475.2
912.8679	1781.1132	2366.15	1489.2
913.0084	1782.7994	2352.2	1470.05
913.149	1784.4849	2345.85	1468.6
913.2895	1786.1696	2353.95	1457.45
913.4299	1787.8535	2336.55	1462.65
913.5704	1789.5367	2340.1	1463.15
913.7108	1791.2192	2326.6	1450.95
913.8513	1792.9009	2331.2	1439.9
913.9917	1794.5818	2319.5	1442.7
914.132	1796.2621	2314.25	1438
914.2724	1797.9415	2322.85	1446.3
914.4128	1799.6202	2311.8	1434.85
914.5531	1801.2982	2298.1	1422.05
914.6934	1802.9755	2296.85	1420.85
914.8337	1804.6519	2288	1412.7
914.9739	1806.3277	2285.4	1408.65
915.1142	1808.0027	2290.35	1414.05
915.2544	1809.6769	2283.25	1405.45
915.3946	1811.3504	2280.45	1403.55
915.5348	1813.0231	2269.65	1391.75
915.675	1814.6951	2275.9	1397.4
915.8151	1816.3664	2276.85	1398.5
915.9553	1818.0369	2275.35	1398.05
916.0954	1819.7067	2259.3	1383.75
916.2355	1821.3757	2252.45	1373.3
916.3755	1823.044	2263.85	1388.25
916.5156	1824.7115	2251.7	1375.1
916.6556	1826.3783	2237.3	1362.8
916.7956	1828.0443	2223.55	1349.45
916.9356	1829.7096	2240.75	1363.1
917.0756	1831.3741	2243.45	1362.65
917.2155	1833.0379	2229.15	1351.4
917.3555	1834.701	2224.55	1344.95
917.4954	1836.3633	2225.95	1347.45
917.6353	1838.0248	2213.5	1335.6
917.7751	1839.6856	2215.35	1339.35
917.915	1841.3457	2225.25	1349.3
918.0548	1843.005	2209.75	1333.25
918.1946	1844.6636	2211.8	1336.15
918.3344	1846.3214	2213.35	1334.95
918.4742	1847.9785	2218.4	1343.5
918.6139	1849.6349	2205.45	1330
918.7537	1851.2904	2201.4	1315.35
918.8934	1852.9453	2196.1	1320.75
919.0331	1854.5994	2200.25	1319.6
919.1727	1856.2528	2204	1321.6
919.3124	1857.9054	2198.55	1321.8
919.452	1859.5572	2194.95	1318.95
919.5916	1861.2083	2182.25	1302.25
919.7312	1862.8587	2180.1	1304.8
919.8708	1864.5084	2181.6	1303.9
920.0103	1866.1572	2182.4	1307.75
920.1498	1867.8054	2171.6	1292.6
920.2893	1869.4528	2158.8	1283.7
920.4288	1871.0994	2169.55	1293.35
920.5683	1872.7453	2163.4	1287.8
920.7077	1874.3905	2166.7	1282.75
920.8471	1876.0349	2156.15	1279.3
920.9865	1877.6786	2147.55	1267.95
921.1259	1879.3215	2144.45	1267.55
921.2653	1880.9637	2155.05	1276.1
921.4046	1882.6051	2143.05	1265.55
921.5439	1884.2458	2133.5	1254.75
921.6832	1885.8858	2143.25	1263.5
921.8225	1887.525	2131.8	1254.15
921.9617	1889.1634	2116.2	1241
922.101	1890.8011	2124.15	1246.4
922.2402	1892.4381	2112.65	1236.55
922.3794	1894.0743	2120	1242.65
922.5185	1895.7098	2103.2	1226.5
922.6577	1897.3446	2100.4	1222.25
922.7968	1898.9786	2109.15	1226.5
922.9359	1900.6118	2098.2	1222.95
923.075	1902.2443	2092.15	1211.4
923.214	1903.8761	2094.05	1217.5
923.3531	1905.5071	2081.35	1202.45
923.4921	1907.1374	2081.05	1205.9
923.6311	1908.7669	2074.05	1195.65
923.77	1910.3957	2077.65	1201.8
923.909	1912.0237	2065.4	1186.15
924.0479	1913.651	2076.1	1199.8
924.1868	1915.2776	2063.7	1190.45
924.3257	1916.9034	2055.65	1179.2
924.4646	1918.5285	2054.9	1178.5
924.6034	1920.1528	2049.2	1172.2
924.7422	1921.7764	2045.6	1168.1
924.881	1923.3992	2032.25	1156.9
925.0198	1925.0213	2027.15	1149.65
925.1586	1926.6427	2024.4	1147.95
925.2973	1928.2633	2217.05	1131.6
925.436	1929.8832	2047.85	1167.1
925.5747	1931.5023	2023.3	1144.95
925.7134	1933.1207	2009.25	1130.2
925.852	1934.7383	2015.45	1137.25
925.9906	1936.3552	2002.45	1126.2
926.1292	1937.9714	2004.7	1128.15
926.2678	1939.5868	2004.6	1126.15
926.4064	1941.2015	2000.5	1122.8
926.5449	1942.8154	1990.85	1113.15
926.6834	1944.4286	1997.6	1121.3
926.8219	1946.041	2009.1	1108.55
926.9604	1947.6528	1986.15	1103.35
927.0988	1949.2637	1975.1	1099.5
927.2372	1950.8739	1979.1	1100.7
927.3756	1952.4834	1971.7	1091.85
927.514	1954.0921	1969.45	1091.65
927.6523	1955.7001	1968.9	1088.85
927.7907	1957.3074	1969.8	1095.4
927.929	1958.9139	1953.75	1079.15
928.0673	1960.5197	1958.15	1079.7
928.2055	1962.1247	1950.85	1074.9
928.3438	1963.729	1943.95	1068.2
928.482	1965.3325	1951.95	1051.5
928.6202	1966.9353	1935.15	1058.8
928.7584	1968.5374	1931.95	1054.45
928.8965	1970.1387	1922.95	1046.95
929.0346	1971.7393	1921.1	1041.25
929.1727	1973.3392	1915.25	1040.25
929.3108	1974.9383	1916.55	1039.4
929.4489	1976.5366	1910.05	1033.85
929.5869	1978.1342	1908.05	1029.2
929.7249	1979.7311	1904.5	1025.55
929.8629	1981.3273	1902.2	1025.6
930.0009	1982.9227	1900.5	1020.8
930.1388	1984.5173	1899.3	1023.65
930.2767	1986.1112	1894.45	1016.95
930.4146	1987.7044	1886.4	1009.35
930.5525	1989.2968	1888.45	1011.45
930.6904	1990.8885	1888.65	1008.85
930.8282	1992.4795	1881.75	1003.35
930.966	1994.0697	1882.55	1004.45
931.1038	1995.6592	1868.5	990.55
931.2415	1997.2479	1876.25	996.65
931.3793	1998.8359	1866.9	991.6
931.517	2000.4232	1873.15	996
931.6547	2002.0097	1862.25	987.7
931.7923	2003.5955	1856.25	980
931.93	2005.1805	1861.6	983.65
932.0676	2006.7648	1854.95	977.6
932.2052	2008.3484	1853.95	974.4
932.3427	2009.9312	1864.75	983.2
932.4803	2011.5133	1849.3	973.1
932.6178	2013.0946	1848.75	970.9
932.7553	2014.6752	1839	964.1
932.8928	2016.2551	1836.85	961.1
933.0302	2017.8342	1836.55	960.5
933.1676	2019.4126	1833.95	959.95
933.305	2020.9902	1829.35	954.2
933.4424	2022.5672	1830.95	950.1
933.5798	2024.1433	1830.6	946.5
933.7171	2025.7188	1825.2	950.45
933.8544	2027.2935	1823.2	945.65
933.9917	2028.8674	1822.3	944.6
934.129	2030.4406	1814.6	938.95
934.2662	2032.0131	1815.8	940.7
934.4034	2033.5849	1812.45	930.95
934.5406	2035.1559	1803.8	928.05
934.6778	2036.7261	1804.1	926.3
934.8149	2038.2957	1805.15	928.7
934.952	2039.8645	1803.55	926.95
935.0891	2041.4325	1797.3	918
935.2262	2042.9998	1799.7	925.3
935.3632	2044.5664	1794.25	915.8
935.5002	2046.1323	1793.4	915.65
935.6372	2047.6974	1783.55	906.1
935.7742	2049.2617	1787.05	911.45
935.9111	2050.8254	1816.35	906.05
936.048	2052.3883	1786.55	905.8
936.1849	2053.9504	1784.15	906.3
936.3218	2055.5118	1784.9	906.55
936.4586	2057.0725	1775.35	895.3
936.5955	2058.6325	1772.65	894.25
936.7323	2060.1917	1769.8	891.5
936.869	2061.7502	1769.65	888.9
937.0058	2063.3079	1771.75	892.35
937.1425	2064.8649	1763.8	881.55
937.2792	2066.4212	1766.55	887.45
937.4159	2067.9767	1761.7	884.55
937.5525	2069.5315	1761.65	885.3
937.6891	2071.0856	1754.8	877.2
937.8257	2072.6389	1748.1	870.1
937.9623	2074.1915	1745.75	870.9
938.0989	2075.7433	1747.3	867.9
938.2354	2077.2945	1745.75	870.6
938.3719	2078.8448	1734.3	858.35
938.5084	2080.3945	1737.05	861.15
938.6448	2081.9434	1740.9	864.15
938.7812	2083.4916	1733.8	856.9
938.9176	2085.039	1731.85	854.6
939.054	2086.5857	1726.95	848.25
939.1903	2088.1317	1721.25	845.2
939.3267	2089.677	1727.95	850.6
939.463	2091.2215	1716.4	839.85
939.5992	2092.7652	1719.25	842.25
939.7355	2094.3083	1719.05	842.05
939.8717	2095.8506	1719	844.55
940.0079	2097.3921	1715.95	839.3
940.1441	2098.933	1713.35	834.55
940.2802	2100.4731	1706.75	831.35
940.4163	2102.0124	1720.85	836.7
940.5524	2103.5511	1700.6	825.75
940.6885	2105.089	1710.3	832.95
940.8245	2106.6261	1704.45	827.8
940.9606	2108.1626	1707.8	828.35
941.0965	2109.6983	1737.1	830.65
941.2325	2111.2332	1711.75	833.7
941.3684	2112.7675	1700.15	822.45
941.5044	2114.301	1698.45	820.6
941.6403	2115.8337	1689.65	811.8
941.7761	2117.3657	1702.35	826.15
941.912	2118.897	1696.85	820.45
942.0478	2120.4276	1694.5	811.8
942.1835	2121.9575	1684.45	807.15
942.3193	2123.4866	1698.9	808.45
942.455	2125.0149	1677.35	796.35
942.5907	2126.5426	1668.8	793.5
942.7264	2128.0695	1679.6	797.5
942.8621	2129.5956	1669.85	793.85
942.9977	2131.1211	1676.2	795.95
943.1333	2132.6458	1672.75	798.05
943.2689	2134.1698	1665.05	787.35
943.4044	2135.693	1671.4	794.35
943.54	2137.2155	1671.3	792.5
943.6755	2138.7373	1665.75	788.8
943.8109	2140.2584	1664.6	788.15
943.9464	2141.7787	1666.95	786
944.0818	2143.2983	1655.15	779.35
944.2172	2144.8171	1654.85	780.45
944.3526	2146.3353	1659.7	781.15
944.4879	2147.8527	1651.35	774.5
944.6232	2149.3693	1651.6	774.6
944.7585	2150.8853	1647.5	770.9
944.8938	2152.4005	1647.25	769.55
945.029	2153.9149	1637.55	760
945.1642	2155.4287	1641.35	765.7
945.2994	2156.9417	1643.75	766.1
945.4346	2158.454	1646.2	767.2
945.5697	2159.9655	1638.3	761.85
945.7048	2161.4764	1645	767.5
945.8399	2162.9865	1636.15	759.85
945.9749	2164.4958	1636.3	756.55
946.1099	2166.0045	1633.95	754.95
946.2449	2167.5124	1627.3	751.65
946.3799	2169.0195	1625.7	749.4
946.5148	2170.526	1616.5	739.55
946.6498	2172.0317	1619.85	742.7
946.7846	2173.5367	1611.4	734.6
946.9195	2175.0409	1615.7	741.5
947.0543	2176.5445	1621.75	747.2
947.1891	2178.0473	1619	743.25
947.3239	2179.5494	1616.35	736.3
947.4587	2181.0507	1613.8	735.15
947.5934	2182.5513	1607.5	730.15
947.7281	2184.0512	1612.6	736.2
947.8628	2185.5504	1605.15	729.75
947.9974	2187.0488	1601.15	724.3
948.132	2188.5465	1596.6	720.45
948.2666	2190.0435	1592.8	715.6
948.4012	2191.5397	1598.85	722.4
948.5357	2193.0353	1593.85	720.35
948.6702	2194.5301	1591.95	714.4
948.8047	2196.0241	1587.45	710.85
948.9392	2197.5175	1589.85	712.9
949.0736	2199.0101	1588.9	709.15
949.208	2200.502	1586.85	712.6
949.3424	2201.9931	1579.7	702.2
949.4767	2203.4835	1578.3	699.9
949.611	2204.9733	1598.65	703.55
949.7453	2206.4622	1580	704.1
949.8796	2207.9505	1571.5	690.9
950.0138	2209.438	1568.6	694.6
950.148	2210.9248	1572.2	691.85
950.2822	2212.4109	1567.7	692.9
950.4164	2213.8962	1571.05	690.65
950.5505	2215.3809	1562.9	685.75
950.6846	2216.8648	1558.65	682.35
950.8186	2218.3479	1562	681.55
950.9527	2219.8304	1563.65	684.95
951.0867	2221.3121	1554.8	676.1
951.2207	2222.7931	1554	676.9
951.3546	2224.2733	1552.2	676.1
951.4886	2225.7529	1539.95	661.9
951.6225	2227.2317	1545.75	666.4
951.7563	2228.7098	1543.15	667.2
951.8902	2230.1872	1541.65	665.8
952.024	2231.6638	1542.45	664.95
952.1578	2233.1397	1537.55	654.2
952.2916	2234.6149	1531.75	656
952.4253	2236.0894	1537	659.2
952.559	2237.5632	1548.4	662.3
952.6927	2239.0362	1526.15	651.1
952.8263	2240.5085	1521.45	643.1
952.9599	2241.9801	1521.55	644.55
953.0935	2243.4509	1521.6	644.1
953.2271	2244.921	1526.35	649.45
953.3606	2246.3904	1519.65	641.05
953.4941	2247.8591	1519	643.75
953.6276	2249.3271	1507.55	632.55
953.7611	2250.7943	1516.85	639.3
953.8945	2252.2608	1503.65	626.55
954.0279	2253.7266	1502.9	625.35
954.1612	2255.1917	1499.9	622.5
954.2946	2256.656	1497.5	620.6
954.4279	2258.1197	1496.85	620
954.5612	2259.5826	1501.9	622.15
954.6944	2261.0447	1497.8	619.05
954.8276	2262.5062	1501.95	621.05
954.9608	2263.9669	1491.45	613.5
955.094	2265.4269	1494.55	618.75
955.2271	2266.8862	1496.4	620.4
955.3602	2268.3448	1491.1	615.3
955.4933	2269.8026	1485.5	610.55
955.6264	2271.2598	1486.65	610.05
955.7594	2272.7162	1485.6	609.7
955.8924	2274.1719	1488.95	611.45
956.0253	2275.6268	1486.1	610.65
956.1583	2277.0811	1483.45	607.95
956.2912	2278.5346	1480.5	606.85
956.4241	2279.9874	1478.5	602.4
956.5569	2281.4395	1483.3	606.7
956.6897	2282.8908	1483.1	602.05
956.8225	2284.3414	1473.35	594.2
956.9553	2285.7914	1477.8	603.1
957.088	2287.2406	1481.2	603
957.2207	2288.689	1472.8	597.55
957.3534	2290.1368	1472.25	594.45
957.486	2291.5838	1475.95	598.6
957.6186	2293.0302	1476.3	599.7
957.7512	2294.4758	1472	594.8
957.8838	2295.9206	1468.2	588.9
958.0163	2297.3648	1472.85	598.2
958.1488	2298.8082	1459.15	581.3
958.2813	2300.251	1459.45	583.2
958.4137	2301.693	1460.2	580.55
958.5461	2303.1343	1456.45	579.35
958.6785	2304.5748	1457	579.15
958.8108	2306.0147	1456.95	579.95
958.9432	2307.4538	1457.15	578.9
959.0754	2308.8922	1443.85	567.95
959.2077	2310.3299	1452.6	576.9
959.3399	2311.7669	1447.9	572.3
959.4721	2313.2031	1449.75	572.45
959.6043	2314.6387	1444.8	566.85
959.7365	2316.0735	1443.4	566.5
959.8686	2317.5076	1444	566.25
960.0006	2318.941	1440.5	563.8
960.1327	2320.3737	1443.35	565.5
960.2647	2321.8056	1446.55	568.65
960.3967	2323.2369	1437.3	558.65
960.5287	2324.6674	1435.5	557.1
960.6606	2326.0972	1434.9	555.4
960.7925	2327.5263	1435.35	559.55
960.9244	2328.9547	1433.75	554.65
961.0562	2330.3823	1437.75	562.55
961.1881	2331.8092	1436.65	556.55
961.3198	2333.2355	1426.35	549.8
961.4516	2334.661	1423.4	546.15
961.5833	2336.0858	1421.25	542.9
961.715	2337.5098	1420.8	544.65
961.8467	2338.9332	1420	543.4
961.9783	2340.3558	1423.55	541.75
962.1099	2341.7778	1417.05	538.5
962.2415	2343.199	1421.7	542.45
962.373	2344.6195	1418.55	542.85
962.5045	2346.0393	1414.45	538.9
962.636	2347.4583	1413.15	534.25
962.7675	2348.8767	1417.7	540.9
962.8989	2350.2943	1418.45	538.7
963.0303	2351.7113	1414.25	538.5
963.1617	2353.1275	1409.4	532.6
963.293	2354.543	1412.8	527.5
963.4243	2355.9578	1411.75	535.8
963.5556	2357.3718	1410.9	534.75
963.6868	2358.7852	1406.75	526.25
963.818	2360.1978	1401.25	525.25
963.9492	2361.6098	1398.1	521.75
964.0803	2363.021	1407.75	527.05
964.2114	2364.4315	1402.1	525.85
964.3425	2365.8413	1401.55	522.25
964.4736	2367.2504	1398.9	523.25
964.6046	2368.6587	1397.7	519.45
964.7356	2370.0664	1392.7	514.85
964.8666	2371.4733	1397	517.35
964.9975	2372.8795	1397.7	522.1
965.1284	2374.285	1392.25	515.35
965.2593	2375.6899	1384.75	509.65
965.3901	2377.0939	1386.95	510.35
965.5209	2378.4973	1392.45	515.7
965.6517	2379.9	1383.7	509
965.7825	2381.3019	1380.85	504.1
965.9132	2382.7032	1384.35	506.15
966.0439	2384.1037	1383.3	507.5
966.1745	2385.5035	1379.7	501.85
966.3051	2386.9027	1383.4	505.8
966.4357	2388.3011	1382.1	503.65
966.5663	2389.6987	1372.65	495.4
966.6968	2391.0957	1374.6	497.85
966.8273	2392.492	1365.95	490.55
966.9578	2393.8876	1369.2	491.6
967.0882	2395.2824	1363.35	486.8
967.2186	2396.6765	1367.65	490.15
967.349	2398.07	1360.15	484.15
967.4793	2399.4627	1359.15	480.45
967.6097	2400.8547	1357.2	479.15
967.7399	2402.246	1366.5	484.55
967.8702	2403.6366	1348.95	470.4
968.0004	2405.0265	1352.1	475.75
968.1306	2406.4156	1353.55	472.3
968.2607	2407.8041	1361.6	482.2
968.3909	2409.1918	1351.7	472.8
968.521	2410.5789	1346.7	469.65
968.651	2411.9652	1349.85	470.3
968.781	2413.3508	1350.45	474.6
968.911	2414.7358	1346.15	467.15
969.041	2416.12	1346.15	470.4
969.1709	2417.5035	1340.8	463.85
969.3008	2418.8863	1342.55	466
969.4307	2420.2684	1339.55	460.85
969.5606	2421.6497	1339.6	460.7
969.6904	2423.0304	1336.2	459.45
969.8201	2424.4104	1337.95	457.6
969.9499	2425.7896	1340.9	461.65
970.0796	2427.1682	1338.75	463.5
970.2093	2428.546	1335.35	456.7
970.3389	2429.9232	1328.9	451
970.4685	2431.2996	1328.85	451.6
970.5981	2432.6753	1328.95	452.8
970.7277	2434.0503	1330.7	454.5
970.8572	2435.4246	1336.55	459.25
970.9867	2436.7982	1326.9	449.95
971.1161	2438.1711	1331.25	452.05
971.2456	2439.5433	1321.1	442.75
971.375	2440.9148	1330.25	453.15
971.5043	2442.2856	1319.3	442
971.6336	2443.6557	1322.3	441.4
971.7629	2445.025	1320.65	443.3
971.8922	2446.3937	1320.25	444.4
972.0214	2447.7617	1320.65	443.85
972.1506	2449.1289	1319.05	441.2
972.2798	2450.4955	1323.15	442.15
972.4089	2451.8613	1318.9	441.95
972.538	2453.2265	1312.15	436.6
972.6671	2454.5909	1317.95	440
972.7961	2455.9546	1314.05	436.05
972.9251	2457.3177	1309.15	431.1
973.0541	2458.68	1309.65	431.15
973.1831	2460.0416	1309.15	431.5
973.312	2461.4025	1308.15	430.75
973.4408	2462.7627	1316.55	428.3
973.5697	2464.1222	1308.7	433.25
973.6985	2465.4811	1304.5	425.65
973.8273	2466.8392	1306.95	427.9
973.956	2468.1966	1307.6	428
974.0847	2469.5533	1307.1	427.85
974.2134	2470.9093	1304.75	424.6
974.3421	2472.2645	1300.7	421.5
974.4707	2473.6191	1300.95	423.25
974.5993	2474.973	1298.8	421.65
974.7278	2476.3262	1304.8	425.35
974.8563	2477.6787	1297.15	421.15
974.9848	2479.0305	1295.65	421.65
975.1132	2480.3816	1299.5	418.5
975.2417	2481.7319	1298.6	422.6
975.37	2483.0816	1298.5	417.65
975.4984	2484.4306	1293.05	414.8
975.6267	2485.7789	1294.3	417.65
975.755	2487.1264	1292.2	413
975.8833	2488.4733	1293.95	417
976.0115	2489.8195	1298.2	413.05
976.1397	2491.165	1296.1	416.2
976.2678	2492.5097	1297.15	418.6
976.3959	2493.8538	1292	415.8
976.524	2495.1972	1279.35	400.1
976.6521	2496.5398	1295.6	418.25
976.7801	2497.8818	1288.2	409
976.9081	2499.2231	1280.85	403.15
977.036	2500.5637	1285.9	407.6
977.164	2501.9035	1282.65	405.55
977.2918	2503.2427	1283.55	403.1
977.4197	2504.5812	1281	404.05
977.5475	2505.919	1284.9	404.65
977.6753	2507.256	1281.7	403.95
977.8031	2508.5924	1280.4	403.4
977.9308	2509.9281	1284.3	403.15
978.0585	2511.2631	1271.2	395.15
978.1861	2512.5974	1276.35	399.1
978.3137	2513.9309	1273.5	396.45
978.4413	2515.2638	1299.1	394.45
978.5689	2516.596	1271.6	394.9
978.6964	2517.9275	1267.1	389.4
978.8239	2519.2583	1266.5	388.3
978.9513	2520.5884	1270.3	390.6
979.0788	2521.9178	1263.25	385.3
979.2062	2523.2465	1261.7	386.4
979.3335	2524.5745	1266.35	391.25
979.4608	2525.9018	1264.15	388.3
979.5881	2527.2284	1259.3	382.5
979.7154	2528.5543	1258.7	383.15
979.8426	2529.8796	1258.85	380.9
979.9698	2531.2041	1260.45	382.15
980.0969	2532.5279	1256.85	381.55
980.224	2533.851	1252.65	376.5
980.3511	2535.1735	1255.45	379.55
980.4781	2536.4952	1256.75	377.75
980.6052	2537.8163	1259.2	379.15
980.7321	2539.1366	1248.95	372.85
980.8591	2540.4562	1253.4	374.4
980.986	2541.7752	1252.3	375.45
981.1129	2543.0935	1259	379.2
981.2397	2544.411	1250.35	371.05
981.3665	2545.7279	1247.25	370.9
981.4933	2547.0441	1257.3	381.1
981.62	2548.3596	1253.65	375.4
981.7467	2549.6744	1247.35	371.3
981.8734	2550.9885	1254.1	370.1
982.0001	2552.3019	1244.05	367.4
982.1267	2553.6146	1243.75	367.6
982.2532	2554.9266	1241.5	364.85
982.3798	2556.2379	1246.8	366.3
982.5063	2557.5485	1247.4	372.6
982.6327	2558.8585	1248.75	364.4
982.7592	2560.1677	1247.15	366.85
982.8856	2561.4762	1242.5	365.6
983.0119	2562.7841	1240.15	360.35
983.1383	2564.0913	1241.1	364.4
983.2646	2565.3977	1240.05	362.6
983.3908	2566.7035	1238.6	360.75
983.517	2568.0086	1239.35	361.35
983.6432	2569.313	1239.55	361.65
983.7694	2570.6167	1242.65	363.2
983.8955	2571.9197	1239.8	363.5
984.0216	2573.222	1236.35	358.4
984.1476	2574.5236	1241.25	362.8
984.2737	2575.8246	1243.25	363.6
984.3996	2577.1248	1237.15	357.5
984.5256	2578.4244	1231.6	355.25
984.6515	2579.7232	1231.4	354.1
984.7774	2581.0214	1258.55	354.45
984.9032	2582.3189	1232.8	357.25
985.029	2583.6157	1239.3	360.8
985.1548	2584.9118	1239.35	362.2
985.2806	2586.2072	1235.45	358.6
985.4063	2587.5019	1238.15	360.7
985.5319	2588.7959	1235.45	357.65
985.6576	2590.0893	1237.2	359.6
985.7832	2591.3819	1236.5	359.85
985.9087	2592.6739	1232.45	355.9
986.0343	2593.9652	1241.55	362.05
986.1597	2595.2557	1238.1	361.1
986.2852	2596.5456	1238.8	360.45
986.4106	2597.8348	1238.85	362.25
986.536	2599.1234	1235.6	358.55
986.6614	2600.4112	1238.05	358.65
986.7867	2601.6983	1243.8	361.55
986.912	2602.9848	1245.25	367.05
987.0372	2604.2705	1251.6	367.8
987.1624	2605.5556	1243.8	367.15
987.2876	2606.84	1240.9	363.4
987.4128	2608.1237	1238.3	362.1
987.5379	2609.4067	1234.85	357.4
987.6629	2610.689	1238.95	354.65
987.788	2611.9707	1241.85	362
987.913	2613.2516	1234.95	353.15
988.0379	2614.5319	1223.8	347.5
988.1629	2615.8115	1225.2	346.65
988.2878	2617.0903	1222.35	342.75
988.4126	2618.3685	1217	339.75
988.5375	2619.6461	1224.95	350.05
988.6622	2620.9229	1220.45	343.85
988.787	2622.199	1222	343.75
988.9117	2623.4745	1223.95	347.05
989.0364	2624.7493	1226.65	351.35
989.161	2626.0234	1220.65	344.05
989.2857	2627.2968	1214.15	336.2
989.4102	2628.5695	1212.45	333.95
989.5348	2629.8415	1212.6	336.15
989.6593	2631.1128	1214.05	335.15
989.7837	2632.3835	1216.9	340.9
989.9082	2633.6535	1209.35	333.6
990.0326	2634.9228	1213.2	335.65
990.1569	2636.1914	1210.15	332.15
990.2812	2637.4593	1211.7	334.3
990.4055	2638.7265	1203.85	323.35
990.5298	2639.9931	1207.25	331.65
990.654	2641.259	1213.4	332.8
990.7782	2642.5242	1202.9	325.4
990.9023	2643.7887	1208.3	332.15
991.0264	2645.0525	1206.15	327.85
991.1505	2646.3156	1201.6	322.8
991.2745	2647.5781	1197.7	320.75
991.3985	2648.8398	1195.3	321
991.5225	2650.1009	1236.65	319.95
991.6464	2651.3613	1197.15	321.4
991.7703	2652.6211	1200.7	324.4
991.8942	2653.8801	1189.9	313.4
992.018	2655.1385	1197.3	314.45
992.1418	2656.3961	1192.6	314.95
992.2655	2657.6531	1192.8	314.7
992.3892	2658.9094	1192.05	314
992.5129	2660.1651	1190.35	314.2
992.6366	2661.42	1190.85	312.5
992.7602	2662.6743	1190.9	311.8
992.8837	2663.9279	1187.8	312.2
993.0073	2665.1808	1189.35	310.55
993.1307	2666.433	1195.4	314.6
993.2542	2667.6846	1194.1	317
993.3776	2668.9354	1206.7	330.15
993.501	2670.1856	1196.25	318.8
993.6244	2671.4351	1193.15	318.15
993.7477	2672.6839	1205.75	326.45
993.8709	2673.9321	1201.9	325.85
993.9942	2675.1795	1205.25	329
994.1174	2676.4263	1204.4	326.2
994.2405	2677.6724	1207.95	332
994.3637	2678.9179	1198.6	319.6
994.4868	2680.1626	1203.55	326.1
994.6098	2681.4067	1205.5	326.55
994.7328	2682.6501	1204.15	326.8
994.8558	2683.8928	1195.95	318.65
994.9788	2685.1348	1199.3	323.9
995.1017	2686.3761	1191.6	315.2
995.2245	2687.6168	1188.95	312.1
995.3474	2688.8568	1182.6	306.2
995.4702	2690.0961	1183.2	307.8
995.5929	2691.3348	1178.7	301.35
995.7156	2692.5727	1176.3	300.35
995.8383	2693.81	1177.8	298.45
995.961	2695.0466	1168.85	293.2
996.0836	2696.2826	1181.65	302.3
996.2062	2697.5178	1195.45	299.35
996.3287	2698.7524	1174.15	297.3
996.4512	2699.9863	1180.9	302.4
996.5737	2701.2195	1173.55	295.5
996.6961	2702.452	1181.3	302.65
996.8185	2703.6839	1187.3	308.7
996.9408	2704.9151	1188.15	312.05
997.0631	2706.1456	1187.05	310.65
997.1854	2707.3755	1193.25	317.15
997.3077	2708.6046	1195.8	315.95
997.4299	2709.8331	1195.65	317.45
997.552	2711.0609	1203.3	327.5
997.6742	2712.2881	1194.2	316.4
997.7963	2713.5145	1202.25	323.6
997.9183	2714.7403	1199.35	321.95
998.0403	2715.9654	1209.1	329.9
998.1623	2717.1899	1224.7	332.55
998.2842	2718.4136	1218.45	342.5
998.4062	2719.6367	1221.05	344.55
998.528	2720.8591	1242.7	359.35
998.6498	2722.0809	1234.4	358.85
998.7716	2723.3019	1249.45	367.65
998.8934	2724.5223	1248.65	370.2
999.0151	2725.7421	1244.5	365.9
999.1368	2726.9611	1238.3	360.45
999.2584	2728.1795	1232.75	351.4
999.38	2729.3972	1216.25	340.55
999.5016	2730.6142	1226.5	343.4
999.6231	2731.8306	1207.2	330.7
999.7446	2733.0462	1205.3	325.85
999.8661	2734.2612	1204.95	323.95
999.9875	2735.4756	1192.25	312.7
1000.1089	2736.6892	1182	305.7
1000.2302	2737.9022	1186.65	310.15
1000.3515	2739.1145	1181.5	303.5
1000.4728	2740.3262	1182.3	296.8
1000.594	2741.5372	1171	295.1
1000.7152	2742.7475	1174.15	298.15
1000.8363	2743.9571	1163.05	286.6
1000.9575	2745.1661	1165.2	285.25
1001.0785	2746.3744	1157	279.2
1001.1996	2747.582	1151.7	276.3
1001.3206	2748.7889	1153.85	276.1
1001.4415	2749.9952	1149.75	271.75
1001.5625	2751.2008	1145.95	267.3
1001.6833	2752.4057	1142.15	263.85
1001.8042	2753.61	1137.85	261
1001.925	2754.8136	1138.25	259.8
1002.0458	2756.0165	1139.5	262
1002.1665	2757.2188	1135.1	258.65
1002.2872	2758.4204	1137.55	260.7
1002.4078	2759.6213	1135.25	255.05
1002.5285	2760.8215	1144.15	262.9
1002.649	2762.0211	1139.05	262.15
1002.7696	2763.22	1137.05	258.1
1002.8901	2764.4182	1136.55	259
1003.0106	2765.6158	1137.3	260.05
1003.131	2766.8127	1133	256.3
1003.2514	2768.009	1130.95	253.1
1003.3717	2769.2045	1129.05	251.25
1003.492	2770.3994	1128.55	250.6
1003.6123	2771.5936	1125.75	247.3
1003.7325	2772.7872	1120.35	245.4
1003.8527	2773.9801	1120.5	242.05
1003.9729	2775.1723	1138.2	246.25
1004.093	2776.3639	1115.6	239.3
1004.2131	2777.5548	1120.4	241.7
1004.3331	2778.745	1118.45	239.15
1004.4531	2779.9346	1121.25	243.75
1004.5731	2781.1235	1118.15	241.6
1004.693	2782.3117	1120.25	244.05
1004.8129	2783.4992	1117.9	241.15
1004.9328	2784.6861	1121.15	243.7
1005.0526	2785.8723	1123.7	243.55
1005.1723	2787.0579	1122.05	245.35
1005.2921	2788.2428	1120.55	242.95
1005.4118	2789.427	1115.55	239.55
1005.5314	2790.6106	1113.45	236.35
1005.651	2791.7935	1123	245.9
1005.7706	2792.9757	1123	247.05
1005.8902	2794.1573	1126	246.6
1006.0097	2795.3382	1124.65	247.3
1006.1291	2796.5184	1120.4	246.15
1006.2485	2797.698	1131	253.3
1006.3679	2798.8769	1132.55	256.75
1006.4873	2800.0551	1134.45	255.8
1006.6066	2801.2327	1132	251.95
1006.7258	2802.4096	1129.45	253.6
1006.8451	2803.5859	1135.5	255
1006.9642	2804.7615	1140.6	265.25
1007.0834	2805.9364	1139.3	263.65
1007.2025	2807.1106	1147.05	270.4
1007.3216	2808.2842	1152.85	274.85
1007.4406	2809.4572	1155.85	279.3
1007.5596	2810.6294	1159.85	282
1007.6785	2811.801	1171.5	295.65
1007.7975	2812.972	1178.15	302.15
1007.9163	2814.1423	1190	314.6
1008.0352	2815.3119	1198.55	321.1
1008.154	2816.4808	1223.55	346.9
1008.2727	2817.6491	1240.8	363.15
1008.3914	2818.8167	1255.25	378.5
1008.5101	2819.9837	1284.1	402.6
1008.6288	2821.15	1313.35	435.6
1008.7474	2822.3157	1344.55	468.9
1008.8659	2823.4807	1383.95	505.9
1008.9844	2824.645	1424.4	546.35
1009.1029	2825.8086	1481.5	606.3
1009.2214	2826.9716	1521.05	644.9
1009.3398	2828.134	1578.9	702.9
1009.4581	2829.2957	1613.35	739.05
1009.5764	2830.4567	1639.3	764.3
1009.6947	2831.617	1672.85	795.1
1009.813	2832.7767	1674.65	798.95
1009.9312	2833.9358	1684.35	807.45
1010.0493	2835.0941	1671.45	793.25
1010.1675	2836.2519	1663.55	787.55
1010.2855	2837.4089	1639.25	761.3
1010.4036	2838.5653	1617.75	743.05
1010.5216	2839.7211	1602.8	728.1
1010.6396	2840.8761	1596.4	718.05
1010.7575	2842.0306	1581.65	706.4
1010.8754	2843.1843	1585.8	709.1
1010.9932	2844.3374	1601.25	725.1
1011.111	2845.4899	1607.3	730.5
1011.2288	2846.6417	1613.1	736.65
1011.3465	2847.7928	1629.55	752.6
1011.4642	2848.9433	1632.7	758.1
1011.5818	2850.0931	1635.95	759.5
1011.6995	2851.2422	1647.65	770.55
1011.817	2852.3907	1646.9	769.35
1011.9345	2853.5385	1642.25	763.85
1012.052	2854.6857	1682.25	780.8
1012.1695	2855.8323	1665.1	789.3
1012.2869	2856.9781	1684.15	807.6
1012.4042	2858.1233	1701.6	824.1
1012.5216	2859.2679	1724.95	846.7
1012.6389	2860.4118	1742.1	865.9
1012.7561	2861.555	1767.85	884.3
1012.8733	2862.6976	1782.8	903.5
1012.9905	2863.8395	1793.75	917.7
1013.1076	2864.9808	1804.3	928.85
1013.2247	2866.1214	1818.6	943.4
1013.3417	2867.2614	1827.5	952.35
1013.4587	2868.4007	1842.7	962.15
1013.5757	2869.5393	1849.95	971.55
1013.6926	2870.6773	1868.25	988.05
1013.8095	2871.8146	1883.4	1003.35
1013.9263	2872.9513	1889.9	1011.55
1014.0431	2874.0874	1917.05	1041.45
1014.1599	2875.2227	1931.6	1052.9
1014.2766	2876.3574	1934.75	1057.1
1014.3933	2877.4915	1947.7	1072.6
1014.51	2878.6249	1955.3	1079.35
1014.6266	2879.7577	1971.7	1095.25
1014.7431	2880.8898	1991.5	1102.4
1014.8596	2882.0212	2006.75	1131.4
1014.9761	2883.152	2021.35	1144.75
1015.0925	2884.2821	2034.15	1157.45
1015.2089	2885.4116	2046.15	1171
1015.3253	2886.5405	2054.55	1178.45
1015.4416	2887.6686	2077.1	1197.25
1015.5579	2888.7962	2074.9	1199.95
1015.6741	2889.923	2077.35	1203
1015.7903	2891.0493	2066.9	1191.65
1015.9065	2892.1748	2062.35	1184.35
1016.0226	2893.2997	2058.25	1182.75
1016.1387	2894.424	2063.85	1186.25
1016.2547	2895.5476	2067.45	1191.8
1016.3707	2896.6706	2076.8	1199.9
1016.4866	2897.7929	2068.5	1192.55
1016.6025	2898.9145	2065.6	1187.6
1016.7184	2900.0355	2067.6	1190.25
1016.8342	2901.1559	2060.35	1181.85
1016.95	2902.2756	2053.15	1170.25
1017.0658	2903.3946	2045.65	1170.15
1017.1815	2904.513	2037.35	1155.75
1017.2971	2905.6308	2024.7	1149.55
1017.4127	2906.7479	2029.95	1152.05
1017.5283	2907.8643	2023.1	1146.15
1017.6439	2908.9801	2021.85	1145.7
1017.7594	2910.0953	2028.8	1150.9
1017.8748	2911.2098	2016.1	1137.3
1017.9902	2912.3236	2033.1	1149.1
1018.1056	2913.4368	2019	1141.35
1018.2209	2914.5494	2006.8	1129.75
1018.3362	2915.6613	2009.4	1126.7
1018.4515	2916.7725	1981.95	1104.1
1018.5667	2917.8831	1964.4	1086
1018.6819	2918.9931	1962.35	1083.35
1018.797	2920.1024	1934.35	1054.8
1018.9121	2921.211	1923.6	1047.75
1019.0271	2922.319	1905.3	1029.4
1019.1421	2923.4264	1890.1	1013.9
1019.2571	2924.5331	1886.75	1011.25
1019.372	2925.6391	1891.35	1016.1
1019.4869	2926.7445	1890.75	1012.7
1019.6017	2927.8493	1891.85	1014.05
1019.7165	2928.9534	1892.35	1015.45
1019.8313	2930.0569	1897.85	1019.4
1019.946	2931.1597	1900.2	1020
1020.0606	2932.2619	1911.1	1034.35
1020.1753	2933.3634	1920.85	1043.2
1020.2899	2934.4643	1937.55	1054.75
1020.4044	2935.5645	1944.5	1061.45
1020.5189	2936.6641	1952.15	1072.25
1020.6334	2937.763	1960.3	1083.65
1020.7478	2938.8613	1951.75	1074.7
1020.8622	2939.959	1948.55	1068.3
1020.9765	2941.056	1918.25	1042.9
1021.0908	2942.1523	1886.35	1008.1
1021.2051	2943.248	1846.35	971.8
1021.3193	2944.3431	1794	917.75
1021.4334	2945.4375	1751.65	876
1021.5476	2946.5313	1707.7	832.7
1021.6617	2947.6244	1665.6	788.05
1021.7757	2948.7169	1620.5	743.7
1021.8897	2949.8087	1588.75	713.35
1022.0037	2950.8999	1541.7	665.45
1022.1176	2951.9904	1510.2	635.6
1022.2315	2953.0803	1490.55	612.05
1022.3453	2954.1696	1462.05	584.25
1022.4591	2955.2582	1448.7	571.35
1022.5728	2956.3462	1426.8	551.4
1022.6865	2957.4335	1422.55	545.3
1022.8002	2958.5202	1418.7	540.4
1022.9138	2959.6062	1412.15	534.65
1023.0274	2960.6916	1414.55	539.45
1023.141	2961.7764	1412.6	535.55
1023.2545	2962.8605	1409.25	532.65
1023.3679	2963.9439	1415.55	540.3
1023.4813	2965.0267	1411.85	534.45
1023.5947	2966.1089	1426.95	528.35
1023.708	2967.1905	1400.1	526.3
1023.8213	2968.2714	1387.85	510.1
1023.9346	2969.3516	1384.2	508.1
1024.0478	2970.4312	1387.95	504.05
1024.1609	2971.5102	1378.9	504.15
1024.274	2972.5885	1378	500.6
1024.3871	2973.6662	1388.45	509.3
1024.5002	2974.7432	1382.35	505.2
1024.6132	2975.8196	1380.8	505.55
1024.7261	2976.8954	1387.55	514.9
1024.839	2977.9705	1382.9	505.5
1024.9519	2979.045	1375.6	499.55
1025.0647	2980.1188	1376.05	499.95
1025.1775	2981.192	1377.25	503.7
1025.2902	2982.2645	1368.65	491.8
1025.4029	2983.3364	1358.25	482.25
1025.5156	2984.4077	1346.65	470.6
1025.6282	2985.4783	1336	453.2
1025.7407	2986.5483	1312.25	436.6
1025.8532	2987.6177	1294.15	418
1025.9657	2988.6864	1283.4	407.05
1026.0782	2989.7545	1277.4	399.8
1026.1906	2990.8219	1260	383.85
1026.3029	2991.8887	1250.4	372.35
1026.4152	2992.9548	1242.1	365.15
1026.5275	2994.0204	1221.35	345.85
1026.6397	2995.0852	1199.2	325.65
1026.7519	2996.1495	1185.4	306.65
1026.864	2997.2131	1172.65	295.25
1026.9761	2998.276	1159.1	280.65
1027.0882	2999.3383	1146.25	266.45
1027.2002	3000.4	1127.85	250.75
1027.3122	3001.4611	1120.8	243.95
1027.4241	3002.5215	1112.8	236.6
1027.536	3003.5812	1097.85	223.05
1027.6478	3004.6404	1091.9	214.75
1027.7596	3005.6989	1081.45	206.4
1027.8714	3006.7567	1082.05	205.25
1027.9831	3007.8139	1105.35	195.35
1028.0947	3008.8705	1071.25	194.65
1028.2064	3009.9264	1067.75	186.05
1028.3179	3010.9818	1063.55	185.5
1028.4295	3012.0364	1055.3	178.4
1028.541	3013.0905	1058.45	181.3
1028.6524	3014.1439	1051.1	172.6
1028.7638	3015.1966	1049.35	173.2
1028.8752	3016.2487	1046.35	171.4
1028.9865	3017.3002	1050.1	168.55
1029.0978	3018.3511	1040.05	162.85
1029.209	3019.4013	1039.4	162.25
1029.3202	3020.4509	1040.85	164.4
1029.4314	3021.4998	1038.25	161.3
1029.5425	3022.5481	1035.1	158.45
1029.6535	3023.5958	1036.9	160.2
1029.7645	3024.6428	1036.6	159.6
1029.8755	3025.6892	1027.85	153.65
1029.9864	3026.735	1036.6	161.8
1030.0973	3027.7802	1034.85	159.8
1030.2082	3028.8247	1031.2	153.5
1030.319	3029.8685	1027.7	150.85
1030.4297	3030.9118	1032	154.25
1030.5404	3031.9544	1030.7	155.2
1030.6511	3032.9963	1030.25	154.25
1030.7617	3034.0376	1033.1	159.25
1030.8723	3035.0783	1030.2	151.3
1030.9829	3036.1184	1032.1	155.85
1031.0934	3037.1578	1031.25	156.2
1031.2038	3038.1966	1026.9	147.2
1031.3142	3039.2348	1031.6	155.9
1031.4246	3040.2723	1044.1	156.4
1031.5349	3041.3092	1033.65	158.15
1031.6452	3042.3455	1033.4	158.25
1031.7554	3043.3811	1035.95	158.65
1031.8656	3044.4161	1036.25	159.3
1031.9758	3045.4505	1034.45	159.05
1032.0859	3046.4842	1041.05	166
1032.1959	3047.5173	1037.1	160.85
1032.3059	3048.5498	1036.1	159.7
1032.4159	3049.5816	1037.2	159.65
1032.5258	3050.6128	1038.2	161.35
1032.6357	3051.6434	1034.25	156.95
1032.7455	3052.6734	1036.6	158.95
1032.8553	3053.7027	1034	158.1
1032.9651	3054.7314	1037.3	162.85
1033.0748	3055.7594	1036.65	161.9
1033.1845	3056.7868	1036.8	159.9
1033.2941	3057.8136	1042.75	165.5
1033.4037	3058.8398	1038.3	163.4
1033.5132	3059.8653	1040.55	164.9
1033.6227	3060.8902	1039.2	163.85
1033.7321	3061.9145	1044.9	167.65
1033.8415	3062.9381	1047.75	170.55
1033.9509	3063.9612	1069.1	178.7
1034.0602	3064.9835	1050.3	173
1034.1694	3066.0053	1052.3	172.4
1034.2787	3067.0264	1047.5	170.7
1034.3878	3068.0469	1051.6	173.9
1034.497	3069.0668	1054.15	176.3
1034.6061	3070.086	1046	170.7
1034.7151	3071.1046	1043.85	167.6
1034.8241	3072.1226	1040.85	164.55
1034.9331	3073.1399	1040.05	163.1
1035.042	3074.1567	1036.65	159.6
1035.1508	3075.1727	1037.7	157.85
1035.2597	3076.1882	1032.45	155.7
1035.3684	3077.203	1029.35	151.2
1035.4772	3078.2173	1032.25	156.9
1035.5859	3079.2308	1024.2	143.65
1035.6945	3080.2438	1020.1	142
1035.8031	3081.2561	1018.05	141.15
1035.9117	3082.2678	1006.55	131
1036.0202	3083.2789	1009.9	134.05
1036.1286	3084.2893	1004.2	126
1036.2371	3085.2991	1002.65	126.4
1036.3454	3086.3083	1002.7	122.75
1036.4538	3087.3169	1003.35	127.4
1036.562	3088.3248	1000.2	122.6
1036.6703	3089.3321	994.75	114.8
1036.7785	3090.3388	990.3	115.65
1036.8866	3091.3449	989.35	113.2
1036.9948	3092.3503	994.75	116.95
1037.1028	3093.3551	987.85	112.2
1037.2108	3094.3593	985.3	108.55
1037.3188	3095.3629	985.25	108.65
1037.4267	3096.3658	985.5	108.5
1037.5346	3097.3681	982.5	107.25
1037.6425	3098.3698	986.35	106.95
1037.7503	3099.3708	979.95	102.85
1037.858	3100.3713	980.2	105.4
1037.9657	3101.3711	977.55	99.4
1038.0734	3102.3702	1113.25	100.15
1038.181	3103.3688	979.35	101.55
1038.2886	3104.3667	971.5	96.6
1038.3961	3105.364	973.1	98.4
1038.5036	3106.3607	971.25	93.7
1038.611	3107.3568	973.35	95.9
1038.7184	3108.3522	969.25	94.5
1038.8257	3109.347	971.1	93.05
1038.933	3110.3412	965.6	83.65
1039.0403	3111.3348	965.55	89.4
1039.1475	3112.3277	967.35	90.85
1039.2547	3113.32	962.45	85.05
1039.3618	3114.3117	962.4	85.8
1039.4689	3115.3028	962.65	87.3
1039.5759	3116.2932	960.9	82.75
1039.6829	3117.2831	965.85	84.5
1039.7898	3118.2723	961.3	86.7
1039.8967	3119.2608	955.5	79.55
1040.0035	3120.2488	953.75	77.9
1040.1103	3121.2361	957.55	79.75
1040.2171	3122.2229	953.7	78.35
1040.3238	3123.209	952.25	76.45
1040.4305	3124.1944	951.75	75.95
1040.5371	3125.1793	952.85	77.1
1040.6437	3126.1635	953.3	76.15
1040.7502	3127.1471	950.8	74.4
1040.8567	3128.1301	950.6	76.55
1040.9631	3129.1125	947	70.35
1041.0695	3130.0942	947.55	73.3
1041.1759	3131.0753	955.8	70
1041.2822	3132.0558	950.9	71.8
1041.3884	3133.0357	947.25	69.8
1041.4946	3134.015	945	65.5
1041.6008	3134.9936	945.6	66.85
1041.7069	3135.9716	968.25	68.65
1041.813	3136.949	942.5	66.6
1041.919	3137.9258	959.1	64
1042.025	3138.902	948.1	66.8
1042.1309	3139.8775	936.45	59.85
1042.2368	3140.8524	941.9	66
1042.3427	3141.8267	942.05	62.95
1042.4485	3142.8004	937.95	60.5
1042.5542	3143.7735	944.2	61.95
1042.6599	3144.7459	940.45	63.25
1042.7656	3145.7178	936.75	57.65
1042.8712	3146.689	935.65	59.8
1042.9768	3147.6596	938.35	57.95
1043.0823	3148.6295	936.35	59.3
1043.1878	3149.5989	936.35	61
1043.2932	3150.5676	935.85	61.75
1043.3986	3151.5357	933.25	57.9
1043.5039	3152.5032	932.3	58
1043.6092	3153.4701	933.45	57.5
1043.7145	3154.4364	937.4	60.4
1043.8197	3155.402	932.3	57.95
1043.9248	3156.367	935.95	57.55
1044.03	3157.3315	967.9	55.95
1044.135	3158.2952	932.35	54.65
1044.24	3159.2584	930.45	53.8
1044.345	3160.221	930.4	51.35
1044.4499	3161.1829	928.65	51.5
1044.5548	3162.1442	929.75	52.1
1044.6596	3163.105	931.2	56.05
1044.7644	3164.065	930.45	54.25
1044.8692	3165.0245	932.7	54.95
1044.9739	3165.9834	927.3	52.9
1045.0785	3166.9416	927	49.6
1045.1831	3167.8993	926.75	49.1
1045.2877	3168.8563	928.2	50.9
1045.3922	3169.8127	927.25	51.95
1045.4966	3170.7684	928.55	52.65
1045.6011	3171.7236	928.65	52.1
1045.7054	3172.6782	927.1	51.6
1045.8098	3173.6321	927	48.4
1045.914	3174.5854	932	50.35
1046.0183	3175.5381	926.1	49.9
1046.1224	3176.4902	924.95	48.7
1046.2266	3177.4417	925.6	50.55
1046.3307	3178.3926	924.65	47.95
1046.4347	3179.3428	922.1	47.5
1046.5387	3180.2924	921.8	47.3
1046.6427	3181.2415	923.7	48.5
1046.7466	3182.1899	925.2	47.45
1046.8504	3183.1377	923.65	46.65
1046.9542	3184.0848	925.9	46.15
1047.058	3185.0314	923.6	47.3
1047.1617	3185.9773	922.35	44.25
1047.2654	3186.9227	923.6	47.2
1047.369	3187.8674	919.2	43.55
1047.4726	3188.8115	924.55	42.85
1047.5761	3189.755	920.3	44.4
1047.6796	3190.6979	921.85	45.75
1047.783	3191.6402	919.25	43.7
1047.8864	3192.5818	919.3	43.15
1047.9898	3193.5229	945	43.5
1048.0931	3194.4633	920.05	45.15
1048.1963	3195.4031	920.35	42.45
1048.2995	3196.3423	920.95	45.35
1048.4027	3197.2809	917.85	41.2
1048.5058	3198.2189	918.35	40.35
1048.6089	3199.1563	923.45	41.35
1048.7119	3200.0931	919.45	42.25
1048.8148	3201.0292	913.8	39.05
1048.9178	3201.9648	917.1	41.5
1049.0206	3202.8997	917.8	38.2
1049.1235	3203.834	918	42.2
1049.2262	3204.7677	915.5	39
1049.329	3205.7008	916.8	40.15
1049.4317	3206.6333	914.65	40.5
1049.5343	3207.5652	919.4	41.9
1049.6369	3208.4964	918.25	42.05
1049.7394	3209.4271	913.65	37.75
1049.8419	3210.3571	915.2	40.45
1049.9444	3211.2865	914.9	36.65
1050.0468	3212.2154	915.3	37.15
1050.1491	3213.1436	918.2	38.8
1050.2514	3214.0712	919.85	37.9
1050.3537	3214.9982	913.1	38.75
1050.4559	3215.9246	915.35	37.85
1050.5581	3216.8503	910.85	33.8
1050.6602	3217.7755	911.85	38.1
1050.7623	3218.7001	913.25	38.15
1050.8643	3219.624	911.95	34.9
1050.9663	3220.5473	912.25	37.1
1051.0682	3221.4701	914.7	36.95
1051.1701	3222.3922	916.1	36
1051.2719	3223.3137	911.2	33.85
1051.3737	3224.2346	910.75	34.35
1051.4754	3225.1549	911.7	36.2
1051.5771	3226.0746	909.8	35.15
1051.6788	3226.9937	913.75	38.25
1051.7804	3227.9121	908.8	35.45
1051.8819	3228.83	910.45	35.15
1051.9834	3229.7473	909.5	30.5
1052.0849	3230.6639	908.45	31
1052.1863	3231.5799	910.6	34.45
1052.2876	3232.4954	909.7	31.55
1052.3889	3233.4102	909	31.6
1052.4902	3234.3244	910.4	33.9
1052.5914	3235.238	905.75	29.25
1052.6926	3236.151	920.05	29.9
1052.7937	3237.0634	905.3	31.2
1052.8948	3237.9752	908.6	30.45
1052.9958	3238.8864	908.6	30.05
1053.0968	3239.797	907	30.9
1053.1977	3240.7069	907	29.95
1053.2986	3241.6163	909.7	31.95
1053.3994	3242.5251	905.6	28.95
1053.5002	3243.4332	902.6	26.3
1053.6009	3244.3408	904.7	27.75
1053.7016	3245.2477	905.15	29.7
1053.8022	3246.154	906.75	29.4
1053.9028	3247.0598	906.5	28.2
1054.0034	3247.9649	906.85	29.9
1054.1039	3248.8694	907.35	31.95
1054.2043	3249.7733	904.2	27.65
1054.3047	3250.6766	903.3	27.5
1054.4051	3251.5793	905.25	26.75
1054.5054	3252.4814	904.6	28.8
1054.6056	3253.3829	905.25	28.55
1054.7058	3254.2838	902.35	28.55
1054.806	3255.1841	901.8	27.7
1054.9061	3256.0838	900.1	23.05
1055.0061	3256.9829	901.75	26.2
1055.1062	3257.8814	903.05	24.2
1055.2061	3258.7792	904.75	25.25
1055.306	3259.6765	905	30.6
1055.4059	3260.5731	902.15	25.9
1055.5057	3261.4692	902.35	24.6
1055.6055	3262.3647	901.95	23.6
1055.7052	3263.2595	900.25	22.1
1055.8049	3264.1538	899.2	23.2
1055.9045	3265.0474	896.75	20.6
1056.0041	3265.9404	899.6	23.95
1056.1036	3266.8329	899.25	22.55
1056.2031	3267.7247	908.4	21.8
1056.3025	3268.616	895.25	22.05
1056.4019	3269.5066	899.6	21.25
1056.5013	3270.3966	898.6	20.45
1056.6005	3271.286	895.2	18.9
