Software Version:	3.9.2.0
Unit SN:	10000200
Spectrometer SN:	6960
Date:	3/8/2024 11:05:26 AM
Data Line Index:	25
Spectral Points:	2048
Integration time (ms):	125
Averages:	20
Delay (ms):	30000
Sequence Number:	1
Processing:	dark subtract
Laser Power (mW):	305
Laser Current (mA):	814
Laser Diode Temp (C):	25
Laser Case Temp (C):	24
System Temp (C):	24
Spectrometer Temp (C):	22.2
CCD Temp (C):	0.007
Secondary Temp (C):	20.008
Heatsink Temp (C):	18.672
CCDPCB Temp (C):	31.427
SecondaryPCB Temp (C):	25.947

Wavelength	RamanShift	Raw Counts	Dark Subtracted
787.061	30.1047	446.95	37.65
787.2016	32.3739	446.55	38.85
787.3422	34.6426	451.25	41.5
787.4828	36.9109	457.9	45.7
787.6235	39.1787	465.2	48.75
787.7642	41.4461	471.35	50.9
787.9049	43.7131	474.4	50.05
788.0456	45.9796	480.4	53.4
788.1863	48.2456	489.85	58.9
788.3271	50.5112	498.25	62.45
788.4679	52.7764	501.55	61.95
788.6087	55.0411	512	68.5
788.7496	57.3054	520.7	73.05
788.8904	59.5692	529.15	79.8
789.0313	61.8326	534.75	84.85
789.1722	64.0955	545.7	92
789.3132	66.3579	561.6	102.45
789.4541	68.6199	576.6	113.75
789.5951	70.8815	603.15	136
789.7361	73.1426	661.8	192.05
789.8771	75.4032	803.05	330.7
790.0181	77.6634	1164.1	687.5
790.1592	79.9231	1982.05	1502.8
790.3003	82.1824	3693.35	3210.4
790.4414	84.4412	6691.95	6204.35
790.5825	86.6995	10647.35	10155.25
790.7237	88.9574	14404.05	13906.95
790.8648	91.2148	17041.3	16539.1
791.006	93.4717	18364.2	17856.95
791.1472	95.7282	18756.85	18250.05
791.2885	97.9842	18842.7	18334.85
791.4297	100.2398	18669.7	18158.8
791.571	102.4949	18463.1	17949
791.7123	104.7495	18290.6	17771.9
791.8536	107.0036	18114.95	17593.85
791.9949	109.2573	17918.7	17400.1
792.1363	111.5105	17656.3	17136.15
792.2777	113.7632	17302.45	16781.4
792.4191	116.0154	16951.55	16417.9
792.5605	118.2672	16572.45	16043.7
792.7019	120.5185	16121.6	15592.4
792.8434	122.7693	15720.65	15188.55
792.9849	125.0197	15342.65	14806.75
793.1264	127.2696	14999.55	14459.5
793.2679	129.519	14800.15	14257.35
793.4094	131.7679	14641.55	14095.8
793.551	134.0163	14545.8	13997.05
793.6926	136.2642	14499.2	13948.65
793.8342	138.5117	14490.35	13938.15
793.9758	140.7587	14433.95	13879.55
794.1175	143.0052	14332.75	13776.3
794.2591	145.2512	14102.7	13543.6
794.4008	147.4967	13869.9	13309.55
794.5425	149.7417	13643.45	13082.15
794.6842	151.9863	13452.45	12885.5
794.826	154.2304	13381.8	12809.3
794.9677	156.4739	13326.7	12751.15
795.1095	158.717	13380.95	12805.25
795.2513	160.9596	13505.2	12923.85
795.3931	163.2017	13671	13088
795.535	165.4433	13756.3	13171.5
795.6768	167.6844	13767.7	13178.9
795.8187	169.925	13662.85	13071.95
795.9606	172.1651	13456.15	12859.6
796.1025	174.4047	13290.4	12691.25
796.2445	176.6439	13066.2	12464.75
796.3864	178.8825	12877.2	12273.6
796.5284	181.1206	12840.2	12232.9
796.6704	183.3582	12780.9	12170.35
796.8124	185.5954	12735.85	12122.25
796.9544	187.832	12711.15	12095.55
797.0965	190.0681	12751.2	12132.45
797.2386	192.3037	12764.35	12140.6
797.3806	194.5388	12781.6	12155.3
797.5228	196.7734	12842.8	12214.15
797.6649	199.0075	12891.8	12265.65
797.807	201.2411	13026.8	12400.5
797.9492	203.4742	13117.8	12485.4
798.0914	205.7068	13204.9	12568.1
798.2336	207.9389	13334.05	12698.7
798.3758	210.1704	13418.45	12791.55
798.518	212.4015	13419.35	12801.25
798.6603	214.632	13471.05	12856.8
798.8025	216.862	13488.2	12874.4
798.9448	219.0915	13524.75	12910.5
799.0871	221.3205	13572.9	12956.3
799.2294	223.549	13643.9	13031.1
799.3718	225.777	13675.95	13060.5
799.5141	228.0044	13654	13028.15
799.6565	230.2314	13660.45	13035.15
799.7989	232.4578	13561.7	12929.55
799.9413	234.6837	13539.25	12900.8
800.0837	236.909	13481.8	12841.9
800.2262	239.1339	13417.9	12754.65
800.3687	241.3582	13386.95	12737.8
800.5111	243.582	13375.25	12697.45
800.6536	245.8053	13387.3	12719.75
800.7961	248.0281	13423.45	12761.25
800.9387	250.2503	13457.85	12793.6
801.0812	252.472	13469.75	12803.95
801.2238	254.6932	13496.9	12832.1
801.3664	256.9139	13499.35	12830.25
801.509	259.134	13553.5	12881.65
801.6516	261.3536	13644.9	12977.35
801.7942	263.5727	13793.5	13123.5
801.9369	265.7912	13978.9	13307.7
802.0795	268.0092	14223.9	13553.35
802.2222	270.2267	14504.15	13830.85
802.3649	272.4436	14739.6	14065.3
802.5076	274.6601	14926.7	14241.75
802.6504	276.8759	14978.65	14295.2
802.7931	279.0913	15091.8	14409.55
802.9359	281.3061	15167.75	14483.95
803.0787	283.5204	15287.9	14603.25
803.2215	285.7341	15404.3	14717.5
803.3643	287.9473	15572.05	14881.6
803.5071	290.16	15550.15	14859.25
803.6499	292.3721	15348.75	14663.5
803.7928	294.5837	15099.05	14412.45
803.9357	296.7947	14905.1	14218.2
804.0786	299.0052	14790	14102.25
804.2215	301.2152	14706.3	14013.55
804.3644	303.4246	14661.5	13973.8
804.5074	305.6334	14620.65	13929.3
804.6503	307.8418	14583.8	13888.8
804.7933	310.0495	14524.35	13826.35
804.9363	312.2568	14386.25	13693.05
805.0793	314.4635	14179	13482.65
805.2223	316.6696	13908.85	13209.75
805.3653	318.8752	13654.3	12945.55
805.5084	321.0802	13500.9	12799
805.6514	323.2847	13463.85	12759.85
805.7945	325.4887	13415.25	12710.5
805.9376	327.692	13499.35	12792.9
806.0807	329.8949	13692.6	12985.05
806.2238	332.0972	13924.2	13217.1
806.367	334.2989	14193.2	13482.05
806.5101	336.5001	14198.65	13487.6
806.6533	338.7007	14110.45	13398.8
806.7965	340.9008	13854.5	13141.55
806.9397	343.1003	13526.55	12807.35
807.0829	345.2992	13250.15	12531.25
807.2261	347.4976	13031.5	12313.45
807.3693	349.6955	12843.3	12116.85
807.5126	351.8927	12755.95	12031.15
807.6559	354.0895	12655.45	11919.4
807.7991	356.2856	12598.05	11872.2
807.9424	358.4812	12536.25	11809.25
808.0857	360.6763	12501.95	11772.55
808.2291	362.8707	12448.65	11717.35
808.3724	365.0646	12455.35	11721.5
808.5158	367.258	12449.8	11712.8
808.6591	369.4508	12509.25	11770.4
808.8025	371.643	12640.05	11902.35
808.9459	373.8346	12731.55	11991.15
809.0893	376.0257	12904.25	12157.5
809.2327	378.2162	13057.75	12315.4
809.3762	380.4062	13164.05	12422.6
809.5196	382.5956	13063.8	12324.4
809.6631	384.7844	12888.45	12155.65
809.8066	386.9726	12645.05	11910.7
809.9501	389.1603	12451.6	11717.1
810.0936	391.3474	12367.9	11594
810.2371	393.5339	12306.95	11569.95
810.3806	395.7199	12279.7	11545.4
810.5241	397.9052	12426.75	11691.85
810.6677	400.09	12626.25	11888.45
810.8113	402.2743	12836.1	12095.85
810.9548	404.4579	12982.05	12239.4
811.0984	406.641	13192.05	12448.85
811.2421	408.8235	13333.55	12587.8
811.3857	411.0054	13500.85	12752.2
811.5293	413.1868	13602.7	12851.25
811.673	415.3675	13555.3	12799.85
811.8166	417.5477	13478.2	12724.15
811.9603	419.7273	13437.85	12681.25
812.104	421.9064	13281.05	12518.4
812.2477	424.0848	13044.8	12287.5
812.3914	426.2627	12734.75	11976.45
812.5351	428.4399	12444.3	11684.65
812.6788	430.6166	12193.4	11426.55
812.8226	432.7928	11947.15	11181.15
812.9663	434.9683	11758.2	10993.15
813.1101	437.1432	11645.55	10877.95
813.2539	439.3176	11527.95	10761.5
813.3977	441.4914	11444.05	10679.45
813.5415	443.6645	11398.05	10630.7
813.6853	445.8371	11352.3	10585.25
813.8291	448.0091	11316.5	10548.7
813.973	450.1806	11293.7	10524.65
814.1168	452.3514	11270.2	10498.9
814.2607	454.5216	11282.6	10503.35
814.4046	456.6913	11253.15	10478.95
814.5485	458.8603	11266.75	10496.5
814.6924	461.0288	11295.3	10525.1
814.8363	463.1967	11262.65	10491
814.9802	465.3639	11241.05	10466.5
815.1241	467.5306	11176.7	10403.1
815.2681	469.6967	11144.3	10372.15
815.412	471.8622	11135.2	10360.2
815.556	474.0271	11087.5	10312.25
815.7	476.1914	11074.5	10295.95
815.844	478.3551	11029.4	10253
815.988	480.5182	10993	10218.3
816.132	482.6807	11056.4	10278.95
816.276	484.8426	11118.35	10340.2
816.4201	487.0039	11288.8	10509.75
816.5641	489.1647	11541.55	10761.15
816.7082	491.3248	11792.3	11011
816.8522	493.4843	11851	11068.45
816.9963	495.6432	11802	11018.1
817.1404	497.8015	11629.2	10843.6
817.2845	499.9592	11440.25	10657.65
817.4286	502.1163	11184.25	10400.15
817.5727	504.2728	10917.2	10131.1
817.7168	506.4287	10824.05	10039.75
817.861	508.5839	10717.75	9931.35
818.0051	510.7386	10664.45	9877.6
818.1493	512.8927	10650.35	9855.75
818.2935	515.0461	10678.3	9890.2
818.4377	517.199	10744.7	9957.9
818.5818	519.3512	10922.05	10135.15
818.726	521.5029	11253.4	10457.65
818.8703	523.6539	11557.95	10765.7
819.0145	525.8043	11631.95	10839.25
819.1587	527.9541	11387.35	10594.15
819.303	530.1033	11015.6	10221.7
819.4472	532.2519	10749.35	9957.6
819.5915	534.3999	10594.25	9800.8
819.7357	536.5472	10523.3	9731
819.88	538.694	10538.95	9743.8
820.0243	540.8401	10597.4	9799.7
820.1686	542.9856	10677.4	9877.4
820.3129	545.1305	10746.2	9949
820.4572	547.2748	10836.45	10041.6
820.6016	549.4185	10811.2	10012.85
820.7459	551.5615	10825.15	10027.3
820.8902	553.704	10904.45	10106.1
821.0346	555.8458	10934.55	10137.05
821.1789	557.987	11029.4	10232.45
821.3233	560.1276	11181.05	10381.3
821.4677	562.2675	11521	10722.7
821.6121	564.4069	11923.65	11123.8
821.7565	566.5456	12141.05	11340.45
821.9009	568.6837	12047.75	11247.8
822.0453	570.8212	11572	10770.5
822.1897	572.958	11066.35	10263.4
822.3342	575.0942	10673.3	9870.15
822.4786	577.2299	10442.2	9637
822.6231	579.3648	10348	9544.75
822.7675	581.4992	10280	9475.2
822.912	583.6329	10295	9489.9
823.0565	585.766	10441.5	9637.95
823.201	587.8985	10653.35	9849.7
823.3454	590.0304	10893.2	10074.15
823.4899	592.1616	11084.75	10274.35
823.6345	594.2922	11161.05	10351.85
823.779	596.4222	11029.3	10219.05
823.9235	598.5515	10735	9924.8
824.068	600.6802	10397.65	9589.35
824.2126	602.8083	10137.05	9327.75
824.3571	604.9358	10026.75	9216.35
824.5017	607.0626	9946.9	9134.75
824.6462	609.1888	9968.1	9156.25
824.7908	611.3144	10061.3	9249.25
824.9354	613.4393	10236.55	9426.4
825.08	615.5636	10495.45	9682.35
825.2246	617.6873	10752.95	9942
825.3692	619.8103	10943.05	10127.85
825.5138	621.9327	10957.9	10140.9
825.6584	624.0544	10818.1	10003.8
825.803	626.1756	10502.25	9689.45
825.9477	628.2961	10185.35	9369.7
826.0923	630.4159	9990.5	9174.15
826.237	632.5351	9934.2	9118
826.3816	634.6537	9881.15	9064.15
826.5263	636.7716	9842.95	9025.9
826.6709	638.8889	9833.15	9015.95
826.8156	641.0056	9861.3	9042
826.9603	643.1216	9932.7	9113.2
827.105	645.237	10023.1	9202.45
827.2497	647.3518	9888.55	9070.1
827.3944	649.4659	9738.65	8917.75
827.5391	651.5793	9578.6	8759
827.6838	653.6922	9513.95	8694.1
827.8285	655.8043	9443.65	8624.55
827.9733	657.9159	9379.05	8557.95
828.118	660.0268	9306.9	8481.9
828.2627	662.137	9269.4	8446.15
828.4075	664.2466	9276.65	8450.85
828.5522	666.3556	9269.65	8446.55
828.697	668.4639	9232.1	8404.05
828.8418	670.5716	9195.5	8370.85
828.9865	672.6786	9149.45	8323.05
829.1313	674.785	9099.75	8272.25
829.2761	676.8907	9056.2	8229.55
829.4209	678.9958	9036.75	8211.45
829.5657	681.1002	9009.4	8180.8
829.7105	683.204	9018.4	8186.85
829.8553	685.3072	9011.9	8183
830.0001	687.4097	8991.5	8164.1
830.1449	689.5115	8998.55	8166
830.2898	691.6127	8988.05	8158.8
830.4346	693.7132	8964.1	8133.45
830.5794	695.8131	8953.65	8110.15
830.7243	697.9123	8954.1	8122.15
830.8691	700.0109	8953.7	8122.3
831.014	702.1089	8996.6	8166.25
831.1588	704.2061	9029.05	8198.7
831.3037	706.3028	9141.9	8309.7
831.4486	708.3987	9266.6	8434.15
831.5935	710.4941	9336.4	8504
831.7383	712.5887	9383.75	8552
831.8832	714.6827	9355.55	8519.35
832.0281	716.7761	9277.4	8445.5
832.173	718.8688	9247.7	8413.55
832.3179	720.9608	9217.45	8380.15
832.4628	723.0522	9255.4	8416.55
832.6077	725.1429	9316.25	8483.1
832.7527	727.233	9485.25	8649.75
832.8976	729.3224	9746.35	8912.3
833.0425	731.4112	10054.95	9219.15
833.1874	733.4993	10168.35	9328.95
833.3324	735.5867	9986.4	9148.95
833.4773	737.6735	9585.9	8746.7
833.6222	739.7596	9208.4	8369.45
833.7672	741.845	8979.6	8143.75
833.9122	743.9298	8876.05	8037.35
834.0571	746.014	8813.85	7977.4
834.2021	748.0974	8823.65	7983.1
834.347	750.1802	8783.6	7945
834.492	752.2624	8770.25	7932.55
834.637	754.3439	8762.8	7922.55
834.782	756.4247	8778.55	7930.45
834.9269	758.5048	8807.5	7969.75
835.0719	760.5843	8890.25	8050.85
835.2169	762.6631	9054.4	8215.75
835.3619	764.7413	9313.6	8474.1
835.5069	766.8188	9756.95	8914.5
835.6519	768.8956	10169.95	9326.9
835.7969	770.9718	10493.85	9653.8
835.9419	773.0473	10457.25	9614.6
836.0869	775.1221	10256.15	9413.75
836.232	777.1962	10140.45	9298.25
836.377	779.2697	10379.9	9536.45
836.522	781.3426	10964.9	10105
836.667	783.4147	11396.2	10553.8
836.8121	785.4862	11420.35	10578.75
836.9571	787.557	11030.9	10188.7
837.1021	789.6271	10378.05	9537.35
837.2472	791.6966	9682.85	8840.55
837.3922	793.7654	9118.95	8275.5
837.5373	795.8335	8784.1	7941.15
837.6823	797.901	8599.35	7755.55
837.8274	799.9678	8501.45	7654.1
837.9724	802.0339	8484.7	7638.9
838.1175	804.0993	8506.05	7652.3
838.2626	806.1641	8491.75	7645.45
838.4076	808.2282	8418.95	7575.4
838.5527	810.2916	8337.5	7490.35
838.6978	812.3544	8263.25	7419.65
838.8428	814.4164	8173.2	7330.55
838.9879	816.4778	8210.45	7362.15
839.133	818.5385	8252.3	7406.2
839.2781	820.5986	8423.6	7576.85
839.4232	822.658	8661.95	7814.3
839.5682	824.7166	8968.85	8123.8
839.7133	826.7747	9419.9	8575.3
839.8584	828.832	9805.45	8957.4
840.0035	830.8886	10089.45	9241.25
840.1486	832.9446	10261.05	9413.9
840.2937	834.9999	10176.95	9329.6
840.4388	837.0545	9874.2	9022.2
840.5839	839.1085	9404.15	8554.15
840.729	841.1618	8955.1	8102.8
840.8741	843.2143	8642.75	7792.35
841.0192	845.2662	8409.5	7558.65
841.1643	847.3175	8343.1	7494.25
841.3095	849.368	8264.1	7415.3
841.4546	851.4179	8257.7	7407.6
841.5997	853.467	8191.05	7341
841.7448	855.5155	8257.15	7407.65
841.8899	857.5633	8288.2	7440.15
842.0351	859.6105	8262.8	7411.35
842.1802	861.6569	8192.5	7341.4
842.3253	863.7027	8109.25	7256.25
842.4704	865.7478	8036.95	7183.2
842.6156	867.7922	7963.9	7113
842.7607	869.8359	7903.35	7051.5
842.9058	871.8789	7871	7017
843.0509	873.9212	7859.7	6975.05
843.1961	875.9629	7848.3	6997.5
843.3412	878.0039	7900.2	7047.8
843.4863	880.0441	7963.8	7112.7
843.6315	882.0837	8059.9	7206.15
843.7766	884.1226	8177.8	7323.1
843.9218	886.1609	8352.9	7502.1
844.0669	888.1984	8605.4	7753.6
844.212	890.2352	8890.6	8038
844.3572	892.2714	8954.55	8097
844.5023	894.3069	8837.1	7981.65
844.6475	896.3416	8575.8	7719.55
844.7926	898.3757	8313.6	7459.65
844.9377	900.4091	8139.15	7284.75
845.0829	902.4418	8144.6	7284.55
845.228	904.4739	8234.3	7377.4
845.3732	906.5052	8374.1	7520.65
845.5183	908.5358	8390.05	7536.4
845.6635	910.5658	8310.95	7454.55
845.8086	912.595	8134.7	7279.95
845.9538	914.6236	7923.65	7068.45
846.0989	916.6515	7759.75	6907.15
846.2441	918.6786	7654.05	6796.5
846.3892	920.7051	7587.55	6729.55
846.5344	922.7309	7603.85	6747.55
846.6795	924.756	7579.1	6723.25
846.8246	926.7804	7625.95	6764.3
846.9698	928.8041	7669.45	6809.25
847.1149	930.8272	7756	6895.75
847.2601	932.8495	7797.95	6940.35
847.4052	934.8711	7810.95	6952.6
847.5504	936.892	7843.25	6986.5
847.6955	938.9123	7935.1	7076.55
847.8407	940.9318	8086.3	7229
847.9858	942.9506	8188.3	7330.05
848.131	944.9688	8158.8	7301.1
848.2761	946.9862	8057.35	7198.55
848.4213	949.003	7859.55	7001.1
848.5664	951.019	7732.15	6872.7
848.7115	953.0344	7622.3	6761.1
848.8567	955.0491	7514.25	6654.15
849.0018	957.063	7484.7	6625.55
849.147	959.0763	7460.6	6603.25
849.2921	961.0888	7467.1	6606.15
849.4373	963.1007	7461.9	6602.1
849.5824	965.1119	7399.05	6540.25
849.7275	967.1223	7336.4	6474.9
849.8727	969.1321	7285.3	6425.75
850.0178	971.1412	7255.35	6396.45
850.1629	973.1495	7231.15	6371
850.3081	975.1572	7256.8	6356
850.4532	977.1641	7258.85	6399.6
850.5983	979.1704	7271.6	6409.2
850.7435	981.1759	7237.95	6374.9
850.8886	983.1808	7204.5	6344.2
851.0337	985.1849	7154.95	6285.15
851.1788	987.1884	7135.7	6272.9
851.324	989.1911	7153.05	6290.2
851.4691	991.1932	7172.5	6310.3
851.6142	993.1945	7193.05	6329.4
851.7593	995.1951	7177.9	6315.75
851.9045	997.1951	7177.05	6307.6
852.0496	999.1943	7118.65	6257.5
852.1947	1001.1928	7130.65	6267.3
852.3398	1003.1906	7161.1	6299.4
852.4849	1005.1877	7295.65	6431.3
852.63	1007.1841	7424	6564
852.7751	1009.1798	7499.65	6638.9
852.9202	1011.1748	7487.65	6625.2
853.0653	1013.1691	7336.2	6470.55
853.2104	1015.1627	7159.85	6294.25
853.3555	1017.1556	7002.75	6138.75
853.5006	1019.1477	6902.55	6037.15
853.6457	1021.1392	6796.9	5935.8
853.7908	1023.1299	6763.45	5900.4
853.9359	1025.12	6706.25	5841.6
854.081	1027.1093	6765.9	5904.3
854.2261	1029.0979	6867.85	6008.35
854.3712	1031.0859	6949.35	6087.85
854.5163	1033.0731	7021.4	6157.2
854.6613	1035.0596	7038.5	6175.45
854.8064	1037.0454	7004.9	6139.95
854.9515	1039.0304	6956.25	6089.45
855.0965	1041.0148	6844.6	5979.6
855.2416	1042.9985	6733.75	5867.55
855.3867	1044.9814	6637.5	5772.8
855.5317	1046.9636	6589.25	5723.75
855.6768	1048.9452	6609.95	5748.2
855.8219	1050.926	6704.3	5840.85
855.9669	1052.9061	6799.15	5934
856.112	1054.8855	6865.15	5997.8
856.257	1056.8642	6858.3	5991.95
856.4021	1058.8421	6845.9	5974.55
856.5471	1060.8194	6811.5	5943.8
856.6921	1062.7959	6800.9	5935.75
856.8372	1064.7717	6769.8	5900.8
856.9822	1066.7469	6742.2	5875.05
857.1272	1068.7213	6768.5	5900.3
857.2723	1070.695	6834.45	5966.5
857.4173	1072.6679	6922.45	6055.8
857.5623	1074.6402	7063.75	6197.05
857.7073	1076.6117	7156.95	6284.45
857.8523	1078.5826	7103	6235.3
857.9973	1080.5527	6906	6036.3
858.1423	1082.5221	6720.95	5852.65
858.2873	1084.4908	6569.45	5702.85
858.4323	1086.4587	6454.7	5586.55
858.5773	1088.426	6394.2	5525.25
858.7223	1090.3925	6379.55	5507.05
858.8673	1092.3584	6378.1	5510.2
859.0123	1094.3235	6402.8	5536.85
859.1573	1096.2879	6487.75	5620.2
859.3022	1098.2515	6603.95	5736.5
859.4472	1100.2145	6733.45	5866.35
859.5922	1102.1767	6890.9	6020.7
859.7371	1104.1382	7107.55	6238.65
859.8821	1106.099	7383.7	6515
860.027	1108.0591	7632.55	6762.8
860.172	1110.0185	7835.6	6965.1
860.3169	1111.9771	8029.25	7161.35
860.4619	1113.9351	8266.8	7397.8
860.6068	1115.8923	8613.65	7746.15
860.7517	1117.8488	8898.35	8026.4
860.8967	1119.8045	8780.95	7912.5
861.0416	1121.7596	8314.4	7443.95
861.1865	1123.7139	7697.7	6828.55
861.3314	1125.6675	7307.5	6439.85
861.4763	1127.6204	7239.55	6370.35
861.6212	1129.5726	7317.8	6446.25
861.7661	1131.524	7363.4	6493.4
861.911	1133.4748	7217.55	6347.95
862.0559	1135.4248	6897	6028.05
862.2008	1137.3741	6630	5761.05
862.3457	1139.3226	6445.75	5573.9
862.4905	1141.2705	6401.05	5531.85
862.6354	1143.2176	6417.5	5540.35
862.7803	1145.164	6511.4	5639.8
862.9251	1147.1097	6540.8	5670.05
863.07	1149.0546	6479.85	5607.25
863.2148	1150.9989	6321.1	5450.25
863.3597	1152.9424	6212.2	5342.95
863.5045	1154.8852	6107.3	5234.7
863.6493	1156.8272	6075.35	5204.75
863.7942	1158.7686	6084	5206.05
863.939	1160.7092	6053	5183.5
864.0838	1162.6491	6051.45	5179.55
864.2286	1164.5883	6118.55	5248.1
864.3734	1166.5267	6185.9	5313.75
864.5182	1168.4644	6285.65	5414.5
864.663	1170.4014	6428.2	5552
864.8078	1172.3377	6613.15	5743.65
864.9526	1174.2732	6862.1	5992
865.0974	1176.2081	7240.05	6369.25
865.2421	1178.1421	7857.3	6982.75
865.3869	1180.0755	8567.4	7697.8
865.5317	1182.0082	9059.6	8188.3
865.6764	1183.9401	9150.1	8278.35
865.8212	1185.8713	8749.25	7878.3
865.9659	1187.8017	8082.35	7212.85
866.1106	1189.7315	7465.3	6592.6
866.2554	1191.6605	6979.3	6080.35
866.4001	1193.5888	6653.9	5783
866.5448	1195.5163	6471.55	5600.35
866.6895	1197.4432	6327.25	5454.85
866.8342	1199.3693	6216	5343.9
866.9789	1201.2947	6130.05	5248.7
867.1236	1203.2193	6072.95	5201.4
867.2683	1205.1432	6055.35	5181.35
867.413	1207.0664	6044	5172.65
867.5576	1208.9889	6028	5150.75
867.7023	1210.9106	6006.45	5133.65
867.847	1212.8316	6030.1	5157.45
867.9916	1214.7519	6088.75	5205.65
868.1363	1216.6715	6128.25	5258.65
868.2809	1218.5903	6172.85	5300
868.4255	1220.5084	6235.4	5360.6
868.5701	1222.4257	6304	5432.05
868.7148	1224.3424	6374.45	5502.15
868.8594	1226.2583	6439.1	5560.85
869.004	1228.1735	6576.05	5702.2
869.1486	1230.0879	6745.45	5872.95
869.2932	1232.0016	6934.4	6062.85
869.4377	1233.9146	7122.15	6247.4
869.5823	1235.8269	7209.25	6335.2
869.7269	1237.7384	7238.95	6365.1
869.8715	1239.6492	7185.5	6311.7
870.016	1241.5592	7232.85	6359.25
870.1606	1243.4686	7422	6548.9
870.3051	1245.3772	7765.5	6889.35
870.4496	1247.285	8210.95	7336.35
870.5941	1249.1922	8638.95	7765.35
870.7387	1251.0986	9006.85	8134.8
870.8832	1253.0042	9335.45	8463.35
871.0277	1254.9092	9762.25	8887.85
871.1722	1256.8134	10284.55	9410.1
871.3167	1258.7169	10821.8	9947.25
871.4611	1260.6196	11329.6	10455.85
871.6056	1262.5216	11636.45	10759.9
871.7501	1264.4229	11693.35	10819.3
871.8945	1266.3234	11578.2	10702.4
872.039	1268.2232	11244.75	10372.2
872.1834	1270.1223	10901.35	10024.3
872.3278	1272.0207	10660.4	9786.2
872.4723	1273.9183	10526.8	9647
872.6167	1275.8151	10493	9619.2
872.7611	1277.7113	10619.3	9743.65
872.9055	1279.6067	11013.15	10137.5
873.0499	1281.5014	11695.45	10817.75
873.1943	1283.3953	12703.45	11826.3
873.3386	1285.2885	13857.15	12984.9
873.483	1287.181	14892	14017.1
873.6274	1289.0727	15382.8	14510.15
873.7717	1290.9637	15167.25	14293.2
873.9161	1292.854	14502.4	13628.35
874.0604	1294.7435	13648.7	12771.95
874.2047	1296.6323	12876.25	11999.4
874.349	1298.5204	12172.05	11293.8
874.4933	1300.4077	11672.05	10795.35
874.6376	1302.2943	11304.95	10431.4
874.7819	1304.1802	11017.75	10144
874.9262	1306.0653	10790.15	9912.1
875.0705	1307.9497	10617.35	9742.7
875.2147	1309.8333	10462.25	9586.6
875.359	1311.7162	10372.55	9498.65
875.5032	1313.5984	10254.5	9377.9
875.6475	1315.4798	10174.55	9282.8
875.7917	1317.3605	10203.6	9310.25
875.9359	1319.2405	10314.55	9439
876.0801	1321.1197	10386.7	9509.25
876.2243	1322.9982	10294.25	9413.35
876.3685	1324.876	10068.05	9191.9
876.5127	1326.753	9635.85	8758.65
876.6569	1328.6293	9126.95	8247.35
876.801	1330.5048	8584.9	7706.55
876.9452	1332.3796	8065.95	7193.5
877.0893	1334.2537	7679.5	6779.7
877.2335	1336.127	7352.55	6477
877.3776	1337.9996	7173.65	6299.1
877.5217	1339.8714	7039.1	6162.5
877.6658	1341.7426	6949.2	6030.2
877.8099	1343.6129	6792.6	5916
877.954	1345.4826	6711.95	5835.6
878.0981	1347.3515	6606.2	5725.7
878.2422	1349.2196	6519.75	5640.45
878.3862	1351.087	6456.1	5579.5
878.5303	1352.9537	6432.55	5558.15
878.6743	1354.8197	6440.9	5565.4
878.8184	1356.6849	6489.75	5614.55
878.9624	1358.5493	6541.65	5664.45
879.1064	1360.4131	6647.8	5772.9
879.2504	1362.276	6838.45	5962.95
879.3944	1364.1383	7063.7	6187
879.5384	1365.9998	7148.4	6266.9
879.6823	1367.8606	7096	6220.15
879.8263	1369.7206	7069.35	6192.05
879.9702	1371.5799	7073.05	6196.05
880.1142	1373.4384	7088.75	6210.7
880.2581	1375.2962	6959.35	6081.35
880.402	1377.1533	6691.5	5814.65
880.5459	1379.0096	6465.75	5587.05
880.6898	1380.8652	6261.5	5385.9
880.8337	1382.7201	6120.3	5243.3
880.9776	1384.5742	5952.2	5074
881.1215	1386.4275	5810.75	4931.65
881.2653	1388.2802	5691.7	4817.5
881.4092	1390.132	5614.85	4739.1
881.553	1391.9832	5563.4	4686.05
881.6968	1393.8336	5538.85	4661.4
881.8406	1395.6832	5509.75	4631.4
881.9844	1397.5322	5479.5	4600.45
882.1282	1399.3803	5424.25	4544.9
882.272	1401.2278	5359.1	4481.15
882.4158	1403.0745	5318.8	4441.3
882.5595	1404.9204	5260.85	4383.2
882.7033	1406.7656	5222.35	4345.95
882.847	1408.6101	5214.55	4335.7
882.9908	1410.4538	5186.45	4309
883.1345	1412.2968	5179.4	4303.9
883.2782	1414.139	5183.55	4307.15
883.4219	1415.9805	5218.5	4341.15
883.5656	1417.8213	5257.4	4373.2
883.7092	1419.6613	5336.8	4460.35
883.8529	1421.5006	5493.15	4612.95
883.9965	1423.3391	5684.2	4806.6
884.1402	1425.1769	5957.35	5079.2
884.2838	1427.0139	6352.1	5473.8
884.4274	1428.8502	6821.7	5943.85
884.571	1430.6858	7195.25	6317.75
884.7146	1432.5206	7379.15	6502.45
884.8582	1434.3547	7357.2	6479.15
885.0018	1436.188	7278.1	6401.1
885.1453	1438.0206	7202	6322.6
885.2889	1439.8524	7129.7	6251
885.4324	1441.6835	7127.4	6247.75
885.5759	1443.5139	7101.75	6220.35
885.7194	1445.3435	7138.25	6261.15
885.8629	1447.1724	7165.75	6289
886.0064	1449.0005	7152.25	6275.9
886.1499	1450.8279	7119.35	6239
886.2933	1452.6545	7079.5	6202.1
886.4368	1454.4804	7061.15	6185.05
886.5802	1456.3056	7014.85	6130.4
886.7237	1458.13	6895.55	6020.15
886.8671	1459.9536	6786	5908.35
887.0105	1461.7766	6612.9	5736.1
887.1539	1463.5987	6408.8	5528.7
887.2972	1465.4202	6204.45	5326.95
887.4406	1467.2409	5985.35	5106.1
887.584	1469.0608	5801.15	4923.15
887.7273	1470.88	5634.05	4755.2
887.8706	1472.6984	5491.8	4614.4
888.0139	1474.5161	5347.25	4467.05
888.1572	1476.3331	5245.7	4368
888.3005	1478.1493	5184.25	4303.7
888.4438	1479.9648	5143	4266
888.5871	1481.7795	5136.15	4258.45
888.7303	1483.5935	5134.7	4259.15
888.8736	1485.4067	5152.4	4275.2
889.0168	1487.2192	5148.3	4270.05
889.16	1489.031	5169.5	4290.55
889.3032	1490.842	5153.55	4278.65
889.4464	1492.6522	5168.55	4289.95
889.5896	1494.4618	5157.6	4277.3
889.7327	1496.2705	5158.9	4279.6
889.8759	1498.0785	5110.85	4230.9
890.019	1499.8858	5094.35	4216.1
890.1622	1501.6924	5063.55	4182.95
890.3053	1503.4981	5015.4	4135.75
890.4484	1505.3032	4996.85	4118.8
890.5914	1507.1075	4966.8	4087.9
890.7345	1508.911	4941.5	4062.95
890.8776	1510.7138	4912.4	4034.65
891.0206	1512.5159	4865.1	3985.6
891.1637	1514.3172	4819.15	3940.5
891.3067	1516.1178	4782.4	3904.55
891.4497	1517.9176	4756	3874.15
891.5927	1519.7166	4717.3	3840.2
891.7357	1521.515	4696.35	3810.65
891.8786	1523.3126	4659.4	3781.95
892.0216	1525.1094	4647.45	3765.25
892.1645	1526.9055	4630.3	3752.55
892.3074	1528.7008	4598	3716.5
892.4503	1530.4954	4580.55	3696.15
892.5932	1532.2893	4553.45	3675.75
892.7361	1534.0824	4547.8	3665.2
892.879	1535.8747	4532.4	3653.95
893.0218	1537.6663	4527.55	3648.85
893.1647	1539.4572	4524.6	3643.75
893.3075	1541.2473	4533.1	3654
893.4503	1543.0367	4526.8	3648.6
893.5931	1544.8253	4526.35	3644.3
893.7359	1546.6132	4540.65	3660.05
893.8787	1548.4003	4559.35	3669.7
894.0214	1550.1867	4596.9	3711.7
894.1642	1551.9723	4638.85	3756.2
894.3069	1553.7572	4707.55	3826.5
894.4496	1555.5414	4781.95	3902.3
894.5923	1557.3247	4921.3	4040.05
894.735	1559.1074	5078.35	4199.2
894.8777	1560.8893	5286.45	4409.25
895.0204	1562.6705	5522.15	4643.4
895.163	1564.4509	5688	4809.55
895.3056	1566.2305	5763.35	4885.65
895.4482	1568.0094	5823.9	4947.4
895.5908	1569.7876	5847.9	4969.2
895.7334	1571.565	5828.3	4949.5
895.876	1573.3417	5819.3	4938.2
896.0186	1575.1176	5846.9	4966.9
896.1611	1576.8928	5937.9	5057.1
896.3036	1578.6672	6048.95	5172.2
896.4461	1580.4409	6203.9	5327.35
896.5886	1582.2138	6439.35	5557.5
896.7311	1583.986	6671.7	5794.55
896.8736	1585.7575	6923.6	6045.7
897.0161	1587.5282	7133.55	6257.65
897.1585	1589.2981	7320.35	6441
897.3009	1591.0673	7378.05	6497.95
897.4433	1592.8358	7448.7	6570.45
897.5857	1594.6035	7434.3	6554.85
897.7281	1596.3704	7343.2	6463.25
897.8705	1598.1366	7222.15	6343.15
898.0128	1599.9021	7084.1	6206.9
898.1551	1601.6668	6914.5	6035.4
898.2975	1603.4308	6762.95	5883.3
898.4398	1605.194	6725	5841.4
898.5821	1606.9564	6811.85	5933.9
898.7243	1608.7182	7086	6205.15
898.8666	1610.4791	7516.45	6637.45
899.0088	1612.2394	8101.4	7223.65
899.1511	1613.9988	8761.85	7882.65
899.2933	1615.7576	9363.8	8484.75
899.4355	1617.5156	9698.25	8814.7
899.5776	1619.2728	9667.6	8791.75
899.7198	1621.0293	9286.9	8410.25
899.862	1622.785	8674.2	7791.1
900.0041	1624.54	7929.2	7049.2
900.1462	1626.2942	7219.5	6338.25
900.2883	1628.0477	6587.2	5705.2
900.4304	1629.8005	6044.8	5158.75
900.5725	1631.5525	5624.85	4745.75
900.7145	1633.3037	5274.4	4394.55
900.8566	1635.0542	5039.4	4159.7
900.9986	1636.804	4818.55	3938.4
901.1406	1638.553	4706.8	3769.1
901.2826	1640.3013	4549.95	3671.7
901.4245	1642.0488	4427.15	3547.8
901.5665	1643.7955	4337	3457.55
901.7085	1645.5416	4281.35	3403.65
901.8504	1647.2868	4209.15	3330.3
901.9923	1649.0313	4159.55	3281.45
902.1342	1650.7751	4128	3244
902.2761	1652.5181	4102.05	3222.95
902.4179	1654.2604	4104	3222.45
902.5598	1656.0019	4114.45	3236.05
902.7016	1657.7427	4141.5	3260.85
902.8434	1659.4828	4238.05	3361.05
902.9852	1661.222	4374.95	3494.75
903.127	1662.9606	4598.15	3719.25
903.2687	1664.6984	4811.45	3931.6
903.4105	1666.4354	4961.65	4080.05
903.5522	1668.1717	4949.05	4071.55
903.6939	1669.9072	4751.85	3871
903.8356	1671.642	4509.3	3626.35
903.9773	1673.3761	4264.75	3386.85
904.119	1675.1094	4060.45	3180.3
904.2606	1676.8419	3899.05	3023.7
904.4022	1678.5737	3784.5	2906.8
904.5439	1680.3048	3710.25	2831.7
904.6855	1682.0351	3641.35	2762.8
904.827	1683.7646	3591.75	2707.8
904.9686	1685.4934	3571.5	2693.55
905.1101	1687.2215	3544.35	2665.4
905.2517	1688.9488	3512.1	2631.15
905.3932	1690.6754	3489.85	2614.95
905.5347	1692.4012	3479.9	2603.25
905.6761	1694.1263	3470.3	2593
905.8176	1695.8506	3447.95	2567.25
905.9591	1697.5742	3420.45	2541.4
906.1005	1699.297	3422.2	2540.95
906.2419	1701.0191	3395.8	2515.45
906.3833	1702.7404	3378.8	2501.55
906.5246	1704.461	3348.95	2468.15
906.666	1706.1808	3343.75	2461.55
906.8073	1707.8999	3325.85	2447.15
906.9487	1709.6182	3305	2424.8
907.09	1711.3358	3296.2	2416.75
907.2313	1713.0527	3299.3	2421.85
907.3725	1714.7688	3290.25	2405.1
907.5138	1716.4841	3273.65	2392.85
907.655	1718.1987	3260.3	2373.9
907.7962	1719.9126	3245.5	2366.3
907.9374	1721.6257	3239.65	2357.2
908.0786	1723.338	3224.2	2342.2
908.2198	1725.0496	3206.7	2325.25
908.3609	1726.7605	3194.1	2314.3
908.502	1728.4706	3196.6	2313.9
908.6431	1730.18	3190.3	2307.6
908.7842	1731.8886	3182.75	2303.6
908.9253	1733.5964	3174.35	2274.8
909.0664	1735.3036	3157.4	2275.65
909.2074	1737.0099	3152	2270.65
909.3484	1738.7156	3142.6	2264.2
909.4894	1740.4204	3125.2	2241.6
909.6304	1742.1246	3133.95	2254.6
909.7714	1743.8279	3127.25	2249.05
909.9123	1745.5306	3115.9	2235.9
910.0532	1747.2325	3109.25	2229.85
910.1941	1748.9336	3085.8	2206.8
910.335	1750.634	3082	2201.05
910.4759	1752.3336	3082.5	2204.25
910.6168	1754.0325	3074.25	2197.05
910.7576	1755.7307	3064.75	2184.65
910.8984	1757.4281	3077.75	2198.65
911.0392	1759.1247	3071.3	2180.95
911.18	1760.8206	3065.55	2182.95
911.3208	1762.5158	3054.8	2169
911.4615	1764.2102	3039.55	2161.9
911.6022	1765.9039	3037.7	2157.85
911.7429	1767.5968	3024.3	2145.9
911.8836	1769.289	3023.45	2144.9
912.0243	1770.9804	3011.8	2131.4
912.1649	1772.6711	3017.25	2138.55
912.3056	1774.361	3001.85	2121.35
912.4462	1776.0502	3003	2123.7
912.5868	1777.7386	2994.45	2112.3
912.7274	1779.4263	2990.05	2113
912.8679	1781.1132	2971.6	2092.45
913.0084	1782.7994	2971.3	2089.25
913.149	1784.4849	2971.55	2092.5
913.2895	1786.1696	2973.85	2089.35
913.4299	1787.8535	2967.3	2087.8
913.5704	1789.5367	2957.05	2076.85
913.7108	1791.2192	2950.8	2070.4
913.8513	1792.9009	2940.3	2048.5
913.9917	1794.5818	2925.95	2046.3
914.132	1796.2621	2927.15	2047.75
914.2724	1797.9415	2914.35	2034.45
914.4128	1799.6202	2902.65	2022.65
914.5531	1801.2982	2891.7	2011.2
914.6934	1802.9755	2892.4	2011
914.8337	1804.6519	2893.8	2012.9
914.9739	1806.3277	2883.35	2003.6
915.1142	1808.0027	2867.4	1986.95
915.2544	1809.6769	2868.2	1991.6
915.3946	1811.3504	2865.5	1985.65
915.5348	1813.0231	2854.45	1973.7
915.675	1814.6951	2862.85	1984.05
915.8151	1816.3664	2861.55	1979.05
915.9553	1818.0369	2855.95	1975.5
916.0954	1819.7067	2844.95	1966.35
916.2355	1821.3757	2838.8	1955.3
916.3755	1823.044	2829.5	1950.1
916.5156	1824.7115	2834.5	1953.8
916.6556	1826.3783	2816.35	1937.85
916.7956	1828.0443	2805.35	1929.1
916.9356	1829.7096	2802.45	1921.95
917.0756	1831.3741	2809.5	1924.4
917.2155	1833.0379	2794.05	1914.35
917.3555	1834.701	2791.8	1910.4
917.4954	1836.3633	2790.85	1909.65
917.6353	1838.0248	2792.4	1909.05
917.7751	1839.6856	2795.85	1914.5
917.915	1841.3457	2783.85	1905
918.0548	1843.005	2767.2	1887.5
918.1946	1844.6636	2767.8	1890.1
918.3344	1846.3214	2763.6	1882.55
918.4742	1847.9785	2760.5	1881.3
918.6139	1849.6349	2752.3	1872.15
918.7537	1851.2904	2769.35	1878.1
918.8934	1852.9453	2746.95	1867.35
919.0331	1854.5994	2747.4	1864.45
919.1727	1856.2528	2755.3	1870.05
919.3124	1857.9054	2732.65	1853.3
919.452	1859.5572	2724.9	1846.85
919.5916	1861.2083	2722.05	1840.7
919.7312	1862.8587	2728	1847.85
919.8708	1864.5084	2711.3	1830.95
920.0103	1866.1572	2713.95	1836.05
920.1498	1867.8054	2709.35	1829.1
920.2893	1869.4528	2697.75	1817.65
920.4288	1871.0994	2692.3	1813.45
920.5683	1872.7453	2688.2	1809.55
920.7077	1874.3905	2692.4	1805.7
920.8471	1876.0349	2668.55	1787.35
920.9865	1877.6786	2667.9	1786.8
921.1259	1879.3215	2676.85	1798.5
921.2653	1880.9637	2664.55	1785.1
921.4046	1882.6051	2663.25	1783.05
921.5439	1884.2458	2660.7	1778.75
921.6832	1885.8858	2650.9	1770.1
921.8225	1887.525	2654.75	1774.6
921.9617	1889.1634	2643.85	1764.75
922.101	1890.8011	2629.25	1749.65
922.2402	1892.4381	2630.1	1750.35
922.3794	1894.0743	2626.75	1746.2
922.5185	1895.7098	2607.7	1729.05
922.6577	1897.3446	2606.8	1725.25
922.7968	1898.9786	2612	1730.55
922.9359	1900.6118	2607.25	1725.6
923.075	1902.2443	2602.7	1719.35
923.214	1903.8761	2585.15	1707.25
923.3531	1905.5071	2570.95	1690.9
923.4921	1907.1374	2572.55	1691.65
923.6311	1908.7669	2574.6	1694.5
923.77	1910.3957	2572.2	1692.65
923.909	1912.0237	2552.45	1673.95
924.0479	1913.651	2560.4	1678.8
924.1868	1915.2776	2545.9	1667.85
924.3257	1916.9034	2542.55	1662.55
924.4646	1918.5285	2544.6	1665.5
924.6034	1920.1528	2528.25	1648.95
924.7422	1921.7764	2524.9	1644.9
924.881	1923.3992	2510.7	1631.95
925.0198	1925.0213	2504.1	1625.3
925.1586	1926.6427	2497.55	1618.3
925.2973	1928.2633	2562.5	1597.4
925.436	1929.8832	2485.95	1606.1
925.5747	1931.5023	2473.85	1594.05
925.7134	1933.1207	2471.15	1593.2
925.852	1934.7383	2475.55	1595.85
925.9906	1936.3552	2462.3	1582.6
926.1292	1937.9714	2455.05	1575.4
926.2678	1939.5868	2452.1	1569.8
926.4064	1941.2015	2454.25	1574.65
926.5449	1942.8154	2446.55	1565.4
926.6834	1944.4286	2432.45	1551.9
926.8219	1946.041	2456.05	1550.85
926.9604	1947.6528	2423.8	1540.65
927.0988	1949.2637	2419.2	1539.6
927.2372	1950.8739	2415.8	1534.7
927.3756	1952.4834	2409.35	1528.6
927.514	1954.0921	2409.6	1528.4
927.6523	1955.7001	2402.75	1520.7
927.7907	1957.3074	2395.2	1516.4
927.929	1958.9139	2385.6	1506.7
928.0673	1960.5197	2379.35	1496.5
928.2055	1962.1247	2371.4	1491.95
928.3438	1963.729	2368.15	1489.05
928.482	1965.3325	2376.8	1475.35
928.6202	1966.9353	2357.1	1478.6
928.7584	1968.5374	2357.85	1478
928.8965	1970.1387	2344.6	1464.15
929.0346	1971.7393	2338.15	1456.1
929.1727	1973.3392	2328.8	1448.8
929.3108	1974.9383	2338.4	1460.65
929.4489	1976.5366	2310.7	1430.1
929.5869	1978.1342	2326.25	1447.1
929.7249	1979.7311	2316.8	1434.75
929.8629	1981.3273	2311.5	1431.6
930.0009	1982.9227	2316.7	1435.2
930.1388	1984.5173	2306.1	1426.05
930.2767	1986.1112	2290.75	1410.95
930.4146	1987.7044	2288	1409
930.5525	1989.2968	2289.7	1410.65
930.6904	1990.8885	2297.6	1415
930.8282	1992.4795	2274.4	1394.15
930.966	1994.0697	2280.35	1399.7
931.1038	1995.6592	2272.85	1392.3
931.2415	1997.2479	2265.55	1385.9
931.3793	1998.8359	2267.65	1387.75
931.517	2000.4232	2255.05	1375.5
931.6547	2002.0097	2249.7	1369.65
931.7923	2003.5955	2255.75	1375.95
931.93	2005.1805	2241.4	1361.55
932.0676	2006.7648	2246.3	1366.2
932.2052	2008.3484	2234.7	1353.75
932.3427	2009.9312	2235.45	1352.8
932.4803	2011.5133	2232.7	1354.75
932.6178	2013.0946	2222.15	1343.5
932.7553	2014.6752	2225.5	1346.45
932.8928	2016.2551	2223.35	1343.7
933.0302	2017.8342	2210.4	1332.85
933.1676	2019.4126	2203.55	1325.3
933.305	2020.9902	2200.9	1322.45
933.4424	2022.5672	2188.3	1306
933.5798	2024.1433	2202.95	1318.45
933.7171	2025.7188	2183.25	1306.1
933.8544	2027.2935	2182.6	1301.9
933.9917	2028.8674	2174.65	1295.85
934.129	2030.4406	2172.15	1294.85
934.2662	2032.0131	2176.25	1295.4
934.4034	2033.5849	2161.8	1278.55
934.5406	2035.1559	2158.25	1279
934.6778	2036.7261	2164.45	1285.9
934.8149	2038.2957	2163.8	1284.65
934.952	2039.8645	2140.5	1259.45
935.0891	2041.4325	2164.45	1284.1
935.2262	2042.9998	2143	1264.2
935.3632	2044.5664	2147.45	1266.1
935.5002	2046.1323	2139.75	1260.3
935.6372	2047.6974	2135	1257.65
935.7742	2049.2617	2133.2	1255.05
935.9111	2050.8254	2159.15	1245.05
936.048	2052.3883	2130.1	1248.75
936.1849	2053.9504	2125.3	1245.8
936.3218	2055.5118	2125.35	1244.3
936.4586	2057.0725	2128.2	1247.55
936.5955	2058.6325	2106.65	1225.7
936.7323	2060.1917	2108.35	1228.9
936.869	2061.7502	2107.9	1224
937.0058	2063.3079	2112.65	1234.2
937.1425	2064.8649	2095.7	1213.4
937.2792	2066.4212	2088.6	1210.6
937.4159	2067.9767	2085.2	1206.3
937.5525	2069.5315	2087.9	1207.75
937.6891	2071.0856	2088.1	1210.45
937.8257	2072.6389	2080.45	1200.8
937.9623	2074.1915	2057.45	1181.65
938.0989	2075.7433	2061.75	1179.95
938.2354	2077.2945	2061.75	1185.2
938.3719	2078.8448	2057.05	1177.65
938.5084	2080.3945	2050.25	1170.6
938.6448	2081.9434	2045.4	1165.4
938.7812	2083.4916	2048.4	1172.15
938.9176	2085.039	2038.95	1158.1
939.054	2086.5857	2033	1152.3
939.1903	2088.1317	2040.8	1162.55
939.3267	2089.677	2034.05	1152.65
939.463	2091.2215	2028.3	1150.2
939.5992	2092.7652	2046.9	1164.85
939.7355	2094.3083	2025.1	1146.1
939.8717	2095.8506	2018.8	1141.85
940.0079	2097.3921	2021.8	1145.2
940.1441	2098.933	2017.9	1139.75
940.2802	2100.4731	2022.6	1143.45
940.4163	2102.0124	2026.7	1128.65
940.5524	2103.5511	2012.8	1133.45
940.6885	2105.089	2009.55	1128.9
940.8245	2106.6261	2002.85	1124.3
940.9606	2108.1626	1999.1	1119.15
941.0965	2109.6983	2033.5	1123.6
941.2325	2111.2332	1998.05	1118.55
941.3684	2112.7675	1996.1	1115.95
941.5044	2114.301	1997.15	1117
941.6403	2115.8337	1987.75	1108.25
941.7761	2117.3657	1983.4	1104.9
941.912	2118.897	1991.6	1111
942.0478	2120.4276	1979.85	1094
942.1835	2121.9575	1971.95	1092.7
942.3193	2123.4866	1980.9	1087
942.455	2125.0149	1966.8	1084.2
942.5907	2126.5426	1963.9	1085.35
942.7264	2128.0695	1975.6	1091
942.8621	2129.5956	1960.15	1082.6
942.9977	2131.1211	1961.75	1077.05
943.1333	2132.6458	1955.75	1077.5
943.2689	2134.1698	1945.4	1065.85
943.4044	2135.693	1950.15	1068.75
943.54	2137.2155	1940.3	1059.85
943.6755	2138.7373	1938.55	1060.35
943.8109	2140.2584	1931.45	1051.75
943.9464	2141.7787	1939.85	1055.15
944.0818	2143.2983	1925.65	1049
944.2172	2144.8171	1934.75	1055.95
944.3526	2146.3353	1924.2	1042.8
944.4879	2147.8527	1919.45	1040.2
944.6232	2149.3693	1917.4	1036.4
944.7585	2150.8853	1910.3	1032.15
944.8938	2152.4005	1905.45	1024.55
945.029	2153.9149	1907.6	1028.8
945.1642	2155.4287	1907.95	1028.95
945.2994	2156.9417	1895.3	1015.35
945.4346	2158.454	1900.1	1019.6
945.5697	2159.9655	1898.95	1019.1
945.7048	2161.4764	1905.15	1026.65
945.8399	2162.9865	1884	1004.8
945.9749	2164.4958	1894.15	1012.9
946.1099	2166.0045	1891.05	1008.25
946.2449	2167.5124	1886.35	1007.15
946.3799	2169.0195	1886.45	1008.15
946.5148	2170.526	1891.25	1011.7
946.6498	2172.0317	1875.4	994.5
946.7846	2173.5367	1873.35	993.6
946.9195	2175.0409	1871.1	991.95
947.0543	2176.5445	1866	987.45
947.1891	2178.0473	1874.45	995.05
947.3239	2179.5494	1866.05	982.15
947.4587	2181.0507	1855.05	975.9
947.5934	2182.5513	1859.9	980.1
947.7281	2184.0512	1860.8	982.85
947.8628	2185.5504	1848.6	968.4
947.9974	2187.0488	1849.8	971.1
948.132	2188.5465	1840.6	961.1
948.2666	2190.0435	1841.9	962.4
948.4012	2191.5397	1838.05	959.8
948.5357	2193.0353	1836.15	957.2
948.6702	2194.5301	1828.7	950.35
948.8047	2196.0241	1830.95	952.35
948.9392	2197.5175	1835.45	955.75
949.0736	2199.0101	1820.65	939.1
949.208	2200.502	1816.8	938.95
949.3424	2201.9931	1815.15	934.7
949.4767	2203.4835	1818.45	938.35
949.611	2204.9733	1823.2	925.4
949.7453	2206.4622	1809.25	930.4
949.8796	2207.9505	1800.5	918.7
950.0138	2209.438	1805.65	927.65
950.148	2210.9248	1800.55	919.3
950.2822	2212.4109	1792	913.5
950.4164	2213.8962	1789.7	909.05
950.5505	2215.3809	1788.95	911
950.6846	2216.8648	1795.5	914.6
950.8186	2218.3479	1790.75	907.2
950.9527	2219.8304	1791.9	908.05
951.0867	2221.3121	1778.85	896.4
951.2207	2222.7931	1769.5	890.6
951.3546	2224.2733	1774.5	893.35
951.4886	2225.7529	1768.6	888.6
951.6225	2227.2317	1762.6	880.1
951.7563	2228.7098	1765.9	886.55
951.8902	2230.1872	1753.1	873.6
952.024	2231.6638	1753.15	873.75
952.1578	2233.1397	1759.85	875.2
952.2916	2234.6149	1750.5	872.85
952.4253	2236.0894	1745.7	863.85
952.559	2237.5632	1748.4	857.85
952.6927	2239.0362	1746.65	868.25
952.8263	2240.5085	1738.6	858.6
952.9599	2241.9801	1732.95	853.2
953.0935	2243.4509	1729.35	850.35
953.2271	2244.921	1722.2	843.15
953.3606	2246.3904	1722.05	841.7
953.4941	2247.8591	1722.9	845.2
953.6276	2249.3271	1720.3	841.85
953.7611	2250.7943	1709.55	830.3
953.8945	2252.2608	1710.1	831.7
954.0279	2253.7266	1706.35	827.1
954.1612	2255.1917	1705.8	827.15
954.2946	2256.656	1702.25	822.6
954.4279	2258.1197	1707.3	827.05
954.5612	2259.5826	1702.55	821.65
954.6944	2261.0447	1701.1	820.85
954.8276	2262.5062	1689.45	807.75
954.9608	2263.9669	1699.25	819.6
955.094	2265.4269	1694.1	814.4
955.2271	2266.8862	1689.2	811.55
955.3602	2268.3448	1685	805.15
955.4933	2269.8026	1687.95	809
955.6264	2271.2598	1679.15	798.6
955.7594	2272.7162	1675.2	795.85
955.8924	2274.1719	1675.3	796.7
956.0253	2275.6268	1671.9	793.2
956.1583	2277.0811	1678.05	799.1
956.2912	2278.5346	1669	787.8
956.4241	2279.9874	1670.85	791.05
956.5569	2281.4395	1672.25	793.45
956.6897	2282.8908	1668.15	784.05
956.8225	2284.3414	1663.35	781.8
956.9553	2285.7914	1652.15	774.5
957.088	2287.2406	1661.35	781.6
957.2207	2288.689	1658.65	777.65
957.3534	2290.1368	1657.4	778.3
957.486	2291.5838	1649.2	768.75
957.6186	2293.0302	1651.3	770.55
957.7512	2294.4758	1649.55	770.15
957.8838	2295.9206	1653.5	773.9
958.0163	2297.3648	1646.85	768.1
958.1488	2298.8082	1650.95	769.65
958.2813	2300.251	1636.75	758
958.4137	2301.693	1634.55	750.75
958.5461	2303.1343	1645.45	765.9
958.6785	2304.5748	1627.15	746.45
958.8108	2306.0147	1628.1	749.1
958.9432	2307.4538	1636.7	753.85
959.0754	2308.8922	1631.7	753
959.2077	2310.3299	1631.1	750
959.3399	2311.7669	1624	744.75
959.4721	2313.2031	1624.4	745.85
959.6043	2314.6387	1611.85	733.15
959.7365	2316.0735	1620.5	740.3
959.8686	2317.5076	1616.45	736.4
960.0006	2318.941	1615.7	736.05
960.1327	2320.3737	1614.05	732.6
960.2647	2321.8056	1611.05	728.65
960.3967	2323.2369	1612.5	731.7
960.5287	2324.6674	1606.6	724.35
960.6606	2326.0972	1601.45	719.7
960.7925	2327.5263	1598.65	720.3
960.9244	2328.9547	1610.95	731.35
961.0562	2330.3823	1604.7	725.35
961.1881	2331.8092	1599.9	716.35
961.3198	2333.2355	1584.95	702.75
961.4516	2334.661	1589.7	708.25
961.5833	2336.0858	1587.85	705.8
961.715	2337.5098	1588.15	709.05
961.8467	2338.9332	1586.85	705.8
961.9783	2340.3558	1587.85	705.5
962.1099	2341.7778	1574.35	694.65
962.2415	2343.199	1566.2	684.25
962.373	2344.6195	1570.8	691.45
962.5045	2346.0393	1571.55	693.55
962.636	2347.4583	1570.75	689.6
962.7675	2348.8767	1576.05	692.9
962.8989	2350.2943	1564.1	681.8
963.0303	2351.7113	1574.95	694.05
963.1617	2353.1275	1559.8	679.8
963.293	2354.543	1572.3	684.65
963.4243	2355.9578	1566.45	685.05
963.5556	2357.3718	1553.2	673.85
963.6868	2358.7852	1559.95	677.6
963.818	2360.1978	1557.35	676
963.9492	2361.6098	1556.5	676.5
964.0803	2363.021	1556.05	671.65
964.2114	2364.4315	1547.2	667.55
964.3425	2365.8413	1542.3	660.05
964.4736	2367.2504	1542.85	663.35
964.6046	2368.6587	1543.4	663.45
964.7356	2370.0664	1539.1	659.65
964.8666	2371.4733	1543	663
964.9975	2372.8795	1541.65	662.55
965.1284	2374.285	1538.1	658.3
965.2593	2375.6899	1535.65	655.4
965.3901	2377.0939	1538.5	659.05
965.5209	2378.4973	1534.9	656.3
965.6517	2379.9	1530.9	652.45
965.7825	2381.3019	1535.25	655.95
965.9132	2382.7032	1517.9	637.7
966.0439	2384.1037	1525.15	646.6
966.1745	2385.5035	1519.15	638.1
966.3051	2386.9027	1509.5	632
966.4357	2388.3011	1518.45	633.85
966.5663	2389.6987	1512.55	633
966.6968	2391.0957	1516.05	637.95
966.8273	2392.492	1506.55	626.4
966.9578	2393.8876	1508.65	628.15
967.0882	2395.2824	1499.7	619.2
967.2186	2396.6765	1495.6	616.6
967.349	2398.07	1498.6	620.8
967.4793	2399.4627	1500.85	619.45
967.6097	2400.8547	1496.45	617.6
967.7399	2402.246	1497.35	611.75
967.8702	2403.6366	1493.55	613.15
968.0004	2405.0265	1489.45	609.8
968.1306	2406.4156	1494	608.3
968.2607	2407.8041	1489	607.1
968.3909	2409.1918	1480.5	598.45
968.521	2410.5789	1477.25	596.95
968.651	2411.9652	1472.75	588.5
968.781	2413.3508	1480.3	602.6
968.911	2414.7358	1480.4	600.65
969.041	2416.12	1465.35	585.1
969.1709	2417.5035	1474.15	594.55
969.3008	2418.8863	1469.15	586.25
969.4307	2420.2684	1468.2	588.7
969.5606	2421.6497	1468.7	587.6
969.6904	2423.0304	1461.15	582.1
969.8201	2424.4104	1464.2	582.95
969.9499	2425.7896	1459.3	576.1
970.0796	2427.1682	1458.4	578.2
970.2093	2428.546	1458.7	578.1
970.3389	2429.9232	1457.45	578.5
970.4685	2431.2996	1454.35	573.7
970.5981	2432.6753	1456.7	578.05
970.7277	2434.0503	1453.7	572.9
970.8572	2435.4246	1444.1	564.4
970.9867	2436.7982	1440.25	558.9
971.1161	2438.1711	1439.85	561.55
971.2456	2439.5433	1443.7	562.1
971.375	2440.9148	1449.15	566.65
971.5043	2442.2856	1438.7	559.55
971.6336	2443.6557	1438.45	557.25
971.7629	2445.025	1438.05	558.5
971.8922	2446.3937	1439.1	557.6
972.0214	2447.7617	1437.3	556.3
972.1506	2449.1289	1429.7	550.05
972.2798	2450.4955	1429.4	546.3
972.4089	2451.8613	1429.55	550
972.538	2453.2265	1430.25	550.35
972.6671	2454.5909	1428.1	546.55
972.7961	2455.9546	1429.4	550.3
972.9251	2457.3177	1418.6	539.05
973.0541	2458.68	1421.25	540.05
973.1831	2460.0416	1423.7	543.65
973.312	2461.4025	1419.7	539.2
973.4408	2462.7627	1426.4	534.45
973.5697	2464.1222	1418.1	540.15
973.6985	2465.4811	1419.65	537.3
973.8273	2466.8392	1415.95	535.4
973.956	2468.1966	1409.6	527.75
974.0847	2469.5533	1420.35	537.95
974.2134	2470.9093	1414.85	534.1
974.3421	2472.2645	1410.7	527.2
974.4707	2473.6191	1417.7	537.85
974.5993	2474.973	1405	524.5
974.7278	2476.3262	1408.8	526.35
974.8563	2477.6787	1404.55	525.4
974.9848	2479.0305	1404.4	524.3
975.1132	2480.3816	1401.85	520.15
975.2417	2481.7319	1403.9	523.15
975.37	2483.0816	1408.1	525.35
975.4984	2484.4306	1404.45	522.8
975.6267	2485.7789	1403.05	524.05
975.755	2487.1264	1398.45	516.7
975.8833	2488.4733	1392.45	514.85
976.0115	2489.8195	1402.15	513.85
976.1397	2491.165	1395.35	514.4
976.2678	2492.5097	1386	502.95
976.3959	2493.8538	1388.95	509.45
976.524	2495.1972	1387	504.3
976.6521	2496.5398	1384.85	502.6
976.7801	2497.8818	1394.6	511.9
976.9081	2499.2231	1385.8	507
977.036	2500.5637	1378.2	496.1
977.164	2501.9035	1387.8	506.05
977.2918	2503.2427	1379.55	494.2
977.4197	2504.5812	1377.9	498.15
977.5475	2505.919	1381.25	499.3
977.6753	2507.256	1383.05	502.95
977.8031	2508.5924	1376	494.25
977.9308	2509.9281	1383.95	497.35
978.0585	2511.2631	1378.6	498.65
978.1861	2512.5974	1370.7	490.3
978.3137	2513.9309	1371.75	491.5
978.4413	2515.2638	1396.1	489.05
978.5689	2516.596	1368.45	490.1
978.6964	2517.9275	1360.25	476.45
978.8239	2519.2583	1358.55	478.1
978.9513	2520.5884	1359.75	478.25
979.0788	2521.9178	1357.95	476.7
979.2062	2523.2465	1354.95	476.8
979.3335	2524.5745	1348.1	467.35
979.4608	2525.9018	1353.75	472.8
979.5881	2527.2284	1353.5	474.6
979.7154	2528.5543	1349.85	470.7
979.8426	2529.8796	1356.55	476
979.9698	2531.2041	1350.15	469.05
980.0969	2532.5279	1350.35	471.9
980.224	2533.851	1347.9	467.95
980.3511	2535.1735	1345.5	467.85
980.4781	2536.4952	1352	472.2
980.6052	2537.8163	1341.5	461.25
980.7321	2539.1366	1345.3	466.7
980.8591	2540.4562	1341.45	460.45
980.986	2541.7752	1339.55	461.05
981.1129	2543.0935	1336.1	454.55
981.2397	2544.411	1343.05	460.25
981.3665	2545.7279	1337.4	458.6
981.4933	2547.0441	1337.55	457.9
981.62	2548.3596	1339	458.45
981.7467	2549.6744	1332.35	451.45
981.8734	2550.9885	1342	452.9
982.0001	2552.3019	1326.8	449.15
982.1267	2553.6146	1328.45	448.15
982.2532	2554.9266	1329.85	447.2
982.3798	2556.2379	1330.4	449.95
982.5063	2557.5485	1327.5	449.9
982.6327	2558.8585	1338.1	451.25
982.7592	2560.1677	1334.4	452.05
982.8856	2561.4762	1327.55	447.5
983.0119	2562.7841	1324.5	440.1
983.1383	2564.0913	1327.4	448.15
983.2646	2565.3977	1321	441.8
983.3908	2566.7035	1316.55	437.4
983.517	2568.0086	1327.95	446.75
983.6432	2569.313	1316.75	437.65
983.7694	2570.6167	1324.25	439.1
983.8955	2571.9197	1317.55	440.15
984.0216	2573.222	1319.75	437.35
984.1476	2574.5236	1318.8	436.1
984.2737	2575.8246	1322.45	439.75
984.3996	2577.1248	1316.8	433.5
984.5256	2578.4244	1320	441.15
984.6515	2579.7232	1320.75	441.6
984.7774	2581.0214	1345.5	431.95
984.9032	2582.3189	1311.65	432.55
985.029	2583.6157	1315.15	431.35
985.1548	2584.9118	1314.25	435.4
985.2806	2586.2072	1307.1	426.1
985.4063	2587.5019	1313.65	431
985.5319	2588.7959	1311.55	430.8
985.6576	2590.0893	1317.65	435.7
985.7832	2591.3819	1309.95	429.15
985.9087	2592.6739	1303.3	424.75
986.0343	2593.9652	1313.2	431.7
986.1597	2595.2557	1307.6	429.45
986.2852	2596.5456	1309.65	428.15
986.4106	2597.8348	1304.35	426
986.536	2599.1234	1314.1	435.55
986.6614	2600.4112	1313.25	432.95
986.7867	2601.6983	1318.8	435.35
986.912	2602.9848	1320.45	441.7
987.0372	2604.2705	1321.15	431.1
987.1624	2605.5556	1312.85	434.65
987.2876	2606.84	1316.05	436.8
987.4128	2608.1237	1310.15	429.85
987.5379	2609.4067	1316.05	436.1
987.6629	2610.689	1314.55	426.5
987.788	2611.9707	1308.8	425.75
987.913	2613.2516	1303.85	418.75
988.0379	2614.5319	1295.3	413.95
988.1629	2615.8115	1291.65	410.65
988.2878	2617.0903	1298.7	416.75
988.4126	2618.3685	1289.25	407.9
988.5375	2619.6461	1293.25	413.85
988.6622	2620.9229	1292.25	411.4
988.787	2622.199	1287.5	406.9
988.9117	2623.4745	1293.65	413.15
989.0364	2624.7493	1283.5	402.9
989.161	2626.0234	1285.65	406.65
989.2857	2627.2968	1282.25	404.05
989.4102	2628.5695	1279.6	398.2
989.5348	2629.8415	1274.55	396.3
989.6593	2631.1128	1275.95	393.5
989.7837	2632.3835	1284.9	406.2
989.9082	2633.6535	1278.3	397.25
990.0326	2634.9228	1280.05	401.35
990.1569	2636.1914	1271.4	392.25
990.2812	2637.4593	1282.45	399.7
990.4055	2638.7265	1276.25	394.75
990.5298	2639.9931	1273.15	394.35
990.654	2641.259	1280.3	398.3
990.7782	2642.5242	1268.2	387.8
990.9023	2643.7887	1266.55	385.65
991.0264	2645.0525	1264.2	384.55
991.1505	2646.3156	1264.55	385.85
991.2745	2647.5781	1267.7	386.85
991.3985	2648.8398	1260.9	382.15
991.5225	2650.1009	1296.6	376.8
991.6464	2651.3613	1261.2	382.1
991.7703	2652.6211	1257.8	378.6
991.8942	2653.8801	1254.35	374.15
992.018	2655.1385	1258	375.7
992.1418	2656.3961	1250.55	368.85
992.2655	2657.6531	1246.45	366.3
992.3892	2658.9094	1248.85	367.1
992.5129	2660.1651	1251.1	372.05
992.6366	2661.42	1250.2	372.35
992.7602	2662.6743	1253.25	371.5
992.8837	2663.9279	1250.95	373.6
993.0073	2665.1808	1260.6	378.4
993.1307	2666.433	1254.95	374.55
993.2542	2667.6846	1253.15	374.8
993.3776	2668.9354	1257.65	372.7
993.501	2670.1856	1256.5	376
993.6244	2671.4351	1253.95	374.15
993.7477	2672.6839	1257.15	376.35
993.8709	2673.9321	1255.55	376.35
993.9942	2675.1795	1264.85	384.9
994.1174	2676.4263	1263.4	384.25
994.2405	2677.6724	1263.6	385.7
994.3637	2678.9179	1262.4	382.5
994.4868	2680.1626	1259.3	380.7
994.6098	2681.4067	1257.7	375.95
994.7328	2682.6501	1259.4	379.8
994.8558	2683.8928	1252.75	371.75
994.9788	2685.1348	1249	369.9
995.1017	2686.3761	1248.9	369.9
995.2245	2687.6168	1243.4	363.35
995.3474	2688.8568	1237.35	359.15
995.4702	2690.0961	1241.9	363
995.5929	2691.3348	1237.75	355.75
995.7156	2692.5727	1235.4	354.6
995.8383	2693.81	1228.75	349.55
995.961	2695.0466	1232.55	354.55
996.0836	2696.2826	1224.85	343.25
996.2062	2697.5178	1235.4	353
996.3287	2698.7524	1230.95	352.3
996.4512	2699.9863	1235.65	355.6
996.5737	2701.2195	1227.25	347.45
996.6961	2702.452	1238.75	357.4
996.8185	2703.6839	1241.65	359.15
996.9408	2704.9151	1237.3	358.2
997.0631	2706.1456	1244.35	364.45
997.1854	2707.3755	1247.8	368.4
997.3077	2708.6046	1244.4	363.7
997.4299	2709.8331	1248.4	367.8
997.552	2711.0609	1246.65	366.55
997.6742	2712.2881	1247.9	368.9
997.7963	2713.5145	1258.5	374.9
997.9183	2714.7403	1254.35	375.75
998.0403	2715.9654	1257.95	377.2
998.1623	2717.1899	1276.15	383.25
998.2842	2718.4136	1269.25	390.25
998.4062	2719.6367	1270.7	390.75
998.528	2720.8591	1284.35	397.75
998.6498	2722.0809	1277.2	395.5
998.7716	2723.3019	1291.5	408.5
998.8934	2724.5223	1288.55	408.45
999.0151	2725.7421	1289.5	407.3
999.1368	2726.9611	1287.3	404.9
999.2584	2728.1795	1279.15	394.45
999.38	2729.3972	1274.25	394.55
999.5016	2730.6142	1267.8	380.45
999.6231	2731.8306	1253.45	372.1
999.7446	2733.0462	1255.3	371.9
999.8661	2734.2612	1246.1	360.4
999.9875	2735.4756	1237.4	357.35
1000.1089	2736.6892	1234.8	353.35
1000.2302	2737.9022	1223.4	344.1
1000.3515	2739.1145	1219	339
1000.4728	2740.3262	1230.05	343.45
1000.594	2741.5372	1215.95	334.75
1000.7152	2742.7475	1214.85	337
1000.8363	2743.9571	1213.1	331.05
1000.9575	2745.1661	1205.9	321.2
1001.0785	2746.3744	1203.75	324.95
1001.1996	2747.582	1194.05	313.95
1001.3206	2748.7889	1197.5	315.15
1001.4415	2749.9952	1190.7	313.2
1001.5625	2751.2008	1185.7	306.45
1001.6833	2752.4057	1186.9	305.2
1001.8042	2753.61	1183.5	302.4
1001.925	2754.8136	1187.2	305.75
1002.0458	2756.0165	1178.35	299.8
1002.1665	2757.2188	1177.35	297.7
1002.2872	2758.4204	1182.75	304
1002.4078	2759.6213	1179	295.2
1002.5285	2760.8215	1181.2	299.8
1002.649	2762.0211	1179.55	296.75
1002.7696	2763.22	1176.6	293.55
1002.8901	2764.4182	1180	301.1
1003.0106	2765.6158	1182.35	299.8
1003.131	2766.8127	1170.3	291.1
1003.2514	2768.009	1170.55	290.45
1003.3717	2769.2045	1171.65	292.25
1003.492	2770.3994	1171	287.85
1003.6123	2771.5936	1172.75	293.5
1003.7325	2772.7872	1156.5	277.4
1003.8527	2773.9801	1166.65	285.75
1003.9729	2775.1723	1174.5	279.9
1004.093	2776.3639	1158.6	279.5
1004.2131	2777.5548	1161.45	279.1
1004.3331	2778.745	1154.4	273.9
1004.4531	2779.9346	1159.05	278.2
1004.5731	2781.1235	1153.75	272.95
1004.693	2782.3117	1158.2	279.9
1004.8129	2783.4992	1154.65	274.85
1004.9328	2784.6861	1155.3	276.3
1005.0526	2785.8723	1159.6	277.5
1005.1723	2787.0579	1157.5	275.8
1005.2921	2788.2428	1160.4	280.9
1005.4118	2789.427	1157.75	277.5
1005.5314	2790.6106	1157.8	278.1
1005.651	2791.7935	1163.4	283.4
1005.7706	2792.9757	1162.3	282.1
1005.8902	2794.1573	1158.15	276.6
1006.0097	2795.3382	1161.6	280.8
1006.1291	2796.5184	1156	277.6
1006.2485	2797.698	1164.05	282.8
1006.3679	2798.8769	1162.85	281.65
1006.4873	2800.0551	1166.8	286.35
1006.6066	2801.2327	1168.2	285.1
1006.7258	2802.4096	1172.25	291.65
1006.8451	2803.5859	1169.2	288.45
1006.9642	2804.7615	1172.25	291.8
1007.0834	2805.9364	1173.6	295.2
1007.2025	2807.1106	1182.55	302.6
1007.3216	2808.2842	1184.85	303.1
1007.4406	2809.4572	1186.55	307
1007.5596	2810.6294	1193.95	313.35
1007.6785	2811.801	1202.4	324.65
1007.7975	2812.972	1212.55	333.2
1007.9163	2814.1423	1221.65	341.7
1008.0352	2815.3119	1237.05	357.2
1008.154	2816.4808	1239.5	359.95
1008.2727	2817.6491	1268.3	387.7
1008.3914	2818.8167	1288.35	411.95
1008.5101	2819.9837	1317.5	433.25
1008.6288	2821.15	1346.15	466.1
1008.7474	2822.3157	1378.65	498.05
1008.8659	2823.4807	1413.35	535.7
1008.9844	2824.645	1457	577.55
1009.1029	2825.8086	1503.5	626.25
1009.2214	2826.9716	1547.9	669.45
1009.3398	2828.134	1604.8	726.3
1009.4581	2829.2957	1629.1	748.75
1009.5764	2830.4567	1659.9	781.45
1009.6947	2831.617	1682.75	802.7
1009.813	2832.7767	1701.45	822.6
1009.9312	2833.9358	1699.2	820.15
1010.0493	2835.0941	1693.15	811.95
1010.1675	2836.2519	1675.6	797.45
1010.2855	2837.4089	1652	771.6
1010.4036	2838.5653	1625.2	747.8
1010.5216	2839.7211	1619.35	742.5
1010.6396	2840.8761	1606.55	725.65
1010.7575	2842.0306	1607.7	729.25
1010.8754	2843.1843	1600.45	719.3
1010.9932	2844.3374	1610	731.5
1011.111	2845.4899	1618.85	738.4
1011.2288	2846.6417	1635.65	755.1
1011.3465	2847.7928	1640.9	762.05
1011.4642	2848.9433	1654.9	775.5
1011.5818	2850.0931	1652.3	772.3
1011.6995	2851.2422	1661.1	778.7
1011.817	2852.3907	1660.75	781.2
1011.9345	2853.5385	1670.2	787.25
1012.052	2854.6857	1699.15	794.25
1012.1695	2855.8323	1676.7	797.3
1012.2869	2856.9781	1698.75	817.1
1012.4042	2858.1233	1713.1	830.75
1012.5216	2859.2679	1723.95	846.35
1012.6389	2860.4118	1747	867.15
1012.7561	2861.555	1779.35	895.55
1012.8733	2862.6976	1796.35	914.7
1012.9905	2863.8395	1802.05	921.5
1013.1076	2864.9808	1816.2	937.9
1013.2247	2866.1214	1822.85	943.5
1013.3417	2867.2614	1833.45	953.6
1013.4587	2868.4007	1853.4	971.75
1013.5757	2869.5393	1872.45	993.25
1013.6926	2870.6773	1876.8	992.95
1013.8095	2871.8146	1900.15	1018.3
1013.9263	2872.9513	1914.9	1031.95
1014.0431	2874.0874	1917.95	1040.25
1014.1599	2875.2227	1926.5	1043.1
1014.2766	2876.3574	1941.15	1061.05
1014.3933	2877.4915	1940.8	1062.05
1014.51	2878.6249	1958.5	1079.6
1014.6266	2879.7577	1972.4	1092.5
1014.7431	2880.8898	1998.35	1108.55
1014.8596	2882.0212	2005.15	1127.65
1014.9761	2883.152	2032.95	1152.25
1015.0925	2884.2821	2027.45	1149.85
1015.2089	2885.4116	2048.85	1169.75
1015.3253	2886.5405	2057	1176.85
1015.4416	2887.6686	2072.5	1188.45
1015.5579	2888.7962	2072	1192
1015.6741	2889.923	2070.25	1190.8
1015.7903	2891.0493	2063.2	1184.85
1015.9065	2892.1748	2067.6	1187.45
1016.0226	2893.2997	2052.3	1172.7
1016.1387	2894.424	2060.05	1181.7
1016.2547	2895.5476	2056	1175.35
1016.3707	2896.6706	2062.8	1183.95
1016.4866	2897.7929	2054.8	1175.1
1016.6025	2898.9145	2061.75	1181.6
1016.7184	2900.0355	2053.7	1173.45
1016.8342	2901.1559	2049.7	1170.85
1016.95	2902.2756	2044.35	1160
1017.0658	2903.3946	2037.45	1158.75
1017.1815	2904.513	2028.3	1144.1
1017.2971	2905.6308	2026.45	1147
1017.4127	2906.7479	2015.4	1135.3
1017.5283	2907.8643	2021.35	1140.6
1017.6439	2908.9801	2020.7	1142.15
1017.7594	2910.0953	2019.45	1141.5
1017.8748	2911.2098	2022.75	1136.5
1017.9902	2912.3236	2021.85	1135.2
1018.1056	2913.4368	1997.85	1116.2
1018.2209	2914.5494	2000.15	1120.5
1018.3362	2915.6613	1998.5	1112.6
1018.4515	2916.7725	1981.1	1097.5
1018.5667	2917.8831	1951.05	1069.9
1018.6819	2918.9931	1948.15	1066.75
1018.797	2920.1024	1933.05	1052.4
1018.9121	2921.211	1912.25	1032.5
1019.0271	2922.319	1896.35	1014.8
1019.1421	2923.4264	1893.9	1013.85
1019.2571	2924.5331	1877.3	997.85
1019.372	2925.6391	1886.65	1008.65
1019.4869	2926.7445	1888.5	1011.2
1019.6017	2927.8493	1891.3	1008.65
1019.7165	2928.9534	1890	1011.2
1019.8313	2930.0569	1895	1014.05
1019.946	2931.1597	1900.3	1019.7
1020.0606	2932.2619	1905.45	1027.6
1020.1753	2933.3634	1912.55	1033.15
1020.2899	2934.4643	1932.25	1045.65
1020.4044	2935.5645	1945.55	1060.6
1020.5189	2936.6641	1941.85	1056
1020.6334	2937.763	1936.35	1058.8
1020.7478	2938.8613	1937.15	1056.55
1020.8622	2939.959	1943.4	1059.55
1020.9765	2941.056	1929.75	1051.9
1021.0908	2942.1523	1881.05	1000.15
1021.2051	2943.248	1838.05	960.5
1021.3193	2944.3431	1796.85	918.15
1021.4334	2945.4375	1754.4	874.5
1021.5476	2946.5313	1705	827.75
1021.6617	2947.6244	1666.3	783.6
1021.7757	2948.7169	1629.3	747.85
1021.8897	2949.8087	1579.55	700.45
1022.0037	2950.8999	1541.1	660.75
1022.1176	2951.9904	1510.05	631.55
1022.2315	2953.0803	1497.2	616.6
1022.3453	2954.1696	1461.4	581.55
1022.4591	2955.2582	1444.8	566.45
1022.5728	2956.3462	1429.3	548.35
1022.6865	2957.4335	1417.9	537.8
1022.8002	2958.5202	1421.85	537.3
1022.9138	2959.6062	1421.5	543.25
1023.0274	2960.6916	1416.8	538.15
1023.141	2961.7764	1420	538.45
1023.2545	2962.8605	1417.1	537.45
1023.3679	2963.9439	1422.55	543.4
1023.4813	2965.0267	1417.5	538.35
1023.5947	2966.1089	1429.65	529.1
1023.708	2967.1905	1404.4	522.6
1023.8213	2968.2714	1402.8	526.2
1023.9346	2969.3516	1389.7	509.55
1024.0478	2970.4312	1393.3	506.65
1024.1609	2971.5102	1388.85	512.4
1024.274	2972.5885	1380.45	499.7
1024.3871	2973.6662	1390.85	507.65
1024.5002	2974.7432	1388.55	509.35
1024.6132	2975.8196	1391.95	512.9
1024.7261	2976.8954	1381.7	502.05
1024.839	2977.9705	1389.85	509.45
1024.9519	2979.045	1387.7	509
1025.0647	2980.1188	1386.4	507.4
1025.1775	2981.192	1382.25	502.6
1025.2902	2982.2645	1372.65	493.2
1025.4029	2983.3364	1362.5	481.85
1025.5156	2984.4077	1344.8	467.5
1025.6282	2985.4783	1339.05	453.8
1025.7407	2986.5483	1323.05	445
1025.8532	2987.6177	1307.1	428.7
1025.9657	2988.6864	1302.2	423.95
1026.0782	2989.7545	1285.4	405.75
1026.1906	2990.8219	1270.45	392.25
1026.3029	2991.8887	1264.9	383.75
1026.4152	2992.9548	1248.7	369.15
1026.5275	2994.0204	1227.45	348.35
1026.6397	2995.0852	1214	336.85
1026.7519	2996.1495	1208.15	327.6
1026.864	2997.2131	1186.65	305.45
1026.9761	2998.276	1169.75	290.7
1027.0882	2999.3383	1157.75	278.55
1027.2002	3000.4	1143.55	264.25
1027.3122	3001.4611	1133.5	256.05
1027.4241	3002.5215	1122.9	241.1
1027.536	3003.5812	1112.15	232.45
1027.6478	3004.6404	1107.3	227.85
1027.7596	3005.6989	1104.55	224.6
1027.8714	3006.7567	1091.55	212.95
1027.9831	3007.8139	1119.2	206.8
1028.0947	3008.8705	1083.45	204
1028.2064	3009.9264	1081.8	198.2
1028.3179	3010.9818	1072.7	192.8
1028.4295	3012.0364	1074.9	195.1
1028.541	3013.0905	1073	193.7
1028.6524	3014.1439	1065.25	185
1028.7638	3015.1966	1060.15	181.35
1028.8752	3016.2487	1059.8	180.55
1028.9865	3017.3002	1064.75	181.05
1029.0978	3018.3511	1055.9	177.55
1029.209	3019.4013	1053.95	174.55
1029.3202	3020.4509	1056	177.8
1029.4314	3021.4998	1056.95	176.8
1029.5425	3022.5481	1047.75	169.85
1029.6535	3023.5958	1048.75	169.2
1029.7645	3024.6428	1048.1	168.05
1029.8755	3025.6892	1045.25	167.6
1029.9864	3026.735	1046.15	165.3
1030.0973	3027.7802	1041.7	161.7
1030.2082	3028.8247	1045	165.1
1030.319	3029.8685	1046.35	165.1
1030.4297	3030.9118	1042.4	162.1
1030.5404	3031.9544	1043.5	164.5
1030.6511	3032.9963	1043.8	165.8
1030.7617	3034.0376	1049.3	170.35
1030.8723	3035.0783	1044.9	163.8
1030.9829	3036.1184	1047.5	167.5
1031.0934	3037.1578	1043.5	163.45
1031.2038	3038.1966	1048.85	169.25
1031.3142	3039.2348	1045.85	165.7
1031.4246	3040.2723	1057.45	168.95
1031.5349	3041.3092	1042.3	165
1031.6452	3042.3455	1044.7	163.65
1031.7554	3043.3811	1048.85	169.65
1031.8656	3044.4161	1049.65	169.95
1031.9758	3045.4505	1047.15	169.1
1032.0859	3046.4842	1045.25	165.2
1032.1959	3047.5173	1047.8	168.45
1032.3059	3048.5498	1045.25	165.4
1032.4159	3049.5816	1049.45	170.55
1032.5258	3050.6128	1051.45	169.55
1032.6357	3051.6434	1052.7	170.95
1032.7455	3052.6734	1048.3	166.9
1032.8553	3053.7027	1045.25	167
1032.9651	3054.7314	1050	168.9
1033.0748	3055.7594	1049	166.6
1033.1845	3056.7868	1051.55	171
1033.2941	3057.8136	1050.45	169.4
1033.4037	3058.8398	1046.9	169.25
1033.5132	3059.8653	1055.3	176.9
1033.6227	3060.8902	1057.2	178.6
1033.7321	3061.9145	1056.8	178.9
1033.8415	3062.9381	1059.15	177.2
1033.9509	3063.9612	1072.3	177.5
1034.0602	3064.9835	1058.05	179
1034.1694	3066.0053	1063.05	182.25
1034.2787	3067.0264	1058.65	179.45
1034.3878	3068.0469	1062.2	182.45
1034.497	3069.0668	1060.15	179.35
1034.6061	3070.086	1058.05	179.65
1034.7151	3071.1046	1057.1	177.25
1034.8241	3072.1226	1054.1	175.4
1034.9331	3073.1399	1052.75	173.65
1035.042	3074.1567	1048.25	170.55
1035.1508	3075.1727	1047.6	164.9
1035.2597	3076.1882	1043.2	166.1
1035.3684	3077.203	1036.2	155.95
1035.4772	3078.2173	1035.75	153.85
1035.5859	3079.2308	1037.3	153.55
1035.6945	3080.2438	1034.75	153.4
1035.8031	3081.2561	1026.45	146.3
1035.9117	3082.2678	1022.5	144.9
1036.0202	3083.2789	1017.8	138.55
1036.1286	3084.2893	1013.35	134
1036.2371	3085.2991	1012.8	134.15
1036.3454	3086.3083	1018.75	137
1036.4538	3087.3169	1006.75	126.8
1036.562	3088.3248	1007.2	126.55
1036.6703	3089.3321	1006.8	125.3
1036.7785	3090.3388	1002.85	124.95
1036.8866	3091.3449	1000.3	117.3
1036.9948	3092.3503	1007.55	127.1
1037.1028	3093.3551	995.3	118.75
1037.2108	3094.3593	997.9	120.35
1037.3188	3095.3629	996.15	120.15
1037.4267	3096.3658	995.85	113.1
1037.5346	3097.3681	992.2	111.55
1037.6425	3098.3698	991.95	111.45
1037.7503	3099.3708	991.2	111.1
1037.858	3100.3713	993.5	115.3
1037.9657	3101.3711	992.15	110.55
1038.0734	3102.3702	1121.75	107.45
1038.181	3103.3688	989.4	107.55
1038.2886	3104.3667	982.2	104.5
1038.3961	3105.364	981.95	102.5
1038.5036	3106.3607	983.9	103.15
1038.611	3107.3568	983.65	103.3
1038.7184	3108.3522	982.1	103.55
1038.8257	3109.347	978.85	98.85
1038.933	3110.3412	984.15	97.45
1039.0403	3111.3348	977.85	98.1
1039.1475	3112.3277	973.4	93.4
1039.2547	3113.32	975.65	98.05
1039.3618	3114.3117	973.6	92.65
1039.4689	3115.3028	969.7	92.6
1039.5759	3116.2932	973.4	91.1
1039.6829	3117.2831	975.45	90.65
1039.7898	3118.2723	966.65	85.95
1039.8967	3119.2608	966.9	86.25
1040.0035	3120.2488	968.75	88.7
1040.1103	3121.2361	963.95	83
1040.2171	3122.2229	962.15	83.3
1040.3238	3123.209	966.55	89.2
1040.4305	3124.1944	959.2	79.45
1040.5371	3125.1793	963.3	81.45
1040.6437	3126.1635	962.4	82.75
1040.7502	3127.1471	957.8	78.5
1040.8567	3128.1301	959.2	81.2
1040.9631	3129.1125	959	78.1
1041.0695	3130.0942	958.5	79.1
1041.1759	3131.0753	963.2	77.65
1041.2822	3132.0558	958.75	78.1
1041.3884	3133.0357	954.65	74.9
1041.4946	3134.015	953.7	73.35
1041.6008	3134.9936	956.45	75.55
1041.7069	3135.9716	976.45	75.7
1041.813	3136.949	948.6	67.7
1041.919	3137.9258	971.15	73.8
1042.025	3138.902	957.1	73.8
1042.1309	3139.8775	952	74.4
1042.2368	3140.8524	950.35	71.4
1042.3427	3141.8267	948.2	66.9
1042.4485	3142.8004	946.2	65.2
1042.5542	3143.7735	954.35	68.35
1042.6599	3144.7459	950.15	69.1
1042.7656	3145.7178	947.55	67.3
1042.8712	3146.689	949.15	70.3
1042.9768	3147.6596	949.5	67.5
1043.0823	3148.6295	947.95	68.45
1043.1878	3149.5989	941.7	61.2
1043.2932	3150.5676	944.7	66.85
1043.3986	3151.5357	942.8	64.2
1043.5039	3152.5032	941.75	63.95
1043.6092	3153.4701	941.25	61.2
1043.7145	3154.4364	945.1	63.7
1043.8197	3155.402	940.9	63.4
1043.9248	3156.367	943.4	62.55
1044.03	3157.3315	978.25	64.5
1044.135	3158.2952	941.7	62.65
1044.24	3159.2584	941.3	61.15
1044.345	3160.221	940.65	61.8
1044.4499	3161.1829	943.75	63.3
1044.5548	3162.1442	935.5	57.15
1044.6596	3163.105	938.2	58.8
1044.7644	3164.065	937.15	57.7
1044.8692	3165.0245	942.3	61.6
1044.9739	3165.9834	936.15	57.5
1045.0785	3166.9416	933.15	56.4
1045.1831	3167.8993	937.7	57.4
1045.2877	3168.8563	938.75	57.55
1045.3922	3169.8127	937.45	58.15
1045.4966	3170.7684	936	56.85
1045.6011	3171.7236	937.4	56.2
1045.7054	3172.6782	935.2	55.65
1045.8098	3173.6321	933.3	52.75
1045.914	3174.5854	937.8	55.4
1046.0183	3175.5381	933.05	51.05
1046.1224	3176.4902	933.95	54.55
1046.2266	3177.4417	934.25	56.55
1046.3307	3178.3926	932.9	53.45
1046.4347	3179.3428	929.55	52.6
1046.5387	3180.2924	932.15	53.65
1046.6427	3181.2415	931.8	52.75
1046.7466	3182.1899	929.75	50.7
1046.8504	3183.1377	931.65	52.4
1046.9542	3184.0848	932.75	50.35
1047.058	3185.0314	931.65	50.1
1047.1617	3185.9773	929.45	50.1
1047.2654	3186.9227	930.35	50.65
1047.369	3187.8674	929.35	48.75
1047.4726	3188.8115	931.95	48.9
1047.5761	3189.755	928.25	48.35
1047.6796	3190.6979	930.85	52.15
1047.783	3191.6402	925.45	47
1047.8864	3192.5818	926.3	48.75
1047.9898	3193.5229	949.8	46.95
1048.0931	3194.4633	927.85	47.9
1048.1963	3195.4031	928.7	47.4
1048.2995	3196.3423	926.65	49
1048.4027	3197.2809	923.75	43
1048.5058	3198.2189	927.7	49.5
1048.6089	3199.1563	930.6	44.4
1048.7119	3200.0931	922.75	45.3
1048.8148	3201.0292	924.1	46.65
1048.9178	3201.9648	923.75	44.35
1049.0206	3202.8997	925.35	43.85
1049.1235	3203.834	923.55	44.65
1049.2262	3204.7677	923.85	43.3
1049.329	3205.7008	926.35	44
1049.4317	3206.6333	922	43.65
1049.5343	3207.5652	924	42.8
1049.6369	3208.4964	920.4	41.75
1049.7394	3209.4271	923.4	44.95
1049.8419	3210.3571	921	42.9
1049.9444	3211.2865	925.15	44.9
1050.0468	3212.2154	922.6	40.5
1050.1491	3213.1436	922.85	40.2
1050.2514	3214.0712	927.3	41.3
1050.3537	3214.9982	919.6	41.5
1050.4559	3215.9246	919.1	39.6
1050.5581	3216.8503	919.35	39.15
1050.6602	3217.7755	918.7	39.45
1050.7623	3218.7001	920.7	42.9
1050.8643	3219.624	919.15	39.1
1050.9663	3220.5473	920.9	41.3
1051.0682	3221.4701	917.95	38.55
1051.1701	3222.3922	918.65	37.8
1051.2719	3223.3137	919.2	40.45
1051.3737	3224.2346	917.7	40.1
1051.4754	3225.1549	919	39.3
1051.5771	3226.0746	917.95	39.2
1051.6788	3226.9937	918.1	39.8
1051.7804	3227.9121	917.35	37.45
1051.8819	3228.83	917.85	37.75
1051.9834	3229.7473	918.25	38.6
1052.0849	3230.6639	918.15	37.8
1052.1863	3231.5799	915.9	37.4
1052.2876	3232.4954	918.2	38.15
1052.3889	3233.4102	914.6	38.45
1052.4902	3234.3244	915.55	34.4
1052.5914	3235.238	915.35	36.1
1052.6926	3236.151	926.95	34.85
1052.7937	3237.0634	912.7	34.45
1052.8948	3237.9752	913.1	35.9
1052.9958	3238.8864	913.95	33.3
1053.0968	3239.797	915.45	35.45
1053.1977	3240.7069	914.7	35.35
1053.2986	3241.6163	915.85	34.45
1053.3994	3242.5251	912.2	34.9
1053.5002	3243.4332	912	33.45
1053.6009	3244.3408	914.95	35.3
1053.7016	3245.2477	913.4	33
1053.8022	3246.154	914.55	33.95
1053.9028	3247.0598	914.5	34.15
1054.0034	3247.9649	911.65	30.6
1054.1039	3248.8694	910.5	30.35
1054.2043	3249.7733	912.75	34.8
1054.3047	3250.6766	909.35	30.1
1054.4051	3251.5793	913.1	30.3
1054.5054	3252.4814	911.5	33.05
1054.6056	3253.3829	910.1	28.4
1054.7058	3254.2838	909.15	31.55
1054.806	3255.1841	910.25	31.6
1054.9061	3256.0838	907.55	28.9
1055.0061	3256.9829	908.4	31.55
1055.1062	3257.8814	906.85	24.4
1055.2061	3258.7792	908.8	27.6
1055.306	3259.6765	908.95	27.35
1055.4059	3260.5731	907.1	28.55
1055.5057	3261.4692	906.95	25.95
1055.6055	3262.3647	907.95	26.3
1055.7052	3263.2595	908.7	30.55
1055.8049	3264.1538	904.85	25.4
1055.9045	3265.0474	905.1	26
1056.0041	3265.9404	904.1	25.9
1056.1036	3266.8329	904.4	24.2
1056.2031	3267.7247	914.4	27.3
1056.3025	3268.616	902.15	24.1
1056.4019	3269.5066	904.35	25.05
1056.5013	3270.3966	904.25	20.8
1056.6005	3271.286	899.25	21.05
