Software Version:	3.9.2.0
Unit SN:	10000200
Spectrometer SN:	6960
Date:	3/8/2024 1:39:07 PM
Data Line Index:	25
Spectral Points:	2048
Integration time (ms):	125
Averages:	20
Delay (ms):	30000
Sequence Number:	1
Processing:	dark subtract
Laser Power (mW):	305
Laser Current (mA):	823
Laser Diode Temp (C):	25.1
Laser Case Temp (C):	26.3
System Temp (C):	26.2
Spectrometer Temp (C):	24.1
CCD Temp (C):	0.008
Secondary Temp (C):	20.008
Heatsink Temp (C):	20.613
CCDPCB Temp (C):	35.962
SecondaryPCB Temp (C):	30.46

Wavelength	RamanShift	Raw Counts	Dark Subtracted
787.061	30.1047	462.4	53.65
787.2016	32.3739	460.95	55.15
787.3422	34.6426	466.6	59.3
787.4828	36.9109	475.1	65.45
787.6235	39.1787	485.75	71.95
787.7642	41.4461	493.15	74.8
787.9049	43.7131	504.6	82.8
788.0456	45.9796	510.4	87.05
788.1863	48.2456	517.65	90.2
788.3271	50.5112	528.9	96.55
788.4679	52.7764	537.6	102.35
788.6087	55.0411	553.3	111.3
788.7496	57.3054	565.9	121.35
788.8904	59.5692	574.15	128.85
789.0313	61.8326	584.15	134.8
789.1722	64.0955	597.3	146.4
789.3132	66.3579	612.9	154.5
789.4541	68.6199	635	175.1
789.5951	70.8815	667.8	201.75
789.7361	73.1426	754.35	285.05
789.8771	75.4032	961.45	489.95
790.0181	77.6634	1479.3	1000
790.1592	79.9231	2708.05	2221.7
790.3003	82.1824	5360.55	4854.95
790.4414	84.4412	10145.6	9610
790.5825	86.6995	16761.55	16184
790.7237	88.9574	23244.55	22635.7
790.8648	91.2148	27640.8	27004.4
791.006	93.4717	29720.2	29074.7
791.1472	95.7282	30198.05	29536.25
791.2885	97.9842	30157.55	29496.55
791.4297	100.2398	29585.5	28922.35
791.571	102.4949	28954.85	28284.1
791.7123	104.7495	28215.8	27547.25
791.8536	107.0036	27435.9	26768.45
791.9949	109.2573	26620.9	25954.55
792.1363	111.5105	25995.2	25322.6
792.2777	113.7632	25264.15	24592.15
792.4191	116.0154	24670.25	23983.35
792.5605	118.2672	24297.4	23614.5
792.7019	120.5185	23805.75	23122.8
792.8434	122.7693	23474.25	22788.95
792.9849	125.0197	23230.6	22546.15
793.1264	127.2696	22933.7	22240.6
793.2679	129.519	22782.75	22086.85
793.4094	131.7679	22572.4	21873.6
793.551	134.0163	22427.7	21723.7
793.6926	136.2642	22222.95	21517.3
793.8342	138.5117	22032.1	21320.75
793.9758	140.7587	21749.05	21040.35
794.1175	143.0052	21559.85	20848.45
794.2591	145.2512	21282.35	20570.65
794.4008	147.4967	21069.1	20358.4
794.5425	149.7417	20938.45	20223.95
794.6842	151.9863	20795.65	20076.35
794.826	154.2304	20730.75	20003.7
794.9677	156.4739	20592.8	19864
795.1095	158.717	20573.2	19846.6
795.2513	160.9596	20402.1	19666.8
795.3931	163.2017	20185.05	19447.3
795.535	165.4433	19866.45	19127.45
795.6768	167.6844	19540.4	18800.4
795.8187	169.925	19243.95	18502.25
795.9606	172.1651	18895.5	18153.7
796.1025	174.4047	18599.25	17851.95
796.2445	176.6439	18402.25	17650.7
796.3864	178.8825	18163.55	17409.8
796.5284	181.1206	18008.6	17247.45
796.6704	183.3582	17857.95	17091.75
796.8124	185.5954	17784.5	17020.95
796.9544	187.832	17712.5	16946.2
797.0965	190.0681	17699.6	16930.65
797.2386	192.3037	17682.05	16908.4
797.3806	194.5388	17737.3	16963.55
797.5228	196.7734	17769.05	16989.1
797.6649	199.0075	17866.85	17080.5
797.807	201.2411	17990.45	17210.45
797.9492	203.4742	18064.35	17281.9
798.0914	205.7068	18238.8	17451.5
798.2336	207.9389	18369.9	17577.5
798.3758	210.1704	18519.9	17731.95
798.518	212.4015	18614.4	17840.05
798.6603	214.632	18790.25	18022.1
798.8025	216.862	18972.95	18207.25
798.9448	219.0915	19142.5	18377.3
799.0871	221.3205	19369.55	18592.75
799.2294	223.549	19607.05	18841.55
799.3718	225.777	19901.45	19133.2
799.5141	228.0044	20222.7	19450.7
799.6565	230.2314	20622.8	19848.9
799.7989	232.4578	21049	20277.4
799.9413	234.6837	21365.2	20581.4
800.0837	236.909	21590.45	20803.45
800.2262	239.1339	21574.65	20762.85
800.3687	241.3582	21406.15	20603.7
800.5111	243.582	21133.9	20308.15
800.6536	245.8053	20824.75	20012.3
800.7961	248.0281	20557.1	19745.4
800.9387	250.2503	20301.35	19484.7
801.0812	252.472	20231.5	19414.7
801.2238	254.6932	20224.7	19412.9
801.3664	256.9139	20148.5	19335
801.509	259.134	20213.05	19389.55
801.6516	261.3536	20266.3	19450.55
801.7942	263.5727	20346.85	19522.95
801.9369	265.7912	20316.9	19497.55
802.0795	268.0092	20430.45	19611.5
802.2222	270.2267	20414.55	19593.95
802.3649	272.4436	20428.3	19607.4
802.5076	274.6601	20415.9	19584.95
802.6504	276.8759	20295.5	19469.85
802.7931	279.0913	20241.1	19416.2
802.9359	281.3061	20212.25	19384.9
803.0787	283.5204	20253.95	19423.85
803.2215	285.7341	20316.85	19480.15
803.3643	287.9473	20468.15	19620.7
803.5071	290.16	20703.65	19866.15
803.6499	292.3721	20986.7	20153.7
803.7928	294.5837	21377.65	20541.75
803.9357	296.7947	21705.1	20874.2
804.0786	299.0052	21900.45	21066
804.2215	301.2152	21786.8	20954.25
804.3644	303.4246	21507.2	20667.35
804.5074	305.6334	21014.55	20183.6
804.6503	307.8418	20533.7	19697.45
804.7933	310.0495	20121.75	19281.2
804.9363	312.2568	19774.3	18933.05
805.0793	314.4635	19515.85	18671.6
805.2223	316.6696	19416.75	18573.75
805.3653	318.8752	19346.3	18493.7
805.5084	321.0802	19415.3	18567.2
805.6514	323.2847	19539.15	18693.95
805.7945	325.4887	19577.55	18724.6
805.9376	327.692	19524.9	18674.55
806.0807	329.8949	19407.9	18552.4
806.2238	332.0972	19168.15	18318.25
806.367	334.2989	18948.7	18095.2
806.5101	336.5001	18689.85	17834.45
806.6533	338.7007	18495.4	17640
806.7965	340.9008	18356.4	17494.9
806.9397	343.1003	18237.25	17376.05
807.0829	345.2992	18205.7	17344.2
807.2261	347.4976	18140.15	17279.1
807.3693	349.6955	18148	17276.9
807.5126	351.8927	18273.4	17405.5
807.6559	354.0895	18236.9	17358.2
807.7991	356.2856	18281.9	17415.2
807.9424	358.4812	18271.15	17402.75
808.0857	360.6763	18277.7	17405.1
808.2291	362.8707	18290.45	17416.55
808.3724	365.0646	18358.1	17486.6
808.5158	367.258	18361.45	17483.85
808.6591	369.4508	18377.75	17500
808.8025	371.643	18489.65	17610
808.9459	373.8346	18479.3	17598.15
809.0893	376.0257	18490.05	17605.55
809.2327	378.2162	18412.6	17533.9
809.3762	380.4062	18360.2	17483.4
809.5196	382.5956	18196.95	17320.2
809.6631	384.7844	18095.7	17227
809.8066	386.9726	18014.15	17140.65
809.9501	389.1603	17943.25	17071.05
810.0936	391.3474	17960.35	17054.45
810.2371	393.5339	17966.1	17093.85
810.3806	395.7199	17871.15	16999.45
810.5241	397.9052	17916.35	17045.65
810.6677	400.09	17929.7	17056.85
810.8113	402.2743	18030.2	17156.9
810.9548	404.4579	18126	17248.7
811.0984	406.641	18310.6	17432.2
811.2421	408.8235	18516.05	17640.8
811.3857	411.0054	18776.6	17894.15
811.5293	413.1868	19229	18343.55
811.673	415.3675	19522	18634.95
811.8166	417.5477	19682.45	18792.1
811.9603	419.7273	19702.45	18815.6
812.104	421.9064	19657.4	18759.45
812.2477	424.0848	19511.9	18625.6
812.3914	426.2627	19348.55	18461.5
812.5351	428.4399	19046.7	18160.4
812.6788	430.6166	18678.3	17783.05
812.8226	432.7928	18325.6	17433.35
812.9663	434.9683	18009.4	17118.45
813.1101	437.1432	17799	16908.1
813.2539	439.3176	17642.1	16757.85
813.3977	441.4914	17546	16666.45
813.5415	443.6645	17510.3	16630.65
813.6853	445.8371	17414.95	16527.45
813.8291	448.0091	17383.3	16494.5
813.973	450.1806	17374.45	16490.3
814.1168	452.3514	17340.05	16452.6
814.2607	454.5216	17329.95	16430.2
814.4046	456.6913	17251.55	16361.95
814.5485	458.8603	17334.2	16445.8
814.6924	461.0288	17380	16498
814.8363	463.1967	17365.25	16487.45
814.9802	465.3639	17474.15	16592.45
815.1241	467.5306	17590.8	16706.5
815.2681	469.6967	17705.7	16822.1
815.412	471.8622	17830.25	16948.85
815.556	474.0271	17988.4	17107.65
815.7	476.1914	18083.75	17193.35
815.844	478.3551	18062.1	17176.5
815.988	480.5182	18088.5	17203.1
816.132	482.6807	18087.3	17206.55
816.276	484.8426	18182.95	17313.75
816.4201	487.0039	18487.85	17607.5
816.5641	489.1647	18930.6	18041.6
816.7082	491.3248	19340.4	18449.6
816.8522	493.4843	19528.45	18639.65
816.9963	495.6432	19496.35	18612.05
817.1404	497.8015	19418.95	18522.3
817.2845	499.9592	19439.35	18537.55
817.4286	502.1163	19357	18453.35
817.5727	504.2728	19109.65	18216.95
817.7168	506.4287	18829.2	17949.75
817.861	508.5839	18417	17531.65
818.0051	510.7386	18108.75	17220.3
818.1493	512.8927	17953.95	17058.3
818.2935	515.0461	17853.6	16955.9
818.4377	517.199	17852.1	16954.2
818.5818	519.3512	17897.85	16994.45
818.726	521.5029	18005.6	17103.8
818.8703	523.6539	18101.25	17204.25
819.0145	525.8043	18166.25	17261.75
819.1587	527.9541	18152.2	17251.15
819.303	530.1033	18096.65	17194.8
819.4472	532.2519	18133	17233.95
819.5915	534.3999	18249.9	17348.75
819.7357	536.5472	18481.3	17580.35
819.88	538.694	18924.95	18029.25
820.0243	540.8401	19450.2	18545.05
820.1686	542.9856	19923.15	19012.55
820.3129	545.1305	20071.5	19153.3
820.4572	547.2748	19974.05	19054.15
820.6016	549.4185	19649.8	18724.2
820.7459	551.5615	19313.45	18394.05
820.8902	553.704	19199.5	18279.4
821.0346	555.8458	19172.9	18265.95
821.1789	557.987	19224.7	18316.7
821.3233	560.1276	19241.55	18328.8
821.4677	562.2675	19326.1	18414.6
821.6121	564.4069	19442.05	18527.8
821.7565	566.5456	19497.7	18585.85
821.9009	568.6837	19443.7	18533.6
822.0453	570.8212	19157.65	18250.45
822.1897	572.958	18771.15	17861.3
822.3342	575.0942	18458.55	17551.55
822.4786	577.2299	18265.25	17364
822.6231	579.3648	18191.85	17302.8
822.7675	581.4992	18197.5	17316.85
822.912	583.6329	18390.2	17510.1
823.0565	585.766	18621.75	17737.15
823.201	587.8985	18772.1	17879.45
823.3454	590.0304	18771.5	17843.15
823.4899	592.1616	18718.4	17808.1
823.6345	594.2922	18619.2	17708.4
823.779	596.4222	18487.7	17568
823.9235	598.5515	18292.3	17373.45
824.068	600.6802	18150.15	17231.7
824.2126	602.8083	17972.5	17056.45
824.3571	604.9358	17893.5	16973.8
824.5017	607.0626	17855.2	16936.8
824.6462	609.1888	17864.15	16940.85
824.7908	611.3144	17864.3	16936.7
824.9354	613.4393	17770.15	16846.65
825.08	615.5636	17727.95	16802.8
825.2246	617.6873	17677.3	16756.8
825.3692	619.8103	17611.5	16689.7
825.5138	621.9327	17491.2	16570.15
825.6584	624.0544	17431.1	16517.45
825.803	626.1756	17375.1	16458.85
825.9477	628.2961	17326.4	16407.1
826.0923	630.4159	17259.95	16336.85
826.237	632.5351	17268.2	16346.6
826.3816	634.6537	17250.3	16324.2
826.5263	636.7716	17213.55	16282.6
826.6709	638.8889	17266.9	16334.75
826.8156	641.0056	17304.55	16378.3
826.9603	643.1216	17279.1	16349.15
827.105	645.237	17284.05	16358.35
827.2497	647.3518	17259.9	16339.65
827.3944	649.4659	17293.4	16378.05
827.5391	651.5793	17280.8	16363.4
827.6838	653.6922	17281.25	16364.65
827.8285	655.8043	17267.05	16347.85
827.9733	657.9159	17251.95	16330.15
828.118	660.0268	17199.6	16278.45
828.2627	662.137	17159.45	16238.1
828.4075	664.2466	17180.55	16248.2
828.5522	666.3556	17163.75	16237.1
828.697	668.4639	17130.6	16208.6
828.8418	670.5716	17156.9	16236.9
828.9865	672.6786	17241.5	16316.9
829.1313	674.785	17266.4	16336.8
829.2761	676.8907	17328.75	16407.3
829.4209	678.9958	17371.55	16452.6
829.5657	681.1002	17356.75	16430.9
829.7105	683.204	17360.95	16425.6
829.8553	685.3072	17312.65	16379.9
830.0001	687.4097	17277.3	16346.8
830.1449	689.5115	17247.8	16316.85
830.2898	691.6127	17181.75	16253.85
830.4346	693.7132	17145.15	16220.05
830.5794	695.8131	17149.85	16219.25
830.7243	697.9123	17132.9	16200.1
830.8691	700.0109	17104.5	16167.7
831.014	702.1089	17127.65	16197.2
831.1588	704.2061	17151.3	16220.3
831.3037	706.3028	17188.8	16250.65
831.4486	708.3987	17252.35	16320.5
831.5935	710.4941	17281.35	16350.5
831.7383	712.5887	17470.3	16537.5
831.8832	714.6827	17715.05	16782.65
832.0281	716.7761	18051.3	17120.7
832.173	718.8688	18357.25	17423.4
832.3179	720.9608	18577.2	17635.4
832.4628	723.0522	18656.25	17712.6
832.6077	725.1429	18523.5	17589.8
832.7527	727.233	18313	17381.6
832.8976	729.3224	18094.35	17159.3
833.0425	731.4112	17860.95	16925.7
833.1874	733.4993	17686.65	16751.75
833.3324	735.5867	17487	16551.85
833.4773	737.6735	17395.1	16460.3
833.6222	739.7596	17295	16358.1
833.7672	741.845	17268	16332.85
833.9122	743.9298	17233.95	16295.15
834.0571	746.014	17219.45	16284.5
834.2021	748.0974	17254.5	16312.15
834.347	750.1802	17257.4	16316.7
834.492	752.2624	17249.8	16305.55
834.637	754.3439	17287.65	16346
834.782	756.4247	17353.9	16410.15
834.9269	758.5048	17485.2	16544.9
835.0719	760.5843	17729	16788.25
835.2169	762.6631	18041.25	17098.45
835.3619	764.7413	18513.6	17574
835.5069	766.8188	19094.2	18153.9
835.6519	768.8956	19556	18612.4
835.7969	770.9718	19843.9	18900.85
835.9419	773.0473	19731.15	18791.95
836.0869	775.1221	19395.05	18450.7
836.232	777.1962	19060.65	18117.8
836.377	779.2697	18887.75	17944.15
836.522	781.3426	18944.75	17983.7
836.667	783.4147	19164.7	18223.7
836.8121	785.4862	19437	18496.1
836.9571	787.557	19450.7	18508.4
837.1021	789.6271	19093.35	18146.25
837.2472	791.6966	18543.45	17599
837.3922	793.7654	17992.1	17048.2
837.5373	795.8335	17717.25	16776.1
837.6823	797.901	17502.45	16559.35
837.8274	799.9678	17439.65	16492.5
837.9724	802.0339	17439.95	16498.95
838.1175	804.0993	17474.55	16518.1
838.2626	806.1641	17453.6	16508.8
838.4076	808.2282	17395	16454.05
838.5527	810.2916	17318.7	16373.8
838.6978	812.3544	17237.1	16293.55
838.8428	814.4164	17159.55	16217.05
838.9879	816.4778	17212.65	16264.8
839.133	818.5385	17192.65	16246.55
839.2781	820.5986	17301.3	16354.55
839.4232	822.658	17422.3	16469.7
839.5682	824.7166	17529.25	16580.9
839.7133	826.7747	17792.7	16847.45
839.8584	828.832	18060.8	17112.15
840.0035	830.8886	18238.25	17285.75
840.1486	832.9446	18418.5	17468.1
840.2937	834.9999	18360.9	17412.4
840.4388	837.0545	18357.35	17410.4
840.5839	839.1085	18300.9	17352.95
840.729	841.1618	18247	17293.4
840.8741	843.2143	18169.05	17222.55
841.0192	845.2662	18069.7	17117.85
841.1643	847.3175	18026.8	17079.1
841.3095	849.368	17901.85	16952.45
841.4546	851.4179	17795.9	16846.65
841.5997	853.467	17635.45	16689.85
841.7448	855.5155	17551.6	16601.5
841.8899	857.5633	17451.65	16502
842.0351	859.6105	17415.8	16463.6
842.1802	861.6569	17302.8	16353.05
842.3253	863.7027	17271.95	16314.85
842.4704	865.7478	17262.5	16310.65
842.6156	867.7922	17240.85	16288.35
842.7607	869.8359	17304.35	16354.55
842.9058	871.8789	17382.7	16429.3
843.0509	873.9212	17581.85	16597.4
843.1961	875.9629	17737.55	16783.75
843.3412	878.0039	17868.15	16917.2
843.4863	880.0441	17965.4	17016.25
843.6315	882.0837	18023.35	17075.35
843.7766	884.1226	17976.9	17025.05
843.9218	886.1609	17881.65	16929.55
844.0669	888.1984	17842.1	16891.05
844.212	890.2352	17863.85	16913.3
844.3572	892.2714	17836.2	16881.85
844.5023	894.3069	17845.8	16891.05
844.6475	896.3416	17722.55	16767.65
844.7926	898.3757	17694.3	16740.4
844.9377	900.4091	17678.5	16725
845.0829	902.4418	17686.6	16726.7
845.228	904.4739	17716.1	16759.7
845.3732	906.5052	17744.4	16787.8
845.5183	908.5358	17621.4	16668.75
845.6635	910.5658	17491.9	16533.45
845.8086	912.595	17333.7	16379.35
845.9538	914.6236	17175	16220.55
846.0989	916.6515	17129.3	16176.35
846.2441	918.6786	17103.4	16147.25
846.3892	920.7051	17173.65	16216.7
846.5344	922.7309	17277.2	16321.8
846.6795	924.756	17341.55	16390.6
846.8246	926.7804	17434.05	16475.7
846.9698	928.8041	17379.7	16423.4
847.1149	930.8272	17420.2	16470.3
847.2601	932.8495	17300.6	16347.3
847.4052	934.8711	17320.7	16363.05
847.5504	936.892	17174.65	16219.6
847.6955	938.9123	17062.3	16104.5
847.8407	940.9318	16962.35	16007.1
847.9858	942.9506	16831.85	15879.95
848.131	944.9688	16777.15	15825.1
848.2761	946.9862	16717.35	15763.25
848.4213	949.003	16635.35	15679.8
848.5664	951.019	16619.7	15662.4
848.7115	953.0344	16600.65	15645.8
848.8567	955.0491	16652	15693.85
849.0018	957.063	16730.25	15773.9
849.147	959.0763	16866.55	15910.35
849.2921	961.0888	16895.45	15939.8
849.4373	963.1007	16974.95	16026.55
849.5824	965.1119	17032.35	16086.9
849.7275	967.1223	17033.45	16095.75
849.8727	969.1321	17057.3	16118.4
850.0178	971.1412	17099.5	16155.3
850.1629	973.1495	17096.05	16143.1
850.3081	975.1572	17213.2	16209.65
850.4532	977.1641	17190.25	16233.85
850.5983	979.1704	17170.35	16216.85
850.7435	981.1759	17164.7	16208.2
850.8886	983.1808	17218.25	16265.65
851.0337	985.1849	17301	16339.65
851.1788	987.1884	17405.65	16452.35
851.324	989.1911	17575.9	16620.65
851.4691	991.1932	17676.5	16722.85
851.6142	993.1945	17720.35	16768.1
851.7593	995.1951	17653.6	16698.25
851.9045	997.1951	17653.95	16692.25
852.0496	999.1943	17571.7	16616.55
852.1947	1001.1928	17529.35	16574.7
852.3398	1003.1906	17504.6	16551.35
852.4849	1005.1877	17621.55	16665
852.63	1007.1841	17572.2	16618.1
852.7751	1009.1798	17517.4	16561.4
852.9202	1011.1748	17346.15	16391.95
853.0653	1013.1691	17181.4	16231.75
853.2104	1015.1627	16967.55	16017.6
853.3555	1017.1556	16729	15777.15
853.5006	1019.1477	16633.65	15683.45
853.6457	1021.1392	16513.3	15570.95
853.7908	1023.1299	16501.45	15561.35
853.9359	1025.12	16511.4	15574.4
854.081	1027.1093	16532.45	15609.35
854.2261	1029.0979	16656.6	15738.4
854.3712	1031.0859	16677.75	15751.3
854.5163	1033.0731	16725.3	15783.55
854.6613	1035.0596	16644.15	15701.2
854.8064	1037.0454	16498.75	15552.95
854.9515	1039.0304	16416	15468.6
855.0965	1041.0148	16291.25	15341.85
855.2416	1042.9985	16139.75	15188.3
855.3867	1044.9814	16118.25	15169.35
855.5317	1046.9636	16108.8	15154.7
855.6768	1048.9452	16030	15084
855.8219	1050.926	16097.05	15148.1
855.9669	1052.9061	16083.65	15133.55
856.112	1054.8855	16106.05	15157.2
856.257	1056.8642	16122	15174.25
856.4021	1058.8421	16171.1	15215.2
856.5471	1060.8194	16196.2	15242.85
856.6921	1062.7959	16203.1	15250.8
856.8372	1064.7717	16229.15	15276.8
856.9822	1066.7469	16294.05	15340.2
857.1272	1068.7213	16292.3	15337.95
857.2723	1070.695	16345.55	15396.9
857.4173	1072.6679	16250.45	15299.9
857.5623	1074.6402	16235.05	15281.5
857.7073	1076.6117	16208.25	15248.8
857.8523	1078.5826	16214.05	15259.3
857.9973	1080.5527	16198.45	15245.4
858.1423	1082.5221	16242.55	15289.8
858.2873	1084.4908	16372.7	15422.2
858.4323	1086.4587	16535.9	15585.25
858.5773	1088.426	16673.9	15721.3
858.7223	1090.3925	16643.85	15685.95
858.8673	1092.3584	16613.3	15659.8
859.0123	1094.3235	16490.6	15542.7
859.1573	1096.2879	16445.35	15492.5
859.3022	1098.2515	16472.85	15521.85
859.4472	1100.2145	16525.15	15572.75
859.5922	1102.1767	16654.8	15701.05
859.7371	1104.1382	16846.25	15896.4
859.8821	1106.099	17027.3	16076.05
860.027	1108.0591	17224.9	16275.6
860.172	1110.0185	17345.3	16394
860.3169	1111.9771	17397.6	16449.35
860.4619	1113.9351	17186.4	16235.7
860.6068	1115.8923	16922.4	15970.6
860.7517	1117.8488	16674.75	15722.75
860.8967	1119.8045	16393.65	15446.75
861.0416	1121.7596	16267.1	15319.4
861.1865	1123.7139	16229.3	15279.6
861.3314	1125.6675	16177.45	15232.5
861.4763	1127.6204	16270.9	15320.35
861.6212	1129.5726	16238.55	15284.2
861.7661	1131.524	16243.6	15293.75
861.911	1133.4748	16199.4	15251.65
862.0559	1135.4248	16136.3	15188
862.2008	1137.3741	16108.25	15161.35
862.3457	1139.3226	16041.15	15090.85
862.4905	1141.2705	16013.9	15064.45
862.6354	1143.2176	15884.8	14929.15
862.7803	1145.164	15921.8	14970.35
862.9251	1147.1097	15928.15	14976.5
863.07	1149.0546	15914.9	14964.7
863.2148	1150.9989	15787.5	14836.25
863.3597	1152.9424	15697.65	14748.3
863.5045	1154.8852	15543.2	14597.5
863.6493	1156.8272	15449.65	14499.6
863.7942	1158.7686	15416.2	14460.9
863.939	1160.7092	15377.2	14423.7
864.0838	1162.6491	15361.5	14408.15
864.2286	1164.5883	15432.3	14482.4
864.3734	1166.5267	15509.65	14561.6
864.5182	1168.4644	15677.2	14726.2
864.663	1170.4014	15839.65	14889.2
864.8078	1172.3377	16091	15146.75
864.9526	1174.2732	16344	15398.95
865.0974	1176.2081	16605.6	15657.7
865.2421	1178.1421	16894.75	15941.85
865.3869	1180.0755	17159.95	16212.8
865.5317	1182.0082	17262.45	16316.5
865.6764	1183.9401	17336.35	16390.1
865.8212	1185.8713	17177.6	16237.4
865.9659	1187.8017	16920.5	15986.85
866.1106	1189.7315	16694.25	15772.75
866.2554	1191.6605	16339.6	15415.8
866.4001	1193.5888	16148.05	15218.05
866.5448	1195.5163	16007.8	15070.85
866.6895	1197.4432	15942.15	15000.55
866.8342	1199.3693	15891.15	14948.85
866.9789	1201.2947	15820.6	14872.8
867.1236	1203.2193	15798.9	14854.55
867.2683	1205.1432	15832	14884.7
867.413	1207.0664	15837.1	14895.95
867.5576	1208.9889	15860.45	14912.35
867.7023	1210.9106	15877	14934.2
867.847	1212.8316	15898.55	14951.5
867.9916	1214.7519	15936.15	14979.6
868.1363	1216.6715	15931.9	14988.25
868.2809	1218.5903	15954.55	15008.65
868.4255	1220.5084	15966.65	15023.4
868.5701	1222.4257	15968.75	15023.55
868.7148	1224.3424	15902.45	14964.05
868.8594	1226.2583	15976.1	15031.15
869.004	1228.1735	16080.4	15133.75
869.1486	1230.0879	16124.15	15179.9
869.2932	1232.0016	16270.5	15325.45
869.4377	1233.9146	16293.3	15343.6
869.5823	1235.8269	16205.05	15261.6
869.7269	1237.7384	16130.65	15184.75
869.8715	1239.6492	15935.95	14993.6
870.016	1241.5592	15830.5	14887.95
870.1606	1243.4686	15781.25	14837.05
870.3051	1245.3772	15754.15	14808.95
870.4496	1247.285	15770.3	14826.25
870.5941	1249.1922	15761.1	14816.95
870.7387	1251.0986	15773	14827.95
870.8832	1253.0042	15740.2	14797.45
871.0277	1254.9092	15834.05	14892.7
871.1722	1256.8134	15909.85	14969.8
871.3167	1258.7169	16020.55	15077.8
871.4611	1260.6196	16180	15240.75
871.6056	1262.5216	16386.35	15444.45
871.7501	1264.4229	16555.45	15611.75
871.8945	1266.3234	16737.85	15795.15
872.039	1268.2232	16781.55	15839.75
872.1834	1270.1223	16802.15	15858.3
872.3278	1272.0207	16763.9	15818.9
872.4723	1273.9183	16751.75	15804.35
872.6167	1275.8151	16663.65	15720.6
872.7611	1277.7113	16604.55	15660.45
872.9055	1279.6067	16475.2	15536.1
873.0499	1281.5014	16443.35	15501.4
873.1943	1283.3953	16470.85	15529.1
873.3386	1285.2885	16572.75	15632.15
873.483	1287.181	16672.8	15731.1
873.6274	1289.0727	16790.7	15852.3
873.7717	1290.9637	16870.85	15930.45
873.9161	1292.854	17010.9	16072.7
874.0604	1294.7435	17124.95	16182.35
874.2047	1296.6323	17263.75	16321.75
874.349	1298.5204	17408.85	16464.6
874.4933	1300.4077	17598.8	16657.6
874.6376	1302.2943	17664.85	16724.5
874.7819	1304.1802	17699.7	16758.25
874.9262	1306.0653	17485.7	16543.4
875.0705	1307.9497	17252.95	16310.5
875.2147	1309.8333	17048.05	16109.2
875.359	1311.7162	16935.9	15998.1
875.5032	1313.5984	16931.4	15985.7
875.6475	1315.4798	16894.5	15952.95
875.7917	1317.3605	16974.15	16028.55
875.9359	1319.2405	17009.05	16067.4
876.0801	1321.1197	16931	15989.1
876.2243	1322.9982	16746.9	15800.6
876.3685	1324.876	16665.6	15726.65
876.5127	1326.753	16550.25	15606.2
876.6569	1328.6293	16534.8	15588.45
876.801	1330.5048	16481.65	15539.95
876.9452	1332.3796	16411.6	15469.9
877.0893	1334.2537	16394.05	15426.45
877.2335	1336.127	16289.2	15349.45
877.3776	1337.9996	16260.7	15319.65
877.5217	1339.8714	16251.25	15311.05
877.6658	1341.7426	16252.6	15267.4
877.8099	1343.6129	16218.05	15270.9
877.954	1345.4826	16154.15	15211.3
878.0981	1347.3515	16153.55	15208.5
878.2422	1349.2196	16096.9	15154.4
878.3862	1351.087	16127.7	15186.55
878.5303	1352.9537	16156.9	15215
878.6743	1354.8197	16259.45	15317.15
878.8184	1356.6849	16401.2	15458.85
878.9624	1358.5493	16482.2	15537.9
879.1064	1360.4131	16552.6	15610.9
879.2504	1362.276	16532.25	15589.7
879.3944	1364.1383	16411.7	15471.2
879.5384	1365.9998	16156.15	15209.75
879.6823	1367.8606	15845.35	14904.15
879.8263	1369.7206	15549	14607.2
879.9702	1371.5799	15293.55	14349.2
880.1142	1373.4384	15094.55	14153.7
880.2581	1375.2962	14928.75	13988.35
880.402	1377.1533	14686.35	13747.2
880.5459	1379.0096	14347.9	13413
880.6898	1380.8652	14033.3	13099.35
880.8337	1382.7201	13778.4	12842.45
880.9776	1384.5742	13530.2	12591.85
881.1215	1386.4275	13337.15	12396.35
881.2653	1388.2802	13195.3	12256.1
881.4092	1390.132	13095.05	12153.35
881.553	1391.9832	13008.65	12065.3
881.6968	1393.8336	12866.95	11926.25
881.8406	1395.6832	12842.9	11902.6
881.9844	1397.5322	12802.15	11861.75
882.1282	1399.3803	12789.6	11844.3
882.272	1401.2278	12718.35	11778.65
882.4158	1403.0745	12733.75	11796.85
882.5595	1404.9204	12676.9	11739.85
882.7033	1406.7656	12704.3	11765
882.847	1408.6101	12732.95	11791.6
882.9908	1410.4538	12690.25	11749.8
883.1345	1412.2968	12751.75	11811.5
883.2782	1414.139	12793.1	11852.25
883.4219	1415.9805	12853.35	11915.2
883.5656	1417.8213	12928.95	11982.35
883.7092	1419.6613	12997.4	12057.7
883.8529	1421.5006	13164.9	12228.15
883.9965	1423.3391	13419.55	12482.9
884.1402	1425.1769	13707.05	12767.95
884.2838	1427.0139	14162.8	13222.65
884.4274	1428.8502	14714.3	13774.85
884.571	1430.6858	15243.15	14306.5
884.7146	1432.5206	15623.55	14687.75
884.8582	1434.3547	15831.6	14893.7
885.0018	1436.188	15882	14945.15
885.1453	1438.0206	15810.4	14873.65
885.2889	1439.8524	15645.05	14707.5
885.4324	1441.6835	15520.85	14583.6
885.5759	1443.5139	15414.55	14471.85
885.7194	1445.3435	15362.9	14427.35
885.8629	1447.1724	15314.5	14378.05
886.0064	1449.0005	15220.75	14286.15
886.1499	1450.8279	15127.35	14188.85
886.2933	1452.6545	15102.05	14168.4
886.4368	1454.4804	15131.45	14198.2
886.5802	1456.3056	15094.4	14154.4
886.7237	1458.13	14982.05	14046.95
886.8671	1459.9536	14771.5	13837
887.0105	1461.7766	14472.8	13539.05
887.1539	1463.5987	14057.3	13118
887.2972	1465.4202	13674.7	12735.3
887.4406	1467.2409	13311.5	12377.85
887.584	1469.0608	13078.35	12143.3
887.7273	1470.88	12800.4	11864.5
887.8706	1472.6984	12569.1	11632.3
888.0139	1474.5161	12376.2	11438.4
888.1572	1476.3331	12178	11240.05
888.3005	1478.1493	12048.85	11113.15
888.4438	1479.9648	11958.95	11023.7
888.5871	1481.7795	11870.95	10934.55
888.7303	1483.5935	11790.35	10853.8
888.8736	1485.4067	11719.9	10784.2
889.0168	1487.2192	11676.5	10741.7
889.16	1489.031	11633.55	10695.95
889.3032	1490.842	11570.2	10635.6
889.4464	1492.6522	11530.85	10597.65
889.5896	1494.4618	11485.85	10549.25
889.7327	1496.2705	11459.95	10526.9
889.8759	1498.0785	11403.95	10469.65
890.019	1499.8858	11382.15	10446.95
890.1622	1501.6924	11318	10381
890.3053	1503.4981	11303.2	10371.6
890.4484	1505.3032	11260	10325.45
890.5914	1507.1075	11239	10301.25
890.7345	1508.911	11218.55	10283.55
890.8776	1510.7138	11156.15	10222.3
891.0206	1512.5159	11090.15	10157.15
891.1637	1514.3172	11048.6	10116.85
891.3067	1516.1178	10987.3	10057.15
891.4497	1517.9176	10964.65	10029.3
891.5927	1519.7166	10927.25	9999.7
891.7357	1521.515	10865.25	9928.8
891.8786	1523.3126	10818.8	9888.35
892.0216	1525.1094	10793.4	9860.25
892.1645	1526.9055	10767.05	9839.9
892.3074	1528.7008	10716.7	9784.85
892.4503	1530.4954	10658.3	9726.6
892.5932	1532.2893	10643.2	9715.15
892.7361	1534.0824	10589.5	9657.8
892.879	1535.8747	10581	9656.8
893.0218	1537.6663	10575.75	9648.95
893.1647	1539.4572	10549.65	9622.9
893.3075	1541.2473	10534.55	9606.65
893.4503	1543.0367	10513.1	9586.8
893.5931	1544.8253	10485.7	9552.95
893.7359	1546.6132	10506.9	9574.5
893.8787	1548.4003	10476.7	9539.75
894.0214	1550.1867	10518.15	9582.2
894.1642	1551.9723	10517.4	9590.8
894.3069	1553.7572	10575.85	9653.15
894.4496	1555.5414	10622.95	9697.8
894.5923	1557.3247	10643.85	9720.3
894.735	1559.1074	10725.65	9802.5
894.8777	1560.8893	10802.65	9881.4
895.0204	1562.6705	10853.4	9933.25
895.163	1564.4509	10952.8	10033.1
895.3056	1566.2305	10973.5	10059.35
895.4482	1568.0094	11039.35	10124.25
895.5908	1569.7876	11082.95	10165.5
895.7334	1571.565	11074.85	10156.7
895.876	1573.3417	11081.6	10162.95
896.0186	1575.1176	11048.65	10129.1
896.1611	1576.8928	10997.6	10082.1
896.3036	1578.6672	10919.1	10008.8
896.4461	1580.4409	10820.2	9911.4
896.5886	1582.2138	10726.15	9811.7
896.7311	1583.986	10650.3	9734.95
896.8736	1585.7575	10609.8	9694.3
897.0161	1587.5282	10583.3	9669.8
897.1585	1589.2981	10556.45	9647.5
897.3009	1591.0673	10503.5	9593.6
897.4433	1592.8358	10542.65	9632
897.5857	1594.6035	10556.8	9643.6
897.7281	1596.3704	10569.6	9649.95
897.8705	1598.1366	10608.25	9693.8
898.0128	1599.9021	10649.65	9738.1
898.1551	1601.6668	10680.05	9767.05
898.2975	1603.4308	10783.45	9864.2
898.4398	1605.194	10896.7	9977.55
898.5821	1606.9564	11009.65	10104.2
898.7243	1608.7182	11130.65	10227.45
898.8666	1610.4791	11305.05	10407.05
899.0088	1612.2394	11476.7	10581.25
899.1511	1613.9988	11670.25	10772.35
899.2933	1615.7576	11874.9	10970.05
899.4355	1617.5156	12075.3	11156
899.5776	1619.2728	12238.55	11323.55
899.7198	1621.0293	12348.3	11437.35
899.862	1622.785	12306.9	11396
900.0041	1624.54	12150.75	11244.3
900.1462	1626.2942	11987.75	11082.8
900.2883	1628.0477	11708.6	10801.7
900.4304	1629.8005	11496.8	10589.9
900.5725	1631.5525	11246.2	10343.05
900.7145	1633.3037	11038.7	10134.4
900.8566	1635.0542	10933.65	10031.1
900.9986	1636.804	10815.7	9910.25
901.1406	1638.553	10805.25	9840.3
901.2826	1640.3013	10706.05	9800.1
901.4245	1642.0488	10673.45	9768.2
901.5665	1643.7955	10695.2	9794.05
901.7085	1645.5416	10733.05	9830.4
901.8504	1647.2868	10827.8	9922.5
901.9923	1649.0313	10911.7	10006.5
902.1342	1650.7751	11045.4	10138.5
902.2761	1652.5181	11193.3	10289.2
902.4179	1654.2604	11421.15	10520.9
902.5598	1656.0019	11633.15	10730.55
902.7016	1657.7427	11914.45	11010.9
902.8434	1659.4828	12195.35	11287.2
902.9852	1661.222	12357.8	11450.25
903.127	1662.9606	12314.25	11409.3
903.2687	1664.6984	12133.65	11226.15
903.4105	1666.4354	11730.6	10819.4
903.5522	1668.1717	11189.65	10277.8
903.6939	1669.9072	10667.6	9757.25
903.8356	1671.642	10249.25	9336.25
903.9773	1673.3761	9885.45	8978
904.119	1675.1094	9573.55	8670.4
904.2606	1676.8419	9343.3	8439.5
904.4022	1678.5737	9175.3	8269.3
904.5439	1680.3048	9024.7	8114.5
904.6855	1682.0351	8894.2	7987.95
904.827	1683.7646	8808.4	7896.75
904.9686	1685.4934	8702.05	7794.4
905.1101	1687.2215	8653.15	7749.15
905.2517	1688.9488	8554.55	7651.75
905.3932	1690.6754	8494.5	7590.5
905.5347	1692.4012	8477.8	7573.25
905.6761	1694.1263	8422.4	7516.75
905.8176	1695.8506	8388.6	7483.1
905.9591	1697.5742	8350.6	7449.1
906.1005	1699.297	8292.25	7391.1
906.2419	1701.0191	8226.05	7325.2
906.3833	1702.7404	8197.7	7298.75
906.5246	1704.461	8149.55	7248.75
906.666	1706.1808	8092.9	7190.3
906.8073	1707.8999	8059.55	7160.95
906.9487	1709.6182	8043.5	7146.8
907.09	1711.3358	8028.35	7132.5
907.2313	1713.0527	7962.55	7068.35
907.3725	1714.7688	7952.95	7050.95
907.5138	1716.4841	7921.4	7019.35
907.655	1718.1987	7896.1	6989.45
907.7962	1719.9126	7866.65	6971.1
907.9374	1721.6257	7830.55	6932.4
908.0786	1723.338	7807.45	6912.4
908.2198	1725.0496	7788	6892.2
908.3609	1726.7605	7745.4	6847.55
908.502	1728.4706	7732.5	6835.3
908.6431	1730.18	7692.5	6796.75
908.7842	1731.8886	7666.55	6774.4
908.9253	1733.5964	7656.9	6741.25
909.0664	1735.3036	7611.85	6713.8
909.2074	1737.0099	7605.55	6710.65
909.3484	1738.7156	7579.2	6686.95
909.4894	1740.4204	7537.8	6639.4
909.6304	1742.1246	7528.35	6629.3
909.7714	1743.8279	7508.6	6613.35
909.9123	1745.5306	7502.3	6606.85
910.0532	1747.2325	7456.15	6563.8
910.1941	1748.9336	7422.9	6527.15
910.335	1750.634	7390.15	6492.85
910.4759	1752.3336	7366.75	6470.05
910.6168	1754.0325	7361.6	6470.9
910.7576	1755.7307	7328.45	6434.95
910.8984	1757.4281	7343.05	6447.5
911.0392	1759.1247	7334.75	6427.15
911.18	1760.8206	7328.85	6426.3
911.3208	1762.5158	7292.05	6389.95
911.4615	1764.2102	7259.2	6362.25
911.6022	1765.9039	7215.7	6322.3
911.7429	1767.5968	7216.25	6323.15
911.8836	1769.289	7191.5	6300.55
912.0243	1770.9804	7186.45	6291.95
912.1649	1772.6711	7161.3	6263.7
912.3056	1774.361	7141.1	6241.8
912.4462	1776.0502	7136.3	6236.65
912.5868	1777.7386	7107.55	6208.4
912.7274	1779.4263	7090.5	6195.15
912.8679	1781.1132	7077.15	6186.3
913.0084	1782.7994	7041.1	6149.1
913.149	1784.4849	7042.2	6151.65
913.2895	1786.1696	7041.5	6141.85
913.4299	1787.8535	7016.3	6127.5
913.5704	1789.5367	6990.85	6102.35
913.7108	1791.2192	6969.15	6078.6
913.8513	1792.9009	6978.85	6059.4
913.9917	1794.5818	6942.1	6046.3
914.132	1796.2621	6906.35	6009.6
914.2724	1797.9415	6922.9	6025.95
914.4128	1799.6202	6898.45	6001.35
914.5531	1801.2982	6861.3	5964.3
914.6934	1802.9755	6862.4	5964.65
914.8337	1804.6519	6838.8	5945.8
914.9739	1806.3277	6826.3	5931.75
915.1142	1808.0027	6797.75	5908.9
915.2544	1809.6769	6791.15	5903
915.3946	1811.3504	6772.2	5881.8
915.5348	1813.0231	6751.35	5861.3
915.675	1814.6951	6748.1	5856.6
915.8151	1816.3664	6727.6	5832.45
915.9553	1818.0369	6712.3	5818.25
916.0954	1819.7067	6707.85	5814.6
916.2355	1821.3757	6682.8	5786.4
916.3755	1823.044	6662.9	5767.05
916.5156	1824.7115	6659.55	5761
916.6556	1826.3783	6629.85	5734.8
916.7956	1828.0443	6613.9	5720.55
916.9356	1829.7096	6615.3	5718.95
917.0756	1831.3741	6596.75	5699.5
917.2155	1833.0379	6601.75	5711.4
917.3555	1834.701	6572	5680.15
917.4954	1836.3633	6540.1	5649.6
917.6353	1838.0248	6519.1	5627.65
917.7751	1839.6856	6516.6	5623.4
917.915	1841.3457	6501.9	5610.55
918.0548	1843.005	6493.65	5598.95
918.1946	1844.6636	6485.25	5591.35
918.3344	1846.3214	6488.5	5595.65
918.4742	1847.9785	6471.1	5578.5
918.6139	1849.6349	6456.2	5561.8
918.7537	1851.2904	6431	5527.7
918.8934	1852.9453	6414.75	5516.95
919.0331	1854.5994	6396.4	5498.4
919.1727	1856.2528	6395.3	5493.7
919.3124	1857.9054	6382.95	5487.95
919.452	1859.5572	6373.7	5481.7
919.5916	1861.2083	6357.95	5464.25
919.7312	1862.8587	6352.45	5457.2
919.8708	1864.5084	6329.1	5431.5
920.0103	1866.1572	6323.2	5426.65
920.1498	1867.8054	6318.05	5420.15
920.2893	1869.4528	6295	5397.25
920.4288	1871.0994	6254.35	5357.55
920.5683	1872.7453	6255.15	5360.05
920.7077	1874.3905	6267	5354.85
920.8471	1876.0349	6233.35	5337.05
920.9865	1877.6786	6233.25	5339.3
921.1259	1879.3215	6221.7	5327.8
921.2653	1880.9637	6194.3	5300
921.4046	1882.6051	6207.15	5317.55
921.5439	1884.2458	6165.35	5270.4
921.6832	1885.8858	6143.35	5250.5
921.8225	1887.525	6129.75	5238.2
921.9617	1889.1634	6107.25	5212.9
922.101	1890.8011	6112.05	5214.9
922.2402	1892.4381	6083.95	5189.05
922.3794	1894.0743	6061.95	5170.1
922.5185	1895.7098	6072.1	5181.5
922.6577	1897.3446	6060.25	5165.6
922.7968	1898.9786	6026.7	5127.8
922.9359	1900.6118	6021.25	5132.45
923.075	1902.2443	5986.75	5094.4
923.214	1903.8761	5987.55	5094.95
923.3531	1905.5071	5945.9	5050.6
923.4921	1907.1374	5945.1	5050.25
923.6311	1908.7669	5927.35	5036.8
923.77	1910.3957	5926.45	5034.65
923.909	1912.0237	5908.25	5016.2
924.0479	1913.651	5874.5	4983.5
924.1868	1915.2776	5872.35	4980.95
924.3257	1916.9034	5846.45	4953.2
924.4646	1918.5285	5810.05	4920.5
924.6034	1920.1528	5802.2	4908.95
924.7422	1921.7764	5798.25	4908.3
924.881	1923.3992	5785.9	4894.65
925.0198	1925.0213	5723.4	4830.9
925.1586	1926.6427	5722.6	4832.8
925.2973	1928.2633	5868.9	4771.7
925.436	1929.8832	5724.45	4828.25
925.5747	1931.5023	5678.9	4788.3
925.7134	1933.1207	5663.1	4769.4
925.852	1934.7383	5665.75	4772.95
925.9906	1936.3552	5637.6	4747.5
926.1292	1937.9714	5623.05	4731.4
926.2678	1939.5868	5595.4	4699.3
926.4064	1941.2015	5569.35	4675.45
926.5449	1942.8154	5561.35	4667.55
926.6834	1944.4286	5546.4	4652.8
926.8219	1946.041	5539.25	4624.55
926.9604	1947.6528	5489.9	4591.15
927.0988	1949.2637	5489.05	4597.9
927.2372	1950.8739	5474.6	4581.3
927.3756	1952.4834	5457.9	4566.8
927.514	1954.0921	5438.75	4545.25
927.6523	1955.7001	5427.95	4535.2
927.7907	1957.3074	5431.4	4543
927.929	1958.9139	5406.05	4519.25
928.0673	1960.5197	5387.35	4497.05
928.2055	1962.1247	5357.9	4469.55
928.3438	1963.729	5328.95	4439.3
928.482	1965.3325	5321.9	4428.2
928.6202	1966.9353	5293.3	4405.15
928.7584	1968.5374	5292.9	4405.45
928.8965	1970.1387	5263.8	4374.65
929.0346	1971.7393	5237.25	4349.7
929.1727	1973.3392	5223.1	4334.7
929.3108	1974.9383	5201.35	4317
929.4489	1976.5366	5204	4317.8
929.5869	1978.1342	5194.6	4310.7
929.7249	1979.7311	5203.85	4315.65
929.8629	1981.3273	5178.4	4294.8
930.0009	1982.9227	5158.55	4273.05
930.1388	1984.5173	5135.7	4252.75
930.2767	1986.1112	5114.6	4232.15
930.4146	1987.7044	5110.7	4225
930.5525	1989.2968	5099	4212.05
930.6904	1990.8885	5078.75	4191.55
930.8282	1992.4795	5086.25	4201.15
930.966	1994.0697	5042.9	4162.05
931.1038	1995.6592	5054.75	4170.6
931.2415	1997.2479	5030.3	4146.3
931.3793	1998.8359	5014.35	4128.2
931.517	2000.4232	4991.8	4110.05
931.6547	2002.0097	4973.05	4094.9
931.7923	2003.5955	4947	4066.85
931.93	2005.1805	4954.2	4073.15
932.0676	2006.7648	4944.55	4063.55
932.2052	2008.3484	4925.1	4042.55
932.3427	2009.9312	4918.1	4038.1
932.4803	2011.5133	4894.95	4016.55
932.6178	2013.0946	4880.85	4002.05
932.7553	2014.6752	4879.2	3999.8
932.8928	2016.2551	4875.2	3992.2
933.0302	2017.8342	4859.6	3979.95
933.1676	2019.4126	4841.75	3962.15
933.305	2020.9902	4822.7	3945.05
933.4424	2022.5672	4806.65	3925.55
933.5798	2024.1433	4784.95	3901.85
933.7171	2025.7188	4801.25	3924.6
933.8544	2027.2935	4782.4	3902.95
933.9917	2028.8674	4759.5	3883.55
934.129	2030.4406	4755.15	3879.05
934.2662	2032.0131	4723.2	3847.55
934.4034	2033.5849	4727.3	3849.2
934.5406	2035.1559	4707.3	3828.65
934.6778	2036.7261	4706.35	3826.75
934.8149	2038.2957	4698	3817.4
934.952	2039.8645	4693.85	3809.4
935.0891	2041.4325	4695.05	3809.95
935.2262	2042.9998	4661.3	3779.45
935.3632	2044.5664	4669.1	3786.25
935.5002	2046.1323	4645.95	3768.2
935.6372	2047.6974	4626.1	3748.35
935.7742	2049.2617	4628.15	3749.55
935.9111	2050.8254	4648	3738.1
936.048	2052.3883	4616.4	3734.05
936.1849	2053.9504	4588.15	3704.7
936.3218	2055.5118	4585.4	3701.1
936.4586	2057.0725	4568	3683.05
936.5955	2058.6325	4565.05	3684.25
936.7323	2060.1917	4553.05	3673.85
936.869	2061.7502	4543.6	3661.1
937.0058	2063.3079	4531.35	3654.75
937.1425	2064.8649	4504.15	3619.6
937.2792	2066.4212	4504.55	3621.55
937.4159	2067.9767	4485.15	3602
937.5525	2069.5315	4474.85	3591.95
937.6891	2071.0856	4457.3	3577
937.8257	2072.6389	4453.6	3571.35
937.9623	2074.1915	4439.8	3561.1
938.0989	2075.7433	4395.95	3512.6
938.2354	2077.2945	4407	3526.2
938.3719	2078.8448	4399.6	3515.3
938.5084	2080.3945	4375.3	3493.85
938.6448	2081.9434	4366.25	3486.85
938.7812	2083.4916	4365.15	3478.4
938.9176	2085.039	4349.25	3459
939.054	2086.5857	4354.4	3463.4
939.1903	2088.1317	4321.75	3429.5
939.3267	2089.677	4322.4	3431.55
939.463	2091.2215	4319.2	3428.55
939.5992	2092.7652	4301.1	3410.45
939.7355	2094.3083	4300.3	3410.8
939.8717	2095.8506	4295.8	3408.25
940.0079	2097.3921	4302.4	3419.1
940.1441	2098.933	4272.4	3386.65
940.2802	2100.4731	4264.35	3378.65
940.4163	2102.0124	4262.1	3367.55
940.5524	2103.5511	4258.3	3372.15
940.6885	2105.089	4238.05	3351.45
940.8245	2106.6261	4229.3	3342.8
940.9606	2108.1626	4221.25	3335.1
941.0965	2109.6983	4235.5	3323.1
941.2325	2111.2332	4200.6	3315.15
941.3684	2112.7675	4183.05	3297.9
941.5044	2114.301	4183.5	3296.45
941.6403	2115.8337	4166.95	3280.85
941.7761	2117.3657	4161.35	3276.8
941.912	2118.897	4170.8	3281.95
942.0478	2120.4276	4159.25	3265.9
942.1835	2121.9575	4135.85	3245.65
942.3193	2123.4866	4138.95	3251.1
942.455	2125.0149	4121	3230.75
942.5907	2126.5426	4096.25	3211.7
942.7264	2128.0695	4085.75	3201.1
942.8621	2129.5956	4085.05	3206.8
942.9977	2131.1211	4083.95	3197.15
943.1333	2132.6458	4055.25	3171.5
943.2689	2134.1698	4057.35	3168.85
943.4044	2135.693	4074.6	3183.75
943.54	2137.2155	4047.5	3158.3
943.6755	2138.7373	4033.8	3150.45
943.8109	2140.2584	4014.25	3132.3
943.9464	2141.7787	4022.9	3139.4
944.0818	2143.2983	4002.8	3125.2
944.2172	2144.8171	3991.9	3114.3
944.3526	2146.3353	3979.45	3099.45
944.4879	2147.8527	3952.8	3073.4
944.6232	2149.3693	3972.7	3083.7
944.7585	2150.8853	3952.55	3064.25
944.8938	2152.4005	3935.15	3048.75
945.029	2153.9149	3936.7	3049.05
945.1642	2155.4287	3935.6	3047.85
945.2994	2156.9417	3905	3016.05
945.4346	2158.454	3909.95	3024
945.5697	2159.9655	3903.15	3019.35
945.7048	2161.4764	3902.55	3018.1
945.8399	2162.9865	3881.95	2998.7
945.9749	2164.4958	3859.8	2976.5
946.1099	2166.0045	3856.95	2970.95
946.2449	2167.5124	3843.5	2959.6
946.3799	2169.0195	3865.35	2980.25
946.5148	2170.526	3851.6	2963.75
946.6498	2172.0317	3850.2	2963.35
946.7846	2173.5367	3829.2	2944.2
946.9195	2175.0409	3816.5	2932.45
947.0543	2176.5445	3821.8	2937.1
947.1891	2178.0473	3792.8	2905.05
947.3239	2179.5494	3789.45	2898.55
947.4587	2181.0507	3779.65	2893.7
947.5934	2182.5513	3758.35	2875.75
947.7281	2184.0512	3768.2	2879.45
947.8628	2185.5504	3753.2	2865.4
947.9974	2187.0488	3723.1	2842.45
948.132	2188.5465	3719.25	2836.45
948.2666	2190.0435	3718.8	2834.15
948.4012	2191.5397	3708.15	2823.15
948.5357	2193.0353	3722.2	2834.9
948.6702	2194.5301	3704.6	2815.15
948.8047	2196.0241	3685.85	2795.2
948.9392	2197.5175	3676.4	2783.8
949.0736	2199.0101	3656.15	2761.9
949.208	2200.502	3645.15	2759.35
949.3424	2201.9931	3634.45	2750.1
949.4767	2203.4835	3627.05	2746
949.611	2204.9733	3625.35	2736.45
949.7453	2206.4622	3613.15	2733.65
949.8796	2207.9505	3605.3	2723.05
950.0138	2209.438	3594.4	2715.55
950.148	2210.9248	3570.6	2685.5
950.2822	2212.4109	3564.55	2680.75
950.4164	2213.8962	3573.15	2680.15
950.5505	2215.3809	3559.7	2667.8
950.6846	2216.8648	3553.3	2662.9
950.8186	2218.3479	3553.45	2656.75
950.9527	2219.8304	3538.55	2641.05
951.0867	2221.3121	3529.15	2633.75
951.2207	2222.7931	3506	2616.2
951.3546	2224.2733	3494.4	2607.15
951.4886	2225.7529	3495.55	2610.35
951.6225	2227.2317	3488.75	2602.65
951.7563	2228.7098	3488.65	2606.7
951.8902	2230.1872	3473.15	2590.35
952.024	2231.6638	3467.35	2586.15
952.1578	2233.1397	3435.5	2549.65
952.2916	2234.6149	3433	2549.1
952.4253	2236.0894	3421.35	2535.25
952.559	2237.5632	3428.7	2534.7
952.6927	2239.0362	3413.25	2527.5
952.8263	2240.5085	3414.65	2529.2
952.9599	2241.9801	3400.5	2512.35
953.0935	2243.4509	3396.05	2508.75
953.2271	2244.921	3383.1	2491.9
953.3606	2246.3904	3358.25	2466.7
953.4941	2247.8591	3366.6	2477.75
953.6276	2249.3271	3359.9	2470.3
953.7611	2250.7943	3348.1	2458.5
953.8945	2252.2608	3328.15	2440.6
954.0279	2253.7266	3319.35	2432.1
954.1612	2255.1917	3315.75	2427.7
954.2946	2256.656	3321.25	2434.6
954.4279	2258.1197	3293.4	2409.25
954.5612	2259.5826	3296.5	2412
954.6944	2261.0447	3302.4	2417.15
954.8276	2262.5062	3283.7	2391.1
954.9608	2263.9669	3279.85	2387.35
955.094	2265.4269	3288.75	2402.95
955.2271	2266.8862	3256.9	2371.7
955.3602	2268.3448	3253.45	2366.65
955.4933	2269.8026	3258.9	2375.25
955.6264	2271.2598	3240.65	2357.5
955.7594	2272.7162	3233.5	2349.85
955.8924	2274.1719	3225	2336.05
956.0253	2275.6268	3220.45	2331.2
956.1583	2277.0811	3224.05	2336.1
956.2912	2278.5346	3211.7	2327.05
956.4241	2279.9874	3204.9	2321.9
956.5569	2281.4395	3204	2320.45
956.6897	2282.8908	3196.6	2305.95
956.8225	2284.3414	3176.55	2286.55
956.9553	2285.7914	3186.15	2299.8
957.088	2287.2406	3175.15	2285.9
957.2207	2288.689	3163.3	2272.6
957.3534	2290.1368	3169.95	2278.4
957.486	2291.5838	3169.05	2272.35
957.6186	2293.0302	3158.8	2265.85
957.7512	2294.4758	3145.2	2253
957.8838	2295.9206	3123.7	2232.85
958.0163	2297.3648	3117.05	2232.4
958.1488	2298.8082	3111.55	2223.9
958.2813	2300.251	3108.7	2222.15
958.4137	2301.693	3111.15	2218.45
958.5461	2303.1343	3108.6	2218.65
958.6785	2304.5748	3101.7	2215.8
958.8108	2306.0147	3076.15	2191.85
958.9432	2307.4538	3067.75	2181.85
959.0754	2308.8922	3061	2179.35
959.2077	2310.3299	3062.35	2176.95
959.3399	2311.7669	3056.1	2173.8
959.4721	2313.2031	3059.15	2170.95
959.6043	2314.6387	3032.6	2144.5
959.7365	2316.0735	3034.9	2147.45
959.8686	2317.5076	3023.95	2134.95
960.0006	2318.941	3029.05	2139.25
960.1327	2320.3737	3018.3	2126.95
960.2647	2321.8056	3011.6	2121.6
960.3967	2323.2369	3008.85	2122.9
960.5287	2324.6674	3006.3	2117.45
960.6606	2326.0972	2993.65	2103.6
960.7925	2327.5263	2982.6	2093
960.9244	2328.9547	2986.9	2098.8
961.0562	2330.3823	2973.85	2083.9
961.1881	2331.8092	2973.05	2078.45
961.3198	2333.2355	2962.65	2069.65
961.4516	2334.661	2958.15	2066.15
961.5833	2336.0858	2946	2054.65
961.715	2337.5098	2935.05	2046.35
961.8467	2338.9332	2923.45	2033.85
961.9783	2340.3558	2916.35	2025.25
962.1099	2341.7778	2921.1	2034.9
962.2415	2343.199	2896.6	2008
962.373	2344.6195	2893.4	2006.15
962.5045	2346.0393	2885.8	2001
962.636	2347.4583	2896.4	2007.8
962.7675	2348.8767	2889.6	2001.35
962.8989	2350.2943	2896.8	2006.55
963.0303	2351.7113	2875.8	1985.15
963.1617	2353.1275	2879.25	1986.25
963.293	2354.543	2893.05	1990.6
963.4243	2355.9578	2872.6	1981.2
963.5556	2357.3718	2840.7	1955.9
963.6868	2358.7852	2842.15	1957.2
963.818	2360.1978	2845.55	1958.65
963.9492	2361.6098	2838.25	1954.45
964.0803	2363.021	2849.4	1956.75
964.2114	2364.4315	2823.05	1935.05
964.3425	2365.8413	2821.75	1935.4
964.4736	2367.2504	2817.85	1934.7
964.6046	2368.6587	2797.65	1913.1
964.7356	2370.0664	2794.5	1910.5
964.8666	2371.4733	2786.5	1901.1
964.9975	2372.8795	2783.1	1896.55
965.1284	2374.285	2775.5	1889
965.2593	2375.6899	2758.8	1875.45
965.3901	2377.0939	2760.8	1876.65
965.5209	2378.4973	2743.9	1860.25
965.6517	2379.9	2752.25	1868
965.7825	2381.3019	2733.8	1849.05
965.9132	2382.7032	2730.9	1847.5
966.0439	2384.1037	2729.65	1847.65
966.1745	2385.5035	2716.4	1834.05
966.3051	2386.9027	2714.45	1833.5
966.4357	2388.3011	2715.35	1830.5
966.5663	2389.6987	2715.85	1834.05
966.6968	2391.0957	2703.9	1822.9
966.8273	2392.492	2682.15	1800.75
966.9578	2393.8876	2686.65	1805.75
967.0882	2395.2824	2676.95	1793.2
967.2186	2396.6765	2671.5	1788.55
967.349	2398.07	2657.55	1773.6
967.4793	2399.4627	2649.1	1762.6
967.6097	2400.8547	2631.85	1746.15
967.7399	2402.246	2648.1	1759.4
967.8702	2403.6366	2622.65	1740.5
968.0004	2405.0265	2629.6	1745.45
968.1306	2406.4156	2615.6	1729.2
968.2607	2407.8041	2618.2	1734.05
968.3909	2409.1918	2616.6	1731.6
968.521	2410.5789	2615.2	1732.3
968.651	2411.9652	2588.3	1702.1
968.781	2413.3508	2587.5	1701.65
968.911	2414.7358	2572.15	1686.2
969.041	2416.12	2584.1	1700.1
969.1709	2417.5035	2576.3	1692.25
969.3008	2418.8863	2557	1673.65
969.4307	2420.2684	2561.35	1675.7
969.5606	2421.6497	2554.5	1670.2
969.6904	2423.0304	2532.85	1648.25
969.8201	2424.4104	2541.05	1656.05
969.9499	2425.7896	2534.25	1650.6
970.0796	2427.1682	2528	1646.7
970.2093	2428.546	2524.5	1641.65
970.3389	2429.9232	2522.1	1637.6
970.4685	2431.2996	2522.9	1638.95
970.5981	2432.6753	2520.3	1636
970.7277	2434.0503	2510	1622.45
970.8572	2435.4246	2491.45	1608.6
970.9867	2436.7982	2499.7	1612.7
971.1161	2438.1711	2496.5	1614.95
971.2456	2439.5433	2493.75	1607.95
971.375	2440.9148	2483.8	1593.95
971.5043	2442.2856	2478.1	1593.75
971.6336	2443.6557	2462.9	1580.1
971.7629	2445.025	2465.35	1579.8
971.8922	2446.3937	2455.9	1571.25
972.0214	2447.7617	2448.05	1560.85
972.1506	2449.1289	2439.95	1556.75
972.2798	2450.4955	2449.1	1560.65
972.4089	2451.8613	2435.9	1550.5
972.538	2453.2265	2424.75	1542.7
972.6671	2454.5909	2427.8	1538.95
972.7961	2455.9546	2427.7	1544.95
972.9251	2457.3177	2419.45	1535.75
973.0541	2458.68	2412.8	1526.35
973.1831	2460.0416	2421.9	1536.8
973.312	2461.4025	2408.9	1523.35
973.4408	2462.7627	2411.45	1517
973.5697	2464.1222	2408.4	1527
973.6985	2465.4811	2402.05	1516.65
973.8273	2466.8392	2384.4	1500.65
973.956	2468.1966	2387.3	1500.6
974.0847	2469.5533	2386.35	1498.95
974.2134	2470.9093	2378.35	1494.95
974.3421	2472.2645	2392.1	1504.15
974.4707	2473.6191	2374.7	1491.1
974.5993	2474.973	2369.8	1485.95
974.7278	2476.3262	2378.35	1493.15
974.8563	2477.6787	2361.9	1478.65
974.9848	2479.0305	2346.45	1463.7
975.1132	2480.3816	2346.25	1460.15
975.2417	2481.7319	2339.7	1454.6
975.37	2483.0816	2330.4	1444.05
975.4984	2484.4306	2320.1	1436.9
975.6267	2485.7789	2320	1436.5
975.755	2487.1264	2324.2	1437.85
975.8833	2488.4733	2310.45	1428.75
976.0115	2489.8195	2308.55	1416.2
976.1397	2491.165	2306.85	1420.65
976.2678	2492.5097	2303.25	1417.1
976.3959	2493.8538	2302.1	1418.7
976.524	2495.1972	2281.25	1397.75
976.6521	2496.5398	2277.8	1390.15
976.7801	2497.8818	2275.7	1388.7
976.9081	2499.2231	2264.6	1379.6
977.036	2500.5637	2277.6	1390.1
977.164	2501.9035	2258.65	1372.1
977.2918	2503.2427	2260	1368.7
977.4197	2504.5812	2252.7	1367.6
977.5475	2505.919	2248.45	1361
977.6753	2507.256	2246.55	1362.15
977.8031	2508.5924	2242.6	1357.45
977.9308	2509.9281	2248.5	1357.15
978.0585	2511.2631	2225.45	1341.2
978.1861	2512.5974	2232.25	1349.85
978.3137	2513.9309	2221.3	1335.6
978.4413	2515.2638	2242.35	1330.3
978.5689	2516.596	2226.75	1343.05
978.6964	2517.9275	2207	1321.15
978.8239	2519.2583	2210.15	1326.15
978.9513	2520.5884	2199.45	1313.3
979.0788	2521.9178	2188.7	1303.85
979.2062	2523.2465	2183.7	1300.5
979.3335	2524.5745	2180.45	1298.95
979.4608	2525.9018	2182.95	1297.05
979.5881	2527.2284	2173	1288.55
979.7154	2528.5543	2178.25	1293.95
979.8426	2529.8796	2172.55	1288.35
979.9698	2531.2041	2170.7	1284.65
980.0969	2532.5279	2165.9	1282.15
980.224	2533.851	2156.15	1271.25
980.3511	2535.1735	2158.2	1273.15
980.4781	2536.4952	2157.7	1273.55
980.6052	2537.8163	2156.8	1271.95
980.7321	2539.1366	2156.5	1270.6
980.8591	2540.4562	2152.8	1268.2
980.986	2541.7752	2140.15	1253.65
981.1129	2543.0935	2134.7	1247.75
981.2397	2544.411	2135.95	1246.7
981.3665	2545.7279	2129.95	1245.15
981.4933	2547.0441	2136.45	1250.7
981.62	2548.3596	2134.4	1245.15
981.7467	2549.6744	2129.45	1243.05
981.8734	2550.9885	2132.3	1244.45
982.0001	2552.3019	2119.5	1235.15
982.1267	2553.6146	2113.75	1227.65
982.2532	2554.9266	2121.65	1233.9
982.3798	2556.2379	2102.25	1215.45
982.5063	2557.5485	2113.45	1230.1
982.6327	2558.8585	2107.65	1214.5
982.7592	2560.1677	2108.15	1219.15
982.8856	2561.4762	2103.05	1216.65
983.0119	2562.7841	2106.35	1217.55
983.1383	2564.0913	2096.2	1210.55
983.2646	2565.3977	2097.1	1212.05
983.3908	2566.7035	2085.3	1198.9
983.517	2568.0086	2088.1	1202.05
983.6432	2569.313	2084.2	1196.25
983.7694	2570.6167	2076.5	1187.95
983.8955	2571.9197	2070.4	1183.85
984.0216	2573.222	2077	1186.6
984.1476	2574.5236	2075.4	1187.4
984.2737	2575.8246	2071	1182
984.3996	2577.1248	2070.1	1179.6
984.5256	2578.4244	2059.3	1173.6
984.6515	2579.7232	2057.55	1169.8
984.7774	2581.0214	2086.45	1167.75
984.9032	2582.3189	2072.1	1187.4
985.029	2583.6157	2061.1	1172.1
985.1548	2584.9118	2056.05	1168.95
985.2806	2586.2072	2047.35	1161.3
985.4063	2587.5019	2051.7	1168.4
985.5319	2588.7959	2045.05	1159.75
985.6576	2590.0893	2053.3	1164.1
985.7832	2591.3819	2049.05	1164.45
985.9087	2592.6739	2043.45	1157.25
986.0343	2593.9652	2047.8	1159.15
986.1597	2595.2557	2040.15	1153.8
986.2852	2596.5456	2036.45	1149.2
986.4106	2597.8348	2037	1150.85
986.536	2599.1234	2028.2	1142.4
986.6614	2600.4112	2031.85	1146.2
986.7867	2601.6983	2034.9	1146.2
986.912	2602.9848	2019.75	1133.15
987.0372	2604.2705	2030.95	1139.1
987.1624	2605.5556	2019.2	1134.55
987.2876	2606.84	2013.85	1129.25
987.4128	2608.1237	2011.6	1125.25
987.5379	2609.4067	2010.35	1125.7
987.6629	2610.689	2012.45	1116.85
987.788	2611.9707	1998.05	1109.35
987.913	2613.2516	1997	1107.5
988.0379	2614.5319	1990.35	1106.1
988.1629	2615.8115	1983.6	1097.15
988.2878	2617.0903	1980.75	1094.3
988.4126	2618.3685	1985.9	1098.8
988.5375	2619.6461	1977.35	1092.75
988.6622	2620.9229	1974.95	1088.3
988.787	2622.199	1970.9	1083.05
988.9117	2623.4745	1969.25	1084
989.0364	2624.7493	1962.6	1078.6
989.161	2626.0234	1959.75	1075.9
989.2857	2627.2968	1959.5	1073.45
989.4102	2628.5695	1955.65	1070
989.5348	2629.8415	1945.6	1059.8
989.6593	2631.1128	1957.45	1070
989.7837	2632.3835	1940.75	1054.5
989.9082	2633.6535	1946.55	1061.65
990.0326	2634.9228	1934.75	1050.15
990.1569	2636.1914	1942.5	1058.45
990.2812	2637.4593	1931.85	1048.8
990.4055	2638.7265	1939.7	1053.65
990.5298	2639.9931	1930.45	1047.5
990.654	2641.259	1933.2	1047
990.7782	2642.5242	1921.75	1035.15
990.9023	2643.7887	1924.25	1039.8
991.0264	2645.0525	1919.35	1035.2
991.1505	2646.3156	1919.05	1031.95
991.2745	2647.5781	1910.55	1028.8
991.3985	2648.8398	1903.2	1020.7
991.5225	2650.1009	1906.7	1012.3
991.6464	2651.3613	1897.45	1013.55
991.7703	2652.6211	1896.4	1010.05
991.8942	2653.8801	1886.95	1001.85
992.018	2655.1385	1891.15	1003.25
992.1418	2656.3961	1884.55	1000.5
992.2655	2657.6531	1893.7	1007.45
992.3892	2658.9094	1884.3	1000.2
992.5129	2660.1651	1884.5	1001.4
992.6366	2661.42	1886.15	1000.9
992.7602	2662.6743	1880.75	995.65
992.8837	2663.9279	1885.9	1001.6
993.0073	2665.1808	1883.75	998.9
993.1307	2666.433	1879.7	993.7
993.2542	2667.6846	1885.05	1000.65
993.3776	2668.9354	1889.45	1001.6
993.501	2670.1856	1881.1	995.05
993.6244	2671.4351	1882.45	998.85
993.7477	2672.6839	1888.15	1001.35
993.8709	2673.9321	1881.65	997.05
993.9942	2675.1795	1888.9	1003.75
994.1174	2676.4263	1879.35	995.05
994.2405	2677.6724	1874	992.9
994.3637	2678.9179	1879.35	994.85
994.4868	2680.1626	1887.65	1003.6
994.6098	2681.4067	1876.75	995.05
994.7328	2682.6501	1876.95	991.5
994.8558	2683.8928	1879.15	995.6
994.9788	2685.1348	1859.9	975.75
995.1017	2686.3761	1855.1	969.5
995.2245	2687.6168	1852.1	967.75
995.3474	2688.8568	1846.75	963.85
995.4702	2690.0961	1835.1	951.95
995.5929	2691.3348	1843.2	959.6
995.7156	2692.5727	1848.2	964.3
995.8383	2693.81	1833.25	948.05
995.961	2695.0466	1832.65	950.6
996.0836	2696.2826	1824.2	938.45
996.2062	2697.5178	1826.85	937.35
996.3287	2698.7524	1828.7	945.2
996.4512	2699.9863	1831.5	946.5
996.5737	2701.2195	1821.5	938.4
996.6961	2702.452	1829.55	943.45
996.8185	2703.6839	1835.55	952.05
996.9408	2704.9151	1837.3	954.55
997.0631	2706.1456	1838.25	953.7
997.1854	2707.3755	1843.75	958.95
997.3077	2708.6046	1842.6	954.25
997.4299	2709.8331	1850.45	969.3
997.552	2711.0609	1846.85	962.95
997.6742	2712.2881	1866.15	982.55
997.7963	2713.5145	1870	984.65
997.9183	2714.7403	1868.75	985.4
998.0403	2715.9654	1885.05	1003.2
998.1623	2717.1899	1899.95	1002.05
998.2842	2718.4136	1902	1020.3
998.4062	2719.6367	1913.15	1030.4
998.528	2720.8591	1916.05	1025.6
998.6498	2722.0809	1927.25	1045
998.7716	2723.3019	1945.4	1059.05
998.8934	2724.5223	1944.55	1058.55
999.0151	2725.7421	1955.3	1067.35
999.1368	2726.9611	1939.65	1055.15
999.2584	2728.1795	1943.35	1056.15
999.38	2729.3972	1937.1	1051.6
999.5016	2730.6142	1938.45	1041.65
999.6231	2731.8306	1904.4	1019.65
999.7446	2733.0462	1893.05	1008.8
999.8661	2734.2612	1876.5	988.5
999.9875	2735.4756	1862.1	976.55
1000.1089	2736.6892	1842.9	959.2
1000.2302	2737.9022	1816.25	933.7
1000.3515	2739.1145	1798.6	915.05
1000.4728	2740.3262	1799.95	910.55
1000.594	2741.5372	1781.4	897.95
1000.7152	2742.7475	1770.35	886.75
1000.8363	2743.9571	1768.95	883.25
1000.9575	2745.1661	1758.3	871.25
1001.0785	2746.3744	1739.25	855.85
1001.1996	2747.582	1729	846.35
1001.3206	2748.7889	1721.45	837.7
1001.4415	2749.9952	1709.4	827.85
1001.5625	2751.2008	1709.4	825.1
1001.6833	2752.4057	1704.65	820.3
1001.8042	2753.61	1699.9	816.7
1001.925	2754.8136	1698.2	812.05
1002.0458	2756.0165	1684.35	801.05
1002.1665	2757.2188	1689.45	806.95
1002.2872	2758.4204	1696.7	814.5
1002.4078	2759.6213	1696.9	810.45
1002.5285	2760.8215	1691.45	803.45
1002.649	2762.0211	1690.5	804
1002.7696	2763.22	1675.35	788.25
1002.8901	2764.4182	1674.7	791.75
1003.0106	2765.6158	1670.05	787
1003.131	2766.8127	1664.15	781.2
1003.2514	2768.009	1659.15	779
1003.3717	2769.2045	1654.75	769.85
1003.492	2770.3994	1658.15	773.85
1003.6123	2771.5936	1658.2	774.85
1003.7325	2772.7872	1639.4	757.7
1003.8527	2773.9801	1641.55	758.1
1003.9729	2775.1723	1657.7	759.6
1004.093	2776.3639	1642.6	762.55
1004.2131	2777.5548	1635.5	752.5
1004.3331	2778.745	1639.95	755.5
1004.4531	2779.9346	1635.65	754.85
1004.5731	2781.1235	1644	762.85
1004.693	2782.3117	1645.85	763.95
1004.8129	2783.4992	1645.55	763.55
1004.9328	2784.6861	1644	762.8
1005.0526	2785.8723	1649.9	765.1
1005.1723	2787.0579	1653.8	769.9
1005.2921	2788.2428	1660	776
1005.4118	2789.427	1662.65	782
1005.5314	2790.6106	1669.3	789.4
1005.651	2791.7935	1682.4	800.9
1005.7706	2792.9757	1687.85	808.2
1005.8902	2794.1573	1699.9	815.85
1006.0097	2795.3382	1707.65	827.85
1006.1291	2796.5184	1707.55	826.7
1006.2485	2797.698	1727.8	845.5
1006.3679	2798.8769	1742.8	862.05
1006.4873	2800.0551	1756.75	874.25
1006.6066	2801.2327	1775.15	890
1006.7258	2802.4096	1779.55	898.5
1006.8451	2803.5859	1798.1	917
1006.9642	2804.7615	1818.6	937.1
1007.0834	2805.9364	1846.7	966.9
1007.2025	2807.1106	1876.35	993.5
1007.3216	2808.2842	1898	1015.15
1007.4406	2809.4572	1917.55	1036
1007.5596	2810.6294	1951.3	1069.65
1007.6785	2811.801	1990.2	1110.1
1007.7975	2812.972	2033.25	1151.45
1007.9163	2814.1423	2071.5	1189.65
1008.0352	2815.3119	2119.9	1239.25
1008.154	2816.4808	2161.75	1283.3
1008.2727	2817.6491	2208.7	1329.25
1008.3914	2818.8167	2254.2	1373.9
1008.5101	2819.9837	2297.65	1412.25
1008.6288	2821.15	2354.9	1474.8
1008.7474	2822.3157	2400.35	1521.6
1008.8659	2823.4807	2448.65	1567.6
1008.9844	2824.645	2491.1	1608
1009.1029	2825.8086	2527.7	1648.05
1009.2214	2826.9716	2580.6	1698
1009.3398	2828.134	2621.55	1740.3
1009.4581	2829.2957	2659.5	1777.95
1009.5764	2830.4567	2681.65	1804.35
1009.6947	2831.617	2704.3	1823.6
1009.813	2832.7767	2743.8	1864.2
1009.9312	2833.9358	2717.65	1840
1010.0493	2835.0941	2719.5	1837.1
1010.1675	2836.2519	2703.8	1823.9
1010.2855	2837.4089	2698.6	1816.05
1010.4036	2838.5653	2687.6	1807.05
1010.5216	2839.7211	2691.45	1813.65
1010.6396	2840.8761	2689.35	1805.6
1010.7575	2842.0306	2708.6	1831.3
1010.8754	2843.1843	2735.25	1855.8
1010.9932	2844.3374	2787.4	1907.45
1011.111	2845.4899	2835.5	1954.7
1011.2288	2846.6417	2913.2	2032.8
1011.3465	2847.7928	2960.2	2080.55
1011.4642	2848.9433	3039.35	2159.3
1011.5818	2850.0931	3124.15	2244.25
1011.6995	2851.2422	3176.8	2296.5
1011.817	2852.3907	3247.6	2364.6
1011.9345	2853.5385	3320.65	2439.35
1012.052	2854.6857	3384	2474.45
1012.1695	2855.8323	3414.65	2533.05
1012.2869	2856.9781	3462.75	2583.8
1012.4042	2858.1233	3504.65	2625.6
1012.5216	2859.2679	3548.15	2669.15
1012.6389	2860.4118	3602.85	2720.75
1012.7561	2861.555	3620.9	2737.85
1012.8733	2862.6976	3676.7	2795.9
1012.9905	2863.8395	3704.9	2824.95
1013.1076	2864.9808	3728.55	2849.1
1013.2247	2866.1214	3756.7	2876.7
1013.3417	2867.2614	3760.9	2880.45
1013.4587	2868.4007	3781.25	2901.6
1013.5757	2869.5393	3773.75	2894.5
1013.6926	2870.6773	3805.05	2923.85
1013.8095	2871.8146	3816.5	2933.15
1013.9263	2872.9513	3813.45	2929.3
1014.0431	2874.0874	3800.5	2919.2
1014.1599	2875.2227	3790.05	2908.8
1014.2766	2876.3574	3765.55	2886.55
1014.3933	2877.4915	3751.2	2870.55
1014.51	2878.6249	3720.7	2840.8
1014.6266	2879.7577	3708.7	2827.75
1014.7431	2880.8898	3673.8	2782.9
1014.8596	2882.0212	3665.4	2788.8
1014.9761	2883.152	3647.5	2766.15
1015.0925	2884.2821	3651.05	2771.95
1015.2089	2885.4116	3634.9	2754.6
1015.3253	2886.5405	3631.5	2752.75
1015.4416	2887.6686	3639.7	2756.25
1015.5579	2888.7962	3644.45	2766.35
1015.6741	2889.923	3642.4	2763.45
1015.7903	2891.0493	3663.45	2786.55
1015.9065	2892.1748	3670.6	2793.1
1016.0226	2893.2997	3674.95	2795.2
1016.1387	2894.424	3695.15	2818.75
1016.2547	2895.5476	3720.2	2841.55
1016.3707	2896.6706	3728.95	2851.15
1016.4866	2897.7929	3762.85	2882.05
1016.6025	2898.9145	3774.6	2896.5
1016.7184	2900.0355	3813.4	2933.25
1016.8342	2901.1559	3847.2	2968.55
1016.95	2902.2756	3871.45	2993.75
1017.0658	2903.3946	3923.5	3044.5
1017.1815	2904.513	3940.55	3059
1017.2971	2905.6308	3968.9	3091.85
1017.4127	2906.7479	3972.3	3093.1
1017.5283	2907.8643	4006.05	3126.6
1017.6439	2908.9801	4013.6	3135.3
1017.7594	2910.0953	4034.15	3157.45
1017.8748	2911.2098	4029.3	3147.6
1017.9902	2912.3236	4031.4	3144.95
1018.1056	2913.4368	4018.5	3137.65
1018.2209	2914.5494	3995.55	3116.65
1018.3362	2915.6613	3963.95	3080.65
1018.4515	2916.7725	3933.2	3053.35
1018.5667	2917.8831	3901.65	3021.95
1018.6819	2918.9931	3864.65	2985
1018.797	2920.1024	3839.25	2959.2
1018.9121	2921.211	3820.15	2943.75
1019.0271	2922.319	3801.85	2923.6
1019.1421	2923.4264	3789	2911.7
1019.2571	2924.5331	3777.15	2902.2
1019.372	2925.6391	3760.9	2883.65
1019.4869	2926.7445	3749.45	2873.75
1019.6017	2927.8493	3749.65	2869.8
1019.7165	2928.9534	3749.8	2870.9
1019.8313	2930.0569	3734.7	2854.2
1019.946	2931.1597	3741.15	2860.55
1020.0606	2932.2619	3735.5	2857.7
1020.1753	2933.3634	3705	2824.85
1020.2899	2934.4643	3714.65	2828.25
1020.4044	2935.5645	3691.7	2808.3
1020.5189	2936.6641	3675.45	2792.85
1020.6334	2937.763	3619.9	2743.95
1020.7478	2938.8613	3583.85	2706.3
1020.8622	2939.959	3537.05	2653.75
1020.9765	2941.056	3459.4	2582.05
1021.0908	2942.1523	3368.45	2488.1
1021.2051	2943.248	3295.45	2418.1
1021.3193	2944.3431	3200.75	2321.4
1021.4334	2945.4375	3097.3	2217.9
1021.5476	2946.5313	2998.9	2123
1021.6617	2947.6244	2897.5	2017.9
1021.7757	2948.7169	2798.6	1918.6
1021.8897	2949.8087	2714.15	1835.85
1022.0037	2950.8999	2630.8	1752.95
1022.1176	2951.9904	2539.8	1659.15
1022.2315	2953.0803	2463.6	1585.55
1022.3453	2954.1696	2416.05	1538.65
1022.4591	2955.2582	2359.45	1480.25
1022.5728	2956.3462	2309.5	1431.65
1022.6865	2957.4335	2267.35	1389.4
1022.8002	2958.5202	2232.2	1352.4
1022.9138	2959.6062	2214.3	1337.9
1023.0274	2960.6916	2181.5	1303.75
1023.141	2961.7764	2166	1288.4
1023.2545	2962.8605	2151.6	1274.75
1023.3679	2963.9439	2133.2	1256.7
1023.4813	2965.0267	2128.45	1249.7
1023.5947	2966.1089	2123.8	1223.6
1023.708	2967.1905	2113.55	1237.35
1023.8213	2968.2714	2103.3	1227.65
1023.9346	2969.3516	2103.2	1225.25
1024.0478	2970.4312	2114.5	1228.5
1024.1609	2971.5102	2105.6	1229.5
1024.274	2972.5885	2102.3	1224.65
1024.3871	2973.6662	2121.3	1239.8
1024.5002	2974.7432	2094	1215.6
1024.6132	2975.8196	2088	1208.5
1024.7261	2976.8954	2077.55	1202.05
1024.839	2977.9705	2069.4	1192.55
1024.9519	2979.045	2072.9	1194.9
1025.0647	2980.1188	2044.65	1169.4
1025.1775	2981.192	2028.45	1151.75
1025.2902	2982.2645	2001.5	1124.85
1025.4029	2983.3364	1980.05	1099.45
1025.5156	2984.4077	1941.05	1064.65
1025.6282	2985.4783	1924.35	1042.35
1025.7407	2986.5483	1889.65	1012.7
1025.8532	2987.6177	1862.65	986.3
1025.9657	2988.6864	1820.8	943.8
1026.0782	2989.7545	1795.1	913.6
1026.1906	2990.8219	1751.7	875.25
1026.3029	2991.8887	1726.95	846.5
1026.4152	2992.9548	1696.35	819.65
1026.5275	2994.0204	1664.85	788.3
1026.6397	2995.0852	1636.2	762
1026.7519	2996.1495	1611.25	731.65
1026.864	2997.2131	1585.25	708.8
1026.9761	2998.276	1565	687.95
1027.0882	2999.3383	1540.7	662.55
1027.2002	3000.4	1532.3	651.1
1027.3122	3001.4611	1507.85	631.25
1027.4241	3002.5215	1489.75	612.05
1027.536	3003.5812	1476.7	599.15
1027.6478	3004.6404	1455.8	578.05
1027.7596	3005.6989	1456.55	576.8
1027.8714	3006.7567	1440.1	562.75
1027.9831	3007.8139	1465.85	554.45
1028.0947	3008.8705	1425.15	548.1
1028.2064	3009.9264	1418.8	538
1028.3179	3010.9818	1416.75	539.2
1028.4295	3012.0364	1417.95	540.4
1028.541	3013.0905	1404.75	526.6
1028.6524	3014.1439	1401.35	524.45
1028.7638	3015.1966	1400.45	525.85
1028.8752	3016.2487	1408.65	531.75
1028.9865	3017.3002	1401.45	519.9
1029.0978	3018.3511	1392.4	516.85
1029.209	3019.4013	1393.3	516.95
1029.3202	3020.4509	1398.55	522.7
1029.4314	3021.4998	1390.75	513.95
1029.5425	3022.5481	1385.15	508.25
1029.6535	3023.5958	1391.15	515.85
1029.7645	3024.6428	1394.75	516.05
1029.8755	3025.6892	1387.6	512.25
1029.9864	3026.735	1384.35	509.05
1030.0973	3027.7802	1393.1	516.95
1030.2082	3028.8247	1391.9	514.15
1030.319	3029.8685	1395.15	517.8
1030.4297	3030.9118	1397.05	517.85
1030.5404	3031.9544	1397.45	520.85
1030.6511	3032.9963	1400.25	524.55
1030.7617	3034.0376	1408.35	532.55
1030.8723	3035.0783	1411.5	531.2
1030.9829	3036.1184	1416.1	538.25
1031.0934	3037.1578	1416.1	541
1031.2038	3038.1966	1417.55	538.9
1031.3142	3039.2348	1420	546.1
1031.4246	3040.2723	1421.4	536.05
1031.5349	3041.3092	1418.3	543.6
1031.6452	3042.3455	1410.7	534.95
1031.7554	3043.3811	1414.5	538
1031.8656	3044.4161	1398.5	520.6
1031.9758	3045.4505	1399.35	524.75
1032.0859	3046.4842	1397.45	521.15
1032.1959	3047.5173	1388.65	513.9
1032.3059	3048.5498	1389.95	512.25
1032.4159	3049.5816	1379.6	502
1032.5258	3050.6128	1378	500
1032.6357	3051.6434	1369.25	491.75
1032.7455	3052.6734	1366.15	487.95
1032.8553	3053.7027	1357.95	479.35
1032.9651	3054.7314	1353.55	475.75
1033.0748	3055.7594	1348.4	474.4
1033.1845	3056.7868	1340.25	463.15
1033.2941	3057.8136	1335.35	460.15
1033.4037	3058.8398	1336.25	460.5
1033.5132	3059.8653	1331.9	456.4
1033.6227	3060.8902	1324.4	448.25
1033.7321	3061.9145	1323.9	446.4
1033.8415	3062.9381	1312.7	436.2
1033.9509	3063.9612	1332.3	441.9
1034.0602	3064.9835	1307.95	432.5
1034.1694	3066.0053	1296	418.75
1034.2787	3067.0264	1294.05	419.15
1034.3878	3068.0469	1285.35	408.2
1034.497	3069.0668	1287.1	405.95
1034.6061	3070.086	1270.25	394
1034.7151	3071.1046	1268.6	394.35
1034.8241	3072.1226	1255.85	377.2
1034.9331	3073.1399	1251.45	377
1035.042	3074.1567	1247.6	370.05
1035.1508	3075.1727	1236.3	359
1035.2597	3076.1882	1226.2	350.2
1035.3684	3077.203	1216.05	340.15
1035.4772	3078.2173	1209.6	332.7
1035.5859	3079.2308	1206.7	328.8
1035.6945	3080.2438	1204.7	327.35
1035.8031	3081.2561	1187	312.1
1035.9117	3082.2678	1178.15	302.5
1036.0202	3083.2789	1179.5	303.6
1036.1286	3084.2893	1166.6	291.1
1036.2371	3085.2991	1167.6	290.75
1036.3454	3086.3083	1163.9	281.75
1036.4538	3087.3169	1157.05	278.05
1036.562	3088.3248	1150.9	274.5
1036.6703	3089.3321	1142.15	264.7
1036.7785	3090.3388	1136.75	261.1
1036.8866	3091.3449	1133.1	257.45
1036.9948	3092.3503	1133.05	256.15
1037.1028	3093.3551	1124.8	252.2
1037.2108	3094.3593	1123.5	246.7
1037.3188	3095.3629	1118.55	242.35
1037.4267	3096.3658	1113.55	238.7
1037.5346	3097.3681	1110.55	235.25
1037.6425	3098.3698	1110.3	233.85
1037.7503	3099.3708	1109.75	227.8
1037.858	3100.3713	1106.1	231.65
1037.9657	3101.3711	1098.65	224.85
1038.0734	3102.3702	1228.4	215.25
1038.181	3103.3688	1100.75	223.4
1038.2886	3104.3667	1091.35	215.15
1038.3961	3105.364	1089	212.85
1038.5036	3106.3607	1091.3	213.45
1038.611	3107.3568	1086.85	210.25
1038.7184	3108.3522	1086.1	211.3
1038.8257	3109.347	1083.15	207.45
1038.933	3110.3412	1088.4	209.9
1039.0403	3111.3348	1078.6	204.6
1039.1475	3112.3277	1073.65	198.9
1039.2547	3113.32	1074.55	199.75
1039.3618	3114.3117	1074.75	198.55
1039.4689	3115.3028	1070.15	194.75
1039.5759	3116.2932	1071.85	195
1039.6829	3117.2831	1080.25	197.55
1039.7898	3118.2723	1064.15	188.45
1039.8967	3119.2608	1065.4	189.5
1040.0035	3120.2488	1070.15	191.65
1040.1103	3121.2361	1062	186.35
1040.2171	3122.2229	1062.7	188.5
1040.3238	3123.209	1060.25	183.5
1040.4305	3124.1944	1053.5	180.15
1040.5371	3125.1793	1060.15	180.85
1040.6437	3126.1635	1060.2	185.25
1040.7502	3127.1471	1054.35	179.1
1040.8567	3128.1301	1051.3	176.5
1040.9631	3129.1125	1049.35	175.25
1041.0695	3130.0942	1052.35	175.35
1041.1759	3131.0753	1055.05	171.15
1041.2822	3132.0558	1049.1	170.55
1041.3884	3133.0357	1045.3	169
1041.4946	3134.015	1045.4	169.7
1041.6008	3134.9936	1045.1	166.7
1041.7069	3135.9716	1064.95	167.85
1041.813	3136.949	1042	166.4
1041.919	3137.9258	1058.6	166.05
1042.025	3138.902	1045.3	163.6
1042.1309	3139.8775	1039.6	164.8
1042.2368	3140.8524	1034.75	158.85
1042.3427	3141.8267	1036.9	159.5
1042.4485	3142.8004	1032.7	158.4
1042.5542	3143.7735	1034.7	152.7
1042.6599	3144.7459	1035.1	158.3
1042.7656	3145.7178	1030.8	155
1042.8712	3146.689	1028.7	153.2
1042.9768	3147.6596	1028.9	152
1043.0823	3148.6295	1030.75	154.6
1043.1878	3149.5989	1025.25	151.15
1043.2932	3150.5676	1026.25	152.65
1043.3986	3151.5357	1018.25	142.8
1043.5039	3152.5032	1020.4	144.95
1043.6092	3153.4701	1020.8	145.85
1043.7145	3154.4364	1020.65	144.15
1043.8197	3155.402	1018.55	144.3
1043.9248	3156.367	1018.55	142.25
1044.03	3157.3315	1049.05	142.85
1044.135	3158.2952	1012.35	137.35
1044.24	3159.2584	1016.4	142.65
1044.345	3160.221	1015.35	138.75
1044.4499	3161.1829	1010.5	135.25
1044.5548	3162.1442	1010.4	134.05
1044.6596	3163.105	1011.85	135.3
1044.7644	3164.065	1008.75	134.7
1044.8692	3165.0245	1011.95	135.9
1044.9739	3165.9834	1007.45	135.55
1045.0785	3166.9416	1006.9	130.2
1045.1831	3167.8993	1007.85	131.8
1045.2877	3168.8563	1006.25	133.4
1045.3922	3169.8127	1001.25	126.65
1045.4966	3170.7684	1001.05	126.4
1045.6011	3171.7236	1003.85	126.85
1045.7054	3172.6782	1004.9	130.5
1045.8098	3173.6321	1003.5	128.65
1045.914	3174.5854	1003.15	124.55
1046.0183	3175.5381	998.7	123.95
1046.1224	3176.4902	1000.6	127.55
1046.2266	3177.4417	997.35	122.05
1046.3307	3178.3926	994.75	119.5
1046.4347	3179.3428	995.85	123.7
1046.5387	3180.2924	996	121.45
1046.6427	3181.2415	997.9	123.6
1046.7466	3182.1899	994.2	117.95
1046.8504	3183.1377	992.35	117.85
1046.9542	3184.0848	999.7	124.3
1047.058	3185.0314	989.3	113.7
1047.1617	3185.9773	990.05	115.05
1047.2654	3186.9227	989.85	115.7
1047.369	3187.8674	989.9	114.85
1047.4726	3188.8115	994.6	115.65
1047.5761	3189.755	987.25	113.6
1047.6796	3190.6979	985.1	111.2
1047.783	3191.6402	987	113.2
1047.8864	3192.5818	985.8	111.8
1047.9898	3193.5229	1001.6	108.75
1048.0931	3194.4633	985.95	112.95
1048.1963	3195.4031	983.35	107.7
1048.2995	3196.3423	981.2	105.8
1048.4027	3197.2809	985.25	109.05
1048.5058	3198.2189	983.15	108.65
1048.6089	3199.1563	987.15	105.05
1048.7119	3200.0931	980.8	106.1
1048.8148	3201.0292	978.5	106
1048.9178	3201.9648	979.9	104.95
1049.0206	3202.8997	981.15	103.45
1049.1235	3203.834	974.8	101.8
1049.2262	3204.7677	976.25	103.6
1049.329	3205.7008	977.95	102.3
1049.4317	3206.6333	976.25	103.2
1049.5343	3207.5652	978.8	102.35
1049.6369	3208.4964	976.65	103.35
1049.7394	3209.4271	974	100.3
1049.8419	3210.3571	972.75	100.45
1049.9444	3211.2865	977.95	102.1
1050.0468	3212.2154	974.5	99.35
1050.1491	3213.1436	974.7	98.6
1050.2514	3214.0712	980.5	100.4
1050.3537	3214.9982	972.5	98.1
1050.4559	3215.9246	970	95.85
1050.5581	3216.8503	968.45	95.15
1050.6602	3217.7755	971.4	95.85
1050.7623	3218.7001	974.15	101.3
1050.8643	3219.624	968.7	93.9
1050.9663	3220.5473	966.1	91.75
1051.0682	3221.4701	968	92.9
1051.1701	3222.3922	970.05	94
1051.2719	3223.3137	965.85	92.6
1051.3737	3224.2346	968.1	93.25
1051.4754	3225.1549	968.4	96.05
1051.5771	3226.0746	966.5	93.95
1051.6788	3226.9937	966.7	91
1051.7804	3227.9121	963.25	91.55
1051.8819	3228.83	963.7	92.85
1051.9834	3229.7473	960.5	83
1052.0849	3230.6639	964.5	89.8
1052.1863	3231.5799	962.8	89.45
1052.2876	3232.4954	962.95	88.3
1052.3889	3233.4102	963.7	88.45
1052.4902	3234.3244	960.05	87.45
1052.5914	3235.238	961.1	86.35
1052.6926	3236.151	983.85	85.8
1052.7937	3237.0634	959.85	88.05
1052.8948	3237.9752	960.65	86
1052.9958	3238.8864	955.85	82.2
1053.0968	3239.797	956.35	81.7
1053.1977	3240.7069	956.45	82.65
1053.2986	3241.6163	958.1	80.5
1053.3994	3242.5251	957.75	86.7
1053.5002	3243.4332	954.6	82.2
1053.6009	3244.3408	954.5	80.6
1053.7016	3245.2477	954.75	80.5
1053.8022	3246.154	954.65	80.55
1053.9028	3247.0598	954.3	79.7
1054.0034	3247.9649	953.45	79.45
1054.1039	3248.8694	954.35	82.95
1054.2043	3249.7733	948.4	75.45
1054.3047	3250.6766	949.1	76.35
1054.4051	3251.5793	951.9	77.45
1054.5054	3252.4814	949.15	76.6
1054.6056	3253.3829	946.35	72.5
1054.7058	3254.2838	949.1	76.55
1054.806	3255.1841	946.8	73.4
1054.9061	3256.0838	947.55	72.55
1055.0061	3256.9829	946	74.2
1055.1062	3257.8814	945.6	70.8
1055.2061	3258.7792	948	73.4
1055.306	3259.6765	944.5	69.35
1055.4059	3260.5731	944.05	69.45
1055.5057	3261.4692	939.7	64.95
1055.6055	3262.3647	941.2	67.35
1055.7052	3263.2595	938.6	66.35
1055.8049	3264.1538	937.65	65.5
1055.9045	3265.0474	937.15	63.5
1056.0041	3265.9404	937.65	65.15
1056.1036	3266.8329	936.6	64.55
1056.2031	3267.7247	945.4	61.2
1056.3025	3268.616	931.8	59.2
1056.4019	3269.5066	931.35	58.2
1056.5013	3270.3966	931.35	57.05
1056.6005	3271.286	923.85	53.55
