Software Version:	3.9.2.0
Unit SN:	10000200
Spectrometer SN:	6960
Date:	3/8/2024 11:18:11 AM
Data Line Index:	25
Spectral Points:	2048
Integration time (ms):	125
Averages:	20
Delay (ms):	30000
Sequence Number:	1
Processing:	dark subtract
Laser Power (mW):	305
Laser Current (mA):	823
Laser Diode Temp (C):	25
Laser Case Temp (C):	24.8
System Temp (C):	24.7
Spectrometer Temp (C):	22.6
CCD Temp (C):	-0.002
Secondary Temp (C):	20.008
Heatsink Temp (C):	19.482
CCDPCB Temp (C):	33.306
SecondaryPCB Temp (C):	26.469

Wavelength	RamanShift	Raw Counts	Dark Subtracted
787.061	30.1047	418.9	8.55
787.2016	32.3739	418.65	9.5
787.3422	34.6426	419	10.4
787.4828	36.9109	421.3	10.2
787.6235	39.1787	427.2	12.65
787.7642	41.4461	430.2	10.3
787.9049	43.7131	434.8	13.6
788.0456	45.9796	438.15	13.6
788.1863	48.2456	443.85	15.7
788.3271	50.5112	446.2	12.95
788.4679	52.7764	454.3	17.55
788.6087	55.0411	459.35	19.05
788.7496	57.3054	464.25	18.35
788.8904	59.5692	467.65	20.5
789.0313	61.8326	473	23.6
789.1722	64.0955	475.5	25.25
789.3132	66.3579	483.15	26.05
789.4541	68.6199	492.8	32.1
789.5951	70.8815	503.85	37.9
789.7361	73.1426	530.1	60.75
789.8771	75.4032	572.6	100.05
790.0181	77.6634	684.2	208.9
790.1592	79.9231	943.95	465.05
790.3003	82.1824	1482.05	995.6
790.4414	84.4412	2345.75	1848.35
790.5825	86.6995	3467.05	2955.25
790.7237	88.9574	4554.55	4036.35
790.8648	91.2148	5258.35	4731.8
791.006	93.4717	5593.05	5061.1
791.1472	95.7282	5658.85	5124.55
791.2885	97.9842	5641.4	5102.95
791.4297	100.2398	5550.9	5012.8
791.571	102.4949	5492.65	4948.6
791.7123	104.7495	5439.6	4894.25
791.8536	107.0036	5360.75	4812.6
791.9949	109.2573	5259.4	4712.95
792.1363	111.5105	5155.95	4606.4
792.2777	113.7632	5021.3	4470.35
792.4191	116.0154	4875.3	4313.65
792.5605	118.2672	4708.75	4152.7
792.7019	120.5185	4550.55	3989.55
792.8434	122.7693	4387.75	3824.3
792.9849	125.0197	4249.35	3683
793.1264	127.2696	4130.4	3558.9
793.2679	129.519	4043.55	3472.05
793.4094	131.7679	3998.45	3422.45
793.551	134.0163	3966.4	3390.1
793.6926	136.2642	3956.65	3373.25
793.8342	138.5117	3946.4	3362.45
793.9758	140.7587	3914.4	3332.5
794.1175	143.0052	3866.35	3278.4
794.2591	145.2512	3772.4	3183.6
794.4008	147.4967	3689.15	3099.2
794.5425	149.7417	3613.25	3022.3
794.6842	151.9863	3566.5	2966.7
794.826	154.2304	3547.4	2946.95
794.9677	156.4739	3525.25	2920.55
795.1095	158.717	3553.9	2950.2
795.2513	160.9596	3586.8	2975.9
795.3931	163.2017	3623.3	3009.1
795.535	165.4433	3646.2	3032.2
795.6768	167.6844	3663.5	3047.85
795.8187	169.925	3610.15	2988
795.9606	172.1651	3540.75	2916
796.1025	174.4047	3471.6	2847.1
796.2445	176.6439	3402.8	2771.75
796.3864	178.8825	3359.15	2728.3
796.5284	181.1206	3317.4	2681.9
796.6704	183.3582	3293.85	2655.55
796.8124	185.5954	3281.95	2642.3
796.9544	187.832	3299.25	2654
797.0965	190.0681	3297.65	2647.9
797.2386	192.3037	3315.9	2664.25
797.3806	194.5388	3312.9	2658.95
797.5228	196.7734	3328.1	2673.1
797.6649	199.0075	3343.95	2688
797.807	201.2411	3382.95	2725.6
797.9492	203.4742	3412.25	2752.75
798.0914	205.7068	3452.25	2788.45
798.2336	207.9389	3478.35	2816.6
798.3758	210.1704	3509.4	2851.6
798.518	212.4015	3503.25	2855.45
798.6603	214.632	3515.95	2872.3
798.8025	216.862	3513.05	2873
798.9448	219.0915	3528.95	2886.6
799.0871	221.3205	3560.95	2915.85
799.2294	223.549	3560.45	2918.15
799.3718	225.777	3563.9	2916.25
799.5141	228.0044	3574.45	2920.35
799.6565	230.2314	3565.15	2911.35
799.7989	232.4578	3540.1	2883.2
799.9413	234.6837	3526.9	2861.35
800.0837	236.909	3494.35	2827
800.2262	239.1339	3495.4	2802.35
800.3687	241.3582	3466.3	2787.15
800.5111	243.582	3489.8	2783.05
800.6536	245.8053	3491.95	2796.4
800.7961	248.0281	3501.4	2812.4
800.9387	250.2503	3506.95	2816.8
801.0812	252.472	3516.9	2824.55
801.2238	254.6932	3531.4	2837.3
801.3664	256.9139	3544.4	2847.85
801.509	259.134	3546.3	2847.5
801.6516	261.3536	3573.8	2873.3
801.7942	263.5727	3639.25	2941.25
801.9369	265.7912	3710.85	3013.6
802.0795	268.0092	3815.9	3115.6
802.2222	270.2267	3905.1	3203.65
802.3649	272.4436	3987.75	3284.55
802.5076	274.6601	4052.45	3339.15
802.6504	276.8759	4077.9	3367.3
802.7931	279.0913	4112.3	3399.3
802.9359	281.3061	4155.35	3444.35
803.0787	283.5204	4179.7	3465.45
803.2215	285.7341	4226.9	3509.45
803.3643	287.9473	4259.65	3543.25
803.5071	290.16	4266.85	3546.4
803.6499	292.3721	4197.5	3483.4
803.7928	294.5837	4118.85	3402.8
803.9357	296.7947	4053.45	3337.8
804.0786	299.0052	4032.8	3315.55
804.2215	301.2152	4017.7	3299.35
804.3644	303.4246	3987.15	3269.65
804.5074	305.6334	3977.85	3263.35
804.6503	307.8418	3952.9	3229.85
804.7933	310.0495	3922.25	3198.2
804.9363	312.2568	3865.85	3144.1
805.0793	314.4635	3790.95	3066.1
805.2223	316.6696	3721.75	2993.9
805.3653	318.8752	3645.75	2906.05
805.5084	321.0802	3601.2	2870
805.6514	323.2847	3587.8	2858.05
805.7945	325.4887	3568.9	2836.45
805.9376	327.692	3598.15	2866.1
806.0807	329.8949	3668.25	2935.75
806.2238	332.0972	3744.95	3009.7
806.367	334.2989	3812.35	3073.45
806.5101	336.5001	3815.35	3075.2
806.6533	338.7007	3778.35	3038.05
806.7965	340.9008	3701.3	2959.25
806.9397	343.1003	3609.1	2866.85
807.0829	345.2992	3514.05	2767.85
807.2261	347.4976	3440.15	2695.1
807.3693	349.6955	3381.05	2632.15
807.5126	351.8927	3358.3	2608.7
807.6559	354.0895	3326.25	2566.05
807.7991	356.2856	3299.55	2544.9
807.9424	358.4812	3290.7	2537.3
808.0857	360.6763	3285.45	2529.75
808.2291	362.8707	3262.9	2505.65
808.3724	365.0646	3279.85	2520.2
808.5158	367.258	3291.6	2530.15
808.6591	369.4508	3308.9	2542.1
808.8025	371.643	3357.15	2591.95
808.9459	373.8346	3402.65	2636.5
809.0893	376.0257	3458.7	2690.15
809.2327	378.2162	3517.3	2749.15
809.3762	380.4062	3543.8	2776.05
809.5196	382.5956	3491.25	2724.2
809.6631	384.7844	3456.05	2694.35
809.8066	386.9726	3369.3	2606.25
809.9501	389.1603	3291.8	2531.75
810.0936	391.3474	3310.15	2508.2
810.2371	393.5339	3265.15	2501.8
810.3806	395.7199	3287.25	2528.9
810.5241	397.9052	3326.9	2565.3
810.6677	400.09	3395.65	2632.95
810.8113	402.2743	3470.15	2708.9
810.9548	404.4579	3531.95	2766.3
811.0984	406.641	3592.9	2825.85
811.2421	408.8235	3673	2904.2
811.3857	411.0054	3724.7	2953.8
811.5293	413.1868	3799.85	3023.3
811.673	415.3675	3830.3	3050.2
811.8166	417.5477	3835.25	3053.6
811.9603	419.7273	3779.05	2996
812.104	421.9064	3689.55	2902.2
812.2477	424.0848	3597.65	2816.5
812.3914	426.2627	3503.55	2722.35
812.5351	428.4399	3399.7	2614.75
812.6788	430.6166	3299.65	2512.65
812.8226	432.7928	3231.35	2441.55
812.9663	434.9683	3164.55	2375.45
813.1101	437.1432	3118.65	2327.9
813.2539	439.3176	3093.35	2302.95
813.3977	441.4914	3073.95	2288.75
813.5415	443.6645	3076.95	2289.3
813.6853	445.8371	3062.35	2273.75
813.8291	448.0091	3060.85	2268.9
813.973	450.1806	3050.9	2259.55
814.1168	452.3514	3048.65	2254.6
814.2607	454.5216	3045.45	2242.05
814.4046	456.6913	3044.35	2248.8
814.5485	458.8603	3056.85	2264.3
814.6924	461.0288	3055.1	2261.5
814.8363	463.1967	3056.8	2261.5
814.9802	465.3639	3049.1	2255.45
815.1241	467.5306	3033.85	2237.6
815.2681	469.6967	3022.55	2225.75
815.412	471.8622	3014.95	2220.75
815.556	474.0271	3017.4	2221.8
815.7	476.1914	3019.4	2219.05
815.844	478.3551	3010.3	2211.25
815.988	480.5182	2997.4	2198.6
816.132	482.6807	3004.85	2205.75
816.276	484.8426	3029	2232.85
816.4201	487.0039	3094.4	2296.75
816.5641	489.1647	3182	2379.45
816.7082	491.3248	3270.15	2470.05
816.8522	493.4843	3301.6	2500.05
816.9963	495.6432	3280.25	2479.8
817.1404	497.8015	3237.25	2429.9
817.2845	499.9592	3162.85	2355.85
817.4286	502.1163	3066.55	2259.2
817.5727	504.2728	3003.5	2194.75
817.7168	506.4287	2951.1	2147.35
817.861	508.5839	2915.7	2110.95
818.0051	510.7386	2922.15	2114.95
818.1493	512.8927	2923.85	2110.15
818.2935	515.0461	2926.05	2117.3
818.4377	517.199	2964.55	2153.85
818.5818	519.3512	3023.65	2213.55
818.726	521.5029	3139.95	2321.85
818.8703	523.6539	3248.85	2437.05
819.0145	525.8043	3262.9	2450.55
819.1587	527.9541	3194.55	2377.75
819.303	530.1033	3063.45	2250.05
819.4472	532.2519	2976.3	2160.45
819.5915	534.3999	2930.1	2109.85
819.7357	536.5472	2919.4	2101
819.88	538.694	2920.65	2102.95
820.0243	540.8401	2926.25	2109.25
820.1686	542.9856	2974	2155.2
820.3129	545.1305	2996.05	2175.8
820.4572	547.2748	3010.55	2190.55
820.6016	549.4185	3028.3	2208.1
820.7459	551.5615	3031.1	2213.35
820.8902	553.704	3063.9	2244.3
821.0346	555.8458	3076.9	2257.55
821.1789	557.987	3133.85	2318.3
821.3233	560.1276	3177.35	2357.65
821.4677	562.2675	3264.15	2444.9
821.6121	564.4069	3412.15	2591.7
821.7565	566.5456	3479.7	2662
821.9009	568.6837	3444.3	2622.65
822.0453	570.8212	3306.65	2487.85
822.1897	572.958	3141.1	2319.5
822.3342	575.0942	3031.55	2208.85
822.4786	577.2299	2976.45	2152.55
822.6231	579.3648	2933.95	2112.6
822.7675	581.4992	2910.6	2091.2
822.912	583.6329	2924.55	2103.05
823.0565	585.766	2975.45	2152.6
823.201	587.8985	3047	2221.9
823.3454	590.0304	3150.75	2315
823.4899	592.1616	3201.95	2371.4
823.6345	594.2922	3222.95	2394.75
823.779	596.4222	3153.65	2324.55
823.9235	598.5515	3057	2226.45
824.068	600.6802	2964.8	2134.25
824.2126	602.8083	2884.9	2055.5
824.3571	604.9358	2866.35	2035.5
824.5017	607.0626	2841.25	2010.45
824.6462	609.1888	2862.95	2030.6
824.7908	611.3144	2896.3	2065.3
824.9354	613.4393	2959.15	2126.4
825.08	615.5636	3064.8	2230.8
825.2246	617.6873	3121.15	2288.05
825.3692	619.8103	3194.6	2359.6
825.5138	621.9327	3198.2	2361.95
825.6584	624.0544	3139.35	2307
825.803	626.1756	3038	2206.55
825.9477	628.2961	2941.1	2106.75
826.0923	630.4159	2886.45	2048.9
826.237	632.5351	2887.6	2052.2
826.3816	634.6537	2874.5	2037.8
826.5263	636.7716	2860.8	2020.1
826.6709	638.8889	2840.8	2001.3
826.8156	641.0056	2858.25	2017.8
826.9603	643.1216	2879.5	2038.25
827.105	645.237	2899.7	2059.35
827.2497	647.3518	2864.5	2025.7
827.3944	649.4659	2820.85	1986.85
827.5391	651.5793	2767.3	1929.55
827.6838	653.6922	2765	1928.6
827.8285	655.8043	2734.9	1898.65
827.9733	657.9159	2713.25	1872.55
828.118	660.0268	2692.55	1850.35
828.2627	662.137	2697.2	1856.05
828.4075	664.2466	2695.6	1852.2
828.5522	666.3556	2691.25	1847.55
828.697	668.4639	2673.8	1827.6
828.8418	670.5716	2666.2	1825.8
828.9865	672.6786	2668.2	1825.3
829.1313	674.785	2657.5	1811.9
829.2761	676.8907	2634.3	1790.55
829.4209	678.9958	2630.65	1787.6
829.5657	681.1002	2638.75	1792.1
829.7105	683.204	2639.75	1787.85
829.8553	685.3072	2640.45	1792.25
830.0001	687.4097	2638.65	1791.7
830.1449	689.5115	2633.15	1782.8
830.2898	691.6127	2623.9	1779.3
830.4346	693.7132	2620.4	1773.75
830.5794	695.8131	2632.15	1779.15
830.7243	697.9123	2639.4	1789.5
830.8691	700.0109	2643.3	1793.5
831.014	702.1089	2646.3	1797.65
831.1588	704.2061	2672.7	1824.6
831.3037	706.3028	2712.6	1862.45
831.4486	708.3987	2753.4	1901.85
831.5935	710.4941	2788.15	1938.3
831.7383	712.5887	2777.55	1926.3
831.8832	714.6827	2780.15	1925.85
832.0281	716.7761	2766.05	1916.05
832.173	718.8688	2749.45	1896.55
832.3179	720.9608	2761	1903.65
832.4628	723.0522	2785.45	1929
832.6077	725.1429	2790.65	1939.95
832.7527	727.233	2856.85	2003.45
832.8976	729.3224	2961.2	2108.05
833.0425	731.4112	3067.45	2212.55
833.1874	733.4993	3093.55	2238.2
833.3324	735.5867	3013.25	2158.85
833.4773	737.6735	2887.4	2030.6
833.6222	739.7596	2785.8	1931.4
833.7672	741.845	2720.9	1865.9
833.9122	743.9298	2700.4	1843.75
834.0571	746.014	2686.4	1831.3
834.2021	748.0974	2701.05	1844
834.347	750.1802	2704.25	1848.4
834.492	752.2624	2710.1	1853.7
834.637	754.3439	2687.95	1827.8
834.782	756.4247	2700.35	1834
834.9269	758.5048	2701.4	1845.4
835.0719	760.5843	2725.2	1866.8
835.2169	762.6631	2759.45	1899.75
835.3619	764.7413	2866.3	2007.55
835.5069	766.8188	3019.85	2161.9
835.6519	768.8956	3156	2294.3
835.7969	770.9718	3266.8	2410.45
835.9419	773.0473	3242.5	2383.75
836.0869	775.1221	3165.15	2307.55
836.232	777.1962	3145.7	2286.3
836.377	779.2697	3260.4	2399.8
836.522	781.3426	3448.45	2571.75
836.667	783.4147	3574.55	2714.2
836.8121	785.4862	3578.35	2718.1
836.9571	787.557	3427	2565.8
837.1021	789.6271	3212.7	2349.7
837.2472	791.6966	2982.35	2121.7
837.3922	793.7654	2804.25	1943.25
837.5373	795.8335	2713.2	1852.95
837.6823	797.901	2647.2	1785.85
837.8274	799.9678	2640.1	1778.15
837.9724	802.0339	2619.45	1757.4
838.1175	804.0993	2643.7	1770.8
838.2626	806.1641	2631.95	1766.4
838.4076	808.2282	2602.75	1739.4
838.5527	810.2916	2573.25	1707
838.6978	812.3544	2547.6	1687.9
838.8428	814.4164	2527.9	1666.85
838.9879	816.4778	2540.7	1677.25
839.133	818.5385	2564.45	1699.15
839.2781	820.5986	2618.75	1754.35
839.4232	822.658	2701	1834.65
839.5682	824.7166	2813.25	1950.2
839.7133	826.7747	2963.85	2098.55
839.8584	828.832	3088.8	2223.2
840.0035	830.8886	3196.3	2327.4
840.1486	832.9446	3234.25	2369.05
840.2937	834.9999	3194.9	2329.5
840.4388	837.0545	3090.5	2221.45
840.5839	839.1085	2932.05	2065.15
840.729	841.1618	2805.35	1933.15
840.8741	843.2143	2704.7	1836.2
841.0192	845.2662	2641.2	1776.7
841.1643	847.3175	2611.8	1746.95
841.3095	849.368	2595.35	1728.7
841.4546	851.4179	2584.85	1716.5
841.5997	853.467	2570.9	1704.75
841.7448	855.5155	2593.95	1723.8
841.8899	857.5633	2608.25	1740.2
842.0351	859.6105	2600.75	1732.45
842.1802	861.6569	2565.6	1697.65
842.3253	863.7027	2543.8	1673.85
842.4704	865.7478	2530.4	1662.15
842.6156	867.7922	2494.9	1622.95
842.7607	869.8359	2494.65	1623.65
842.9058	871.8789	2473.45	1603.1
843.0509	873.9212	2511.2	1609.4
843.1961	875.9629	2483.5	1614.7
843.3412	878.0039	2511.05	1639.85
843.4863	880.0441	2538.5	1668.95
843.6315	882.0837	2572.2	1702.45
843.7766	884.1226	2610.4	1737.7
843.9218	886.1609	2662.05	1790.7
844.0669	888.1984	2741.2	1868.7
844.212	890.2352	2831.95	1960.85
844.3572	892.2714	2855.5	1978.35
844.5023	894.3069	2818.05	1943.8
844.6475	896.3416	2725.2	1852.75
844.7926	898.3757	2650.4	1777.35
844.9377	900.4091	2603.25	1729.95
845.0829	902.4418	2622.55	1744.7
845.228	904.4739	2641.2	1764.05
845.3732	906.5052	2670.15	1796.85
845.5183	908.5358	2683.5	1814.2
845.6635	910.5658	2651.45	1776.8
845.8086	912.595	2584.65	1711.45
845.9538	914.6236	2517.05	1644.45
846.0989	916.6515	2476.45	1603.15
846.2441	918.6786	2439.35	1565.05
846.3892	920.7051	2432.75	1558.55
846.5344	922.7309	2435.45	1561.3
846.6795	924.756	2423.8	1549.45
846.8246	926.7804	2432.6	1555.8
846.9698	928.8041	2445.1	1569.35
847.1149	930.8272	2490.2	1615.15
847.2601	932.8495	2491.65	1616.3
847.4052	934.8711	2512.05	1636.3
847.5504	936.892	2519.7	1644.15
847.6955	938.9123	2550.1	1673.95
847.8407	940.9318	2606.35	1732.05
847.9858	942.9506	2635.25	1758.8
848.131	944.9688	2625.5	1750
848.2761	946.9862	2573.4	1697.5
848.4213	949.003	2526.15	1650
848.5664	951.019	2476.9	1600.25
848.7115	953.0344	2451.95	1575.5
848.8567	955.0491	2428.8	1551.2
849.0018	957.063	2415.9	1539.1
849.147	959.0763	2401.8	1524.5
849.2921	961.0888	2405.15	1526.75
849.4373	963.1007	2402.05	1525.15
849.5824	965.1119	2379.6	1505.6
849.7275	967.1223	2376.15	1504.35
849.8727	969.1321	2354.7	1480.5
850.0178	971.1412	2358.85	1486.15
850.1629	973.1495	2341	1466.45
850.3081	975.1572	2380.35	1472.05
850.4532	977.1641	2359.3	1483
850.5983	979.1704	2354.85	1476.75
850.7435	981.1759	2352.3	1472.5
850.8886	983.1808	2347.15	1467.05
851.0337	985.1849	2337.8	1447.35
851.1788	987.1884	2321.6	1441.9
851.324	989.1911	2329.3	1447.35
851.4691	991.1932	2343.4	1463.05
851.6142	993.1945	2350.1	1471.15
851.7593	995.1951	2347.95	1469.05
851.9045	997.1951	2358.7	1475.15
852.0496	999.1943	2340.25	1461.85
852.1947	1001.1928	2335.15	1455.05
852.3398	1003.1906	2345.35	1466.8
852.4849	1005.1877	2401.9	1522.65
852.63	1007.1841	2439.35	1560.55
852.7751	1009.1798	2467.55	1590.05
852.9202	1011.1748	2460.7	1583.55
853.0653	1013.1691	2415.65	1536.9
853.2104	1015.1627	2354.45	1472.2
853.3555	1017.1556	2310.65	1433.7
853.5006	1019.1477	2273.75	1394.6
853.6457	1021.1392	2245.15	1366.85
853.7908	1023.1299	2229.45	1352.15
853.9359	1025.12	2232.1	1354.15
854.081	1027.1093	2235.55	1364.25
854.2261	1029.0979	2276.45	1402.9
854.3712	1031.0859	2314.3	1442.4
854.5163	1033.0731	2332.75	1453.6
854.6613	1035.0596	2334.8	1456.7
854.8064	1037.0454	2320.95	1443.15
854.9515	1039.0304	2297.4	1416.05
855.0965	1041.0148	2263.05	1382.4
855.2416	1042.9985	2233.05	1351.15
855.3867	1044.9814	2213.8	1336
855.5317	1046.9636	2203.5	1322.05
855.6768	1048.9452	2210.65	1328.15
855.8219	1050.926	2240.95	1362.6
855.9669	1052.9061	2283.6	1402.65
856.112	1054.8855	2283.15	1401.75
856.257	1056.8642	2289.5	1410
856.4021	1058.8421	2290.05	1407.15
856.5471	1060.8194	2271.45	1389.75
856.6921	1062.7959	2273.25	1393.5
856.8372	1064.7717	2268.35	1387.15
856.9822	1066.7469	2270.75	1387.3
857.1272	1068.7213	2272.45	1389.5
857.2723	1070.695	2292.15	1412.6
857.4173	1072.6679	2322.95	1440.45
857.5623	1074.6402	2381.55	1500.2
857.7073	1076.6117	2404.9	1519.55
857.8523	1078.5826	2368.95	1485.9
857.9973	1080.5527	2304.7	1421.85
858.1423	1082.5221	2246.85	1365.35
858.2873	1084.4908	2200.15	1317.5
858.4323	1086.4587	2160.4	1275.4
858.5773	1088.426	2155.4	1271.35
858.7223	1090.3925	2146.55	1258.85
858.8673	1092.3584	2154.95	1275.6
859.0123	1094.3235	2171.85	1290.1
859.1573	1096.2879	2188.7	1308.9
859.3022	1098.2515	2244.35	1361.7
859.4472	1100.2145	2280.35	1399.3
859.5922	1102.1767	2348.3	1463.8
859.7371	1104.1382	2405.55	1522.2
859.8821	1106.099	2502.5	1616.2
860.027	1108.0591	2583	1700.4
860.172	1110.0185	2654.8	1771.65
860.3169	1111.9771	2722.3	1839.7
860.4619	1113.9351	2803.25	1919.2
860.6068	1115.8923	2909.65	2026.35
860.7517	1117.8488	2985.7	2100.55
860.8967	1119.8045	2931.4	2048.85
861.0416	1121.7596	2758.6	1875.25
861.1865	1123.7139	2574.95	1692.25
861.3314	1125.6675	2451.7	1569.45
861.4763	1127.6204	2449.2	1566.15
861.6212	1129.5726	2479.55	1594.25
861.7661	1131.524	2493.65	1611.95
861.911	1133.4748	2432.95	1551.3
862.0559	1135.4248	2337.5	1453.7
862.2008	1137.3741	2232.75	1350.4
862.3457	1139.3226	2191.35	1306.5
862.4905	1141.2705	2176.5	1292
862.6354	1143.2176	2189.6	1299.4
862.7803	1145.164	2223.1	1338.2
862.9251	1147.1097	2225.6	1342.2
863.07	1149.0546	2193.25	1309.25
863.2148	1150.9989	2153.1	1265.85
863.3597	1152.9424	2111.6	1227.65
863.5045	1154.8852	2079.15	1194.75
863.6493	1156.8272	2075.85	1193.6
863.7942	1158.7686	2078.05	1185.5
863.939	1160.7092	2077.05	1190.4
864.0838	1162.6491	2069.4	1185.7
864.2286	1164.5883	2095.05	1211.8
864.3734	1166.5267	2117.5	1233.75
864.5182	1168.4644	2159.75	1272.45
864.663	1170.4014	2215.05	1329.75
864.8078	1172.3377	2268.5	1383.6
864.9526	1174.2732	2355.1	1470.6
865.0974	1176.2081	2503.35	1620.6
865.2421	1178.1421	2694.85	1804.55
865.3869	1180.0755	2927.35	2045.85
865.5317	1182.0082	3055.15	2170.35
865.6764	1183.9401	3063.15	2176.8
865.8212	1185.8713	2905.75	2022.95
865.9659	1187.8017	2698.65	1815.85
866.1106	1189.7315	2486.85	1606.3
866.2554	1191.6605	2348.8	1439.8
866.4001	1193.5888	2254	1370.75
866.5448	1195.5163	2200.4	1317.65
866.6895	1197.4432	2157.05	1270.3
866.8342	1199.3693	2131.45	1247.1
866.9789	1201.2947	2120.55	1228.4
867.1236	1203.2193	2095.2	1211.1
867.2683	1205.1432	2084.85	1199.65
867.413	1207.0664	2074.1	1189.1
867.5576	1208.9889	2082.95	1194.7
867.7023	1210.9106	2077.75	1192
867.847	1212.8316	2090.9	1206
867.9916	1214.7519	2110.6	1215.95
868.1363	1216.6715	2117.6	1231.65
868.2809	1218.5903	2153	1268.05
868.4255	1220.5084	2177.4	1290.8
868.5701	1222.4257	2194.5	1310.5
868.7148	1224.3424	2210.1	1326.25
868.8594	1226.2583	2246.9	1358.9
869.004	1228.1735	2283.1	1395.45
869.1486	1230.0879	2345.2	1458.75
869.2932	1232.0016	2416.6	1529.9
869.4377	1233.9146	2472.5	1585.9
869.5823	1235.8269	2489	1603.05
869.7269	1237.7384	2514.35	1629.55
869.8715	1239.6492	2493.05	1605.15
870.016	1241.5592	2522.05	1637.5
870.1606	1243.4686	2584.55	1699.95
870.3051	1245.3772	2718.6	1832.4
870.4496	1247.285	2849.3	1961.95
870.5941	1249.1922	3001.5	2115.8
870.7387	1251.0986	3125	2239.6
870.8832	1253.0042	3232.85	2347.15
871.0277	1254.9092	3386.05	2499.1
871.1722	1256.8134	3535.45	2650.5
871.3167	1258.7169	3701.6	2813.75
871.4611	1260.6196	3826.75	2943.2
871.6056	1262.5216	3893.75	3007.6
871.7501	1264.4229	3879.15	2993.1
871.8945	1266.3234	3840.65	2952.15
872.039	1268.2232	3732	2844.25
872.1834	1270.1223	3641.55	2755.05
872.3278	1272.0207	3563.1	2677.25
872.4723	1273.9183	3514	2621.2
872.6167	1275.8151	3506.7	2620.65
872.7611	1277.7113	3560.65	2671.65
872.9055	1279.6067	3709.15	2822.6
873.0499	1281.5014	3946.95	3058.55
873.1943	1283.3953	4254.45	3365.6
873.3386	1285.2885	4611.8	3727.75
873.483	1287.181	4914.5	4027.85
873.6274	1289.0727	5013.4	4127.6
873.7717	1290.9637	4928.15	4040.7
873.9161	1292.854	4774.65	3887.9
874.0604	1294.7435	4526.8	3639
874.2047	1296.6323	4293.85	3407.6
874.349	1298.5204	4099.2	3206.65
874.4933	1300.4077	3940.65	3053.25
874.6376	1302.2943	3836.85	2949.85
874.7819	1304.1802	3774.3	2888.9
874.9262	1306.0653	3710.4	2819.75
875.0705	1307.9497	3645.75	2760.6
875.2147	1309.8333	3589.1	2702.25
875.359	1311.7162	3555.9	2669.95
875.5032	1313.5984	3516.25	2628.6
875.6475	1315.4798	3486.75	2588
875.7917	1317.3605	3484.25	2584.95
875.9359	1319.2405	3500.4	2611.35
876.0801	1321.1197	3486.6	2597.45
876.2243	1322.9982	3429.45	2539.4
876.3685	1324.876	3334	2448.1
876.5127	1326.753	3191.45	2304.7
876.6569	1328.6293	3022.35	2134.1
876.801	1330.5048	2861.25	1972.65
876.9452	1332.3796	2704.6	1817.65
877.0893	1334.2537	2621.8	1707.75
877.2335	1336.127	2517.15	1629.55
877.3776	1337.9996	2454.15	1567.2
877.5217	1339.8714	2419.2	1531.95
877.6658	1341.7426	2418.2	1484.05
877.8099	1343.6129	2358.85	1470.05
877.954	1345.4826	2321.25	1432
878.0981	1347.3515	2309.05	1417.1
878.2422	1349.2196	2277.1	1387.6
878.3862	1351.087	2266.85	1376.55
878.5303	1352.9537	2249.35	1361.65
878.6743	1354.8197	2256.45	1369.4
878.8184	1356.6849	2276.55	1388.3
878.9624	1358.5493	2286.1	1397.75
879.1064	1360.4131	2332.75	1444.55
879.2504	1362.276	2387.6	1499.2
879.3944	1364.1383	2466.25	1578.2
879.5384	1365.9998	2494.15	1600.25
879.6823	1367.8606	2485	1596.3
879.8263	1369.7206	2467.95	1577.35
879.9702	1371.5799	2458.25	1566.4
880.1142	1373.4384	2451.55	1562.05
880.2581	1375.2962	2408.2	1517.15
880.402	1377.1533	2327.05	1439.65
880.5459	1379.0096	2249.95	1362
880.6898	1380.8652	2195.7	1308.1
880.8337	1382.7201	2141.35	1253.8
880.9776	1384.5742	2096.95	1209.95
881.1215	1386.4275	2049.45	1160.4
881.2653	1388.2802	2023.9	1137.6
881.4092	1390.132	2000.55	1113.15
881.553	1391.9832	1989.4	1099.5
881.6968	1393.8336	1975.6	1084.45
881.8406	1395.6832	1965.25	1074.35
881.9844	1397.5322	1951.85	1064.1
882.1282	1399.3803	1952.95	1059.85
882.272	1401.2278	1917.6	1028.65
882.4158	1403.0745	1909.25	1020.6
882.5595	1404.9204	1890.65	1003.05
882.7033	1406.7656	1884.3	995.35
882.847	1408.6101	1873.25	984
882.9908	1410.4538	1871.1	984.4
883.1345	1412.2968	1876.8	986.75
883.2782	1414.139	1876.8	990.9
883.4219	1415.9805	1897.75	1010.5
883.5656	1417.8213	1908	1013.05
883.7092	1419.6613	1934	1045.6
883.8529	1421.5006	1972.3	1084.05
883.9965	1423.3391	2049.65	1160.4
884.1402	1425.1769	2136	1246.45
884.2838	1427.0139	2269.5	1381.4
884.4274	1428.8502	2417.45	1527.1
884.571	1430.6858	2546.9	1658.3
884.7146	1432.5206	2581.9	1693.2
884.8582	1434.3547	2571.4	1682.8
885.0018	1436.188	2547.45	1659.9
885.1453	1438.0206	2532.25	1642.1
885.2889	1439.8524	2504.05	1613.05
885.4324	1441.6835	2499.4	1608.9
885.5759	1443.5139	2504.7	1611.85
885.7194	1445.3435	2510.8	1621.75
885.8629	1447.1724	2522.05	1635.85
886.0064	1449.0005	2507.1	1618.35
886.1499	1450.8279	2504.5	1613.45
886.2933	1452.6545	2479.45	1591.35
886.4368	1454.4804	2489.3	1601.6
886.5802	1456.3056	2463.4	1567.7
886.7237	1458.13	2438.9	1550.4
886.8671	1459.9536	2406.3	1515.05
887.0105	1461.7766	2339.75	1452.1
887.1539	1463.5987	2275.35	1386.45
887.2972	1465.4202	2208.95	1320.2
887.4406	1467.2409	2132.9	1244.4
887.584	1469.0608	2084.95	1198.15
887.7273	1470.88	2029.3	1139.65
887.8706	1472.6984	1975.6	1089.5
888.0139	1474.5161	1945.15	1054.45
888.1572	1476.3331	1911.75	1023.7
888.3005	1478.1493	1893.1	1002.4
888.4438	1479.9648	1894.6	1004.95
888.5871	1481.7795	1872.6	981.9
888.7303	1483.5935	1874	986.15
888.8736	1485.4067	1884.6	992.8
889.0168	1487.2192	1889.35	999.5
889.16	1489.031	1893.55	1002.7
889.3032	1490.842	1883.45	994.05
889.4464	1492.6522	1882.8	993.85
889.5896	1494.4618	1876.65	987.6
889.7327	1496.2705	1881.55	994.35
889.8759	1498.0785	1870.3	982.05
890.019	1499.8858	1862.95	973.05
890.1622	1501.6924	1850.9	963.45
890.3053	1503.4981	1841.85	955.3
890.4484	1505.3032	1840.6	950.1
890.5914	1507.1075	1829.75	942.8
890.7345	1508.911	1808.8	919.25
890.8776	1510.7138	1805	915.8
891.0206	1512.5159	1801	913.4
891.1637	1514.3172	1782	894.1
891.3067	1516.1178	1767	879.7
891.4497	1517.9176	1766.8	875.05
891.5927	1519.7166	1752	864.45
891.7357	1521.515	1748.85	853.3
891.8786	1523.3126	1743.6	852.65
892.0216	1525.1094	1727.8	837.3
892.1645	1526.9055	1732.25	844.25
892.3074	1528.7008	1719.95	833.8
892.4503	1530.4954	1717.1	824.85
892.5932	1532.2893	1717.7	831.15
892.7361	1534.0824	1711.6	818.45
892.879	1535.8747	1709.05	822.1
893.0218	1537.6663	1700.5	812.9
893.1647	1539.4572	1703.45	813.55
893.3075	1541.2473	1698.2	808.7
893.4503	1543.0367	1707.25	821.3
893.5931	1544.8253	1704.5	812.85
893.7359	1546.6132	1705.2	815.6
893.8787	1548.4003	1721.2	823.6
894.0214	1550.1867	1737.95	840.5
894.1642	1551.9723	1748.8	857.55
894.3069	1553.7572	1763.1	872.55
894.4496	1555.5414	1792.3	907.4
894.5923	1557.3247	1832.35	944.4
894.735	1559.1074	1902.8	1016.8
894.8777	1560.8893	1974.35	1088.55
895.0204	1562.6705	2040.6	1153.7
895.163	1564.4509	2091.95	1206.8
895.3056	1566.2305	2103.3	1217.7
895.4482	1568.0094	2119.5	1234.65
895.5908	1569.7876	2109.65	1224.4
895.7334	1571.565	2110.1	1223.35
895.876	1573.3417	2111.5	1224.45
896.0186	1575.1176	2129.95	1242.9
896.1611	1576.8928	2147.9	1262.9
896.3036	1578.6672	2179.35	1295
896.4461	1580.4409	2229.75	1345.2
896.5886	1582.2138	2295.2	1407.3
896.7311	1583.986	2360.55	1473.65
896.8736	1585.7575	2438.65	1553.9
897.0161	1587.5282	2501.65	1618.9
897.1585	1589.2981	2546	1662.85
897.3009	1591.0673	2581.2	1697.6
897.4433	1592.8358	2595.65	1710.5
897.5857	1594.6035	2592.05	1705
897.7281	1596.3704	2565.75	1679
897.8705	1598.1366	2541.45	1657.25
898.0128	1599.9021	2485.95	1598.9
898.1551	1601.6668	2439.85	1552.1
898.2975	1603.4308	2407.2	1519.55
898.4398	1605.194	2410.9	1520.2
898.5821	1606.9564	2447.6	1562.2
898.7243	1608.7182	2539.2	1650.15
898.8666	1610.4791	2683.55	1800.9
899.0088	1612.2394	2839.6	1957
899.1511	1613.9988	3034.5	2153.1
899.2933	1615.7576	3206.1	2322.1
899.4355	1617.5156	3300.1	2411.35
899.5776	1619.2728	3260.35	2373.55
899.7198	1621.0293	3145.25	2261.05
899.862	1622.785	2935.15	2045.25
900.0041	1624.54	2707.25	1819.45
900.1462	1626.2942	2496.35	1612.15
900.2883	1628.0477	2296.05	1407.35
900.4304	1629.8005	2153.35	1266.45
900.5725	1631.5525	2018.65	1133.1
900.7145	1633.3037	1922.4	1039.1
900.8566	1635.0542	1858.7	973.45
900.9986	1636.804	1799	914.4
901.1406	1638.553	1809.2	863.15
901.2826	1640.3013	1720.2	837.05
901.4245	1642.0488	1677.9	792.2
901.5665	1643.7955	1657.1	773.6
901.7085	1645.5416	1631	746.05
901.8504	1647.2868	1625.2	742.6
901.9923	1649.0313	1605.15	721.3
902.1342	1650.7751	1595.25	705.75
902.2761	1652.5181	1595.95	712.35
902.4179	1654.2604	1588.55	703.5
902.5598	1656.0019	1598.3	714.2
902.7016	1657.7427	1609.65	724.5
902.8434	1659.4828	1644.55	759.7
902.9852	1661.222	1700.35	812.6
903.127	1662.9606	1760.5	873.15
903.2687	1664.6984	1817.1	928.65
903.4105	1666.4354	1854.45	968.35
903.5522	1668.1717	1833.1	946.1
903.6939	1669.9072	1761	874.35
903.8356	1671.642	1688.1	800.8
903.9773	1673.3761	1603.15	717.6
904.119	1675.1094	1555.05	670
904.2606	1676.8419	1513.85	629.3
904.4022	1678.5737	1495.6	608.7
904.5439	1680.3048	1471.75	585.45
904.6855	1682.0351	1455.6	569.5
904.827	1683.7646	1443.05	552.2
904.9686	1685.4934	1435.25	549.3
905.1101	1687.2215	1428.6	544.9
905.2517	1688.9488	1417.55	533.7
905.3932	1690.6754	1412.85	527.8
905.5347	1692.4012	1407	522.9
905.6761	1694.1263	1405.5	518.6
905.8176	1695.8506	1404.65	516.95
905.9591	1697.5742	1393.85	509.55
906.1005	1699.297	1394.9	511.05
906.2419	1701.0191	1386.95	502.95
906.3833	1702.7404	1379.45	495.5
906.5246	1704.461	1370.1	484.8
906.666	1706.1808	1371.3	485.2
906.8073	1707.8999	1369.05	482.6
906.9487	1709.6182	1368.65	485.2
907.09	1711.3358	1364.85	481
907.2313	1713.0527	1355.15	474.55
907.3725	1714.7688	1362.3	471.25
907.5138	1716.4841	1355.2	470.6
907.655	1718.1987	1361.85	471.55
907.7962	1719.9126	1346.2	464.25
907.9374	1721.6257	1349	461.25
908.0786	1723.338	1353.2	470
908.2198	1725.0496	1341.7	457.55
908.3609	1726.7605	1337.6	451.7
908.502	1728.4706	1339.1	454.95
908.6431	1730.18	1336.8	453
908.7842	1731.8886	1337.2	453.3
908.9253	1733.5964	1355.45	446.85
909.0664	1735.3036	1336.8	449.9
909.2074	1737.0099	1330.1	447.6
909.3484	1738.7156	1331.5	449.2
909.4894	1740.4204	1330.4	444.25
909.6304	1742.1246	1321.85	436.1
909.7714	1743.8279	1329.75	445.2
909.9123	1745.5306	1325.75	441.55
910.0532	1747.2325	1321.8	439.15
910.1941	1748.9336	1318.15	435.3
910.335	1750.634	1310.8	424.7
910.4759	1752.3336	1320.05	434.05
910.6168	1754.0325	1312.45	431.35
910.7576	1755.7307	1314.6	431.25
910.8984	1757.4281	1312.95	427.9
911.0392	1759.1247	1318.55	425.05
911.18	1760.8206	1313.45	422.85
911.3208	1762.5158	1320.65	429.1
911.4615	1764.2102	1310.5	425.75
911.6022	1765.9039	1305.25	420.85
911.7429	1767.5968	1306.3	423.2
911.8836	1769.289	1311.85	428.25
912.0243	1770.9804	1306.4	419.4
912.1649	1772.6711	1303.05	417.05
912.3056	1774.361	1311.95	425.5
912.4462	1776.0502	1305.2	420.85
912.5868	1777.7386	1309.4	421.8
912.7274	1779.4263	1300.95	416.3
912.8679	1781.1132	1301.1	418.3
913.0084	1782.7994	1295.4	410.45
913.149	1784.4849	1295.2	410.65
913.2895	1786.1696	1312.35	407.95
913.4299	1787.8535	1292.75	408.7
913.5704	1789.5367	1294.35	408.35
913.7108	1791.2192	1291.35	406
913.8513	1792.9009	1304	404.15
913.9917	1794.5818	1290.3	404.6
914.132	1796.2621	1287.75	404.5
914.2724	1797.9415	1281.85	395.85
914.4128	1799.6202	1285.15	400.2
914.5531	1801.2982	1286	401.45
914.6934	1802.9755	1283.95	399.05
914.8337	1804.6519	1278.6	393.25
914.9739	1806.3277	1275	390.1
915.1142	1808.0027	1278.1	396.4
915.2544	1809.6769	1276.4	393.25
915.3946	1811.3504	1274.25	390.2
915.5348	1813.0231	1268.25	385.1
915.675	1814.6951	1272.15	387.6
915.8151	1816.3664	1274.6	388.75
915.9553	1818.0369	1277.4	391.7
916.0954	1819.7067	1269.8	385.65
916.2355	1821.3757	1267.15	378.9
916.3755	1823.044	1270.75	386.25
916.5156	1824.7115	1272.75	388.75
916.6556	1826.3783	1260.8	378.1
916.7956	1828.0443	1259.1	374.75
916.9356	1829.7096	1263.35	377.3
917.0756	1831.3741	1267.15	378.65
917.2155	1833.0379	1260.4	375.95
917.3555	1834.701	1265.65	380.25
917.4954	1836.3633	1264.85	383.5
917.6353	1838.0248	1261	375.6
917.7751	1839.6856	1260.6	377.75
917.915	1841.3457	1259.75	375.9
918.0548	1843.005	1258.5	375.55
918.1946	1844.6636	1263.15	378.6
918.3344	1846.3214	1253.8	368.1
918.4742	1847.9785	1251.7	366.8
918.6139	1849.6349	1252.35	367.95
918.7537	1851.2904	1268.25	372.75
918.8934	1852.9453	1253.3	368.15
919.0331	1854.5994	1253.1	366.25
919.1727	1856.2528	1253.65	366.25
919.3124	1857.9054	1254.85	370.55
919.452	1859.5572	1247.85	364.75
919.5916	1861.2083	1248.25	362.45
919.7312	1862.8587	1246.95	361.8
919.8708	1864.5084	1247.5	361.9
920.0103	1866.1572	1249.4	367.05
920.1498	1867.8054	1243.7	357.7
920.2893	1869.4528	1240.9	356.95
920.4288	1871.0994	1241.25	356.35
920.5683	1872.7453	1245.05	358.9
920.7077	1874.3905	1242.35	350.1
920.8471	1876.0349	1240.45	354.4
920.9865	1877.6786	1238.55	352.25
921.1259	1879.3215	1237.1	354.75
921.2653	1880.9637	1237.8	350.85
921.4046	1882.6051	1241.55	357.45
921.5439	1884.2458	1232.75	347.8
921.6832	1885.8858	1234.55	349.7
921.8225	1887.525	1235.75	350.45
921.9617	1889.1634	1231.8	346.8
922.101	1890.8011	1228.25	341.85
922.2402	1892.4381	1226.05	340.05
922.3794	1894.0743	1231.2	346.3
922.5185	1895.7098	1226.4	340.65
922.6577	1897.3446	1226.45	340.6
922.7968	1898.9786	1230.35	341.55
922.9359	1900.6118	1224.7	341
923.075	1902.2443	1227.55	340.5
923.214	1903.8761	1224.05	338.5
923.3531	1905.5071	1214.7	330
923.4921	1907.1374	1218.25	333.4
923.6311	1908.7669	1216.95	332.25
923.77	1910.3957	1228.45	342.7
923.909	1912.0237	1220.3	336.6
924.0479	1913.651	1212.85	324.45
924.1868	1915.2776	1211.9	330.1
924.3257	1916.9034	1207.9	323.75
924.4646	1918.5285	1200.55	317
924.6034	1920.1528	1209.85	327.05
924.7422	1921.7764	1206.45	322.6
924.881	1923.3992	1209.3	327.7
925.0198	1925.0213	1202.8	317.4
925.1586	1926.6427	1206.35	321.05
925.2973	1928.2633	1418	318.8
925.436	1929.8832	1214.7	327.2
925.5747	1931.5023	1204.65	320.1
925.7134	1933.1207	1201.85	316.8
925.852	1934.7383	1198.9	316.7
925.9906	1936.3552	1199.45	317
926.1292	1937.9714	1198.05	312.7
926.2678	1939.5868	1202.5	316.7
926.4064	1941.2015	1197.15	312.35
926.5449	1942.8154	1200.8	315.45
926.6834	1944.4286	1193.65	307.1
926.8219	1946.041	1215.7	304.55
926.9604	1947.6528	1198.1	308.65
927.0988	1949.2637	1195.7	311.8
927.2372	1950.8739	1193.95	309.8
927.3756	1952.4834	1194.2	308.5
927.514	1954.0921	1194.55	308.65
927.6523	1955.7001	1192.45	304.5
927.7907	1957.3074	1187.4	303.55
927.929	1958.9139	1186.55	303.65
928.0673	1960.5197	1187.1	302.65
928.2055	1962.1247	1182.2	299.15
928.3438	1963.729	1181.55	298.55
928.482	1965.3325	1202.75	293.35
928.6202	1966.9353	1183.85	301.55
928.7584	1968.5374	1174.3	293.6
928.8965	1970.1387	1177.05	293.7
929.0346	1971.7393	1173.15	288.1
929.1727	1973.3392	1173.7	288.9
929.3108	1974.9383	1168.7	284.5
929.4489	1976.5366	1176.75	294.85
929.5869	1978.1342	1173.9	289.6
929.7249	1979.7311	1170.75	286.9
929.8629	1981.3273	1165.05	282
930.0009	1982.9227	1172.4	286.8
930.1388	1984.5173	1168.45	287.15
930.2767	1986.1112	1167.15	285.25
930.4146	1987.7044	1172.15	290.3
930.5525	1989.2968	1163.35	280.15
930.6904	1990.8885	1170.15	285.15
930.8282	1992.4795	1170	286.8
930.966	1994.0697	1162.3	282.15
931.1038	1995.6592	1160.85	278.15
931.2415	1997.2479	1162.65	281.2
931.3793	1998.8359	1161.1	278.6
931.517	2000.4232	1160.75	280.35
931.6547	2002.0097	1156.6	277
931.7923	2003.5955	1162.6	279.95
931.93	2005.1805	1156.9	272.5
932.0676	2006.7648	1157.85	277.55
932.2052	2008.3484	1161.05	279.65
932.3427	2009.9312	1161.45	277.55
932.4803	2011.5133	1153.5	275
932.6178	2013.0946	1154.45	273.15
932.7553	2014.6752	1158.45	280.65
932.8928	2016.2551	1153.9	270.65
933.0302	2017.8342	1153.7	272.25
933.1676	2019.4126	1149.15	269.4
933.305	2020.9902	1146	264.7
933.4424	2022.5672	1147.55	265.7
933.5798	2024.1433	1153.25	267.55
933.7171	2025.7188	1146.5	269.45
933.8544	2027.2935	1153.45	272.05
933.9917	2028.8674	1144.85	265.35
934.129	2030.4406	1145.5	266.9
934.2662	2032.0131	1144.55	266.65
934.4034	2033.5849	1147.2	261.75
934.5406	2035.1559	1149.25	269.4
934.6778	2036.7261	1144.9	263.8
934.8149	2038.2957	1143.85	262.05
934.952	2039.8645	1143.55	262.55
935.0891	2041.4325	1153.65	268.65
935.2262	2042.9998	1143.4	262.4
935.3632	2044.5664	1145.9	264.65
935.5002	2046.1323	1140.7	260.1
935.6372	2047.6974	1136.05	256.65
935.7742	2049.2617	1138.8	262.7
935.9111	2050.8254	1170	255.95
936.048	2052.3883	1136.8	255.25
936.1849	2053.9504	1139.15	256.85
936.3218	2055.5118	1138.95	256
936.4586	2057.0725	1146.05	260.9
936.5955	2058.6325	1139.1	259
936.7323	2060.1917	1136.15	256.55
936.869	2061.7502	1138.25	255.75
937.0058	2063.3079	1136.25	257.15
937.1425	2064.8649	1140.4	256.9
937.2792	2066.4212	1142.25	260.35
937.4159	2067.9767	1132.6	252.45
937.5525	2069.5315	1133.85	253.5
937.6891	2071.0856	1129.2	246.6
937.8257	2072.6389	1131.7	249.1
937.9623	2074.1915	1128.95	252.6
938.0989	2075.7433	1134.45	252.65
938.2354	2077.2945	1126.4	247.25
938.3719	2078.8448	1131.75	251.45
938.5084	2080.3945	1128.45	247.25
938.6448	2081.9434	1127.75	246.45
938.7812	2083.4916	1125.3	243.6
938.9176	2085.039	1128.9	246.05
939.054	2086.5857	1132.85	250.25
939.1903	2088.1317	1125.7	242.45
939.3267	2089.677	1130.65	248.9
939.463	2091.2215	1127.95	245.8
939.5992	2092.7652	1121.6	236.1
939.7355	2094.3083	1128.15	244
939.8717	2095.8506	1124.15	243.7
940.0079	2097.3921	1123.7	244.75
940.1441	2098.933	1125.45	241.45
940.2802	2100.4731	1124.2	243.45
940.4163	2102.0124	1139.4	240.65
940.5524	2103.5511	1120.6	238.7
940.6885	2105.089	1125.15	243.85
940.8245	2106.6261	1125.9	244.2
940.9606	2108.1626	1125.95	243.55
941.0965	2109.6983	1151.45	240.6
941.2325	2111.2332	1120.45	236.75
941.3684	2112.7675	1127.35	245.2
941.5044	2114.301	1122.55	242.1
941.6403	2115.8337	1121.7	239.6
941.7761	2117.3657	1119.6	236.6
941.912	2118.897	1114.6	231.95
942.0478	2120.4276	1126.65	239.3
942.1835	2121.9575	1118.15	237.75
942.3193	2123.4866	1131.35	234.6
942.455	2125.0149	1121.05	235.65
942.5907	2126.5426	1110.95	227.45
942.7264	2128.0695	1119.8	233.15
942.8621	2129.5956	1114.75	235.5
942.9977	2131.1211	1117.1	230.75
943.1333	2132.6458	1112.75	231.9
943.2689	2134.1698	1115.85	232.5
943.4044	2135.693	1113.95	229.05
943.54	2137.2155	1117.05	232.85
943.6755	2138.7373	1111.85	230.1
943.8109	2140.2584	1108.15	228.95
943.9464	2141.7787	1116.25	229.3
944.0818	2143.2983	1113.45	232.85
944.2172	2144.8171	1107.4	228.25
944.3526	2146.3353	1113.6	231.6
944.4879	2147.8527	1108	226.5
944.6232	2149.3693	1112.05	230.75
944.7585	2150.8853	1113.2	230.35
944.8938	2152.4005	1111.05	229.6
945.029	2153.9149	1114.4	234
945.1642	2155.4287	1111.1	228.25
945.2994	2156.9417	1109.7	228.35
945.4346	2158.454	1112.6	229.95
945.5697	2159.9655	1103.2	222.1
945.7048	2161.4764	1110	229.85
945.8399	2162.9865	1106.1	223.6
945.9749	2164.4958	1106.65	225.5
946.1099	2166.0045	1106.7	223.85
946.2449	2167.5124	1102.65	223.25
946.3799	2169.0195	1104.45	221.95
946.5148	2170.526	1104.2	219.6
946.6498	2172.0317	1103.35	221.35
946.7846	2173.5367	1100.75	218.85
946.9195	2175.0409	1102.55	222.35
947.0543	2176.5445	1103.35	222.9
947.1891	2178.0473	1099.15	216.3
947.3239	2179.5494	1104.5	220.5
947.4587	2181.0507	1097.45	217.8
947.5934	2182.5513	1098.2	215.95
947.7281	2184.0512	1101.15	218.9
947.8628	2185.5504	1098.25	216.3
947.9974	2187.0488	1100.05	219.9
948.132	2188.5465	1095.4	214.6
948.2666	2190.0435	1096.05	215.35
948.4012	2191.5397	1100.55	219.85
948.5357	2193.0353	1101.9	221.65
948.6702	2194.5301	1099.35	219.35
948.8047	2196.0241	1095.9	215.2
948.9392	2197.5175	1094.65	214.25
949.0736	2199.0101	1095.65	211.25
949.208	2200.502	1093.75	213.45
949.3424	2201.9931	1094	212.35
949.4767	2203.4835	1092	209.1
949.611	2204.9733	1106.15	208.35
949.7453	2206.4622	1087.65	207.7
949.8796	2207.9505	1093.55	210.2
950.0138	2209.438	1086.15	208.8
950.148	2210.9248	1088.7	206.15
950.2822	2212.4109	1091.55	211.2
950.4164	2213.8962	1090.6	205.95
950.5505	2215.3809	1091.35	208.4
950.6846	2216.8648	1089.2	205.55
950.8186	2218.3479	1089.9	201.35
950.9527	2219.8304	1091.35	206.95
951.0867	2221.3121	1087.6	202.75
951.2207	2222.7931	1081	199.7
951.3546	2224.2733	1084.45	201.7
951.4886	2225.7529	1086.85	204.4
951.6225	2227.2317	1085.9	202.35
951.7563	2228.7098	1077.85	197.9
951.8902	2230.1872	1078.2	197.05
952.024	2231.6638	1080.25	197.9
952.1578	2233.1397	1086.45	199.8
952.2916	2234.6149	1077.2	197.9
952.4253	2236.0894	1079.65	197.8
952.559	2237.5632	1089.7	198
952.6927	2239.0362	1077.1	194.6
952.8263	2240.5085	1074.8	195.55
952.9599	2241.9801	1079.4	197.15
953.0935	2243.4509	1076.65	196.45
953.2271	2244.921	1074.3	193.95
953.3606	2246.3904	1078.4	192.75
953.4941	2247.8591	1071.95	191.35
953.6276	2249.3271	1076.7	193.55
953.7611	2250.7943	1073.35	191.25
953.8945	2252.2608	1071	190.25
954.0279	2253.7266	1069.05	188.45
954.1612	2255.1917	1072.55	193.05
954.2946	2256.656	1071	188.4
954.4279	2258.1197	1063.6	182.3
954.5612	2259.5826	1065.65	184.4
954.6944	2261.0447	1069.6	187.15
954.8276	2262.5062	1073.55	190.15
954.9608	2263.9669	1068.8	184
955.094	2265.4269	1066.2	183.65
955.2271	2266.8862	1063.1	182
955.3602	2268.3448	1064.5	183.3
955.4933	2269.8026	1062.9	182.95
955.6264	2271.2598	1064.9	182.3
955.7594	2272.7162	1063	182.45
955.8924	2274.1719	1064.5	182.7
956.0253	2275.6268	1064.9	182.9
956.1583	2277.0811	1066.55	184.6
956.2912	2278.5346	1062.3	180.85
956.4241	2279.9874	1061.8	180.65
956.5569	2281.4395	1058.75	178.7
956.6897	2282.8908	1065	179
956.8225	2284.3414	1064.35	182.7
956.9553	2285.7914	1059.5	180.35
957.088	2287.2406	1062.6	179.3
957.2207	2288.689	1060.35	178.7
957.3534	2290.1368	1063.65	178.05
957.486	2291.5838	1063	179.35
957.6186	2293.0302	1064	181.85
957.7512	2294.4758	1059.3	175.9
957.8838	2295.9206	1061.55	176.95
958.0163	2297.3648	1060.45	180.75
958.1488	2298.8082	1058.45	174.6
958.2813	2300.251	1057.5	176.65
958.4137	2301.693	1060.05	176.4
958.5461	2303.1343	1058.3	176.35
958.6785	2304.5748	1057.95	176.55
958.8108	2306.0147	1060.05	179.4
958.9432	2307.4538	1054	170.1
959.0754	2308.8922	1053.45	173.8
959.2077	2310.3299	1052.45	173.15
959.3399	2311.7669	1050.4	172.05
959.4721	2313.2031	1051.9	170
959.6043	2314.6387	1057.3	176.7
959.7365	2316.0735	1052.95	169.6
959.8686	2317.5076	1047.95	165.15
960.0006	2318.941	1052.5	169.7
960.1327	2320.3737	1054.15	172.05
960.2647	2321.8056	1056.4	172.6
960.3967	2323.2369	1050.8	167.6
960.5287	2324.6674	1059.1	174.05
960.6606	2326.0972	1052.3	168.3
960.7925	2327.5263	1063.1	182.3
960.9244	2328.9547	1064.35	182.95
961.0562	2330.3823	1060	177.35
961.1881	2331.8092	1058.05	174.45
961.3198	2333.2355	1054.1	171.3
961.4516	2334.661	1048.75	165.95
961.5833	2336.0858	1054.5	171.6
961.715	2337.5098	1046.55	165.4
961.8467	2338.9332	1044.2	162.75
961.9783	2340.3558	1046.8	162.85
962.1099	2341.7778	1043.3	160.4
962.2415	2343.199	1046.5	162.6
962.373	2344.6195	1041.35	161.05
962.5045	2346.0393	1043.85	162.05
962.636	2347.4583	1046.15	164.85
962.7675	2348.8767	1047.45	163.9
962.8989	2350.2943	1040.1	158.75
963.0303	2351.7113	1038.75	154.4
963.1617	2353.1275	1044.2	162.2
963.293	2354.543	1049.85	159.85
963.4243	2355.9578	1042.45	157.7
963.5556	2357.3718	1040.35	159.2
963.6868	2358.7852	1043.35	159.95
963.818	2360.1978	1041.8	160
963.9492	2361.6098	1039.6	157.4
964.0803	2363.021	1042.65	157.85
964.2114	2364.4315	1038.9	155.9
964.3425	2365.8413	1043.05	161.4
964.4736	2367.2504	1040.55	159
964.6046	2368.6587	1038.7	157.2
964.7356	2370.0664	1038.1	155.65
964.8666	2371.4733	1041.4	158
964.9975	2372.8795	1034.65	154.35
965.1284	2374.285	1041.05	158.05
965.2593	2375.6899	1038.7	158.55
965.3901	2377.0939	1034.45	152.4
965.5209	2378.4973	1037.75	155.4
965.6517	2379.9	1034.5	154.25
965.7825	2381.3019	1034.8	152.8
965.9132	2382.7032	1033.9	151.85
966.0439	2384.1037	1033.9	153.55
966.1745	2385.5035	1033.3	149.5
966.3051	2386.9027	1029.45	147.9
966.4357	2388.3011	1037.05	149.75
966.5663	2389.6987	1031.25	148.9
966.6968	2391.0957	1029.6	147.3
966.8273	2392.492	1031	147.55
966.9578	2393.8876	1033.3	150.4
967.0882	2395.2824	1033.75	148.7
967.2186	2396.6765	1034.1	152.15
967.349	2398.07	1030.35	148.95
967.4793	2399.4627	1031.35	149.45
967.6097	2400.8547	1026.9	145.55
967.7399	2402.246	1034.45	146.8
967.8702	2403.6366	1028.45	145.2
968.0004	2405.0265	1026.6	144.45
968.1306	2406.4156	1027.75	140.4
968.2607	2407.8041	1029.75	142.6
968.3909	2409.1918	1026.1	140.25
968.521	2410.5789	1029.3	145.75
968.651	2411.9652	1027.05	138.6
968.781	2413.3508	1024.2	142.3
968.911	2414.7358	1028.95	144.35
969.041	2416.12	1022.65	140.85
969.1709	2417.5035	1022.95	140.8
969.3008	2418.8863	1025.6	140.65
969.4307	2420.2684	1031	148.15
969.5606	2421.6497	1024.9	140.75
969.6904	2423.0304	1022.4	140.8
969.8201	2424.4104	1019.3	134.65
969.9499	2425.7896	1023.2	138.25
970.0796	2427.1682	1021.15	141.1
970.2093	2428.546	1023	137.7
970.3389	2429.9232	1026	141.7
970.4685	2431.2996	1017.65	134.3
970.5981	2432.6753	1018.5	138.25
970.7277	2434.0503	1019.05	134.4
970.8572	2435.4246	1018.15	136.2
970.9867	2436.7982	1023.45	136.6
971.1161	2438.1711	1016.9	133.8
971.2456	2439.5433	1018.9	133.75
971.375	2440.9148	1021.4	134.8
971.5043	2442.2856	1014.8	131.8
971.6336	2443.6557	1014.8	132.05
971.7629	2445.025	1016.4	133.85
971.8922	2446.3937	1019.35	136.35
972.0214	2447.7617	1016.45	132.35
972.1506	2449.1289	1015.6	132.6
972.2798	2450.4955	1018.6	132.7
972.4089	2451.8613	1014.15	131.6
972.538	2453.2265	1016.2	133.1
972.6671	2454.5909	1013.75	130.6
972.7961	2455.9546	1014.85	130.7
972.9251	2457.3177	1015.45	133.9
973.0541	2458.68	1014.5	128.25
973.1831	2460.0416	1011.5	129.95
973.312	2461.4025	1013.55	129.3
973.4408	2462.7627	1024.8	131.55
973.5697	2464.1222	1011.8	131.65
973.6985	2465.4811	1011.7	127.75
973.8273	2466.8392	1010.1	129.5
973.956	2468.1966	1018.4	133.55
974.0847	2469.5533	1014.7	128.8
974.2134	2470.9093	1012.15	130.3
974.3421	2472.2645	1011.95	127.15
974.4707	2473.6191	1011.45	126.8
974.5993	2474.973	1010.5	128.65
974.7278	2476.3262	1013.25	128.25
974.8563	2477.6787	1009.55	129.2
974.9848	2479.0305	1006.1	122.2
975.1132	2480.3816	1011.55	128.55
975.2417	2481.7319	1006.35	124
975.37	2483.0816	1009.9	127
975.4984	2484.4306	1006.65	123.3
975.6267	2485.7789	1010.75	129.2
975.755	2487.1264	1010.6	126.5
975.8833	2488.4733	1004.35	124.05
976.0115	2489.8195	1013.85	125.1
976.1397	2491.165	1009.6	126.95
976.2678	2492.5097	1010.4	125.8
976.3959	2493.8538	1005.3	123.6
976.524	2495.1972	1006.55	124.75
976.6521	2496.5398	1008.2	123.7
976.7801	2497.8818	1006.55	123.05
976.9081	2499.2231	1006.35	123.25
977.036	2500.5637	1006.1	122.7
977.164	2501.9035	1008	125.15
977.2918	2503.2427	1007.05	121.2
977.4197	2504.5812	1001.4	119.6
977.5475	2505.919	1004.75	118.75
977.6753	2507.256	1004.65	121.6
977.8031	2508.5924	1004	121.9
977.9308	2509.9281	1010.15	122.1
978.0585	2511.2631	1003.5	122
978.1861	2512.5974	1002.2	119.95
978.3137	2513.9309	1004.5	121.4
978.4413	2515.2638	1031.1	119.9
978.5689	2516.596	999.1	117.6
978.6964	2517.9275	1002.35	118.4
978.8239	2519.2583	999.1	115.4
978.9513	2520.5884	1001.65	115.4
979.0788	2521.9178	1000.75	119.5
979.2062	2523.2465	1001.9	119.45
979.3335	2524.5745	993.6	110.2
979.4608	2525.9018	1000.5	118.8
979.5881	2527.2284	999.85	118.95
979.7154	2528.5543	1004.6	125.4
979.8426	2529.8796	1001.7	119.7
979.9698	2531.2041	999.45	117.5
980.0969	2532.5279	995.15	114.6
980.224	2533.851	997.8	114.4
980.3511	2535.1735	996.6	115.15
980.4781	2536.4952	1001.5	118
980.6052	2537.8163	997.75	116.4
980.7321	2539.1366	996.8	114.35
980.8591	2540.4562	996.75	114.25
980.986	2541.7752	996.8	114.3
981.1129	2543.0935	994.6	110.8
981.2397	2544.411	997.5	113.1
981.3665	2545.7279	994.1	113.45
981.4933	2547.0441	993.5	110.5
981.62	2548.3596	996.1	111.1
981.7467	2549.6744	995.2	112.55
981.8734	2550.9885	1002.35	111.5
982.0001	2552.3019	993.35	112.9
982.1267	2553.6146	991.65	108.55
982.2532	2554.9266	993.95	111.4
982.3798	2556.2379	994.45	110.75
982.5063	2557.5485	990.6	110.7
982.6327	2558.8585	1000.85	110.65
982.7592	2560.1677	994.3	107.95
982.8856	2561.4762	990.65	107.3
983.0119	2562.7841	999	112.8
983.1383	2564.0913	991.65	111.45
983.2646	2565.3977	992.75	112.2
983.3908	2566.7035	989.95	109.75
983.517	2568.0086	992.75	107.7
983.6432	2569.313	996.3	112.1
983.7694	2570.6167	990.3	102.8
983.8955	2571.9197	990.65	109.7
984.0216	2573.222	992.3	106.4
984.1476	2574.5236	989	105.6
984.2737	2575.8246	993.6	109.5
984.3996	2577.1248	990.95	107.05
984.5256	2578.4244	989.35	106.85
984.6515	2579.7232	989.75	108.6
984.7774	2581.0214	1015.95	104.1
984.9032	2582.3189	988.65	106.15
985.029	2583.6157	995.4	107.55
985.1548	2584.9118	992.05	108.4
985.2806	2586.2072	989.1	106.15
985.4063	2587.5019	990.95	108.8
985.5319	2588.7959	988.8	106.15
985.6576	2590.0893	995.35	112.95
985.7832	2591.3819	989.25	108.4
985.9087	2592.6739	988.95	107.65
986.0343	2593.9652	993.9	109.7
986.1597	2595.2557	989.4	106.85
986.2852	2596.5456	993.35	108.85
986.4106	2597.8348	988.75	109.15
986.536	2599.1234	989.45	106.45
986.6614	2600.4112	991	110.2
986.7867	2601.6983	991.5	105.25
986.912	2602.9848	991.1	108.9
987.0372	2604.2705	993.85	104.75
987.1624	2605.5556	989.55	105.35
987.2876	2606.84	992.7	110.85
987.4128	2608.1237	991.8	108.75
987.5379	2609.4067	988.4	104.75
987.6629	2610.689	998.2	109.5
987.788	2611.9707	994.7	108.45
987.913	2613.2516	991.8	105.5
988.0379	2614.5319	989.95	109.15
988.1629	2615.8115	985.35	102.75
988.2878	2617.0903	983.85	99.15
988.4126	2618.3685	985.4	101.4
988.5375	2619.6461	987.5	104.25
988.6622	2620.9229	985.9	104.7
988.787	2622.199	987.25	103.7
988.9117	2623.4745	982.6	97.45
989.0364	2624.7493	982.9	102.75
989.161	2626.0234	983.05	100.9
989.2857	2627.2968	983.1	101.2
989.4102	2628.5695	980.1	95.9
989.5348	2629.8415	981.15	97.35
989.6593	2631.1128	984.15	100.05
989.7837	2632.3835	982.95	99.55
989.9082	2633.6535	980.35	98.85
990.0326	2634.9228	982	100.15
990.1569	2636.1914	979	96.65
990.2812	2637.4593	982.4	99.45
990.4055	2638.7265	982.7	100.25
990.5298	2639.9931	979.8	98.4
990.654	2641.259	979.15	96.15
990.7782	2642.5242	979.35	98.2
990.9023	2643.7887	979.8	97.8
991.0264	2645.0525	977.7	95.85
991.1505	2646.3156	979.35	97.65
991.2745	2647.5781	976	94.6
991.3985	2648.8398	978.2	97.85
991.5225	2650.1009	1014.85	94.95
991.6464	2651.3613	974.75	93.05
991.7703	2652.6211	980.3	99.5
991.8942	2653.8801	974.45	94.15
992.018	2655.1385	975.75	90.8
992.1418	2656.3961	977.3	96.95
992.2655	2657.6531	972.25	89.45
992.3892	2658.9094	973.05	90.7
992.5129	2660.1651	976	95
992.6366	2661.42	975.3	95.05
992.7602	2662.6743	975.4	93.45
992.8837	2663.9279	976.15	94.75
993.0073	2665.1808	978.05	95.3
993.1307	2666.433	975.4	91.45
993.2542	2667.6846	976.75	94.4
993.3776	2668.9354	981.4	96.95
993.501	2670.1856	977.75	94.6
993.6244	2671.4351	977.45	94.5
993.7477	2672.6839	979.15	95.2
993.8709	2673.9321	977.35	96.7
993.9942	2675.1795	978.55	96.05
994.1174	2676.4263	976.9	94.65
994.2405	2677.6724	978.65	96.65
994.3637	2678.9179	982.6	101.85
994.4868	2680.1626	978.95	96.05
994.6098	2681.4067	981.25	99.45
994.7328	2682.6501	980.3	98.65
994.8558	2683.8928	978.35	96.8
994.9788	2685.1348	975.7	94.75
995.1017	2686.3761	971.75	90.75
995.2245	2687.6168	974.8	94.15
995.3474	2688.8568	973.4	90.4
995.4702	2690.0961	966.55	87.15
995.5929	2691.3348	968.15	86.6
995.7156	2692.5727	972.8	91.45
995.8383	2693.81	971.6	91
995.961	2695.0466	968	87.8
996.0836	2696.2826	971.75	89.4
996.2062	2697.5178	986.9	85.3
996.3287	2698.7524	972.6	90.55
996.4512	2699.9863	970.5	86.45
996.5737	2701.2195	969.65	87.75
996.6961	2702.452	973.15	91.55
996.8185	2703.6839	974.55	92.25
996.9408	2704.9151	969.6	87.65
997.0631	2706.1456	971.5	91.55
997.1854	2707.3755	975.2	95.5
997.3077	2708.6046	975.3	89.85
997.4299	2709.8331	978	94.75
997.552	2711.0609	974.65	91.2
997.6742	2712.2881	976.75	94.45
997.7963	2713.5145	981.15	96.8
997.9183	2714.7403	977	97.05
998.0403	2715.9654	979.9	98.45
998.1623	2717.1899	994.9	99.05
998.2842	2718.4136	982.2	101
998.4062	2719.6367	987.85	106.85
998.528	2720.8591	994	105.7
998.6498	2722.0809	991.65	110.3
998.7716	2723.3019	994	109.1
998.8934	2724.5223	989.1	105.15
999.0151	2725.7421	991.5	107.3
999.1368	2726.9611	992.95	109.45
999.2584	2728.1795	991.3	107.25
999.38	2729.3972	985.1	103.7
999.5016	2730.6142	989.4	98.45
999.6231	2731.8306	976.55	92.75
999.7446	2733.0462	979.75	95.5
999.8661	2734.2612	981.6	95
999.9875	2735.4756	976.3	91.95
1000.1089	2736.6892	971.55	89.5
1000.2302	2737.9022	971.6	92.1
1000.3515	2739.1145	970.8	89.75
1000.4728	2740.3262	976.45	89.35
1000.594	2741.5372	966.7	84.45
1000.7152	2742.7475	970	89.15
1000.8363	2743.9571	967.9	85.55
1000.9575	2745.1661	966.15	79.1
1001.0785	2746.3744	963.5	81.85
1001.1996	2747.582	961.2	80.4
1001.3206	2748.7889	962.7	79.4
1001.4415	2749.9952	961.95	80.6
1001.5625	2751.2008	959.95	76.15
1001.6833	2752.4057	961.5	78.5
1001.8042	2753.61	959.1	76.65
1001.925	2754.8136	960	78.45
1002.0458	2756.0165	959.15	78.5
1002.1665	2757.2188	958.5	78
1002.2872	2758.4204	960.3	78.35
1002.4078	2759.6213	958.65	75.75
1002.5285	2760.8215	959.45	75.7
1002.649	2762.0211	957.8	73.85
1002.7696	2763.22	961	75.8
1002.8901	2764.4182	956.1	71.6
1003.0106	2765.6158	955.45	75.55
1003.131	2766.8127	960.05	78.1
1003.2514	2768.009	957.35	75.6
1003.3717	2769.2045	954.15	72.3
1003.492	2770.3994	956.75	74.2
1003.6123	2771.5936	951.85	69.45
1003.7325	2772.7872	953.5	71.7
1003.8527	2773.9801	955	72.6
1003.9729	2775.1723	969.75	69.6
1004.093	2776.3639	953.75	74.75
1004.2131	2777.5548	954.2	70.55
1004.3331	2778.745	955.15	71.7
1004.4531	2779.9346	950.85	71.65
1004.5731	2781.1235	951.1	68.1
1004.693	2782.3117	949.45	70.4
1004.8129	2783.4992	952.85	70.45
1004.9328	2784.6861	953.8	74.25
1005.0526	2785.8723	954.3	72.05
1005.1723	2787.0579	951.6	71.3
1005.2921	2788.2428	953.6	72
1005.4118	2789.427	953.95	73.25
1005.5314	2790.6106	952.25	69.5
1005.651	2791.7935	953.95	70.6
1005.7706	2792.9757	954	73.9
1005.8902	2794.1573	956.65	73.15
1006.0097	2795.3382	954.95	73.3
1006.1291	2796.5184	954.75	73.25
1006.2485	2797.698	955.05	72.55
1006.3679	2798.8769	954.9	76.55
1006.4873	2800.0551	958.55	78.55
1006.6066	2801.2327	958.25	72.4
1006.7258	2802.4096	956.05	74.3
1006.8451	2803.5859	958.15	76.85
1006.9642	2804.7615	956.7	76.95
1007.0834	2805.9364	958.6	78.35
1007.2025	2807.1106	962.15	81.3
1007.3216	2808.2842	961.4	79.45
1007.4406	2809.4572	965.45	86.25
1007.5596	2810.6294	966.4	84.8
1007.6785	2811.801	966.55	85.6
1007.7975	2812.972	966.6	86.9
1007.9163	2814.1423	971.1	90.1
1008.0352	2815.3119	978.25	99.15
1008.154	2816.4808	980.5	100.4
1008.2727	2817.6491	986.75	104.2
1008.3914	2818.8167	991.2	112.4
1008.5101	2819.9837	1002.85	117.85
1008.6288	2821.15	1010.35	129.25
1008.7474	2822.3157	1018	138.85
1008.8659	2823.4807	1034.15	152.4
1008.9844	2824.645	1043.55	164.2
1009.1029	2825.8086	1059.85	180.1
1009.2214	2826.9716	1076.1	196.2
1009.3398	2828.134	1086.5	203.65
1009.4581	2829.2957	1099.7	219.1
1009.5764	2830.4567	1108.8	231.25
1009.6947	2831.617	1117.75	237.35
1009.813	2832.7767	1120	240.85
1009.9312	2833.9358	1121.25	240.6
1010.0493	2835.0941	1120.15	237.2
1010.1675	2836.2519	1112.45	233.65
1010.2855	2837.4089	1108.3	226.65
1010.4036	2838.5653	1097.15	218.05
1010.5216	2839.7211	1090.6	212.15
1010.6396	2840.8761	1093.5	211.4
1010.7575	2842.0306	1086.35	208.05
1010.8754	2843.1843	1088.95	209.2
1010.9932	2844.3374	1090.8	211.8
1011.111	2845.4899	1090.5	207.7
1011.2288	2846.6417	1097.85	217.75
1011.3465	2847.7928	1102	223.55
1011.4642	2848.9433	1103.75	225.45
1011.5818	2850.0931	1104.25	224.75
1011.6995	2851.2422	1108.55	226.1
1011.817	2852.3907	1107.15	226.05
1011.9345	2853.5385	1108.15	231
1012.052	2854.6857	1136.45	228.1
1012.1695	2855.8323	1113.25	233.25
1012.2869	2856.9781	1123.3	242.2
1012.4042	2858.1233	1121.95	239.25
1012.5216	2859.2679	1129.15	249.85
1012.6389	2860.4118	1138.9	259.25
1012.7561	2861.555	1140.5	253.7
1012.8733	2862.6976	1150.6	270.85
1012.9905	2863.8395	1151.7	271.65
1013.1076	2864.9808	1156.75	277.5
1013.2247	2866.1214	1163.65	282.4
1013.3417	2867.2614	1164.85	283.7
1013.4587	2868.4007	1167	284.6
1013.5757	2869.5393	1167.25	283.4
1013.6926	2870.6773	1174.5	291.05
1013.8095	2871.8146	1178.15	296.6
1013.9263	2872.9513	1187.05	304.2
1014.0431	2874.0874	1187.25	307
1014.1599	2875.2227	1189.9	308.35
1014.2766	2876.3574	1192	309.7
1014.3933	2877.4915	1190.95	310.2
1014.51	2878.6249	1205.45	325.7
1014.6266	2879.7577	1207.75	326
1014.7431	2880.8898	1214.35	321.65
1014.8596	2882.0212	1212.45	333.65
1014.9761	2883.152	1214.8	333.25
1015.0925	2884.2821	1217.85	338.1
1015.2089	2885.4116	1224	344.15
1015.3253	2886.5405	1225	345
1015.4416	2887.6686	1235.2	350.25
1015.5579	2888.7962	1233.3	356.1
1015.6741	2889.923	1228.1	348.3
1015.7903	2891.0493	1226.8	351.2
1015.9065	2892.1748	1225.8	345.8
1016.0226	2893.2997	1227.6	348.7
1016.1387	2894.424	1226.45	348.5
1016.2547	2895.5476	1230.2	348.8
1016.3707	2896.6706	1230.75	351
1016.4866	2897.7929	1239.7	357.85
1016.6025	2898.9145	1227	345.7
1016.7184	2900.0355	1232.45	351.05
1016.8342	2901.1559	1231.45	348.2
1016.95	2902.2756	1229.55	343.35
1017.0658	2903.3946	1223.15	343.9
1017.1815	2904.513	1223.55	340
1017.2971	2905.6308	1217.35	339.15
1017.4127	2906.7479	1219.65	336.1
1017.5283	2907.8643	1218.95	340.95
1017.6439	2908.9801	1220.75	342.25
1017.7594	2910.0953	1218.85	337.4
1017.8748	2911.2098	1215.15	331.8
1017.9902	2912.3236	1220.65	331.95
1018.1056	2913.4368	1215.15	330.55
1018.2209	2914.5494	1220.25	340.3
1018.3362	2915.6613	1217.45	333.2
1018.4515	2916.7725	1206.6	324.8
1018.5667	2917.8831	1204.05	320.95
1018.6819	2918.9931	1196.9	314.2
1018.797	2920.1024	1197.5	316.3
1018.9121	2921.211	1192.1	312.65
1019.0271	2922.319	1179.75	301.2
1019.1421	2923.4264	1178.3	298.9
1019.2571	2924.5331	1177.9	296.75
1019.372	2925.6391	1176.4	296.15
1019.4869	2926.7445	1179.9	299.3
1019.6017	2927.8493	1180.35	300.45
1019.7165	2928.9534	1187.15	305.75
1019.8313	2930.0569	1194.95	312.2
1019.946	2931.1597	1183.5	303.1
1020.0606	2932.2619	1184.65	304.65
1020.1753	2933.3634	1188.4	307.8
1020.2899	2934.4643	1197	309.4
1020.4044	2935.5645	1201.5	313.05
1020.5189	2936.6641	1199.05	313.95
1020.6334	2937.763	1192.8	313.25
1020.7478	2938.8613	1197.65	317.7
1020.8622	2939.959	1200.3	314.95
1020.9765	2941.056	1184.85	304.75
1021.0908	2942.1523	1177.55	296.75
1021.2051	2943.248	1165.6	285.95
1021.3193	2944.3431	1148.9	269.95
1021.4334	2945.4375	1139.35	258.05
1021.5476	2946.5313	1125.4	245.15
1021.6617	2947.6244	1112.2	233.15
1021.7757	2948.7169	1098.5	218.2
1021.8897	2949.8087	1090.1	211.5
1022.0037	2950.8999	1077.15	195.55
1022.1176	2951.9904	1065.15	183.6
1022.2315	2953.0803	1059.75	178.8
1022.3453	2954.1696	1050.75	170
1022.4591	2955.2582	1046.05	166.85
1022.5728	2956.3462	1045.3	164.4
1022.6865	2957.4335	1038.5	158.25
1022.8002	2958.5202	1036.95	154.5
1022.9138	2959.6062	1036.1	156.8
1023.0274	2960.6916	1036.5	155.9
1023.141	2961.7764	1036.7	155.35
1023.2545	2962.8605	1036.6	154.5
1023.3679	2963.9439	1033	153.6
1023.4813	2965.0267	1035.9	154.65
1023.5947	2966.1089	1054.25	152.15
1023.708	2967.1905	1033.85	154.9
1023.8213	2968.2714	1026.3	146.85
1023.9346	2969.3516	1030.95	150.05
1024.0478	2970.4312	1031.05	143.15
1024.1609	2971.5102	1025.6	146.75
1024.274	2972.5885	1025.3	145.05
1024.3871	2973.6662	1032.5	145.75
1024.5002	2974.7432	1028.65	149.85
1024.6132	2975.8196	1026.1	144.35
1024.7261	2976.8954	1031.8	153.95
1024.839	2977.9705	1026.8	147.7
1024.9519	2979.045	1031.5	153.1
1025.0647	2980.1188	1027.2	149.3
1025.1775	2981.192	1025.4	147.75
1025.2902	2982.2645	1022.4	141.15
1025.4029	2983.3364	1020.65	140.75
1025.5156	2984.4077	1017.5	138.55
1025.6282	2985.4783	1016.55	130.5
1025.7407	2986.5483	1005.05	125.05
1025.8532	2987.6177	1003.7	124.55
1025.9657	2988.6864	1000.85	122.1
1026.0782	2989.7545	1004.05	123
1026.1906	2990.8219	991.15	111.85
1026.3029	2991.8887	992.65	110.45
1026.4152	2992.9548	986.4	106.65
1026.5275	2994.0204	979.4	100.5
1026.6397	2995.0852	971.35	91.3
1026.7519	2996.1495	968.75	84.75
1026.864	2997.2131	963.15	83
1026.9761	2998.276	958.7	78
1027.0882	2999.3383	956.35	76.45
1027.2002	3000.4	954.75	74.65
1027.3122	3001.4611	953.85	75.25
1027.4241	3002.5215	947.75	67.9
1027.536	3003.5812	943.65	62.6
1027.6478	3004.6404	945.05	67.1
1027.7596	3005.6989	943.95	63.7
1027.8714	3006.7567	939.35	57.95
1027.9831	3007.8139	967.95	58.55
1028.0947	3008.8705	934.1	54.05
1028.2064	3009.9264	936.75	51.9
1028.3179	3010.9818	932.05	52.1
1028.4295	3012.0364	933.15	51.95
1028.541	3013.0905	932.15	51.65
1028.6524	3014.1439	930.1	51.05
1028.7638	3015.1966	930.2	50.8
1028.8752	3016.2487	927.5	49.15
1028.9865	3017.3002	932.75	47.9
1029.0978	3018.3511	927.8	49.25
1029.209	3019.4013	927.85	47.8
1029.3202	3020.4509	928.55	50.95
1029.4314	3021.4998	927.1	48.5
1029.5425	3022.5481	925.1	45.55
1029.6535	3023.5958	927.9	49.4
1029.7645	3024.6428	926.5	45.4
1029.8755	3025.6892	929.15	49.4
1029.9864	3026.735	924.8	44.95
1030.0973	3027.7802	923.3	42.7
1030.2082	3028.8247	924.55	44.4
1030.319	3029.8685	924.35	44.9
1030.4297	3030.9118	923	43.05
1030.5404	3031.9544	922.45	43.5
1030.6511	3032.9963	924.6	43.75
1030.7617	3034.0376	920.65	41.1
1030.8723	3035.0783	928.2	46.75
1030.9829	3036.1184	927.35	46
1031.0934	3037.1578	926	48.75
1031.2038	3038.1966	928.05	47.35
1031.3142	3039.2348	924.8	45.15
1031.4246	3040.2723	933.25	45.3
1031.5349	3041.3092	925.15	46.45
1031.6452	3042.3455	924.25	44.95
1031.7554	3043.3811	927.75	48.05
1031.8656	3044.4161	928.15	49.55
1031.9758	3045.4505	926.6	48.1
1032.0859	3046.4842	927	47.35
1032.1959	3047.5173	924.55	48.4
1032.3059	3048.5498	925.05	45
1032.4159	3049.5816	929.55	51.1
1032.5258	3050.6128	926.15	45.1
1032.6357	3051.6434	926.1	45.6
1032.7455	3052.6734	928.85	49.9
1032.8553	3053.7027	926.95	48
1032.9651	3054.7314	925.7	46.75
1033.0748	3055.7594	928	48.4
1033.1845	3056.7868	927.25	47.4
1033.2941	3057.8136	924.95	47.7
1033.4037	3058.8398	927	49.75
1033.5132	3059.8653	926.65	47.25
1033.6227	3060.8902	929.8	50.75
1033.7321	3061.9145	930.95	50.9
1033.8415	3062.9381	931.9	51.9
1033.9509	3063.9612	945.05	49
1034.0602	3064.9835	934.2	55.35
1034.1694	3066.0053	932.6	48.55
1034.2787	3067.0264	929.05	50.65
1034.3878	3068.0469	935.65	53.3
1034.497	3069.0668	931.9	50.35
1034.6061	3070.086	928.1	50.45
1034.7151	3071.1046	927	47.7
1034.8241	3072.1226	930.2	48.4
1034.9331	3073.1399	926.85	47.95
1035.042	3074.1567	928.1	49.25
1035.1508	3075.1727	926.15	45.45
1035.2597	3076.1882	922.55	46.15
1035.3684	3077.203	922.1	40.9
1035.4772	3078.2173	923.1	44.35
1035.5859	3079.2308	923.8	40.45
1035.6945	3080.2438	922.4	42.15
1035.8031	3081.2561	919.4	40.7
1035.9117	3082.2678	920.35	42.05
1036.0202	3083.2789	920.3	39.8
1036.1286	3084.2893	916.25	35.85
1036.2371	3085.2991	917.85	38.35
1036.3454	3086.3083	921.35	38.15
1036.4538	3087.3169	916.8	36.35
1036.562	3088.3248	916.05	36.05
1036.6703	3089.3321	916.35	36.8
1036.7785	3090.3388	911.9	32.6
1036.8866	3091.3449	910.65	31.1
1036.9948	3092.3503	916.35	34.2
1037.1028	3093.3551	911.55	34.25
1037.2108	3094.3593	909.65	30.5
1037.3188	3095.3629	913.15	32.7
1037.4267	3096.3658	912.55	33.55
1037.5346	3097.3681	910.75	33.3
1037.6425	3098.3698	912.5	31.85
1037.7503	3099.3708	910.4	29.75
1037.858	3100.3713	910.75	30.45
1037.9657	3101.3711	911.35	32.6
1038.0734	3102.3702	1047.25	28.2
1038.181	3103.3688	911.7	32.15
1038.2886	3104.3667	904.35	26.05
1038.3961	3105.364	907.35	27.6
1038.5036	3106.3607	910	30.5
1038.611	3107.3568	909.2	27.65
1038.7184	3108.3522	908.85	30.15
1038.8257	3109.347	905.95	25.35
1038.933	3110.3412	910.35	27.3
1039.0403	3111.3348	907.65	30.2
1039.1475	3112.3277	904.1	24.25
1039.2547	3113.32	905.45	26.8
1039.3618	3114.3117	905.25	24.55
1039.4689	3115.3028	906.45	27.25
1039.5759	3116.2932	908.4	27.35
1039.6829	3117.2831	907.8	23.1
1039.7898	3118.2723	903.9	23.65
1039.8967	3119.2608	903.05	24.4
1040.0035	3120.2488	902.3	21.8
1040.1103	3121.2361	903.9	26
1040.2171	3122.2229	901.2	22.1
1040.3238	3123.209	903.8	24.4
1040.4305	3124.1944	899.7	22.05
1040.5371	3125.1793	904.25	22.65
1040.6437	3126.1635	900.1	21.15
1040.7502	3127.1471	899.4	18.8
1040.8567	3128.1301	900.2	21
1040.9631	3129.1125	899.95	20.6
1041.0695	3130.0942	900.4	21
1041.1759	3131.0753	910.3	22.55
1041.2822	3132.0558	905.05	23.95
1041.3884	3133.0357	902.7	23.5
1041.4946	3134.015	899.35	19.7
1041.6008	3134.9936	900.3	19.7
1041.7069	3135.9716	916.75	18.9
1041.813	3136.949	899.9	20.3
1041.919	3137.9258	918.25	20.2
1042.025	3138.902	902.55	18.1
1042.1309	3139.8775	898.05	19
1042.2368	3140.8524	897.15	17.9
1042.3427	3141.8267	899.3	19.05
1042.4485	3142.8004	900.25	19.55
1042.5542	3143.7735	904.85	19.3
1042.6599	3144.7459	898.8	18.05
1042.7656	3145.7178	898.05	19.5
1042.8712	3146.689	894.65	18.2
1042.9768	3147.6596	897.35	13.65
1043.0823	3148.6295	897.3	20.6
1043.1878	3149.5989	895.85	17.7
1043.2932	3150.5676	897.9	20.7
1043.3986	3151.5357	895.7	17.95
1043.5039	3152.5032	897.15	18.05
1043.6092	3153.4701	894.25	15.55
1043.7145	3154.4364	897.85	16.25
1043.8197	3155.402	892.25	13.5
1043.9248	3156.367	897.05	15.2
1044.03	3157.3315	930.2	14.55
1044.135	3158.2952	896.9	18.4
1044.24	3159.2584	895.75	18.2
1044.345	3160.221	896.8	17.5
1044.4499	3161.1829	895.6	15.1
1044.5548	3162.1442	894.9	16.35
1044.6596	3163.105	895.9	15.75
1044.7644	3164.065	896.3	18.7
1044.8692	3165.0245	895.85	13.05
1044.9739	3165.9834	893.4	16.45
1045.0785	3166.9416	894.75	14.7
1045.1831	3167.8993	896.6	15.5
1045.2877	3168.8563	893.55	14.95
1045.3922	3169.8127	894.5	17.45
1045.4966	3170.7684	895.9	17.8
1045.6011	3171.7236	896.9	16.55
1045.7054	3172.6782	894.5	16.35
1045.8098	3173.6321	894.95	14.25
1045.914	3174.5854	898.95	15.05
1046.0183	3175.5381	895.95	15.1
1046.1224	3176.4902	891.95	11.2
1046.2266	3177.4417	893.05	12.1
1046.3307	3178.3926	892.4	13.85
1046.4347	3179.3428	890.95	12.65
1046.5387	3180.2924	893.5	16.95
1046.6427	3181.2415	893.2	15.65
1046.7466	3182.1899	895.15	14.65
1046.8504	3183.1377	891.3	13.45
1046.9542	3184.0848	896.95	13.95
1047.058	3185.0314	894.45	15.95
1047.1617	3185.9773	892.2	14.2
1047.2654	3186.9227	893.75	15.9
1047.369	3187.8674	891.35	14.2
1047.4726	3188.8115	895.65	12.75
1047.5761	3189.755	893.55	14.6
1047.6796	3190.6979	893.35	15.25
1047.783	3191.6402	890.15	10.2
1047.8864	3192.5818	890.8	12.85
1047.9898	3193.5229	917.8	11.95
1048.0931	3194.4633	893.25	13.25
1048.1963	3195.4031	892.2	13.2
1048.2995	3196.3423	892.3	13.05
1048.4027	3197.2809	892.5	13.2
1048.5058	3198.2189	891.2	10.9
1048.6089	3199.1563	899.25	13.8
1048.7119	3200.0931	891.7	13.45
1048.8148	3201.0292	888.75	9.05
1048.9178	3201.9648	890.3	10.65
1049.0206	3202.8997	893.7	11.85
1049.1235	3203.834	892.5	13.3
1049.2262	3204.7677	889.55	9.95
1049.329	3205.7008	892.55	10.8
1049.4317	3206.6333	890.3	13.55
1049.5343	3207.5652	893.3	10.9
1049.6369	3208.4964	893	14.85
1049.7394	3209.4271	890.45	11.3
1049.8419	3210.3571	890.65	11.9
1049.9444	3211.2865	890.35	10.9
1050.0468	3212.2154	891.5	12.2
1050.1491	3213.1436	893.1	11.45
1050.2514	3214.0712	896.7	11.2
1050.3537	3214.9982	890.85	11.9
1050.4559	3215.9246	890.7	11.3
1050.5581	3216.8503	889.35	10
1050.6602	3217.7755	890.4	11.65
1050.7623	3218.7001	888.65	12.05
1050.8643	3219.624	890.8	11.7
1050.9663	3220.5473	891.6	11.95
1051.0682	3221.4701	890.7	9.35
1051.1701	3222.3922	892.65	10.8
1051.2719	3223.3137	890.05	10.65
1051.3737	3224.2346	890.1	10.95
1051.4754	3225.1549	888.45	8.7
1051.5771	3226.0746	889	11
1051.6788	3226.9937	889.15	9.15
1051.7804	3227.9121	887.4	9.9
1051.8819	3228.83	888.45	9.15
1051.9834	3229.7473	889.75	8.95
1052.0849	3230.6639	890.55	8.25
1052.1863	3231.5799	891.1	12.45
1052.2876	3232.4954	889.1	7.65
1052.3889	3233.4102	889.45	11.4
1052.4902	3234.3244	890.3	10.4
1052.5914	3235.238	889	10.2
1052.6926	3236.151	912.35	8.95
1052.7937	3237.0634	889.05	12.45
1052.8948	3237.9752	885.85	5.6
1052.9958	3238.8864	888.2	10.7
1053.0968	3239.797	890.35	12.1
1053.1977	3240.7069	888	7.7
1053.2986	3241.6163	889.05	10.15
1053.3994	3242.5251	887.2	8.75
1053.5002	3243.4332	888.1	9.65
1053.6009	3244.3408	886.8	7.3
1053.7016	3245.2477	887.55	7.95
1053.8022	3246.154	890.6	11.35
1053.9028	3247.0598	886.65	7.35
1054.0034	3247.9649	889.65	10.6
1054.1039	3248.8694	889.25	10.65
1054.2043	3249.7733	887.55	8.1
1054.3047	3250.6766	886.4	7.8
1054.4051	3251.5793	887.95	8.3
1054.5054	3252.4814	888	10.3
1054.6056	3253.3829	888.35	9.9
1054.7058	3254.2838	885.85	5.75
1054.806	3255.1841	886.75	8.5
1054.9061	3256.0838	886.45	4.75
1055.0061	3256.9829	887.5	10.6
1055.1062	3257.8814	888.5	7.3
1055.2061	3258.7792	886.45	5.1
1055.306	3259.6765	888.7	8.9
1055.4059	3260.5731	886.7	8.55
1055.5057	3261.4692	887.05	6.35
1055.6055	3262.3647	885.3	5.2
1055.7052	3263.2595	886.6	7
1055.8049	3264.1538	886.05	6.9
1055.9045	3265.0474	885.65	6.15
1056.0041	3265.9404	885.05	7.05
1056.1036	3266.8329	886.95	8.1
1056.2031	3267.7247	896.5	8.45
1056.3025	3268.616	886.6	9.55
1056.4019	3269.5066	886.55	7.3
1056.5013	3270.3966	886.5	5.45
1056.6005	3271.286	883.6	4.2
