Software Version:	3.9.2.0
Unit SN:	10000200
Spectrometer SN:	6960
Date:	3/8/2024 12:14:49 PM
Data Line Index:	25
Spectral Points:	2048
Integration time (ms):	125
Averages:	20
Delay (ms):	30000
Sequence Number:	1
Processing:	dark subtract
Laser Power (mW):	305
Laser Current (mA):	822
Laser Diode Temp (C):	25
Laser Case Temp (C):	25.7
System Temp (C):	25.7
Spectrometer Temp (C):	23.5
CCD Temp (C):	0.009
Secondary Temp (C):	20.013
Heatsink Temp (C):	20.122
CCDPCB Temp (C):	35.518
SecondaryPCB Temp (C):	28.126

Wavelength	RamanShift	Raw Counts	Dark Subtracted
787.061	30.1047	432.8	23.85
787.2016	32.3739	433.25	25.95
787.3422	34.6426	435.7	29.55
787.4828	36.9109	439.7	30.5
787.6235	39.1787	446.25	31.75
787.7642	41.4461	452.45	34.6
787.9049	43.7131	456.8	36.75
788.0456	45.9796	466.85	45.15
788.1863	48.2456	471.55	44.65
788.3271	50.5112	481.05	50
788.4679	52.7764	486.15	50.55
788.6087	55.0411	498.15	57.35
788.7496	57.3054	504.35	57.7
788.8904	59.5692	511.9	65.75
789.0313	61.8326	516.45	67.35
789.1722	64.0955	524.75	72.95
789.3132	66.3579	539.75	83.85
789.4541	68.6199	551.9	90.3
789.5951	70.8815	579.55	114.9
789.7361	73.1426	631.3	162.4
789.8771	75.4032	776.95	304.75
790.0181	77.6634	1117.6	641.4
790.1592	79.9231	1929	1444.7
790.3003	82.1824	3635.35	3144.05
790.4414	84.4412	6583.95	6073.6
790.5825	86.6995	10497.05	9965.7
790.7237	88.9574	14131.35	13585.35
790.8648	91.2148	16539.3	15980.95
791.006	93.4717	17568.35	17002.1
791.1472	95.7282	17620.8	17048.1
791.2885	97.9842	17328.8	16755.15
791.4297	100.2398	16729.6	16152.25
791.571	102.4949	16116.1	15534.05
791.7123	104.7495	15475	14888.9
791.8536	107.0036	14812.75	14226.8
791.9949	109.2573	14241.8	13658.45
792.1363	111.5105	13687.7	13100.35
792.2777	113.7632	13186.4	12596.65
792.4191	116.0154	12795.8	12194.35
792.5605	118.2672	12540.85	11946
792.7019	120.5185	12235	11639.6
792.8434	122.7693	12044.15	11447.3
792.9849	125.0197	11853.05	11250.25
793.1264	127.2696	11676.1	11068.9
793.2679	129.519	11534.3	10925.5
793.4094	131.7679	11340.25	10730.35
793.551	134.0163	11153.15	10536.15
793.6926	136.2642	10881.8	10263.85
793.8342	138.5117	10645.7	10017
793.9758	140.7587	10348.7	9727.7
794.1175	143.0052	10087.5	9461.3
794.2591	145.2512	9837.9	9209.05
794.4008	147.4967	9559.25	8931.2
794.5425	149.7417	9397.2	8767.3
794.6842	151.9863	9254.05	8621.4
794.826	154.2304	9158.5	8519.15
794.9677	156.4739	9059.75	8417.65
795.1095	158.717	8997.65	8352.7
795.2513	160.9596	8907.3	8257.45
795.3931	163.2017	8757.8	8107
795.535	165.4433	8578	7927.25
795.6768	167.6844	8344.55	7690.5
795.8187	169.925	8142.95	7483.45
795.9606	172.1651	7897.15	7236.65
796.1025	174.4047	7725.4	7063.65
796.2445	176.6439	7555.45	6889.45
796.3864	178.8825	7420.55	6749.7
796.5284	181.1206	7316.65	6643.85
796.6704	183.3582	7221.2	6540.05
796.8124	185.5954	7175.1	6497.2
796.9544	187.832	7110.45	6428.65
797.0965	190.0681	7083.1	6398.8
797.2386	192.3037	7082.65	6396.85
797.3806	194.5388	7080.8	6389.25
797.5228	196.7734	7090.75	6399.35
797.6649	199.0075	7135.6	6440.45
797.807	201.2411	7195.6	6501.5
797.9492	203.4742	7260.6	6560.25
798.0914	205.7068	7372.7	6670.85
798.2336	207.9389	7426.55	6725.35
798.3758	210.1704	7529.5	6829.95
798.518	212.4015	7613.15	6925.35
798.6603	214.632	7680.8	7000.7
798.8025	216.862	7782.85	7102.55
798.9448	219.0915	7841.35	7157.95
799.0871	221.3205	7884	7201.65
799.2294	223.549	7929.9	7250
799.3718	225.777	7968.35	7290.55
799.5141	228.0044	7969.6	7280.7
799.6565	230.2314	7979.85	7291.1
799.7989	232.4578	8013.75	7322.35
799.9413	234.6837	8052.05	7350.75
800.0837	236.909	8076.55	7375
800.2262	239.1339	8074.4	7347
800.3687	241.3582	8046.2	7332.35
800.5111	243.582	8020.15	7277.5
800.6536	245.8053	7970.4	7238.9
800.7961	248.0281	7952.55	7229.6
800.9387	250.2503	7971.35	7244.95
801.0812	252.472	8026.75	7296.7
801.2238	254.6932	8122.8	7394.3
801.3664	256.9139	8199.2	7469.6
801.509	259.134	8316	7580.9
801.6516	261.3536	8462.75	7731.8
801.7942	263.5727	8711.3	7977.9
801.9369	265.7912	8934.55	8198.95
802.0795	268.0092	9165.7	8432.4
802.2222	270.2267	9380.6	8646.3
802.3649	272.4436	9543.95	8805.95
802.5076	274.6601	9612.05	8859.75
802.6504	276.8759	9585.2	8843.8
802.7931	279.0913	9558.15	8817.95
802.9359	281.3061	9492.05	8748.8
803.0787	283.5204	9465.55	8717.85
803.2215	285.7341	9448	8697.1
803.3643	287.9473	9445.25	8690.5
803.5071	290.16	9438.75	8681.7
803.6499	292.3721	9437.9	8690.8
803.7928	294.5837	9512.55	8761.55
803.9357	296.7947	9589.8	8837.1
804.0786	299.0052	9701.5	8949.05
804.2215	301.2152	9737.45	8982.75
804.3644	303.4246	9715.65	8967.25
804.5074	305.6334	9531.1	8780.25
804.6503	307.8418	9298.05	8543.35
804.7933	310.0495	9035.5	8278.45
804.9363	312.2568	8761.4	8003.6
805.0793	314.4635	8444.85	7684.8
805.2223	316.6696	8177.1	7415.85
805.3653	318.8752	7995.4	7223.4
805.5084	321.0802	7896.65	7131.55
805.6514	323.2847	7867.05	7102.3
805.7945	325.4887	7913.05	7150.9
805.9376	327.692	7951.1	7182.9
806.0807	329.8949	7930.1	7160.05
806.2238	332.0972	7846.3	7075.7
806.367	334.2989	7736.75	6962.7
806.5101	336.5001	7580.8	6808.4
806.6533	338.7007	7443.85	6671.35
806.7965	340.9008	7328.7	6551.7
806.9397	343.1003	7178.35	6403.15
807.0829	345.2992	7053.45	6274.6
807.2261	347.4976	6956.1	6175.6
807.3693	349.6955	6921.95	6139.4
807.5126	351.8927	6876.4	6091.4
807.6559	354.0895	6802.35	6007.4
807.7991	356.2856	6767.6	5981.8
807.9424	358.4812	6710.5	5925.1
808.0857	360.6763	6700.6	5913.45
808.2291	362.8707	6668.95	5878.95
808.3724	365.0646	6692.9	5900.55
808.5158	367.258	6750	5957.2
808.6591	369.4508	6795.9	5999.45
808.8025	371.643	6879	6080.7
808.9459	373.8346	6953.85	6156.7
809.0893	376.0257	7085.3	6280.65
809.2327	378.2162	7129.25	6328.9
809.3762	380.4062	7137.45	6338
809.5196	382.5956	7091.85	6293.35
809.6631	384.7844	7011.2	6215.4
809.8066	386.9726	6894.35	6103.05
809.9501	389.1603	6810.25	6017.5
810.0936	391.3474	6793.65	5967.4
810.2371	393.5339	6773.05	5975.4
810.3806	395.7199	6750.2	5955.45
810.5241	397.9052	6803.55	6013.05
810.6677	400.09	6868.15	6072.7
810.8113	402.2743	6995.75	6203.95
810.9548	404.4579	7149.55	6352.95
811.0984	406.641	7295.5	6495.25
811.2421	408.8235	7396.55	6595.55
811.3857	411.0054	7477	6676.75
811.5293	413.1868	7547.65	6740.95
811.673	415.3675	7606.7	6797.45
811.8166	417.5477	7558.9	6747.95
811.9603	419.7273	7483.35	6671.5
812.104	421.9064	7404.5	6587
812.2477	424.0848	7371.7	6558.5
812.3914	426.2627	7289.9	6478.7
812.5351	428.4399	7138.65	6329.3
812.6788	430.6166	6910.1	6095.4
812.8226	432.7928	6703.45	5884.7
812.9663	434.9683	6480.4	5663.8
813.1101	437.1432	6312.4	5493.2
813.2539	439.3176	6220.95	5405.5
813.3977	441.4914	6134.9	5322.05
813.5415	443.6645	6116.05	5300.25
813.6853	445.8371	6074.35	5255.9
813.8291	448.0091	6050.65	5232
813.973	450.1806	6048.65	5233.1
814.1168	452.3514	6058.15	5241.95
814.2607	454.5216	6092.55	5263.65
814.4046	456.6913	6094.1	5271.45
814.5485	458.8603	6110.5	5288.5
814.6924	461.0288	6132.85	5315.75
814.8363	463.1967	6136.95	5320.4
814.9802	465.3639	6136.45	5313.8
815.1241	467.5306	6109.7	5289.15
815.2681	469.6967	6081.65	5258.9
815.412	471.8622	6078.85	5257.25
815.556	474.0271	6097.5	5278.5
815.7	476.1914	6126.95	5300.35
815.844	478.3551	6143.25	5317.9
815.988	480.5182	6157.2	5333.5
816.132	482.6807	6230.95	5412
816.276	484.8426	6344.6	5530.35
816.4201	487.0039	6596.35	5776.3
816.5641	489.1647	6858.65	6034.95
816.7082	491.3248	7093.15	6266.4
816.8522	493.4843	7138.6	6312.6
816.9963	495.6432	7075.25	6252.9
817.1404	497.8015	6989.85	6154.6
817.2845	499.9592	6870.05	6035.15
817.4286	502.1163	6719.2	5886.15
817.5727	504.2728	6517.25	5685.65
817.7168	506.4287	6328.9	5505.9
817.861	508.5839	6115.1	5288.65
818.0051	510.7386	6013.35	5182.95
818.1493	512.8927	5968.5	5132.7
818.2935	515.0461	5971.6	5140.35
818.4377	517.199	6024.6	5188.65
818.5818	519.3512	6160.15	5324.35
818.726	521.5029	6395.35	5555.5
818.8703	523.6539	6607.6	5774.6
819.0145	525.8043	6733.4	5895.9
819.1587	527.9541	6674.7	5831.75
819.303	530.1033	6479.4	5643.3
819.4472	532.2519	6306.6	5469.05
819.5915	534.3999	6222.95	5382.35
819.7357	536.5472	6234.6	5397.25
819.88	538.694	6325.1	5488.25
820.0243	540.8401	6465.8	5626.1
820.1686	542.9856	6582.15	5738
820.3129	545.1305	6607.8	5760.65
820.4572	547.2748	6556	5707.6
820.6016	549.4185	6460.4	5610.75
820.7459	551.5615	6404.6	5560.45
820.8902	553.704	6435.55	5587.55
821.0346	555.8458	6524.85	5681.8
821.1789	557.987	6652.85	5808
821.3233	560.1276	6826.45	5978.45
821.4677	562.2675	7143.6	6297.05
821.6121	564.4069	7564.15	6719.95
821.7565	566.5456	7969.55	7126.6
821.9009	568.6837	8143.9	7300.2
822.0453	570.8212	7877.85	7034.8
822.1897	572.958	7340	6490.85
822.3342	575.0942	6824.4	5979.3
822.4786	577.2299	6470.1	5627.4
822.6231	579.3648	6272.85	5434.1
822.7675	581.4992	6227.8	5392.15
822.912	583.6329	6263.85	5428.7
823.0565	585.766	6377.75	5539.6
823.201	587.8985	6498.35	5658.45
823.3454	590.0304	6581.4	5708.4
823.4899	592.1616	6594.45	5744.7
823.6345	594.2922	6556.45	5705.6
823.779	596.4222	6418.25	5564.2
823.9235	598.5515	6261.9	5407.95
824.068	600.6802	6148.25	5298.35
824.2126	602.8083	6033.9	5182.25
824.3571	604.9358	6009.45	5154.2
824.5017	607.0626	6040.85	5186.95
824.6462	609.1888	6099.1	5242.5
824.7908	611.3144	6252.9	5394.55
824.9354	613.4393	6389.8	5531.45
825.08	615.5636	6539.45	5684.5
825.2246	617.6873	6587.75	5732.5
825.3692	619.8103	6556.5	5696.55
825.5138	621.9327	6397.85	5540.1
825.6584	624.0544	6191.75	5337.65
825.803	626.1756	6028.7	5174.35
825.9477	628.2961	5931.2	5072.8
826.0923	630.4159	5862.1	5004.65
826.237	632.5351	5830.3	4972.05
826.3816	634.6537	5842.9	4984.05
826.5263	636.7716	5836.65	4973.75
826.6709	638.8889	5874.05	5011.7
826.8156	641.0056	5885.8	5022.55
826.9603	643.1216	5874.45	5011.8
827.105	645.237	5875.25	5008.8
827.2497	647.3518	5797.15	4939.35
827.3944	649.4659	5721.05	4863.8
827.5391	651.5793	5657.8	4798.6
827.6838	653.6922	5638	4778.05
827.8285	655.8043	5640.55	4785.8
827.9733	657.9159	5625.9	4765
828.118	660.0268	5619.2	4759.9
828.2627	662.137	5643.9	4779.8
828.4075	664.2466	5650.1	4786.75
828.5522	666.3556	5647.35	4783.05
828.697	668.4639	5610.95	4746.05
828.8418	670.5716	5565	4704.3
828.9865	672.6786	5525.15	4659.4
829.1313	674.785	5459.5	4590.9
829.2761	676.8907	5421.15	4555.95
829.4209	678.9958	5437.8	4575.05
829.5657	681.1002	5402.85	4533.85
829.7105	683.204	5409.6	4539.2
829.8553	685.3072	5384.15	4516.5
830.0001	687.4097	5385.7	4517.75
830.1449	689.5115	5390.3	4521.5
830.2898	691.6127	5388.5	4522.7
830.4346	693.7132	5369.1	4503.05
830.5794	695.8131	5410.2	4518.4
830.7243	697.9123	5427.9	4556.1
830.8691	700.0109	5452.65	4578.7
831.014	702.1089	5495.9	4627.95
831.1588	704.2061	5552	4680.8
831.3037	706.3028	5612.8	4740.5
831.4486	708.3987	5665.75	4797.4
831.5935	710.4941	5676.85	4807.5
831.7383	712.5887	5701.85	4832.55
831.8832	714.6827	5701.9	4826.45
832.0281	716.7761	5735.45	4866.6
832.173	718.8688	5820.85	4951.6
832.3179	720.9608	5899.65	5024.15
832.4628	723.0522	6009.05	5130.25
832.6077	725.1429	6101.5	5227.6
832.7527	727.233	6218.8	5346.8
832.8976	729.3224	6313.75	5438.1
833.0425	731.4112	6313	5440.05
833.1874	733.4993	6237.25	5360.95
833.3324	735.5867	6058.95	5182
833.4773	737.6735	5857.4	4983.55
833.6222	739.7596	5701.3	4823.5
833.7672	741.845	5600.75	4724.15
833.9122	743.9298	5522.95	4646.85
834.0571	746.014	5514	4640.05
834.2021	748.0974	5503.6	4624.8
834.347	750.1802	5507.85	4629.15
834.492	752.2624	5518	4640.9
834.637	754.3439	5560.8	4678.6
834.782	756.4247	5627	4741.2
834.9269	758.5048	5735.05	4854.25
835.0719	760.5843	5903.3	5023.15
835.2169	762.6631	6152.6	5270.9
835.3619	764.7413	6542.1	5665.3
835.5069	766.8188	7055.8	6174.5
835.6519	768.8956	7487.55	6606.45
835.7969	770.9718	7831.9	6952.5
835.9419	773.0473	7868.75	6990
836.0869	775.1221	7720.8	6841.05
836.232	777.1962	7567.65	6687.15
836.377	779.2697	7543.4	6661.3
836.522	781.3426	7668.9	6767.85
836.667	783.4147	7781.35	6900.1
836.8121	785.4862	7789.4	6911.6
836.9571	787.557	7657.15	6775.75
837.1021	789.6271	7254.05	6372.05
837.2472	791.6966	6753.55	5873.25
837.3922	793.7654	6315.95	5430.85
837.5373	795.8335	5971.95	5089.15
837.6823	797.901	5737.9	4854.85
837.8274	799.9678	5615.65	4730.7
837.9724	802.0339	5534.75	4651.85
838.1175	804.0993	5504.4	4610.55
838.2626	806.1641	5473.6	4591.7
838.4076	808.2282	5417.95	4535.75
838.5527	810.2916	5362.25	4477.3
838.6978	812.3544	5306	4423.4
838.8428	814.4164	5257.2	4373.95
838.9879	816.4778	5282.6	4395.55
839.133	818.5385	5313.4	4426.35
839.2781	820.5986	5419.2	4534.3
839.4232	822.658	5585.65	4698.65
839.5682	824.7166	5815.35	4930.35
839.7133	826.7747	6230.35	5346.9
839.8584	828.832	6663.05	5775.8
840.0035	830.8886	7043.95	6154.95
840.1486	832.9446	7240.4	6352.5
840.2937	834.9999	7159.9	6276.45
840.4388	837.0545	6917.05	6029.1
840.5839	839.1085	6600.2	5711.5
840.729	841.1618	6297.15	5402.95
840.8741	843.2143	6068.45	5184.75
841.0192	845.2662	5911.45	5025.05
841.1643	847.3175	5815.3	4926.35
841.3095	849.368	5738.15	4848.85
841.4546	851.4179	5674.55	4789.5
841.5997	853.467	5615.7	4729.1
841.7448	855.5155	5579.25	4689.9
841.8899	857.5633	5533.5	4643.65
842.0351	859.6105	5470.15	4583.25
842.1802	861.6569	5416.7	4525.7
842.3253	863.7027	5355.85	4465.05
842.4704	865.7478	5326.6	4438.9
842.6156	867.7922	5282.2	4395.75
842.7607	869.8359	5261.95	4372.05
842.9058	871.8789	5265.45	4376.75
843.0509	873.9212	5301.45	4379.15
843.1961	875.9629	5323.8	4433.85
843.3412	878.0039	5417.1	4524.85
843.4863	880.0441	5437.2	4549.4
843.6315	882.0837	5510.15	4619
843.7766	884.1226	5534.4	4641.8
843.9218	886.1609	5624.4	4734.85
844.0669	888.1984	5753.1	4864.05
844.212	890.2352	5874.65	4983.1
844.3572	892.2714	5936.9	5041.1
844.5023	894.3069	5912.7	5021.9
844.6475	896.3416	5780.35	4888.85
844.7926	898.3757	5633.1	4740.55
844.9377	900.4091	5529.55	4637.6
845.0829	902.4418	5507.5	4611.8
845.228	904.4739	5524.8	4630.35
845.3732	906.5052	5594.9	4699.7
845.5183	908.5358	5604.5	4714.25
845.6635	910.5658	5537.8	4644.1
845.8086	912.595	5389.3	4496.45
845.9538	914.6236	5211.3	4320.15
846.0989	916.6515	5087.65	4194.7
846.2441	918.6786	5013.65	4117.95
846.3892	920.7051	4985.35	4090.1
846.5344	922.7309	5006.95	4114.8
846.6795	924.756	5024.95	4134.1
846.8246	926.7804	5061.8	4165.7
846.9698	928.8041	5075.15	4182.55
847.1149	930.8272	5134.4	4240.3
847.2601	932.8495	5127.65	4232.15
847.4052	934.8711	5123.95	4229.85
847.5504	936.892	5129.75	4236.6
847.6955	938.9123	5160.55	4264.05
847.8407	940.9318	5212.75	4319.5
847.9858	942.9506	5246.15	4351.9
848.131	944.9688	5228.15	4334.15
848.2761	946.9862	5156.65	4261.9
848.4213	949.003	5041	4144.8
848.5664	951.019	4952.7	4057.4
848.7115	953.0344	4866.65	3973
848.8567	955.0491	4856.4	3959.15
849.0018	957.063	4852.45	3956
849.147	959.0763	4895.35	4002.05
849.2921	961.0888	4932.6	4038.35
849.4373	963.1007	4961.6	4067.25
849.5824	965.1119	4947.75	4056.55
849.7275	967.1223	4953.7	4066.3
849.8727	969.1321	4935.5	4048.55
850.0178	971.1412	4908.85	4020.1
850.1629	973.1495	4888.9	3994
850.3081	975.1572	4945.35	4016.25
850.4532	977.1641	4927.25	4031.45
850.5983	979.1704	4901.05	4003.2
850.7435	981.1759	4894.1	3996.85
850.8886	983.1808	4866.55	3967.9
851.0337	985.1849	4885.2	3972.95
851.1788	987.1884	4907.75	4009.7
851.324	989.1911	4972.65	4074.55
851.4691	991.1932	4993.9	4098.5
851.6142	993.1945	5026.75	4130.95
851.7593	995.1951	5001.85	4105.5
851.9045	997.1951	4983.55	4080.65
852.0496	999.1943	4950.65	4054.4
852.1947	1001.1928	4982.1	4087.35
852.3398	1003.1906	5022.9	4125.45
852.4849	1005.1877	5128.75	4232.35
852.63	1007.1841	5206.4	4311.9
852.7751	1009.1798	5275.9	4378.35
852.9202	1011.1748	5239	4344.3
853.0653	1013.1691	5139.05	4242.45
853.2104	1015.1627	5012	4113.8
853.3555	1017.1556	4876.85	3982.8
853.5006	1019.1477	4783.35	3886.9
853.6457	1021.1392	4705.2	3812.85
853.7908	1023.1299	4665.15	3771.4
853.9359	1025.12	4676.9	3786.25
854.081	1027.1093	4730.15	3845.7
854.2261	1029.0979	4797.85	3916.75
854.3712	1031.0859	4879.85	3992.9
854.5163	1033.0731	4947.65	4058.4
854.6613	1035.0596	4932.15	4039.05
854.8064	1037.0454	4857.85	3967.55
854.9515	1039.0304	4811.4	3914.9
855.0965	1041.0148	4724.2	3826.55
855.2416	1042.9985	4663.9	3766.85
855.3867	1044.9814	4605.2	3711.8
855.5317	1046.9636	4576.45	3679.5
855.6768	1048.9452	4577.7	3681.85
855.8219	1050.926	4619.75	3723
855.9669	1052.9061	4647.65	3751.5
856.112	1054.8855	4673.9	3776.05
856.257	1056.8642	4726.6	3831.75
856.4021	1058.8421	4743.8	3843.9
856.5471	1060.8194	4750.35	3856.3
856.6921	1062.7959	4778.85	3882.45
856.8372	1064.7717	4833.75	3934.6
856.9822	1066.7469	4872.3	3975.2
857.1272	1068.7213	4941.6	4042.9
857.2723	1070.695	5027.1	4131.7
857.4173	1072.6679	5087.95	4189.5
857.5623	1074.6402	5124.65	4226
857.7073	1076.6117	5113.2	4214.05
857.8523	1078.5826	5014.85	4113.9
857.9973	1080.5527	4900.2	4001.05
858.1423	1082.5221	4784.85	3887.65
858.2873	1084.4908	4724.95	3828.2
858.4323	1086.4587	4697.8	3800.85
858.5773	1088.426	4703.5	3805.85
858.7223	1090.3925	4715.1	3813.45
858.8673	1092.3584	4741.75	3845.85
859.0123	1094.3235	4768.2	3872
859.1573	1096.2879	4854.35	3960.05
859.3022	1098.2515	4955.15	4059.1
859.4472	1100.2145	5101.4	4204.5
859.5922	1102.1767	5238.45	4342.95
859.7371	1104.1382	5426.3	4529.2
859.8821	1106.099	5620.8	4719.9
860.027	1108.0591	5804.7	4904.6
860.172	1110.0185	5912.55	5012.1
860.3169	1111.9771	5986.2	5089.3
860.4619	1113.9351	5957.85	5061.7
860.6068	1115.8923	5913.55	5015.55
860.7517	1117.8488	5853	4953.65
860.8967	1119.8045	5744.4	4846.75
861.0416	1121.7596	5623.5	4725.9
861.1865	1123.7139	5483.95	4586.35
861.3314	1125.6675	5403.15	4505.2
861.4763	1127.6204	5427.65	4531.65
861.6212	1129.5726	5426.1	4526.75
861.7661	1131.524	5380.55	4483.6
861.911	1133.4748	5267.7	4368.9
862.0559	1135.4248	5109.3	4209.25
862.2008	1137.3741	4962.85	4068.2
862.3457	1139.3226	4853.85	3954.55
862.4905	1141.2705	4820.9	3924.45
862.6354	1143.2176	4814.8	3914
862.7803	1145.164	4782.95	3882.55
862.9251	1147.1097	4733.9	3836.85
863.07	1149.0546	4658.05	3758.05
863.2148	1150.9989	4565.2	3665.85
863.3597	1152.9424	4482.4	3585.7
863.5045	1154.8852	4419.5	3522.15
863.6493	1156.8272	4394.65	3500.2
863.7942	1158.7686	4420.9	3515.6
863.939	1160.7092	4425.7	3527.3
864.0838	1162.6491	4462.8	3563.45
864.2286	1164.5883	4551.05	3653.6
864.3734	1166.5267	4611.1	3712.95
864.5182	1168.4644	4738.45	3840.85
864.663	1170.4014	4865.05	3962
864.8078	1172.3377	5053.55	4157.2
864.9526	1174.2732	5234.4	4338.1
865.0974	1176.2081	5562.1	4666.05
865.2421	1178.1421	5956.7	5054.65
865.3869	1180.0755	6397.65	5500.15
865.5317	1182.0082	6766.3	5870.7
865.6764	1183.9401	6914.95	6017.4
865.8212	1185.8713	6795.4	5900.9
865.9659	1187.8017	6527.5	5634.85
866.1106	1189.7315	6167.9	5282.55
866.2554	1191.6605	5826.1	4937
866.4001	1193.5888	5591.65	4700.9
866.5448	1195.5163	5452.25	4558.7
866.6895	1197.4432	5347.55	4451.45
866.8342	1199.3693	5278.55	4385.7
866.9789	1201.2947	5234.4	4337.15
867.1236	1203.2193	5216.55	4318.35
867.2683	1205.1432	5213.9	4316.1
867.413	1207.0664	5190.3	4292.7
867.5576	1208.9889	5173.05	4273.85
867.7023	1210.9106	5187	4291.65
867.847	1212.8316	5193.2	4297.7
867.9916	1214.7519	5216.95	4311.9
868.1363	1216.6715	5252.65	4358.05
868.2809	1218.5903	5307.15	4409.05
868.4255	1220.5084	5378.65	4481.6
868.5701	1222.4257	5466	4570.85
868.7148	1224.3424	5534.45	4639.7
868.8594	1226.2583	5686	4785.9
869.004	1228.1735	5801	4905.1
869.1486	1230.0879	5941.65	5043.9
869.2932	1232.0016	6111.75	5215.4
869.4377	1233.9146	6293.05	5393.85
869.5823	1235.8269	6345.5	5447.8
869.7269	1237.7384	6359.05	5461.9
869.8715	1239.6492	6285.25	5388.05
870.016	1241.5592	6246.8	5349.75
870.1606	1243.4686	6323.1	5429.2
870.3051	1245.3772	6508.35	5612.9
870.4496	1247.285	6715.1	5818.8
870.5941	1249.1922	6962.7	6065.95
870.7387	1251.0986	7142.65	6245.05
870.8832	1253.0042	7280.95	6384.3
871.0277	1254.9092	7429.7	6534.4
871.1722	1256.8134	7545.75	6651.25
871.3167	1258.7169	7671.25	6774
871.4611	1260.6196	7750.05	6855.55
871.6056	1262.5216	7885.2	6988.25
871.7501	1264.4229	8038.3	7144.4
871.8945	1266.3234	8190.9	7295.55
872.039	1268.2232	8306.45	7407.25
872.1834	1270.1223	8365.3	7466.75
872.3278	1272.0207	8377.55	7480
872.4723	1273.9183	8347.05	7445.05
872.6167	1275.8151	8315.05	7416.65
872.7611	1277.7113	8301	7402.85
872.9055	1279.6067	8383.55	7489.1
873.0499	1281.5014	8658.65	7760.15
873.1943	1283.3953	9090.95	8194.75
873.3386	1285.2885	9653.75	8759.2
873.483	1287.181	10257.15	9359.4
873.6274	1289.0727	10841.25	9945.85
873.7717	1290.9637	11241.95	10346.1
873.9161	1292.854	11522.65	10625.5
874.0604	1294.7435	11519.25	10623.85
874.2047	1296.6323	11376.65	10480.9
874.349	1298.5204	11099	10200.65
874.4933	1300.4077	10783.95	9886.65
874.6376	1302.2943	10442.75	9545.95
874.7819	1304.1802	10031.75	9135.5
874.9262	1306.0653	9574.35	8677.05
875.0705	1307.9497	9115.8	8220.65
875.2147	1309.8333	8695.55	7802.5
875.359	1311.7162	8386.05	7489.75
875.5032	1313.5984	8205.95	7305.7
875.6475	1315.4798	8070	7162.45
875.7917	1317.3605	7987.4	7074.75
875.9359	1319.2405	7908.35	7009.1
876.0801	1321.1197	7711.8	6814.7
876.2243	1322.9982	7444.5	6543.75
876.3685	1324.876	7166.6	6272.7
876.5127	1326.753	6873.9	5977.45
876.6569	1328.6293	6655.05	5757.35
876.801	1330.5048	6424.15	5525.85
876.9452	1332.3796	6227.75	5330.4
877.0893	1334.2537	6112.2	5189.6
877.2335	1336.127	5987.55	5090.7
877.3776	1337.9996	5900.75	5006.05
877.5217	1339.8714	5873.5	4976.25
877.6658	1341.7426	5909.45	4970.15
877.8099	1343.6129	5857.25	4959.4
877.954	1345.4826	5855.25	4957.75
878.0981	1347.3515	5872.9	4975.45
878.2422	1349.2196	5830.85	4932.1
878.3862	1351.087	5836.5	4938
878.5303	1352.9537	5872	4974.9
878.6743	1354.8197	5931.2	5033.8
878.8184	1356.6849	6042.65	5145.6
878.9624	1358.5493	6161.5	5266.5
879.1064	1360.4131	6334.1	5437.6
879.2504	1362.276	6486.9	5591.4
879.3944	1364.1383	6561.35	5664.5
879.5384	1365.9998	6516.9	5614.25
879.6823	1367.8606	6318.2	5420.05
879.8263	1369.7206	6119.8	5223.6
879.9702	1371.5799	5912.4	5012.45
880.1142	1373.4384	5722.25	4824.35
880.2581	1375.2962	5571.5	4673.9
880.402	1377.1533	5360.1	4464.65
880.5459	1379.0096	5091.95	4195.35
880.6898	1380.8652	4857.95	3964.95
880.8337	1382.7201	4647.15	3751.95
880.9776	1384.5742	4482.05	3587
881.1215	1386.4275	4361.85	3464.95
881.2653	1388.2802	4267.1	3373.55
881.4092	1390.132	4189.05	3291.15
881.553	1391.9832	4148.25	3252.4
881.6968	1393.8336	4083.7	3186.3
881.8406	1395.6832	4060.5	3160.45
881.9844	1397.5322	4032.85	3136.25
882.1282	1399.3803	4008.1	3106.6
882.272	1401.2278	3988.3	3090.65
882.4158	1403.0745	3973.65	3077.4
882.5595	1404.9204	3956.65	3062.2
882.7033	1406.7656	3950.05	3055.45
882.847	1408.6101	3954.45	3056.25
882.9908	1410.4538	3976.3	3079.6
883.1345	1412.2968	4000.45	3103.45
883.2782	1414.139	4023.95	3127.95
883.4219	1415.9805	4070.35	3175.2
883.5656	1417.8213	4124.35	3208.9
883.7092	1419.6613	4205.45	3311
883.8529	1421.5006	4310.2	3411.75
883.9965	1423.3391	4437.55	3543.05
884.1402	1425.1769	4660.15	3764.75
884.2838	1427.0139	4939.45	4044.25
884.4274	1428.8502	5313.1	4415.95
884.571	1430.6858	5680.15	4782.85
884.7146	1432.5206	5941.95	5046.65
884.8582	1434.3547	6082.25	5186.1
885.0018	1436.188	6124.65	5227.95
885.1453	1438.0206	6073.3	5178.2
885.2889	1439.8524	5966.65	5071.9
885.4324	1441.6835	5880.35	4983.9
885.5759	1443.5139	5822.45	4923.4
885.7194	1445.3435	5780.4	4885.4
885.8629	1447.1724	5764.7	4871.2
886.0064	1449.0005	5736	4840.2
886.1499	1450.8279	5691.75	4797.2
886.2933	1452.6545	5675.5	4780.4
886.4368	1454.4804	5705.05	4811.5
886.5802	1456.3056	5741.85	4839.25
886.7237	1458.13	5688.35	4795.65
886.8671	1459.9536	5589	4693.2
887.0105	1461.7766	5417.4	4522.9
887.1539	1463.5987	5209.65	4313.65
887.2972	1465.4202	5001.85	4109.6
887.4406	1467.2409	4778.1	3882.4
887.584	1469.0608	4602.7	3709.05
887.7273	1470.88	4396.1	3500.7
887.8706	1472.6984	4257.15	3361.45
888.0139	1474.5161	4129.35	3232.45
888.1572	1476.3331	4011	3116.75
888.3005	1478.1493	3945.05	3048.7
888.4438	1479.9648	3898.45	3004.85
888.5871	1481.7795	3846.8	2952.7
888.7303	1483.5935	3815.2	2920.8
888.8736	1485.4067	3801.45	2905.6
889.0168	1487.2192	3774.7	2880.35
889.16	1489.031	3760.6	2865.2
889.3032	1490.842	3736.25	2844.35
889.4464	1492.6522	3724.9	2829.1
889.5896	1494.4618	3704.05	2808.9
889.7327	1496.2705	3687.6	2794.25
889.8759	1498.0785	3663.7	2770.2
890.019	1499.8858	3645.9	2750.35
890.1622	1501.6924	3619.75	2725.3
890.3053	1503.4981	3585.4	2690.75
890.4484	1505.3032	3564.7	2670.75
890.5914	1507.1075	3548.4	2654.25
890.7345	1508.911	3497.95	2603.7
890.8776	1510.7138	3475.3	2581.85
891.0206	1512.5159	3458	2567.35
891.1637	1514.3172	3422.95	2530.25
891.3067	1516.1178	3395.25	2505
891.4497	1517.9176	3369.65	2472.7
891.5927	1519.7166	3352.45	2457.8
891.7357	1521.515	3324.1	2424.8
891.8786	1523.3126	3300.1	2403.45
892.0216	1525.1094	3301.65	2407.6
892.1645	1526.9055	3281.65	2388.75
892.3074	1528.7008	3280.9	2386.35
892.4503	1530.4954	3240.15	2345.9
892.5932	1532.2893	3254.75	2364.4
892.7361	1534.0824	3236.7	2339.95
892.879	1535.8747	3242	2352.45
893.0218	1537.6663	3243.45	2350.5
893.1647	1539.4572	3242.1	2350.7
893.3075	1541.2473	3236.2	2345.1
893.4503	1543.0367	3259.15	2368.65
893.5931	1544.8253	3269.35	2373.25
893.7359	1546.6132	3305.35	2412.25
893.8787	1548.4003	3317.95	2417.55
894.0214	1550.1867	3376.05	2475.05
894.1642	1551.9723	3407.55	2510.85
894.3069	1553.7572	3479.55	2588.05
894.4496	1555.5414	3560.4	2670.4
894.5923	1557.3247	3663.25	2774.7
894.735	1559.1074	3821.15	2931.6
894.8777	1560.8893	3946.35	3057.05
895.0204	1562.6705	4095.95	3208.05
895.163	1564.4509	4205.25	3317.2
895.3056	1566.2305	4276.5	3391.15
895.4482	1568.0094	4324.8	3436.75
895.5908	1569.7876	4341.35	3454.45
895.7334	1571.565	4326.55	3437.5
895.876	1573.3417	4331.55	3444.65
896.0186	1575.1176	4341.85	3456
896.1611	1576.8928	4383.9	3495.1
896.3036	1578.6672	4415.25	3531.65
896.4461	1580.4409	4479.05	3594.05
896.5886	1582.2138	4541.95	3654.1
896.7311	1583.986	4637.75	3751.6
896.8736	1585.7575	4733.55	3846.7
897.0161	1587.5282	4835.35	3949.75
897.1585	1589.2981	4957.85	4074.85
897.3009	1591.0673	5033.9	4150.35
897.4433	1592.8358	5149.3	4267.35
897.5857	1594.6035	5225.15	4336.5
897.7281	1596.3704	5258.9	4371.75
897.8705	1598.1366	5334.3	4449.45
898.0128	1599.9021	5365.75	4481.05
898.1551	1601.6668	5400.65	4513.4
898.2975	1603.4308	5468.7	4582.3
898.4398	1605.194	5548.15	4655.25
898.5821	1606.9564	5671.55	4788.95
898.7243	1608.7182	5868.05	4982.7
898.8666	1610.4791	6099.05	5219.25
899.0088	1612.2394	6363.65	5483.8
899.1511	1613.9988	6654	5773.25
899.2933	1615.7576	6939.6	6058.25
899.4355	1617.5156	7144.3	6254.4
899.5776	1619.2728	7234.45	6348.85
899.7198	1621.0293	7150.7	6265.55
899.862	1622.785	6966.35	6077.95
900.0041	1624.54	6646.4	5760.3
900.1462	1626.2942	6288.05	5404.1
900.2883	1628.0477	5929.9	5043
900.4304	1629.8005	5583.8	4697.6
900.5725	1631.5525	5272.25	4389.6
900.7145	1633.3037	5020.85	4139.4
900.8566	1635.0542	4796.55	3911.95
900.9986	1636.804	4612.95	3729.9
901.1406	1638.553	4542.75	3588.45
901.2826	1640.3013	4390.15	3507.45
901.4245	1642.0488	4310.6	3426.45
901.5665	1643.7955	4307.55	3425.9
901.7085	1645.5416	4305.45	3422.05
901.8504	1647.2868	4339.1	3458.05
901.9923	1649.0313	4385.75	3502.15
902.1342	1650.7751	4450.4	3566
902.2761	1652.5181	4530.35	3647.9
902.4179	1654.2604	4609.6	3725.5
902.5598	1656.0019	4725.15	3841.65
902.7016	1657.7427	4875.6	3994.3
902.8434	1659.4828	5077.55	4195.35
902.9852	1661.222	5188.95	4306.45
903.127	1662.9606	5246.45	4366.45
903.2687	1664.6984	5161.3	4278.2
903.4105	1666.4354	4929.15	4044.95
903.5522	1668.1717	4599.65	3714.8
903.6939	1669.9072	4227.2	3342.65
903.8356	1671.642	3920.85	3032.6
903.9773	1673.3761	3652.85	2770.9
904.119	1675.1094	3445.7	2561.95
904.2606	1676.8419	3293.85	2410.75
904.4022	1678.5737	3157.3	2273.25
904.5439	1680.3048	3064.15	2179.3
904.6855	1682.0351	2979.65	2098.65
904.827	1683.7646	2910.95	2024.1
904.9686	1685.4934	2853.2	1970.8
905.1101	1687.2215	2814.05	1930.05
905.2517	1688.9488	2761.1	1879.35
905.3932	1690.6754	2746.9	1864.55
905.5347	1692.4012	2697.75	1815.45
905.6761	1694.1263	2666.9	1785.5
905.8176	1695.8506	2648.95	1766.65
905.9591	1697.5742	2624.85	1744.2
906.1005	1699.297	2601.85	1720.1
906.2419	1701.0191	2574.05	1694.5
906.3833	1702.7404	2556.05	1674.35
906.5246	1704.461	2533.05	1653.25
906.666	1706.1808	2522.1	1638.25
906.8073	1707.8999	2520.95	1640.25
906.9487	1709.6182	2481.55	1597.15
907.09	1711.3358	2472.75	1592.85
907.2313	1713.0527	2459.5	1581.65
907.3725	1714.7688	2452.6	1566.8
907.5138	1716.4841	2441.15	1558.35
907.655	1718.1987	2433.75	1549.15
907.7962	1719.9126	2413.9	1536
907.9374	1721.6257	2409.35	1526.15
908.0786	1723.338	2398.5	1517.75
908.2198	1725.0496	2384.6	1504.95
908.3609	1726.7605	2392.15	1511
908.502	1728.4706	2373.3	1492.6
908.6431	1730.18	2372.75	1489.25
908.7842	1731.8886	2361.5	1482.55
908.9253	1733.5964	2376.5	1474.1
909.0664	1735.3036	2345.45	1462.7
909.2074	1737.0099	2336.05	1455.4
909.3484	1738.7156	2332.75	1454.65
909.4894	1740.4204	2317.05	1434.15
909.6304	1742.1246	2312.55	1431.4
909.7714	1743.8279	2293.4	1415
909.9123	1745.5306	2287.3	1406.4
910.0532	1747.2325	2273.45	1393.25
910.1941	1748.9336	2268.25	1387.95
910.335	1750.634	2262.05	1380.25
910.4759	1752.3336	2258.65	1377.7
910.6168	1754.0325	2238.2	1359.5
910.7576	1755.7307	2236.25	1357.15
910.8984	1757.4281	2243.2	1363.6
911.0392	1759.1247	2242.7	1353.25
911.18	1760.8206	2243.75	1357.85
911.3208	1762.5158	2240.2	1357.85
911.4615	1764.2102	2229.45	1348.1
911.6022	1765.9039	2216.5	1336.35
911.7429	1767.5968	2220.3	1339.15
911.8836	1769.289	2201.1	1318.7
912.0243	1770.9804	2198.05	1319
912.1649	1772.6711	2210.95	1327.65
912.3056	1774.361	2199.7	1316.9
912.4462	1776.0502	2203.15	1321.25
912.5868	1777.7386	2192.15	1307.6
912.7274	1779.4263	2188.05	1307.15
912.8679	1781.1132	2182.45	1301.4
913.0084	1782.7994	2177.65	1296.8
913.149	1784.4849	2181.9	1303.7
913.2895	1786.1696	2184.75	1286.35
913.4299	1787.8535	2166.4	1289.35
913.5704	1789.5367	2162.65	1282.3
913.7108	1791.2192	2156.05	1276.25
913.8513	1792.9009	2179.05	1271.5
913.9917	1794.5818	2161.35	1280.5
914.132	1796.2621	2143.5	1263.1
914.2724	1797.9415	2142.75	1262.5
914.4128	1799.6202	2132.85	1253.2
914.5531	1801.2982	2142.35	1261.85
914.6934	1802.9755	2131.45	1250.3
914.8337	1804.6519	2135.45	1253.85
914.9739	1806.3277	2122.45	1242.3
915.1142	1808.0027	2118.25	1240.05
915.2544	1809.6769	2118.35	1239.45
915.3946	1811.3504	2107.65	1227.55
915.5348	1813.0231	2109.1	1229.4
915.675	1814.6951	2103.6	1224.05
915.8151	1816.3664	2106.8	1226.8
915.9553	1818.0369	2114.3	1234.8
916.0954	1819.7067	2091.35	1210.85
916.2355	1821.3757	2095.45	1213.8
916.3755	1823.044	2097.4	1215.85
916.5156	1824.7115	2097.55	1215.9
916.6556	1826.3783	2094.75	1215.4
916.7956	1828.0443	2079.55	1199.55
916.9356	1829.7096	2080.05	1201.1
917.0756	1831.3741	2085.45	1202.95
917.2155	1833.0379	2073.75	1195.55
917.3555	1834.701	2080.3	1199.45
917.4954	1836.3633	2065.25	1187.6
917.6353	1838.0248	2072.4	1191.05
917.7751	1839.6856	2068.75	1187.8
917.915	1841.3457	2062.95	1184.1
918.0548	1843.005	2056.2	1172.5
918.1946	1844.6636	2059.6	1183.1
918.3344	1846.3214	2052.85	1172.2
918.4742	1847.9785	2060.75	1181.55
918.6139	1849.6349	2056.15	1174.55
918.7537	1851.2904	2064.5	1174.45
918.8934	1852.9453	2052.85	1172.95
919.0331	1854.5994	2047.3	1166
919.1727	1856.2528	2053.1	1168.75
919.3124	1857.9054	2032	1150
919.452	1859.5572	2034.05	1152.95
919.5916	1861.2083	2038.65	1157.6
919.7312	1862.8587	2033.45	1154.45
919.8708	1864.5084	2032.9	1153.2
920.0103	1866.1572	2033.25	1154.2
920.1498	1867.8054	2017.65	1135.3
920.2893	1869.4528	2026.75	1147.95
920.4288	1871.0994	2015.2	1134.7
920.5683	1872.7453	2017.75	1135.7
920.7077	1874.3905	2012.65	1123.6
920.8471	1876.0349	2009.95	1129.75
920.9865	1877.6786	2005.05	1123.15
921.1259	1879.3215	2002.65	1122.75
921.2653	1880.9637	1999.8	1118.2
921.4046	1882.6051	1991.8	1111.1
921.5439	1884.2458	2003.9	1123.35
921.6832	1885.8858	1991.65	1112.9
921.8225	1887.525	1990.5	1108.7
921.9617	1889.1634	1984.1	1103.7
922.101	1890.8011	1982.85	1105.3
922.2402	1892.4381	1978.25	1098.1
922.3794	1894.0743	1977.9	1096.1
922.5185	1895.7098	1979.75	1100.8
922.6577	1897.3446	1973.6	1092.3
922.7968	1898.9786	1970.7	1085.4
922.9359	1900.6118	1968.15	1090.7
923.075	1902.2443	1964.65	1083.15
923.214	1903.8761	1958.8	1079.6
923.3531	1905.5071	1950.1	1068.9
923.4921	1907.1374	1953.8	1074
923.6311	1908.7669	1940.85	1061.7
923.77	1910.3957	1944.2	1064.3
923.909	1912.0237	1939.6	1062.35
924.0479	1913.651	1937.7	1055.7
924.1868	1915.2776	1921.7	1046.7
924.3257	1916.9034	1916.2	1037.6
924.4646	1918.5285	1906.9	1029.8
924.6034	1920.1528	1915.1	1035.45
924.7422	1921.7764	1914.45	1035.35
924.881	1923.3992	1912.05	1033.1
925.0198	1925.0213	1909.55	1030
925.1586	1926.6427	1911.45	1032.3
925.2973	1928.2633	1986.3	1021.2
925.436	1929.8832	1910.4	1028.25
925.5747	1931.5023	1898.1	1020.15
925.7134	1933.1207	1889.4	1009.75
925.852	1934.7383	1890.75	1010.2
925.9906	1936.3552	1889.2	1010.9
926.1292	1937.9714	1879.9	998.7
926.2678	1939.5868	1885.65	1003.5
926.4064	1941.2015	1866.55	984.45
926.5449	1942.8154	1874.9	994.4
926.6834	1944.4286	1869.7	990.05
926.8219	1946.041	1880.55	976.2
926.9604	1947.6528	1878.8	994.45
927.0988	1949.2637	1854.6	976.6
927.2372	1950.8739	1856.05	976.55
927.3756	1952.4834	1868.2	988.35
927.514	1954.0921	1854.3	974.25
927.6523	1955.7001	1853.15	965.95
927.7907	1957.3074	1847.75	969.8
927.929	1958.9139	1836.35	957.85
928.0673	1960.5197	1835.25	955.5
928.2055	1962.1247	1836.3	960.15
928.3438	1963.729	1832.15	953.9
928.482	1965.3325	1830	945.45
928.6202	1966.9353	1817.25	941.2
928.7584	1968.5374	1811.6	932.75
928.8965	1970.1387	1812.6	934.1
929.0346	1971.7393	1814.45	934.6
929.1727	1973.3392	1812.35	932.4
929.3108	1974.9383	1803.8	927.15
929.4489	1976.5366	1796.55	917.9
929.5869	1978.1342	1802.85	923.2
929.7249	1979.7311	1799.2	919.65
929.8629	1981.3273	1787.75	912.6
930.0009	1982.9227	1785.7	906.25
930.1388	1984.5173	1785.3	908.35
930.2767	1986.1112	1786.15	910.05
930.4146	1987.7044	1774.85	899.1
930.5525	1989.2968	1788.5	909
930.6904	1990.8885	1785.05	904.5
930.8282	1992.4795	1775.1	896.25
930.966	1994.0697	1768.5	892.25
931.1038	1995.6592	1768.45	888.05
931.2415	1997.2479	1767.5	889.95
931.3793	1998.8359	1764.9	888.95
931.517	2000.4232	1757.4	882.3
931.6547	2002.0097	1756.65	882.8
931.7923	2003.5955	1747.3	872.05
931.93	2005.1805	1754.05	875.5
932.0676	2006.7648	1747.65	869.45
932.2052	2008.3484	1749.95	870.2
932.3427	2009.9312	1756.4	879.4
932.4803	2011.5133	1751.9	876.5
932.6178	2013.0946	1739.75	864.3
932.7553	2014.6752	1740.2	864.95
932.8928	2016.2551	1745.95	869.05
933.0302	2017.8342	1733.8	855.45
933.1676	2019.4126	1734	856.8
933.305	2020.9902	1729.3	855.9
933.4424	2022.5672	1730.3	851.9
933.5798	2024.1433	1730.7	850.2
933.7171	2025.7188	1723.65	849.2
933.8544	2027.2935	1726	849.35
933.9917	2028.8674	1717.95	843.55
934.129	2030.4406	1713.35	837.95
934.2662	2032.0131	1702.8	828.7
934.4034	2033.5849	1707.95	824.8
934.5406	2035.1559	1701.75	824.3
934.6778	2036.7261	1702.2	826.95
934.8149	2038.2957	1700.05	824.35
934.952	2039.8645	1702.2	824.1
935.0891	2041.4325	1703.5	825.45
935.2262	2042.9998	1702	825.25
935.3632	2044.5664	1698.55	819.95
935.5002	2046.1323	1694.4	818.5
935.6372	2047.6974	1688.55	812.15
935.7742	2049.2617	1690.75	816.5
935.9111	2050.8254	1689.55	807.55
936.048	2052.3883	1690.5	814.2
936.1849	2053.9504	1683.55	807.7
936.3218	2055.5118	1687.7	809.55
936.4586	2057.0725	1686.7	804.75
936.5955	2058.6325	1674.25	798.4
936.7323	2060.1917	1675.35	797.75
936.869	2061.7502	1683.75	804.85
937.0058	2063.3079	1677.65	802.5
937.1425	2064.8649	1673.95	795.6
937.2792	2066.4212	1668.15	792.85
937.4159	2067.9767	1668.15	792.25
937.5525	2069.5315	1662.25	786.35
937.6891	2071.0856	1656.65	780.25
937.8257	2072.6389	1662.95	784.4
937.9623	2074.1915	1649.9	774.4
938.0989	2075.7433	1650.9	771.85
938.2354	2077.2945	1653.9	778.9
938.3719	2078.8448	1643	766.2
938.5084	2080.3945	1640.8	764.6
938.6448	2081.9434	1643.4	764.2
938.7812	2083.4916	1644.5	765.55
938.9176	2085.039	1644.6	764.9
939.054	2086.5857	1642.15	762.9
939.1903	2088.1317	1639.7	758.15
939.3267	2089.677	1636.4	755.45
939.463	2091.2215	1633.55	753.7
939.5992	2092.7652	1623.75	742.85
939.7355	2094.3083	1625.2	746
939.8717	2095.8506	1629.05	750.05
940.0079	2097.3921	1630.45	751.9
940.1441	2098.933	1631.1	752.8
940.2802	2100.4731	1627.85	750.95
940.4163	2102.0124	1644.2	751.15
940.5524	2103.5511	1621.3	744.35
940.6885	2105.089	1624.05	743.95
940.8245	2106.6261	1621.6	743.05
940.9606	2108.1626	1616.3	739.35
941.0965	2109.6983	1649.25	742.6
941.2325	2111.2332	1618.5	740
941.3684	2112.7675	1614.65	736.1
941.5044	2114.301	1609.2	728.3
941.6403	2115.8337	1604.55	726
941.7761	2117.3657	1606.5	729.95
941.912	2118.897	1601.7	723.65
942.0478	2120.4276	1600.75	715.75
942.1835	2121.9575	1602.2	723.25
942.3193	2123.4866	1602.45	720.55
942.455	2125.0149	1592.25	712.3
942.5907	2126.5426	1587.15	709.9
942.7264	2128.0695	1594.4	713.7
942.8621	2129.5956	1581.5	707.25
942.9977	2131.1211	1596.35	712.5
943.1333	2132.6458	1585.45	709.05
943.2689	2134.1698	1578.1	696.85
943.4044	2135.693	1582.75	702.6
943.54	2137.2155	1582.8	700.65
943.6755	2138.7373	1577.65	700.15
943.8109	2140.2584	1572.95	696.7
943.9464	2141.7787	1578.2	696.9
944.0818	2143.2983	1567.45	692.95
944.2172	2144.8171	1562.1	687.1
944.3526	2146.3353	1568.7	691.3
944.4879	2147.8527	1570.95	694.25
944.6232	2149.3693	1570.55	690.2
944.7585	2150.8853	1564.3	684.1
944.8938	2152.4005	1565.7	687.1
945.029	2153.9149	1562.4	684
945.1642	2155.4287	1555.25	677.05
945.2994	2156.9417	1558.6	678.7
945.4346	2158.454	1552.95	674.9
945.5697	2159.9655	1549.65	671.6
945.7048	2161.4764	1549.15	670.6
945.8399	2162.9865	1555.8	678.75
945.9749	2164.4958	1545.55	664.7
946.1099	2166.0045	1546.3	666.25
946.2449	2167.5124	1551.45	675.45
946.3799	2169.0195	1541.3	664.3
946.5148	2170.526	1548.05	669.45
946.6498	2172.0317	1534.65	654.85
946.7846	2173.5367	1539.85	660.6
946.9195	2175.0409	1532.35	653.15
947.0543	2176.5445	1538.15	659.85
947.1891	2178.0473	1541.7	661.5
947.3239	2179.5494	1532.35	650.65
947.4587	2181.0507	1531.85	652.6
947.5934	2182.5513	1525.3	646.25
947.7281	2184.0512	1531.65	653.25
947.8628	2185.5504	1528.8	650.9
947.9974	2187.0488	1517.4	639.95
948.132	2188.5465	1516.75	638.55
948.2666	2190.0435	1522.25	644.85
948.4012	2191.5397	1517.65	639.85
948.5357	2193.0353	1519.3	641.95
948.6702	2194.5301	1516.7	635.1
948.8047	2196.0241	1510.35	632.65
948.9392	2197.5175	1515.1	636.2
949.0736	2199.0101	1518.75	634.95
949.208	2200.502	1510.45	633.3
949.3424	2201.9931	1499.7	621.45
949.4767	2203.4835	1496.85	619.15
949.611	2204.9733	1500.9	618.9
949.7453	2206.4622	1502.55	625.95
949.8796	2207.9505	1498.6	618.7
950.0138	2209.438	1486.9	611.3
950.148	2210.9248	1495.8	617.7
950.2822	2212.4109	1489.95	610.75
950.4164	2213.8962	1492.85	610.35
950.5505	2215.3809	1489	609.95
950.6846	2216.8648	1490	609.9
950.8186	2218.3479	1494.2	610.3
950.9527	2219.8304	1491.6	606.9
951.0867	2221.3121	1484.85	601
951.2207	2222.7931	1480.9	602.15
951.3546	2224.2733	1474.2	594.5
951.4886	2225.7529	1471.9	592.25
951.6225	2227.2317	1483.95	602.1
951.7563	2228.7098	1470.1	591.75
951.8902	2230.1872	1465.65	589.1
952.024	2231.6638	1469.35	593.8
952.1578	2233.1397	1466.45	582.15
952.2916	2234.6149	1465.7	590.2
952.4253	2236.0894	1476.85	596.55
952.559	2237.5632	1471.95	585.6
952.6927	2239.0362	1461	583.85
952.8263	2240.5085	1454.35	576.55
952.9599	2241.9801	1450.6	572.8
953.0935	2243.4509	1455.95	577.25
953.2271	2244.921	1457.6	579.4
953.3606	2246.3904	1453.3	572.2
953.4941	2247.8591	1442.2	562.75
953.6276	2249.3271	1443.55	564.35
953.7611	2250.7943	1447.95	567.05
953.8945	2252.2608	1443.55	562.5
954.0279	2253.7266	1434.25	555.45
954.1612	2255.1917	1432.45	554.7
954.2946	2256.656	1432.1	551.9
954.4279	2258.1197	1429.95	554.05
954.5612	2259.5826	1430.25	550.45
954.6944	2261.0447	1431.3	550.9
954.8276	2262.5062	1431.35	550.25
954.9608	2263.9669	1435.95	554.25
955.094	2265.4269	1430	550.1
955.2271	2266.8862	1425.2	547.7
955.3602	2268.3448	1426.05	548.4
955.4933	2269.8026	1428.1	550.25
955.6264	2271.2598	1421.25	541.75
955.7594	2272.7162	1420.5	543.15
955.8924	2274.1719	1423.6	545.15
956.0253	2275.6268	1421.75	543.55
956.1583	2277.0811	1419.15	539.6
956.2912	2278.5346	1421.55	542.5
956.4241	2279.9874	1416.5	537.95
956.5569	2281.4395	1414.3	537.35
956.6897	2282.8908	1410.6	526.55
956.8225	2284.3414	1415.1	535.65
956.9553	2285.7914	1409.7	532.6
957.088	2287.2406	1409.4	529.15
957.2207	2288.689	1412.25	531.55
957.3534	2290.1368	1411.25	529.85
957.486	2291.5838	1412.2	528.85
957.6186	2293.0302	1412.4	527.95
957.7512	2294.4758	1402.2	521.45
957.8838	2295.9206	1409.35	528.45
958.0163	2297.3648	1404.35	524.25
958.1488	2298.8082	1406.05	526.75
958.2813	2300.251	1409.75	530.55
958.4137	2301.693	1402.6	521.15
958.5461	2303.1343	1396.65	517.95
958.6785	2304.5748	1392.4	513.5
958.8108	2306.0147	1400.7	519.85
958.9432	2307.4538	1393.45	514.35
959.0754	2308.8922	1393.65	516.6
959.2077	2310.3299	1390.3	511.55
959.3399	2311.7669	1392	512.6
959.4721	2313.2031	1386.95	508.75
959.6043	2314.6387	1385.95	505.9
959.7365	2316.0735	1384.25	505.15
959.8686	2317.5076	1383.05	501.8
960.0006	2318.941	1383.8	504.1
960.1327	2320.3737	1382.5	500.45
960.2647	2321.8056	1382.55	499.25
960.3967	2323.2369	1380.35	499.2
960.5287	2324.6674	1380.75	500.65
960.6606	2326.0972	1379.85	499.25
960.7925	2327.5263	1377.2	498.1
960.9244	2328.9547	1383.9	503.25
961.0562	2330.3823	1379	498.5
961.1881	2331.8092	1382.5	499.2
961.3198	2333.2355	1367.65	485.4
961.4516	2334.661	1376	495.9
961.5833	2336.0858	1364.05	480.6
961.715	2337.5098	1368.1	488.8
961.8467	2338.9332	1369.8	489.9
961.9783	2340.3558	1370.8	489.3
962.1099	2341.7778	1361.85	484.9
962.2415	2343.199	1369	487.95
962.373	2344.6195	1362.9	482.45
962.5045	2346.0393	1359.45	479.95
962.636	2347.4583	1364.5	483.7
962.7675	2348.8767	1365.85	485
962.8989	2350.2943	1359.6	479.65
963.0303	2351.7113	1364.85	482.75
963.1617	2353.1275	1359.15	477.4
963.293	2354.543	1382.8	477.3
963.4243	2355.9578	1363.1	483.15
963.5556	2357.3718	1353.05	472.7
963.6868	2358.7852	1349.85	466.45
963.818	2360.1978	1355.35	476.1
963.9492	2361.6098	1352.45	473.05
964.0803	2363.021	1361.1	478.1
964.2114	2364.4315	1349.85	470.3
964.3425	2365.8413	1351.45	471.1
964.4736	2367.2504	1345.6	467.2
964.6046	2368.6587	1347.7	469.75
964.7356	2370.0664	1340.2	459.65
964.8666	2371.4733	1350.95	470.45
964.9975	2372.8795	1342.15	464.35
965.1284	2374.285	1342.2	460.85
965.2593	2375.6899	1342.55	465.2
965.3901	2377.0939	1335.55	455.6
965.5209	2378.4973	1334.25	455.9
965.6517	2379.9	1337.55	457.45
965.7825	2381.3019	1335	455.55
965.9132	2382.7032	1328.8	450.15
966.0439	2384.1037	1325.1	447.6
966.1745	2385.5035	1328.95	451.2
966.3051	2386.9027	1325.85	449.25
966.4357	2388.3011	1330.5	448.4
966.5663	2389.6987	1321.8	444.6
966.6968	2391.0957	1324.7	445.55
966.8273	2392.492	1321.6	444.15
966.9578	2393.8876	1317.3	437.75
967.0882	2395.2824	1313.6	433.35
967.2186	2396.6765	1318.85	438.15
967.349	2398.07	1312.6	434.35
967.4793	2399.4627	1313.75	432.75
967.6097	2400.8547	1316.45	436.55
967.7399	2402.246	1316.7	429.55
967.8702	2403.6366	1318.15	436.85
968.0004	2405.0265	1315.9	438
968.1306	2406.4156	1311.35	428.65
968.2607	2407.8041	1310.8	426.65
968.3909	2409.1918	1306.5	425.25
968.521	2410.5789	1301.1	421.45
968.651	2411.9652	1309.9	427.45
968.781	2413.3508	1307.45	424.8
968.911	2414.7358	1301.9	422.7
969.041	2416.12	1298.1	418.55
969.1709	2417.5035	1304.5	423.55
969.3008	2418.8863	1295.15	413.8
969.4307	2420.2684	1303.55	422.95
969.5606	2421.6497	1294.25	411.85
969.6904	2423.0304	1292.1	412.7
969.8201	2424.4104	1303.75	424.1
969.9499	2425.7896	1297.1	410.4
970.0796	2427.1682	1291.55	414
970.2093	2428.546	1289.1	407.85
970.3389	2429.9232	1291.75	411.55
970.4685	2431.2996	1291.2	411.5
970.5981	2432.6753	1287.3	408.95
970.7277	2434.0503	1292.35	412.8
970.8572	2435.4246	1285.3	406.8
970.9867	2436.7982	1293.3	412.6
971.1161	2438.1711	1283.4	404.35
971.2456	2439.5433	1286.25	404.2
971.375	2440.9148	1287.8	402.15
971.5043	2442.2856	1278.2	399
971.6336	2443.6557	1283	401.1
971.7629	2445.025	1276.3	396.9
971.8922	2446.3937	1274.45	393.15
972.0214	2447.7617	1275.35	395.7
972.1506	2449.1289	1277.3	395.9
972.2798	2450.4955	1281.95	398.2
972.4089	2451.8613	1271.65	392.05
972.538	2453.2265	1265.1	386.8
972.6671	2454.5909	1264.55	385.1
972.7961	2455.9546	1263.25	383.55
972.9251	2457.3177	1264.15	384.05
973.0541	2458.68	1267.1	385.05
973.1831	2460.0416	1268.15	387.5
973.312	2461.4025	1272.6	392.15
973.4408	2462.7627	1275.15	383.65
973.5697	2464.1222	1270.45	392.1
973.6985	2465.4811	1264.55	382.75
973.8273	2466.8392	1266.2	386.15
973.956	2468.1966	1264.15	382
974.0847	2469.5533	1263.05	381.5
974.2134	2470.9093	1272.45	390.45
974.3421	2472.2645	1270.9	388.8
974.4707	2473.6191	1258.9	381.15
974.5993	2474.973	1257.1	375.25
974.7278	2476.3262	1265	383.25
974.8563	2477.6787	1262.75	385.05
974.9848	2479.0305	1260.7	380.9
975.1132	2480.3816	1263.85	381.5
975.2417	2481.7319	1259.25	379.25
975.37	2483.0816	1258.95	378.75
975.4984	2484.4306	1257.45	378.15
975.6267	2485.7789	1253.5	374.8
975.755	2487.1264	1253.3	373.2
975.8833	2488.4733	1252.65	374.7
976.0115	2489.8195	1265	369.25
976.1397	2491.165	1254.6	373.45
976.2678	2492.5097	1254	371.75
976.3959	2493.8538	1244.1	364.6
976.524	2495.1972	1244.55	363.5
976.6521	2496.5398	1244.2	363.3
976.7801	2497.8818	1248.35	368.65
976.9081	2499.2231	1242.6	360.15
977.036	2500.5637	1242	361.6
977.164	2501.9035	1247	364.9
977.2918	2503.2427	1246.95	365.25
977.4197	2504.5812	1241.55	363.3
977.5475	2505.919	1246.9	366.95
977.6753	2507.256	1238.2	357.75
977.8031	2508.5924	1241.85	361.2
977.9308	2509.9281	1240.25	354.2
978.0585	2511.2631	1232.5	354.3
978.1861	2512.5974	1234.2	355
978.3137	2513.9309	1237.4	358.8
978.4413	2515.2638	1261.55	351.25
978.5689	2516.596	1230.2	351.6
978.6964	2517.9275	1234.1	354.2
978.8239	2519.2583	1232.1	353.45
978.9513	2520.5884	1236.2	354.6
979.0788	2521.9178	1227.75	347
979.2062	2523.2465	1230.3	351.75
979.3335	2524.5745	1228.85	349
979.4608	2525.9018	1227.15	349.4
979.5881	2527.2284	1230	351.2
979.7154	2528.5543	1224.15	344.85
979.8426	2529.8796	1227.4	348.3
979.9698	2531.2041	1226.15	346.75
980.0969	2532.5279	1227.4	347.7
980.224	2533.851	1220.4	341.45
980.3511	2535.1735	1227.3	346.45
980.4781	2536.4952	1224.7	343.7
980.6052	2537.8163	1224.75	344.35
980.7321	2539.1366	1219	338.15
980.8591	2540.4562	1219.35	337.7
980.986	2541.7752	1219.65	339.95
981.1129	2543.0935	1220.45	340.65
981.2397	2544.411	1223.3	344.15
981.3665	2545.7279	1217.85	337.8
981.4933	2547.0441	1216.2	335.65
981.62	2548.3596	1222.55	340.6
981.7467	2549.6744	1220	339.65
981.8734	2550.9885	1220.9	332.9
982.0001	2552.3019	1212.2	334.85
982.1267	2553.6146	1216.6	336.15
982.2532	2554.9266	1210.6	330.5
982.3798	2556.2379	1216.35	335.3
982.5063	2557.5485	1212.1	334.6
982.6327	2558.8585	1225.15	338.4
982.7592	2560.1677	1217.55	335.8
982.8856	2561.4762	1212.85	334.55
983.0119	2562.7841	1218.05	333.3
983.1383	2564.0913	1211.95	333.7
983.2646	2565.3977	1216.85	335.45
983.3908	2566.7035	1210.25	331.15
983.517	2568.0086	1212.15	331.9
983.6432	2569.313	1214.5	334.55
983.7694	2570.6167	1219.1	336.5
983.8955	2571.9197	1213.95	333.75
984.0216	2573.222	1212.15	328.2
984.1476	2574.5236	1210	330.25
984.2737	2575.8246	1217.35	335.2
984.3996	2577.1248	1217.6	337.45
984.5256	2578.4244	1212.1	332.6
984.6515	2579.7232	1209.15	329.4
984.7774	2581.0214	1236.35	330.35
984.9032	2582.3189	1207.05	328.45
985.029	2583.6157	1212.5	328.75
985.1548	2584.9118	1215.9	336.6
985.2806	2586.2072	1212.95	333.6
985.4063	2587.5019	1213.75	333.15
985.5319	2588.7959	1212.25	331.65
985.6576	2590.0893	1215.45	335.85
985.7832	2591.3819	1214.45	337.1
985.9087	2592.6739	1211.95	332.7
986.0343	2593.9652	1217.05	335.65
986.1597	2595.2557	1217.05	337.55
986.2852	2596.5456	1222.25	340.3
986.4106	2597.8348	1217.85	338
986.536	2599.1234	1212.05	332.15
986.6614	2600.4112	1211.5	333.25
986.7867	2601.6983	1215.2	331.85
986.912	2602.9848	1213.35	336
987.0372	2604.2705	1225	339.25
987.1624	2605.5556	1209.5	330.85
987.2876	2606.84	1212.85	332.7
987.4128	2608.1237	1211.85	331.6
987.5379	2609.4067	1210.1	332.7
987.6629	2610.689	1212.85	325.45
987.788	2611.9707	1213.05	332.45
987.913	2613.2516	1203.2	321.45
988.0379	2614.5319	1206.5	330.2
988.1629	2615.8115	1199	320.7
988.2878	2617.0903	1200.5	320.2
988.4126	2618.3685	1195.6	315.6
988.5375	2619.6461	1195.85	315.5
988.6622	2620.9229	1196.75	318.8
988.787	2622.199	1195.9	316.7
988.9117	2623.4745	1194.9	316.7
989.0364	2624.7493	1192.7	314.7
989.161	2626.0234	1198.8	322.6
989.2857	2627.2968	1192.55	314.95
989.4102	2628.5695	1192.95	311.35
989.5348	2629.8415	1195.25	317.7
989.6593	2631.1128	1198.2	317.75
989.7837	2632.3835	1193.05	316.35
989.9082	2633.6535	1188.15	309.45
990.0326	2634.9228	1184.45	306.3
990.1569	2636.1914	1192.25	314.65
990.2812	2637.4593	1190.05	310
990.4055	2638.7265	1188.2	308.35
990.5298	2639.9931	1187.55	310.05
990.654	2641.259	1187.25	308.65
990.7782	2642.5242	1187.75	309.5
990.9023	2643.7887	1189.6	311.4
991.0264	2645.0525	1181.25	303.5
991.1505	2646.3156	1182.7	307.1
991.2745	2647.5781	1175.85	296.6
991.3985	2648.8398	1181.05	304.35
991.5225	2650.1009	1215.7	299.9
991.6464	2651.3613	1182.2	306
991.7703	2652.6211	1178.75	300.15
991.8942	2653.8801	1175.2	298.9
992.018	2655.1385	1181.55	300.4
992.1418	2656.3961	1178.9	301.6
992.2655	2657.6531	1175.75	296.5
992.3892	2658.9094	1181.4	303.85
992.5129	2660.1651	1174.8	296.35
992.6366	2661.42	1177.15	298.7
992.7602	2662.6743	1183.75	305.55
992.8837	2663.9279	1177.2	299.4
993.0073	2665.1808	1180.8	301.8
993.1307	2666.433	1183.25	304.15
993.2542	2667.6846	1181.65	303.95
993.3776	2668.9354	1189.35	309.1
993.501	2670.1856	1186.8	308.15
993.6244	2671.4351	1185.65	308.3
993.7477	2672.6839	1195.6	315.45
993.8709	2673.9321	1191.15	312.65
993.9942	2675.1795	1193.55	316.9
994.1174	2676.4263	1195.8	316.6
994.2405	2677.6724	1192.65	315.8
994.3637	2678.9179	1192.2	313.25
994.4868	2680.1626	1194.35	318.1
994.6098	2681.4067	1193.65	316.2
994.7328	2682.6501	1200.5	322.7
994.8558	2683.8928	1192.7	315.2
994.9788	2685.1348	1183.25	305.7
995.1017	2686.3761	1187.7	310.25
995.2245	2687.6168	1184.4	305.5
995.3474	2688.8568	1174.95	295.3
995.4702	2690.0961	1173.35	297.8
995.5929	2691.3348	1174.5	296.85
995.7156	2692.5727	1174.25	298.25
995.8383	2693.81	1176.3	298.65
995.961	2695.0466	1173.3	294.5
996.0836	2696.2826	1177.25	298.05
996.2062	2697.5178	1194.8	297.2
996.3287	2698.7524	1177.4	300.85
996.4512	2699.9863	1177	297.3
996.5737	2701.2195	1176.45	299.55
996.6961	2702.452	1185.25	306.25
996.8185	2703.6839	1182.7	304.75
996.9408	2704.9151	1192.85	316.4
997.0631	2706.1456	1192.85	315.6
997.1854	2707.3755	1191.85	312.05
997.3077	2708.6046	1205.35	324.35
997.4299	2709.8331	1204	324.85
997.552	2711.0609	1208.45	330.95
997.6742	2712.2881	1211.6	333.5
997.7963	2713.5145	1215.9	334.65
997.9183	2714.7403	1221.4	345.85
998.0403	2715.9654	1227.45	349.6
998.1623	2717.1899	1247.7	354.85
998.2842	2718.4136	1242.65	364.85
998.4062	2719.6367	1255.2	376.65
998.528	2720.8591	1256.75	369.7
998.6498	2722.0809	1265.4	387.05
998.7716	2723.3019	1271.75	390
998.8934	2724.5223	1273.8	396.7
999.0151	2725.7421	1285.5	405.65
999.1368	2726.9611	1282.85	400.8
999.2584	2728.1795	1283	401.35
999.38	2729.3972	1270.7	392.2
999.5016	2730.6142	1270.85	384.5
999.6231	2731.8306	1255.65	379.3
999.7446	2733.0462	1246.4	368.05
999.8661	2734.2612	1237.9	353.9
999.9875	2735.4756	1224.6	345.45
1000.1089	2736.6892	1214.5	335.25
1000.2302	2737.9022	1210.7	334.55
1000.3515	2739.1145	1198.85	322.15
1000.4728	2740.3262	1207.1	323.55
1000.594	2741.5372	1188	310.75
1000.7152	2742.7475	1183.5	306.45
1000.8363	2743.9571	1182.15	302.95
1000.9575	2745.1661	1179.65	297.25
1001.0785	2746.3744	1173.45	296.5
1001.1996	2747.582	1166.6	289.05
1001.3206	2748.7889	1162.55	285.15
1001.4415	2749.9952	1158.7	280.85
1001.5625	2751.2008	1156.4	278.55
1001.6833	2752.4057	1153.2	273.9
1001.8042	2753.61	1147.9	271
1001.925	2754.8136	1148.95	270.5
1002.0458	2756.0165	1147.05	268.95
1002.1665	2757.2188	1147.4	270.15
1002.2872	2758.4204	1143.4	265.2
1002.4078	2759.6213	1142.9	264.3
1002.5285	2760.8215	1144.85	264
1002.649	2762.0211	1149.65	269.95
1002.7696	2763.22	1154.15	273
1002.8901	2764.4182	1147.35	269.2
1003.0106	2765.6158	1137.85	260.85
1003.131	2766.8127	1135.7	255.75
1003.2514	2768.009	1136.6	259.7
1003.3717	2769.2045	1138.8	260.75
1003.492	2770.3994	1135.3	256.05
1003.6123	2771.5936	1135.6	258.8
1003.7325	2772.7872	1131.45	255.05
1003.8527	2773.9801	1128.75	251.8
1003.9729	2775.1723	1142.2	248.4
1004.093	2776.3639	1126.65	252.9
1004.2131	2777.5548	1130.65	252
1004.3331	2778.745	1129.95	253.85
1004.4531	2779.9346	1126.45	248.8
1004.5731	2781.1235	1131.5	253
1004.693	2782.3117	1134.8	257.85
1004.8129	2783.4992	1127.65	250.25
1004.9328	2784.6861	1131.5	255.35
1005.0526	2785.8723	1135.55	254.65
1005.1723	2787.0579	1134.75	257.15
1005.2921	2788.2428	1139.9	262.85
1005.4118	2789.427	1138.35	262.5
1005.5314	2790.6106	1138.85	261.7
1005.651	2791.7935	1143.4	266.05
1005.7706	2792.9757	1154.1	278.55
1005.8902	2794.1573	1151.6	272.9
1006.0097	2795.3382	1151.25	273.6
1006.1291	2796.5184	1159.6	283.85
1006.2485	2797.698	1168.15	288.5
1006.3679	2798.8769	1175.15	299.2
1006.4873	2800.0551	1178	301.85
1006.6066	2801.2327	1187.2	307.2
1006.7258	2802.4096	1191.95	317
1006.8451	2803.5859	1205.25	327.25
1006.9642	2804.7615	1204.75	328.05
1007.0834	2805.9364	1216.7	338.5
1007.2025	2807.1106	1230.7	352.55
1007.3216	2808.2842	1242.95	364.3
1007.4406	2809.4572	1264.6	387.5
1007.5596	2810.6294	1283.55	406.4
1007.6785	2811.801	1298.5	423.35
1007.7975	2812.972	1319.1	442.55
1007.9163	2814.1423	1345.55	469.35
1008.0352	2815.3119	1375.9	497.3
1008.154	2816.4808	1404.8	527.4
1008.2727	2817.6491	1431.4	554.6
1008.3914	2818.8167	1464.15	589.25
1008.5101	2819.9837	1505.85	624.05
1008.6288	2821.15	1531.65	655.2
1008.7474	2822.3157	1573.1	697.55
1008.8659	2823.4807	1611.15	733.7
1008.9844	2824.645	1649.55	771.8
1009.1029	2825.8086	1686.35	810.35
1009.2214	2826.9716	1715.55	840.35
1009.3398	2828.134	1757.55	880.05
1009.4581	2829.2957	1782.55	907.55
1009.5764	2830.4567	1804.4	930.35
1009.6947	2831.617	1826	949.6
1009.813	2832.7767	1830.65	954.15
1009.9312	2833.9358	1824.75	950.55
1010.0493	2835.0941	1826.75	948.15
1010.1675	2836.2519	1809	933.25
1010.2855	2837.4089	1794.45	915.4
1010.4036	2838.5653	1784.15	907.85
1010.5216	2839.7211	1779.45	905.9
1010.6396	2840.8761	1777.3	899.35
1010.7575	2842.0306	1783.1	909.1
1010.8754	2843.1843	1790.8	914.95
1010.9932	2844.3374	1811.9	936.1
1011.111	2845.4899	1836.3	958.05
1011.2288	2846.6417	1871.9	995.25
1011.3465	2847.7928	1899.05	1024.55
1011.4642	2848.9433	1932.75	1058.85
1011.5818	2850.0931	1971.45	1093.85
1011.6995	2851.2422	2007.55	1130.05
1011.817	2852.3907	2035.4	1158.9
1011.9345	2853.5385	2077.3	1199.1
1012.052	2854.6857	2124.55	1221.05
1012.1695	2855.8323	2123.55	1250.35
1012.2869	2856.9781	2156.6	1280.35
1012.4042	2858.1233	2190.75	1314
1012.5216	2859.2679	2224.7	1349.3
1012.6389	2860.4118	2245.85	1370.25
1012.7561	2861.555	2289.1	1406.95
1012.8733	2862.6976	2310.65	1431.2
1012.9905	2863.8395	2327.75	1451.75
1013.1076	2864.9808	2349.05	1474
1013.2247	2866.1214	2365.05	1490.15
1013.3417	2867.2614	2372	1496.5
1013.4587	2868.4007	2385.25	1507
1013.5757	2869.5393	2403.35	1526
1013.6926	2870.6773	2416.65	1539.6
1013.8095	2871.8146	2415.55	1536.9
1013.9263	2872.9513	2402.9	1524.65
1014.0431	2874.0874	2401.2	1524.55
1014.1599	2875.2227	2402.3	1526.45
1014.2766	2876.3574	2375.85	1500.95
1014.3933	2877.4915	2360.6	1485.9
1014.51	2878.6249	2356.8	1481.1
1014.6266	2879.7577	2341.7	1462.95
1014.7431	2880.8898	2342.35	1456.9
1014.8596	2882.0212	2318.95	1443.8
1014.9761	2883.152	2316.3	1438.5
1015.0925	2884.2821	2325.95	1453.35
1015.2089	2885.4116	2311.3	1435.95
1015.3253	2886.5405	2315.6	1438.75
1015.4416	2887.6686	2321.25	1442.35
1015.5579	2888.7962	2320.4	1447.95
1015.6741	2889.923	2320.25	1446
1015.7903	2891.0493	2333.2	1459.45
1015.9065	2892.1748	2344.95	1468.5
1016.0226	2893.2997	2353.65	1479.7
1016.1387	2894.424	2356	1481.95
1016.2547	2895.5476	2366.4	1490.4
1016.3707	2896.6706	2374.85	1499.25
1016.4866	2897.7929	2389.05	1511.15
1016.6025	2898.9145	2410.8	1532.55
1016.7184	2900.0355	2425.05	1546.6
1016.8342	2901.1559	2436.3	1557.75
1016.95	2902.2756	2448.05	1573.95
1017.0658	2903.3946	2461.9	1586.8
1017.1815	2904.513	2485.2	1607.05
1017.2971	2905.6308	2496.35	1620.5
1017.4127	2906.7479	2517.4	1641.7
1017.5283	2907.8643	2522.15	1646.85
1017.6439	2908.9801	2529.6	1652.8
1017.7594	2910.0953	2526.25	1651.15
1017.8748	2911.2098	2538.2	1657.85
1017.9902	2912.3236	2529.35	1644
1018.1056	2913.4368	2506.1	1629.4
1018.2209	2914.5494	2505.55	1628.8
1018.3362	2915.6613	2488.9	1608.45
1018.4515	2916.7725	2461.75	1584.45
1018.5667	2917.8831	2442.25	1563.75
1018.6819	2918.9931	2434.9	1557.55
1018.797	2920.1024	2408.55	1532.4
1018.9121	2921.211	2395.1	1518.65
1019.0271	2922.319	2375	1499.25
1019.1421	2923.4264	2369.25	1493.4
1019.2571	2924.5331	2385.1	1510.15
1019.372	2925.6391	2369.3	1495.55
1019.4869	2926.7445	2374.55	1500.5
1019.6017	2927.8493	2360.45	1484.35
1019.7165	2928.9534	2364.6	1487.2
1019.8313	2930.0569	2384.75	1504.3
1019.946	2931.1597	2390.15	1513.5
1020.0606	2932.2619	2390.1	1513.55
1020.1753	2933.3634	2395.7	1519.5
1020.2899	2934.4643	2404.75	1521.95
1020.4044	2935.5645	2403.75	1522.85
1020.5189	2936.6641	2386.1	1506.1
1020.6334	2937.763	2371.4	1496.1
1020.7478	2938.8613	2359.95	1484.75
1020.8622	2939.959	2333.2	1451.9
1020.9765	2941.056	2296.6	1422.9
1021.0908	2942.1523	2265.7	1389.75
1021.2051	2943.248	2219.25	1343.6
1021.3193	2944.3431	2151.75	1278.65
1021.4334	2945.4375	2094.45	1218.05
1021.5476	2946.5313	2043.1	1170.2
1021.6617	2947.6244	1975.95	1099.15
1021.7757	2948.7169	1926.6	1049.1
1021.8897	2949.8087	1856	982.15
1022.0037	2950.8999	1820.8	943.55
1022.1176	2951.9904	1778	902.75
1022.2315	2953.0803	1742.6	868.05
1022.3453	2954.1696	1687.75	814.2
1022.4591	2955.2582	1667.75	792.2
1022.5728	2956.3462	1631.45	754.85
1022.6865	2957.4335	1607.2	730.45
1022.8002	2958.5202	1591.6	713.45
1022.9138	2959.6062	1576.95	701.2
1023.0274	2960.6916	1550.4	675.85
1023.141	2961.7764	1548.75	671.35
1023.2545	2962.8605	1544.1	667.35
1023.3679	2963.9439	1530.55	656.1
1023.4813	2965.0267	1536.65	659.75
1023.5947	2966.1089	1546.2	648.05
1023.708	2967.1905	1529.2	653.2
1023.8213	2968.2714	1517.95	642.6
1023.9346	2969.3516	1523.35	647.3
1024.0478	2970.4312	1531.55	649.1
1024.1609	2971.5102	1525.3	651.4
1024.274	2972.5885	1531.75	658.3
1024.3871	2973.6662	1546.7	665.75
1024.5002	2974.7432	1537.85	662.45
1024.6132	2975.8196	1542.3	667.2
1024.7261	2976.8954	1534.75	661.15
1024.839	2977.9705	1528.65	651.85
1024.9519	2979.045	1519	644.4
1025.0647	2980.1188	1510.25	636.55
1025.1775	2981.192	1503.3	627.75
1025.2902	2982.2645	1495.85	620
1025.4029	2983.3364	1481.15	605
1025.5156	2984.4077	1459.95	584.9
1025.6282	2985.4783	1452.25	569.8
1025.7407	2986.5483	1432.75	555.9
1025.8532	2987.6177	1414.35	537.1
1025.9657	2988.6864	1388.8	513.45
1026.0782	2989.7545	1373.35	495.55
1026.1906	2990.8219	1353.7	479.75
1026.3029	2991.8887	1337.8	460.85
1026.4152	2992.9548	1312.2	436.85
1026.5275	2994.0204	1290.8	415.6
1026.6397	2995.0852	1268.3	393.5
1026.7519	2996.1495	1258.2	381.55
1026.864	2997.2131	1235.6	359.3
1026.9761	2998.276	1228.6	353.65
1027.0882	2999.3383	1213.9	338.95
1027.2002	3000.4	1203.35	325.7
1027.3122	3001.4611	1188.7	314.35
1027.4241	3002.5215	1184.65	308.5
1027.536	3003.5812	1161.5	285.85
1027.6478	3004.6404	1152.8	278.35
1027.7596	3005.6989	1145.6	266.85
1027.8714	3006.7567	1136.1	261.55
1027.9831	3007.8139	1159.25	255.95
1028.0947	3008.8705	1126.1	249.75
1028.2064	3009.9264	1127.05	248.3
1028.3179	3010.9818	1120.2	243.9
1028.4295	3012.0364	1112.3	236.5
1028.541	3013.0905	1112.9	236.95
1028.6524	3014.1439	1101.45	226.35
1028.7638	3015.1966	1101.1	226.25
1028.8752	3016.2487	1096.3	221.75
1028.9865	3017.3002	1097.3	218.8
1029.0978	3018.3511	1094.35	220.45
1029.209	3019.4013	1089.05	213.75
1029.3202	3020.4509	1089.25	216.1
1029.4314	3021.4998	1085.45	207.45
1029.5425	3022.5481	1086.45	211.8
1029.6535	3023.5958	1080.6	205.55
1029.7645	3024.6428	1081	204.9
1029.8755	3025.6892	1077.4	204.2
1029.9864	3026.735	1079.35	204.15
1030.0973	3027.7802	1080.6	205.4
1030.2082	3028.8247	1079.1	202.9
1030.319	3029.8685	1081.75	205.35
1030.4297	3030.9118	1078	201
1030.5404	3031.9544	1081.5	205.15
1030.6511	3032.9963	1083.65	208.15
1030.7617	3034.0376	1084.2	209
1030.8723	3035.0783	1085.9	208.3
1030.9829	3036.1184	1084.5	208.6
1031.0934	3037.1578	1084.65	211.75
1031.2038	3038.1966	1087.5	212
1031.3142	3039.2348	1086.45	212.7
1031.4246	3040.2723	1104.25	219.6
1031.5349	3041.3092	1088.55	217.35
1031.6452	3042.3455	1091.6	215.95
1031.7554	3043.3811	1092.3	216.2
1031.8656	3044.4161	1087.7	208.8
1031.9758	3045.4505	1087.45	212.55
1032.0859	3046.4842	1085.6	210.4
1032.1959	3047.5173	1087.55	215.2
1032.3059	3048.5498	1090.6	216.45
1032.4159	3049.5816	1088.6	213.8
1032.5258	3050.6128	1083.85	207.25
1032.6357	3051.6434	1081.3	206.3
1032.7455	3052.6734	1079.8	202.2
1032.8553	3053.7027	1078.85	205
1032.9651	3054.7314	1076.9	203.4
1033.0748	3055.7594	1078	202.05
1033.1845	3056.7868	1076.7	199.8
1033.2941	3057.8136	1079.05	205.55
1033.4037	3058.8398	1076.35	201.45
1033.5132	3059.8653	1074.25	199.65
1033.6227	3060.8902	1075.5	201.05
1033.7321	3061.9145	1074.8	201.2
1033.8415	3062.9381	1070	195.65
1033.9509	3063.9612	1085.35	196.65
1034.0602	3064.9835	1069.75	196.6
1034.1694	3066.0053	1070.95	192.35
1034.2787	3067.0264	1065.55	192
1034.3878	3068.0469	1070.4	192.65
1034.497	3069.0668	1071.45	192.35
1034.6061	3070.086	1061.45	188.9
1034.7151	3071.1046	1063.35	190.05
1034.8241	3072.1226	1056.5	180.1
1034.9331	3073.1399	1048.75	174.55
1035.042	3074.1567	1050.3	176.3
1035.1508	3075.1727	1048.1	171.95
1035.2597	3076.1882	1042.25	166.5
1035.3684	3077.203	1037.55	161.35
1035.4772	3078.2173	1035.05	157.95
1035.5859	3079.2308	1035.35	157.45
1035.6945	3080.2438	1028.15	152.5
1035.8031	3081.2561	1020.65	145.55
1035.9117	3082.2678	1017.2	143.55
1036.0202	3083.2789	1016.95	141.2
1036.1286	3084.2893	1013	139.25
1036.2371	3085.2991	1006.55	132.15
1036.3454	3086.3083	1009.35	128.7
1036.4538	3087.3169	1005.8	128.6
1036.562	3088.3248	1001.9	125.4
1036.6703	3089.3321	999.1	123.9
1036.7785	3090.3388	996.1	121.5
1036.8866	3091.3449	994.65	120.65
1036.9948	3092.3503	996.3	118.95
1037.1028	3093.3551	988.6	116.7
1037.2108	3094.3593	989.75	115.2
1037.3188	3095.3629	988.45	113
1037.4267	3096.3658	986.1	108.25
1037.5346	3097.3681	981	106.55
1037.6425	3098.3698	984.95	108.85
1037.7503	3099.3708	988.05	105
1037.858	3100.3713	977.1	103.9
1037.9657	3101.3711	978.25	101
1038.0734	3102.3702	1114.35	101.55
1038.181	3103.3688	977.5	102.15
1038.2886	3104.3667	970.55	97.95
1038.3961	3105.364	970.3	96.15
1038.5036	3106.3607	968.3	92.2
1038.611	3107.3568	971.85	95.65
1038.7184	3108.3522	968.05	94.3
1038.8257	3109.347	968.75	92.7
1038.933	3110.3412	969.4	91.5
1039.0403	3111.3348	963.2	90.2
1039.1475	3112.3277	959.7	84.9
1039.2547	3113.32	959.9	87.35
1039.3618	3114.3117	957.25	81.75
1039.4689	3115.3028	960.3	85.85
1039.5759	3116.2932	961.95	83.25
1039.6829	3117.2831	962.35	81.7
1039.7898	3118.2723	954.45	80.8
1039.8967	3119.2608	952.65	76.95
1040.0035	3120.2488	958.15	83.2
1040.1103	3121.2361	952.25	77.6
1040.2171	3122.2229	951.4	76.4
1040.3238	3123.209	952.35	77.7
1040.4305	3124.1944	951.05	77.75
1040.5371	3125.1793	948.8	73.1
1040.6437	3126.1635	947.55	73.25
1040.7502	3127.1471	949.3	74.5
1040.8567	3128.1301	947.9	76.85
1040.9631	3129.1125	943.45	68.75
1041.0695	3130.0942	946.6	71.8
1041.1759	3131.0753	953.4	69.85
1041.2822	3132.0558	949.2	71.15
1041.3884	3133.0357	945.3	70.6
1041.4946	3134.015	944.65	68.6
1041.6008	3134.9936	943.3	66
1041.7069	3135.9716	962.4	66.35
1041.813	3136.949	939.15	64.65
1041.919	3137.9258	958.95	66.4
1042.025	3138.902	942.5	62.6
1042.1309	3139.8775	943.85	69
1042.2368	3140.8524	936.95	60.5
1042.3427	3141.8267	938.45	60.5
1042.4485	3142.8004	937.6	60.7
1042.5542	3143.7735	945.3	66.5
1042.6599	3144.7459	940.55	64.35
1042.7656	3145.7178	936.15	62.1
1042.8712	3146.689	936	62
1042.9768	3147.6596	937	62.1
1043.0823	3148.6295	936.95	61.5
1043.1878	3149.5989	933.25	58.05
1043.2932	3150.5676	930.7	59.3
1043.3986	3151.5357	930.9	57.5
1043.5039	3152.5032	933.25	60.45
1043.6092	3153.4701	933.45	60.2
1043.7145	3154.4364	930.45	54.05
1043.8197	3155.402	929.35	56.5
1043.9248	3156.367	931.4	53.75
1044.03	3157.3315	964.8	53.65
1044.135	3158.2952	931.35	58.05
1044.24	3159.2584	929.45	55.65
1044.345	3160.221	929.8	54.6
1044.4499	3161.1829	929.35	54.85
1044.5548	3162.1442	927.85	53.6
1044.6596	3163.105	929.9	56.3
1044.7644	3164.065	929.3	53.05
1044.8692	3165.0245	928.3	49.1
1044.9739	3165.9834	923.8	50.3
1045.0785	3166.9416	926.4	53.2
1045.1831	3167.8993	924.5	51.65
1045.2877	3168.8563	926.75	51.2
1045.3922	3169.8127	927.3	54.9
1045.4966	3170.7684	926.6	51.4
1045.6011	3171.7236	928.85	53.25
1045.7054	3172.6782	925.2	50.55
1045.8098	3173.6321	926.75	50.15
1045.914	3174.5854	924.65	45.2
1046.0183	3175.5381	926.6	50.65
1046.1224	3176.4902	926.5	50.65
1046.2266	3177.4417	922.4	48.7
1046.3307	3178.3926	921.2	47.4
1046.4347	3179.3428	920.5	47.65
1046.5387	3180.2924	923.65	49.6
1046.6427	3181.2415	920.55	46.15
1046.7466	3182.1899	922.65	48.8
1046.8504	3183.1377	919.6	43.7
1046.9542	3184.0848	924.55	47.3
1047.058	3185.0314	922.55	45.15
1047.1617	3185.9773	921.45	44.65
1047.2654	3186.9227	917.8	43.3
1047.369	3187.8674	918.75	44.6
1047.4726	3188.8115	922.85	44.4
1047.5761	3189.755	916.15	42.35
1047.6796	3190.6979	919.55	45.7
1047.783	3191.6402	915.55	42.6
1047.8864	3192.5818	919.95	45.15
1047.9898	3193.5229	931.25	44.4
1048.0931	3194.4633	920.75	46.75
1048.1963	3195.4031	918.15	40.95
1048.2995	3196.3423	915.55	41.75
1048.4027	3197.2809	916.75	42
1048.5058	3198.2189	915.1	41
1048.6089	3199.1563	932.15	40.3
1048.7119	3200.0931	915.65	43.95
1048.8148	3201.0292	915.4	41.85
1048.9178	3201.9648	916.2	40.35
1049.0206	3202.8997	917.85	40
1049.1235	3203.834	914.8	39.35
1049.2262	3204.7677	915.05	41.25
1049.329	3205.7008	916.5	40.9
1049.4317	3206.6333	914.35	42.75
1049.5343	3207.5652	916.4	41.55
1049.6369	3208.4964	915.3	40.6
1049.7394	3209.4271	914.15	40.85
1049.8419	3210.3571	910.95	37.8
1049.9444	3211.2865	914.6	39.45
1050.0468	3212.2154	914	40.05
1050.1491	3213.1436	916.55	39.9
1050.2514	3214.0712	920.35	39.65
1050.3537	3214.9982	910.9	37.35
1050.4559	3215.9246	913.1	38.85
1050.5581	3216.8503	908.95	34.25
1050.6602	3217.7755	912.2	38.7
1050.7623	3218.7001	909.85	35.8
1050.8643	3219.624	911.2	36.3
1050.9663	3220.5473	911.55	37.85
1051.0682	3221.4701	913.95	39.65
1051.1701	3222.3922	911	33.85
1051.2719	3223.3137	909.7	34.4
1051.3737	3224.2346	907.9	33.75
1051.4754	3225.1549	908.85	34
1051.5771	3226.0746	908.5	34.15
1051.6788	3226.9937	909	35.85
1051.7804	3227.9121	907.5	33.55
1051.8819	3228.83	908.45	35.3
1051.9834	3229.7473	910.45	35.4
1052.0849	3230.6639	907.95	33.15
1052.1863	3231.5799	908.2	33.3
1052.2876	3232.4954	908.1	31.2
1052.3889	3233.4102	905.2	31.5
1052.4902	3234.3244	910.5	37.75
1052.5914	3235.238	907.3	32.35
1052.6926	3236.151	930.55	31.4
1052.7937	3237.0634	907.55	33.55
1052.8948	3237.9752	905.5	30.5
1052.9958	3238.8864	905.05	28
1053.0968	3239.797	904.9	31.15
1053.1977	3240.7069	905.85	30.95
1053.2986	3241.6163	907.1	30.3
1053.3994	3242.5251	906.7	34.2
1053.5002	3243.4332	903.55	29.1
1053.6009	3244.3408	907.05	35.05
1053.7016	3245.2477	903.85	30
1053.8022	3246.154	904.5	31.1
1053.9028	3247.0598	902.55	26.65
1054.0034	3247.9649	904.2	29.8
1054.1039	3248.8694	904.95	29.65
1054.2043	3249.7733	903.65	29.4
1054.3047	3250.6766	903	29.6
1054.4051	3251.5793	903.3	28.7
1054.5054	3252.4814	903.3	30.7
1054.6056	3253.3829	902.8	28.25
1054.7058	3254.2838	901.9	28.55
1054.806	3255.1841	901.95	26.95
1054.9061	3256.0838	900.6	26.9
1055.0061	3256.9829	901.15	26.9
1055.1062	3257.8814	903.45	25.5
1055.2061	3258.7792	901.15	24.6
1055.306	3259.6765	900.8	27.3
1055.4059	3260.5731	899.2	25.25
1055.5057	3261.4692	902.75	27.1
1055.6055	3262.3647	897.55	23.7
1055.7052	3263.2595	898.95	24.15
1055.8049	3264.1538	897.05	24.35
1055.9045	3265.0474	898.8	24.8
1056.0041	3265.9404	896.35	24.65
1056.1036	3266.8329	896.6	21.65
1056.2031	3267.7247	905.85	23.2
1056.3025	3268.616	895.15	21.05
1056.4019	3269.5066	895.25	20.95
1056.5013	3270.3966	895.85	19
1056.6005	3271.286	893.75	19.55
