Software Version:	3.9.2.0
Unit SN:	10000200
Spectrometer SN:	6960
Date:	3/8/2024 2:12:19 PM
Data Line Index:	25
Spectral Points:	2048
Integration time (ms):	125
Averages:	20
Delay (ms):	30000
Sequence Number:	1
Processing:	dark subtract
Laser Power (mW):	300
Laser Current (mA):	823
Laser Diode Temp (C):	25
Laser Case Temp (C):	26.3
System Temp (C):	26.2
Spectrometer Temp (C):	24.1
CCD Temp (C):	0.008
Secondary Temp (C):	20.01
Heatsink Temp (C):	21.256
CCDPCB Temp (C):	36.329
SecondaryPCB Temp (C):	31.805

Wavelength	RamanShift	Raw Counts	Dark Subtracted
787.061	30.1047	466.15	59.65
787.2016	32.3739	466.15	59.35
787.3422	34.6426	471.85	64.3
787.4828	36.9109	478.25	68.3
787.6235	39.1787	489.85	77.55
787.7642	41.4461	499.9	83.25
787.9049	43.7131	511	92.05
788.0456	45.9796	519.5	98.05
788.1863	48.2456	527.45	99.9
788.3271	50.5112	536.3	103.95
788.4679	52.7764	546.05	111.25
788.6087	55.0411	557.1	118.2
788.7496	57.3054	570.55	125.2
788.8904	59.5692	573.85	128.4
789.0313	61.8326	587.75	139.25
789.1722	64.0955	606.15	153.9
789.3132	66.3579	616.4	158.6
789.4541	68.6199	643.25	181.85
789.5951	70.8815	679.75	215.65
789.7361	73.1426	763.45	294.35
789.8771	75.4032	977.35	505
790.0181	77.6634	1511.25	1033.5
790.1592	79.9231	2756.5	2269.75
790.3003	82.1824	5498.55	4996.05
790.4414	84.4412	10420.3	9886.1
790.5825	86.6995	17157.85	16582.05
790.7237	88.9574	23743.6	23134.4
790.8648	91.2148	28279	27644.4
791.006	93.4717	30418.4	29768.65
791.1472	95.7282	30956.6	30302.05
791.2885	97.9842	30959.95	30300.3
791.4297	100.2398	30448.4	29782.6
791.571	102.4949	29872.4	29204
791.7123	104.7495	29161.2	28491.5
791.8536	107.0036	28387.3	27721.85
791.9949	109.2573	27618.95	26950.9
792.1363	111.5105	26959.75	26286.55
792.2777	113.7632	26279.15	25602.4
792.4191	116.0154	25697.55	25008.4
792.5605	118.2672	25220	24543
792.7019	120.5185	24759.55	24082.65
792.8434	122.7693	24421.7	23737.55
792.9849	125.0197	24155.25	23469.6
793.1264	127.2696	23853	23163.1
793.2679	129.519	23753.2	23054.15
793.4094	131.7679	23575.2	22878.8
793.551	134.0163	23428.8	22725.1
793.6926	136.2642	23240.95	22534.6
793.8342	138.5117	23133.2	22419.25
793.9758	140.7587	22914.9	22208.3
794.1175	143.0052	22726.95	22014.85
794.2591	145.2512	22490.4	21778.7
794.4008	147.4967	22290.05	21578.55
794.5425	149.7417	22165.2	21451.7
794.6842	151.9863	22049.2	21326.65
794.826	154.2304	22027.2	21305.6
794.9677	156.4739	21905.85	21178.95
795.1095	158.717	21854.95	21121.7
795.2513	160.9596	21702.2	20964.85
795.3931	163.2017	21471.75	20733.15
795.535	165.4433	21217.5	20480.3
795.6768	167.6844	20883.1	20143.45
795.8187	169.925	20603.95	19862.5
795.9606	172.1651	20221.25	19479.2
796.1025	174.4047	19944.85	19196.6
796.2445	176.6439	19719.7	18972.05
796.3864	178.8825	19483.55	18730.6
796.5284	181.1206	19369.65	18614.65
796.6704	183.3582	19191.15	18427.55
796.8124	185.5954	19100.75	18337.55
796.9544	187.832	19016.4	18247.25
797.0965	190.0681	19006.95	18233.9
797.2386	192.3037	19020.7	18244.5
797.3806	194.5388	19001.75	18223.9
797.5228	196.7734	19093.85	18314.6
797.6649	199.0075	19165.65	18385.2
797.807	201.2411	19334.75	18552.2
797.9492	203.4742	19406.25	18624.2
798.0914	205.7068	19573.35	18783.3
798.2336	207.9389	19722.9	18932
798.3758	210.1704	19856.5	19069.4
798.518	212.4015	20000.3	19226.3
798.6603	214.632	20198.65	19433
798.8025	216.862	20408.6	19639.75
798.9448	219.0915	20581.1	19813.55
799.0871	221.3205	20824.05	20053.95
799.2294	223.549	21120.35	20354.6
799.3718	225.777	21416.4	20648.75
799.5141	228.0044	21812.8	21039.55
799.6565	230.2314	22307.15	21531.9
799.7989	232.4578	22755.1	21980.5
799.9413	234.6837	23138.35	22352.9
800.0837	236.909	23397.35	22610.75
800.2262	239.1339	23399.25	22584.5
800.3687	241.3582	23191.25	22389.8
800.5111	243.582	22803.65	21970.3
800.6536	245.8053	22522.05	21708.7
800.7961	248.0281	22202.05	21394.9
800.9387	250.2503	21935.65	21117.95
801.0812	252.472	21780.3	20964.45
801.2238	254.6932	21732.4	20919.45
801.3664	256.9139	21664	20850.55
801.509	259.134	21667.55	20849.65
801.6516	261.3536	21645.35	20826.95
801.7942	263.5727	21720.6	20894.55
801.9369	265.7912	21678.05	20859.25
802.0795	268.0092	21696.95	20878.7
802.2222	270.2267	21640.65	20821.65
802.3649	272.4436	21601.15	20773.95
802.5076	274.6601	21546.65	20710
802.6504	276.8759	21514.85	20688.65
802.7931	279.0913	21537.75	20708.1
802.9359	281.3061	21514.15	20685.45
803.0787	283.5204	21597.8	20761.85
803.2215	285.7341	21711.75	20876.9
803.3643	287.9473	21878.6	21033.95
803.5071	290.16	22128.05	21289.25
803.6499	292.3721	22458.5	21624.35
803.7928	294.5837	22921.6	22083.45
803.9357	296.7947	23265.8	22428.2
804.0786	299.0052	23518.55	22681
804.2215	301.2152	23341.1	22500.4
804.3644	303.4246	23013.85	22176.6
804.5074	305.6334	22489.95	21656.1
804.6503	307.8418	21983.35	21146.4
804.7933	310.0495	21627.3	20788
804.9363	312.2568	21294.35	20457.3
805.0793	314.4635	21058.4	20215.7
805.2223	316.6696	21044.45	20196.6
805.3653	318.8752	20973	20115.9
805.5084	321.0802	21046.85	20200.95
805.6514	323.2847	21144.9	20291.7
805.7945	325.4887	21228.05	20374.9
805.9376	327.692	21178.05	20328.5
806.0807	329.8949	21108	20251.3
806.2238	332.0972	20878.3	20022.05
806.367	334.2989	20585.35	19721.55
806.5101	336.5001	20311.45	19454.7
806.6533	338.7007	20146.4	19288.4
806.7965	340.9008	20040.55	19180.4
806.9397	343.1003	19965.6	19104.6
807.0829	345.2992	19906.55	19044.35
807.2261	347.4976	19883.5	19022.05
807.3693	349.6955	19889.75	19026
807.5126	351.8927	20000.85	19133.45
807.6559	354.0895	19984.6	19101.3
807.7991	356.2856	20057.9	19185.8
807.9424	358.4812	20055.45	19186.85
808.0857	360.6763	20103.5	19230.25
808.2291	362.8707	20096.6	19224.8
808.3724	365.0646	20157.1	19279.15
808.5158	367.258	20132.05	19260.05
808.6591	369.4508	20180.7	19303.3
808.8025	371.643	20316.2	19434.35
808.9459	373.8346	20288.45	19406.85
809.0893	376.0257	20307.6	19425.15
809.2327	378.2162	20205.25	19321.7
809.3762	380.4062	20138.55	19254.15
809.5196	382.5956	19992.25	19114.75
809.6631	384.7844	19882.2	19008.15
809.8066	386.9726	19791.1	18917.45
809.9501	389.1603	19746.3	18872.9
810.0936	391.3474	19776.05	18878
810.2371	393.5339	19763.4	18883.85
810.3806	395.7199	19672.75	18803.45
810.5241	397.9052	19715.95	18842.95
810.6677	400.09	19761.55	18889.75
810.8113	402.2743	19834.65	18963.75
810.9548	404.4579	19911.9	19038.1
811.0984	406.641	20104.25	19228.7
811.2421	408.8235	20336.3	19460.65
811.3857	411.0054	20660.75	19780.45
811.5293	413.1868	21129.5	20243.15
811.673	415.3675	21458.6	20571.3
811.8166	417.5477	21731.85	20842.35
811.9603	419.7273	21729.7	20839.9
812.104	421.9064	21649.2	20751.2
812.2477	424.0848	21507.45	20620.55
812.3914	426.2627	21259.55	20370.55
812.5351	428.4399	21000.95	20108.95
812.6788	430.6166	20655.65	19760.5
812.8226	432.7928	20297.5	19401.6
812.9663	434.9683	19994.75	19103.6
813.1101	437.1432	19793.6	18903.95
813.2539	439.3176	19597.2	18715.3
813.3977	441.4914	19517.75	18637.65
813.5415	443.6645	19506.75	18618.7
813.6853	445.8371	19457.3	18567.25
813.8291	448.0091	19380.35	18490.15
813.973	450.1806	19366.7	18479.05
814.1168	452.3514	19261.95	18376.8
814.2607	454.5216	19306.45	18411.9
814.4046	456.6913	19254.5	18366.65
814.5485	458.8603	19275.8	18388
814.6924	461.0288	19384.2	18501.2
814.8363	463.1967	19393.85	18515.5
814.9802	465.3639	19557.75	18673.9
815.1241	467.5306	19653.2	18766.55
815.2681	469.6967	19775.95	18890.1
815.412	471.8622	19949.85	19066.55
815.556	474.0271	20119.2	19236.6
815.7	476.1914	20214.25	19319.3
815.844	478.3551	20241.75	19348.75
815.988	480.5182	20215.65	19327.65
816.132	482.6807	20256.8	19377.4
816.276	484.8426	20350.8	19480.05
816.4201	487.0039	20622.55	19745.75
816.5641	489.1647	21032.25	20145.95
816.7082	491.3248	21482.4	20592.4
816.8522	493.4843	21693.15	20807.75
816.9963	495.6432	21710.1	20824
817.1404	497.8015	21604	20703.7
817.2845	499.9592	21685.65	20781.05
817.4286	502.1163	21618.7	20715.15
817.5727	504.2728	21399.65	20507
817.7168	506.4287	21114.35	20230.75
817.861	508.5839	20695.1	19812.65
818.0051	510.7386	20398.45	19509.85
818.1493	512.8927	20220.45	19319.1
818.2935	515.0461	20148.9	19250.8
818.4377	517.199	20090.8	19186.8
818.5818	519.3512	20088.6	19183.85
818.726	521.5029	20165.9	19262.15
818.8703	523.6539	20217.15	19317.95
819.0145	525.8043	20266.65	19366.85
819.1587	527.9541	20296.9	19393.7
819.303	530.1033	20335.7	19432.6
819.4472	532.2519	20387.7	19487.45
819.5915	534.3999	20541.35	19636.15
819.7357	536.5472	20833.35	19933.4
819.88	538.694	21284.95	20386.8
820.0243	540.8401	21913.85	21007.8
820.1686	542.9856	22441.05	21529.8
820.3129	545.1305	22594.45	21674.9
820.4572	547.2748	22513.75	21589.75
820.6016	549.4185	22165.3	21239.3
820.7459	551.5615	21819.1	20898.95
820.8902	553.704	21715.65	20794.35
821.0346	555.8458	21594.5	20677.5
821.1789	557.987	21648.35	20737.5
821.3233	560.1276	21639.25	20725.7
821.4677	562.2675	21644.9	20725.8
821.6121	564.4069	21674.35	20755.25
821.7565	566.5456	21641.1	20725.75
821.9009	568.6837	21569.6	20658
822.0453	570.8212	21339.65	20430
822.1897	572.958	21038.85	20128.95
822.3342	575.0942	20726.95	19817.4
822.4786	577.2299	20572.35	19672.8
822.6231	579.3648	20517.65	19629.65
822.7675	581.4992	20576.7	19695.35
822.912	583.6329	20811.6	19934.5
823.0565	585.766	21054	20167.55
823.201	587.8985	21190.75	20296.5
823.3454	590.0304	21237.4	20321.6
823.4899	592.1616	21141.5	20229.25
823.6345	594.2922	21069.55	20155.3
823.779	596.4222	20933.75	20015.9
823.9235	598.5515	20756.45	19836.1
824.068	600.6802	20636	19718.75
824.2126	602.8083	20428.3	19515.65
824.3571	604.9358	20418.2	19501.85
824.5017	607.0626	20356.45	19434.65
824.6462	609.1888	20310.45	19383.15
824.7908	611.3144	20314.6	19389
824.9354	613.4393	20191.45	19265.9
825.08	615.5636	20089	19162
825.2246	617.6873	19990.3	19066.5
825.3692	619.8103	19966.75	19040.65
825.5138	621.9327	19870.35	18950.1
825.6584	624.0544	19860.05	18941.1
825.803	626.1756	19869.55	18955.75
825.9477	628.2961	19874.35	18952.8
826.0923	630.4159	19811.45	18886.85
826.237	632.5351	19783.4	18858.85
826.3816	634.6537	19699.9	18774.15
826.5263	636.7716	19712.85	18782.8
826.6709	638.8889	19771.3	18839.6
826.8156	641.0056	19799.4	18861.8
826.9603	643.1216	19805.3	18870.45
827.105	645.237	19855.9	18926.15
827.2497	647.3518	19842.9	18919.85
827.3944	649.4659	19894.15	18978.65
827.5391	651.5793	19898.85	18984.1
827.6838	653.6922	19901.95	18981.5
827.8285	655.8043	19939	19018.75
827.9733	657.9159	19902.55	18981.6
828.118	660.0268	19820.15	18899.35
828.2627	662.137	19798.15	18873.95
828.4075	664.2466	19803.7	18868.8
828.5522	666.3556	19787.75	18855.05
828.697	668.4639	19786.5	18862.95
828.8418	670.5716	19842.5	18923.6
828.9865	672.6786	19887.7	18964
829.1313	674.785	20000.5	19066.55
829.2761	676.8907	20058.4	19133.25
829.4209	678.9958	20128.45	19206.85
829.5657	681.1002	20109.85	19182.5
829.7105	683.204	20149.8	19212.5
829.8553	685.3072	20118.45	19184.6
830.0001	687.4097	20018.6	19085.5
830.1449	689.5115	20049	19117.6
830.2898	691.6127	19986.05	19060
830.4346	693.7132	19934.05	19010.95
830.5794	695.8131	19898.75	18948.1
830.7243	697.9123	19893.85	18953.45
830.8691	700.0109	19874.1	18935.95
831.014	702.1089	19871.9	18935.35
831.1588	704.2061	19893.65	18961.55
831.3037	706.3028	19977.65	19040.25
831.4486	708.3987	20047	19112
831.5935	710.4941	20137.15	19204.45
831.7383	712.5887	20342.55	19411.1
831.8832	714.6827	20608.85	19674.55
832.0281	716.7761	20972.35	20046.3
832.173	718.8688	21362.6	20431.5
832.3179	720.9608	21574.5	20633.9
832.4628	723.0522	21674.6	20726.2
832.6077	725.1429	21440.65	20497.55
832.7527	727.233	21178.3	20237.15
832.8976	729.3224	20969.15	20032.45
833.0425	731.4112	20673.8	19731.65
833.1874	733.4993	20461.15	19520.3
833.3324	735.5867	20332.5	19396.9
833.4773	737.6735	20267.2	19328.9
833.6222	739.7596	20204.45	19264.5
833.7672	741.845	20148.15	19210
833.9122	743.9298	20165.7	19225.25
834.0571	746.014	20146.05	19207.45
834.2021	748.0974	20172.8	19227
834.347	750.1802	20165.95	19220.7
834.492	752.2624	20206.1	19259.35
834.637	754.3439	20200.3	19259.15
834.782	756.4247	20296.4	19342.1
834.9269	758.5048	20409.7	19464.05
835.0719	760.5843	20624.1	19678.25
835.2169	762.6631	20925.75	19977.7
835.3619	764.7413	21398.85	20457.95
835.5069	766.8188	21947.95	20999.7
835.6519	768.8956	22376.65	21430
835.7969	770.9718	22754.6	21806.4
835.9419	773.0473	22639.05	21695.8
836.0869	775.1221	22326.35	21380.65
836.232	777.1962	21914.85	20969.85
836.377	779.2697	21722.05	20774.25
836.522	781.3426	21785.3	20817.8
836.667	783.4147	22031.65	21082.55
836.8121	785.4862	22344.1	21398.8
836.9571	787.557	22395.15	21448.95
837.1021	789.6271	22127.9	21176.4
837.2472	791.6966	21555.55	20609.1
837.3922	793.7654	21036.7	20090.45
837.5373	795.8335	20757.95	19813.15
837.6823	797.901	20564	19616.15
837.8274	799.9678	20503.25	19550.6
837.9724	802.0339	20536.95	19584.8
838.1175	804.0993	20628.65	19671.25
838.2626	806.1641	20563.45	19611.3
838.4076	808.2282	20550.3	19605.4
838.5527	810.2916	20438.8	19484.7
838.6978	812.3544	20399.9	19454.15
838.8428	814.4164	20286.7	19343.5
838.9879	816.4778	20390.35	19438.35
839.133	818.5385	20360.1	19409.3
839.2781	820.5986	20440.55	19488.6
839.4232	822.658	20581.25	19626.4
839.5682	824.7166	20673.1	19723.75
839.7133	826.7747	20875.05	19920.55
839.8584	828.832	21103.95	20150.45
840.0035	830.8886	21178.7	20227.1
840.1486	832.9446	21364.05	20412.25
840.2937	834.9999	21363.55	20414.15
840.4388	837.0545	21448.1	20490.75
840.5839	839.1085	21465.5	20507.75
840.729	841.1618	21439.45	20486.15
840.8741	843.2143	21409.9	20457.65
841.0192	845.2662	21314	20362.95
841.1643	847.3175	21277.6	20321.85
841.3095	849.368	21162.95	20211.85
841.4546	851.4179	21087.55	20132.5
841.5997	853.467	20920.5	19968.5
841.7448	855.5155	20861.65	19903.4
841.8899	857.5633	20781.9	19828.05
842.0351	859.6105	20687.05	19730.35
842.1802	861.6569	20633.75	19679.35
842.3253	863.7027	20607.5	19644.9
842.4704	865.7478	20597.7	19643.75
842.6156	867.7922	20627.3	19669.4
842.7607	869.8359	20693.7	19742.1
842.9058	871.8789	20795.4	19840.25
843.0509	873.9212	21002.25	20017.7
843.1961	875.9629	21101.8	20143.8
843.3412	878.0039	21311.7	20357.7
843.4863	880.0441	21463.05	20511.25
843.6315	882.0837	21464.6	20511.85
843.7766	884.1226	21409.6	20455.45
843.9218	886.1609	21317.85	20366.85
844.0669	888.1984	21219.6	20263
844.212	890.2352	21248.3	20291.85
844.3572	892.2714	21175.15	20214
844.5023	894.3069	21204.7	20251.1
844.6475	896.3416	21134.1	20173.55
844.7926	898.3757	21134.6	20177.35
844.9377	900.4091	21137.1	20179.35
845.0829	902.4418	21180.8	20215.55
845.228	904.4739	21176.9	20216.4
845.3732	906.5052	21182.45	20220.5
845.5183	908.5358	21076	20119.65
845.6635	910.5658	20963.15	20000.45
845.8086	912.595	20772.5	19812.55
845.9538	914.6236	20673.8	19714.1
846.0989	916.6515	20628.05	19665.9
846.2441	918.6786	20579.05	19620
846.3892	920.7051	20697.95	19738
846.5344	922.7309	20813.25	19851.4
846.6795	924.756	20872.95	19914.65
846.8246	926.7804	20987.6	20029.25
846.9698	928.8041	20927	19970.5
847.1149	930.8272	20985.85	20024.05
847.2601	932.8495	20919.85	19958.75
847.4052	934.8711	20854.15	19888.8
847.5504	936.892	20703.85	19743.9
847.6955	938.9123	20555.85	19596.65
847.8407	940.9318	20444.9	19483.35
847.9858	942.9506	20326.1	19367.1
848.131	944.9688	20232.35	19275.5
848.2761	946.9862	20185.35	19224.65
848.4213	949.003	20068	19107.65
848.5664	951.019	20132.4	19172.55
848.7115	953.0344	20163.4	19204.15
848.8567	955.0491	20164	19203.9
849.0018	957.063	20280.7	19325.6
849.147	959.0763	20431.25	19470.3
849.2921	961.0888	20457.65	19499.65
849.4373	963.1007	20575	19618.3
849.5824	965.1119	20595.25	19646.4
849.7275	967.1223	20605.1	19663.05
849.8727	969.1321	20666	19727.35
850.0178	971.1412	20726.05	19777.25
850.1629	973.1495	20758.35	19803.2
850.3081	975.1572	20833	19824.1
850.4532	977.1641	20845.7	19882.9
850.5983	979.1704	20802	19841.85
850.7435	981.1759	20804.6	19841.2
850.8886	983.1808	20913.4	19950.1
851.0337	985.1849	20992.2	20021.9
851.1788	987.1884	21150.2	20189.8
851.324	989.1911	21294.45	20332.2
851.4691	991.1932	21427.7	20473.35
851.6142	993.1945	21481.6	20519.65
851.7593	995.1951	21413.5	20454.85
851.9045	997.1951	21416.8	20453.75
852.0496	999.1943	21316.8	20359.2
852.1947	1001.1928	21242.9	20284.25
852.3398	1003.1906	21221.1	20262.75
852.4849	1005.1877	21292.2	20333.75
852.63	1007.1841	21288.05	20331
852.7751	1009.1798	21173.65	20216.65
852.9202	1011.1748	20981.6	20022.6
853.0653	1013.1691	20798.05	19837.1
853.2104	1015.1627	20566.75	19609.65
853.3555	1017.1556	20314.8	19358.5
853.5006	1019.1477	20244.25	19291.35
853.6457	1021.1392	20141.2	19194.8
853.7908	1023.1299	20135.5	19190.9
853.9359	1025.12	20104.6	19165.9
854.081	1027.1093	20143.6	19217.3
854.2261	1029.0979	20234.85	19311.9
854.3712	1031.0859	20261	19330.2
854.5163	1033.0731	20316.6	19377.55
854.6613	1035.0596	20248.2	19302.15
854.8064	1037.0454	20045.3	19095.85
854.9515	1039.0304	19991.95	19036.5
855.0965	1041.0148	19797.7	18837.7
855.2416	1042.9985	19737.75	18780.5
855.3867	1044.9814	19714.8	18759.1
855.5317	1046.9636	19664.4	18709.8
855.6768	1048.9452	19634.9	18677.85
855.8219	1050.926	19653.05	18697.8
855.9669	1052.9061	19599.75	18642.2
856.112	1054.8855	19604.9	18650.15
856.257	1056.8642	19686.7	18726.85
856.4021	1058.8421	19764.85	18803.95
856.5471	1060.8194	19742.25	18788.05
856.6921	1062.7959	19760.55	18805.5
856.8372	1064.7717	19833.2	18873.5
856.9822	1066.7469	19863.25	18904.8
857.1272	1068.7213	19843.65	18883.85
857.2723	1070.695	19823.5	18868.35
857.4173	1072.6679	19766.5	18805.75
857.5623	1074.6402	19722.55	18763.25
857.7073	1076.6117	19721.9	18760.4
857.8523	1078.5826	19727.75	18770.6
857.9973	1080.5527	19724.2	18763.65
858.1423	1082.5221	19792.4	18836
858.2873	1084.4908	20013.9	19057.85
858.4323	1086.4587	20176.2	19218.25
858.5773	1088.426	20327.4	19366.6
858.7223	1090.3925	20338.45	19378.15
858.8673	1092.3584	20261.65	19303.7
859.0123	1094.3235	20097.65	19144.55
859.1573	1096.2879	20018.55	19057.05
859.3022	1098.2515	20051.2	19095.3
859.4472	1100.2145	20095.1	19140.45
859.5922	1102.1767	20153.05	19197.85
859.7371	1104.1382	20320.2	19366.4
859.8821	1106.099	20511.95	19555.9
860.027	1108.0591	20704.7	19749.05
860.172	1110.0185	20864.45	19906.65
860.3169	1111.9771	20917.3	19960.9
860.4619	1113.9351	20672	19717.6
860.6068	1115.8923	20367.7	19413.8
860.7517	1117.8488	20058.3	19101.15
860.8967	1119.8045	19776.4	18821.4
861.0416	1121.7596	19675.95	18720.25
861.1865	1123.7139	19566	18613
861.3314	1125.6675	19593.75	18641.95
861.4763	1127.6204	19672.75	18719
861.6212	1129.5726	19638.1	18680.55
861.7661	1131.524	19629.65	18677
861.911	1133.4748	19650.05	18691.25
862.0559	1135.4248	19613.45	18660.3
862.2008	1137.3741	19616.8	18662.35
862.3457	1139.3226	19589.8	18634
862.4905	1141.2705	19554.1	18596.25
862.6354	1143.2176	19445.95	18486.85
862.7803	1145.164	19491.75	18536.75
862.9251	1147.1097	19474.8	18520
863.07	1149.0546	19477.35	18522.3
863.2148	1150.9989	19382	18424.3
863.3597	1152.9424	19259.3	18305.2
863.5045	1154.8852	19088.8	18134.75
863.6493	1156.8272	18966.95	18013.8
863.7942	1158.7686	18947.5	17983
863.939	1160.7092	18905.15	17946.25
864.0838	1162.6491	18882.85	17922.55
864.2286	1164.5883	18966.65	18013.3
864.3734	1166.5267	19011.85	18054.9
864.5182	1168.4644	19136	18179.3
864.663	1170.4014	19332	18372.3
864.8078	1172.3377	19570.3	18621.1
864.9526	1174.2732	19812.65	18862.45
865.0974	1176.2081	20037.95	19085.15
865.2421	1178.1421	20286.8	19331
865.3869	1180.0755	20489.95	19537.45
865.5317	1182.0082	20534.7	19585.85
865.6764	1183.9401	20543.5	19593.95
865.8212	1185.8713	20377.75	19433.4
865.9659	1187.8017	20127.55	19190.05
866.1106	1189.7315	19895.95	18973.25
866.2554	1191.6605	19598.7	18674.95
866.4001	1193.5888	19399.4	18466.9
866.5448	1195.5163	19228.8	18286.8
866.6895	1197.4432	19184.4	18235.95
866.8342	1199.3693	19090.3	18141.1
866.9789	1201.2947	19047	18095.15
867.1236	1203.2193	19010.1	18058.45
867.2683	1205.1432	19041.75	18091.1
867.413	1207.0664	19087	18138.35
867.5576	1208.9889	19121.5	18168.4
867.7023	1210.9106	19127.8	18180.8
867.847	1212.8316	19187.7	18237.8
867.9916	1214.7519	19233.2	18270.35
868.1363	1216.6715	19197.3	18247.5
868.2809	1218.5903	19216	18262.9
868.4255	1220.5084	19171.05	18223.3
868.5701	1222.4257	19152.45	18204.35
868.7148	1224.3424	19093.6	18146.9
868.8594	1226.2583	19150.5	18204.45
869.004	1228.1735	19221.3	18278.15
869.1486	1230.0879	19291.95	18346.6
869.2932	1232.0016	19434.8	18485.35
869.4377	1233.9146	19446.55	18495.15
869.5823	1235.8269	19324.75	18376.65
869.7269	1237.7384	19234.1	18288.8
869.8715	1239.6492	19017.9	18072.3
870.016	1241.5592	18884.15	17934.5
870.1606	1243.4686	18811.2	17865.45
870.3051	1245.3772	18790.3	17841.6
870.4496	1247.285	18758.5	17808.3
870.5941	1249.1922	18708.2	17759.4
870.7387	1251.0986	18681.05	17735.6
870.8832	1253.0042	18694	17749.25
871.0277	1254.9092	18751.35	17804.6
871.1722	1256.8134	18779.05	17837.35
871.3167	1258.7169	18919.1	17975
871.4611	1260.6196	19090.55	18142.25
871.6056	1262.5216	19265.85	18320.45
871.7501	1264.4229	19400.35	18456.55
871.8945	1266.3234	19555.2	18609.75
872.039	1268.2232	19636.5	18688.6
872.1834	1270.1223	19618.35	18665.55
872.3278	1272.0207	19623.4	18673.6
872.4723	1273.9183	19594.4	18643.55
872.6167	1275.8151	19483	18535.9
872.7611	1277.7113	19426.2	18482.6
872.9055	1279.6067	19281.85	18336.55
873.0499	1281.5014	19161.4	18213.35
873.1943	1283.3953	19084.95	18137.25
873.3386	1285.2885	19101.45	18156.4
873.483	1287.181	19081.65	18134.25
873.6274	1289.0727	19185.05	18242.2
873.7717	1290.9637	19252.75	18307.4
873.9161	1292.854	19408.7	18466.3
874.0604	1294.7435	19469.4	18524.75
874.2047	1296.6323	19669.15	18723.2
874.349	1298.5204	19918.65	18969.3
874.4933	1300.4077	20151.05	19198.7
874.6376	1302.2943	20290.7	19343.6
874.7819	1304.1802	20378.4	19433.45
874.9262	1306.0653	20212.4	19268
875.0705	1307.9497	20027.05	19081.4
875.2147	1309.8333	19898.85	18954.45
875.359	1311.7162	19807.2	18864.6
875.5032	1313.5984	19809.2	18862.5
875.6475	1315.4798	19845.5	18893.55
875.7917	1317.3605	19908.25	18948.25
875.9359	1319.2405	19946.45	18995.5
876.0801	1321.1197	19912.3	18967.35
876.2243	1322.9982	19791.9	18842.45
876.3685	1324.876	19768.75	18824.4
876.5127	1326.753	19600.5	18654.15
876.6569	1328.6293	19615.9	18668.15
876.801	1330.5048	19639.05	18690.55
876.9452	1332.3796	19568.45	18620.45
877.0893	1334.2537	19531.25	18563.9
877.2335	1336.127	19448.7	18501.3
877.3776	1337.9996	19380.35	18438.05
877.5217	1339.8714	19363.85	18419.05
877.6658	1341.7426	19329.75	18338.8
877.8099	1343.6129	19295.6	18346.7
877.954	1345.4826	19226.7	18280.7
878.0981	1347.3515	19206.65	18258.2
878.2422	1349.2196	19113.85	18163.05
878.3862	1351.087	19131.25	18183.5
878.5303	1352.9537	19207.25	18257.2
878.6743	1354.8197	19275	18324.2
878.8184	1356.6849	19460.4	18513.3
878.9624	1358.5493	19505.95	18557.7
879.1064	1360.4131	19521.65	18575.75
879.2504	1362.276	19476.5	18534.8
879.3944	1364.1383	19301.1	18359.65
879.5384	1365.9998	19065.05	18117.7
879.6823	1367.8606	18742.25	17797.1
879.8263	1369.7206	18467.8	17521.9
879.9702	1371.5799	18231.2	17285.3
880.1142	1373.4384	18045.4	17096.3
880.2581	1375.2962	17893.1	16946.45
880.402	1377.1533	17608.9	16666.5
880.5459	1379.0096	17285.3	16343.95
880.6898	1380.8652	17012.85	16074.4
880.8337	1382.7201	16762.3	15819.55
880.9776	1384.5742	16500	15556.15
881.1215	1386.4275	16326.7	15382.35
881.2653	1388.2802	16191.35	15247.25
881.4092	1390.132	16028.05	15084.4
881.553	1391.9832	15981.6	15035.6
881.6968	1393.8336	15851.7	14907.4
881.8406	1395.6832	15796.15	14848.05
881.9844	1397.5322	15766.2	14820.8
882.1282	1399.3803	15728.1	14779.4
882.272	1401.2278	15650.6	14706.6
882.4158	1403.0745	15638.55	14694.9
882.5595	1404.9204	15564.05	14625.75
882.7033	1406.7656	15605.45	14662.2
882.847	1408.6101	15570.55	14627.25
882.9908	1410.4538	15577.3	14633.85
883.1345	1412.2968	15607.55	14663.6
883.2782	1414.139	15599.65	14654.25
883.4219	1415.9805	15669.3	14726.3
883.5656	1417.8213	15717.25	14771.6
883.7092	1419.6613	15788.8	14848.3
883.8529	1421.5006	15981.6	15038.4
883.9965	1423.3391	16225.25	15283.3
884.1402	1425.1769	16521.35	15575.25
884.2838	1427.0139	16995.85	16054.6
884.4274	1428.8502	17583.65	16635.85
884.571	1430.6858	18126.75	17187.2
884.7146	1432.5206	18473.5	17533.25
884.8582	1434.3547	18710.4	17767.75
885.0018	1436.188	18739.5	17798.95
885.1453	1438.0206	18654.8	17714.3
885.2889	1439.8524	18449.65	17508.35
885.4324	1441.6835	18378.1	17434.15
885.5759	1443.5139	18281.75	17337.25
885.7194	1445.3435	18194.7	17254.65
885.8629	1447.1724	18167.75	17231.5
886.0064	1449.0005	18049.8	17109.95
886.1499	1450.8279	17946.4	17007.3
886.2933	1452.6545	17924	16984.6
886.4368	1454.4804	17936	17001.95
886.5802	1456.3056	17903.75	16957.55
886.7237	1458.13	17789.85	16854.55
886.8671	1459.9536	17590.35	16651.45
887.0105	1461.7766	17211.35	16271.5
887.1539	1463.5987	16819.2	15879.85
887.2972	1465.4202	16431.35	15490
887.4406	1467.2409	16034.75	15097.05
887.584	1469.0608	15770.85	14832.9
887.7273	1470.88	15516.1	14575.25
887.8706	1472.6984	15280.4	14342.5
888.0139	1474.5161	15046.3	14105.65
888.1572	1476.3331	14889.65	13952.3
888.3005	1478.1493	14713.25	13772.8
888.4438	1479.9648	14633.15	13694.05
888.5871	1481.7795	14511.85	13572.7
888.7303	1483.5935	14423.8	13483.3
888.8736	1485.4067	14388.65	13449.95
889.0168	1487.2192	14328.9	13390
889.16	1489.031	14282.6	13338.45
889.3032	1490.842	14202.75	13265.45
889.4464	1492.6522	14196.45	13260.5
889.5896	1494.4618	14126.95	13190.8
889.7327	1496.2705	14093.85	13153.45
889.8759	1498.0785	14054.25	13114.85
890.019	1499.8858	13988.4	13049.95
890.1622	1501.6924	13967.2	13030.75
890.3053	1503.4981	13952.75	13014.95
890.4484	1505.3032	13886.35	12947.55
890.5914	1507.1075	13856.5	12915.8
890.7345	1508.911	13831.9	12890.55
890.8776	1510.7138	13753.05	12814.65
891.0206	1512.5159	13672.35	12733.65
891.1637	1514.3172	13611.4	12675.6
891.3067	1516.1178	13565.95	12632.75
891.4497	1517.9176	13543.45	12603.75
891.5927	1519.7166	13465.85	12528.95
891.7357	1521.515	13424.3	12484.65
891.8786	1523.3126	13400.25	12466
892.0216	1525.1094	13336.4	12400.7
892.1645	1526.9055	13285	12349.75
892.3074	1528.7008	13260.35	12324.75
892.4503	1530.4954	13158.25	12219.9
892.5932	1532.2893	13153.9	12225.4
892.7361	1534.0824	13078.2	12145.5
892.879	1535.8747	13078.7	12150.3
893.0218	1537.6663	13066.05	12138.15
893.1647	1539.4572	13023.55	12092.4
893.3075	1541.2473	12981.05	12051.2
893.4503	1543.0367	12954.4	12023.9
893.5931	1544.8253	12933.9	11996.9
893.7359	1546.6132	12923.7	11990.35
893.8787	1548.4003	12912.1	11970.1
894.0214	1550.1867	12895.6	11958.05
894.1642	1551.9723	12908	11977.9
894.3069	1553.7572	12917	11989.25
894.4496	1555.5414	12952.15	12026.75
894.5923	1557.3247	12989.3	12066.05
894.735	1559.1074	13044.35	12119.1
894.8777	1560.8893	13095.65	12174.45
895.0204	1562.6705	13126.85	12203.7
895.163	1564.4509	13186.05	12263.85
895.3056	1566.2305	13225.9	12306.5
895.4482	1568.0094	13310.6	12389.9
895.5908	1569.7876	13331.7	12411.05
895.7334	1571.565	13341.75	12419.6
895.876	1573.3417	13358.1	12437
896.0186	1575.1176	13333.55	12413.15
896.1611	1576.8928	13285.25	12368.65
896.3036	1578.6672	13165.4	12251.85
896.4461	1580.4409	13049.3	12138.5
896.5886	1582.2138	12923.1	12005.05
896.7311	1583.986	12834.6	11917.5
896.8736	1585.7575	12732.75	11813.95
897.0161	1587.5282	12648.65	11734.85
897.1585	1589.2981	12585.75	11673.95
897.3009	1591.0673	12578.7	11666.4
897.4433	1592.8358	12586.85	11671.65
897.5857	1594.6035	12557.65	11641.05
897.7281	1596.3704	12542.95	11622.55
897.8705	1598.1366	12573	11657.1
898.0128	1599.9021	12567.65	11652.2
898.1551	1601.6668	12601.05	11685.15
898.2975	1603.4308	12644.95	11725.85
898.4398	1605.194	12745.9	11825.55
898.5821	1606.9564	12798.4	11890.8
898.7243	1608.7182	12935.8	12031.05
898.8666	1610.4791	13066.7	12168.5
899.0088	1612.2394	13195.15	12295.4
899.1511	1613.9988	13375.1	12474.2
899.2933	1615.7576	13603.45	12697.9
899.4355	1617.5156	13813.9	12893.7
899.5776	1619.2728	13969.45	13049.75
899.7198	1621.0293	14118.2	13203.55
899.862	1622.785	14102.3	13186.25
900.0041	1624.54	13994.05	13083.3
900.1462	1626.2942	13862.05	12955.15
900.2883	1628.0477	13571.8	12664.4
900.4304	1629.8005	13345.5	12432.35
900.5725	1631.5525	13111.15	12204.2
900.7145	1633.3037	12894.25	11988.65
900.8566	1635.0542	12775.55	11871.5
900.9986	1636.804	12669.05	11760.7
901.1406	1638.553	12631.05	11638.7
901.2826	1640.3013	12525.35	11616.85
901.4245	1642.0488	12486.35	11574.8
901.5665	1643.7955	12508.8	11607.35
901.7085	1645.5416	12498.85	11595.65
901.8504	1647.2868	12582.25	11674.65
901.9923	1649.0313	12653.2	11745.15
902.1342	1650.7751	12772.25	11862.95
902.2761	1652.5181	12943.05	12036.85
902.4179	1654.2604	13113.85	12210.55
902.5598	1656.0019	13372.8	12467.25
902.7016	1657.7427	13662.9	12755.15
902.8434	1659.4828	13960.7	13055.25
902.9852	1661.222	14136.3	13227.7
903.127	1662.9606	14107.35	13198.95
903.2687	1664.6984	13922.95	13011.9
903.4105	1666.4354	13571	12658.6
903.5522	1668.1717	13072.55	12159.55
903.6939	1669.9072	12521.55	11607.5
903.8356	1671.642	12099.1	11183.05
903.9773	1673.3761	11746.8	10838.95
904.119	1675.1094	11440.7	10531.95
904.2606	1676.8419	11208.5	10302.1
904.4022	1678.5737	11031.9	10124.55
904.5439	1680.3048	10907.35	9995.65
904.6855	1682.0351	10795.55	9884.95
904.827	1683.7646	10665.7	9754.35
904.9686	1685.4934	10590.55	9681.65
905.1101	1687.2215	10492.15	9583.15
905.2517	1688.9488	10427.15	9521
905.3932	1690.6754	10352.3	9445.7
905.5347	1692.4012	10300.25	9394.55
905.6761	1694.1263	10257.7	9347.4
905.8176	1695.8506	10222.5	9314.75
905.9591	1697.5742	10159.95	9256.6
906.1005	1699.297	10125.25	9225.95
906.2419	1701.0191	10069.15	9165.75
906.3833	1702.7404	10033.05	9131.9
906.5246	1704.461	9959.45	9054.5
906.666	1706.1808	9937.2	9033.25
906.8073	1707.8999	9885.1	8982.6
906.9487	1709.6182	9860.15	8962.55
907.09	1711.3358	9817.85	8920.6
907.2313	1713.0527	9752.9	8856.35
907.3725	1714.7688	9752.15	8848.75
907.5138	1716.4841	9692	8787.3
907.655	1718.1987	9705.9	8800.05
907.7962	1719.9126	9642.2	8744.55
907.9374	1721.6257	9599.1	8703.15
908.0786	1723.338	9579.65	8684.75
908.2198	1725.0496	9521.9	8624.3
908.3609	1726.7605	9499.2	8598.45
908.502	1728.4706	9460.55	8563.65
908.6431	1730.18	9419.2	8520
908.7842	1731.8886	9379.3	8483.65
908.9253	1733.5964	9380.25	8478
909.0664	1735.3036	9347.75	8444.45
909.2074	1737.0099	9316.5	8417.05
909.3484	1738.7156	9290.7	8395.95
909.4894	1740.4204	9230.6	8332.75
909.6304	1742.1246	9224.9	8325.3
909.7714	1743.8279	9180.9	8282.2
909.9123	1745.5306	9182.05	8285.25
910.0532	1747.2325	9135.45	8240.8
910.1941	1748.9336	9085.1	8187.55
910.335	1750.634	9064.15	8164.5
910.4759	1752.3336	9036.5	8139.15
910.6168	1754.0325	9038.85	8144.1
910.7576	1755.7307	9037.1	8143.25
910.8984	1757.4281	9023.45	8125.3
911.0392	1759.1247	8989.1	8082
911.18	1760.8206	8957.95	8050.85
911.3208	1762.5158	8940.5	8035.3
911.4615	1764.2102	8893.8	7995.5
911.6022	1765.9039	8869.5	7973.15
911.7429	1767.5968	8842.75	7949.25
911.8836	1769.289	8804.8	7910.7
912.0243	1770.9804	8793.65	7894.7
912.1649	1772.6711	8784.75	7884.15
912.3056	1774.361	8739.9	7837.55
912.4462	1776.0502	8747.6	7847.15
912.5868	1777.7386	8748.95	7846.7
912.7274	1779.4263	8710	7814.1
912.8679	1781.1132	8692.15	7798.15
913.0084	1782.7994	8654.65	7761.65
913.149	1784.4849	8636.55	7743.55
913.2895	1786.1696	8622.2	7722.55
913.4299	1787.8535	8590.35	7699.15
913.5704	1789.5367	8569.65	7678.25
913.7108	1791.2192	8564.25	7670.45
913.8513	1792.9009	8537.45	7615.35
913.9917	1794.5818	8510.1	7610.95
914.132	1796.2621	8492.8	7596.65
914.2724	1797.9415	8458.4	7558.1
914.4128	1799.6202	8444.85	7546.95
914.5531	1801.2982	8413.7	7516.1
914.6934	1802.9755	8387.7	7487.85
914.8337	1804.6519	8381.3	7482.1
914.9739	1806.3277	8337.1	7442.3
915.1142	1808.0027	8292.9	7402.8
915.2544	1809.6769	8288.1	7396.85
915.3946	1811.3504	8259	7368.65
915.5348	1813.0231	8271.7	7378.75
915.675	1814.6951	8252	7359.2
915.8151	1816.3664	8253.5	7353.65
915.9553	1818.0369	8244.6	7349.2
916.0954	1819.7067	8206.85	7308.95
916.2355	1821.3757	8191.9	7294.7
916.3755	1823.044	8192.75	7296.7
916.5156	1824.7115	8138.05	7239.35
916.6556	1826.3783	8104.4	7209.1
916.7956	1828.0443	8083.35	7188.4
916.9356	1829.7096	8066.8	7170.4
917.0756	1831.3741	8080	7184.35
917.2155	1833.0379	8053.25	7160.1
917.3555	1834.701	8011.05	7118.05
917.4954	1836.3633	7998.7	7108.75
917.6353	1838.0248	7981.7	7086.95
917.7751	1839.6856	7960.45	7066.2
917.915	1841.3457	7964	7069.05
918.0548	1843.005	7938.5	7042.4
918.1946	1844.6636	7934.25	7038.7
918.3344	1846.3214	7887.75	6993
918.4742	1847.9785	7895.6	7001
918.6139	1849.6349	7891	6991.85
918.7537	1851.2904	7884.2	6976.25
918.8934	1852.9453	7855.5	6955.95
919.0331	1854.5994	7828.75	6929.1
919.1727	1856.2528	7838.8	6941.45
919.3124	1857.9054	7795.5	6898.95
919.452	1859.5572	7791.8	6899.7
919.5916	1861.2083	7763.95	6867.1
919.7312	1862.8587	7763.65	6865.05
919.8708	1864.5084	7742.9	6843.45
920.0103	1866.1572	7709.8	6810.1
920.1498	1867.8054	7668.8	6771
920.2893	1869.4528	7662.45	6762.6
920.4288	1871.0994	7653.4	6752.25
920.5683	1872.7453	7627.95	6733.7
920.7077	1874.3905	7621.6	6707.4
920.8471	1876.0349	7586.9	6691.3
920.9865	1877.6786	7601.7	6703.85
921.1259	1879.3215	7595.25	6698.5
921.2653	1880.9637	7568.8	6672.35
921.4046	1882.6051	7540.7	6644.85
921.5439	1884.2458	7511.05	6615.3
921.6832	1885.8858	7494.05	6598.55
921.8225	1887.525	7486.1	6592.55
921.9617	1889.1634	7440.45	6544.9
922.101	1890.8011	7419.25	6521.15
922.2402	1892.4381	7415.6	6519.95
922.3794	1894.0743	7391.3	6494.05
922.5185	1895.7098	7373.8	6476.4
922.6577	1897.3446	7371.95	6476.75
922.7968	1898.9786	7342.75	6442.75
922.9359	1900.6118	7308.35	6416.7
923.075	1902.2443	7297.25	6402.15
923.214	1903.8761	7274.9	6380.1
923.3531	1905.5071	7248.85	6353.5
923.4921	1907.1374	7221.6	6324.95
923.6311	1908.7669	7211.45	6317.75
923.77	1910.3957	7211.25	6316.95
923.909	1912.0237	7170.6	6277.5
924.0479	1913.651	7159.25	6262.15
924.1868	1915.2776	7156.15	6263.3
924.3257	1916.9034	7130.6	6238.45
924.4646	1918.5285	7073.15	6183.45
924.6034	1920.1528	7038.75	6144.45
924.7422	1921.7764	7024.4	6129.95
924.881	1923.3992	6994.85	6101.1
925.0198	1925.0213	6966.05	6069.8
925.1586	1926.6427	6969.1	6079.4
925.2973	1928.2633	7010.85	6018.45
925.436	1929.8832	6933.8	6037.6
925.5747	1931.5023	6888.8	5994.7
925.7134	1933.1207	6863.55	5969.2
925.852	1934.7383	6864.35	5972.15
925.9906	1936.3552	6806	5912.05
926.1292	1937.9714	6820.3	5926.65
926.2678	1939.5868	6802	5906.3
926.4064	1941.2015	6767.85	5870.55
926.5449	1942.8154	6732.95	5837.7
926.6834	1944.4286	6726.65	5830.3
926.8219	1946.041	6691.15	5773.2
926.9604	1947.6528	6690.2	5790.95
927.0988	1949.2637	6671.55	5778.15
927.2372	1950.8739	6617.85	5725
927.3756	1952.4834	6612.9	5718.7
927.514	1954.0921	6617.7	5724.45
927.6523	1955.7001	6595.75	5700.55
927.7907	1957.3074	6552.1	5661.25
927.929	1958.9139	6508.4	5618.85
928.0673	1960.5197	6528.2	5636.15
928.2055	1962.1247	6487.7	5598.2
928.3438	1963.729	6448.35	5560.25
928.482	1965.3325	6422.9	5527.3
928.6202	1966.9353	6399.6	5511.6
928.7584	1968.5374	6399	5509.7
928.8965	1970.1387	6375.15	5484.75
929.0346	1971.7393	6343.2	5454.3
929.1727	1973.3392	6322	5431
929.3108	1974.9383	6312.3	5426.8
929.4489	1976.5366	6276.15	5386.2
929.5869	1978.1342	6261.7	5376.2
929.7249	1979.7311	6265.6	5377.7
929.8629	1981.3273	6237.2	5351.15
930.0009	1982.9227	6222.9	5337.6
930.1388	1984.5173	6191.9	5306.35
930.2767	1986.1112	6172.25	5286.3
930.4146	1987.7044	6148.45	5264.85
930.5525	1989.2968	6139.1	5248.6
930.6904	1990.8885	6131.35	5242.55
930.8282	1992.4795	6139.1	5254.6
930.966	1994.0697	6093.05	5211.5
931.1038	1995.6592	6071.45	5190.35
931.2415	1997.2479	6049.6	5162.3
931.3793	1998.8359	6024.1	5139.6
931.517	2000.4232	6007.15	5129.5
931.6547	2002.0097	6003.85	5124.45
931.7923	2003.5955	5994.35	5114.45
931.93	2005.1805	5995.55	5111.9
932.0676	2006.7648	5954.9	5071.35
932.2052	2008.3484	5933.65	5052.35
932.3427	2009.9312	5944.15	5061.75
932.4803	2011.5133	5915.75	5039.05
932.6178	2013.0946	5878.15	4997.7
932.7553	2014.6752	5888.2	5008.15
932.8928	2016.2551	5875.4	4990.85
933.0302	2017.8342	5857.2	4974.55
933.1676	2019.4126	5817.4	4936.4
933.305	2020.9902	5804.25	4924.55
933.4424	2022.5672	5796.55	4916.95
933.5798	2024.1433	5783.8	4899.55
933.7171	2025.7188	5759.9	4882.65
933.8544	2027.2935	5740.2	4861.55
933.9917	2028.8674	5745.6	4866.65
934.129	2030.4406	5699.2	4822.45
934.2662	2032.0131	5708.9	4834.95
934.4034	2033.5849	5687.95	4804.2
934.5406	2035.1559	5680.6	4803.65
934.6778	2036.7261	5657.55	4776.5
934.8149	2038.2957	5651.55	4766.65
934.952	2039.8645	5650.6	4766.2
935.0891	2041.4325	5647.1	4760.75
935.2262	2042.9998	5625.8	4744.75
935.3632	2044.5664	5595.8	4714.65
935.5002	2046.1323	5560.85	4680.7
935.6372	2047.6974	5559.95	4682.4
935.7742	2049.2617	5552.2	4671.95
935.9111	2050.8254	5554.25	4669.25
936.048	2052.3883	5542.1	4659.55
936.1849	2053.9504	5523.45	4639.55
936.3218	2055.5118	5514.05	4628.6
936.4586	2057.0725	5461.15	4575.75
936.5955	2058.6325	5461.65	4581.9
936.7323	2060.1917	5444.3	4563.4
936.869	2061.7502	5439.05	4557.8
937.0058	2063.3079	5429.65	4551.15
937.1425	2064.8649	5401.15	4518.65
937.2792	2066.4212	5401.35	4520.3
937.4159	2067.9767	5386.9	4506.3
937.5525	2069.5315	5357.15	4473.7
937.6891	2071.0856	5326.55	4447.8
937.8257	2072.6389	5333.75	4453.4
937.9623	2074.1915	5294.1	4417.05
938.0989	2075.7433	5270.6	4389.75
938.2354	2077.2945	5270.9	4389.3
938.3719	2078.8448	5260	4375.6
938.5084	2080.3945	5260.15	4378.25
938.6448	2081.9434	5249.15	4365.7
938.7812	2083.4916	5226.55	4338.05
938.9176	2085.039	5201.75	4309.8
939.054	2086.5857	5198.75	4306.9
939.1903	2088.1317	5175.95	4285.5
939.3267	2089.677	5181.5	4287.65
939.463	2091.2215	5156.6	4265.15
939.5992	2092.7652	5142.75	4249.8
939.7355	2094.3083	5144.15	4254
939.8717	2095.8506	5127.75	4242.8
940.0079	2097.3921	5118.55	4231.4
940.1441	2098.933	5099.6	4213.8
940.2802	2100.4731	5086.6	4201.65
940.4163	2102.0124	5107.65	4202.6
940.5524	2103.5511	5071.8	4184.55
940.6885	2105.089	5055.45	4165.95
940.8245	2106.6261	5044.65	4154.35
940.9606	2108.1626	5018.7	4131.85
941.0965	2109.6983	5049.2	4134.05
941.2325	2111.2332	5006.75	4119
941.3684	2112.7675	5002.95	4114.6
941.5044	2114.301	4989.45	4101.3
941.6403	2115.8337	4981.85	4094.5
941.7761	2117.3657	4971.95	4085.75
941.912	2118.897	4946.45	4056.6
942.0478	2120.4276	4942.1	4045.65
942.1835	2121.9575	4923.55	4033
942.3193	2123.4866	4944.85	4041.9
942.455	2125.0149	4911.95	4021.4
942.5907	2126.5426	4881.6	4000.55
942.7264	2128.0695	4880.3	3995
942.8621	2129.5956	4865.15	3988
942.9977	2131.1211	4865.8	3976.75
943.1333	2132.6458	4843.45	3960.35
943.2689	2134.1698	4837.65	3945.95
943.4044	2135.693	4828.05	3935.1
943.54	2137.2155	4800.35	3907.95
943.6755	2138.7373	4783.4	3894.4
943.8109	2140.2584	4766.95	3884.6
943.9464	2141.7787	4756.1	3870.9
944.0818	2143.2983	4746.15	3866.95
944.2172	2144.8171	4712.85	3835.55
944.3526	2146.3353	4717.8	3834.05
944.4879	2147.8527	4721.4	3840.8
944.6232	2149.3693	4725.7	3839.7
944.7585	2150.8853	4696.75	3806.4
944.8938	2152.4005	4673.3	3785.75
945.029	2153.9149	4684.55	3795.3
945.1642	2155.4287	4681.3	3789.45
945.2994	2156.9417	4653.1	3762.4
945.4346	2158.454	4650.55	3761.1
945.5697	2159.9655	4630.7	3748.7
945.7048	2161.4764	4620	3735.3
945.8399	2162.9865	4613.5	3730.3
945.9749	2164.4958	4596.1	3714.45
946.1099	2166.0045	4577.05	3689.1
946.2449	2167.5124	4582.65	3698.25
946.3799	2169.0195	4558.65	3671.65
946.5148	2170.526	4559.75	3671.5
946.6498	2172.0317	4525.65	3636.6
946.7846	2173.5367	4543.85	3659.25
946.9195	2175.0409	4532.85	3648.8
947.0543	2176.5445	4514.9	3628.2
947.1891	2178.0473	4509.4	3621.05
947.3239	2179.5494	4499.55	3609
947.4587	2181.0507	4488.9	3600.25
947.5934	2182.5513	4474.85	3587.9
947.7281	2184.0512	4470.55	3582.85
947.8628	2185.5504	4446.35	3558.1
947.9974	2187.0488	4408.15	3523.05
948.132	2188.5465	4395.4	3513.2
948.2666	2190.0435	4403.15	3516.05
948.4012	2191.5397	4385.45	3497.1
948.5357	2193.0353	4393.65	3503.5
948.6702	2194.5301	4362.7	3473.1
948.8047	2196.0241	4331.95	3440.2
948.9392	2197.5175	4327.6	3434.05
949.0736	2199.0101	4338.8	3443.65
949.208	2200.502	4315.3	3425.9
949.3424	2201.9931	4296.6	3412.45
949.4767	2203.4835	4283.6	3397.7
949.611	2204.9733	4283.1	3394.2
949.7453	2206.4622	4256.75	3375.45
949.8796	2207.9505	4252.45	3369.05
950.0138	2209.438	4235.45	3355.8
950.148	2210.9248	4211.6	3326.65
950.2822	2212.4109	4218	3333.5
950.4164	2213.8962	4209.05	3318.45
950.5505	2215.3809	4201.7	3307.25
950.6846	2216.8648	4193.55	3300.3
950.8186	2218.3479	4181	3282.6
950.9527	2219.8304	4173.7	3277.95
951.0867	2221.3121	4169.6	3274.15
951.2207	2222.7931	4134.6	3243.95
951.3546	2224.2733	4131.8	3241.1
951.4886	2225.7529	4126.05	3238.8
951.6225	2227.2317	4101.1	3210.6
951.7563	2228.7098	4089.8	3207.55
951.8902	2230.1872	4067.5	3182.1
952.024	2231.6638	4066.5	3184.9
952.1578	2233.1397	4063.1	3173.55
952.2916	2234.6149	4050.7	3166.75
952.4253	2236.0894	4048.1	3163.85
952.559	2237.5632	4038.8	3143.65
952.6927	2239.0362	4011.2	3125.85
952.8263	2240.5085	4002.4	3116.3
952.9599	2241.9801	3996.4	3106.8
953.0935	2243.4509	3982.55	3091.2
953.2271	2244.921	3982.2	3089.85
953.3606	2246.3904	3952.6	3057.15
953.4941	2247.8591	3955.95	3066.8
953.6276	2249.3271	3959.2	3070.25
953.7611	2250.7943	3929.9	3038.8
953.8945	2252.2608	3926.9	3037.4
954.0279	2253.7266	3909.95	3019.55
954.1612	2255.1917	3903.6	3014.9
954.2946	2256.656	3870.35	2984.3
954.4279	2258.1197	3868.15	2986.05
954.5612	2259.5826	3854.45	2966.45
954.6944	2261.0447	3847.25	2959.2
954.8276	2262.5062	3848.4	2958.15
954.9608	2263.9669	3837.35	2944.3
955.094	2265.4269	3839.1	2950.1
955.2271	2266.8862	3812.55	2924.8
955.3602	2268.3448	3830.45	2943.85
955.4933	2269.8026	3812.55	2928.95
955.6264	2271.2598	3811.25	2925.6
955.7594	2272.7162	3790.65	2904.55
955.8924	2274.1719	3791.05	2902.2
956.0253	2275.6268	3782.5	2889.55
956.1583	2277.0811	3773.15	2884.75
956.2912	2278.5346	3762.4	2873.95
956.4241	2279.9874	3759.35	2873.65
956.5569	2281.4395	3750.9	2865.4
956.6897	2282.8908	3738.65	2850.3
956.8225	2284.3414	3728.9	2837.95
956.9553	2285.7914	3718.25	2830.6
957.088	2287.2406	3706.8	2816
957.2207	2288.689	3711.8	2819.6
957.3534	2290.1368	3701.8	2807.15
957.486	2291.5838	3683.8	2786.75
957.6186	2293.0302	3683.7	2785.85
957.7512	2294.4758	3679.65	2786.9
957.8838	2295.9206	3651.6	2759.9
958.0163	2297.3648	3646.95	2758.75
958.1488	2298.8082	3650.65	2760.7
958.2813	2300.251	3641.05	2750.85
958.4137	2301.693	3629.3	2735.25
958.5461	2303.1343	3631.95	2739.55
958.6785	2304.5748	3596.95	2707.35
958.8108	2306.0147	3610.5	2725.65
958.9432	2307.4538	3584.95	2698.75
959.0754	2308.8922	3572.95	2690.8
959.2077	2310.3299	3578.65	2693.5
959.3399	2311.7669	3561.45	2675.85
959.4721	2313.2031	3558.1	2671.05
959.6043	2314.6387	3534.7	2645.15
959.7365	2316.0735	3520.95	2630.75
959.8686	2317.5076	3528.6	2641.45
960.0006	2318.941	3524.4	2633.1
960.1327	2320.3737	3516.65	2622.35
960.2647	2321.8056	3501.75	2608.95
960.3967	2323.2369	3489.45	2597.6
960.5287	2324.6674	3501.85	2612.2
960.6606	2326.0972	3476.8	2587.4
960.7925	2327.5263	3454.3	2566.4
960.9244	2328.9547	3461	2568.8
961.0562	2330.3823	3455.65	2564.15
961.1881	2331.8092	3444.4	2548.55
961.3198	2333.2355	3438.75	2544.5
961.4516	2334.661	3433.05	2542.35
961.5833	2336.0858	3434.55	2542.1
961.715	2337.5098	3415.95	2526.65
961.8467	2338.9332	3411.3	2521.65
961.9783	2340.3558	3391.7	2497.55
962.1099	2341.7778	3383.8	2497.2
962.2415	2343.199	3383.25	2495.45
962.373	2344.6195	3387.6	2499.1
962.5045	2346.0393	3373.1	2486.4
962.636	2347.4583	3366.55	2478.75
962.7675	2348.8767	3361.35	2470.05
962.8989	2350.2943	3370.2	2477.95
963.0303	2351.7113	3355.45	2459.25
963.1617	2353.1275	3339.05	2447
963.293	2354.543	3334.65	2433.7
963.4243	2355.9578	3328.75	2437.1
963.5556	2357.3718	3296.45	2409.9
963.6868	2358.7852	3300.9	2413.6
963.818	2360.1978	3279.25	2393.55
963.9492	2361.6098	3281.95	2396.9
964.0803	2363.021	3280.2	2387.3
964.2114	2364.4315	3256.4	2369.75
964.3425	2365.8413	3261.1	2372.05
964.4736	2367.2504	3257.75	2372.5
964.6046	2368.6587	3243	2359.8
964.7356	2370.0664	3225.35	2339.5
964.8666	2371.4733	3221.05	2333.6
964.9975	2372.8795	3221.6	2337
965.1284	2374.285	3214	2327.2
965.2593	2375.6899	3199.7	2314.6
965.3901	2377.0939	3190	2305.6
965.5209	2378.4973	3184.05	2297.45
965.6517	2379.9	3172.4	2285.65
965.7825	2381.3019	3168	2284.5
965.9132	2382.7032	3151.1	2268.45
966.0439	2384.1037	3147.65	2264.95
966.1745	2385.5035	3133.7	2251.2
966.3051	2386.9027	3134.9	2253.3
966.4357	2388.3011	3129	2243.65
966.5663	2389.6987	3120.4	2238.4
966.6968	2391.0957	3112.9	2230.65
966.8273	2392.492	3097.2	2216.4
966.9578	2393.8876	3091.9	2209.55
967.0882	2395.2824	3071.4	2188.7
967.2186	2396.6765	3062.7	2179.85
967.349	2398.07	3061.45	2178.1
967.4793	2399.4627	3055.6	2170.35
967.6097	2400.8547	3043.4	2157.6
967.7399	2402.246	3049.9	2157.65
967.8702	2403.6366	3038.65	2153.7
968.0004	2405.0265	3017.4	2134.2
968.1306	2406.4156	3018.75	2130
968.2607	2407.8041	3015.25	2128.45
968.3909	2409.1918	2994	2108.95
968.521	2410.5789	2984.4	2099.6
968.651	2411.9652	2985.45	2101.25
968.781	2413.3508	2975.65	2092.9
968.911	2414.7358	2966.5	2081.8
969.041	2416.12	2953.1	2070.2
969.1709	2417.5035	2951	2069.55
969.3008	2418.8863	2938.2	2053.4
969.4307	2420.2684	2944.5	2059.75
969.5606	2421.6497	2924.45	2037.85
969.6904	2423.0304	2920.35	2038.05
969.8201	2424.4104	2914.15	2030.5
969.9499	2425.7896	2918.35	2033.6
970.0796	2427.1682	2894.3	2012
970.2093	2428.546	2892.45	2006.75
970.3389	2429.9232	2889.6	2002.1
970.4685	2431.2996	2880.75	1998.35
970.5981	2432.6753	2878.35	1993.1
970.7277	2434.0503	2871.05	1986.55
970.8572	2435.4246	2858.65	1974.65
970.9867	2436.7982	2856.1	1968.05
971.1161	2438.1711	2843.3	1959.6
971.2456	2439.5433	2845.15	1959.5
971.375	2440.9148	2830.15	1940.95
971.5043	2442.2856	2821.15	1935.6
971.6336	2443.6557	2818.5	1930.9
971.7629	2445.025	2813.85	1928.8
971.8922	2446.3937	2796.95	1910.1
972.0214	2447.7617	2784.45	1898.35
972.1506	2449.1289	2800.8	1916
972.2798	2450.4955	2776.3	1887.4
972.4089	2451.8613	2769.9	1887.3
972.538	2453.2265	2774	1890.55
972.6671	2454.5909	2777.7	1891.65
972.7961	2455.9546	2765.15	1880.45
972.9251	2457.3177	2762	1877.65
973.0541	2458.68	2758.25	1871.65
973.1831	2460.0416	2751.95	1864.45
973.312	2461.4025	2759.9	1873
973.4408	2462.7627	2750.6	1854.7
973.5697	2464.1222	2742.7	1859.35
973.6985	2465.4811	2746.25	1860.95
973.8273	2466.8392	2728.5	1845.05
973.956	2468.1966	2715.9	1827
974.0847	2469.5533	2722.95	1835.35
974.2134	2470.9093	2725.6	1840.95
974.3421	2472.2645	2700.95	1816.3
974.4707	2473.6191	2710.1	1823.1
974.5993	2474.973	2691.6	1805.55
974.7278	2476.3262	2691.1	1803.3
974.8563	2477.6787	2684	1798.65
974.9848	2479.0305	2674.85	1789.1
975.1132	2480.3816	2680.8	1793.7
975.2417	2481.7319	2668.45	1782.35
975.37	2483.0816	2643.9	1757.3
975.4984	2484.4306	2638.3	1752
975.6267	2485.7789	2641.45	1758.55
975.755	2487.1264	2636.7	1750.35
975.8833	2488.4733	2620.6	1738.05
976.0115	2489.8195	2634.6	1735.75
976.1397	2491.165	2619.2	1731.25
976.2678	2492.5097	2609.5	1722.7
976.3959	2493.8538	2601.25	1717.85
976.524	2495.1972	2587.85	1701.55
976.6521	2496.5398	2577.8	1690.3
976.7801	2497.8818	2589.6	1700.65
976.9081	2499.2231	2568.3	1680.8
977.036	2500.5637	2582	1693.1
977.164	2501.9035	2565.5	1678.1
977.2918	2503.2427	2568.55	1676.15
977.4197	2504.5812	2553.1	1667.3
977.5475	2505.919	2543.7	1654.7
977.6753	2507.256	2540.35	1654.15
977.8031	2508.5924	2544.15	1656.4
977.9308	2509.9281	2536.9	1647.35
978.0585	2511.2631	2515	1628.1
978.1861	2512.5974	2508.2	1624.05
978.3137	2513.9309	2513	1626.65
978.4413	2515.2638	2523.3	1606.25
978.5689	2516.596	2510.85	1625.4
978.6964	2517.9275	2491.6	1604.15
978.8239	2519.2583	2493.6	1606.7
978.9513	2520.5884	2494.1	1604.6
979.0788	2521.9178	2474.6	1590.1
979.2062	2523.2465	2464.05	1582.1
979.3335	2524.5745	2470.3	1585.15
979.4608	2525.9018	2463.35	1577.35
979.5881	2527.2284	2462.1	1578.35
979.7154	2528.5543	2451.05	1565.3
979.8426	2529.8796	2450.05	1563.25
979.9698	2531.2041	2453.8	1568.55
980.0969	2532.5279	2447.8	1565.25
980.224	2533.851	2442.65	1554.95
980.3511	2535.1735	2435.3	1549.35
980.4781	2536.4952	2424.4	1537.55
980.6052	2537.8163	2428.2	1540.15
980.7321	2539.1366	2412.3	1526.35
980.8591	2540.4562	2422.45	1534.5
980.986	2541.7752	2428.9	1539.8
981.1129	2543.0935	2419	1533.15
981.2397	2544.411	2411.3	1523.05
981.3665	2545.7279	2401.7	1515.95
981.4933	2547.0441	2389.3	1502.5
981.62	2548.3596	2396.1	1505
981.7467	2549.6744	2389.65	1500.85
981.8734	2550.9885	2395.85	1500.1
982.0001	2552.3019	2378.85	1494.55
982.1267	2553.6146	2378.45	1490.95
982.2532	2554.9266	2373.1	1486.9
982.3798	2556.2379	2366.9	1479.9
982.5063	2557.5485	2361.05	1477.65
982.6327	2558.8585	2365.25	1469.7
982.7592	2560.1677	2360	1468.1
982.8856	2561.4762	2353.35	1462.85
983.0119	2562.7841	2352.85	1462.85
983.1383	2564.0913	2344.6	1460.2
983.2646	2565.3977	2339.55	1455.95
983.3908	2566.7035	2341.35	1454.75
983.517	2568.0086	2343.4	1454.2
983.6432	2569.313	2329.25	1438.85
983.7694	2570.6167	2336	1446.5
983.8955	2571.9197	2324.55	1438.7
984.0216	2573.222	2331.05	1439.1
984.1476	2574.5236	2315	1426.45
984.2737	2575.8246	2322.75	1432.9
984.3996	2577.1248	2320.45	1432.75
984.5256	2578.4244	2313.2	1428.55
984.6515	2579.7232	2314.65	1427.3
984.7774	2581.0214	2342.2	1422.5
984.9032	2582.3189	2308.15	1422.8
985.029	2583.6157	2311.05	1420.7
985.1548	2584.9118	2298.3	1410.85
985.2806	2586.2072	2304.8	1414.95
985.4063	2587.5019	2302.4	1414.05
985.5319	2588.7959	2283.7	1396.5
985.6576	2590.0893	2288.8	1402.1
985.7832	2591.3819	2292.6	1405.95
985.9087	2592.6739	2284.55	1396.45
986.0343	2593.9652	2283.15	1395.95
986.1597	2595.2557	2282.3	1395.6
986.2852	2596.5456	2275.85	1387.2
986.4106	2597.8348	2276.55	1388.2
986.536	2599.1234	2272.05	1386.55
986.6614	2600.4112	2268.2	1380.1
986.7867	2601.6983	2263.25	1371.3
986.912	2602.9848	2260.65	1374
987.0372	2604.2705	2264.45	1370
987.1624	2605.5556	2250.6	1365.65
987.2876	2606.84	2244.95	1358.95
987.4128	2608.1237	2227.9	1340.25
987.5379	2609.4067	2230.05	1342.75
987.6629	2610.689	2229.65	1338
987.788	2611.9707	2232.1	1343.4
987.913	2613.2516	2226.45	1336.2
988.0379	2614.5319	2211	1323.55
988.1629	2615.8115	2216.85	1328.65
988.2878	2617.0903	2205.85	1316.05
988.4126	2618.3685	2202	1312.9
988.5375	2619.6461	2191.3	1306.4
988.6622	2620.9229	2196.5	1309.15
988.787	2622.199	2194.55	1308.45
988.9117	2623.4745	2184.25	1295.9
989.0364	2624.7493	2178.05	1289.5
989.161	2626.0234	2171.65	1288.35
989.2857	2627.2968	2179.45	1293.35
989.4102	2628.5695	2172.15	1287.75
989.5348	2629.8415	2163.4	1277.35
989.6593	2631.1128	2160.35	1271.3
989.7837	2632.3835	2163.6	1277.25
989.9082	2633.6535	2159.4	1272.55
990.0326	2634.9228	2158.15	1272
990.1569	2636.1914	2145.55	1261.85
990.2812	2637.4593	2146.4	1256.8
990.4055	2638.7265	2158.05	1271.95
990.5298	2639.9931	2143.8	1256.7
990.654	2641.259	2130.2	1243.4
990.7782	2642.5242	2128.75	1241.45
990.9023	2643.7887	2123.7	1237.9
991.0264	2645.0525	2110.65	1224.9
991.1505	2646.3156	2122.6	1234.75
991.2745	2647.5781	2109.85	1224.2
991.3985	2648.8398	2096.35	1211.5
991.5225	2650.1009	2108.15	1213.95
991.6464	2651.3613	2101.9	1213.65
991.7703	2652.6211	2098.6	1211.1
991.8942	2653.8801	2082.55	1196.15
992.018	2655.1385	2095.6	1206.35
992.1418	2656.3961	2086	1200.55
992.2655	2657.6531	2085.7	1199.8
992.3892	2658.9094	2085.4	1197.65
992.5129	2660.1651	2073.6	1190.8
992.6366	2661.42	2080.75	1195.3
992.7602	2662.6743	2085.5	1198.15
992.8837	2663.9279	2084.3	1199.4
993.0073	2665.1808	2084.25	1194.3
993.1307	2666.433	2080.5	1195.8
993.2542	2667.6846	2070.65	1185.15
993.3776	2668.9354	2067.3	1177.9
993.501	2670.1856	2074.4	1188.25
993.6244	2671.4351	2072.85	1188.4
993.7477	2672.6839	2083.85	1193.1
993.8709	2673.9321	2066.95	1181.55
993.9942	2675.1795	2071.65	1186.35
994.1174	2676.4263	2079.1	1191.65
994.2405	2677.6724	2077.2	1191
994.3637	2678.9179	2070.55	1185.05
994.4868	2680.1626	2065.45	1179.9
994.6098	2681.4067	2065.8	1180.5
994.7328	2682.6501	2062.25	1177.2
994.8558	2683.8928	2058.35	1172.15
994.9788	2685.1348	2041.3	1155.9
995.1017	2686.3761	2045.35	1157.7
995.2245	2687.6168	2034.65	1149.35
995.3474	2688.8568	2030.5	1144
995.4702	2690.0961	2024.8	1141.6
995.5929	2691.3348	2020.95	1135.85
995.7156	2692.5727	2019.55	1134.3
995.8383	2693.81	2009.5	1123.65
995.961	2695.0466	2004.75	1120.3
996.0836	2696.2826	2010	1124.65
996.2062	2697.5178	2003.6	1112.35
996.3287	2698.7524	2005	1120.55
996.4512	2699.9863	2010.15	1122.35
996.5737	2701.2195	1993.05	1108.85
996.6961	2702.452	2007.35	1119.4
996.8185	2703.6839	2003.15	1116.8
996.9408	2704.9151	1998.25	1117.45
997.0631	2706.1456	2011.65	1123.65
997.1854	2707.3755	2016.95	1131.5
997.3077	2708.6046	2016.65	1129.65
997.4299	2709.8331	2018.95	1131.7
997.552	2711.0609	2017.6	1131.8
997.6742	2712.2881	2031.3	1146.6
997.7963	2713.5145	2026.95	1138.35
997.9183	2714.7403	2043.35	1157.2
998.0403	2715.9654	2048.95	1163.45
998.1623	2717.1899	2070.4	1170.25
998.2842	2718.4136	2069.35	1185.55
998.4062	2719.6367	2079.45	1191.35
998.528	2720.8591	2085.4	1192.2
998.6498	2722.0809	2093.1	1207.25
998.7716	2723.3019	2102.75	1214.45
998.8934	2724.5223	2114.35	1229.75
999.0151	2725.7421	2104.75	1217.15
999.1368	2726.9611	2107.05	1222.05
999.2584	2728.1795	2106.6	1217.8
999.38	2729.3972	2091.85	1206.9
999.5016	2730.6142	2092.65	1194.5
999.6231	2731.8306	2064.4	1178.4
999.7446	2733.0462	2061.15	1174.3
999.8661	2734.2612	2030.8	1139.2
999.9875	2735.4756	2013.35	1127.55
1000.1089	2736.6892	1993.3	1106.7
1000.2302	2737.9022	1980.85	1095.75
1000.3515	2739.1145	1950.8	1066.3
1000.4728	2740.3262	1960.3	1067.5
1000.594	2741.5372	1933.3	1049.25
1000.7152	2742.7475	1920.3	1035.6
1000.8363	2743.9571	1907.05	1022.6
1000.9575	2745.1661	1900.35	1010.9
1001.0785	2746.3744	1879.55	994.55
1001.1996	2747.582	1866.35	982.15
1001.3206	2748.7889	1873.45	985.3
1001.4415	2749.9952	1860.45	978.3
1001.5625	2751.2008	1849.6	962.95
1001.6833	2752.4057	1859.05	972.2
1001.8042	2753.61	1844	959.6
1001.925	2754.8136	1837.4	951.8
1002.0458	2756.0165	1827.35	941.95
1002.1665	2757.2188	1829.7	946.2
1002.2872	2758.4204	1828.4	944.75
1002.4078	2759.6213	1823.65	937.2
1002.5285	2760.8215	1828.75	938.4
1002.649	2762.0211	1820.95	933.55
1002.7696	2763.22	1819.2	930.85
1002.8901	2764.4182	1810.95	926.55
1003.0106	2765.6158	1814.6	931.7
1003.131	2766.8127	1807.4	923.75
1003.2514	2768.009	1799.7	915.95
1003.3717	2769.2045	1796.15	910.45
1003.492	2770.3994	1797.7	909.65
1003.6123	2771.5936	1782.75	896.6
1003.7325	2772.7872	1790.65	907.95
1003.8527	2773.9801	1773.05	888.75
1003.9729	2775.1723	1790.75	890.4
1004.093	2776.3639	1768.9	888.05
1004.2131	2777.5548	1769.6	884.75
1004.3331	2778.745	1775.1	889.55
1004.4531	2779.9346	1774.45	891.95
1004.5731	2781.1235	1773.45	890
1004.693	2782.3117	1777.95	895
1004.8129	2783.4992	1780.25	896.1
1004.9328	2784.6861	1782.35	898.6
1005.0526	2785.8723	1779.75	895.7
1005.1723	2787.0579	1776.9	890.5
1005.2921	2788.2428	1790.5	907.3
1005.4118	2789.427	1787.35	905.1
1005.5314	2790.6106	1804.9	922.95
1005.651	2791.7935	1809.1	923.4
1005.7706	2792.9757	1813.9	932.4
1005.8902	2794.1573	1818.7	934.4
1006.0097	2795.3382	1828.95	945.95
1006.1291	2796.5184	1849.1	967.3
1006.2485	2797.698	1859.6	976.55
1006.3679	2798.8769	1876.1	993.45
1006.4873	2800.0551	1892.8	1010.4
1006.6066	2801.2327	1910.7	1023.45
1006.7258	2802.4096	1920.5	1037.8
1006.8451	2803.5859	1926.8	1042.6
1006.9642	2804.7615	1953.4	1070.4
1007.0834	2805.9364	1991.3	1109.9
1007.2025	2807.1106	1994.15	1109.65
1007.3216	2808.2842	2019.3	1133.75
1007.4406	2809.4572	2061.7	1177.05
1007.5596	2810.6294	2082.15	1199.15
1007.6785	2811.801	2129.8	1248.05
1007.7975	2812.972	2168.2	1286.2
1007.9163	2814.1423	2213.95	1331.05
1008.0352	2815.3119	2258.15	1374.05
1008.154	2816.4808	2301.75	1420.3
1008.2727	2817.6491	2345.05	1460.65
1008.3914	2818.8167	2399.15	1518.45
1008.5101	2819.9837	2440.2	1553.3
1008.6288	2821.15	2491.15	1605.85
1008.7474	2822.3157	2524.3	1644.05
1008.8659	2823.4807	2582.35	1699.8
1008.9844	2824.645	2635.85	1754.8
1009.1029	2825.8086	2667.8	1787.8
1009.2214	2826.9716	2716.1	1835.1
1009.3398	2828.134	2758.35	1877.95
1009.4581	2829.2957	2790.3	1908.75
1009.5764	2830.4567	2809.1	1930.6
1009.6947	2831.617	2826.05	1944.05
1009.813	2832.7767	2833.05	1951.95
1009.9312	2833.9358	2851.8	1970.35
1010.0493	2835.0941	2840.45	1957.7
1010.1675	2836.2519	2841.05	1959.8
1010.2855	2837.4089	2820	1934.2
1010.4036	2838.5653	2822	1940.1
1010.5216	2839.7211	2809.4	1928.2
1010.6396	2840.8761	2831.05	1947.15
1010.7575	2842.0306	2844.75	1963.7
1010.8754	2843.1843	2882.85	2002.8
1010.9932	2844.3374	2916.25	2035.2
1011.111	2845.4899	2975.15	2092.4
1011.2288	2846.6417	3038.9	2155.25
1011.3465	2847.7928	3104.5	2221.3
1011.4642	2848.9433	3209.15	2325.15
1011.5818	2850.0931	3271.1	2389.1
1011.6995	2851.2422	3358.65	2474.2
1011.817	2852.3907	3425.5	2543.05
1011.9345	2853.5385	3489.55	2604.05
1012.052	2854.6857	3551.3	2643.25
1012.1695	2855.8323	3591.55	2710.95
1012.2869	2856.9781	3624.35	2742.2
1012.4042	2858.1233	3667.3	2787.35
1012.5216	2859.2679	3722.05	2839.05
1012.6389	2860.4118	3767.15	2884
1012.7561	2861.555	3807.45	2921
1012.8733	2862.6976	3824	2940.25
1012.9905	2863.8395	3867.35	2986.55
1013.1076	2864.9808	3877.2	2996.45
1013.2247	2866.1214	3910.9	3030.7
1013.3417	2867.2614	3920.25	3039.65
1013.4587	2868.4007	3920.1	3038
1013.5757	2869.5393	3950.1	3066.15
1013.6926	2870.6773	3954.65	3071.15
1013.8095	2871.8146	3973.25	3086.85
1013.9263	2872.9513	3985.7	3099.65
1014.0431	2874.0874	3971.85	3089.65
1014.1599	2875.2227	3953.95	3071.6
1014.2766	2876.3574	3927.85	3044.8
1014.3933	2877.4915	3911.4	3030.65
1014.51	2878.6249	3879.5	3000.1
1014.6266	2879.7577	3848.55	2966.4
1014.7431	2880.8898	3842.55	2950.25
1014.8596	2882.0212	3812.65	2933.3
1014.9761	2883.152	3802.05	2919.3
1015.0925	2884.2821	3791.2	2911.65
1015.2089	2885.4116	3780.3	2897.9
1015.3253	2886.5405	3780	2898.7
1015.4416	2887.6686	3796.3	2913.65
1015.5579	2888.7962	3786.4	2907.25
1015.6741	2889.923	3806.2	2928.3
1015.7903	2891.0493	3814	2931.9
1015.9065	2892.1748	3820.2	2937.85
1016.0226	2893.2997	3828.75	2945.6
1016.1387	2894.424	3846.4	2966.1
1016.2547	2895.5476	3867.65	2984.8
1016.3707	2896.6706	3887	3006.6
1016.4866	2897.7929	3908.85	3027.85
1016.6025	2898.9145	3949.1	3066.6
1016.7184	2900.0355	3968.6	3087.25
1016.8342	2901.1559	4010.75	3131.3
1016.95	2902.2756	4041.45	3156.9
1017.0658	2903.3946	4086.7	3209.3
1017.1815	2904.513	4088.15	3204.1
1017.2971	2905.6308	4103.05	3222.4
1017.4127	2906.7479	4132.95	3251.45
1017.5283	2907.8643	4172.25	3290.5
1017.6439	2908.9801	4190.3	3309.75
1017.7594	2910.0953	4182.9	3301.5
1017.8748	2911.2098	4196.9	3312.6
1017.9902	2912.3236	4177.8	3289.65
1018.1056	2913.4368	4169.2	3287.7
1018.2209	2914.5494	4147.75	3265.75
1018.3362	2915.6613	4100.6	3216.05
1018.4515	2916.7725	4079.3	3195
1018.5667	2917.8831	4054.95	3173.9
1018.6819	2918.9931	4025.85	3141.95
1018.797	2920.1024	3992.35	3110.8
1018.9121	2921.211	3962.5	3083.8
1019.0271	2922.319	3955.05	3074.65
1019.1421	2923.4264	3923.75	3046.65
1019.2571	2924.5331	3920.35	3042.55
1019.372	2925.6391	3905.8	3026.45
1019.4869	2926.7445	3892.2	3013.8
1019.6017	2927.8493	3881.9	2999.6
1019.7165	2928.9534	3889.5	3010.05
1019.8313	2930.0569	3877.7	2992.75
1019.946	2931.1597	3877.5	2996.15
1020.0606	2932.2619	3856.15	2976.7
1020.1753	2933.3634	3855.2	2977.35
1020.2899	2934.4643	3856.7	2969.55
1020.4044	2935.5645	3832.9	2949.35
1020.5189	2936.6641	3782.1	2897.5
1020.6334	2937.763	3743.15	2864.55
1020.7478	2938.8613	3699.05	2816.55
1020.8622	2939.959	3642.1	2756.1
1020.9765	2941.056	3569.55	2688.25
1021.0908	2942.1523	3493.45	2612.2
1021.2051	2943.248	3402.45	2522.25
1021.3193	2944.3431	3312.75	2431.5
1021.4334	2945.4375	3204.55	2325.8
1021.5476	2946.5313	3110.75	2231.25
1021.6617	2947.6244	2991.6	2112.25
1021.7757	2948.7169	2899.5	2020.9
1021.8897	2949.8087	2803.15	1924.4
1022.0037	2950.8999	2718.05	1835.6
1022.1176	2951.9904	2643.4	1763.4
1022.2315	2953.0803	2544.65	1664.55
1022.3453	2954.1696	2491.55	1611.4
1022.4591	2955.2582	2431.8	1551.85
1022.5728	2956.3462	2388.1	1508.75
1022.6865	2957.4335	2360.05	1478.9
1022.8002	2958.5202	2321.7	1440.55
1022.9138	2959.6062	2284.3	1404.2
1023.0274	2960.6916	2272.95	1393.85
1023.141	2961.7764	2242.3	1361.85
1023.2545	2962.8605	2221.65	1342.1
1023.3679	2963.9439	2211.35	1331.35
1023.4813	2965.0267	2200.9	1321.35
1023.5947	2966.1089	2217.15	1316.35
1023.708	2967.1905	2189.25	1310.9
1023.8213	2968.2714	2187.5	1309.55
1023.9346	2969.3516	2185.9	1308.35
1024.0478	2970.4312	2196.45	1309.35
1024.1609	2971.5102	2181	1303.1
1024.274	2972.5885	2179.5	1298.85
1024.3871	2973.6662	2187.3	1304.25
1024.5002	2974.7432	2176.4	1297.9
1024.6132	2975.8196	2165.5	1285.35
1024.7261	2976.8954	2154.95	1277.6
1024.839	2977.9705	2141.3	1264.45
1024.9519	2979.045	2135.75	1258.65
1025.0647	2980.1188	2107.35	1226.4
1025.1775	2981.192	2083.8	1207.3
1025.2902	2982.2645	2078.35	1199.6
1025.4029	2983.3364	2049.95	1169.4
1025.5156	2984.4077	1998.85	1118.7
1025.6282	2985.4783	1989.25	1103.6
1025.7407	2986.5483	1948	1070.3
1025.8532	2987.6177	1918.95	1041.75
1025.9657	2988.6864	1882.15	1000.25
1026.0782	2989.7545	1853.3	973.05
1026.1906	2990.8219	1823.7	947.45
1026.3029	2991.8887	1784.9	904
1026.4152	2992.9548	1752.55	872.2
1026.5275	2994.0204	1719.15	841.05
1026.6397	2995.0852	1690.4	811.2
1026.7519	2996.1495	1662.95	782.55
1026.864	2997.2131	1646.6	765.8
1026.9761	2998.276	1621.7	741.85
1027.0882	2999.3383	1604.65	725.15
1027.2002	3000.4	1582.8	703.45
1027.3122	3001.4611	1565.75	686.1
1027.4241	3002.5215	1540.15	660.4
1027.536	3003.5812	1529.35	651.45
1027.6478	3004.6404	1521	642.95
1027.7596	3005.6989	1510.9	629.95
1027.8714	3006.7567	1500.25	622.3
1027.9831	3007.8139	1528.7	620.7
1028.0947	3008.8705	1485.35	607.95
1028.2064	3009.9264	1484.65	601.25
1028.3179	3010.9818	1471.35	593.7
1028.4295	3012.0364	1460.9	582.15
1028.541	3013.0905	1466.65	586.85
1028.6524	3014.1439	1461.5	582.85
1028.7638	3015.1966	1464.1	585.25
1028.8752	3016.2487	1452.95	573.25
1028.9865	3017.3002	1452.9	572.1
1029.0978	3018.3511	1453.45	577.75
1029.209	3019.4013	1456.8	579.4
1029.3202	3020.4509	1447.2	569.65
1029.4314	3021.4998	1444.6	568.55
1029.5425	3022.5481	1444.6	567.6
1029.6535	3023.5958	1436	559.95
1029.7645	3024.6428	1450.5	568.7
1029.8755	3025.6892	1453.2	575.65
1029.9864	3026.735	1446.7	568.85
1030.0973	3027.7802	1447.6	568.2
1030.2082	3028.8247	1454.6	577.5
1030.319	3029.8685	1454.6	576
1030.4297	3030.9118	1454.15	574.7
1030.5404	3031.9544	1462	585
1030.6511	3032.9963	1458.85	579.85
1030.7617	3034.0376	1465.55	588.15
1030.8723	3035.0783	1474	593.15
1030.9829	3036.1184	1471.9	592.55
1031.0934	3037.1578	1476.3	599.55
1031.2038	3038.1966	1475.8	597.6
1031.3142	3039.2348	1467.2	589.4
1031.4246	3040.2723	1486.35	599.9
1031.5349	3041.3092	1471.85	595.2
1031.6452	3042.3455	1469.95	592.6
1031.7554	3043.3811	1463.55	583.45
1031.8656	3044.4161	1467.15	587.75
1031.9758	3045.4505	1458.85	581.7
1032.0859	3046.4842	1459.4	580.55
1032.1959	3047.5173	1443.55	567.5
1032.3059	3048.5498	1435.4	559.6
1032.4159	3049.5816	1434.45	557.55
1032.5258	3050.6128	1430.95	553.6
1032.6357	3051.6434	1430.65	553.1
1032.7455	3052.6734	1417.45	537.95
1032.8553	3053.7027	1412.35	537.2
1032.9651	3054.7314	1406.55	528.1
1033.0748	3055.7594	1397.1	518.8
1033.1845	3056.7868	1393.7	512.9
1033.2941	3057.8136	1390.1	511.2
1033.4037	3058.8398	1379.95	503.65
1033.5132	3059.8653	1377.6	499.95
1033.6227	3060.8902	1368.8	490.6
1033.7321	3061.9145	1375.8	499.3
1033.8415	3062.9381	1362.2	483.85
1033.9509	3063.9612	1369.45	474.5
1034.0602	3064.9835	1349.15	471.5
1034.1694	3066.0053	1351.65	471.65
1034.2787	3067.0264	1340.25	462.9
1034.3878	3068.0469	1332.85	452.25
1034.497	3069.0668	1317.35	436.95
1034.6061	3070.086	1317.5	441.1
1034.7151	3071.1046	1307.45	429.2
1034.8241	3072.1226	1299.9	424
1034.9331	3073.1399	1294.55	417.8
1035.042	3074.1567	1281.75	405.45
1035.1508	3075.1727	1272.7	392.4
1035.2597	3076.1882	1258.4	382.75
1035.3684	3077.203	1255.05	378.7
1035.4772	3078.2173	1249.75	369.35
1035.5859	3079.2308	1237.5	356.15
1035.6945	3080.2438	1228.05	349.4
1035.8031	3081.2561	1219.75	342.15
1035.9117	3082.2678	1214.9	337.55
1036.0202	3083.2789	1207.1	328.5
1036.1286	3084.2893	1197.25	319.2
1036.2371	3085.2991	1192.95	315.7
1036.3454	3086.3083	1197.65	315.15
1036.4538	3087.3169	1188.85	310.85
1036.562	3088.3248	1183.05	304.25
1036.6703	3089.3321	1181.15	301.8
1036.7785	3090.3388	1172.35	294.75
1036.8866	3091.3449	1169.45	292.15
1036.9948	3092.3503	1160.3	281.95
1037.1028	3093.3551	1157.05	283.25
1037.2108	3094.3593	1149	273.8
1037.3188	3095.3629	1148.2	268.9
1037.4267	3096.3658	1143.95	266.5
1037.5346	3097.3681	1140.05	262.6
1037.6425	3098.3698	1141	264.55
1037.7503	3099.3708	1143.2	258.45
1037.858	3100.3713	1137.9	260.5
1037.9657	3101.3711	1128.75	249.8
1038.0734	3102.3702	1242.05	248.95
1038.181	3103.3688	1128.1	247.85
1038.2886	3104.3667	1118.75	242.75
1038.3961	3105.364	1113	239.2
1038.5036	3106.3607	1117.75	239.75
1038.611	3107.3568	1120.8	242.7
1038.7184	3108.3522	1108.05	230.95
1038.8257	3109.347	1117.8	239.75
1038.933	3110.3412	1108.8	228.4
1039.0403	3111.3348	1111.8	236.05
1039.1475	3112.3277	1097.15	218.65
1039.2547	3113.32	1104.4	228.8
1039.3618	3114.3117	1100.55	222.9
1039.4689	3115.3028	1098.1	221.55
1039.5759	3116.2932	1101.35	222.9
1039.6829	3117.2831	1103.45	222.4
1039.7898	3118.2723	1091.3	214.5
1039.8967	3119.2608	1090.95	215.2
1040.0035	3120.2488	1090.9	213.9
1040.1103	3121.2361	1091.3	214.7
1040.2171	3122.2229	1091	213
1040.3238	3123.209	1090.4	212.8
1040.4305	3124.1944	1086.35	213.6
1040.5371	3125.1793	1083.85	207.2
1040.6437	3126.1635	1082.25	204.55
1040.7502	3127.1471	1076.55	200.5
1040.8567	3128.1301	1078.25	202.55
1040.9631	3129.1125	1079.95	204.85
1041.0695	3130.0942	1077.5	199.85
1041.1759	3131.0753	1080.8	195
1041.2822	3132.0558	1077.7	199.3
1041.3884	3133.0357	1070.15	194.2
1041.4946	3134.015	1070.9	193
1041.6008	3134.9936	1069.5	189.5
1041.7069	3135.9716	1089.3	191.7
1041.813	3136.949	1066.75	191.7
1041.919	3137.9258	1086.9	193.65
1042.025	3138.902	1066.7	185.15
1042.1309	3139.8775	1061.75	184.95
1042.2368	3140.8524	1062.55	186.1
1042.3427	3141.8267	1059.65	180.65
1042.4485	3142.8004	1060.25	185.1
1042.5542	3143.7735	1059.25	176.25
1042.6599	3144.7459	1059.8	180.15
1042.7656	3145.7178	1056.65	178.45
1042.8712	3146.689	1050.7	176.95
1042.9768	3147.6596	1054.75	178
1043.0823	3148.6295	1049.05	173.4
1043.1878	3149.5989	1050.25	174.8
1043.2932	3150.5676	1047.65	173
1043.3986	3151.5357	1042.55	169.15
1043.5039	3152.5032	1049.75	176.25
1043.6092	3153.4701	1045.6	170.65
1043.7145	3154.4364	1047.1	169
1043.8197	3155.402	1040.45	164.3
1043.9248	3156.367	1043.3	166.1
1044.03	3157.3315	1062.9	160.85
1044.135	3158.2952	1038.85	164.15
1044.24	3159.2584	1039.35	163.45
1044.345	3160.221	1037.75	162.1
1044.4499	3161.1829	1037.05	160.5
1044.5548	3162.1442	1032.95	156.2
1044.6596	3163.105	1032.9	156.85
1044.7644	3164.065	1032.8	156.65
1044.8692	3165.0245	1029.25	151.6
1044.9739	3165.9834	1029.35	155.05
1045.0785	3166.9416	1027.1	150.5
1045.1831	3167.8993	1026.1	149.4
1045.2877	3168.8563	1025.55	150
1045.3922	3169.8127	1027.65	154
1045.4966	3170.7684	1021.8	148.05
1045.6011	3171.7236	1022.15	144.35
1045.7054	3172.6782	1020.4	143.1
1045.8098	3173.6321	1023.95	145.95
1045.914	3174.5854	1025.15	144.5
1046.0183	3175.5381	1017.45	143.45
1046.1224	3176.4902	1017.55	143.55
1046.2266	3177.4417	1014.1	138.8
1046.3307	3178.3926	1020.1	143.55
1046.4347	3179.3428	1015.85	141.15
1046.5387	3180.2924	1012.15	137.4
1046.6427	3181.2415	1011.7	136.45
1046.7466	3182.1899	1008.85	131.3
1046.8504	3183.1377	1013.65	138.65
1046.9542	3184.0848	1014.35	133.95
1047.058	3185.0314	1010.95	136.95
1047.1617	3185.9773	1011.25	135.3
1047.2654	3186.9227	1008.75	133
1047.369	3187.8674	1007.55	132.4
1047.4726	3188.8115	1011.6	130.8
1047.5761	3189.755	1005.85	130.75
1047.6796	3190.6979	1006.1	131.25
1047.783	3191.6402	1005.2	130.15
1047.8864	3192.5818	1001.3	124.6
1047.9898	3193.5229	1007.4	126.35
1048.0931	3194.4633	1004.8	129.75
1048.1963	3195.4031	997.55	121.95
1048.2995	3196.3423	1000.85	123.9
1048.4027	3197.2809	1002.1	126.9
1048.5058	3198.2189	999.35	123.15
1048.6089	3199.1563	1015.75	124.2
1048.7119	3200.0931	996	122.35
1048.8148	3201.0292	990.45	116.9
1048.9178	3201.9648	995.15	120.1
1049.0206	3202.8997	998.2	120
1049.1235	3203.834	1000	124.1
1049.2262	3204.7677	990.6	115.75
1049.329	3205.7008	997.45	119.5
1049.4317	3206.6333	990.55	118.65
1049.5343	3207.5652	989.5	111.7
1049.6369	3208.4964	989.75	114.4
1049.7394	3209.4271	989.3	114.7
1049.8419	3210.3571	990.1	115.25
1049.9444	3211.2865	992.2	117.95
1050.0468	3212.2154	991.95	116.15
1050.1491	3213.1436	991.5	112
1050.2514	3214.0712	994.4	114.4
1050.3537	3214.9982	990.2	113.3
1050.4559	3215.9246	986.35	109.4
1050.5581	3216.8503	984.65	108.45
1050.6602	3217.7755	988.55	112.1
1050.7623	3218.7001	984.95	109.15
1050.8643	3219.624	983.4	109.8
1050.9663	3220.5473	982.85	107.35
1051.0682	3221.4701	982.4	105.15
1051.1701	3222.3922	984.3	109.3
1051.2719	3223.3137	983.05	109.8
1051.3737	3224.2346	980.3	104.3
1051.4754	3225.1549	979.85	106.3
1051.5771	3226.0746	982.15	108.4
1051.6788	3226.9937	979.85	103.95
1051.7804	3227.9121	979.8	106.65
1051.8819	3228.83	980.2	106.3
1051.9834	3229.7473	981.2	107
1052.0849	3230.6639	977.15	101.75
1052.1863	3231.5799	977.25	102.45
1052.2876	3232.4954	979.5	102.7
1052.3889	3233.4102	975.25	99.9
1052.4902	3234.3244	974.3	99.3
1052.5914	3235.238	975.5	101.15
1052.6926	3236.151	989.95	103.45
1052.7937	3237.0634	969.05	98.45
1052.8948	3237.9752	970.45	96.25
1052.9958	3238.8864	972.65	95.95
1053.0968	3239.797	969.3	94.7
1053.1977	3240.7069	971.5	94.5
1053.2986	3241.6163	970.1	90.6
1053.3994	3242.5251	968.4	96.5
1053.5002	3243.4332	966.25	91.9
1053.6009	3244.3408	973.3	99.25
1053.7016	3245.2477	964.65	89.45
1053.8022	3246.154	969.05	93.1
1053.9028	3247.0598	965.95	91.15
1054.0034	3247.9649	965.25	90.1
1054.1039	3248.8694	960.65	85.3
1054.2043	3249.7733	965.7	90.15
1054.3047	3250.6766	963.9	92.2
1054.4051	3251.5793	961.75	86.85
1054.5054	3252.4814	961.15	87.55
1054.6056	3253.3829	960.05	89.05
1054.7058	3254.2838	959.45	84.9
1054.806	3255.1841	958.2	83.8
1054.9061	3256.0838	954.6	80.85
1055.0061	3256.9829	957.8	83.8
1055.1062	3257.8814	957.5	81.45
1055.2061	3258.7792	960.6	84.1
1055.306	3259.6765	959.5	86.45
1055.4059	3260.5731	954.85	83.15
1055.5057	3261.4692	953.45	79.75
1055.6055	3262.3647	952.8	78.05
1055.7052	3263.2595	949.15	73.9
1055.8049	3264.1538	948.9	74.65
1055.9045	3265.0474	948.7	73.95
1056.0041	3265.9404	946.85	75.85
1056.1036	3266.8329	944.4	69.85
1056.2031	3267.7247	955.45	73.8
1056.3025	3268.616	942.45	68.7
1056.4019	3269.5066	942.35	67.9
1056.5013	3270.3966	943.7	68.05
1056.6005	3271.286	932.8	60.2
