Software Version:	3.9.2.0
Unit SN:	10000200
Spectrometer SN:	6960
Date:	3/8/2024 1:54:06 PM
Data Line Index:	25
Spectral Points:	2048
Integration time (ms):	125
Averages:	20
Delay (ms):	30000
Sequence Number:	1
Processing:	dark subtract
Laser Power (mW):	295
Laser Current (mA):	823
Laser Diode Temp (C):	25
Laser Case Temp (C):	26.4
System Temp (C):	26.3
Spectrometer Temp (C):	24.2
CCD Temp (C):	0.005
Secondary Temp (C):	20.011
Heatsink Temp (C):	20.508
CCDPCB Temp (C):	36.318
SecondaryPCB Temp (C):	31.861

Wavelength	RamanShift	Raw Counts	Dark Subtracted
787.061	30.1047	469.45	64.75
787.2016	32.3739	471.55	68.55
787.3422	34.6426	476.85	70.95
787.4828	36.9109	483.75	74.75
787.6235	39.1787	491.25	78.75
787.7642	41.4461	500.55	82.35
787.9049	43.7131	510.2	89.6
788.0456	45.9796	521.55	98.15
788.1863	48.2456	532.6	106.05
788.3271	50.5112	541.8	110
788.4679	52.7764	550.8	114.95
788.6087	55.0411	564.95	124.45
788.7496	57.3054	576.85	131.8
788.8904	59.5692	585.6	138.8
789.0313	61.8326	597.8	149.15
789.1722	64.0955	613.9	161.25
789.3132	66.3579	629.85	170.35
789.4541	68.6199	655.8	194.05
789.5951	70.8815	687.55	221.05
789.7361	73.1426	777.55	308.6
789.8771	75.4032	995.55	522.85
790.0181	77.6634	1541.85	1063.9
790.1592	79.9231	2824.15	2337.25
790.3003	82.1824	5623.25	5116.85
790.4414	84.4412	10656.2	10123.85
790.5825	86.6995	17646.2	17076.25
790.7237	88.9574	24506.85	23902.65
790.8648	91.2148	29250.9	28623.6
791.006	93.4717	31505.2	30861.8
791.1472	95.7282	32063.55	31417
791.2885	97.9842	32078.4	31426.6
791.4297	100.2398	31603.6	30948.65
791.571	102.4949	30983.3	30327.9
791.7123	104.7495	30317.55	29656.65
791.8536	107.0036	29518.95	28859
791.9949	109.2573	28820.75	28161.55
792.1363	111.5105	28094.35	27434.8
792.2777	113.7632	27427.95	26763.2
792.4191	116.0154	26859.8	26182.45
792.5605	118.2672	26443.75	25768.4
792.7019	120.5185	26010.8	25337.85
792.8434	122.7693	25703.95	25025.6
792.9849	125.0197	25417	24739.4
793.1264	127.2696	25146.45	24462.55
793.2679	129.519	25043.8	24359.05
793.4094	131.7679	24877.15	24188.85
793.551	134.0163	24731.95	24036.7
793.6926	136.2642	24555.2	23861.25
793.8342	138.5117	24364.3	23667.35
793.9758	140.7587	24166.75	23467.75
794.1175	143.0052	23960.5	23258.35
794.2591	145.2512	23764.05	23063.65
794.4008	147.4967	23550.2	22846.4
794.5425	149.7417	23408.2	22704
794.6842	151.9863	23353.7	22646.5
794.826	154.2304	23270.3	22555.4
794.9677	156.4739	23134.85	22413.9
795.1095	158.717	23117.3	22393.1
795.2513	160.9596	22980.95	22253.65
795.3931	163.2017	22725	21995.2
795.535	165.4433	22456.95	21729.25
795.6768	167.6844	22160.25	21430.15
795.8187	169.925	21911.5	21178.9
795.9606	172.1651	21517	20778.2
796.1025	174.4047	21258.95	20519
796.2445	176.6439	21015.85	20275.25
796.3864	178.8825	20823.6	20080.7
796.5284	181.1206	20702.15	19951.35
796.6704	183.3582	20550.4	19796.1
796.8124	185.5954	20459.3	19700.05
796.9544	187.832	20376.25	19617.6
797.0965	190.0681	20410.6	19646.9
797.2386	192.3037	20410.75	19643.3
797.3806	194.5388	20441.3	19671.75
797.5228	196.7734	20495.55	19724.75
797.6649	199.0075	20602.35	19834.4
797.807	201.2411	20749.8	19971.8
797.9492	203.4742	20845.75	20063.4
798.0914	205.7068	21036.85	20257.75
798.2336	207.9389	21156.6	20374.35
798.3758	210.1704	21365.75	20596.2
798.518	212.4015	21458.85	20695.8
798.6603	214.632	21669.95	20913.8
798.8025	216.862	21886.9	21133.35
798.9448	219.0915	22047.8	21288.25
799.0871	221.3205	22295.65	21534.05
799.2294	223.549	22564.65	21808.3
799.3718	225.777	22879.15	22119.05
799.5141	228.0044	23245.75	22483.4
799.6565	230.2314	23708.85	22941.5
799.7989	232.4578	24103.95	23336.05
799.9413	234.6837	24502.75	23723.75
800.0837	236.909	24757.95	23975.8
800.2262	239.1339	24779.05	23976.8
800.3687	241.3582	24540.5	23753.4
800.5111	243.582	24264.4	23445.4
800.6536	245.8053	23956.25	23151.75
800.7961	248.0281	23694.55	22895.55
800.9387	250.2503	23454.1	22645.05
801.0812	252.472	23325.15	22517.3
801.2238	254.6932	23307.3	22507.9
801.3664	256.9139	23248.05	22438.3
801.509	259.134	23277.95	22464.8
801.6516	261.3536	23316.75	22503.7
801.7942	263.5727	23406.7	22593.9
801.9369	265.7912	23360.1	22546.55
802.0795	268.0092	23411.8	22600.8
802.2222	270.2267	23422.7	22611.55
802.3649	272.4436	23389.05	22579.1
802.5076	274.6601	23358.8	22536.25
802.6504	276.8759	23307.55	22488.5
802.7931	279.0913	23303.15	22487.1
802.9359	281.3061	23292.2	22469.2
803.0787	283.5204	23383.5	22559.4
803.2215	285.7341	23416	22587.4
803.3643	287.9473	23637.5	22796.8
803.5071	290.16	23848.35	23016.85
803.6499	292.3721	24157.45	23332.45
803.7928	294.5837	24590.35	23767.55
803.9357	296.7947	24930.75	24104.15
804.0786	299.0052	25179.3	24352.55
804.2215	301.2152	25060.7	24233.75
804.3644	303.4246	24759.35	23936.8
804.5074	305.6334	24243.5	23422.1
804.6503	307.8418	23735	22905.25
804.7933	310.0495	23362.3	22529.35
804.9363	312.2568	23089.5	22256.8
805.0793	314.4635	22876.5	22043.95
805.2223	316.6696	22802.9	21965.75
805.3653	318.8752	22731.95	21889.3
805.5084	321.0802	22803.15	21964.95
805.6514	323.2847	22888.5	22046.9
805.7945	325.4887	22968.7	22129.2
805.9376	327.692	22936.8	22095.25
806.0807	329.8949	22887.05	22042.25
806.2238	332.0972	22630.65	21788.1
806.367	334.2989	22406.9	21560.1
806.5101	336.5001	22133.85	21284.75
806.6533	338.7007	21955.5	21107.05
806.7965	340.9008	21864.1	21014.8
806.9397	343.1003	21747.45	20899.95
807.0829	345.2992	21698.5	20843.6
807.2261	347.4976	21734.75	20878.85
807.3693	349.6955	21716.65	20858.4
807.5126	351.8927	21850	20987
807.6559	354.0895	21809.7	20938.35
807.7991	356.2856	21891.75	21028.4
807.9424	358.4812	21892.9	21031.2
808.0857	360.6763	22005	21142.6
808.2291	362.8707	21982.05	21119.7
808.3724	365.0646	22074.1	21209.3
808.5158	367.258	22043.6	21175.6
808.6591	369.4508	22091.5	21222.05
808.8025	371.643	22169.05	21299.6
808.9459	373.8346	22136.55	21261.7
809.0893	376.0257	22161.3	21283.75
809.2327	378.2162	22099.15	21227.55
809.3762	380.4062	22044.8	21168.95
809.5196	382.5956	21882.35	21017.5
809.6631	384.7844	21844.75	20984.6
809.8066	386.9726	21741.8	20877.15
809.9501	389.1603	21694.3	20834.8
810.0936	391.3474	21712.8	20815.25
810.2371	393.5339	21678.35	20811.7
810.3806	395.7199	21628.15	20762.5
810.5241	397.9052	21678.95	20815.45
810.6677	400.09	21725.35	20862.4
810.8113	402.2743	21791.95	20925.95
810.9548	404.4579	21891.4	21026.35
811.0984	406.641	22059.8	21190.8
811.2421	408.8235	22309.1	21442.2
811.3857	411.0054	22615.75	21744.5
811.5293	413.1868	23062.95	22188.1
811.673	415.3675	23395.3	22513.55
811.8166	417.5477	23602	22724.55
811.9603	419.7273	23689.6	22811.6
812.104	421.9064	23567.65	22682.3
812.2477	424.0848	23463.6	22586.65
812.3914	426.2627	23249.55	22374.65
812.5351	428.4399	22972.7	22092.55
812.6788	430.6166	22629.25	21741.65
812.8226	432.7928	22291.65	21407.35
812.9663	434.9683	21984.15	21100.5
813.1101	437.1432	21745.95	20863.65
813.2539	439.3176	21610.85	20736.25
813.3977	441.4914	21500.3	20624.25
813.5415	443.6645	21532.3	20656.8
813.6853	445.8371	21431.55	20552.15
813.8291	448.0091	21385.9	20501.65
813.973	450.1806	21348.95	20470.05
814.1168	452.3514	21277.05	20399.95
814.2607	454.5216	21322.45	20427.2
814.4046	456.6913	21237.35	20354.2
814.5485	458.8603	21315.15	20432.6
814.6924	461.0288	21439.05	20565.1
814.8363	463.1967	21432.2	20559.45
814.9802	465.3639	21561.85	20680.3
815.1241	467.5306	21686.85	20809.1
815.2681	469.6967	21805.25	20928.85
815.412	471.8622	21958.45	21084.65
815.556	474.0271	22102.15	21223.45
815.7	476.1914	22195.05	21308.05
815.844	478.3551	22226.1	21341.4
815.988	480.5182	22229.4	21346.2
816.132	482.6807	22262.2	21391.1
816.276	484.8426	22405.55	21538.85
816.4201	487.0039	22673.85	21801.4
816.5641	489.1647	23101.85	22218.55
816.7082	491.3248	23516.15	22631.35
816.8522	493.4843	23745.3	22868.3
816.9963	495.6432	23769.55	22887.25
817.1404	497.8015	23650.7	22757.8
817.2845	499.9592	23695	22799.55
817.4286	502.1163	23651.75	22756.3
817.5727	504.2728	23422.5	22535.8
817.7168	506.4287	23161.4	22284.5
817.861	508.5839	22729.55	21851.9
818.0051	510.7386	22451.95	21564.8
818.1493	512.8927	22295.05	21404.2
818.2935	515.0461	22231.65	21340.75
818.4377	517.199	22202	21304.45
818.5818	519.3512	22212.2	21315.15
818.726	521.5029	22279.45	21383.1
818.8703	523.6539	22406.85	21510.95
819.0145	525.8043	22448.55	21550.95
819.1587	527.9541	22505.25	21608.9
819.303	530.1033	22477.9	21581.75
819.4472	532.2519	22498.6	21605.1
819.5915	534.3999	22686.7	21793
819.7357	536.5472	22974.15	22085.7
819.88	538.694	23433.2	22547
820.0243	540.8401	23977.2	23085
820.1686	542.9856	24483.15	23580
820.3129	545.1305	24700.6	23790.5
820.4572	547.2748	24594.75	23686.6
820.6016	549.4185	24249.85	23341.5
820.7459	551.5615	23913.15	23002.55
820.8902	553.704	23792.2	22884.75
821.0346	555.8458	23720.4	22814.4
821.1789	557.987	23797.15	22897.75
821.3233	560.1276	23810.75	22906.25
821.4677	562.2675	23883	22975.8
821.6121	564.4069	23950.1	23043.65
821.7565	566.5456	23912.1	23005.85
821.9009	568.6837	23883.2	22981.4
822.0453	570.8212	23626.95	22725.85
822.1897	572.958	23280.3	22375
822.3342	575.0942	23019.3	22120.2
822.4786	577.2299	22815.7	21917.85
822.6231	579.3648	22787.4	21902.3
822.7675	581.4992	22834.9	21957.5
822.912	583.6329	23042.5	22167.6
823.0565	585.766	23259.05	22376.9
823.201	587.8985	23406.05	22517.85
823.3454	590.0304	23437	22526.6
823.4899	592.1616	23399.15	22489.2
823.6345	594.2922	23252.35	22342.45
823.779	596.4222	23164.6	22250.4
823.9235	598.5515	23046.2	22134.75
824.068	600.6802	22838.05	21927.6
824.2126	602.8083	22639.65	21734.25
824.3571	604.9358	22619.05	21714.1
824.5017	607.0626	22541.05	21629.9
824.6462	609.1888	22542.3	21621.9
824.7908	611.3144	22561	21642.05
824.9354	613.4393	22465.95	21549
825.08	615.5636	22374.45	21456.85
825.2246	617.6873	22312.2	21398.4
825.3692	619.8103	22274.85	21360.3
825.5138	621.9327	22183.3	21264.3
825.6584	624.0544	22145.35	21235.7
825.803	626.1756	22129.2	21218.7
825.9477	628.2961	22070.3	21155.75
826.0923	630.4159	22045.5	21129.8
826.237	632.5351	22060.45	21144.95
826.3816	634.6537	22010.55	21092.7
826.5263	636.7716	22019.15	21097.8
826.6709	638.8889	22071.95	21149.85
826.8156	641.0056	22119.95	21195.85
826.9603	643.1216	22106.4	21184.3
827.105	645.237	22152	21236.35
827.2497	647.3518	22153.6	21239.55
827.3944	649.4659	22239.1	21331.9
827.5391	651.5793	22216.7	21306.75
827.6838	653.6922	22187.2	21276.25
827.8285	655.8043	22204.25	21289.15
827.9733	657.9159	22210.35	21294.75
828.118	660.0268	22155.05	21237.85
828.2627	662.137	22121.15	21199.05
828.4075	664.2466	22114.4	21188.9
828.5522	666.3556	22111	21190.6
828.697	668.4639	22118.55	21200.25
828.8418	670.5716	22143.75	21232.1
828.9865	672.6786	22282.7	21363.3
829.1313	674.785	22311.3	21388
829.2761	676.8907	22332.55	21415.35
829.4209	678.9958	22453.8	21540.15
829.5657	681.1002	22426.8	21509.1
829.7105	683.204	22459.95	21528.5
829.8553	685.3072	22436.85	21509.7
830.0001	687.4097	22384.3	21460.9
830.1449	689.5115	22368.15	21441.15
830.2898	691.6127	22305.75	21382.6
830.4346	693.7132	22263.5	21344.6
830.5794	695.8131	22272.85	21340.85
830.7243	697.9123	22291.5	21365.3
830.8691	700.0109	22294.15	21365.3
831.014	702.1089	22280.3	21352.2
831.1588	704.2061	22289.5	21365.9
831.3037	706.3028	22353	21424.15
831.4486	708.3987	22412.4	21481.1
831.5935	710.4941	22480.2	21555.7
831.7383	712.5887	22707.3	21783.85
831.8832	714.6827	22990.25	22064.55
832.0281	716.7761	23329.7	22405.9
832.173	718.8688	23716.15	22792.45
832.3179	720.9608	23936.85	23006.1
832.4628	723.0522	24014.05	23075.8
832.6077	725.1429	23816.3	22884.15
832.7527	727.233	23583.4	22653.15
832.8976	729.3224	23399.05	22469.25
833.0425	731.4112	23131.5	22205.45
833.1874	733.4993	22931.8	21997.7
833.3324	735.5867	22773.05	21844.85
833.4773	737.6735	22708.85	21781.35
833.6222	739.7596	22635.95	21706.05
833.7672	741.845	22620.75	21693.05
833.9122	743.9298	22569.6	21640.65
834.0571	746.014	22586.8	21657
834.2021	748.0974	22613.35	21674.7
834.347	750.1802	22635.35	21699.95
834.492	752.2624	22631.5	21698.65
834.637	754.3439	22625.5	21690.2
834.782	756.4247	22710	21767
834.9269	758.5048	22836.65	21901.25
835.0719	760.5843	23076.95	22139.75
835.2169	762.6631	23387.45	22449.75
835.3619	764.7413	23862.7	22930.65
835.5069	766.8188	24455.45	23520.35
835.6519	768.8956	24853.75	23915.95
835.7969	770.9718	25198.1	24260.9
835.9419	773.0473	25054.25	24120.85
836.0869	775.1221	24729.1	23794.75
836.232	777.1962	24345.25	23409.25
836.377	779.2697	24211.3	23272.9
836.522	781.3426	24310.15	23356.45
836.667	783.4147	24509.15	23573.2
836.8121	785.4862	24822.05	23881.45
836.9571	787.557	24860.8	23918.2
837.1021	789.6271	24501.45	23564.85
837.2472	791.6966	23975.55	23036.4
837.3922	793.7654	23457.9	22520.6
837.5373	795.8335	23221.85	22279.7
837.6823	797.901	23036.8	22096.75
837.8274	799.9678	22938.95	21999.55
837.9724	802.0339	22946.95	22007.3
838.1175	804.0993	23014.9	22063.95
838.2626	806.1641	22980.95	22043
838.4076	808.2282	22968.4	22030.8
838.5527	810.2916	22893.35	21955.55
838.6978	812.3544	22816.15	21879
838.8428	814.4164	22751.25	21813.45
838.9879	816.4778	22803.3	21859.25
839.133	818.5385	22765.8	21822.65
839.2781	820.5986	22824.85	21881.05
839.4232	822.658	22998.75	22054.5
839.5682	824.7166	23095.3	22153.75
839.7133	826.7747	23419.25	22479.85
839.8584	828.832	23603.8	22660.55
840.0035	830.8886	23733.2	22790.7
840.1486	832.9446	23895.65	22951.1
840.2937	834.9999	23904.2	22964.1
840.4388	837.0545	23927.1	22982.55
840.5839	839.1085	23908.95	22964.7
840.729	841.1618	23879.15	22932.2
840.8741	843.2143	23858.05	22914.8
841.0192	845.2662	23744.85	22803.2
841.1643	847.3175	23724.7	22781.3
841.3095	849.368	23616.35	22670.65
841.4546	851.4179	23512.45	22566.75
841.5997	853.467	23368.5	22426.1
841.7448	855.5155	23321.3	22377.9
841.8899	857.5633	23182.65	22239.3
842.0351	859.6105	23094.25	22149
842.1802	861.6569	23043.15	22100.65
842.3253	863.7027	22979.6	22033.45
842.4704	865.7478	23039.1	22093.95
842.6156	867.7922	23056.1	22110.2
842.7607	869.8359	23119.25	22172.45
842.9058	871.8789	23218.3	22272.1
843.0509	873.9212	23410.05	22430.3
843.1961	875.9629	23551.65	22608.25
843.3412	878.0039	23735.75	22784.35
843.4863	880.0441	23875.05	22933
843.6315	882.0837	23926.55	22982.35
843.7766	884.1226	23862.2	22915.75
843.9218	886.1609	23740.6	22796.2
844.0669	888.1984	23680.2	22732.75
844.212	890.2352	23736.1	22788.4
844.3572	892.2714	23714.45	22761.45
844.5023	894.3069	23736.3	22787.9
844.6475	896.3416	23641.8	22695.45
844.7926	898.3757	23595.45	22648.4
844.9377	900.4091	23586	22636.75
845.0829	902.4418	23606.65	22654
845.228	904.4739	23606.55	22654.25
845.3732	906.5052	23646.35	22692.75
845.5183	908.5358	23555	22608.95
845.6635	910.5658	23461.35	22509.85
845.8086	912.595	23277.5	22328.55
845.9538	914.6236	23151.2	22204.25
846.0989	916.6515	23152.95	22202.05
846.2441	918.6786	23090.4	22139.95
846.3892	920.7051	23158.4	22206.3
846.5344	922.7309	23328.85	22379.9
846.6795	924.756	23396.4	22448.5
846.8246	926.7804	23467.1	22516.75
846.9698	928.8041	23371	22421.5
847.1149	930.8272	23427.25	22478.4
847.2601	932.8495	23372.2	22424.05
847.4052	934.8711	23319.15	22365.4
847.5504	936.892	23176.35	22225.75
847.6955	938.9123	23022.6	22070.7
847.8407	940.9318	22916.65	21970.9
847.9858	942.9506	22813.75	21860.3
848.131	944.9688	22721.35	21771.6
848.2761	946.9862	22692.7	21744.6
848.4213	949.003	22610.5	21661.9
848.5664	951.019	22628.7	21679.05
848.7115	953.0344	22614.35	21665.35
848.8567	955.0491	22623.45	21669.35
849.0018	957.063	22759.6	21807.65
849.147	959.0763	22902.05	21955
849.2921	961.0888	22935.75	21986.25
849.4373	963.1007	23035.6	22086.75
849.5824	965.1119	23070.2	22127.85
849.7275	967.1223	23078.25	22143.2
849.8727	969.1321	23173.9	22240.6
850.0178	971.1412	23186.5	22246.2
850.1629	973.1495	23207.05	22263.9
850.3081	975.1572	23291.9	22287.9
850.4532	977.1641	23280.65	22331.1
850.5983	979.1704	23256.9	22304.45
850.7435	981.1759	23215.95	22260.7
850.8886	983.1808	23329.4	22376.1
851.0337	985.1849	23414.45	22453.85
851.1788	987.1884	23558	22604.65
851.324	989.1911	23744.35	22796.45
851.4691	991.1932	23845.4	22899
851.6142	993.1945	23871.55	22926.8
851.7593	995.1951	23803.7	22855.45
851.9045	997.1951	23813.9	22859.75
852.0496	999.1943	23691.35	22742.2
852.1947	1001.1928	23646	22694.85
852.3398	1003.1906	23635.2	22685.7
852.4849	1005.1877	23729.05	22779.5
852.63	1007.1841	23671.9	22720.5
852.7751	1009.1798	23579.55	22632.2
852.9202	1011.1748	23400.2	22448.85
853.0653	1013.1691	23196.55	22246.5
853.2104	1015.1627	22991.65	22042.1
853.3555	1017.1556	22735.3	21791.95
853.5006	1019.1477	22675.65	21727.8
853.6457	1021.1392	22530.85	21590.75
853.7908	1023.1299	22514.8	21579.65
853.9359	1025.12	22496.65	21565.1
854.081	1027.1093	22548.45	21626.65
854.2261	1029.0979	22641.65	21728.4
854.3712	1031.0859	22663.1	21737.9
854.5163	1033.0731	22654.7	21719.15
854.6613	1035.0596	22614.95	21675.2
854.8064	1037.0454	22415.6	21472.95
854.9515	1039.0304	22364.65	21419.4
855.0965	1041.0148	22177.35	21232.35
855.2416	1042.9985	22071.25	21121.65
855.3867	1044.9814	22078.9	21134.65
855.5317	1046.9636	21952.5	21005.3
855.6768	1048.9452	21946.75	21002.1
855.8219	1050.926	21988.3	21043.95
855.9669	1052.9061	22002.8	21058.35
856.112	1054.8855	21967.6	21024.2
856.257	1056.8642	22041.2	21094.35
856.4021	1058.8421	22088.2	21137.4
856.5471	1060.8194	22079.8	21131.55
856.6921	1062.7959	22119.5	21174
856.8372	1064.7717	22153.95	21201.45
856.9822	1066.7469	22211.15	21263.25
857.1272	1068.7213	22168.7	21219.65
857.2723	1070.695	22183.4	21238.25
857.4173	1072.6679	22086.75	21137.15
857.5623	1074.6402	22063.25	21112.7
857.7073	1076.6117	22086.45	21133.8
857.8523	1078.5826	22085.4	21137.1
857.9973	1080.5527	22051.5	21101.1
858.1423	1082.5221	22156.35	21208.25
858.2873	1084.4908	22321.8	21376.25
858.4323	1086.4587	22512.05	21561.85
858.5773	1088.426	22628.7	21681.15
858.7223	1090.3925	22583.6	21634.1
858.8673	1092.3584	22556.55	21610.95
859.0123	1094.3235	22388.95	21441.85
859.1573	1096.2879	22358.6	21409.65
859.3022	1098.2515	22337.95	21391.85
859.4472	1100.2145	22410.05	21466.1
859.5922	1102.1767	22512.65	21563.4
859.7371	1104.1382	22656	21706.1
859.8821	1106.099	22900.7	21953.7
860.027	1108.0591	23084	22137.55
860.172	1110.0185	23198	22246.1
860.3169	1111.9771	23221.4	22272.95
860.4619	1113.9351	23005.25	22061.65
860.6068	1115.8923	22712.5	21764.45
860.7517	1117.8488	22395.35	21445
860.8967	1119.8045	22111.35	21165.05
861.0416	1121.7596	22020.2	21072
861.1865	1123.7139	21968	21023.35
861.3314	1125.6675	21909.35	20964.15
861.4763	1127.6204	22019.5	21074.8
861.6212	1129.5726	22032.35	21085.2
861.7661	1131.524	22001.3	21056.05
861.911	1133.4748	21995.65	21053.05
862.0559	1135.4248	21919.35	20972.8
862.2008	1137.3741	21912.8	20967.25
862.3457	1139.3226	21868.85	20925
862.4905	1141.2705	21878.85	20932.9
862.6354	1143.2176	21744.5	20792.2
862.7803	1145.164	21732.3	20785.75
862.9251	1147.1097	21752.45	20803.6
863.07	1149.0546	21737.5	20793.2
863.2148	1150.9989	21651.15	20704.95
863.3597	1152.9424	21559.2	20613
863.5045	1154.8852	21381.95	20438.25
863.6493	1156.8272	21273.3	20326.55
863.7942	1158.7686	21250.65	20296.35
863.939	1160.7092	21179.8	20234.15
864.0838	1162.6491	21159	20208.85
864.2286	1164.5883	21278.55	20331.5
864.3734	1166.5267	21301.1	20356.5
864.5182	1168.4644	21446.55	20504.6
864.663	1170.4014	21680.25	20736.2
864.8078	1172.3377	21926.35	20984.95
864.9526	1174.2732	22133.45	21190
865.0974	1176.2081	22405.8	21463.45
865.2421	1178.1421	22632.1	21684.55
865.3869	1180.0755	22841.85	21899.2
865.5317	1182.0082	22933	21990.55
865.6764	1183.9401	22967.9	22026.8
865.8212	1185.8713	22786.8	21854.4
865.9659	1187.8017	22550.75	21622.45
866.1106	1189.7315	22314	21392.15
866.2554	1191.6605	21962.65	21038.2
866.4001	1193.5888	21721.3	20794.45
866.5448	1195.5163	21689.2	20752.4
866.6895	1197.4432	21576.7	20636.65
866.8342	1199.3693	21508.6	20567.45
866.9789	1201.2947	21456.05	20505.9
867.1236	1203.2193	21381	20442.5
867.2683	1205.1432	21462.2	20521
867.413	1207.0664	21406.55	20466.1
867.5576	1208.9889	21440.6	20499.85
867.7023	1210.9106	21451.85	20509.55
867.847	1212.8316	21445.75	20504.1
867.9916	1214.7519	21522.25	20570.95
868.1363	1216.6715	21512.55	20570.95
868.2809	1218.5903	21497.75	20553.5
868.4255	1220.5084	21468.1	20524.9
868.5701	1222.4257	21466	20528.15
868.7148	1224.3424	21367.9	20431.2
868.8594	1226.2583	21448.95	20507.2
869.004	1228.1735	21515.95	20574.9
869.1486	1230.0879	21581.4	20642.55
869.2932	1232.0016	21745.7	20801.5
869.4377	1233.9146	21717.5	20773.3
869.5823	1235.8269	21639.45	20698.15
869.7269	1237.7384	21513.95	20572.5
869.8715	1239.6492	21281.2	20338.25
870.016	1241.5592	21204	20264.25
870.1606	1243.4686	21132.95	20191.75
870.3051	1245.3772	21120.05	20179.65
870.4496	1247.285	21057.15	20117.2
870.5941	1249.1922	21062.4	20123.75
870.7387	1251.0986	21035.3	20097.8
870.8832	1253.0042	21014.15	20074
871.0277	1254.9092	21063.35	20122.85
871.1722	1256.8134	21108.05	20174.9
871.3167	1258.7169	21287.6	20347.65
871.4611	1260.6196	21387	20449.85
871.6056	1262.5216	21578.65	20637.2
871.7501	1264.4229	21771.3	20835.8
871.8945	1266.3234	21900.45	20961.85
872.039	1268.2232	22001.05	21059.1
872.1834	1270.1223	21971.75	21032.4
872.3278	1272.0207	21955.65	21017.4
872.4723	1273.9183	21924.1	20979.7
872.6167	1275.8151	21849.7	20910.9
872.7611	1277.7113	21744.2	20807.4
872.9055	1279.6067	21603.65	20666.2
873.0499	1281.5014	21550.05	20611.05
873.1943	1283.3953	21496.35	20554.3
873.3386	1285.2885	21507.35	20571.6
873.483	1287.181	21606.45	20670.25
873.6274	1289.0727	21703.5	20767.85
873.7717	1290.9637	21743.3	20804.8
873.9161	1292.854	21896.8	20958.5
874.0604	1294.7435	22010.35	21072.95
874.2047	1296.6323	22184.9	21244.1
874.349	1298.5204	22375.75	21435.2
874.4933	1300.4077	22537.75	21599.25
874.6376	1302.2943	22675.95	21738.4
874.7819	1304.1802	22681.1	21745.65
874.9262	1306.0653	22526	21583.8
875.0705	1307.9497	22331.65	21393.65
875.2147	1309.8333	22168.2	21231.45
875.359	1311.7162	22089.15	21150.7
875.5032	1313.5984	22019.65	21078.25
875.6475	1315.4798	22077.2	21123.15
875.7917	1317.3605	22137.45	21183.4
875.9359	1319.2405	22167.65	21228.85
876.0801	1321.1197	22126.45	21186.3
876.2243	1322.9982	21954.2	21014
876.3685	1324.876	21901.45	20963.75
876.5127	1326.753	21739.3	20801.6
876.6569	1328.6293	21753.8	20814.55
876.801	1330.5048	21737.6	20792.65
876.9452	1332.3796	21639.15	20701.85
877.0893	1334.2537	21613.7	20651.8
877.2335	1336.127	21562.65	20624.5
877.3776	1337.9996	21492.3	20555.85
877.5217	1339.8714	21459.25	20518.1
877.6658	1341.7426	21429.15	20442.55
877.8099	1343.6129	21360.45	20419.75
877.954	1345.4826	21320.05	20380.75
878.0981	1347.3515	21314.95	20375
878.2422	1349.2196	21244.85	20303.5
878.3862	1351.087	21268.6	20331.25
878.5303	1352.9537	21303.4	20364.65
878.6743	1354.8197	21413.9	20473.55
878.8184	1356.6849	21584.6	20648.6
878.9624	1358.5493	21628.7	20692.55
879.1064	1360.4131	21650	20713.55
879.2504	1362.276	21609.55	20672.75
879.3944	1364.1383	21457.5	20518.3
879.5384	1365.9998	21233	20292.65
879.6823	1367.8606	20898.45	19957.1
879.8263	1369.7206	20580.05	19638.8
879.9702	1371.5799	20326.4	19385.85
880.1142	1373.4384	20175.75	19235.65
880.2581	1375.2962	19987	19050.9
880.402	1377.1533	19701.7	18766.45
880.5459	1379.0096	19335.9	18401.2
880.6898	1380.8652	19041.05	18109.7
880.8337	1382.7201	18771.4	17836.8
880.9776	1384.5742	18550.7	17617.95
881.1215	1386.4275	18311.8	17374.3
881.2653	1388.2802	18188.85	17251.85
881.4092	1390.132	18008.4	17071.15
881.553	1391.9832	17959.5	17019.45
881.6968	1393.8336	17849.6	16912.5
881.8406	1395.6832	17815.6	16876.85
881.9844	1397.5322	17722.45	16787.35
882.1282	1399.3803	17676.15	16736.2
882.272	1401.2278	17591.5	16658.75
882.4158	1403.0745	17590.65	16656.35
882.5595	1404.9204	17518.8	16582.8
882.7033	1406.7656	17532.5	16594.65
882.847	1408.6101	17482.35	16545.9
882.9908	1410.4538	17455.95	16521.35
883.1345	1412.2968	17493.85	16558.1
883.2782	1414.139	17503.6	16565.6
883.4219	1415.9805	17603.05	16667.75
883.5656	1417.8213	17626.8	16686.35
883.7092	1419.6613	17708.35	16771.8
883.8529	1421.5006	17847.5	16912.2
883.9965	1423.3391	18118.05	17184.55
884.1402	1425.1769	18367.9	17434.25
884.2838	1427.0139	18876.95	17940.45
884.4274	1428.8502	19381.6	18444.55
884.571	1430.6858	19945.7	19010.85
884.7146	1432.5206	20310.3	19376.3
884.8582	1434.3547	20536.65	19601.85
885.0018	1436.188	20550.1	19617.75
885.1453	1438.0206	20474.8	19540.45
885.2889	1439.8524	20285.4	19350.7
885.4324	1441.6835	20157.8	19224.75
885.5759	1443.5139	20020.2	19084.3
885.7194	1445.3435	19962.95	19031.15
885.8629	1447.1724	19957.25	19023.35
886.0064	1449.0005	19826.65	18893.3
886.1499	1450.8279	19739.1	18806.85
886.2933	1452.6545	19689.2	18755.7
886.4368	1454.4804	19704.65	18774.55
886.5802	1456.3056	19705.85	18765.7
886.7237	1458.13	19584.15	18654.85
886.8671	1459.9536	19376.7	18441.7
887.0105	1461.7766	19012.75	18082.25
887.1539	1463.5987	18582	17648.85
887.2972	1465.4202	18219.9	17286.3
887.4406	1467.2409	17827.95	16892.65
887.584	1469.0608	17581.15	16648.7
887.7273	1470.88	17288.5	16351.95
887.8706	1472.6984	17068.45	16140
888.0139	1474.5161	16813.4	15881.95
888.1572	1476.3331	16650.9	15721.2
888.3005	1478.1493	16493.7	15560.65
888.4438	1479.9648	16428.2	15493.55
888.5871	1481.7795	16295.1	15360.45
888.7303	1483.5935	16216.5	15283.35
888.8736	1485.4067	16113.55	15180.3
889.0168	1487.2192	16106.1	15173.35
889.16	1489.031	16024.6	15086.35
889.3032	1490.842	15994.9	15063.8
889.4464	1492.6522	15955.3	15020.9
889.5896	1494.4618	15861.3	14930.4
889.7327	1496.2705	15836.45	14907.3
889.8759	1498.0785	15786.5	14852.85
890.019	1499.8858	15734.35	14802.5
890.1622	1501.6924	15668.15	14737.85
890.3053	1503.4981	15652.75	14723.5
890.4484	1505.3032	15588.45	14657.55
890.5914	1507.1075	15552.75	14618.85
890.7345	1508.911	15508.6	14575.1
890.8776	1510.7138	15476.2	14544.15
891.0206	1512.5159	15411.2	14481.6
891.1637	1514.3172	15329.35	14400.85
891.3067	1516.1178	15250.75	14320.85
891.4497	1517.9176	15227.75	14295.75
891.5927	1519.7166	15144	14216.65
891.7357	1521.515	15131.2	14194.15
891.8786	1523.3126	15057.75	14131.25
892.0216	1525.1094	15027.65	14096.55
892.1645	1526.9055	14966.8	14039.2
892.3074	1528.7008	14945.2	14018.45
892.4503	1530.4954	14843.7	13914.75
892.5932	1532.2893	14815.55	13890.1
892.7361	1534.0824	14739.8	13809.1
892.879	1535.8747	14740.55	13815.15
893.0218	1537.6663	14705.65	13781.1
893.1647	1539.4572	14652.6	13725.25
893.3075	1541.2473	14640.15	13714.9
893.4503	1543.0367	14604.7	13679.9
893.5931	1544.8253	14558.7	13629.1
893.7359	1546.6132	14583.4	13656.8
893.8787	1548.4003	14520.2	13585
894.0214	1550.1867	14552.65	13621.85
894.1642	1551.9723	14554.65	13625.8
894.3069	1553.7572	14538.85	13615.5
894.4496	1555.5414	14566.8	13645.8
894.5923	1557.3247	14599.95	13678.7
894.735	1559.1074	14640.25	13724.85
894.8777	1560.8893	14710.95	13791.05
895.0204	1562.6705	14767.7	13847.5
895.163	1564.4509	14826.9	13910.2
895.3056	1566.2305	14820.5	13905.25
895.4482	1568.0094	14915.25	14000.4
895.5908	1569.7876	14953.1	14037.7
895.7334	1571.565	14946.15	14027.5
895.876	1573.3417	14937	14018.95
896.0186	1575.1176	14921.95	14004.55
896.1611	1576.8928	14882.9	13970.85
896.3036	1578.6672	14758	13848.35
896.4461	1580.4409	14627.4	13722.3
896.5886	1582.2138	14513.8	13601.2
896.7311	1583.986	14412	13496.35
896.8736	1585.7575	14341.05	13428.1
897.0161	1587.5282	14283.7	13372.85
897.1585	1589.2981	14210.25	13303.6
897.3009	1591.0673	14155.05	13246.95
897.4433	1592.8358	14172.3	13261.9
897.5857	1594.6035	14157.35	13244.75
897.7281	1596.3704	14164.1	13248.6
897.8705	1598.1366	14178.85	13266.3
898.0128	1599.9021	14210	13301.7
898.1551	1601.6668	14238.55	13325.3
898.2975	1603.4308	14275.2	13360.1
898.4398	1605.194	14355.5	13440.05
898.5821	1606.9564	14455.25	13550.8
898.7243	1608.7182	14573.65	13671.65
898.8666	1610.4791	14736.5	13838.55
899.0088	1612.2394	14935.6	14042.05
899.1511	1613.9988	15088.25	14188.35
899.2933	1615.7576	15284.05	14381.8
899.4355	1617.5156	15472.15	14557.05
899.5776	1619.2728	15627.35	14711.65
899.7198	1621.0293	15688.95	14778.7
899.862	1622.785	15715.35	14804.6
900.0041	1624.54	15575.4	14670.85
900.1462	1626.2942	15399.5	14495.45
900.2883	1628.0477	15125.65	14218.3
900.4304	1629.8005	14864.95	13957.05
900.5725	1631.5525	14650.15	13747.3
900.7145	1633.3037	14446.65	13542.2
900.8566	1635.0542	14317.05	13413.9
900.9986	1636.804	14145.3	13239.75
901.1406	1638.553	14142.35	13167.85
901.2826	1640.3013	14025.95	13121.95
901.4245	1642.0488	13973.7	13068.1
901.5665	1643.7955	13997.3	13094.7
901.7085	1645.5416	14058.95	13155.5
901.8504	1647.2868	14118.5	13217.15
901.9923	1649.0313	14188.2	13282.1
902.1342	1650.7751	14316.65	13409.2
902.2761	1652.5181	14467.5	13566.65
902.4179	1654.2604	14640.9	13738.25
902.5598	1656.0019	14891.5	13987.05
902.7016	1657.7427	15159.95	14256.35
902.8434	1659.4828	15448.55	14542.7
902.9852	1661.222	15609.4	14702.3
903.127	1662.9606	15595.1	14690.85
903.2687	1664.6984	15407.15	14498.9
903.4105	1666.4354	14978	14066.7
903.5522	1668.1717	14429.25	13519.65
903.6939	1669.9072	13913.8	13005.7
903.8356	1671.642	13514.8	12605.2
903.9773	1673.3761	13128.5	12222.7
904.119	1675.1094	12806.7	11902.6
904.2606	1676.8419	12569.85	11665.7
904.4022	1678.5737	12380.35	11472.95
904.5439	1680.3048	12234.45	11328.35
904.6855	1682.0351	12110.6	11204.55
904.827	1683.7646	12014.35	11104.2
904.9686	1685.4934	11918.8	11011.55
905.1101	1687.2215	11847.45	10944
905.2517	1688.9488	11713.25	10809.15
905.3932	1690.6754	11674.3	10772.6
905.5347	1692.4012	11643.35	10739.7
905.6761	1694.1263	11556.55	10651.5
905.8176	1695.8506	11496.75	10591.8
905.9591	1697.5742	11432.9	10532.4
906.1005	1699.297	11393.15	10494.6
906.2419	1701.0191	11312.65	10414.25
906.3833	1702.7404	11264.65	10368.6
906.5246	1704.461	11213.7	10310.5
906.666	1706.1808	11180.95	10277.9
906.8073	1707.8999	11130.3	10232.2
906.9487	1709.6182	11095.6	10196.1
907.09	1711.3358	11078.95	10184.1
907.2313	1713.0527	11018.1	10122.9
907.3725	1714.7688	10962.05	10061.25
907.5138	1716.4841	10893.55	9992.8
907.655	1718.1987	10908.35	10004.25
907.7962	1719.9126	10835.8	9937.05
907.9374	1721.6257	10784.45	9887.25
908.0786	1723.338	10794.05	9902.05
908.2198	1725.0496	10720.9	9825.3
908.3609	1726.7605	10703.5	9803.8
908.502	1728.4706	10667.75	9769.6
908.6431	1730.18	10575.35	9677.05
908.7842	1731.8886	10571.75	9675.4
908.9253	1733.5964	10589.65	9672.9
909.0664	1735.3036	10525.5	9625.3
909.2074	1737.0099	10482	9587.7
909.3484	1738.7156	10459.65	9564.45
909.4894	1740.4204	10400.05	9502.1
909.6304	1742.1246	10379.55	9480.85
909.7714	1743.8279	10356.55	9460.5
909.9123	1745.5306	10322.45	9426.9
910.0532	1747.2325	10288	9394.25
910.1941	1748.9336	10253.4	9357.9
910.335	1750.634	10205.85	9308.1
910.4759	1752.3336	10181.45	9288.1
910.6168	1754.0325	10142.7	9251.8
910.7576	1755.7307	10146.15	9251.4
910.8984	1757.4281	10125.7	9231.55
911.0392	1759.1247	10088.95	9182.05
911.18	1760.8206	10055.45	9151.8
911.3208	1762.5158	10065.1	9160.6
911.4615	1764.2102	10012.2	9115.05
911.6022	1765.9039	9977.65	9083.7
911.7429	1767.5968	9930.4	9038.95
911.8836	1769.289	9915.85	9021.5
912.0243	1770.9804	9904.4	9009.1
912.1649	1772.6711	9876.3	8977.75
912.3056	1774.361	9849.55	8950.25
912.4462	1776.0502	9866.3	8967.2
912.5868	1777.7386	9793.7	8892.9
912.7274	1779.4263	9786.85	8893.4
912.8679	1781.1132	9791.85	8898.45
913.0084	1782.7994	9725.35	8832.9
913.149	1784.4849	9719.3	8827
913.2895	1786.1696	9679.1	8781.7
913.4299	1787.8535	9661.9	8770.25
913.5704	1789.5367	9638.15	8747.4
913.7108	1791.2192	9616.15	8726.45
913.8513	1792.9009	9581	8660.2
913.9917	1794.5818	9566.8	8668.85
914.132	1796.2621	9508.7	8613
914.2724	1797.9415	9519.9	8622.15
914.4128	1799.6202	9482.45	8586.4
914.5531	1801.2982	9508.4	8614.65
914.6934	1802.9755	9453.6	8556.3
914.8337	1804.6519	9421.55	8528.35
914.9739	1806.3277	9382.85	8488.5
915.1142	1808.0027	9327.25	8436.95
915.2544	1809.6769	9359.65	8469.2
915.3946	1811.3504	9346.35	8453.65
915.5348	1813.0231	9317.8	8427.1
915.675	1814.6951	9299.1	8404.1
915.8151	1816.3664	9285.9	8389.75
915.9553	1818.0369	9263	8369.7
916.0954	1819.7067	9210.6	8318
916.2355	1821.3757	9199.95	8303.6
916.3755	1823.044	9171.9	8278.35
916.5156	1824.7115	9166.2	8270.3
916.6556	1826.3783	9128.65	8233.6
916.7956	1828.0443	9103.9	8208.8
916.9356	1829.7096	9072.35	8175.9
917.0756	1831.3741	9063.3	8166.5
917.2155	1833.0379	9040.4	8148.55
917.3555	1834.701	8996.05	8106.2
917.4954	1836.3633	8979.55	8089.3
917.6353	1838.0248	8960.25	8067.4
917.7751	1839.6856	8950.35	8057.45
917.915	1841.3457	8932.6	8037.7
918.0548	1843.005	8930.65	8035.75
918.1946	1844.6636	8895.95	8001.55
918.3344	1846.3214	8862.6	7968.4
918.4742	1847.9785	8854.9	7963.35
918.6139	1849.6349	8833.95	7938.25
918.7537	1851.2904	8830.7	7926.55
918.8934	1852.9453	8798.8	7902.55
919.0331	1854.5994	8754.45	7854.35
919.1727	1856.2528	8792.75	7892.4
919.3124	1857.9054	8762.25	7865.5
919.452	1859.5572	8748.25	7855.8
919.5916	1861.2083	8733.7	7839.85
919.7312	1862.8587	8723.3	7826.85
919.8708	1864.5084	8696.1	7797.7
920.0103	1866.1572	8666.5	7769.15
920.1498	1867.8054	8623.85	7728.8
920.2893	1869.4528	8612.4	7716.35
920.4288	1871.0994	8574.1	7680.2
920.5683	1872.7453	8587.55	7692.5
920.7077	1874.3905	8573.85	7663.25
920.8471	1876.0349	8515.6	7621.4
920.9865	1877.6786	8512.3	7615.9
921.1259	1879.3215	8511.35	7616.9
921.2653	1880.9637	8478.55	7582.75
921.4046	1882.6051	8455.25	7562.6
921.5439	1884.2458	8445.55	7551.35
921.6832	1885.8858	8403.1	7511.35
921.8225	1887.525	8406.15	7512
921.9617	1889.1634	8349.85	7455.8
922.101	1890.8011	8350.4	7453.6
922.2402	1892.4381	8312.3	7417.1
922.3794	1894.0743	8290	7396.95
922.5185	1895.7098	8285.45	7389.75
922.6577	1897.3446	8263.8	7370.65
922.7968	1898.9786	8237.9	7342.1
922.9359	1900.6118	8214.1	7321.15
923.075	1902.2443	8183.6	7289.55
923.214	1903.8761	8162	7270.45
923.3531	1905.5071	8129.7	7235.9
923.4921	1907.1374	8114.85	7221.5
923.6311	1908.7669	8084.85	7193.6
923.77	1910.3957	8081.5	7188.85
923.909	1912.0237	8033.65	7143.3
924.0479	1913.651	8008.1	7116.35
924.1868	1915.2776	8004.35	7112.95
924.3257	1916.9034	7966.55	7076.1
924.4646	1918.5285	7931.55	7039.85
924.6034	1920.1528	7897.25	7003.1
924.7422	1921.7764	7906.55	7015.45
924.881	1923.3992	7881.8	6987.65
925.0198	1925.0213	7815.35	6922
925.1586	1926.6427	7794.65	6903.3
925.2973	1928.2633	7854.1	6870.35
925.436	1929.8832	7803.15	6908.75
925.5747	1931.5023	7720.2	6824.2
925.7134	1933.1207	7693.6	6802.35
925.852	1934.7383	7685.75	6792
925.9906	1936.3552	7681.25	6790.3
926.1292	1937.9714	7656.3	6762.95
926.2678	1939.5868	7611.5	6718.5
926.4064	1941.2015	7562.4	6666.55
926.5449	1942.8154	7541.35	6646
926.6834	1944.4286	7517.45	6621.45
926.8219	1946.041	7516.9	6601.15
926.9604	1947.6528	7451.85	6554.5
927.0988	1949.2637	7442	6549.55
927.2372	1950.8739	7421.55	6529.65
927.3756	1952.4834	7399.1	6506.4
927.514	1954.0921	7410.05	6519.35
927.6523	1955.7001	7361.85	6467.2
927.7907	1957.3074	7339.1	6450.4
927.929	1958.9139	7296.25	6408.65
928.0673	1960.5197	7297.8	6406.45
928.2055	1962.1247	7265.15	6374.85
928.3438	1963.729	7215.95	6328.65
928.482	1965.3325	7186.35	6293.4
928.6202	1966.9353	7175.7	6287.8
928.7584	1968.5374	7159.65	6270.25
928.8965	1970.1387	7127.1	6238.4
929.0346	1971.7393	7099.35	6209.9
929.1727	1973.3392	7086.5	6198.7
929.3108	1974.9383	7070.05	6181.6
929.4489	1976.5366	7022.15	6135.75
929.5869	1978.1342	7004.25	6119.75
929.7249	1979.7311	7005.35	6115.7
929.8629	1981.3273	6981.45	6093.85
930.0009	1982.9227	6962.6	6075.45
930.1388	1984.5173	6937.35	6052.8
930.2767	1986.1112	6912.2	6027.1
930.4146	1987.7044	6894.25	6008.9
930.5525	1989.2968	6885.45	5998.2
930.6904	1990.8885	6852.05	5964.1
930.8282	1992.4795	6828.4	5943.95
930.966	1994.0697	6812.35	5928.65
931.1038	1995.6592	6772.3	5887.7
931.2415	1997.2479	6768.35	5880.65
931.3793	1998.8359	6763.35	5879.6
931.517	2000.4232	6741.15	5858.1
931.6547	2002.0097	6719.8	5840.7
931.7923	2003.5955	6673.9	5791.75
931.93	2005.1805	6685.1	5801.4
932.0676	2006.7648	6646.35	5764.2
932.2052	2008.3484	6632.75	5747.5
932.3427	2009.9312	6631.35	5750.3
932.4803	2011.5133	6611.05	5731.4
932.6178	2013.0946	6591.4	5709.3
932.7553	2014.6752	6581.45	5700.15
932.8928	2016.2551	6549.7	5665.6
933.0302	2017.8342	6543.5	5661.6
933.1676	2019.4126	6511.8	5631
933.305	2020.9902	6486.9	5604.7
933.4424	2022.5672	6480.2	5598.9
933.5798	2024.1433	6468.35	5583.8
933.7171	2025.7188	6439.2	5561.05
933.8544	2027.2935	6428.15	5548.3
933.9917	2028.8674	6394.1	5515
934.129	2030.4406	6363.15	5484.85
934.2662	2032.0131	6354.6	5478.65
934.4034	2033.5849	6330.95	5449.15
934.5406	2035.1559	6315.25	5440.1
934.6778	2036.7261	6320.8	5438.8
934.8149	2038.2957	6280.7	5397.8
934.952	2039.8645	6296.35	5412.05
935.0891	2041.4325	6292.15	5405.5
935.2262	2042.9998	6246.45	5363.35
935.3632	2044.5664	6244.55	5362.2
935.5002	2046.1323	6211.05	5329.7
935.6372	2047.6974	6208.05	5327.65
935.7742	2049.2617	6185.05	5304.85
935.9111	2050.8254	6212.7	5310.05
936.048	2052.3883	6184.3	5299.6
936.1849	2053.9504	6172.65	5289.1
936.3218	2055.5118	6136.7	5251.3
936.4586	2057.0725	6116.55	5230.55
936.5955	2058.6325	6111.4	5230.3
936.7323	2060.1917	6086.75	5205.15
936.869	2061.7502	6070.75	5188.5
937.0058	2063.3079	6062.05	5182.75
937.1425	2064.8649	6039.6	5155.45
937.2792	2066.4212	6029.2	5145.45
937.4159	2067.9767	6007	5121.65
937.5525	2069.5315	5985.5	5101.05
937.6891	2071.0856	5960.4	5079.55
937.8257	2072.6389	5925.65	5041.75
937.9623	2074.1915	5885.25	5006.85
938.0989	2075.7433	5867.55	4983.7
938.2354	2077.2945	5860.25	4980.2
938.3719	2078.8448	5851.9	4966.75
938.5084	2080.3945	5848.7	4963.6
938.6448	2081.9434	5828.2	4944.45
938.7812	2083.4916	5826.65	4937.8
938.9176	2085.039	5796.25	4904.6
939.054	2086.5857	5793.35	4901.3
939.1903	2088.1317	5773.85	4884.15
939.3267	2089.677	5762.95	4870.7
939.463	2091.2215	5751.5	4859.15
939.5992	2092.7652	5723.25	4832.85
939.7355	2094.3083	5713.2	4823.25
939.8717	2095.8506	5694.25	4805.7
940.0079	2097.3921	5699.75	4814.9
940.1441	2098.933	5682.6	4795.9
940.2802	2100.4731	5643.45	4757.2
940.4163	2102.0124	5660.7	4765.75
940.5524	2103.5511	5655.3	4766.05
940.6885	2105.089	5648.2	4759.9
940.8245	2106.6261	5609.9	4724.9
940.9606	2108.1626	5615.9	4728.4
941.0965	2109.6983	5605.65	4693.2
941.2325	2111.2332	5593.85	4704.45
941.3684	2112.7675	5560	4671.95
941.5044	2114.301	5561.6	4673.15
941.6403	2115.8337	5556	4667.2
941.7761	2117.3657	5534.35	4646.6
941.912	2118.897	5516.9	4628.65
942.0478	2120.4276	5505.05	4609.75
942.1835	2121.9575	5474.85	4586.9
942.3193	2123.4866	5490.6	4587.7
942.455	2125.0149	5462.9	4570.95
942.5907	2126.5426	5423.8	4537.85
942.7264	2128.0695	5405.65	4518.65
942.8621	2129.5956	5404	4524.35
942.9977	2131.1211	5400.7	4510.95
943.1333	2132.6458	5378.3	4491.9
943.2689	2134.1698	5377.3	4488.05
943.4044	2135.693	5361.15	4467.35
943.54	2137.2155	5351.6	4458.75
943.6755	2138.7373	5355.3	4465.45
943.8109	2140.2584	5328.9	4446.6
943.9464	2141.7787	5303.35	4417.3
944.0818	2143.2983	5278.85	4399.9
944.2172	2144.8171	5264.85	4385.3
944.3526	2146.3353	5272	4388.05
944.4879	2147.8527	5224.65	4343.1
944.6232	2149.3693	5246	4359.65
944.7585	2150.8853	5221	4332.65
944.8938	2152.4005	5186.1	4298.3
945.029	2153.9149	5204	4311.95
945.1642	2155.4287	5167.25	4278.15
945.2994	2156.9417	5149.7	4259.8
945.4346	2158.454	5155.1	4266.95
945.5697	2159.9655	5123.6	4240.85
945.7048	2161.4764	5144.05	4260.3
945.8399	2162.9865	5110.35	4225.6
945.9749	2164.4958	5106.4	4219.35
946.1099	2166.0045	5088.45	4202
946.2449	2167.5124	5077.55	4192.8
946.3799	2169.0195	5059.55	4170.65
946.5148	2170.526	5053.6	4164.95
946.6498	2172.0317	5047.2	4161.4
946.7846	2173.5367	5035.75	4146.7
946.9195	2175.0409	5018.95	4134.75
947.0543	2176.5445	5026.6	4138.75
947.1891	2178.0473	5003.65	4114.4
947.3239	2179.5494	4966.15	4072.9
947.4587	2181.0507	4958.65	4072.9
947.5934	2182.5513	4936.2	4051.15
947.7281	2184.0512	4938.35	4050.65
947.8628	2185.5504	4925.8	4038.65
947.9974	2187.0488	4896.55	4010.5
948.132	2188.5465	4889.15	4004.15
948.2666	2190.0435	4878.5	3992.7
948.4012	2191.5397	4845.9	3957.25
948.5357	2193.0353	4863.1	3975.45
948.6702	2194.5301	4847.9	3956
948.8047	2196.0241	4833.5	3939.1
948.9392	2197.5175	4802.15	3909.5
949.0736	2199.0101	4797.2	3902.15
949.208	2200.502	4774.45	3885.45
949.3424	2201.9931	4747.9	3863.65
949.4767	2203.4835	4744.8	3860.45
949.611	2204.9733	4732.9	3842.25
949.7453	2206.4622	4736.1	3853.5
949.8796	2207.9505	4707.65	3822.55
950.0138	2209.438	4690.4	3809
950.148	2210.9248	4678.8	3793.15
950.2822	2212.4109	4656.8	3770.2
950.4164	2213.8962	4671.9	3776.8
950.5505	2215.3809	4651.5	3757.4
950.6846	2216.8648	4644.95	3752.3
950.8186	2218.3479	4634.55	3736.5
950.9527	2219.8304	4594.6	3698.6
951.0867	2221.3121	4588.9	3692.2
951.2207	2222.7931	4576.55	3686
951.3546	2224.2733	4559.5	3667.75
951.4886	2225.7529	4531.2	3640.05
951.6225	2227.2317	4540.4	3649.85
951.7563	2228.7098	4542.4	3659.25
951.8902	2230.1872	4511.15	3626.2
952.024	2231.6638	4491.3	3607.5
952.1578	2233.1397	4491.15	3605
952.2916	2234.6149	4477.75	3592.95
952.4253	2236.0894	4454.1	3567.15
952.559	2237.5632	4456.25	3559.65
952.6927	2239.0362	4445.1	3558.1
952.8263	2240.5085	4425.85	3535.7
952.9599	2241.9801	4411.35	3524.25
953.0935	2243.4509	4404.75	3516.25
953.2271	2244.921	4390.65	3497.85
953.3606	2246.3904	4381.2	3487.95
953.4941	2247.8591	4361.5	3469.3
953.6276	2249.3271	4355.7	3466.1
953.7611	2250.7943	4326.45	3435.8
953.8945	2252.2608	4338.45	3447.7
954.0279	2253.7266	4317.7	3429.35
954.1612	2255.1917	4301.3	3412.75
954.2946	2256.656	4282.4	3394.65
954.4279	2258.1197	4266.65	3382
954.5612	2259.5826	4271.2	3383.15
954.6944	2261.0447	4257.7	3369.55
954.8276	2262.5062	4232.05	3339.5
954.9608	2263.9669	4254.2	3360.75
955.094	2265.4269	4235.05	3344.65
955.2271	2266.8862	4229.25	3341.75
955.3602	2268.3448	4198.95	3310.1
955.4933	2269.8026	4202.65	3317.1
955.6264	2271.2598	4185.15	3299.4
955.7594	2272.7162	4180.45	3293.55
955.8924	2274.1719	4169.2	3278.2
956.0253	2275.6268	4165.95	3273.7
956.1583	2277.0811	4162.45	3272.45
956.2912	2278.5346	4140.35	3252.55
956.4241	2279.9874	4138.4	3250.35
956.5569	2281.4395	4132.1	3246.6
956.6897	2282.8908	4124.05	3231.75
956.8225	2284.3414	4115.15	3224.95
956.9553	2285.7914	4089.5	3201.4
957.088	2287.2406	4111.5	3221.7
957.2207	2288.689	4086.9	3195.65
957.3534	2290.1368	4083	3189
957.486	2291.5838	4069.4	3171.75
957.6186	2293.0302	4057	3160.9
957.7512	2294.4758	4039.4	3147.45
957.8838	2295.9206	4034.45	3140.65
958.0163	2297.3648	4020.4	3133.1
958.1488	2298.8082	4017.7	3131.05
958.2813	2300.251	4011.25	3117.85
958.4137	2301.693	3998.05	3103.6
958.5461	2303.1343	3991.1	3098.55
958.6785	2304.5748	3972.95	3083.95
958.8108	2306.0147	3958.55	3071.15
958.9432	2307.4538	3953.9	3064.15
959.0754	2308.8922	3939.35	3055.55
959.2077	2310.3299	3922.45	3035.9
959.3399	2311.7669	3913.1	3027.4
959.4721	2313.2031	3917.65	3028.25
959.6043	2314.6387	3898.4	3006.15
959.7365	2316.0735	3876.4	2987.15
959.8686	2317.5076	3877.85	2986.9
960.0006	2318.941	3867.1	2976.1
960.1327	2320.3737	3870.15	2979.15
960.2647	2321.8056	3860.55	2966.5
960.3967	2323.2369	3852.55	2962
960.5287	2324.6674	3837.1	2947.15
960.6606	2326.0972	3829.6	2938.85
960.7925	2327.5263	3817.45	2930.8
960.9244	2328.9547	3807.1	2916
961.0562	2330.3823	3795.3	2902.2
961.1881	2331.8092	3796.7	2901
961.3198	2333.2355	3768.25	2875.6
961.4516	2334.661	3772.3	2881.35
961.5833	2336.0858	3763.5	2870.8
961.715	2337.5098	3756.3	2865.85
961.8467	2338.9332	3750.9	2859.9
961.9783	2340.3558	3738.1	2848.45
962.1099	2341.7778	3724.5	2836.05
962.2415	2343.199	3724	2834.4
962.373	2344.6195	3707.55	2820.35
962.5045	2346.0393	3691.1	2805.4
962.636	2347.4583	3698.5	2808.65
962.7675	2348.8767	3694.45	2802.85
962.8989	2350.2943	3679.1	2785.1
963.0303	2351.7113	3688.3	2795.1
963.1617	2353.1275	3693.4	2801.25
963.293	2354.543	3655.4	2754.2
963.4243	2355.9578	3655.3	2765.45
963.5556	2357.3718	3632.1	2744.3
963.6868	2358.7852	3611.6	2721.9
963.818	2360.1978	3617.55	2732.25
963.9492	2361.6098	3606.7	2718.35
964.0803	2363.021	3603.75	2711.85
964.2114	2364.4315	3572.95	2683.9
964.3425	2365.8413	3587.25	2697.35
964.4736	2367.2504	3566.45	2680.4
964.6046	2368.6587	3558.55	2670.85
964.7356	2370.0664	3546.7	2663.45
964.8666	2371.4733	3542.35	2656.85
964.9975	2372.8795	3524.45	2639.4
965.1284	2374.285	3506.7	2619.25
965.2593	2375.6899	3498.05	2610.7
965.3901	2377.0939	3479.5	2592.4
965.5209	2378.4973	3473.15	2588.2
965.6517	2379.9	3469.9	2581.4
965.7825	2381.3019	3463.6	2579.1
965.9132	2382.7032	3447.85	2564.65
966.0439	2384.1037	3450.2	2567.5
966.1745	2385.5035	3436.4	2554.8
966.3051	2386.9027	3424.4	2542.4
966.4357	2388.3011	3403.9	2517.9
966.5663	2389.6987	3404.8	2521.5
966.6968	2391.0957	3402.1	2521.85
966.8273	2392.492	3377	2494.1
966.9578	2393.8876	3364.45	2480.95
967.0882	2395.2824	3360.2	2476.8
967.2186	2396.6765	3355.95	2473.35
967.349	2398.07	3344.65	2459.85
967.4793	2399.4627	3337.55	2450.45
967.6097	2400.8547	3328.7	2443.45
967.7399	2402.246	3326.95	2437.3
967.8702	2403.6366	3305.55	2418.4
968.0004	2405.0265	3288.5	2405.1
968.1306	2406.4156	3295.75	2407.25
968.2607	2407.8041	3275.4	2386.95
968.3909	2409.1918	3259.75	2373.65
968.521	2410.5789	3264.25	2377.2
968.651	2411.9652	3259.75	2372.05
968.781	2413.3508	3244.4	2362.35
968.911	2414.7358	3237.9	2352.95
969.041	2416.12	3219.9	2335.85
969.1709	2417.5035	3213.9	2330.05
969.3008	2418.8863	3204.4	2317.6
969.4307	2420.2684	3196.35	2309.65
969.5606	2421.6497	3196.4	2310.35
969.6904	2423.0304	3190.45	2307.15
969.8201	2424.4104	3174.7	2290.5
969.9499	2425.7896	3176.35	2290.4
970.0796	2427.1682	3172.45	2288.7
970.2093	2428.546	3157.95	2271.1
970.3389	2429.9232	3164.55	2279.5
970.4685	2431.2996	3145.9	2259.55
970.5981	2432.6753	3143.15	2255.95
970.7277	2434.0503	3135	2250.35
970.8572	2435.4246	3116.2	2228.6
970.9867	2436.7982	3108.55	2222.8
971.1161	2438.1711	3101.35	2217.85
971.2456	2439.5433	3094.25	2207.75
971.375	2440.9148	3089.9	2199.2
971.5043	2442.2856	3062.95	2178.7
971.6336	2443.6557	3074.7	2187.85
971.7629	2445.025	3071.7	2188.5
971.8922	2446.3937	3068.6	2180.55
972.0214	2447.7617	3046.9	2159.3
972.1506	2449.1289	3047.6	2160.4
972.2798	2450.4955	3040.35	2151.05
972.4089	2451.8613	3027.5	2144.5
972.538	2453.2265	3024.25	2137.7
972.6671	2454.5909	3018.8	2136.45
972.7961	2455.9546	2999.4	2112.6
972.9251	2457.3177	2991.55	2105.75
973.0541	2458.68	3000.75	2112.25
973.1831	2460.0416	3004.3	2116.2
973.312	2461.4025	2993.15	2104.9
973.4408	2462.7627	2986.9	2090.05
973.5697	2464.1222	2964.85	2082.7
973.6985	2465.4811	2965.45	2081.55
973.8273	2466.8392	2958.9	2073.7
973.956	2468.1966	2958.1	2068.9
974.0847	2469.5533	2959.75	2072.25
974.2134	2470.9093	2957.25	2068.4
974.3421	2472.2645	2956.15	2069.05
974.4707	2473.6191	2938.15	2052.55
974.5993	2474.973	2928.85	2041.85
974.7278	2476.3262	2923.15	2036.6
974.8563	2477.6787	2910.35	2025.4
974.9848	2479.0305	2890.8	2006.75
975.1132	2480.3816	2893.3	2006.05
975.2417	2481.7319	2876.25	1991.35
975.37	2483.0816	2880.25	1994.25
975.4984	2484.4306	2871.7	1984.8
975.6267	2485.7789	2862.25	1979
975.755	2487.1264	2859.6	1974.1
975.8833	2488.4733	2846.25	1963.7
976.0115	2489.8195	2845.05	1951.25
976.1397	2491.165	2827.4	1939.3
976.2678	2492.5097	2828.6	1942.65
976.3959	2493.8538	2816.3	1929.9
976.524	2495.1972	2807.7	1919.1
976.6521	2496.5398	2796.35	1909.15
976.7801	2497.8818	2803.4	1913.55
976.9081	2499.2231	2785.1	1898.7
977.036	2500.5637	2779.7	1890.65
977.164	2501.9035	2778.9	1890.3
977.2918	2503.2427	2787.35	1895.6
977.4197	2504.5812	2763.65	1876.55
977.5475	2505.919	2755.45	1865.55
977.6753	2507.256	2760.5	1874.4
977.8031	2508.5924	2740.7	1854
977.9308	2509.9281	2745.85	1854.7
978.0585	2511.2631	2725.9	1838.3
978.1861	2512.5974	2731.5	1846.2
978.3137	2513.9309	2720.15	1833.55
978.4413	2515.2638	2736.3	1825.25
978.5689	2516.596	2714.45	1829.35
978.6964	2517.9275	2697.95	1810.6
978.8239	2519.2583	2693.8	1807.15
978.9513	2520.5884	2681.65	1793.3
979.0788	2521.9178	2679.65	1792.45
979.2062	2523.2465	2664.65	1780.2
979.3335	2524.5745	2671.25	1784.85
979.4608	2525.9018	2660	1773.9
979.5881	2527.2284	2651.15	1765.1
979.7154	2528.5543	2645.15	1759.45
979.8426	2529.8796	2651.25	1764.65
979.9698	2531.2041	2662.2	1777.4
980.0969	2532.5279	2647.1	1763.75
980.224	2533.851	2642.3	1756.6
980.3511	2535.1735	2635.5	1752
980.4781	2536.4952	2621.9	1735.2
980.6052	2537.8163	2622	1735.5
980.7321	2539.1366	2609.3	1724.7
980.8591	2540.4562	2599.55	1711.9
980.986	2541.7752	2601.05	1712.75
981.1129	2543.0935	2606	1719.45
981.2397	2544.411	2592.2	1702
981.3665	2545.7279	2593.6	1706.1
981.4933	2547.0441	2594.7	1706.85
981.62	2548.3596	2589.05	1697.85
981.7467	2549.6744	2574.2	1687.4
981.8734	2550.9885	2591.2	1695.1
982.0001	2552.3019	2567.25	1680.5
982.1267	2553.6146	2561.8	1674.1
982.2532	2554.9266	2565	1678.4
982.3798	2556.2379	2554.6	1665.2
982.5063	2557.5485	2555.3	1670
982.6327	2558.8585	2548.8	1655.75
982.7592	2560.1677	2538.65	1649.2
982.8856	2561.4762	2523.2	1636.45
983.0119	2562.7841	2529.4	1637.7
983.1383	2564.0913	2514.95	1626
983.2646	2565.3977	2520.5	1634.15
983.3908	2566.7035	2507	1619.65
983.517	2568.0086	2514.1	1625.55
983.6432	2569.313	2523.5	1634.45
983.7694	2570.6167	2499.85	1607.7
983.8955	2571.9197	2511.3	1623.05
984.0216	2573.222	2497.45	1606.7
984.1476	2574.5236	2500.65	1612.7
984.2737	2575.8246	2502.3	1610.1
984.3996	2577.1248	2501.3	1610.5
984.5256	2578.4244	2499.85	1613.15
984.6515	2579.7232	2499.15	1612.45
984.7774	2581.0214	2508.75	1587.95
984.9032	2582.3189	2471	1585.25
985.029	2583.6157	2482.75	1591.9
985.1548	2584.9118	2477.35	1590.35
985.2806	2586.2072	2462.7	1576.1
985.4063	2587.5019	2461.4	1573
985.5319	2588.7959	2470.15	1583.8
985.6576	2590.0893	2468	1576.05
985.7832	2591.3819	2452.05	1565.35
985.9087	2592.6739	2455.5	1569.6
986.0343	2593.9652	2454.05	1566.1
986.1597	2595.2557	2453.55	1566.35
986.2852	2596.5456	2442.15	1553.1
986.4106	2597.8348	2437.8	1550.05
986.536	2599.1234	2437.3	1551.5
986.6614	2600.4112	2430	1539.65
986.7867	2601.6983	2429.7	1539.65
986.912	2602.9848	2424.55	1535.95
987.0372	2604.2705	2414.65	1521.85
987.1624	2605.5556	2416.05	1530.65
987.2876	2606.84	2407.1	1520.9
987.4128	2608.1237	2400.1	1512.05
987.5379	2609.4067	2391.1	1504.95
987.6629	2610.689	2399.35	1504.35
987.788	2611.9707	2391.05	1503.3
987.913	2613.2516	2383.85	1490.2
988.0379	2614.5319	2375.15	1488.7
988.1629	2615.8115	2363.7	1476.15
988.2878	2617.0903	2366.1	1476.7
988.4126	2618.3685	2353.7	1465.85
988.5375	2619.6461	2337.4	1449.6
988.6622	2620.9229	2344.95	1456.9
988.787	2622.199	2353.5	1465.3
988.9117	2623.4745	2346.8	1459.05
989.0364	2624.7493	2340.95	1458.1
989.161	2626.0234	2333.55	1447.7
989.2857	2627.2968	2328.5	1443.6
989.4102	2628.5695	2320.35	1431.25
989.5348	2629.8415	2316.2	1431.25
989.6593	2631.1128	2312.25	1425.2
989.7837	2632.3835	2309.65	1423.25
989.9082	2633.6535	2308.55	1422.5
990.0326	2634.9228	2308.25	1423.1
990.1569	2636.1914	2294.95	1410.35
990.2812	2637.4593	2299.45	1412.5
990.4055	2638.7265	2288.2	1398.85
990.5298	2639.9931	2278.55	1391.8
990.654	2641.259	2275.4	1388.45
990.7782	2642.5242	2272.3	1384.6
990.9023	2643.7887	2272.7	1384
991.0264	2645.0525	2256.45	1368.7
991.1505	2646.3156	2258.6	1370.65
991.2745	2647.5781	2255.15	1370.15
991.3985	2648.8398	2245.15	1358.35
991.5225	2650.1009	2245.65	1351.45
991.6464	2651.3613	2245.85	1360.3
991.7703	2652.6211	2231.95	1345.95
991.8942	2653.8801	2236.4	1352.4
992.018	2655.1385	2228.2	1338.65
992.1418	2656.3961	2217.25	1333.6
992.2655	2657.6531	2228.85	1340.8
992.3892	2658.9094	2228.4	1343.6
992.5129	2660.1651	2217.85	1330.4
992.6366	2661.42	2229.35	1342.7
992.7602	2662.6743	2214.45	1325.15
992.8837	2663.9279	2226	1340.25
993.0073	2665.1808	2208.05	1318.9
993.1307	2666.433	2211.2	1324.2
993.2542	2667.6846	2210.15	1323.05
993.3776	2668.9354	2209.3	1321.05
993.501	2670.1856	2200.75	1312.25
993.6244	2671.4351	2202.5	1316.8
993.7477	2672.6839	2201.9	1315.7
993.8709	2673.9321	2192.7	1306.55
993.9942	2675.1795	2193.85	1307.05
994.1174	2676.4263	2193.85	1308.4
994.2405	2677.6724	2197.25	1312.2
994.3637	2678.9179	2190	1305.65
994.4868	2680.1626	2186.7	1301.3
994.6098	2681.4067	2197.9	1310.35
994.7328	2682.6501	2192.85	1307.8
994.8558	2683.8928	2183.45	1297.3
994.9788	2685.1348	2173.95	1290.2
995.1017	2686.3761	2172.55	1286.3
995.2245	2687.6168	2166.1	1279.15
995.3474	2688.8568	2152.7	1265.15
995.4702	2690.0961	2140.4	1254.65
995.5929	2691.3348	2140.55	1253.8
995.7156	2692.5727	2144.95	1259.55
995.8383	2693.81	2137.5	1251.1
995.961	2695.0466	2130.3	1246.7
996.0836	2696.2826	2119.55	1231.45
996.2062	2697.5178	2154.95	1249.35
996.3287	2698.7524	2124.65	1240.2
996.4512	2699.9863	2128.1	1240.2
996.5737	2701.2195	2118.35	1233.65
996.6961	2702.452	2122.6	1236.2
996.8185	2703.6839	2122.25	1234.6
996.9408	2704.9151	2126.15	1242.75
997.0631	2706.1456	2115.05	1228.55
997.1854	2707.3755	2126.05	1239.3
997.3077	2708.6046	2135.05	1246.3
997.4299	2709.8331	2143	1258.1
997.552	2711.0609	2141.6	1255.4
997.6742	2712.2881	2144.25	1258.45
997.7963	2713.5145	2157.05	1267.8
997.9183	2714.7403	2150.45	1265.3
998.0403	2715.9654	2168.15	1283.75
998.1623	2717.1899	2175.6	1275.25
998.2842	2718.4136	2163.3	1277.4
998.4062	2719.6367	2182.4	1298.6
998.528	2720.8591	2204.75	1314.55
998.6498	2722.0809	2204.2	1317
998.7716	2723.3019	2200.25	1312.1
998.8934	2724.5223	2211.35	1322.15
999.0151	2725.7421	2213	1325.15
999.1368	2726.9611	2214.55	1327.5
999.2584	2728.1795	2214.35	1326.3
999.38	2729.3972	2197	1313.75
999.5016	2730.6142	2197.55	1297.8
999.6231	2731.8306	2178.2	1294.25
999.7446	2733.0462	2147.7	1260.5
999.8661	2734.2612	2134.65	1245.7
999.9875	2735.4756	2114.5	1226.95
1000.1089	2736.6892	2093.5	1206.7
1000.2302	2737.9022	2074.7	1192.15
1000.3515	2739.1145	2062.05	1176.4
1000.4728	2740.3262	2061.4	1168.45
1000.594	2741.5372	2034.95	1151.2
1000.7152	2742.7475	2019.7	1132.2
1000.8363	2743.9571	2008	1121
1000.9575	2745.1661	2001.1	1110.8
1001.0785	2746.3744	1987.9	1101.3
1001.1996	2747.582	1977.95	1094.5
1001.3206	2748.7889	1969.8	1082.7
1001.4415	2749.9952	1953.85	1067.6
1001.5625	2751.2008	1943.1	1057.65
1001.6833	2752.4057	1937.05	1049.25
1001.8042	2753.61	1939.9	1054.3
1001.925	2754.8136	1931.15	1044.05
1002.0458	2756.0165	1931.55	1049.35
1002.1665	2757.2188	1920.45	1037.95
1002.2872	2758.4204	1918	1033.5
1002.4078	2759.6213	1914.95	1029.35
1002.5285	2760.8215	1924.25	1036.2
1002.649	2762.0211	1910.4	1024.35
1002.7696	2763.22	1920.2	1032.2
1002.8901	2764.4182	1908.25	1023.25
1003.0106	2765.6158	1901.35	1015.35
1003.131	2766.8127	1893.85	1008.35
1003.2514	2768.009	1893.2	1006.2
1003.3717	2769.2045	1892.15	1005.85
1003.492	2770.3994	1884.8	997.15
1003.6123	2771.5936	1880.15	992.95
1003.7325	2772.7872	1869.7	984.1
1003.8527	2773.9801	1874.55	989.45
1003.9729	2775.1723	1882.8	980.7
1004.093	2776.3639	1851.55	966.85
1004.2131	2777.5548	1862.55	974.8
1004.3331	2778.745	1861.3	975.6
1004.4531	2779.9346	1856.05	972.8
1004.5731	2781.1235	1855.55	972.9
1004.693	2782.3117	1856.55	973.05
1004.8129	2783.4992	1864	981
1004.9328	2784.6861	1860.15	975.35
1005.0526	2785.8723	1867.15	983.95
1005.1723	2787.0579	1877.5	993.1
1005.2921	2788.2428	1873.3	989.45
1005.4118	2789.427	1878.35	995.55
1005.5314	2790.6106	1871.7	989.55
1005.651	2791.7935	1892.8	1009.9
1005.7706	2792.9757	1899.4	1017.25
1005.8902	2794.1573	1908.4	1023.65
1006.0097	2795.3382	1912.5	1028.45
1006.1291	2796.5184	1921.75	1040.95
1006.2485	2797.698	1941.35	1054.65
1006.3679	2798.8769	1952.65	1068.7
1006.4873	2800.0551	1969.7	1085.9
1006.6066	2801.2327	1980.2	1093.75
1006.7258	2802.4096	1990	1107.5
1006.8451	2803.5859	2004.1	1119.95
1006.9642	2804.7615	2040.4	1155.3
1007.0834	2805.9364	2056.75	1172.9
1007.2025	2807.1106	2072.4	1189.1
1007.3216	2808.2842	2103.15	1219.8
1007.4406	2809.4572	2128.3	1245.45
1007.5596	2810.6294	2163.85	1279.35
1007.6785	2811.801	2201.65	1319.15
1007.7975	2812.972	2231.75	1351
1007.9163	2814.1423	2273.75	1388.55
1008.0352	2815.3119	2315.35	1432.35
1008.154	2816.4808	2372.65	1490.6
1008.2727	2817.6491	2421.6	1536.4
1008.3914	2818.8167	2457.3	1574.85
1008.5101	2819.9837	2503.6	1617.15
1008.6288	2821.15	2549.1	1666.7
1008.7474	2822.3157	2599.95	1717.3
1008.8659	2823.4807	2647.3	1761.85
1008.9844	2824.645	2697.8	1812.95
1009.1029	2825.8086	2735.3	1852.2
1009.2214	2826.9716	2780.95	1899.85
1009.3398	2828.134	2820.45	1939.2
1009.4581	2829.2957	2846.15	1963.1
1009.5764	2830.4567	2885.8	2006.15
1009.6947	2831.617	2908	2025.35
1009.813	2832.7767	2922.5	2039.35
1009.9312	2833.9358	2919.5	2038.05
1010.0493	2835.0941	2919.7	2035.3
1010.1675	2836.2519	2891.55	2012.55
1010.2855	2837.4089	2882.5	1997.4
1010.4036	2838.5653	2872.55	1990.1
1010.5216	2839.7211	2875.8	1993.4
1010.6396	2840.8761	2881.95	1995.25
1010.7575	2842.0306	2894.25	2011.95
1010.8754	2843.1843	2934.35	2051.4
1010.9932	2844.3374	2971.85	2088.55
1011.111	2845.4899	3034.15	2151.65
1011.2288	2846.6417	3098.4	2217.2
1011.3465	2847.7928	3159.15	2279.45
1011.4642	2848.9433	3253.85	2369.9
1011.5818	2850.0931	3317.1	2434.55
1011.6995	2851.2422	3407.25	2524.3
1011.817	2852.3907	3461.65	2576.6
1011.9345	2853.5385	3530.1	2644.2
1012.052	2854.6857	3604.35	2693.8
1012.1695	2855.8323	3626.1	2743.7
1012.2869	2856.9781	3657.95	2775.15
1012.4042	2858.1233	3701.15	2819.45
1012.5216	2859.2679	3760.75	2879.65
1012.6389	2860.4118	3792.7	2911.85
1012.7561	2861.555	3825.95	2938.45
1012.8733	2862.6976	3864	2979.3
1012.9905	2863.8395	3904.3	3020.3
1013.1076	2864.9808	3924.15	3040.35
1013.2247	2866.1214	3943.35	3063.15
1013.3417	2867.2614	3947.05	3065
1013.4587	2868.4007	3963.65	3079.85
1013.5757	2869.5393	3977.05	3092.6
1013.6926	2870.6773	3982.4	3094.4
1013.8095	2871.8146	4002.05	3116.55
1013.9263	2872.9513	4009.2	3122.65
1014.0431	2874.0874	4000.35	3118.95
1014.1599	2875.2227	3991.6	3108
1014.2766	2876.3574	3974.8	3093.2
1014.3933	2877.4915	3949.55	3065.8
1014.51	2878.6249	3913.35	3033.4
1014.6266	2879.7577	3873.8	2991.1
1014.7431	2880.8898	3869.1	2976.6
1014.8596	2882.0212	3850.45	2969.75
1014.9761	2883.152	3823.2	2939.85
1015.0925	2884.2821	3811.7	2928.35
1015.2089	2885.4116	3813	2933.95
1015.3253	2886.5405	3825.5	2943.65
1015.4416	2887.6686	3817.9	2934.3
1015.5579	2888.7962	3832.8	2950.05
1015.6741	2889.923	3838.25	2958.4
1015.7903	2891.0493	3850.45	2969.95
1015.9065	2892.1748	3851.2	2970.45
1016.0226	2893.2997	3866.15	2984.2
1016.1387	2894.424	3876.65	2997.05
1016.2547	2895.5476	3891.45	3010.3
1016.3707	2896.6706	3898.8	3017.95
1016.4866	2897.7929	3926.55	3044.1
1016.6025	2898.9145	3959.8	3078
1016.7184	2900.0355	3995.7	3113.6
1016.8342	2901.1559	4025.45	3143.3
1016.95	2902.2756	4046.4	3165.1
1017.0658	2903.3946	4093.45	3213.7
1017.1815	2904.513	4106.65	3221.6
1017.2971	2905.6308	4152.25	3271.7
1017.4127	2906.7479	4153.6	3269.65
1017.5283	2907.8643	4178.95	3294.9
1017.6439	2908.9801	4198.2	3317.7
1017.7594	2910.0953	4208.1	3329.5
1017.8748	2911.2098	4211.5	3326.55
1017.9902	2912.3236	4202.15	3313.3
1018.1056	2913.4368	4183.7	3297.05
1018.2209	2914.5494	4156.75	3276.05
1018.3362	2915.6613	4126.6	3238.4
1018.4515	2916.7725	4103.55	3218.95
1018.5667	2917.8831	4067.6	3185.95
1018.6819	2918.9931	4034.8	3149.45
1018.797	2920.1024	4005.4	3121
1018.9121	2921.211	3980.3	3097.6
1019.0271	2922.319	3983.5	3101.8
1019.1421	2923.4264	3955.5	3074.55
1019.2571	2924.5331	3929.8	3049.8
1019.372	2925.6391	3929.1	3049.25
1019.4869	2926.7445	3911.05	3032.2
1019.6017	2927.8493	3903.75	3022.8
1019.7165	2928.9534	3907.95	3028.35
1019.8313	2930.0569	3901.35	3017.45
1019.946	2931.1597	3880.9	2997.7
1020.0606	2932.2619	3877.45	2997.5
1020.1753	2933.3634	3871.65	2990.9
1020.2899	2934.4643	3866.45	2978.05
1020.4044	2935.5645	3858	2971.9
1020.5189	2936.6641	3810.25	2926.3
1020.6334	2937.763	3778.2	2898.15
1020.7478	2938.8613	3737.55	2856.65
1020.8622	2939.959	3671.15	2785.65
1020.9765	2941.056	3588.25	2707.95
1021.0908	2942.1523	3514.35	2631.75
1021.2051	2943.248	3429.7	2548.45
1021.3193	2944.3431	3338.65	2456.55
1021.4334	2945.4375	3239.55	2357.15
1021.5476	2946.5313	3139.95	2259.8
1021.6617	2947.6244	3031.9	2151.75
1021.7757	2948.7169	2933.1	2051.7
1021.8897	2949.8087	2837.4	1957.6
1022.0037	2950.8999	2741.8	1859.85
1022.1176	2951.9904	2657	1777.15
1022.2315	2953.0803	2578.85	1697.5
1022.3453	2954.1696	2524.65	1645.9
1022.4591	2955.2582	2468.7	1587.2
1022.5728	2956.3462	2428	1549.05
1022.6865	2957.4335	2381.4	1500.25
1022.8002	2958.5202	2349.6	1466.05
1022.9138	2959.6062	2317.45	1437.55
1023.0274	2960.6916	2295.95	1416.9
1023.141	2961.7764	2276.2	1394.45
1023.2545	2962.8605	2262.55	1381.7
1023.3679	2963.9439	2253.6	1375.65
1023.4813	2965.0267	2233.3	1351.95
1023.5947	2966.1089	2242.25	1339.4
1023.708	2967.1905	2231.8	1352.2
1023.8213	2968.2714	2207.5	1328.75
1023.9346	2969.3516	2206.4	1324.65
1024.0478	2970.4312	2231.75	1342.4
1024.1609	2971.5102	2200.45	1320.45
1024.274	2972.5885	2205.8	1325.1
1024.3871	2973.6662	2213.95	1328.85
1024.5002	2974.7432	2204.25	1324.75
1024.6132	2975.8196	2201.2	1321.2
1024.7261	2976.8954	2191.15	1313
1024.839	2977.9705	2183.25	1303.8
1024.9519	2979.045	2161.85	1284.35
1025.0647	2980.1188	2134.8	1254.85
1025.1775	2981.192	2129.5	1250.95
1025.2902	2982.2645	2104.45	1222.65
1025.4029	2983.3364	2069.65	1186.65
1025.5156	2984.4077	2039.35	1159.6
1025.6282	2985.4783	2019.7	1134
1025.7407	2986.5483	1993.4	1115
1025.8532	2987.6177	1954.1	1075.3
1025.9657	2988.6864	1918.6	1039.45
1026.0782	2989.7545	1880.7	1000.35
1026.1906	2990.8219	1849.25	969.95
1026.3029	2991.8887	1820.25	938.05
1026.4152	2992.9548	1781.1	902.5
1026.5275	2994.0204	1757.4	879.95
1026.6397	2995.0852	1722.3	844.35
1026.7519	2996.1495	1697.25	817.75
1026.864	2997.2131	1679	800.15
1026.9761	2998.276	1657.6	778.45
1027.0882	2999.3383	1632.5	751.45
1027.2002	3000.4	1618.05	738
1027.3122	3001.4611	1595.05	716.1
1027.4241	3002.5215	1577.65	695.25
1027.536	3003.5812	1555.1	675.3
1027.6478	3004.6404	1549.5	670.55
1027.7596	3005.6989	1545.95	662.85
1027.8714	3006.7567	1531.45	652.6
1027.9831	3007.8139	1543.7	632.7
1028.0947	3008.8705	1519.4	639.9
1028.2064	3009.9264	1509.7	628.6
1028.3179	3010.9818	1507.3	627.95
1028.4295	3012.0364	1494.8	615.5
1028.541	3013.0905	1486.55	607.95
1028.6524	3014.1439	1491.8	612.25
1028.7638	3015.1966	1486.25	609.75
1028.8752	3016.2487	1484.15	605.5
1028.9865	3017.3002	1479.5	596.05
1029.0978	3018.3511	1474.15	597.8
1029.209	3019.4013	1479.1	600.7
1029.3202	3020.4509	1470.25	591.8
1029.4314	3021.4998	1479.2	596.55
1029.5425	3022.5481	1477.3	599.85
1029.6535	3023.5958	1472.85	595.5
1029.7645	3024.6428	1476.65	598.35
1029.8755	3025.6892	1477.05	600.15
1029.9864	3026.735	1477.65	598.3
1030.0973	3027.7802	1468.4	589.9
1030.2082	3028.8247	1474.55	595.6
1030.319	3029.8685	1475.35	594.5
1030.4297	3030.9118	1476.3	594.35
1030.5404	3031.9544	1478.4	599.85
1030.6511	3032.9963	1485.6	606.3
1030.7617	3034.0376	1491	612.3
1030.8723	3035.0783	1494.6	614.05
1030.9829	3036.1184	1493.75	613.1
1031.0934	3037.1578	1498.25	620
1031.2038	3038.1966	1495	613.55
1031.3142	3039.2348	1498.4	620.05
1031.4246	3040.2723	1511.3	625.6
1031.5349	3041.3092	1494.2	616.1
1031.6452	3042.3455	1489.75	609.9
1031.7554	3043.3811	1487.4	607.15
1031.8656	3044.4161	1486.55	609.1
1031.9758	3045.4505	1479.85	601.8
1032.0859	3046.4842	1469.75	590.35
1032.1959	3047.5173	1465.85	587.8
1032.3059	3048.5498	1468.95	590.2
1032.4159	3049.5816	1460.55	582.7
1032.5258	3050.6128	1454.6	574.7
1032.6357	3051.6434	1442.5	562.6
1032.7455	3052.6734	1434.85	555.65
1032.8553	3053.7027	1429.45	550.1
1032.9651	3054.7314	1425.55	546.1
1033.0748	3055.7594	1426.2	545.4
1033.1845	3056.7868	1406.45	526.35
1033.2941	3057.8136	1412.85	535.9
1033.4037	3058.8398	1402.75	525.2
1033.5132	3059.8653	1397.7	521.1
1033.6227	3060.8902	1395.6	517.95
1033.7321	3061.9145	1388.95	510.75
1033.8415	3062.9381	1383.3	504.65
1033.9509	3063.9612	1386.9	494
1034.0602	3064.9835	1372.4	493.7
1034.1694	3066.0053	1370.7	490.2
1034.2787	3067.0264	1362.7	485.3
1034.3878	3068.0469	1353.3	472.85
1034.497	3069.0668	1344.55	464.4
1034.6061	3070.086	1334.85	458.1
1034.7151	3071.1046	1337.5	459.85
1034.8241	3072.1226	1321.25	441.5
1034.9331	3073.1399	1312.75	435.85
1035.042	3074.1567	1297.35	419.2
1035.1508	3075.1727	1290.5	410.55
1035.2597	3076.1882	1280.35	402.8
1035.3684	3077.203	1273.75	396.85
1035.4772	3078.2173	1270.9	392.1
1035.5859	3079.2308	1267.2	385.35
1035.6945	3080.2438	1254.6	375.4
1035.8031	3081.2561	1249.95	372.3
1035.9117	3082.2678	1236.75	358.05
1036.0202	3083.2789	1233.45	355.05
1036.1286	3084.2893	1232.4	356.15
1036.2371	3085.2991	1220.45	344.15
1036.3454	3086.3083	1217.05	332.5
1036.4538	3087.3169	1215.85	335.1
1036.562	3088.3248	1204.25	324
1036.6703	3089.3321	1205.85	325.9
1036.7785	3090.3388	1191.95	314.6
1036.8866	3091.3449	1190.15	312.45
1036.9948	3092.3503	1184.45	303.75
1037.1028	3093.3551	1181.1	304.65
1037.2108	3094.3593	1178.45	301.9
1037.3188	3095.3629	1168.65	291.3
1037.4267	3096.3658	1166.3	289.2
1037.5346	3097.3681	1169.4	291.8
1037.6425	3098.3698	1164.65	286.6
1037.7503	3099.3708	1172.15	285.5
1037.858	3100.3713	1161.25	285.4
1037.9657	3101.3711	1153.35	272.2
1038.0734	3102.3702	1287.7	268.05
1038.181	3103.3688	1154.2	273.7
1038.2886	3104.3667	1145.95	270.55
1038.3961	3105.364	1143.75	262.3
1038.5036	3106.3607	1145.4	265.5
1038.611	3107.3568	1139.4	257.9
1038.7184	3108.3522	1130.45	254.5
1038.8257	3109.347	1131.1	252.5
1038.933	3110.3412	1135.9	256.25
1039.0403	3111.3348	1127.1	249.4
1039.1475	3112.3277	1129.35	252.85
1039.2547	3113.32	1125	249.1
1039.3618	3114.3117	1123.9	245.65
1039.4689	3115.3028	1121.45	245.05
1039.5759	3116.2932	1119.65	241
1039.6829	3117.2831	1125.5	243.35
1039.7898	3118.2723	1114.2	236.7
1039.8967	3119.2608	1115.7	239.1
1040.0035	3120.2488	1113.2	236.8
1040.1103	3121.2361	1111.85	233.45
1040.2171	3122.2229	1107.6	228.65
1040.3238	3123.209	1104.4	226.95
1040.4305	3124.1944	1101.9	224.85
1040.5371	3125.1793	1107.45	229.55
1040.6437	3126.1635	1101.65	226.05
1040.7502	3127.1471	1099.45	220.75
1040.8567	3128.1301	1094.9	217.4
1040.9631	3129.1125	1094.55	218.75
1041.0695	3130.0942	1101.75	225.15
1041.1759	3131.0753	1103.05	217.1
1041.2822	3132.0558	1099.05	219.4
1041.3884	3133.0357	1088.65	209
1041.4946	3134.015	1093.5	215
1041.6008	3134.9936	1091.1	211.6
1041.7069	3135.9716	1110.05	211.9
1041.813	3136.949	1085.2	208.25
1041.919	3137.9258	1100.8	205.45
1042.025	3138.902	1080.7	198.5
1042.1309	3139.8775	1081.5	201.9
1042.2368	3140.8524	1081.15	204.45
1042.3427	3141.8267	1080.35	200.2
1042.4485	3142.8004	1076.15	200.4
1042.5542	3143.7735	1081.35	199.05
1042.6599	3144.7459	1078.95	199.25
1042.7656	3145.7178	1073.4	196.9
1042.8712	3146.689	1074.05	196.8
1042.9768	3147.6596	1070.85	190.2
1043.0823	3148.6295	1070.25	191.45
1043.1878	3149.5989	1066.15	190.1
1043.2932	3150.5676	1066.35	189.8
1043.3986	3151.5357	1063.3	188.65
1043.5039	3152.5032	1060.25	183.05
1043.6092	3153.4701	1058.9	181.2
1043.7145	3154.4364	1061.4	184.05
1043.8197	3155.402	1062.35	185
1043.9248	3156.367	1055.2	174.85
1044.03	3157.3315	1084.25	179.75
1044.135	3158.2952	1051.8	176.75
1044.24	3159.2584	1053.15	174
1044.345	3160.221	1054.1	175.35
1044.4499	3161.1829	1051.8	173.8
1044.5548	3162.1442	1050.75	174.05
1044.6596	3163.105	1049.5	172.3
1044.7644	3164.065	1045.25	167.75
1044.8692	3165.0245	1042.8	164
1044.9739	3165.9834	1046.05	171.4
1045.0785	3166.9416	1046.2	170.05
1045.1831	3167.8993	1040.15	160.85
1045.2877	3168.8563	1045.85	167.95
1045.3922	3169.8127	1039.65	163.4
1045.4966	3170.7684	1038.7	161.8
1045.6011	3171.7236	1039.35	162
1045.7054	3172.6782	1034.95	157.25
1045.8098	3173.6321	1042.2	163.4
1045.914	3174.5854	1037.95	155
1046.0183	3175.5381	1032.4	157.2
1046.1224	3176.4902	1033.6	156.1
1046.2266	3177.4417	1031.15	156.55
1046.3307	3178.3926	1031.1	153.85
1046.4347	3179.3428	1027.85	152.5
1046.5387	3180.2924	1027.8	152.25
1046.6427	3181.2415	1027.4	149.95
1046.7466	3182.1899	1024.6	148.55
1046.8504	3183.1377	1029.05	150.25
1046.9542	3184.0848	1026.4	147.35
1047.058	3185.0314	1025.7	149.6
1047.1617	3185.9773	1024.65	146.95
1047.2654	3186.9227	1022.25	146.6
1047.369	3187.8674	1025.1	148.55
1047.4726	3188.8115	1023.4	142.5
1047.5761	3189.755	1015.95	140.4
1047.6796	3190.6979	1021.55	144.4
1047.783	3191.6402	1014.25	137.75
1047.8864	3192.5818	1014.9	137.85
1047.9898	3193.5229	1023.4	142.4
1048.0931	3194.4633	1014.35	137.55
1048.1963	3195.4031	1015.9	138.75
1048.2995	3196.3423	1013.9	138.65
1048.4027	3197.2809	1012.2	134.15
1048.5058	3198.2189	1014.7	138.4
1048.6089	3199.1563	1030.5	139.95
1048.7119	3200.0931	1011.2	136
1048.8148	3201.0292	1010.15	136.1
1048.9178	3201.9648	1011.95	136.55
1049.0206	3202.8997	1017.5	137.4
1049.1235	3203.834	1006.8	128.9
1049.2262	3204.7677	1009.6	134
1049.329	3205.7008	1010.7	134.3
1049.4317	3206.6333	1002	126
1049.5343	3207.5652	1009.45	131.05
1049.6369	3208.4964	1003.35	126
1049.7394	3209.4271	1001.55	124.6
1049.8419	3210.3571	1002.05	125.75
1049.9444	3211.2865	1002.85	124.75
1050.0468	3212.2154	1005.15	126.65
1050.1491	3213.1436	1002.75	122.5
1050.2514	3214.0712	1009.4	127.05
1050.3537	3214.9982	998.1	122.5
1050.4559	3215.9246	998.25	120
1050.5581	3216.8503	996.3	122.1
1050.6602	3217.7755	995.35	118.35
1050.7623	3218.7001	999.25	124.55
1050.8643	3219.624	994.3	119.35
1050.9663	3220.5473	995.6	119.6
1051.0682	3221.4701	993.8	112.35
1051.1701	3222.3922	991	113.45
1051.2719	3223.3137	993.65	117
1051.3737	3224.2346	989.45	115.55
1051.4754	3225.1549	991.4	116.75
1051.5771	3226.0746	994.4	119.25
1051.6788	3226.9937	991.5	113.35
1051.7804	3227.9121	989.65	114.4
1051.8819	3228.83	988.95	114.05
1051.9834	3229.7473	987.95	112.4
1052.0849	3230.6639	988.15	111.05
1052.1863	3231.5799	988.25	114.1
1052.2876	3232.4954	985.15	109.7
1052.3889	3233.4102	984.15	107.9
1052.4902	3234.3244	989.2	115.25
1052.5914	3235.238	984.2	108.05
1052.6926	3236.151	1006.7	106.95
1052.7937	3237.0634	982.35	109.35
1052.8948	3237.9752	981.95	106.6
1052.9958	3238.8864	981.65	105.9
1053.0968	3239.797	979.9	101.3
1053.1977	3240.7069	982	104.1
1053.2986	3241.6163	981.1	103.75
1053.3994	3242.5251	977.2	102.95
1053.5002	3243.4332	978.3	103.95
1053.6009	3244.3408	978.9	102
1053.7016	3245.2477	977.8	104.2
1053.8022	3246.154	977.2	100.65
1053.9028	3247.0598	976.05	97.5
1054.0034	3247.9649	976.55	100.45
1054.1039	3248.8694	971.45	96.15
1054.2043	3249.7733	971.7	96.1
1054.3047	3250.6766	976.8	101.3
1054.4051	3251.5793	973.3	96.45
1054.5054	3252.4814	968.7	95.35
1054.6056	3253.3829	973.2	97.25
1054.7058	3254.2838	968	94.35
1054.806	3255.1841	968.35	93.7
1054.9061	3256.0838	968.55	93.4
1055.0061	3256.9829	963.6	89.6
1055.1062	3257.8814	967.35	89.6
1055.2061	3258.7792	968.8	91.1
1055.306	3259.6765	963.7	86.05
1055.4059	3260.5731	964.5	89.05
1055.5057	3261.4692	961.8	86
1055.6055	3262.3647	962.95	86.8
1055.7052	3263.2595	961.1	87
1055.8049	3264.1538	957.5	85.45
1055.9045	3265.0474	958.9	84.3
1056.0041	3265.9404	952.05	77.75
1056.1036	3266.8329	953.65	78.45
1056.2031	3267.7247	961.45	77.2
1056.3025	3268.616	950.35	75.75
1056.4019	3269.5066	946.15	69.5
1056.5013	3270.3966	949	70.05
1056.6005	3271.286	942.85	69.7
