Software Version:	3.9.2.0
Unit SN:	10000200
Spectrometer SN:	6960
Date:	3/8/2024 1:06:01 PM
Data Line Index:	25
Spectral Points:	2048
Integration time (ms):	125
Averages:	20
Delay (ms):	30000
Sequence Number:	1
Processing:	dark subtract
Laser Power (mW):	300
Laser Current (mA):	822
Laser Diode Temp (C):	25
Laser Case Temp (C):	26.1
System Temp (C):	26.1
Spectrometer Temp (C):	23.9
CCD Temp (C):	0.002
Secondary Temp (C):	20.008
Heatsink Temp (C):	21.137
CCDPCB Temp (C):	36.318
SecondaryPCB Temp (C):	30.427

Wavelength	RamanShift	Raw Counts	Dark Subtracted
787.061	30.1047	456.75	47.45
787.2016	32.3739	459.6	54.45
787.3422	34.6426	464	56.3
787.4828	36.9109	468.75	58.8
787.6235	39.1787	477.5	62.85
787.7642	41.4461	490.75	73.6
787.9049	43.7131	497.15	75.15
788.0456	45.9796	504.8	80.75
788.1863	48.2456	512.7	83.6
788.3271	50.5112	523.65	90.6
788.4679	52.7764	531.55	96.1
788.6087	55.0411	542.85	101.8
788.7496	57.3054	555.7	110.35
788.8904	59.5692	563.65	116.45
789.0313	61.8326	575.25	125.75
789.1722	64.0955	583.9	131.8
789.3132	66.3579	604.75	145.25
789.4541	68.6199	624.4	162.15
789.5951	70.8815	660.65	194.25
789.7361	73.1426	743.35	272.4
789.8771	75.4032	953.75	479.05
790.0181	77.6634	1461.15	981.35
790.1592	79.9231	2696.6	2210.8
790.3003	82.1824	5341.1	4837.25
790.4414	84.4412	10059.15	9527.9
790.5825	86.6995	16572	16006.4
790.7237	88.9574	22820.2	22221.9
790.8648	91.2148	27111.95	26495.15
791.006	93.4717	29061.7	28426.4
791.1472	95.7282	29410.55	28770.4
791.2885	97.9842	29177.65	28534.35
791.4297	100.2398	28510.4	27866.95
791.571	102.4949	27779.6	27129.6
791.7123	104.7495	26915.65	26264.85
791.8536	107.0036	26039.6	25387.95
791.9949	109.2573	25219.25	24572.85
792.1363	111.5105	24452.15	23799.55
792.2777	113.7632	23713.75	23055.4
792.4191	116.0154	23162.5	22498.5
792.5605	118.2672	22713.2	22057.05
792.7019	120.5185	22305.75	21643.05
792.8434	122.7693	21922.65	21255.9
792.9849	125.0197	21680.5	21013
793.1264	127.2696	21389.55	20717.9
793.2679	129.519	21209.1	20530
793.4094	131.7679	20974.1	20289.65
793.551	134.0163	20704.95	20022.8
793.6926	136.2642	20448.25	19760.55
793.8342	138.5117	20121.6	19425.9
793.9758	140.7587	19792.8	19105.95
794.1175	143.0052	19517.1	18826.9
794.2591	145.2512	19231.95	18539.55
794.4008	147.4967	18954.95	18259.95
794.5425	149.7417	18746.3	18053.35
794.6842	151.9863	18597.25	17895.45
794.826	154.2304	18499.3	17794.2
794.9677	156.4739	18368.65	17657.5
795.1095	158.717	18272.95	17563
795.2513	160.9596	18069.5	17356.1
795.3931	163.2017	17824.05	17107.2
795.535	165.4433	17551.6	16831.85
795.6768	167.6844	17198	16474.45
795.8187	169.925	16890.15	16167.8
795.9606	172.1651	16544.55	15817.75
796.1025	174.4047	16273.55	15544.95
796.2445	176.6439	16016.4	15287.55
796.3864	178.8825	15778.65	15050.9
796.5284	181.1206	15635.2	14897.25
796.6704	183.3582	15468.4	14725.6
796.8124	185.5954	15356.05	14614.85
796.9544	187.832	15289.25	14541
797.0965	190.0681	15279.7	14532.15
797.2386	192.3037	15283.85	14531.8
797.3806	194.5388	15280.65	14522.9
797.5228	196.7734	15314.7	14556.1
797.6649	199.0075	15376.15	14618.85
797.807	201.2411	15543.75	14782.85
797.9492	203.4742	15589.55	14827.1
798.0914	205.7068	15776	15011.35
798.2336	207.9389	15901.2	15133.45
798.3758	210.1704	16056.85	15298.75
798.518	212.4015	16137.3	15383.95
798.6603	214.632	16301.6	15556.4
798.8025	216.862	16495	15751.95
798.9448	219.0915	16616.65	15865.45
799.0871	221.3205	16750.15	15996.4
799.2294	223.549	16942.85	16194.6
799.3718	225.777	17176.3	16431.55
799.5141	228.0044	17358.25	16607.65
799.6565	230.2314	17708.45	16952.5
799.7989	232.4578	17947.35	17193.2
799.9413	234.6837	18186.75	17421.95
800.0837	236.909	18357.7	17590.4
800.2262	239.1339	18337.9	17546.55
800.3687	241.3582	18174.4	17396.3
800.5111	243.582	18007.35	17201.35
800.6536	245.8053	17808.6	17014.5
800.7961	248.0281	17655.95	16869.5
800.9387	250.2503	17526.6	16732.3
801.0812	252.472	17485.65	16687.95
801.2238	254.6932	17523.6	16729.3
801.3664	256.9139	17563.7	16774.3
801.509	259.134	17682.65	16882.35
801.6516	261.3536	17855.05	17054.3
801.7942	263.5727	18083.55	17285.7
801.9369	265.7912	18182.9	17383.15
802.0795	268.0092	18343.25	17545.55
802.2222	270.2267	18440.3	17643.4
802.3649	272.4436	18470.05	17669.85
802.5076	274.6601	18473.95	17662.15
802.6504	276.8759	18402.9	17598.4
802.7931	279.0913	18320.95	17518.2
802.9359	281.3061	18223.55	17414.3
803.0787	283.5204	18240.95	17427.75
803.2215	285.7341	18189.15	17374.3
803.3643	287.9473	18309.5	17482.45
803.5071	290.16	18409.3	17591.15
803.6499	292.3721	18639.6	17827
803.7928	294.5837	18950.6	18134.15
803.9357	296.7947	19207.05	18395.45
804.0786	299.0052	19431.4	18620.4
804.2215	301.2152	19367.45	18547.2
804.3644	303.4246	19093.75	18279.65
804.5074	305.6334	18666.95	17855.05
804.6503	307.8418	18227.4	17409.1
804.7933	310.0495	17781.3	16963.9
804.9363	312.2568	17412.25	16595.55
805.0793	314.4635	17098.6	16277.75
805.2223	316.6696	16886.3	16065.5
805.3653	318.8752	16779.25	15946.05
805.5084	321.0802	16737.15	15915.6
805.6514	323.2847	16801.15	15973.8
805.7945	325.4887	16849.75	16020.8
805.9376	327.692	16816.2	15987.15
806.0807	329.8949	16760.65	15929.7
806.2238	332.0972	16535.2	15704.05
806.367	334.2989	16306.55	15472.05
806.5101	336.5001	16045.75	15210.2
806.6533	338.7007	15813.8	14975.6
806.7965	340.9008	15696.85	14862.05
806.9397	343.1003	15541.8	14703.4
807.0829	345.2992	15489.15	14649.95
807.2261	347.4976	15434.4	14595.3
807.3693	349.6955	15340.35	14493.95
807.5126	351.8927	15417.1	14570.8
807.6559	354.0895	15357	14497.95
807.7991	356.2856	15364.25	14514.8
807.9424	358.4812	15366.5	14523.05
808.0857	360.6763	15394.6	14546
808.2291	362.8707	15369.7	14519.9
808.3724	365.0646	15368.7	14514.8
808.5158	367.258	15454.9	14601.85
808.6591	369.4508	15498.2	14641.85
808.8025	371.643	15637.35	14779.15
808.9459	373.8346	15641	14784.35
809.0893	376.0257	15688.85	14827.95
809.2327	378.2162	15675.05	14813.2
809.3762	380.4062	15613.3	14751.5
809.5196	382.5956	15434.7	14576
809.6631	384.7844	15364.05	14511.55
809.8066	386.9726	15257.35	14400.4
809.9501	389.1603	15182.35	14332.15
810.0936	391.3474	15158.65	14267.8
810.2371	393.5339	15133.4	14276.7
810.3806	395.7199	15087.6	14230.4
810.5241	397.9052	15144.45	14293.55
810.6677	400.09	15201.35	14346.75
810.8113	402.2743	15291.45	14438.4
810.9548	404.4579	15411.55	14560.35
811.0984	406.641	15612.9	14757.05
811.2421	408.8235	15787.95	14932.5
811.3857	411.0054	16053.4	15194.7
811.5293	413.1868	16358.05	15496.4
811.673	415.3675	16540.65	15672.05
811.8166	417.5477	16676.9	15809.4
811.9603	419.7273	16648.65	15780.2
812.104	421.9064	16592.25	15718.4
812.2477	424.0848	16456.3	15589.2
812.3914	426.2627	16281.8	15410.95
812.5351	428.4399	16038.6	15172.55
812.6788	430.6166	15710.9	14842.4
812.8226	432.7928	15349.45	14480.2
812.9663	434.9683	15021.5	14149.5
813.1101	437.1432	14806.3	13936.8
813.2539	439.3176	14649.1	13782.75
813.3977	441.4914	14526.4	13664.55
813.5415	443.6645	14506.05	13636.85
813.6853	445.8371	14443	13573.35
813.8291	448.0091	14397.9	13526.45
813.973	450.1806	14381.95	13514.1
814.1168	452.3514	14333.2	13464.65
814.2607	454.5216	14402.55	13522.35
814.4046	456.6913	14336.4	13463.7
814.5485	458.8603	14390.8	13519.75
814.6924	461.0288	14450.9	13587.8
814.8363	463.1967	14429.5	13562.75
814.9802	465.3639	14538.2	13668.05
815.1241	467.5306	14556.15	13685.7
815.2681	469.6967	14637.85	13768
815.412	471.8622	14724.65	13858.55
815.556	474.0271	14818.3	13950.4
815.7	476.1914	14889.65	14015.9
815.844	478.3551	14875.45	14001.15
815.988	480.5182	14892.05	14023.7
816.132	482.6807	14982.85	14118.85
816.276	484.8426	15117.55	14259.1
816.4201	487.0039	15416.65	14550.5
816.5641	489.1647	15809.75	14935.35
816.7082	491.3248	16207.6	15335.4
816.8522	493.4843	16358.55	15488.8
816.9963	495.6432	16311.55	15442.85
817.1404	497.8015	16213.15	15331.8
817.2845	499.9592	16192.15	15306.25
817.4286	502.1163	16049.65	15167.75
817.5727	504.2728	15797.25	14918.8
817.7168	506.4287	15491.2	14621.95
817.861	508.5839	15104.2	14236.8
818.0051	510.7386	14842.8	13968.35
818.1493	512.8927	14709.2	13822.6
818.2935	515.0461	14654.6	13775.15
818.4377	517.199	14679.15	13796.55
818.5818	519.3512	14763.75	13880.1
818.726	521.5029	14975.35	14088.15
818.8703	523.6539	15156.8	14271.85
819.0145	525.8043	15252.55	14366.85
819.1587	527.9541	15220.25	14329.9
819.303	530.1033	15101.95	14214.3
819.4472	532.2519	15030.15	14145.3
819.5915	534.3999	15054.95	14166.5
819.7357	536.5472	15223.15	14337.65
819.88	538.694	15543.9	14663.5
820.0243	540.8401	15991	15103.35
820.1686	542.9856	16346.2	15451.05
820.3129	545.1305	16416.95	15517.45
820.4572	547.2748	16354.5	15449.75
820.6016	549.4185	16074.2	15170.15
820.7459	551.5615	15842.05	14941.4
820.8902	553.704	15778.45	14881.5
821.0346	555.8458	15781.1	14888.4
821.1789	557.987	15897.6	15006.7
821.3233	560.1276	16035.1	15141.5
821.4677	562.2675	16265.35	15371.75
821.6121	564.4069	16579.2	15683
821.7565	566.5456	16824.05	15933.2
821.9009	568.6837	16886.15	15994.65
822.0453	570.8212	16571.05	15678.4
822.1897	572.958	16017	15125.35
822.3342	575.0942	15528.15	14636.25
822.4786	577.2299	15187.05	14303.2
822.6231	579.3648	15063.45	14187.5
822.7675	581.4992	15051	14178.45
822.912	583.6329	15183.6	14312.15
823.0565	585.766	15370.8	14496.4
823.201	587.8985	15556.7	14678.25
823.3454	590.0304	15587.85	14674.15
823.4899	592.1616	15538.35	14642.1
823.6345	594.2922	15413.1	14515.4
823.779	596.4222	15193.75	14295.9
823.9235	598.5515	14998.25	14095.55
824.068	600.6802	14848.15	13947.35
824.2126	602.8083	14698.35	13802.8
824.3571	604.9358	14684.15	13784.6
824.5017	607.0626	14663.2	13762.2
824.6462	609.1888	14717.5	13811.6
824.7908	611.3144	14760.1	13855.2
824.9354	613.4393	14809.75	13901.15
825.08	615.5636	14816.1	13910.6
825.2246	617.6873	14777.15	13875.4
825.3692	619.8103	14730	13824.3
825.5138	621.9327	14564.4	13661.05
825.6584	624.0544	14438.15	13541.25
825.803	626.1756	14340.15	13440.95
825.9477	628.2961	14233.75	13325.35
826.0923	630.4159	14179.3	13276.4
826.237	632.5351	14157.75	13250.75
826.3816	634.6537	14108.3	13200.65
826.5263	636.7716	14101.9	13188.3
826.6709	638.8889	14150.45	13239.75
826.8156	641.0056	14149.7	13240.05
826.9603	643.1216	14142.4	13228.85
827.105	645.237	14146.2	13233.65
827.2497	647.3518	14082.9	13181.65
827.3944	649.4659	14043.1	13144.95
827.5391	651.5793	14022.3	13124.1
827.6838	653.6922	13992.85	13092.3
827.8285	655.8043	14031.4	13126.7
827.9733	657.9159	14003.3	13099.15
828.118	660.0268	13958.25	13049.85
828.2627	662.137	13931.6	13024.5
828.4075	664.2466	13945	13031.85
828.5522	666.3556	13927.9	13017.8
828.697	668.4639	13875.65	12966.55
828.8418	670.5716	13866.65	12964.7
828.9865	672.6786	13901.85	12993
829.1313	674.785	13919.35	13001.55
829.2761	676.8907	13921.35	13008.35
829.4209	678.9958	13983.5	13077.65
829.5657	681.1002	13966	13055.25
829.7105	683.204	13946.6	13032.05
829.8553	685.3072	13920.4	13003.05
830.0001	687.4097	13878.55	12962
830.1449	689.5115	13853.5	12939
830.2898	691.6127	13851.35	12939
830.4346	693.7132	13790.25	12885.15
830.5794	695.8131	13792.7	12873.15
830.7243	697.9123	13804.75	12891.6
830.8691	700.0109	13805.25	12883.6
831.014	702.1089	13811.35	12897.3
831.1588	704.2061	13859.5	12944.65
831.3037	706.3028	13922.45	13004.65
831.4486	708.3987	13956	13037.65
831.5935	710.4941	14020.75	13107.25
831.7383	712.5887	14111.8	13199.7
831.8832	714.6827	14278	13355.5
832.0281	716.7761	14501.9	13588.7
832.173	718.8688	14815.55	13901.1
832.3179	720.9608	14959.6	14035.35
832.4628	723.0522	15077.3	14152.05
832.6077	725.1429	15012.95	14093.8
832.7527	727.233	14958.35	14040.6
832.8976	729.3224	14883.05	13961.4
833.0425	731.4112	14723.55	13805.35
833.1874	733.4993	14539.05	13618.4
833.3324	735.5867	14351.45	13432.3
833.4773	737.6735	14181.35	13261.2
833.6222	739.7596	14065.5	13146.2
833.7672	741.845	13952.2	13031.75
833.9122	743.9298	13881.1	12962.55
834.0571	746.014	13873.6	12953.1
834.2021	748.0974	13856.85	12930.5
834.347	750.1802	13853.35	12927.95
834.492	752.2624	13905.45	12982
834.637	754.3439	13948.05	13022.75
834.782	756.4247	14061.1	13129.5
834.9269	758.5048	14217.3	13293.95
835.0719	760.5843	14474.9	13549.55
835.2169	762.6631	14835.2	13911.55
835.3619	764.7413	15380.95	14459.7
835.5069	766.8188	16039.6	15116.15
835.6519	768.8956	16557.25	15628.2
835.7969	770.9718	16875.15	15950.55
835.9419	773.0473	16799.35	15873.55
836.0869	775.1221	16495.65	15570.85
836.232	777.1962	16197.2	15271.9
836.377	779.2697	16004.05	15081.4
836.522	781.3426	16063.15	15128.65
836.667	783.4147	16227.1	15300.25
836.8121	785.4862	16436.4	15511.15
836.9571	787.557	16332.6	15403.25
837.1021	789.6271	15928.75	14999.9
837.2472	791.6966	15352.9	14427.8
837.3922	793.7654	14761.15	13835.35
837.5373	795.8335	14401.75	13474.05
837.6823	797.901	14154.7	13225.25
837.8274	799.9678	14041.1	13114.25
837.9724	802.0339	13985.1	13055.6
838.1175	804.0993	13982.9	13045.55
838.2626	806.1641	13941.7	13012.6
838.4076	808.2282	13863.15	12935.95
838.5527	810.2916	13800.15	12872.15
838.6978	812.3544	13687.75	12765.15
838.8428	814.4164	13641.5	12717.05
838.9879	816.4778	13670.8	12735.65
839.133	818.5385	13682.25	12752.15
839.2781	820.5986	13827.15	12896.15
839.4232	822.658	14028.85	13100.7
839.5682	824.7166	14260.35	13329.85
839.7133	826.7747	14665.25	13739
839.8584	828.832	15049.05	14115.9
840.0035	830.8886	15328.05	14394.25
840.1486	832.9446	15495.1	14561.15
840.2937	834.9999	15430.4	14502.2
840.4388	837.0545	15265.45	14332.6
840.5839	839.1085	15067.1	14137.05
840.729	841.1618	14860.15	13924.5
840.8741	843.2143	14707.3	13774.7
841.0192	845.2662	14538.7	13609.65
841.1643	847.3175	14472.6	13538.15
841.3095	849.368	14334.85	13402.35
841.4546	851.4179	14223.3	13294.3
841.5997	853.467	14108.7	13176.3
841.7448	855.5155	14058	13125.95
841.8899	857.5633	13939.65	13008.15
842.0351	859.6105	13855.6	12920.7
842.1802	861.6569	13791.1	12855.95
842.3253	863.7027	13727.6	12793.95
842.4704	865.7478	13673.4	12735
842.6156	867.7922	13691.4	12758.85
842.7607	869.8359	13684.85	12752.05
842.9058	871.8789	13759.55	12826.15
843.0509	873.9212	13898.75	12932.6
843.1961	875.9629	13990.55	13054.3
843.3412	878.0039	14171.2	13236.2
843.4863	880.0441	14247.15	13318.85
843.6315	882.0837	14282.05	13351.6
843.7766	884.1226	14281.45	13346.75
843.9218	886.1609	14253.1	13318.4
844.0669	888.1984	14276.6	13344.6
844.212	890.2352	14374.9	13441.05
844.3572	892.2714	14349.95	13413.25
844.5023	894.3069	14300.2	13363.65
844.6475	896.3416	14209	13272.2
844.7926	898.3757	14111.25	13174.7
844.9377	900.4091	14054.3	13117.2
845.0829	902.4418	14060.85	13118.05
845.228	904.4739	14058.1	13121.4
845.3732	906.5052	14134.5	13195.9
845.5183	908.5358	14036.4	13098.8
845.6635	910.5658	13886.15	12948.2
845.8086	912.595	13688.8	12750.75
845.9538	914.6236	13480.4	12544.6
846.0989	916.6515	13435	12494.55
846.2441	918.6786	13373.2	12428.75
846.3892	920.7051	13433.05	12493.8
846.5344	922.7309	13474.95	12538.05
846.6795	924.756	13546.05	12607.75
846.8246	926.7804	13633.3	12698.2
846.9698	928.8041	13579.2	12640.1
847.1149	930.8272	13632.5	12693.75
847.2601	932.8495	13591.65	12652.85
847.4052	934.8711	13574.85	12633.95
847.5504	936.892	13479.25	12539.6
847.6955	938.9123	13405	12463.65
847.8407	940.9318	13365.7	12427.35
847.9858	942.9506	13293.3	12354.3
848.131	944.9688	13264.65	12327.9
848.2761	946.9862	13145.05	12209.6
848.4213	949.003	13041.65	12104.9
848.5664	951.019	12995.65	12054.65
848.7115	953.0344	12944.85	12008
848.8567	955.0491	12995.25	12057.15
849.0018	957.063	13028.2	12088.5
849.147	959.0763	13150.4	12213.85
849.2921	961.0888	13198.3	12258.9
849.4373	963.1007	13255.5	12318.35
849.5824	965.1119	13276.65	12349.6
849.7275	967.1223	13300.5	12374.8
849.8727	969.1321	13306.25	12382.2
850.0178	971.1412	13282.8	12352.7
850.1629	973.1495	13317.6	12386
850.3081	975.1572	13383.4	12394.85
850.4532	977.1641	13363.9	12428.6
850.5983	979.1704	13334.4	12397
850.7435	981.1759	13319.35	12377.7
850.8886	983.1808	13342.7	12400.7
851.0337	985.1849	13423.55	12474.25
851.1788	987.1884	13485.6	12545.05
851.324	989.1911	13627.75	12689.1
851.4691	991.1932	13731.25	12793
851.6142	993.1945	13773.2	12839.05
851.7593	995.1951	13707.65	12769.8
851.9045	997.1951	13700.95	12758.3
852.0496	999.1943	13627.7	12689.8
852.1947	1001.1928	13619.5	12680.2
852.3398	1003.1906	13628.7	12691.85
852.4849	1005.1877	13704.5	12767.2
852.63	1007.1841	13745.35	12809
852.7751	1009.1798	13740.55	12804.3
852.9202	1011.1748	13618.05	12680.65
853.0653	1013.1691	13448.9	12509.7
853.2104	1015.1627	13242.35	12305.9
853.3555	1017.1556	13011.7	12075.45
853.5006	1019.1477	12908	11972.55
853.6457	1021.1392	12789.5	11858.9
853.7908	1023.1299	12763.95	11839.45
853.9359	1025.12	12762.55	11837.15
854.081	1027.1093	12805.5	11892.95
854.2261	1029.0979	12921.6	12011.3
854.3712	1031.0859	13030.5	12113.35
854.5163	1033.0731	13044.4	12119.2
854.6613	1035.0596	12984.05	12057.45
854.8064	1037.0454	12844.4	11911.45
854.9515	1039.0304	12745.05	11811.65
855.0965	1041.0148	12598.35	11662.35
855.2416	1042.9985	12532	11594
855.3867	1044.9814	12472.2	11539.4
855.5317	1046.9636	12441.75	11508.65
855.6768	1048.9452	12426.8	11490.55
855.8219	1050.926	12429.35	11493
855.9669	1052.9061	12466.95	11533.65
856.112	1054.8855	12458.75	11522
856.257	1056.8642	12504.55	11566.55
856.4021	1058.8421	12566.15	11625.2
856.5471	1060.8194	12592.1	11655.5
856.6921	1062.7959	12644.2	11710.95
856.8372	1064.7717	12655.35	11719.15
856.9822	1066.7469	12725.85	11788.5
857.1272	1068.7213	12763.3	11824.4
857.2723	1070.695	12827.85	11896.35
857.4173	1072.6679	12825.05	11888.45
857.5623	1074.6402	12809.7	11873.9
857.7073	1076.6117	12766.15	11825.15
857.8523	1078.5826	12713.45	11779.3
857.9973	1080.5527	12634.5	11698
858.1423	1082.5221	12623.95	11685.85
858.2873	1084.4908	12708.05	11776.7
858.4323	1086.4587	12780.75	11846.5
858.5773	1088.426	12848.05	11909.85
858.7223	1090.3925	12857.45	11915
858.8673	1092.3584	12845.1	11910.05
859.0123	1094.3235	12800.05	11864.85
859.1573	1096.2879	12824.85	11887.75
859.3022	1098.2515	12887.5	11953.25
859.4472	1100.2145	12995.75	12062.4
859.5922	1102.1767	13154.85	12219.95
859.7371	1104.1382	13373.3	12439.1
859.8821	1106.099	13607.3	12670.25
860.027	1108.0591	13805.95	12875.2
860.172	1110.0185	13950.75	13013.2
860.3169	1111.9771	14003.95	13065.75
860.4619	1113.9351	13880.3	12943.6
860.6068	1115.8923	13698.85	12763.75
860.7517	1117.8488	13480.2	12543.25
860.8967	1119.8045	13200.6	12270.45
861.0416	1121.7596	13080.65	12144.75
861.1865	1123.7139	12991.45	12055.15
861.3314	1125.6675	12987.55	12054.5
861.4763	1127.6204	13053.95	12118.7
861.6212	1129.5726	13034.55	12097
861.7661	1131.524	12954.8	12020.65
861.911	1133.4748	12858.45	11925.55
862.0559	1135.4248	12734.5	11794.6
862.2008	1137.3741	12641.25	11707.5
862.3457	1139.3226	12545.1	11609.45
862.4905	1141.2705	12479.25	11542.2
862.6354	1143.2176	12393.15	11449.15
862.7803	1145.164	12364.2	11428.35
862.9251	1147.1097	12316.75	11380.15
863.07	1149.0546	12276.5	11338.8
863.2148	1150.9989	12194.05	11261.05
863.3597	1152.9424	12071.75	11136.1
863.5045	1154.8852	11973.75	11039.5
863.6493	1156.8272	11880.4	10945.7
863.7942	1158.7686	11897.7	10955.5
863.939	1160.7092	11881	10944.05
864.0838	1162.6491	11901.6	10963.05
864.2286	1164.5883	12009.15	11072.65
864.3734	1166.5267	12088.9	11153.3
864.5182	1168.4644	12258.2	11317.7
864.663	1170.4014	12433.75	11502.9
864.8078	1172.3377	12688.95	11756.5
864.9526	1174.2732	12990.7	12059.6
865.0974	1176.2081	13330.05	12396.9
865.2421	1178.1421	13716.4	12777.05
865.3869	1180.0755	14118.8	13182.7
865.5317	1182.0082	14374.6	13439.55
865.6764	1183.9401	14496.8	13566.65
865.8212	1185.8713	14352.9	13424.45
865.9659	1187.8017	14059.55	13134.65
866.1106	1189.7315	13736.8	12822.35
866.2554	1191.6605	13371.65	12459
866.4001	1193.5888	13166.3	12247.7
866.5448	1195.5163	13003.8	12076.95
866.6895	1197.4432	12919.55	11989.2
866.8342	1199.3693	12874.5	11940.65
866.9789	1201.2947	12849.7	11911.95
867.1236	1203.2193	12796.55	11865.65
867.2683	1205.1432	12819.7	11888.8
867.413	1207.0664	12783.9	11852.65
867.5576	1208.9889	12801.5	11868.65
867.7023	1210.9106	12821.95	11888.1
867.847	1212.8316	12811.7	11876.85
867.9916	1214.7519	12860.1	11914.8
868.1363	1216.6715	12863.65	11930.55
868.2809	1218.5903	12922.45	11990.75
868.4255	1220.5084	12951.7	12019.75
868.5701	1222.4257	13021.95	12089.35
868.7148	1224.3424	13028.6	12099.2
868.8594	1226.2583	13122.05	12186.5
869.004	1228.1735	13194.4	12264.4
869.1486	1230.0879	13322.55	12388.35
869.2932	1232.0016	13464.6	12531.15
869.4377	1233.9146	13563.5	12631.65
869.5823	1235.8269	13519.6	12587
869.7269	1237.7384	13442.55	12511.35
869.8715	1239.6492	13264.95	12332.5
870.016	1241.5592	13182.2	12248.45
870.1606	1243.4686	13198.25	12265.8
870.3051	1245.3772	13268.8	12338
870.4496	1247.285	13382.4	12449.65
870.5941	1249.1922	13489.05	12559.1
870.7387	1251.0986	13563.75	12635.1
870.8832	1253.0042	13564.75	12635.3
871.0277	1254.9092	13632.45	12702.8
871.1722	1256.8134	13718.85	12792.65
871.3167	1258.7169	13868.1	12939.3
871.4611	1260.6196	14048.5	13121.1
871.6056	1262.5216	14273.65	13343.9
871.7501	1264.4229	14448.9	13517.25
871.8945	1266.3234	14616.35	13685.8
872.039	1268.2232	14725.6	13795.25
872.1834	1270.1223	14774.7	13842.25
872.3278	1272.0207	14791.1	13859.7
872.4723	1273.9183	14760.8	13821.95
872.6167	1275.8151	14679.1	13747.85
872.7611	1277.7113	14636	13707.4
872.9055	1279.6067	14657.7	13727.95
873.0499	1281.5014	14757.9	13826
873.1943	1283.3953	14942.9	14011.8
873.3386	1285.2885	15251.5	14323.45
873.483	1287.181	15545.85	14619.45
873.6274	1289.0727	15861.4	14936
873.7717	1290.9637	16035.5	15109.35
873.9161	1292.854	16238.05	15307.9
874.0604	1294.7435	16294.6	15366.8
874.2047	1296.6323	16294.75	15363.9
874.349	1298.5204	16285.25	15349.3
874.4933	1300.4077	16244.6	15312.45
874.6376	1302.2943	16189.2	15260.35
874.7819	1304.1802	16041.6	15112.75
874.9262	1306.0653	15734.05	14802.8
875.0705	1307.9497	15358.7	14428.4
875.2147	1309.8333	15075.35	14147.2
875.359	1311.7162	14827.05	13899.55
875.5032	1313.5984	14743.75	13814.1
875.6475	1315.4798	14657.3	13718.7
875.7917	1317.3605	14638.6	13692.95
875.9359	1319.2405	14588	13657.5
876.0801	1321.1197	14421.85	13489.85
876.2243	1322.9982	14174.35	13239.85
876.3685	1324.876	13987.2	13058.4
876.5127	1326.753	13806.3	12877.55
876.6569	1328.6293	13695.7	12763.45
876.801	1330.5048	13605.35	12672.75
876.9452	1332.3796	13457.6	12526
877.0893	1334.2537	13398.3	12443.5
877.2335	1336.127	13307.8	12378.05
877.3776	1337.9996	13337.05	12409.4
877.5217	1339.8714	13328.55	12400.65
877.6658	1341.7426	13358.35	12383.7
877.8099	1343.6129	13333.55	12404
877.954	1345.4826	13278.75	12349.2
878.0981	1347.3515	13268.3	12334.6
878.2422	1349.2196	13232.65	12302.2
878.3862	1351.087	13293.75	12360.75
878.5303	1352.9537	13315.35	12384.5
878.6743	1354.8197	13469.15	12541.4
878.8184	1356.6849	13618.5	12687.25
878.9624	1358.5493	13716.7	12783.65
879.1064	1360.4131	13839.3	12911.45
879.2504	1362.276	13912.15	12983.7
879.3944	1364.1383	13852.35	12925.85
879.5384	1365.9998	13640.85	12704.15
879.6823	1367.8606	13301.5	12369.65
879.8263	1369.7206	12945.85	12014.05
879.9702	1371.5799	12650.5	11718.6
880.1142	1373.4384	12384.3	11455.35
880.2581	1375.2962	12204.05	11272.8
880.402	1377.1533	11848.75	10923.55
880.5459	1379.0096	11519.3	10593
880.6898	1380.8652	11217.3	10294.1
880.8337	1382.7201	10913.8	9988.75
880.9776	1384.5742	10700.1	9772.2
881.1215	1386.4275	10479.4	9547.5
881.2653	1388.2802	10337.5	9410
881.4092	1390.132	10216.05	9285.65
881.553	1391.9832	10146.45	9217.65
881.6968	1393.8336	10062.95	9133.95
881.8406	1395.6832	10021.9	9090.5
881.9844	1397.5322	9961.5	9030.9
882.1282	1399.3803	9943.15	9007.45
882.272	1401.2278	9909.6	8985.4
882.4158	1403.0745	9897.4	8970.45
882.5595	1404.9204	9890.9	8965.45
882.7033	1406.7656	9887.05	8960.55
882.847	1408.6101	9893.95	8961.65
882.9908	1410.4538	9942.9	9015.35
883.1345	1412.2968	9972	9041.5
883.2782	1414.139	10039.35	9107.5
883.4219	1415.9805	10099.55	9173.4
883.5656	1417.8213	10153.9	9221.95
883.7092	1419.6613	10242.1	9320.95
883.8529	1421.5006	10426.25	9499.25
883.9965	1423.3391	10629.6	9702.4
884.1402	1425.1769	10928.6	9998.75
884.2838	1427.0139	11385.3	10456.75
884.4274	1428.8502	11933.65	11007.35
884.571	1430.6858	12456.8	11529.85
884.7146	1432.5206	12855.15	11930.1
884.8582	1434.3547	13089.05	12160.3
885.0018	1436.188	13101.9	12176.9
885.1453	1438.0206	12991.2	12061.5
885.2889	1439.8524	12855.95	11926.95
885.4324	1441.6835	12754.15	11825.5
885.5759	1443.5139	12635.35	11706.3
885.7194	1445.3435	12554	11628.35
885.8629	1447.1724	12539.15	11616.25
886.0064	1449.0005	12464.1	11538.65
886.1499	1450.8279	12392.3	11467.75
886.2933	1452.6545	12343.1	11415.9
886.4368	1454.4804	12387.4	11464.2
886.5802	1456.3056	12383.7	11456.05
886.7237	1458.13	12293.05	11368.8
886.8671	1459.9536	12101.25	11176.25
887.0105	1461.7766	11827	10900.75
887.1539	1463.5987	11447.9	10522.6
887.2972	1465.4202	11085.5	10158.55
887.4406	1467.2409	10751.6	9828.85
887.584	1469.0608	10451.6	9528.6
887.7273	1470.88	10198.4	9273.1
887.8706	1472.6984	9972.4	9046.8
888.0139	1474.5161	9745	8815.85
888.1572	1476.3331	9586.6	8662.05
888.3005	1478.1493	9464.3	8541.4
888.4438	1479.9648	9366.2	8439.35
888.5871	1481.7795	9270.4	8342.6
888.7303	1483.5935	9204.95	8281.35
888.8736	1485.4067	9137.4	8215.4
889.0168	1487.2192	9124.85	8200.5
889.16	1489.031	9056	8131.75
889.3032	1490.842	9015.9	8094.95
889.4464	1492.6522	8984.3	8057.25
889.5896	1494.4618	8912.85	7988.05
889.7327	1496.2705	8905	7982.15
889.8759	1498.0785	8869.1	7942.2
890.019	1499.8858	8842.95	7915.8
890.1622	1501.6924	8757.25	7834.75
890.3053	1503.4981	8750.8	7826.95
890.4484	1505.3032	8716.4	7791.65
890.5914	1507.1075	8685.85	7760.3
890.7345	1508.911	8610.1	7688.75
890.8776	1510.7138	8586.65	7660.65
891.0206	1512.5159	8542.2	7616.1
891.1637	1514.3172	8480.65	7555.45
891.3067	1516.1178	8442.35	7522.6
891.4497	1517.9176	8405.8	7481.3
891.5927	1519.7166	8375.5	7455.45
891.7357	1521.515	8337.5	7408.15
891.8786	1523.3126	8296.55	7372.7
892.0216	1525.1094	8278.8	7354.6
892.1645	1526.9055	8228.45	7309.65
892.3074	1528.7008	8205.85	7283.35
892.4503	1530.4954	8142.05	7222
892.5932	1532.2893	8151.7	7234.9
892.7361	1534.0824	8127.55	7203.5
892.879	1535.8747	8126.4	7208.3
893.0218	1537.6663	8123.05	7205.85
893.1647	1539.4572	8089.15	7171.15
893.3075	1541.2473	8085.45	7165.8
893.4503	1543.0367	8089.05	7170.55
893.5931	1544.8253	8091.45	7168.2
893.7359	1546.6132	8124.9	7203.45
893.8787	1548.4003	8099.8	7169.75
894.0214	1550.1867	8146.3	7216.85
894.1642	1551.9723	8175.6	7254.9
894.3069	1553.7572	8269.05	7350.35
894.4496	1555.5414	8342.05	7425.3
894.5923	1557.3247	8437.35	7520.45
894.735	1559.1074	8542.95	7628.95
894.8777	1560.8893	8678.8	7765.4
895.0204	1562.6705	8812.5	7899.35
895.163	1564.4509	8907.2	7991.35
895.3056	1566.2305	8942.5	8033.15
895.4482	1568.0094	8987	8077
895.5908	1569.7876	9006	8095.2
895.7334	1571.565	8984.7	8074.65
895.876	1573.3417	8981.1	8070.8
896.0186	1575.1176	8953.35	8040.8
896.1611	1576.8928	8927.9	8017.6
896.3036	1578.6672	8914.65	8010
896.4461	1580.4409	8863.75	7960.85
896.5886	1582.2138	8820.15	7910.9
896.7311	1583.986	8808	7899.05
896.8736	1585.7575	8836.85	7927.5
897.0161	1587.5282	8830.95	7925.5
897.1585	1589.2981	8853.15	7948.65
897.3009	1591.0673	8895.05	7989.2
897.4433	1592.8358	8983.65	8078.4
897.5857	1594.6035	9071.6	8161.15
897.7281	1596.3704	9133.4	8223.35
897.8705	1598.1366	9170.7	8259.1
898.0128	1599.9021	9272.55	8365.4
898.1551	1601.6668	9347.35	8440.3
898.2975	1603.4308	9477.9	8570.8
898.4398	1605.194	9619.65	8707.3
898.5821	1606.9564	9762.7	8861.3
898.7243	1608.7182	9978.15	9076.55
898.8666	1610.4791	10209.5	9314.9
899.0088	1612.2394	10446.9	9550.7
899.1511	1613.9988	10722.15	9824.2
899.2933	1615.7576	10957.35	10055.5
899.4355	1617.5156	11165.85	10250.95
899.5776	1619.2728	11272.7	10363.65
899.7198	1621.0293	11272	10366
899.862	1622.785	11169.75	10261.15
900.0041	1624.54	10955.05	10051.75
900.1462	1626.2942	10683.6	9784.5
900.2883	1628.0477	10343.15	9442.8
900.4304	1629.8005	10023.75	9119.35
900.5725	1631.5525	9759.3	8858.1
900.7145	1633.3037	9538.85	8637.25
900.8566	1635.0542	9369.25	8468.15
900.9986	1636.804	9219.45	8317.35
901.1406	1638.553	9209.95	8217.45
901.2826	1640.3013	9083.5	8179.25
901.4245	1642.0488	9045.8	8145.35
901.5665	1643.7955	9084.95	8186.05
901.7085	1645.5416	9136.3	8237.25
901.8504	1647.2868	9238.55	8339.15
901.9923	1649.0313	9354.2	8451.55
902.1342	1650.7751	9493.3	8588.25
902.2761	1652.5181	9669.2	8770.25
902.4179	1654.2604	9836.75	8937.35
902.5598	1656.0019	10059.1	9160.7
902.7016	1657.7427	10322.6	9420.4
902.8434	1659.4828	10629.8	9728.05
902.9852	1661.222	10752.8	9849.35
903.127	1662.9606	10708	9806.05
903.2687	1664.6984	10488.15	9583.85
903.4105	1666.4354	10083.25	9177.55
903.5522	1668.1717	9531.45	8626.95
903.6939	1669.9072	8972.25	8067.95
903.8356	1671.642	8485.8	7576.15
903.9773	1673.3761	8113.2	7208.65
904.119	1675.1094	7775.8	6875.05
904.2606	1676.8419	7518.45	6619.1
904.4022	1678.5737	7342.8	6439.95
904.5439	1680.3048	7175.45	6271.35
904.6855	1682.0351	7068	6163.4
904.827	1683.7646	6921.3	6015.55
904.9686	1685.4934	6842.5	5942.2
905.1101	1687.2215	6777.65	5873.6
905.2517	1688.9488	6692.1	5790.55
905.3932	1690.6754	6627.5	5726.95
905.5347	1692.4012	6598.7	5697.05
905.6761	1694.1263	6546.7	5644.05
905.8176	1695.8506	6503.75	5600.9
905.9591	1697.5742	6448.55	5548.45
906.1005	1699.297	6405.05	5507.6
906.2419	1701.0191	6359.3	5462.8
906.3833	1702.7404	6332.15	5435.2
906.5246	1704.461	6302.55	5404.4
906.666	1706.1808	6248.35	5348.5
906.8073	1707.8999	6228.05	5329.5
906.9487	1709.6182	6195.5	5300.9
907.09	1711.3358	6158.2	5264.3
907.2313	1713.0527	6127.2	5234.8
907.3725	1714.7688	6110.9	5208.2
907.5138	1716.4841	6087.15	5186.15
907.655	1718.1987	6057.75	5154.9
907.7962	1719.9126	6033.5	5138.7
907.9374	1721.6257	6002.45	5106.65
908.0786	1723.338	6002.2	5108.05
908.2198	1725.0496	5967	5073
908.3609	1726.7605	5955.7	5058.15
908.502	1728.4706	5923.5	5027.9
908.6431	1730.18	5898.25	5003.35
908.7842	1731.8886	5888.55	4995
908.9253	1733.5964	5889.3	4973.65
909.0664	1735.3036	5869.35	4973.1
909.2074	1737.0099	5835.65	4942.1
909.3484	1738.7156	5807.75	4917.45
909.4894	1740.4204	5777.15	4880.35
909.6304	1742.1246	5757.8	4862.5
909.7714	1743.8279	5735.05	4841.1
909.9123	1745.5306	5710.1	4815.9
910.0532	1747.2325	5682.45	4789.2
910.1941	1748.9336	5671.05	4778.15
910.335	1750.634	5648.95	4751.2
910.4759	1752.3336	5639.2	4747.05
910.6168	1754.0325	5604.15	4711.4
910.7576	1755.7307	5583.6	4689.4
910.8984	1757.4281	5590.85	4696.4
911.0392	1759.1247	5587.4	4683.55
911.18	1760.8206	5564.05	4663.9
911.3208	1762.5158	5585.1	4685.3
911.4615	1764.2102	5547.45	4651.9
911.6022	1765.9039	5514.35	4618.3
911.7429	1767.5968	5495.2	4604.95
911.8836	1769.289	5490.65	4598.4
912.0243	1770.9804	5469.8	4574.05
912.1649	1772.6711	5462.7	4567.2
912.3056	1774.361	5447.85	4548.7
912.4462	1776.0502	5435.15	4538.5
912.5868	1777.7386	5435.85	4537.9
912.7274	1779.4263	5412	4516.35
912.8679	1781.1132	5404.25	4511.6
913.0084	1782.7994	5363.9	4474.05
913.149	1784.4849	5363.8	4472.3
913.2895	1786.1696	5361.25	4462.8
913.4299	1787.8535	5364.65	4475.1
913.5704	1789.5367	5334.4	4444.95
913.7108	1791.2192	5317.8	4426.9
913.8513	1792.9009	5315.95	4398.45
913.9917	1794.5818	5295.45	4401.7
914.132	1796.2621	5280.05	4386.8
914.2724	1797.9415	5265	4370.25
914.4128	1799.6202	5265.35	4370.6
914.5531	1801.2982	5240.55	4344.45
914.6934	1802.9755	5251.7	4355.1
914.8337	1804.6519	5226.15	4330.05
914.9739	1806.3277	5192.75	4299.85
915.1142	1808.0027	5180.85	4289.45
915.2544	1809.6769	5192.1	4301.9
915.3946	1811.3504	5164.65	4275.25
915.5348	1813.0231	5132.4	4241.2
915.675	1814.6951	5146.65	4256.2
915.8151	1816.3664	5148.8	4252.45
915.9553	1818.0369	5142.9	4250.4
916.0954	1819.7067	5145.35	4252.55
916.2355	1821.3757	5125.9	4232.05
916.3755	1823.044	5105.7	4211.05
916.5156	1824.7115	5108.25	4214.3
916.6556	1826.3783	5057.15	4163.65
916.7956	1828.0443	5069.45	4178.75
916.9356	1829.7096	5059.85	4164.2
917.0756	1831.3741	5048.45	4152.45
917.2155	1833.0379	5040.7	4150.65
917.3555	1834.701	5019.15	4125.8
917.4954	1836.3633	5013.1	4123.15
917.6353	1838.0248	4999.35	4108.95
917.7751	1839.6856	4983.55	4090.55
917.915	1841.3457	4986	4092.8
918.0548	1843.005	4989.95	4096.8
918.1946	1844.6636	4987.35	4092.55
918.3344	1846.3214	4966.8	4072.3
918.4742	1847.9785	4957.95	4065
918.6139	1849.6349	4944.5	4047.6
918.7537	1851.2904	4950.6	4047.4
918.8934	1852.9453	4945.35	4052.4
919.0331	1854.5994	4912.05	4016.2
919.1727	1856.2528	4919.15	4019.8
919.3124	1857.9054	4906.2	4011.85
919.452	1859.5572	4899.75	4007.85
919.5916	1861.2083	4886.1	3994.6
919.7312	1862.8587	4883.4	3991.65
919.8708	1864.5084	4878.05	3980.75
920.0103	1866.1572	4852.35	3959.6
920.1498	1867.8054	4841.05	3941.9
920.2893	1869.4528	4839.55	3944.55
920.4288	1871.0994	4818.9	3924.95
920.5683	1872.7453	4821.55	3926.5
920.7077	1874.3905	4824.45	3925.65
920.8471	1876.0349	4801.95	3908.05
920.9865	1877.6786	4791.1	3895.8
921.1259	1879.3215	4780.75	3887.1
921.2653	1880.9637	4780.25	3885
921.4046	1882.6051	4786.25	3893.7
921.5439	1884.2458	4759.7	3865.85
921.6832	1885.8858	4720.65	3828.65
921.8225	1887.525	4727.9	3832.7
921.9617	1889.1634	4713.65	3819
922.101	1890.8011	4705.85	3810.75
922.2402	1892.4381	4680.2	3784.95
922.3794	1894.0743	4673.8	3778.75
922.5185	1895.7098	4669.3	3777
922.6577	1897.3446	4645.05	3751.85
922.7968	1898.9786	4652.25	3754.3
922.9359	1900.6118	4633.65	3740.95
923.075	1902.2443	4616.15	3724.4
923.214	1903.8761	4598.15	3704.1
923.3531	1905.5071	4584.3	3690.8
923.4921	1907.1374	4576.05	3680.75
923.6311	1908.7669	4582.6	3692.8
923.77	1910.3957	4562.2	3671.5
923.909	1912.0237	4549.55	3657.75
924.0479	1913.651	4537.05	3642.8
924.1868	1915.2776	4527.15	3637.6
924.3257	1916.9034	4519.75	3629.6
924.4646	1918.5285	4506	3615.8
924.6034	1920.1528	4482.7	3589.95
924.7422	1921.7764	4485.5	3590.55
924.881	1923.3992	4463.65	3570.8
925.0198	1925.0213	4444	3552.85
925.1586	1926.6427	4435.3	3544.1
925.2973	1928.2633	4592.35	3497.4
925.436	1929.8832	4444.5	3546.4
925.5747	1931.5023	4409.35	3517.5
925.7134	1933.1207	4401.15	3508.3
925.852	1934.7383	4381.7	3486.8
925.9906	1936.3552	4369.8	3477.55
926.1292	1937.9714	4355.4	3463.15
926.2678	1939.5868	4357.55	3464.1
926.4064	1941.2015	4330.65	3435.85
926.5449	1942.8154	4311.45	3419.05
926.6834	1944.4286	4310.9	3418.95
926.8219	1946.041	4303.15	3391.5
926.9604	1947.6528	4275.15	3377
927.0988	1949.2637	4261.45	3370.15
927.2372	1950.8739	4236.7	3345.45
927.3756	1952.4834	4253.65	3362.15
927.514	1954.0921	4239.75	3348.1
927.6523	1955.7001	4241.3	3345.5
927.7907	1957.3074	4207.3	3319.9
927.929	1958.9139	4188.55	3303.75
928.0673	1960.5197	4192.25	3298.6
928.2055	1962.1247	4182.3	3291
928.3438	1963.729	4142.85	3254.15
928.482	1965.3325	4149.25	3255.5
928.6202	1966.9353	4120.95	3233.1
928.7584	1968.5374	4122.15	3232.75
928.8965	1970.1387	4116.95	3226.65
929.0346	1971.7393	4103.5	3213.15
929.1727	1973.3392	4088.65	3199.85
929.3108	1974.9383	4085.15	3199.15
929.4489	1976.5366	4062.1	3174.9
929.5869	1978.1342	4048.95	3163.25
929.7249	1979.7311	4052.15	3162.3
929.8629	1981.3273	4032.6	3146.85
930.0009	1982.9227	4005.85	3117.55
930.1388	1984.5173	4003.25	3117.75
930.2767	1986.1112	3986.7	3101.4
930.4146	1987.7044	3971	3087.6
930.5525	1989.2968	3982.35	3095.2
930.6904	1990.8885	3982.45	3094.9
930.8282	1992.4795	3956.4	3072.6
930.966	1994.0697	3947.8	3062.35
931.1038	1995.6592	3948.3	3062.25
931.2415	1997.2479	3938.1	3052.7
931.3793	1998.8359	3915.5	3029.75
931.517	2000.4232	3903.05	3021.4
931.6547	2002.0097	3893.5	3012.6
931.7923	2003.5955	3874.25	2992.6
931.93	2005.1805	3873.65	2988.95
932.0676	2006.7648	3874.9	2991.95
932.2052	2008.3484	3859.75	2976.4
932.3427	2009.9312	3883.1	3001.15
932.4803	2011.5133	3847.7	2969.25
932.6178	2013.0946	3847.95	2967.85
932.7553	2014.6752	3823.95	2943.1
932.8928	2016.2551	3839.65	2953.8
933.0302	2017.8342	3814.8	2929.9
933.1676	2019.4126	3783.7	2901.35
933.305	2020.9902	3785.7	2904.8
933.4424	2022.5672	3789	2906.75
933.5798	2024.1433	3773.1	2890.35
933.7171	2025.7188	3762.05	2885.65
933.8544	2027.2935	3752.6	2870.5
933.9917	2028.8674	3745.35	2865.25
934.129	2030.4406	3726.7	2847.2
934.2662	2032.0131	3721.3	2841.45
934.4034	2033.5849	3722.3	2841.45
934.5406	2035.1559	3701.35	2822.2
934.6778	2036.7261	3692.9	2809.85
934.8149	2038.2957	3706.2	2820.7
934.952	2039.8645	3696.9	2811.75
935.0891	2041.4325	3681.4	2796.25
935.2262	2042.9998	3674.7	2791.45
935.3632	2044.5664	3669.85	2787.5
935.5002	2046.1323	3665.95	2785.75
935.6372	2047.6974	3645.95	2765.9
935.7742	2049.2617	3657.7	2779.25
935.9111	2050.8254	3666.5	2763
936.048	2052.3883	3667.75	2784.25
936.1849	2053.9504	3648.7	2763.65
936.3218	2055.5118	3660.85	2776.4
936.4586	2057.0725	3634.8	2750.2
936.5955	2058.6325	3625.95	2744
936.7323	2060.1917	3618.55	2736.5
936.869	2061.7502	3620.5	2733.95
937.0058	2063.3079	3583.9	2705.95
937.1425	2064.8649	3575.1	2690.1
937.2792	2066.4212	3558.7	2674.9
937.4159	2067.9767	3555.45	2672.65
937.5525	2069.5315	3559.6	2675.65
937.6891	2071.0856	3532.55	2649.95
937.8257	2072.6389	3525	2644.25
937.9623	2074.1915	3502.8	2623.4
938.0989	2075.7433	3500.8	2617.95
938.2354	2077.2945	3487.55	2606.35
938.3719	2078.8448	3481.65	2596.2
938.5084	2080.3945	3484.55	2598.85
938.6448	2081.9434	3480.7	2594.1
938.7812	2083.4916	3478.45	2592.55
938.9176	2085.039	3470	2579.1
939.054	2086.5857	3464.15	2573.05
939.1903	2088.1317	3456.75	2568.55
939.3267	2089.677	3463.2	2573.6
939.463	2091.2215	3442.05	2553.1
939.5992	2092.7652	3440.4	2550.05
939.7355	2094.3083	3427.35	2537.6
939.8717	2095.8506	3418.8	2533.1
940.0079	2097.3921	3417.05	2532
940.1441	2098.933	3397	2508.25
940.2802	2100.4731	3377.7	2491.4
940.4163	2102.0124	3401.9	2507.05
940.5524	2103.5511	3376.85	2489.55
940.6885	2105.089	3375.75	2488.65
940.8245	2106.6261	3363.85	2477.8
940.9606	2108.1626	3360.55	2473.65
941.0965	2109.6983	3373.85	2456.1
941.2325	2111.2332	3355.55	2468.65
941.3684	2112.7675	3342.5	2454.35
941.5044	2114.301	3326.3	2437.15
941.6403	2115.8337	3336.9	2449.95
941.7761	2117.3657	3327.6	2440.25
941.912	2118.897	3305.75	2415
942.0478	2120.4276	3304.65	2408.6
942.1835	2121.9575	3297.05	2407.8
942.3193	2123.4866	3297.65	2405.75
942.455	2125.0149	3287.85	2399.65
942.5907	2126.5426	3275.8	2392.25
942.7264	2128.0695	3262.35	2373.55
942.8621	2129.5956	3263.8	2383.2
942.9977	2131.1211	3268.9	2381.35
943.1333	2132.6458	3251.1	2365.1
943.2689	2134.1698	3249.05	2359.7
943.4044	2135.693	3245.2	2351.75
943.54	2137.2155	3239.7	2347.8
943.6755	2138.7373	3224.5	2337.5
943.8109	2140.2584	3225.1	2340.25
943.9464	2141.7787	3222.15	2336.25
944.0818	2143.2983	3196.75	2316.05
944.2172	2144.8171	3179.35	2298.3
944.3526	2146.3353	3202.9	2317.35
944.4879	2147.8527	3170.25	2285.65
944.6232	2149.3693	3191.95	2303.85
944.7585	2150.8853	3187.15	2297.8
944.8938	2152.4005	3147.55	2258.2
945.029	2153.9149	3158.05	2268.35
945.1642	2155.4287	3141.9	2253.4
945.2994	2156.9417	3136.2	2247.55
945.4346	2158.454	3135.7	2248.15
945.5697	2159.9655	3121.65	2235.45
945.7048	2161.4764	3118.85	2234.8
945.8399	2162.9865	3112.45	2226.9
945.9749	2164.4958	3105.45	2219.4
946.1099	2166.0045	3106.45	2219.6
946.2449	2167.5124	3100.5	2213.45
946.3799	2169.0195	3101.8	2216.9
946.5148	2170.526	3103.35	2215
946.6498	2172.0317	3085.25	2197.5
946.7846	2173.5367	3075.55	2188
946.9195	2175.0409	3053.75	2167.6
947.0543	2176.5445	3072.35	2186.15
947.1891	2178.0473	3065.15	2173.55
947.3239	2179.5494	3052.35	2158.7
947.4587	2181.0507	3048.8	2161.5
947.5934	2182.5513	3027.1	2140.5
947.7281	2184.0512	3031.7	2142.95
947.8628	2185.5504	3031.4	2145.5
947.9974	2187.0488	3007.85	2124
948.132	2188.5465	3010.55	2126.85
948.2666	2190.0435	2996.95	2110.45
948.4012	2191.5397	3008.6	2122.3
948.5357	2193.0353	2987.75	2097.05
948.6702	2194.5301	2994	2101.85
948.8047	2196.0241	2982.95	2091.1
948.9392	2197.5175	2971.05	2079.95
949.0736	2199.0101	2968.65	2075.8
949.208	2200.502	2957.65	2068.9
949.3424	2201.9931	2948.85	2065.1
949.4767	2203.4835	2926.95	2041.6
949.611	2204.9733	2925.15	2034.55
949.7453	2206.4622	2924.65	2040.55
949.8796	2207.9505	2919.35	2033.15
950.0138	2209.438	2914	2032.05
950.148	2210.9248	2905	2018.2
950.2822	2212.4109	2899.95	2012.75
950.4164	2213.8962	2901.45	2009.75
950.5505	2215.3809	2893.55	2000.75
950.6846	2216.8648	2882.55	1990.75
950.8186	2218.3479	2874.45	1975.95
950.9527	2219.8304	2874.45	1980.4
951.0867	2221.3121	2869	1973
951.2207	2222.7931	2861.8	1971.9
951.3546	2224.2733	2842	1950.7
951.4886	2225.7529	2839.2	1949.7
951.6225	2227.2317	2829.3	1940.8
951.7563	2228.7098	2828	1943.15
951.8902	2230.1872	2804.7	1919.25
952.024	2231.6638	2816.35	1931.45
952.1578	2233.1397	2817.55	1930.95
952.2916	2234.6149	2805.1	1921.25
952.4253	2236.0894	2789.55	1904.15
952.559	2237.5632	2793.1	1894.55
952.6927	2239.0362	2781.05	1895.3
952.8263	2240.5085	2775.85	1890.1
952.9599	2241.9801	2766.5	1878.2
953.0935	2243.4509	2776.25	1886.7
953.2271	2244.921	2763	1872.05
953.3606	2246.3904	2754.9	1863.1
953.4941	2247.8591	2729.2	1840.05
953.6276	2249.3271	2731.7	1844.15
953.7611	2250.7943	2734.5	1846.6
953.8945	2252.2608	2728.2	1837.5
954.0279	2253.7266	2718.6	1829.4
954.1612	2255.1917	2711.5	1820.1
954.2946	2256.656	2713.65	1825.7
954.4279	2258.1197	2699.05	1815
954.5612	2259.5826	2692.3	1803.65
954.6944	2261.0447	2682.35	1795.45
954.8276	2262.5062	2683.35	1793.45
954.9608	2263.9669	2679.3	1787.6
955.094	2265.4269	2678.1	1790.5
955.2271	2266.8862	2673.7	1786.5
955.3602	2268.3448	2659.85	1772.95
955.4933	2269.8026	2658.2	1773.15
955.6264	2271.2598	2667.25	1782.1
955.7594	2272.7162	2650.1	1762.2
955.8924	2274.1719	2650.15	1762.7
956.0253	2275.6268	2647.5	1756.6
956.1583	2277.0811	2643.25	1754.3
956.2912	2278.5346	2639.55	1751.25
956.4241	2279.9874	2637.35	1751.95
956.5569	2281.4395	2622.35	1736.85
956.6897	2282.8908	2617.45	1726.5
956.8225	2284.3414	2625.9	1734.15
956.9553	2285.7914	2607.9	1721.2
957.088	2287.2406	2608.15	1720.6
957.2207	2288.689	2602.1	1709.75
957.3534	2290.1368	2605.6	1711.45
957.486	2291.5838	2610.05	1715.4
957.6186	2293.0302	2591.4	1696.35
957.7512	2294.4758	2586.25	1696.35
957.8838	2295.9206	2573.95	1682.65
958.0163	2297.3648	2568.35	1680.8
958.1488	2298.8082	2566.65	1676.25
958.2813	2300.251	2567.4	1676.15
958.4137	2301.693	2562.95	1667.6
958.5461	2303.1343	2556.25	1668
958.6785	2304.5748	2553.3	1664.65
958.8108	2306.0147	2534.55	1648.15
958.9432	2307.4538	2537.55	1648.9
959.0754	2308.8922	2523.45	1639.3
959.2077	2310.3299	2519.85	1636.5
959.3399	2311.7669	2533.45	1645.8
959.4721	2313.2031	2519.1	1633.05
959.6043	2314.6387	2518.75	1627.75
959.7365	2316.0735	2506.6	1617.95
959.8686	2317.5076	2508.7	1618.1
960.0006	2318.941	2486.1	1595.2
960.1327	2320.3737	2481.6	1589.45
960.2647	2321.8056	2490.8	1600.85
960.3967	2323.2369	2487.8	1597.6
960.5287	2324.6674	2482.9	1592.2
960.6606	2326.0972	2476.75	1586.5
960.7925	2327.5263	2474.75	1585.6
960.9244	2328.9547	2471.45	1580.05
961.0562	2330.3823	2461.05	1567.85
961.1881	2331.8092	2469.05	1574.3
961.3198	2333.2355	2460.5	1569
961.4516	2334.661	2450.7	1561.8
961.5833	2336.0858	2450.65	1556.4
961.715	2337.5098	2440.8	1548.95
961.8467	2338.9332	2440.5	1550.6
961.9783	2340.3558	2427.25	1535.95
962.1099	2341.7778	2424.35	1537.5
962.2415	2343.199	2421	1531.4
962.373	2344.6195	2420.5	1534
962.5045	2346.0393	2411.55	1523.8
962.636	2347.4583	2414.95	1523.65
962.7675	2348.8767	2413.5	1523.05
962.8989	2350.2943	2406.1	1513.7
963.0303	2351.7113	2409.3	1515.2
963.1617	2353.1275	2409.5	1515.9
963.293	2354.543	2399.8	1500.05
963.4243	2355.9578	2397.2	1506.8
963.5556	2357.3718	2378	1490.9
963.6868	2358.7852	2385.55	1495.75
963.818	2360.1978	2371.05	1482.85
963.9492	2361.6098	2373.7	1485
964.0803	2363.021	2374	1481.55
964.2114	2364.4315	2357.1	1469.65
964.3425	2365.8413	2354.55	1465.15
964.4736	2367.2504	2343.55	1458.3
964.6046	2368.6587	2340.6	1454.5
964.7356	2370.0664	2331.65	1444.05
964.8666	2371.4733	2348.05	1460.9
964.9975	2372.8795	2330.5	1444.65
965.1284	2374.285	2323.5	1436.1
965.2593	2375.6899	2316.6	1429.55
965.3901	2377.0939	2305.9	1419.15
965.5209	2378.4973	2310.2	1423.7
965.6517	2379.9	2313.85	1426.25
965.7825	2381.3019	2299.9	1413.3
965.9132	2382.7032	2297	1408.3
966.0439	2384.1037	2288.25	1404.2
966.1745	2385.5035	2283.75	1399.85
966.3051	2386.9027	2277.3	1393.35
966.4357	2388.3011	2280.4	1392
966.5663	2389.6987	2260.55	1376.05
966.6968	2391.0957	2267.65	1382.35
966.8273	2392.492	2261.2	1377.75
966.9578	2393.8876	2249.75	1364.5
967.0882	2395.2824	2249.7	1365.6
967.2186	2396.6765	2237.95	1352.05
967.349	2398.07	2245.9	1357.95
967.4793	2399.4627	2233	1345.35
967.6097	2400.8547	2233.65	1345.45
967.7399	2402.246	2229.6	1336.05
967.8702	2403.6366	2208.3	1322.75
968.0004	2405.0265	2216.4	1330.8
968.1306	2406.4156	2214.9	1327.6
968.2607	2407.8041	2217.45	1328.2
968.3909	2409.1918	2199.55	1309.3
968.521	2410.5789	2207.85	1321.3
968.651	2411.9652	2204.15	1312.4
968.781	2413.3508	2195.9	1307.35
968.911	2414.7358	2191.55	1304.15
969.041	2416.12	2166.5	1280.1
969.1709	2417.5035	2172.5	1283.85
969.3008	2418.8863	2181.9	1292.8
969.4307	2420.2684	2167.75	1281.35
969.5606	2421.6497	2163.05	1276.8
969.6904	2423.0304	2154.35	1267.75
969.8201	2424.4104	2166.15	1279.4
969.9499	2425.7896	2153	1263.85
970.0796	2427.1682	2154.5	1268.65
970.2093	2428.546	2147.9	1261.2
970.3389	2429.9232	2148.55	1257.45
970.4685	2431.2996	2137.4	1251.35
970.5981	2432.6753	2139.95	1252.4
970.7277	2434.0503	2136.55	1248.65
970.8572	2435.4246	2130.8	1245.45
970.9867	2436.7982	2123.75	1235.2
971.1161	2438.1711	2123.7	1238.8
971.2456	2439.5433	2118	1226.6
971.375	2440.9148	2112.05	1218.2
971.5043	2442.2856	2103.95	1214.65
971.6336	2443.6557	2109.4	1221.2
971.7629	2445.025	2096.45	1209.8
971.8922	2446.3937	2086.15	1198.8
972.0214	2447.7617	2088.9	1201.7
972.1506	2449.1289	2089.3	1202.15
972.2798	2450.4955	2087.05	1196.8
972.4089	2451.8613	2072.95	1187.6
972.538	2453.2265	2082.8	1194.95
972.6671	2454.5909	2076.35	1185.7
972.7961	2455.9546	2071.4	1184.4
972.9251	2457.3177	2065	1177.5
973.0541	2458.68	2064.4	1174.15
973.1831	2460.0416	2059.05	1171.6
973.312	2461.4025	2060.3	1170.6
973.4408	2462.7627	2064.75	1167.5
973.5697	2464.1222	2058.7	1174
973.6985	2465.4811	2044.25	1158.15
973.8273	2466.8392	2041.65	1155
973.956	2468.1966	2043.45	1155.15
974.0847	2469.5533	2043.5	1154.95
974.2134	2470.9093	2045.75	1158.35
974.3421	2472.2645	2046.65	1159.5
974.4707	2473.6191	2038.8	1151.7
974.5993	2474.973	2032	1143.95
974.7278	2476.3262	2034.55	1144.9
974.8563	2477.6787	2029.4	1141.55
974.9848	2479.0305	2015.15	1128.6
975.1132	2480.3816	2022.4	1133
975.2417	2481.7319	2007.3	1118.45
975.37	2483.0816	2012.85	1125.1
975.4984	2484.4306	2004.15	1116.5
975.6267	2485.7789	2006.05	1121.8
975.755	2487.1264	1999.5	1111.6
975.8833	2488.4733	1997.85	1111.8
976.0115	2489.8195	1994.65	1100.15
976.1397	2491.165	1988.7	1097.25
976.2678	2492.5097	1983	1096.5
976.3959	2493.8538	1975.7	1090.3
976.524	2495.1972	1967.45	1079.7
976.6521	2496.5398	1966.45	1079.35
976.7801	2497.8818	1967.3	1075.25
976.9081	2499.2231	1959.95	1072.2
977.036	2500.5637	1957.15	1065.35
977.164	2501.9035	1953.5	1064.25
977.2918	2503.2427	1954.05	1065.8
977.4197	2504.5812	1946.5	1060.5
977.5475	2505.919	1937.25	1047.35
977.6753	2507.256	1942.2	1053.15
977.8031	2508.5924	1945.5	1059.05
977.9308	2509.9281	1930.7	1039.4
978.0585	2511.2631	1929.45	1044.7
978.1861	2512.5974	1925	1039.05
978.3137	2513.9309	1921.4	1033.65
978.4413	2515.2638	1949.05	1031.35
978.5689	2516.596	1924.55	1036.85
978.6964	2517.9275	1912.05	1024.1
978.8239	2519.2583	1916.5	1028.85
978.9513	2520.5884	1911.25	1022.85
979.0788	2521.9178	1899.8	1012.2
979.2062	2523.2465	1902.9	1016.1
979.3335	2524.5745	1895.55	1010.2
979.4608	2525.9018	1902.05	1015.85
979.5881	2527.2284	1890.65	1004.1
979.7154	2528.5543	1890.8	1002.75
979.8426	2529.8796	1891	1004
979.9698	2531.2041	1894	1005.5
980.0969	2532.5279	1895.3	1008.3
980.224	2533.851	1890.85	1002.3
980.3511	2535.1735	1891.05	1004
980.4781	2536.4952	1881.55	994.35
980.6052	2537.8163	1886.35	999.8
980.7321	2539.1366	1864.8	977.35
980.8591	2540.4562	1883.2	994.55
980.986	2541.7752	1870.95	981.75
981.1129	2543.0935	1873.6	983.65
981.2397	2544.411	1876.3	988.3
981.3665	2545.7279	1863.75	974.95
981.4933	2547.0441	1866.4	976.25
981.62	2548.3596	1866.9	974.65
981.7467	2549.6744	1858.7	971.55
981.8734	2550.9885	1861.95	971.1
982.0001	2552.3019	1862.6	974.45
982.1267	2553.6146	1848.45	960.15
982.2532	2554.9266	1843.45	957.25
982.3798	2556.2379	1839.2	952.8
982.5063	2557.5485	1849.3	961.3
982.6327	2558.8585	1847.05	953.8
982.7592	2560.1677	1842.7	950.2
982.8856	2561.4762	1836.15	948.3
983.0119	2562.7841	1844.6	951.95
983.1383	2564.0913	1832.7	945.55
983.2646	2565.3977	1828.8	940.6
983.3908	2566.7035	1828.15	939.9
983.517	2568.0086	1832.15	942.4
983.6432	2569.313	1823.9	935.4
983.7694	2570.6167	1822.3	930.6
983.8955	2571.9197	1816.8	928.3
984.0216	2573.222	1828.25	936.45
984.1476	2574.5236	1812.15	924.5
984.2737	2575.8246	1811.1	921.3
984.3996	2577.1248	1813.1	921.8
984.5256	2578.4244	1821.8	935.4
984.6515	2579.7232	1815.05	927
984.7774	2581.0214	1839.6	925.95
984.9032	2582.3189	1803.7	916.85
985.029	2583.6157	1824.3	933.5
985.1548	2584.9118	1807.65	919.4
985.2806	2586.2072	1809.4	922.35
985.4063	2587.5019	1806.3	918.65
985.5319	2588.7959	1805.4	917.95
985.6576	2590.0893	1817.8	928.95
985.7832	2591.3819	1814.2	925.35
985.9087	2592.6739	1802.2	914.25
986.0343	2593.9652	1805.65	916.35
986.1597	2595.2557	1803.35	911.65
986.2852	2596.5456	1806.55	917.05
986.4106	2597.8348	1803.35	917.05
986.536	2599.1234	1795.8	910.5
986.6614	2600.4112	1799.15	912
986.7867	2601.6983	1800.4	909.3
986.912	2602.9848	1803.85	915.95
987.0372	2604.2705	1803.95	910.45
987.1624	2605.5556	1794.15	908.15
987.2876	2606.84	1787.65	899.75
987.4128	2608.1237	1784.35	896.85
987.5379	2609.4067	1781	894.45
987.6629	2610.689	1787.25	892.2
987.788	2611.9707	1776.9	885.4
987.913	2613.2516	1771.95	880.85
988.0379	2614.5319	1768	882.35
988.1629	2615.8115	1763.9	877.05
988.2878	2617.0903	1755.75	866.95
988.4126	2618.3685	1753.5	867.7
988.5375	2619.6461	1753.65	866.25
988.6622	2620.9229	1744.55	858.55
988.787	2622.199	1750.25	862.9
988.9117	2623.4745	1748.85	862.25
989.0364	2624.7493	1733.1	847.6
989.161	2626.0234	1738.3	850.55
989.2857	2627.2968	1741.95	854.9
989.4102	2628.5695	1740.7	852
989.5348	2629.8415	1732.65	845.7
989.6593	2631.1128	1732.05	844.75
989.7837	2632.3835	1729.55	841.55
989.9082	2633.6535	1722.95	838.35
990.0326	2634.9228	1725.05	840.5
990.1569	2636.1914	1726.85	840.95
990.2812	2637.4593	1727.05	839.05
990.4055	2638.7265	1717.85	831.05
990.5298	2639.9931	1718.25	830.55
990.654	2641.259	1714.3	828.75
990.7782	2642.5242	1714.15	829.7
990.9023	2643.7887	1717	829.85
991.0264	2645.0525	1711.8	825.25
991.1505	2646.3156	1697.05	808.55
991.2745	2647.5781	1691.75	805.85
991.3985	2648.8398	1696.55	810.6
991.5225	2650.1009	1731.9	809.4
991.6464	2651.3613	1695.9	810.05
991.7703	2652.6211	1699.35	815.95
991.8942	2653.8801	1692.3	808.25
992.018	2655.1385	1705.85	814.55
992.1418	2656.3961	1694.25	808
992.2655	2657.6531	1688.7	802.85
992.3892	2658.9094	1683.9	797.95
992.5129	2660.1651	1686.6	801.4
992.6366	2661.42	1682.85	794.3
992.7602	2662.6743	1695.5	807.25
992.8837	2663.9279	1693.9	809.15
993.0073	2665.1808	1690.5	802.95
993.1307	2666.433	1696.55	809.8
993.2542	2667.6846	1686.2	798.7
993.3776	2668.9354	1700.45	809.75
993.501	2670.1856	1685.9	799.7
993.6244	2671.4351	1695.5	808.75
993.7477	2672.6839	1699.7	811.95
993.8709	2673.9321	1697.5	810.45
993.9942	2675.1795	1690.75	805.1
994.1174	2676.4263	1700.2	813.65
994.2405	2677.6724	1706	820.85
994.3637	2678.9179	1690.7	803.3
994.4868	2680.1626	1699.8	815.5
994.6098	2681.4067	1686.15	798.3
994.7328	2682.6501	1686.75	801.8
994.8558	2683.8928	1690.1	804.7
994.9788	2685.1348	1680.35	795.05
995.1017	2686.3761	1679.7	793.75
995.2245	2687.6168	1674.55	789.85
995.3474	2688.8568	1668.5	782.3
995.4702	2690.0961	1662.95	779.55
995.5929	2691.3348	1661.95	774.15
995.7156	2692.5727	1663.45	776.1
995.8383	2693.81	1657	771.6
995.961	2695.0466	1653.35	768.75
996.0836	2696.2826	1665.2	778.5
996.2062	2697.5178	1671.7	765.9
996.3287	2698.7524	1659.05	773.65
996.4512	2699.9863	1652.7	766.05
996.5737	2701.2195	1655.8	770.05
996.6961	2702.452	1659.7	770.95
996.8185	2703.6839	1658.95	771.5
996.9408	2704.9151	1663.45	778.7
997.0631	2706.1456	1668.9	783.35
997.1854	2707.3755	1679.95	792.8
997.3077	2708.6046	1670.95	782.6
997.4299	2709.8331	1675.85	788.2
997.552	2711.0609	1686.25	799.3
997.6742	2712.2881	1697.95	811.4
997.7963	2713.5145	1711.05	823.4
997.9183	2714.7403	1705.25	819.2
998.0403	2715.9654	1716.4	829.4
998.1623	2717.1899	1743.85	843.05
998.2842	2718.4136	1740.1	853.8
998.4062	2719.6367	1740.65	855.85
998.528	2720.8591	1773.15	881
998.6498	2722.0809	1763.7	879.05
998.7716	2723.3019	1775	884.7
998.8934	2724.5223	1788.45	904
999.0151	2725.7421	1796.8	910.2
999.1368	2726.9611	1795.15	907.6
999.2584	2728.1795	1799.3	910.05
999.38	2729.3972	1775.9	892.65
999.5016	2730.6142	1784.25	885.65
999.6231	2731.8306	1747.1	861.55
999.7446	2733.0462	1736.4	849.2
999.8661	2734.2612	1734.5	844.2
999.9875	2735.4756	1709.5	824.1
1000.1089	2736.6892	1691.75	806.05
1000.2302	2737.9022	1671.85	790.5
1000.3515	2739.1145	1662.8	776.55
1000.4728	2740.3262	1656.75	764.1
1000.594	2741.5372	1631	747.7
1000.7152	2742.7475	1622.3	737.9
1000.8363	2743.9571	1615.55	728.6
1000.9575	2745.1661	1605.25	718.1
1001.0785	2746.3744	1595.2	708.7
1001.1996	2747.582	1586.6	700.7
1001.3206	2748.7889	1576.95	689.15
1001.4415	2749.9952	1565.15	679.3
1001.5625	2751.2008	1568.9	683.45
1001.6833	2752.4057	1561.05	674
1001.8042	2753.61	1563.55	680.7
1001.925	2754.8136	1551.15	664.9
1002.0458	2756.0165	1552.1	667.35
1002.1665	2757.2188	1554.15	670.05
1002.2872	2758.4204	1544.9	658.4
1002.4078	2759.6213	1550.35	662.75
1002.5285	2760.8215	1549.2	660.35
1002.649	2762.0211	1543.7	656.6
1002.7696	2763.22	1537.45	648.8
1002.8901	2764.4182	1544.4	660.35
1003.0106	2765.6158	1534	651
1003.131	2766.8127	1525.8	641.25
1003.2514	2768.009	1529.45	646.45
1003.3717	2769.2045	1525.3	640.4
1003.492	2770.3994	1532.85	645.55
1003.6123	2771.5936	1522.45	636.65
1003.7325	2772.7872	1517.35	635.6
1003.8527	2773.9801	1516	629.55
1003.9729	2775.1723	1529.7	625.75
1004.093	2776.3639	1509.95	626.85
1004.2131	2777.5548	1510.9	624.8
1004.3331	2778.745	1512.95	627.55
1004.4531	2779.9346	1499.5	617.6
1004.5731	2781.1235	1506.25	622.35
1004.693	2782.3117	1504.85	620
1004.8129	2783.4992	1511.55	627.55
1004.9328	2784.6861	1518.75	631.6
1005.0526	2785.8723	1518.75	633.7
1005.1723	2787.0579	1520.7	636.35
1005.2921	2788.2428	1521.45	637.1
1005.4118	2789.427	1532.9	649.7
1005.5314	2790.6106	1540.1	658.5
1005.651	2791.7935	1548.7	662.9
1005.7706	2792.9757	1554.15	670.15
1005.8902	2794.1573	1561.85	675.65
1006.0097	2795.3382	1567.25	683.35
1006.1291	2796.5184	1576.6	693.9
1006.2485	2797.698	1596.05	707.9
1006.3679	2798.8769	1602.65	719.05
1006.4873	2800.0551	1614.45	729.25
1006.6066	2801.2327	1630.2	743.55
1006.7258	2802.4096	1639.05	757.3
1006.8451	2803.5859	1662.1	776.9
1006.9642	2804.7615	1678.7	797.35
1007.0834	2805.9364	1696.3	814.15
1007.2025	2807.1106	1716.6	832.35
1007.3216	2808.2842	1739.7	854.5
1007.4406	2809.4572	1768.1	883.45
1007.5596	2810.6294	1805.8	921.5
1007.6785	2811.801	1841.15	958
1007.7975	2812.972	1875.15	993.1
1007.9163	2814.1423	1917.1	1035.6
1008.0352	2815.3119	1960.2	1078
1008.154	2816.4808	2006.8	1124.35
1008.2727	2817.6491	2058.4	1173
1008.3914	2818.8167	2111.75	1230.55
1008.5101	2819.9837	2154.8	1265.2
1008.6288	2821.15	2202.9	1321.05
1008.7474	2822.3157	2258.3	1376.15
1008.8659	2823.4807	2311.1	1428.15
1008.9844	2824.645	2368.75	1485.5
1009.1029	2825.8086	2413.55	1531.85
1009.2214	2826.9716	2468.75	1586.4
1009.3398	2828.134	2520.15	1638.35
1009.4581	2829.2957	2570.1	1689.4
1009.5764	2830.4567	2583.9	1701.35
1009.6947	2831.617	2618.8	1736.4
1009.813	2832.7767	2625.5	1744.6
1009.9312	2833.9358	2619.1	1738.25
1010.0493	2835.0941	2627.95	1744.2
1010.1675	2836.2519	2606.4	1722.8
1010.2855	2837.4089	2582.7	1698.85
1010.4036	2838.5653	2584.6	1702.6
1010.5216	2839.7211	2578.5	1697.2
1010.6396	2840.8761	2569.3	1684.4
1010.7575	2842.0306	2589.2	1708.8
1010.8754	2843.1843	2613.2	1730.6
1010.9932	2844.3374	2661.1	1779.2
1011.111	2845.4899	2704.15	1820.65
1011.2288	2846.6417	2758.45	1874.75
1011.3465	2847.7928	2824.55	1943.3
1011.4642	2848.9433	2887.9	2006.7
1011.5818	2850.0931	2956.95	2073.75
1011.6995	2851.2422	3023.1	2136.65
1011.817	2852.3907	3071.9	2190.05
1011.9345	2853.5385	3142.8	2259.05
1012.052	2854.6857	3193.25	2299.75
1012.1695	2855.8323	3239.4	2358.9
1012.2869	2856.9781	3297.35	2413
1012.4042	2858.1233	3332.25	2451.2
1012.5216	2859.2679	3389.35	2505.8
1012.6389	2860.4118	3443.65	2561
1012.7561	2861.555	3489.75	2604.45
1012.8733	2862.6976	3512.45	2627.1
1012.9905	2863.8395	3551.85	2669.15
1013.1076	2864.9808	3585.85	2702.9
1013.2247	2866.1214	3603.75	2722.15
1013.3417	2867.2614	3627.1	2742.05
1013.4587	2868.4007	3641.55	2757.7
1013.5757	2869.5393	3648.55	2763.7
1013.6926	2870.6773	3662.65	2774.6
1013.8095	2871.8146	3680.05	2791.95
1013.9263	2872.9513	3677.5	2791.35
1014.0431	2874.0874	3658.15	2773.25
1014.1599	2875.2227	3669.25	2785.15
1014.2766	2876.3574	3643.6	2760.95
1014.3933	2877.4915	3617.35	2737.4
1014.51	2878.6249	3584.85	2705.1
1014.6266	2879.7577	3566.15	2681.7
1014.7431	2880.8898	3561.95	2670.3
1014.8596	2882.0212	3537.4	2654.95
1014.9761	2883.152	3513.5	2629.85
1015.0925	2884.2821	3495.5	2614.65
1015.2089	2885.4116	3503.7	2621.25
1015.3253	2886.5405	3499.9	2618.9
1015.4416	2887.6686	3512.9	2627.95
1015.5579	2888.7962	3497	2615.85
1015.6741	2889.923	3520.15	2639.6
1015.7903	2891.0493	3530.9	2650
1015.9065	2892.1748	3536.65	2653.1
1016.0226	2893.2997	3531.6	2649.45
1016.1387	2894.424	3554.95	2673.55
1016.2547	2895.5476	3572.45	2692.1
1016.3707	2896.6706	3591.15	2709.3
1016.4866	2897.7929	3611.75	2728.35
1016.6025	2898.9145	3652.2	2769.4
1016.7184	2900.0355	3683.6	2802.85
1016.8342	2901.1559	3724	2840.35
1016.95	2902.2756	3744.7	2863.6
1017.0658	2903.3946	3763.85	2882.55
1017.1815	2904.513	3791.6	2907.25
1017.2971	2905.6308	3801.65	2921.2
1017.4127	2906.7479	3836.8	2955.05
1017.5283	2907.8643	3857.2	2975.7
1017.6439	2908.9801	3873.6	2990.1
1017.7594	2910.0953	3891.9	3010.5
1017.8748	2911.2098	3896.85	3011
1017.9902	2912.3236	3890.45	3003.2
1018.1056	2913.4368	3885	2998.35
1018.2209	2914.5494	3847.8	2966.75
1018.3362	2915.6613	3819.85	2932.45
1018.4515	2916.7725	3781.15	2897.95
1018.5667	2917.8831	3776.3	2895.55
1018.6819	2918.9931	3725.95	2841.5
1018.797	2920.1024	3697.25	2814.95
1018.9121	2921.211	3690.8	2812.55
1019.0271	2922.319	3685.85	2806.9
1019.1421	2923.4264	3644.8	2764.25
1019.2571	2924.5331	3648.45	2768.25
1019.372	2925.6391	3626.35	2746.75
1019.4869	2926.7445	3625.6	2745.3
1019.6017	2927.8493	3635.25	2752.35
1019.7165	2928.9534	3635.95	2752.5
1019.8313	2930.0569	3633.2	2747.05
1019.946	2931.1597	3625.5	2743.55
1020.0606	2932.2619	3617.85	2734.95
1020.1753	2933.3634	3610.95	2731
1020.2899	2934.4643	3621.55	2733.9
1020.4044	2935.5645	3601.75	2714.65
1020.5189	2936.6641	3577.45	2692.7
1020.6334	2937.763	3547.6	2668.2
1020.7478	2938.8613	3502.9	2622.15
1020.8622	2939.959	3457.95	2573.7
1020.9765	2941.056	3388.85	2508.55
1021.0908	2942.1523	3318.85	2436.1
1021.2051	2943.248	3235.6	2356.25
1021.3193	2944.3431	3141.2	2260.3
1021.4334	2945.4375	3050	2171.1
1021.5476	2946.5313	2955.25	2076.1
1021.6617	2947.6244	2839.15	1957.85
1021.7757	2948.7169	2748.55	1868
1021.8897	2949.8087	2651.95	1772.4
1022.0037	2950.8999	2546.45	1664.9
1022.1176	2951.9904	2497.35	1618.7
1022.2315	2953.0803	2410.85	1527.95
1022.3453	2954.1696	2349.4	1469.7
1022.4591	2955.2582	2294.6	1413.65
1022.5728	2956.3462	2248.3	1367.75
1022.6865	2957.4335	2212.05	1331.95
1022.8002	2958.5202	2185.9	1303.15
1022.9138	2959.6062	2148.05	1268.15
1023.0274	2960.6916	2120.8	1239.35
1023.141	2961.7764	2099.5	1218.65
1023.2545	2962.8605	2094.05	1211.25
1023.3679	2963.9439	2076.05	1196.1
1023.4813	2965.0267	2067	1183.2
1023.5947	2966.1089	2076.3	1173.9
1023.708	2967.1905	2056.85	1177
1023.8213	2968.2714	2048.45	1168.9
1023.9346	2969.3516	2042.55	1161.5
1024.0478	2970.4312	2060.8	1173.05
1024.1609	2971.5102	2044.4	1162.1
1024.274	2972.5885	2048.8	1168.25
1024.3871	2973.6662	2065	1180
1024.5002	2974.7432	2058.85	1179.2
1024.6132	2975.8196	2042.85	1162.75
1024.7261	2976.8954	2042.95	1161.7
1024.839	2977.9705	2029.75	1151.5
1024.9519	2979.045	2015.75	1138
1025.0647	2980.1188	1995.6	1116.75
1025.1775	2981.192	1988.9	1109.85
1025.2902	2982.2645	1967.55	1084.6
1025.4029	2983.3364	1945.3	1063.45
1025.5156	2984.4077	1915.45	1034.75
1025.6282	2985.4783	1898.45	1014.2
1025.7407	2986.5483	1856.45	977.7
1025.8532	2987.6177	1823.55	943.25
1025.9657	2988.6864	1788.45	907.75
1026.0782	2989.7545	1756.2	874.95
1026.1906	2990.8219	1729.55	848.85
1026.3029	2991.8887	1689.15	807
1026.4152	2992.9548	1656.5	776.9
1026.5275	2994.0204	1626.35	748.2
1026.6397	2995.0852	1598.9	718.7
1026.7519	2996.1495	1573.45	694.15
1026.864	2997.2131	1548.1	667.6
1026.9761	2998.276	1521.55	641.35
1027.0882	2999.3383	1505.05	624.45
1027.2002	3000.4	1477.1	594.45
1027.3122	3001.4611	1464.9	584.05
1027.4241	3002.5215	1454.6	575
1027.536	3003.5812	1437.2	556.6
1027.6478	3004.6404	1421.7	539.7
1027.7596	3005.6989	1412.75	531.7
1027.8714	3006.7567	1399.2	518.25
1027.9831	3007.8139	1415.2	504.5
1028.0947	3008.8705	1377.2	495.7
1028.2064	3009.9264	1380	495.25
1028.3179	3010.9818	1360.9	480.45
1028.4295	3012.0364	1361.55	483.3
1028.541	3013.0905	1350.35	470
1028.6524	3014.1439	1352.25	473.65
1028.7638	3015.1966	1344.35	464.45
1028.8752	3016.2487	1341.1	461.6
1028.9865	3017.3002	1346.05	458.8
1029.0978	3018.3511	1337.8	458.5
1029.209	3019.4013	1333.95	453.8
1029.3202	3020.4509	1329.6	450.8
1029.4314	3021.4998	1334.5	453.85
1029.5425	3022.5481	1327.25	446.55
1029.6535	3023.5958	1323.05	442.7
1029.7645	3024.6428	1329.65	449.15
1029.8755	3025.6892	1328.75	450.6
1029.9864	3026.735	1328.4	448.25
1030.0973	3027.7802	1327.75	449.8
1030.2082	3028.8247	1327.75	447.8
1030.319	3029.8685	1332.4	453.55
1030.4297	3030.9118	1335.2	453.3
1030.5404	3031.9544	1334.45	455.6
1030.6511	3032.9963	1336.25	455.65
1030.7617	3034.0376	1344.35	464.25
1030.8723	3035.0783	1342.9	461.7
1030.9829	3036.1184	1343.35	460.25
1031.0934	3037.1578	1343.8	466.55
1031.2038	3038.1966	1348.65	467.25
1031.3142	3039.2348	1351	474.9
1031.4246	3040.2723	1356.8	466
1031.5349	3041.3092	1342.55	463.3
1031.6452	3042.3455	1345.8	466.55
1031.7554	3043.3811	1342.95	463.3
1031.8656	3044.4161	1344.8	463.8
1031.9758	3045.4505	1337.6	459.65
1032.0859	3046.4842	1337.4	457.55
1032.1959	3047.5173	1331.2	452.8
1032.3059	3048.5498	1330	450.05
1032.4159	3049.5816	1311.1	433.15
1032.5258	3050.6128	1323.75	444.15
1032.6357	3051.6434	1315.85	436.35
1032.7455	3052.6734	1312.95	432.95
1032.8553	3053.7027	1304.75	426.4
1032.9651	3054.7314	1299.45	420.35
1033.0748	3055.7594	1292.55	414.5
1033.1845	3056.7868	1297.95	419.15
1033.2941	3057.8136	1294.4	417.05
1033.4037	3058.8398	1289.65	411.9
1033.5132	3059.8653	1282.55	403.95
1033.6227	3060.8902	1279.8	400.85
1033.7321	3061.9145	1276	397.15
1033.8415	3062.9381	1273.25	394.85
1033.9509	3063.9612	1286.25	391.95
1034.0602	3064.9835	1268.4	388.5
1034.1694	3066.0053	1260.45	378.1
1034.2787	3067.0264	1258.8	381.25
1034.3878	3068.0469	1254.15	373.55
1034.497	3069.0668	1248.1	366.9
1034.6061	3070.086	1240.4	363.25
1034.7151	3071.1046	1236.35	357.5
1034.8241	3072.1226	1229.8	350.55
1034.9331	3073.1399	1219.35	341.55
1035.042	3074.1567	1209.85	329.15
1035.1508	3075.1727	1199.15	319.2
1035.2597	3076.1882	1198.4	318.6
1035.3684	3077.203	1196.15	316.1
1035.4772	3078.2173	1192.8	312.55
1035.5859	3079.2308	1182.85	300.1
1035.6945	3080.2438	1169.65	288.25
1035.8031	3081.2561	1162	281.85
1035.9117	3082.2678	1158.3	278.95
1036.0202	3083.2789	1147.75	268
1036.1286	3084.2893	1149	271.75
1036.2371	3085.2991	1133.15	255
1036.3454	3086.3083	1139.5	257.45
1036.4538	3087.3169	1129.8	250.95
1036.562	3088.3248	1133.1	251.6
1036.6703	3089.3321	1123	240.7
1036.7785	3090.3388	1108.9	230.75
1036.8866	3091.3449	1109.35	228.5
1036.9948	3092.3503	1106.75	227.95
1037.1028	3093.3551	1102.45	225.2
1037.2108	3094.3593	1100.25	223.65
1037.3188	3095.3629	1093.1	215.3
1037.4267	3096.3658	1098	217.25
1037.5346	3097.3681	1090.85	213
1037.6425	3098.3698	1092.95	214
1037.7503	3099.3708	1093.4	207.5
1037.858	3100.3713	1080.85	201.7
1037.9657	3101.3711	1081.25	199.75
1038.0734	3102.3702	1216.05	203.25
1038.181	3103.3688	1076.35	195.65
1038.2886	3104.3667	1071.1	193.45
1038.3961	3105.364	1077.7	201.45
1038.5036	3106.3607	1069.15	189.3
1038.611	3107.3568	1068.7	189.35
1038.7184	3108.3522	1061.55	184.2
1038.8257	3109.347	1061	183.9
1038.933	3110.3412	1068.95	186.5
1039.0403	3111.3348	1059.6	181.55
1039.1475	3112.3277	1061.95	183.65
1039.2547	3113.32	1055.45	178.7
1039.3618	3114.3117	1052.1	172.65
1039.4689	3115.3028	1051.85	173.7
1039.5759	3116.2932	1055.6	174.6
1039.6829	3117.2831	1050.75	166.6
1039.7898	3118.2723	1048.7	171.5
1039.8967	3119.2608	1045.2	167.1
1040.0035	3120.2488	1043.6	165.1
1040.1103	3121.2361	1043.25	164.8
1040.2171	3122.2229	1043.95	165.65
1040.3238	3123.209	1043.9	164.5
1040.4305	3124.1944	1036.85	159.9
1040.5371	3125.1793	1038.4	155.95
1040.6437	3126.1635	1035.45	159.1
1040.7502	3127.1471	1031.85	153.5
1040.8567	3128.1301	1031.45	154.75
1040.9631	3129.1125	1032.3	153.85
1041.0695	3130.0942	1029.4	151.3
1041.1759	3131.0753	1034.45	147.3
1041.2822	3132.0558	1032.3	150.4
1041.3884	3133.0357	1027.5	149.15
1041.4946	3134.015	1028.1	149.25
1041.6008	3134.9936	1025.7	144.45
1041.7069	3135.9716	1043.45	143.4
1041.813	3136.949	1020.35	143.85
1041.919	3137.9258	1038.85	141.3
1042.025	3138.902	1025.95	142.05
1042.1309	3139.8775	1016.15	137.7
1042.2368	3140.8524	1017.95	140.95
1042.3427	3141.8267	1020.3	139.3
1042.4485	3142.8004	1013.25	133.25
1042.5542	3143.7735	1021.95	136.2
1042.6599	3144.7459	1015.55	136
1042.7656	3145.7178	1011.5	134.3
1042.8712	3146.689	1002.2	124.95
1042.9768	3147.6596	1009.6	129.75
1043.0823	3148.6295	1009	132.15
1043.1878	3149.5989	1008.6	130.7
1043.2932	3150.5676	1004.75	126.75
1043.3986	3151.5357	1004.65	128.05
1043.5039	3152.5032	1003.75	128.05
1043.6092	3153.4701	1002.1	124.2
1043.7145	3154.4364	1004.55	123.9
1043.8197	3155.402	1004.3	129.15
1043.9248	3156.367	1005	124.1
1044.03	3157.3315	1031.15	123.55
1044.135	3158.2952	1001.05	122.65
1044.24	3159.2584	997.35	121.8
1044.345	3160.221	1000.3	124.35
1044.4499	3161.1829	992.9	113.2
1044.5548	3162.1442	994.15	114.5
1044.6596	3163.105	998.25	120
1044.7644	3164.065	993.25	116.7
1044.8692	3165.0245	994.4	115.2
1044.9739	3165.9834	988.45	114.1
1045.0785	3166.9416	990.15	113.6
1045.1831	3167.8993	993.6	113.7
1045.2877	3168.8563	986.6	109.15
1045.3922	3169.8127	991.3	113.9
1045.4966	3170.7684	992.45	117.95
1045.6011	3171.7236	987.4	110.15
1045.7054	3172.6782	988.4	111.75
1045.8098	3173.6321	986.65	108
1045.914	3174.5854	990.4	108.75
1046.0183	3175.5381	986.45	108.4
1046.1224	3176.4902	988.05	111.25
1046.2266	3177.4417	983.05	106.5
1046.3307	3178.3926	980.7	105.05
1046.4347	3179.3428	980.5	103.5
1046.5387	3180.2924	983.15	105.65
1046.6427	3181.2415	980.3	103.1
1046.7466	3182.1899	979.55	101.6
1046.8504	3183.1377	980.75	104.4
1046.9542	3184.0848	978.85	98.2
1047.058	3185.0314	977.4	100.55
1047.1617	3185.9773	975.25	96.85
1047.2654	3186.9227	977.95	99.95
1047.369	3187.8674	980.85	101.9
1047.4726	3188.8115	979	98.3
1047.5761	3189.755	976.3	99.05
1047.6796	3190.6979	974.55	98.65
1047.783	3191.6402	970.8	94.5
1047.8864	3192.5818	974.9	98.9
1047.9898	3193.5229	990.5	95.6
1048.0931	3194.4633	971.05	93.65
1048.1963	3195.4031	975	96.1
1048.2995	3196.3423	968.3	91.15
1048.4027	3197.2809	973.7	95.8
1048.5058	3198.2189	968.1	88.4
1048.6089	3199.1563	973.35	89.95
1048.7119	3200.0931	969.8	95.45
1048.8148	3201.0292	968.3	93.45
1048.9178	3201.9648	968.1	91.7
1049.0206	3202.8997	970.7	91.55
1049.1235	3203.834	969.95	92.55
1049.2262	3204.7677	967.1	86.85
1049.329	3205.7008	968.75	88.05
1049.4317	3206.6333	966.25	90.9
1049.5343	3207.5652	964.55	86.1
1049.6369	3208.4964	966.05	88.9
1049.7394	3209.4271	965.6	89.2
1049.8419	3210.3571	965.6	91.1
1049.9444	3211.2865	963.1	86.55
1050.0468	3212.2154	962.5	85.65
1050.1491	3213.1436	966.2	85.8
1050.2514	3214.0712	968.9	85.8
1050.3537	3214.9982	961.5	83.25
1050.4559	3215.9246	958.05	79.75
1050.5581	3216.8503	957.45	80.75
1050.6602	3217.7755	959.25	81.65
1050.7623	3218.7001	957.95	81.35
1050.8643	3219.624	958.2	79.25
1050.9663	3220.5473	960.75	85.65
1051.0682	3221.4701	962.95	86.55
1051.1701	3222.3922	959.1	81.2
1051.2719	3223.3137	956.5	80
1051.3737	3224.2346	956.1	79.2
1051.4754	3225.1549	957.55	79.6
1051.5771	3226.0746	957.35	81.6
1051.6788	3226.9937	953.85	77.4
1051.7804	3227.9121	955.7	78.65
1051.8819	3228.83	954.55	77.7
1051.9834	3229.7473	956.25	81.35
1052.0849	3230.6639	952.7	76.4
1052.1863	3231.5799	953.5	77.85
1052.2876	3232.4954	954.9	78.6
1052.3889	3233.4102	952.5	76.95
1052.4902	3234.3244	953.05	75.7
1052.5914	3235.238	949.5	73.6
1052.6926	3236.151	966	74.2
1052.7937	3237.0634	947.4	73.5
1052.8948	3237.9752	948.25	72.2
1052.9958	3238.8864	946.9	70.25
1053.0968	3239.797	946.25	69.95
1053.1977	3240.7069	949.4	70.9
1053.2986	3241.6163	949.15	71.7
1053.3994	3242.5251	945.65	69.55
1053.5002	3243.4332	944.9	71.55
1053.6009	3244.3408	946.9	71.7
1053.7016	3245.2477	945.25	68.9
1053.8022	3246.154	945.95	66.9
1053.9028	3247.0598	944.5	66.55
1054.0034	3247.9649	942.15	65.4
1054.1039	3248.8694	941.95	64.9
1054.2043	3249.7733	943.3	67.55
1054.3047	3250.6766	943.25	66.65
1054.4051	3251.5793	943.95	66.2
1054.5054	3252.4814	943.6	66.75
1054.6056	3253.3829	945.8	71.85
1054.7058	3254.2838	943.75	66.7
1054.806	3255.1841	942.45	67.15
1054.9061	3256.0838	937.9	61.95
1055.0061	3256.9829	935.6	61.3
1055.1062	3257.8814	938.7	61.45
1055.2061	3258.7792	936.6	58.75
1055.306	3259.6765	937.4	59.95
1055.4059	3260.5731	936.15	58.95
1055.5057	3261.4692	932.95	55.6
1055.6055	3262.3647	936.7	57.6
1055.7052	3263.2595	934.55	57.8
1055.8049	3264.1538	930.55	54.65
1055.9045	3265.0474	933.6	56.2
1056.0041	3265.9404	930.25	56.85
1056.1036	3266.8329	928.55	53.6
1056.2031	3267.7247	937.25	51.2
1056.3025	3268.616	924.8	50.05
1056.4019	3269.5066	925.25	49.8
1056.5013	3270.3966	925.9	47.15
1056.6005	3271.286	921.35	47.95
