Software Version:	3.9.2.0
Unit SN:	10000200
Spectrometer SN:	6960
Date:	3/8/2024 11:58:02 AM
Data Line Index:	25
Spectral Points:	2048
Integration time (ms):	125
Averages:	20
Delay (ms):	30000
Sequence Number:	1
Processing:	dark subtract
Laser Power (mW):	300
Laser Current (mA):	822
Laser Diode Temp (C):	25.1
Laser Case Temp (C):	25.5
System Temp (C):	25.5
Spectrometer Temp (C):	23.3
CCD Temp (C):	0.012
Secondary Temp (C):	20.016
Heatsink Temp (C):	20.291
CCDPCB Temp (C):	35.651
SecondaryPCB Temp (C):	27.748

Wavelength	RamanShift	Raw Counts	Dark Subtracted
787.061	30.1047	414.3	5.1
787.2016	32.3739	411.55	3.95
787.3422	34.6426	415.65	6.75
787.4828	36.9109	415.2	4.75
787.6235	39.1787	418.85	4.25
787.7642	41.4461	424.2	6.55
787.9049	43.7131	429.3	5.25
788.0456	45.9796	435.45	11.5
788.1863	48.2456	439.3	12.3
788.3271	50.5112	442	8.3
788.4679	52.7764	446.4	11.6
788.6087	55.0411	451.2	10.05
788.7496	57.3054	457.55	10.3
788.8904	59.5692	459.1	11.35
789.0313	61.8326	463.4	13.95
789.1722	64.0955	468	14.65
789.3132	66.3579	473.3	17.3
789.4541	68.6199	480.8	19.45
789.5951	70.8815	493.5	28.05
789.7361	73.1426	510.55	40.35
789.8771	75.4032	543.9	71.65
790.0181	77.6634	614.5	138.25
790.1592	79.9231	783.6	301.55
790.3003	82.1824	1126.5	633.6
790.4414	84.4412	1699.95	1186.1
790.5825	86.6995	2416.65	1880.4
790.7237	88.9574	3099.7	2546.4
790.8648	91.2148	3547.85	2982.1
791.006	93.4717	3740.45	3163.9
791.1472	95.7282	3771.05	3191.15
791.2885	97.9842	3740.6	3155.9
791.4297	100.2398	3702.2	3118.5
791.571	102.4949	3641.05	3053.1
791.7123	104.7495	3604.05	3014.1
791.8536	107.0036	3542.6	2951.6
791.9949	109.2573	3461.25	2870
792.1363	111.5105	3381.3	2784.7
792.2777	113.7632	3276.3	2680.8
792.4191	116.0154	3176.35	2565.65
792.5605	118.2672	3068.75	2466
792.7019	120.5185	2948.45	2349.15
792.8434	122.7693	2874.15	2270.1
792.9849	125.0197	2809.2	2198.05
793.1264	127.2696	2717.75	2107
793.2679	129.519	2707.5	2094
793.4094	131.7679	2677.15	2058.4
793.551	134.0163	2657.7	2035.45
793.6926	136.2642	2630.6	2006.65
793.8342	138.5117	2627.25	1993.4
793.9758	140.7587	2581.95	1952.6
794.1175	143.0052	2535.6	1903.15
794.2591	145.2512	2493.85	1862.15
794.4008	147.4967	2444.05	1808.55
794.5425	149.7417	2402.65	1766.15
794.6842	151.9863	2387.1	1745.2
794.826	154.2304	2375.6	1728.85
794.9677	156.4739	2384.15	1734.85
795.1095	158.717	2392.35	1741.1
795.2513	160.9596	2401.2	1745.25
795.3931	163.2017	2424.35	1768.25
795.535	165.4433	2435.2	1776.35
795.6768	167.6844	2416.95	1755.9
795.8187	169.925	2382.9	1717.05
795.9606	172.1651	2325.6	1656.7
796.1025	174.4047	2281.45	1612.95
796.2445	176.6439	2240.2	1567.3
796.3864	178.8825	2222.35	1549.05
796.5284	181.1206	2207.3	1527.15
796.6704	183.3582	2201.55	1515.85
796.8124	185.5954	2191.15	1504.85
796.9544	187.832	2199	1512.35
797.0965	190.0681	2193.45	1503.65
797.2386	192.3037	2209.4	1513.35
797.3806	194.5388	2211.6	1514.25
797.5228	196.7734	2221.85	1524.15
797.6649	199.0075	2240.85	1539.65
797.807	201.2411	2262.05	1560.05
797.9492	203.4742	2265.05	1563.25
798.0914	205.7068	2303.1	1593.6
798.2336	207.9389	2318.6	1609.9
798.3758	210.1704	2332.95	1623.55
798.518	212.4015	2321	1623.25
798.6603	214.632	2326.15	1637.65
798.8025	216.862	2332.15	1647.75
798.9448	219.0915	2344.4	1658.75
799.0871	221.3205	2355.65	1663.2
799.2294	223.549	2365.25	1677.5
799.3718	225.777	2346.45	1660.2
799.5141	228.0044	2351.6	1656.7
799.6565	230.2314	2337.1	1642.45
799.7989	232.4578	2329	1626.95
799.9413	234.6837	2313.85	1609.85
800.0837	236.909	2306.1	1596.45
800.2262	239.1339	2314.9	1578.05
800.3687	241.3582	2296	1574.8
800.5111	243.582	2326.05	1577.15
800.6536	245.8053	2325.25	1590.45
800.7961	248.0281	2320.45	1589
800.9387	250.2503	2329.7	1595.35
801.0812	252.472	2332.5	1595.9
801.2238	254.6932	2348.9	1615.75
801.3664	256.9139	2360.55	1621.75
801.509	259.134	2372.9	1629.6
801.6516	261.3536	2395.9	1655.55
801.7942	263.5727	2447.55	1706.9
801.9369	265.7912	2482.7	1742.5
802.0795	268.0092	2547.7	1806.75
802.2222	270.2267	2597.65	1857.1
802.3649	272.4436	2639.15	1896.5
802.5076	274.6601	2687.25	1934.6
802.6504	276.8759	2697.05	1944.25
802.7931	279.0913	2717.3	1967.85
802.9359	281.3061	2719	1967.85
803.0787	283.5204	2756.4	2002.15
803.2215	285.7341	2771.4	2012.75
803.3643	287.9473	2792.85	2033.9
803.5071	290.16	2785.7	2025.25
803.6499	292.3721	2745.45	1988.6
803.7928	294.5837	2723.1	1966.7
803.9357	296.7947	2702.9	1944.8
804.0786	299.0052	2688.8	1927.2
804.2215	301.2152	2687.95	1928.25
804.3644	303.4246	2655.45	1898.4
804.5074	305.6334	2632.75	1876.95
804.6503	307.8418	2629.95	1871.5
804.7933	310.0495	2595.2	1833.55
804.9363	312.2568	2562	1799.05
805.0793	314.4635	2507.75	1743.25
805.2223	316.6696	2468.15	1698.1
805.3653	318.8752	2422.6	1644.1
805.5084	321.0802	2391.95	1623.95
805.6514	323.2847	2383.6	1611.95
805.7945	325.4887	2388	1617.35
805.9376	327.692	2408.8	1635.75
806.0807	329.8949	2451.4	1676.7
806.2238	332.0972	2481.95	1705.75
806.367	334.2989	2514.75	1734.8
806.5101	336.5001	2494.65	1713.85
806.6533	338.7007	2470.95	1691.55
806.7965	340.9008	2428.3	1648.45
806.9397	343.1003	2373.6	1591.4
807.0829	345.2992	2324.35	1542.8
807.2261	347.4976	2289.4	1501.15
807.3693	349.6955	2263.8	1472.85
807.5126	351.8927	2258.65	1466.2
807.6559	354.0895	2243.05	1437.25
807.7991	356.2856	2220.3	1427.6
807.9424	358.4812	2212.1	1421.8
808.0857	360.6763	2202.75	1408.4
808.2291	362.8707	2205.45	1409.65
808.3724	365.0646	2215.05	1416.6
808.5158	367.258	2230.65	1430.2
808.6591	369.4508	2246.65	1443.2
808.8025	371.643	2271.5	1469.5
808.9459	373.8346	2297.1	1496.75
809.0893	376.0257	2329.85	1519.6
809.2327	378.2162	2347	1539.5
809.3762	380.4062	2352.1	1544.15
809.5196	382.5956	2323.8	1521.15
809.6631	384.7844	2293	1491.85
809.8066	386.9726	2269.35	1472
809.9501	389.1603	2223.05	1424.05
810.0936	391.3474	2250.5	1416.1
810.2371	393.5339	2219.6	1417.45
810.3806	395.7199	2228.25	1430.75
810.5241	397.9052	2254.2	1455.2
810.6677	400.09	2293.35	1492.15
810.8113	402.2743	2339.2	1539.9
810.9548	404.4579	2370.4	1569.2
811.0984	406.641	2411.4	1609.5
811.2421	408.8235	2457.9	1654.55
811.3857	411.0054	2494.5	1683
811.5293	413.1868	2558.65	1745.25
811.673	415.3675	2610.6	1794.05
811.8166	417.5477	2608.1	1794.45
811.9603	419.7273	2542.9	1724.55
812.104	421.9064	2463.35	1637.2
812.2477	424.0848	2403.35	1588.5
812.3914	426.2627	2346.05	1530
812.5351	428.4399	2296.8	1474.75
812.6788	430.6166	2242.35	1417.2
812.8226	432.7928	2202.8	1376.8
812.9663	434.9683	2155.85	1333.25
813.1101	437.1432	2131.95	1307.95
813.2539	439.3176	2106.1	1285.9
813.3977	441.4914	2097.05	1278.55
813.5415	443.6645	2109	1285.95
813.6853	445.8371	2110.45	1287.25
813.8291	448.0091	2101.75	1277
813.973	450.1806	2103.55	1278.95
814.1168	452.3514	2096.8	1272.1
814.2607	454.5216	2106.35	1274.8
814.4046	456.6913	2094.45	1264.5
814.5485	458.8603	2093.75	1267.9
814.6924	461.0288	2106.9	1283.85
814.8363	463.1967	2107.95	1283.05
814.9802	465.3639	2100.6	1270.45
815.1241	467.5306	2092.55	1269.5
815.2681	469.6967	2083.3	1257.9
815.412	471.8622	2075.85	1251.7
815.556	474.0271	2067.8	1240.35
815.7	476.1914	2067.85	1237.45
815.844	478.3551	2080.6	1250.7
815.988	480.5182	2079.3	1252.7
816.132	482.6807	2076.95	1250.8
816.276	484.8426	2093.95	1269.75
816.4201	487.0039	2130.25	1301.7
816.5641	489.1647	2183.3	1352.9
816.7082	491.3248	2233.95	1400.9
816.8522	493.4843	2237.35	1406.8
816.9963	495.6432	2247.8	1416.3
817.1404	497.8015	2214.95	1376.95
817.2845	499.9592	2172.95	1337.3
817.4286	502.1163	2122.15	1282.65
817.5727	504.2728	2071.9	1234.75
817.7168	506.4287	2050.7	1218.35
817.861	508.5839	2035.15	1201
818.0051	510.7386	2029.5	1196.5
818.1493	512.8927	2036.7	1197.05
818.2935	515.0461	2045.6	1204.95
818.4377	517.199	2062.7	1224.25
818.5818	519.3512	2109.1	1269.6
818.726	521.5029	2178.45	1332.45
818.8703	523.6539	2210.85	1369.95
819.0145	525.8043	2210.65	1368.55
819.1587	527.9541	2167.35	1322.25
819.303	530.1033	2110.3	1267.1
819.4472	532.2519	2067.1	1220.5
819.5915	534.3999	2042.7	1193.45
819.7357	536.5472	2034.1	1188.25
819.88	538.694	2038.15	1197.1
820.0243	540.8401	2052.8	1205.65
820.1686	542.9856	2081.8	1227.95
820.3129	545.1305	2090.65	1234.3
820.4572	547.2748	2101.2	1246.55
820.6016	549.4185	2100.3	1244.2
820.7459	551.5615	2112.55	1259.95
820.8902	553.704	2133.75	1281.1
821.0346	555.8458	2153.65	1301.95
821.1789	557.987	2173.55	1324.6
821.3233	560.1276	2210.6	1358.8
821.4677	562.2675	2250.45	1400
821.6121	564.4069	2296.35	1445.9
821.7565	566.5456	2337.95	1487.15
821.9009	568.6837	2327.5	1476.1
822.0453	570.8212	2262.2	1413.1
822.1897	572.958	2194	1340.2
822.3342	575.0942	2132.3	1283.3
822.4786	577.2299	2098.2	1246.4
822.6231	579.3648	2077.85	1231.5
822.7675	581.4992	2054.35	1213.4
822.912	583.6329	2060.35	1221.6
823.0565	585.766	2087.75	1245.7
823.201	587.8985	2143.5	1298.6
823.3454	590.0304	2187.8	1325.5
823.4899	592.1616	2215.5	1357.1
823.6345	594.2922	2197.45	1337.95
823.779	596.4222	2151.55	1290.4
823.9235	598.5515	2096.1	1233.15
824.068	600.6802	2056.1	1193.7
824.2126	602.8083	2016.35	1158.6
824.3571	604.9358	2009.15	1150.8
824.5017	607.0626	2007.05	1144.15
824.6462	609.1888	2025.25	1160.45
824.7908	611.3144	2059.1	1197
824.9354	613.4393	2088.6	1226.25
825.08	615.5636	2131.4	1268.05
825.2246	617.6873	2167.2	1304.9
825.3692	619.8103	2209.65	1342.05
825.5138	621.9327	2208.25	1345.1
825.6584	624.0544	2169.5	1309.2
825.803	626.1756	2108.3	1249.75
825.9477	628.2961	2064.1	1201.95
826.0923	630.4159	2051.3	1184.25
826.237	632.5351	2043.05	1179.65
826.3816	634.6537	2030.45	1164
826.5263	636.7716	2033.45	1162.35
826.6709	638.8889	2021.2	1153.05
826.8156	641.0056	2015.15	1146.35
826.9603	643.1216	2030.65	1161
827.105	645.237	2026.85	1156.65
827.2497	647.3518	2004.35	1137.95
827.3944	649.4659	1977.85	1113.75
827.5391	651.5793	1968.05	1106.5
827.6838	653.6922	1953.5	1087.55
827.8285	655.8043	1949.7	1080.45
827.9733	657.9159	1945.65	1082.1
828.118	660.0268	1934.7	1067.6
828.2627	662.137	1932.65	1059.95
828.4075	664.2466	1941.4	1068.5
828.5522	666.3556	1925.9	1057.05
828.697	668.4639	1921.05	1050.35
828.8418	670.5716	1915.25	1046.1
828.9865	672.6786	1912.3	1041.85
829.1313	674.785	1911.3	1036.55
829.2761	676.8907	1897	1028.55
829.4209	678.9958	1905.5	1037.15
829.5657	681.1002	1893.8	1020.55
829.7105	683.204	1904.35	1026
829.8553	685.3072	1905.9	1028.95
830.0001	687.4097	1895.35	1023.1
830.1449	689.5115	1904.5	1026.8
830.2898	691.6127	1907	1033.3
830.4346	693.7132	1892.05	1019.55
830.5794	695.8131	1919.15	1024.45
830.7243	697.9123	1909	1033.35
830.8691	700.0109	1905.4	1028.55
831.014	702.1089	1917.55	1041.35
831.1588	704.2061	1938.2	1062.85
831.3037	706.3028	1956.5	1079.45
831.4486	708.3987	1967.6	1087.55
831.5935	710.4941	1982.95	1104.35
831.7383	712.5887	1992.85	1116
831.8832	714.6827	1983.65	1105.25
832.0281	716.7761	1975.75	1100.8
832.173	718.8688	1979.55	1104.1
832.3179	720.9608	1983	1100.3
832.4628	723.0522	1997.1	1110.95
832.6077	725.1429	2022.4	1141.25
832.7527	727.233	2057.7	1176.85
832.8976	729.3224	2121.45	1237.4
833.0425	731.4112	2166.35	1285.25
833.1874	733.4993	2164.15	1284.25
833.3324	735.5867	2114.25	1234.95
833.4773	737.6735	2043.95	1160.55
833.6222	739.7596	2009.05	1127.8
833.7672	741.845	1972	1092.7
833.9122	743.9298	1969.35	1087.2
834.0571	746.014	1978.35	1093.95
834.2021	748.0974	1985.6	1100.45
834.347	750.1802	1986.05	1099.7
834.492	752.2624	1976.45	1092.65
834.637	754.3439	1971.55	1085.15
834.782	756.4247	1977.1	1082.05
834.9269	758.5048	1965.7	1081.4
835.0719	760.5843	1994	1109.6
835.2169	762.6631	2019.2	1133.65
835.3619	764.7413	2071.5	1188.15
835.5069	766.8188	2157.45	1271.05
835.6519	768.8956	2239.1	1350.95
835.7969	770.9718	2293.3	1408.45
835.9419	773.0473	2280.9	1395.75
836.0869	775.1221	2256.8	1371.5
836.232	777.1962	2229.85	1344.55
836.377	779.2697	2288.35	1399.5
836.522	781.3426	2386.8	1481.75
836.667	783.4147	2425.35	1536.4
836.8121	785.4862	2395.2	1508.1
836.9571	787.557	2314.4	1428.1
837.1021	789.6271	2201.3	1315.75
837.2472	791.6966	2084.8	1197.35
837.3922	793.7654	2003.4	1111.95
837.5373	795.8335	1958	1070.4
837.6823	797.901	1932.55	1045.05
837.8274	799.9678	1924.15	1033.35
837.9724	802.0339	1926.25	1038.45
838.1175	804.0993	1927.3	1027.35
838.2626	806.1641	1913.95	1024.35
838.4076	808.2282	1891.5	1003.7
838.5527	810.2916	1878.8	987.9
838.6978	812.3544	1865.35	979.05
838.8428	814.4164	1862.5	975
838.9879	816.4778	1873.1	981.8
839.133	818.5385	1883.8	994.1
839.2781	820.5986	1906.8	1013.9
839.4232	822.658	1965.8	1073.9
839.5682	824.7166	2026.55	1135.8
839.7133	826.7747	2101.6	1209.4
839.8584	828.832	2187.75	1297.25
840.0035	830.8886	2229.4	1336.4
840.1486	832.9446	2252.2	1360.6
840.2937	834.9999	2225	1334.75
840.4388	837.0545	2143.6	1250.45
840.5839	839.1085	2063.7	1169.8
840.729	841.1618	2006	1110.85
840.8741	843.2143	1953.9	1059.35
841.0192	845.2662	1929.35	1038.2
841.1643	847.3175	1902.7	1008.55
841.3095	849.368	1904.75	1013.05
841.4546	851.4179	1892.55	999.2
841.5997	853.467	1887.4	994.55
841.7448	855.5155	1891.2	994.85
841.8899	857.5633	1904.9	1013.65
842.0351	859.6105	1894.3	997.95
842.1802	861.6569	1879.25	985.25
842.3253	863.7027	1873.9	978.55
842.4704	865.7478	1857.7	963.2
842.6156	867.7922	1849.9	956.85
842.7607	869.8359	1851.65	957.35
842.9058	871.8789	1848.6	951.1
843.0509	873.9212	1880.2	953.85
843.1961	875.9629	1860.45	963.45
843.3412	878.0039	1860.75	962
843.4863	880.0441	1885.7	993.6
843.6315	882.0837	1900.75	1007.1
843.7766	884.1226	1923.45	1024.7
843.9218	886.1609	1952.5	1056.2
844.0669	888.1984	1998.8	1100.3
844.212	890.2352	2036.2	1139.25
844.3572	892.2714	2043.85	1141.7
844.5023	894.3069	2019.85	1122.2
844.6475	896.3416	1971.9	1072.15
844.7926	898.3757	1927.4	1030.7
844.9377	900.4091	1914.75	1016.6
845.0829	902.4418	1923.55	1021.65
845.228	904.4739	1930.25	1030.9
845.3732	906.5052	1938.25	1039.95
845.5183	908.5358	1928	1031.4
845.6635	910.5658	1910.3	1009.75
845.8086	912.595	1877.3	975.1
845.9538	914.6236	1841.15	943.9
846.0989	916.6515	1813.85	914.6
846.2441	918.6786	1808.15	906.25
846.3892	920.7051	1792.55	893.05
846.5344	922.7309	1794.25	895.1
846.6795	924.756	1791.6	891.4
846.8246	926.7804	1807.05	905.25
846.9698	928.8041	1811.15	910.5
847.1149	930.8272	1831.35	932.5
847.2601	932.8495	1828.95	928.2
847.4052	934.8711	1837.1	936.1
847.5504	936.892	1850.25	948.9
847.6955	938.9123	1870.6	970.9
847.8407	940.9318	1890.25	989.45
847.9858	942.9506	1896.9	993.9
848.131	944.9688	1889.75	990
848.2761	946.9862	1861.65	961.4
848.4213	949.003	1828.15	927.85
848.5664	951.019	1813.1	914.55
848.7115	953.0344	1793.15	892.3
848.8567	955.0491	1786.15	881.95
849.0018	957.063	1787.85	887.05
849.147	959.0763	1779.35	879.5
849.2921	961.0888	1777.15	874.35
849.4373	963.1007	1776.05	874.1
849.5824	965.1119	1767.7	872.8
849.7275	967.1223	1763.45	869.15
849.8727	969.1321	1757.95	864
850.0178	971.1412	1754.15	856.5
850.1629	973.1495	1751.35	852.3
850.3081	975.1572	1782.85	847.75
850.4532	977.1641	1761.55	856.55
850.5983	979.1704	1756.05	853.4
850.7435	981.1759	1757.45	853.85
850.8886	983.1808	1740.7	837.35
851.0337	985.1849	1748.7	837.55
851.1788	987.1884	1739.35	834.85
851.324	989.1911	1749.35	848.1
851.4691	991.1932	1749.85	846.1
851.6142	993.1945	1749.6	847.2
851.7593	995.1951	1752	847.7
851.9045	997.1951	1757.95	852.45
852.0496	999.1943	1751.7	849.65
852.1947	1001.1928	1754.6	850.25
852.3398	1003.1906	1759.65	860.65
852.4849	1005.1877	1778.15	874.4
852.63	1007.1841	1788.05	886.3
852.7751	1009.1798	1796.45	890.6
852.9202	1011.1748	1801.55	897.5
853.0653	1013.1691	1773.55	870.45
853.2104	1015.1627	1745.45	845.2
853.3555	1017.1556	1713.1	813.1
853.5006	1019.1477	1697.35	794.6
853.6457	1021.1392	1689.75	791.55
853.7908	1023.1299	1680.1	784.75
853.9359	1025.12	1679.1	781.6
854.081	1027.1093	1682.95	792.5
854.2261	1029.0979	1698.4	810.1
854.3712	1031.0859	1723.15	830.8
854.5163	1033.0731	1734.6	835.6
854.6613	1035.0596	1733.7	836.1
854.8064	1037.0454	1725.05	826.05
854.9515	1039.0304	1710.85	810.45
855.0965	1041.0148	1691.85	789.15
855.2416	1042.9985	1677.7	774.7
855.3867	1044.9814	1670.6	771
855.5317	1046.9636	1666.65	765.1
855.6768	1048.9452	1675.15	775.95
855.8219	1050.926	1683.35	781.35
855.9669	1052.9061	1694.6	792.85
856.112	1054.8855	1699.3	797.8
856.257	1056.8642	1700.45	796.05
856.4021	1058.8421	1695.8	792.3
856.5471	1060.8194	1702.45	796.45
856.6921	1062.7959	1702	797.95
856.8372	1064.7717	1697.6	795
856.9822	1066.7469	1696.2	792.85
857.1272	1068.7213	1708.8	803.95
857.2723	1070.695	1724.55	824.35
857.4173	1072.6679	1729.7	826.3
857.5623	1074.6402	1744.15	841.05
857.7073	1076.6117	1755	845
857.8523	1078.5826	1732.1	828.95
857.9973	1080.5527	1697.85	793.3
858.1423	1082.5221	1668.45	765.95
858.2873	1084.4908	1645.75	740.95
858.4323	1086.4587	1639.85	735.2
858.5773	1088.426	1630.8	725.85
858.7223	1090.3925	1635.35	727.3
858.8673	1092.3584	1642.5	738.45
859.0123	1094.3235	1638.05	737.8
859.1573	1096.2879	1661.65	756.8
859.3022	1098.2515	1685.05	782.6
859.4472	1100.2145	1712	809.35
859.5922	1102.1767	1736.15	829.85
859.7371	1104.1382	1778.9	877.1
859.8821	1106.099	1840.2	933
860.027	1108.0591	1886.3	985.8
860.172	1110.0185	1907.6	1003.7
860.3169	1111.9771	1955.85	1054.05
860.4619	1113.9351	1998.35	1091.35
860.6068	1115.8923	2044	1136.95
860.7517	1117.8488	2049.6	1144.85
860.8967	1119.8045	1991.65	1090.15
861.0416	1121.7596	1918.55	1014.1
861.1865	1123.7139	1829.1	929.25
861.3314	1125.6675	1781.05	876.3
861.4763	1127.6204	1794.55	890.8
861.6212	1129.5726	1804.55	900.4
861.7661	1131.524	1800.45	895.75
861.911	1133.4748	1765.6	863.5
862.0559	1135.4248	1711.3	806.7
862.2008	1137.3741	1666	762.8
862.3457	1139.3226	1645.65	739.3
862.4905	1141.2705	1645.3	740.3
862.6354	1143.2176	1662.6	753.75
862.7803	1145.164	1663.7	757.85
862.9251	1147.1097	1662.55	757.75
863.07	1149.0546	1632.45	727.1
863.2148	1150.9989	1615.45	712.75
863.3597	1152.9424	1598.15	694
863.5045	1154.8852	1588.3	682.4
863.6493	1156.8272	1574.35	672
863.7942	1158.7686	1584.3	673.3
863.939	1160.7092	1579.15	672.25
864.0838	1162.6491	1591.9	686.65
864.2286	1164.5883	1598.45	694.35
864.3734	1166.5267	1613.35	709.35
864.5182	1168.4644	1631.5	725.35
864.663	1170.4014	1671.95	762.55
864.8078	1172.3377	1705.35	803.65
864.9526	1174.2732	1754.75	851.1
865.0974	1176.2081	1838.05	932.3
865.2421	1178.1421	1961.55	1056.55
865.3869	1180.0755	2051.55	1146.95
865.5317	1182.0082	2096.75	1196.15
865.6764	1183.9401	2061.6	1156.35
865.8212	1185.8713	1961.95	1062.45
865.9659	1187.8017	1854.75	956.5
866.1106	1189.7315	1765.9	872.7
866.2554	1191.6605	1713.3	790.3
866.4001	1193.5888	1662.05	764.7
866.5448	1195.5163	1636.55	736.35
866.6895	1197.4432	1621.9	716.7
866.8342	1199.3693	1603.9	700.8
866.9789	1201.2947	1595.15	687.45
867.1236	1203.2193	1588.2	684.7
867.2683	1205.1432	1590.4	688.4
867.413	1207.0664	1586.45	682.95
867.5576	1208.9889	1589.85	683.85
867.7023	1210.9106	1591.3	688.2
867.847	1212.8316	1590.35	689.25
867.9916	1214.7519	1614.05	701.9
868.1363	1216.6715	1610.9	706.4
868.2809	1218.5903	1620.75	718.9
868.4255	1220.5084	1641.2	737.15
868.5701	1222.4257	1658.35	755.15
868.7148	1224.3424	1659.1	757.3
868.8594	1226.2583	1685.35	778.1
869.004	1228.1735	1719.6	815.3
869.1486	1230.0879	1743	840.15
869.2932	1232.0016	1786.6	883.5
869.4377	1233.9146	1820.95	915.45
869.5823	1235.8269	1833	927.25
869.7269	1237.7384	1846.55	945.35
869.8715	1239.6492	1843.15	939.95
870.016	1241.5592	1866.4	966
870.1606	1243.4686	1911.8	1006.75
870.3051	1245.3772	1979.9	1076.6
870.4496	1247.285	2048.3	1145.65
870.5941	1249.1922	2138.5	1235.05
870.7387	1251.0986	2194.6	1291.2
870.8832	1253.0042	2281.45	1376.3
871.0277	1254.9092	2339.8	1435.45
871.1722	1256.8134	2408.2	1506.15
871.3167	1258.7169	2459.45	1555.95
871.4611	1260.6196	2475.2	1573.4
871.6056	1262.5216	2473.75	1567.95
871.7501	1264.4229	2444.8	1544.6
871.8945	1266.3234	2422.8	1520.6
872.039	1268.2232	2396.8	1490.2
872.1834	1270.1223	2353.55	1446.4
872.3278	1272.0207	2319.95	1414.25
872.4723	1273.9183	2311.4	1400
872.6167	1275.8151	2307.25	1403.9
872.7611	1277.7113	2351.6	1446.75
872.9055	1279.6067	2437.6	1534.45
873.0499	1281.5014	2563.7	1658.75
873.1943	1283.3953	2720.9	1813.85
873.3386	1285.2885	2873.75	1968.6
873.483	1287.181	2978.25	2073.95
873.6274	1289.0727	3015.1	2114.45
873.7717	1290.9637	2967.4	2062.95
873.9161	1292.854	2901.15	1997.95
874.0604	1294.7435	2803.85	1901.25
874.2047	1296.6323	2712.65	1808
874.349	1298.5204	2625.8	1716.05
874.4933	1300.4077	2577.25	1669.7
874.6376	1302.2943	2550.4	1646.7
874.7819	1304.1802	2520.45	1618.5
874.9262	1306.0653	2486.2	1581.9
875.0705	1307.9497	2435.15	1530.65
875.2147	1309.8333	2404.35	1499.8
875.359	1311.7162	2360.4	1456.95
875.5032	1313.5984	2327.3	1421.1
875.6475	1315.4798	2319	1403.2
875.7917	1317.3605	2298.95	1388.2
875.9359	1319.2405	2293.25	1387.2
876.0801	1321.1197	2256.45	1350.4
876.2243	1322.9982	2198.85	1289.4
876.3685	1324.876	2118.55	1213.35
876.5127	1326.753	2036.2	1133.65
876.6569	1328.6293	1968.3	1062.55
876.801	1330.5048	1906.9	1001.95
876.9452	1332.3796	1841	938.2
877.0893	1334.2537	1818.8	891.5
877.2335	1336.127	1763.45	859.45
877.3776	1337.9996	1742.65	836.4
877.5217	1339.8714	1727.6	822.7
877.6658	1341.7426	1745.25	798.35
877.8099	1343.6129	1703.55	798.4
877.954	1345.4826	1690.05	784.5
878.0981	1347.3515	1685.25	776.1
878.2422	1349.2196	1669.55	762.45
878.3862	1351.087	1661.8	757.4
878.5303	1352.9537	1657.65	751.05
878.6743	1354.8197	1668.65	763.55
878.8184	1356.6849	1664.95	761.15
878.9624	1358.5493	1682.15	775.4
879.1064	1360.4131	1715.75	809.05
879.2504	1362.276	1750.8	847.35
879.3944	1364.1383	1764.35	860.25
879.5384	1365.9998	1773.8	863.25
879.6823	1367.8606	1771.1	864.3
879.8263	1369.7206	1755.7	850.8
879.9702	1371.5799	1750.45	844.65
880.1142	1373.4384	1743.7	838.3
880.2581	1375.2962	1719.5	815.45
880.402	1377.1533	1670.45	764.6
880.5459	1379.0096	1628.75	725.75
880.6898	1380.8652	1596.65	694.3
880.8337	1382.7201	1568.1	664.6
880.9776	1384.5742	1553.45	650
881.1215	1386.4275	1540	633.15
881.2653	1388.2802	1520.55	617.4
881.4092	1390.132	1506.7	601.85
881.553	1391.9832	1500.25	592.5
881.6968	1393.8336	1488.55	584.7
881.8406	1395.6832	1485.95	580.55
881.9844	1397.5322	1470.8	566.65
882.1282	1399.3803	1471.8	562.65
882.272	1401.2278	1463.9	558.45
882.4158	1403.0745	1452.85	550.7
882.5595	1404.9204	1449.4	545.25
882.7033	1406.7656	1440.75	535.8
882.847	1408.6101	1443.65	538.5
882.9908	1410.4538	1442.95	540.25
883.1345	1412.2968	1434.35	530
883.2782	1414.139	1437.55	533.2
883.4219	1415.9805	1440.5	536.35
883.5656	1417.8213	1454.75	545.75
883.7092	1419.6613	1473.15	569.75
883.8529	1421.5006	1494.75	591.2
883.9965	1423.3391	1528.5	622.15
884.1402	1425.1769	1572.6	668.6
884.2838	1427.0139	1632.05	726.7
884.4274	1428.8502	1715.45	808.65
884.571	1430.6858	1774.8	870.3
884.7146	1432.5206	1795.6	892.65
884.8582	1434.3547	1793.25	887.85
885.0018	1436.188	1771.2	867.6
885.1453	1438.0206	1757.1	854.05
885.2889	1439.8524	1740.5	838.1
885.4324	1441.6835	1745.5	839.65
885.5759	1443.5139	1759.9	852.1
885.7194	1445.3435	1757.8	853.15
885.8629	1447.1724	1752.7	849.65
886.0064	1449.0005	1744	843.3
886.1499	1450.8279	1742.35	838.25
886.2933	1452.6545	1726.8	824
886.4368	1454.4804	1733.05	830.7
886.5802	1456.3056	1735.6	826.25
886.7237	1458.13	1707.3	807.15
886.8671	1459.9536	1682.15	779.65
887.0105	1461.7766	1651	746.2
887.1539	1463.5987	1615.2	712.35
887.2972	1465.4202	1591	686.9
887.4406	1467.2409	1549	646.45
887.584	1469.0608	1522.85	620.45
887.7273	1470.88	1493.4	589.6
887.8706	1472.6984	1478.05	574.2
888.0139	1474.5161	1459.6	554.45
888.1572	1476.3331	1450.85	550.4
888.3005	1478.1493	1440.05	534.6
888.4438	1479.9648	1436.8	533.9
888.5871	1481.7795	1434.35	530.3
888.7303	1483.5935	1432.5	528.4
888.8736	1485.4067	1433.25	532.3
889.0168	1487.2192	1433.55	530.85
889.16	1489.031	1430.9	526.45
889.3032	1490.842	1432.9	530.65
889.4464	1492.6522	1432.8	532.6
889.5896	1494.4618	1427.4	523.45
889.7327	1496.2705	1409.45	505.4
889.8759	1498.0785	1406.7	503.9
890.019	1499.8858	1412.9	509.25
890.1622	1501.6924	1402.05	498.5
890.3053	1503.4981	1402.95	499.9
890.4484	1505.3032	1392.1	489.25
890.5914	1507.1075	1380.25	477.45
890.7345	1508.911	1378.35	475.8
890.8776	1510.7138	1377.95	475.85
891.0206	1512.5159	1363.7	460.45
891.1637	1514.3172	1361.7	459.35
891.3067	1516.1178	1354.85	451.05
891.4497	1517.9176	1348.55	443.3
891.5927	1519.7166	1349.05	447.95
891.7357	1521.515	1349.5	441.7
891.8786	1523.3126	1341.5	440.3
892.0216	1525.1094	1338.7	435.8
892.1645	1526.9055	1327.25	429.1
892.3074	1528.7008	1329	429.1
892.4503	1530.4954	1328.45	421.25
892.5932	1532.2893	1319.25	419.25
892.7361	1534.0824	1322.9	413.9
892.879	1535.8747	1316.15	416.1
893.0218	1537.6663	1318.8	417.9
893.1647	1539.4572	1317.35	415.95
893.3075	1541.2473	1317.75	417.7
893.4503	1543.0367	1322.4	422.9
893.5931	1544.8253	1325.4	421.7
893.7359	1546.6132	1325.3	419.45
893.8787	1548.4003	1337.55	427.9
894.0214	1550.1867	1335.1	427.65
894.1642	1551.9723	1348.05	445.1
894.3069	1553.7572	1358.95	458.6
894.4496	1555.5414	1371.45	471.7
894.5923	1557.3247	1394.1	496.1
894.735	1559.1074	1427.7	533.1
894.8777	1560.8893	1460.95	563.4
895.0204	1562.6705	1494.5	596
895.163	1564.4509	1514.5	617.45
895.3056	1566.2305	1521.55	626.65
895.4482	1568.0094	1516.45	620.05
895.5908	1569.7876	1513.05	618.5
895.7334	1571.565	1510.45	615.4
895.876	1573.3417	1505.9	609.5
896.0186	1575.1176	1517.9	621.2
896.1611	1576.8928	1521.55	626.1
896.3036	1578.6672	1536.95	644.75
896.4461	1580.4409	1564.05	672.8
896.5886	1582.2138	1589.1	692.2
896.7311	1583.986	1622.1	727.25
896.8736	1585.7575	1654.8	759.35
897.0161	1587.5282	1680.5	785.15
897.1585	1589.2981	1695.8	803.1
897.3009	1591.0673	1708.4	815.5
897.4433	1592.8358	1721.95	831
897.5857	1594.6035	1724.6	827.55
897.7281	1596.3704	1725.15	830.1
897.8705	1598.1366	1700.1	806.8
898.0128	1599.9021	1685.95	793.2
898.1551	1601.6668	1672.15	776.3
898.2975	1603.4308	1667.2	769.85
898.4398	1605.194	1672.45	772.55
898.5821	1606.9564	1697.4	806.95
898.7243	1608.7182	1747.45	856
898.8666	1610.4791	1815.95	927.45
899.0088	1612.2394	1891.25	1003.1
899.1511	1613.9988	1968.6	1079.75
899.2933	1615.7576	2019.15	1129.35
899.4355	1617.5156	2036	1137.4
899.5776	1619.2728	1999	1102.95
899.7198	1621.0293	1918.75	1024
899.862	1622.785	1818.45	922.2
900.0041	1624.54	1723.6	828.4
900.1462	1626.2942	1629.15	737.95
900.2883	1628.0477	1553.3	658.2
900.4304	1629.8005	1490.7	595.4
900.5725	1631.5525	1434.7	541.75
900.7145	1633.3037	1390.1	499
900.8566	1635.0542	1359	467.95
900.9986	1636.804	1328.25	436.85
901.1406	1638.553	1384.6	423.5
901.2826	1640.3013	1294.9	402.75
901.4245	1642.0488	1279.15	385.65
901.5665	1643.7955	1267.1	373.9
901.7085	1645.5416	1250.8	360.45
901.8504	1647.2868	1249.75	359.9
901.9923	1649.0313	1247.55	351.65
902.1342	1650.7751	1246.35	349.6
902.2761	1652.5181	1236.3	347.05
902.4179	1654.2604	1238.35	348.25
902.5598	1656.0019	1240.4	349.2
902.7016	1657.7427	1256.5	362.7
902.8434	1659.4828	1277.25	386.1
902.9852	1661.222	1304.65	410.4
903.127	1662.9606	1325.9	432
903.2687	1664.6984	1342.25	447.8
903.4105	1666.4354	1346	448
903.5522	1668.1717	1317.75	420.7
903.6939	1669.9072	1276.6	381.5
903.8356	1671.642	1248.65	352.1
903.9773	1673.3761	1218.9	325.85
904.119	1675.1094	1196.45	303.45
904.2606	1676.8419	1184.6	289.65
904.4022	1678.5737	1172.45	278.75
904.5439	1680.3048	1163.35	267.45
904.6855	1682.0351	1161.3	267.45
904.827	1683.7646	1154.85	257.05
904.9686	1685.4934	1150.6	257.45
905.1101	1687.2215	1143.2	250
905.2517	1688.9488	1136.05	243.1
905.3932	1690.6754	1134.55	244.55
905.5347	1692.4012	1131.35	239.1
905.6761	1694.1263	1132.75	239.85
905.8176	1695.8506	1132.6	238.75
905.9591	1697.5742	1129.1	237.15
906.1005	1699.297	1122.65	233.05
906.2419	1701.0191	1117.5	227.3
906.3833	1702.7404	1119.95	228.15
906.5246	1704.461	1118.1	223.55
906.666	1706.1808	1117.75	222.05
906.8073	1707.8999	1110.95	216.85
906.9487	1709.6182	1111.35	220.15
907.09	1711.3358	1108.35	217.75
907.2313	1713.0527	1107.3	217.65
907.3725	1714.7688	1109.75	216.3
907.5138	1716.4841	1108.9	216.6
907.655	1718.1987	1104.25	206.35
907.7962	1719.9126	1103	213.4
907.9374	1721.6257	1100.05	208.65
908.0786	1723.338	1102.05	212.45
908.2198	1725.0496	1102.7	212
908.3609	1726.7605	1102.05	209.15
908.502	1728.4706	1096.5	204
908.6431	1730.18	1099.65	206.1
908.7842	1731.8886	1089.6	201.35
908.9253	1733.5964	1115	205.3
909.0664	1735.3036	1098.15	205.8
909.2074	1737.0099	1094.05	203.35
909.3484	1738.7156	1092.4	204.95
909.4894	1740.4204	1097.4	205
909.6304	1742.1246	1093.55	203.45
909.7714	1743.8279	1089.8	199.55
909.9123	1745.5306	1088.45	201.65
910.0532	1747.2325	1089.2	200.35
910.1941	1748.9336	1090.5	198.7
910.335	1750.634	1090.35	196.2
910.4759	1752.3336	1088.8	199.2
910.6168	1754.0325	1084.55	197.65
910.7576	1755.7307	1088.65	200.7
910.8984	1757.4281	1084.7	194.2
911.0392	1759.1247	1098.2	197.65
911.18	1760.8206	1093	197.45
911.3208	1762.5158	1089.9	193.8
911.4615	1764.2102	1088.15	195.45
911.6022	1765.9039	1082.15	191.55
911.7429	1767.5968	1086.05	194.25
911.8836	1769.289	1082.85	194.2
912.0243	1770.9804	1081.75	189.45
912.1649	1772.6711	1087.4	193.3
912.3056	1774.361	1087.2	192.55
912.4462	1776.0502	1079.1	186.85
912.5868	1777.7386	1083.35	188.15
912.7274	1779.4263	1084.4	192.65
912.8679	1781.1132	1079.95	190.7
913.0084	1782.7994	1077.9	187.9
913.149	1784.4849	1080.6	193.6
913.2895	1786.1696	1094.35	185.3
913.4299	1787.8535	1076.4	188.55
913.5704	1789.5367	1073.15	184.35
913.7108	1791.2192	1072.25	185.35
913.8513	1792.9009	1096.55	179.95
913.9917	1794.5818	1074.65	182.2
914.132	1796.2621	1071.1	180.35
914.2724	1797.9415	1073.25	182.25
914.4128	1799.6202	1072.35	181.15
914.5531	1801.2982	1075.15	183.1
914.6934	1802.9755	1071.8	178
914.8337	1804.6519	1074.6	181.45
914.9739	1806.3277	1070.3	180.4
915.1142	1808.0027	1067.3	180.5
915.2544	1809.6769	1065.05	175.4
915.3946	1811.3504	1069.95	184.7
915.5348	1813.0231	1069.2	178.4
915.675	1814.6951	1068.25	178.7
915.8151	1816.3664	1069	176.5
915.9553	1818.0369	1063.85	172.65
916.0954	1819.7067	1069.95	179.65
916.2355	1821.3757	1066.7	174.65
916.3755	1823.044	1066.8	174.15
916.5156	1824.7115	1069.2	178.7
916.6556	1826.3783	1063.2	171.8
916.7956	1828.0443	1059.75	170.25
916.9356	1829.7096	1061.8	170.9
917.0756	1831.3741	1063.35	169.35
917.2155	1833.0379	1060.1	172.3
917.3555	1834.701	1061.45	170.65
917.4954	1836.3633	1060.05	172.45
917.6353	1838.0248	1054.7	166.25
917.7751	1839.6856	1056.4	166.6
917.915	1841.3457	1059.75	169.35
918.0548	1843.005	1064.25	172.15
918.1946	1844.6636	1057.7	166.7
918.3344	1846.3214	1056.85	168.7
918.4742	1847.9785	1056.4	167.55
918.6139	1849.6349	1059.25	165.95
918.7537	1851.2904	1067.55	165.8
918.8934	1852.9453	1057.5	165.1
919.0331	1854.5994	1062.3	169.65
919.1727	1856.2528	1063.15	167.65
919.3124	1857.9054	1056.7	162.05
919.452	1859.5572	1049.25	158.9
919.5916	1861.2083	1051.6	161.85
919.7312	1862.8587	1053.6	162.6
919.8708	1864.5084	1056.35	163.55
920.0103	1866.1572	1058.45	167.1
920.1498	1867.8054	1056.5	165.35
920.2893	1869.4528	1052.5	159.1
920.4288	1871.0994	1051.2	160.35
920.5683	1872.7453	1050.8	160.4
920.7077	1874.3905	1058.65	159.95
920.8471	1876.0349	1053.15	161.75
920.9865	1877.6786	1054.7	161.7
921.1259	1879.3215	1051.9	160.6
921.2653	1880.9637	1051.15	161.55
921.4046	1882.6051	1050.75	162.1
921.5439	1884.2458	1048.3	156.65
921.6832	1885.8858	1047.75	156.65
921.8225	1887.525	1041.45	149.1
921.9617	1889.1634	1045.4	151.55
922.101	1890.8011	1048.2	154.8
922.2402	1892.4381	1044.8	153.45
922.3794	1894.0743	1046.85	156.15
922.5185	1895.7098	1046.8	157.25
922.6577	1897.3446	1046.9	154.85
922.7968	1898.9786	1047.9	152
922.9359	1900.6118	1041.4	151.7
923.075	1902.2443	1044.9	151.15
923.214	1903.8761	1045.95	154.5
923.3531	1905.5071	1041.95	150.05
923.4921	1907.1374	1044.2	151.7
923.6311	1908.7669	1043.8	153.6
923.77	1910.3957	1040.5	151.25
923.909	1912.0237	1038.8	149.25
924.0479	1913.651	1044.2	153.15
924.1868	1915.2776	1041.3	151.85
924.3257	1916.9034	1037.7	148.95
924.4646	1918.5285	1038.4	149
924.6034	1920.1528	1037.1	147.95
924.7422	1921.7764	1041.5	151.05
924.881	1923.3992	1040.1	149.05
925.0198	1925.0213	1034.85	144.25
925.1586	1926.6427	1035.2	146.4
925.2973	1928.2633	1242.7	138.05
925.436	1929.8832	1039.75	147.25
925.5747	1931.5023	1034.1	143.15
925.7134	1933.1207	1036.55	145.4
925.852	1934.7383	1034.3	143.15
925.9906	1936.3552	1037	149.15
926.1292	1937.9714	1032.95	141.45
926.2678	1939.5868	1035.45	144
926.4064	1941.2015	1034.95	143
926.5449	1942.8154	1033.65	143
926.6834	1944.4286	1027.5	137.35
926.8219	1946.041	1055.4	142.65
926.9604	1947.6528	1035.65	139.7
927.0988	1949.2637	1031.35	141.75
927.2372	1950.8739	1028.6	137.55
927.3756	1952.4834	1027.25	138.5
927.514	1954.0921	1029.6	139
927.6523	1955.7001	1030.25	138.95
927.7907	1957.3074	1026.25	137.55
927.929	1958.9139	1023.1	136.15
928.0673	1960.5197	1025.7	137.75
928.2055	1962.1247	1026.3	137.25
928.3438	1963.729	1024.45	138.3
928.482	1965.3325	1029.85	138.35
928.6202	1966.9353	1018.7	130.65
928.7584	1968.5374	1022.55	134.25
928.8965	1970.1387	1024.3	136.65
929.0346	1971.7393	1024	134.95
929.1727	1973.3392	1024.8	137.95
929.3108	1974.9383	1019.9	134
929.4489	1976.5366	1022.25	135.45
929.5869	1978.1342	1020.9	134.65
929.7249	1979.7311	1021.45	133.5
929.8629	1981.3273	1022.5	134.45
930.0009	1982.9227	1016.65	129.55
930.1388	1984.5173	1017.55	133.5
930.2767	1986.1112	1019.85	135.45
930.4146	1987.7044	1020.15	136.05
930.5525	1989.2968	1021.6	135.05
930.6904	1990.8885	1015.4	127.1
930.8282	1992.4795	1018.7	133.15
930.966	1994.0697	1011.55	127.3
931.1038	1995.6592	1017.55	132.75
931.2415	1997.2479	1018.7	133
931.3793	1998.8359	1019.75	135.75
931.517	2000.4232	1013.65	131.4
931.6547	2002.0097	1008.65	127.4
931.7923	2003.5955	1012.75	130.6
931.93	2005.1805	1016.4	133.55
932.0676	2006.7648	1015	131.55
932.2052	2008.3484	1014.85	133.4
932.3427	2009.9312	1013.75	128.1
932.4803	2011.5133	1010.3	130.05
932.6178	2013.0946	1011.8	129.05
932.7553	2014.6752	1007.9	126.95
932.8928	2016.2551	1009.6	125.05
933.0302	2017.8342	1013.25	129
933.1676	2019.4126	1005.55	122.2
933.305	2020.9902	1006.5	126.1
933.4424	2022.5672	1008.1	125.1
933.5798	2024.1433	1014.6	129.1
933.7171	2025.7188	1007.2	127.75
933.8544	2027.2935	1006.6	123.65
933.9917	2028.8674	1006.1	125.2
934.129	2030.4406	1006.25	127.95
934.2662	2032.0131	1002.1	123.2
934.4034	2033.5849	1012.65	124.75
934.5406	2035.1559	1003.65	122.65
934.6778	2036.7261	1007.45	124.5
934.8149	2038.2957	1007.8	123.25
934.952	2039.8645	1011.9	129.35
935.0891	2041.4325	1011.95	124.9
935.2262	2042.9998	1003.25	120.6
935.3632	2044.5664	1007.5	123.55
935.5002	2046.1323	1008.45	129.5
935.6372	2047.6974	999.4	118.9
935.7742	2049.2617	1005	124.4
935.9111	2050.8254	1008.2	121.5
936.048	2052.3883	1008.45	125.5
936.1849	2053.9504	1004.95	122.35
936.3218	2055.5118	1006.55	123.2
936.4586	2057.0725	1009.45	125
936.5955	2058.6325	1003.85	124.35
936.7323	2060.1917	1002.25	121.45
936.869	2061.7502	1007.95	124.45
937.0058	2063.3079	1001.85	122.95
937.1425	2064.8649	1007.35	123.95
937.2792	2066.4212	1003.15	119.9
937.4159	2067.9767	1006.55	125.25
937.5525	2069.5315	1005.95	122.5
937.6891	2071.0856	1004.85	123.85
937.8257	2072.6389	1002.15	120
937.9623	2074.1915	1003.35	121.45
938.0989	2075.7433	1002.5	120.4
938.2354	2077.2945	1001.2	120.15
938.3719	2078.8448	1000.7	119.6
938.5084	2080.3945	1007.7	122.95
938.6448	2081.9434	1003.6	120.8
938.7812	2083.4916	1004.2	120.65
938.9176	2085.039	1005.35	116.3
939.054	2086.5857	1005.2	119.35
939.1903	2088.1317	1007.4	119.85
939.3267	2089.677	1008	122.35
939.463	2091.2215	1004.55	117.4
939.5992	2092.7652	1004.15	115.95
939.7355	2094.3083	1008.9	124
939.8717	2095.8506	1003.55	119.25
940.0079	2097.3921	1002.75	120.65
940.1441	2098.933	1004.35	119.25
940.2802	2100.4731	1001	117.65
940.4163	2102.0124	1023.65	119.4
940.5524	2103.5511	1005.3	121.5
940.6885	2105.089	1003.5	117.75
940.8245	2106.6261	1005.1	120.3
940.9606	2108.1626	1001.45	117.7
941.0965	2109.6983	1034.4	123.3
941.2325	2111.2332	1005.05	120.9
941.3684	2112.7675	1004.95	118.25
941.5044	2114.301	1003.65	117.25
941.6403	2115.8337	1006.95	121.7
941.7761	2117.3657	1001.85	116.55
941.912	2118.897	1007.5	122.65
942.0478	2120.4276	1007.3	114.2
942.1835	2121.9575	1006.1	121.2
942.3193	2123.4866	1007.3	120.6
942.455	2125.0149	1004.25	118.25
942.5907	2126.5426	1000.4	116.35
942.7264	2128.0695	1001.25	115.35
942.8621	2129.5956	999.05	118.85
942.9977	2131.1211	1001.7	119.05
943.1333	2132.6458	999.05	116.4
943.2689	2134.1698	1003.05	118.4
943.4044	2135.693	1004.4	116.55
943.54	2137.2155	999.95	114.05
943.6755	2138.7373	1001	114.8
943.8109	2140.2584	1000.5	117.6
943.9464	2141.7787	1003.55	116.65
944.0818	2143.2983	995.7	118
944.2172	2144.8171	995.95	117.75
944.3526	2146.3353	998.95	114.9
944.4879	2147.8527	997.2	117.05
944.6232	2149.3693	1000.95	117.7
944.7585	2150.8853	998.85	115.55
944.8938	2152.4005	1003.35	118.8
945.029	2153.9149	1001.4	115.95
945.1642	2155.4287	998.65	113.55
945.2994	2156.9417	1000.85	115.8
945.4346	2158.454	998.2	112.2
945.5697	2159.9655	993.85	111.65
945.7048	2161.4764	999.15	117.15
945.8399	2162.9865	996.1	114.05
945.9749	2164.4958	996.85	113.85
946.1099	2166.0045	997.9	111.1
946.2449	2167.5124	996.55	115.5
946.3799	2169.0195	997.7	114.25
946.5148	2170.526	997.1	111.6
946.6498	2172.0317	993.75	108.85
946.7846	2173.5367	998.25	115.1
946.9195	2175.0409	991.25	107.85
947.0543	2176.5445	993.5	111.6
947.1891	2178.0473	995.9	110.65
947.3239	2179.5494	997	110.05
947.4587	2181.0507	996.2	113.25
947.5934	2182.5513	993.95	113.35
947.7281	2184.0512	994.4	108
947.8628	2185.5504	993.9	110.9
947.9974	2187.0488	991.4	109.65
948.132	2188.5465	993.6	111.1
948.2666	2190.0435	992.1	110.6
948.4012	2191.5397	995.95	110.25
948.5357	2193.0353	992	108.95
948.6702	2194.5301	992.65	109
948.8047	2196.0241	996.35	110.1
948.9392	2197.5175	995.4	109.8
949.0736	2199.0101	997.05	107.2
949.208	2200.502	990.9	104.65
949.3424	2201.9931	989.6	106.15
949.4767	2203.4835	991.65	107.55
949.611	2204.9733	1005.15	106.45
949.7453	2206.4622	989.8	107.2
949.8796	2207.9505	995.7	113.1
950.0138	2209.438	985.8	106.4
950.148	2210.9248	989.75	105.7
950.2822	2212.4109	991.3	110.35
950.4164	2213.8962	991.95	107
950.5505	2215.3809	993.15	105.05
950.6846	2216.8648	992	106.15
950.8186	2218.3479	994.75	104.5
950.9527	2219.8304	993.9	103.3
951.0867	2221.3121	992.6	104.05
951.2207	2222.7931	988.8	103.5
951.3546	2224.2733	990.1	105.1
951.4886	2225.7529	991.3	106.55
951.6225	2227.2317	989.25	104.15
951.7563	2228.7098	980.9	100.55
951.8902	2230.1872	984	101.85
952.024	2231.6638	983.25	103.3
952.1578	2233.1397	989.55	103.7
952.2916	2234.6149	981.3	98.8
952.4253	2236.0894	986.95	105.6
952.559	2237.5632	994.3	100.85
952.6927	2239.0362	984.45	100.85
952.8263	2240.5085	983.25	98.75
952.9599	2241.9801	988.15	102.75
953.0935	2243.4509	983.6	100.6
953.2271	2244.921	985.05	101.1
953.3606	2246.3904	987.8	100.6
953.4941	2247.8591	987.1	104.95
953.6276	2249.3271	985.35	99.65
953.7611	2250.7943	984.9	100.45
953.8945	2252.2608	983.05	98.55
954.0279	2253.7266	980.8	95.6
954.1612	2255.1917	980.95	96.35
954.2946	2256.656	983.15	99.05
954.4279	2258.1197	979.3	97.1
954.5612	2259.5826	982.75	97.5
954.6944	2261.0447	983.55	98.05
954.8276	2262.5062	983.75	97.3
954.9608	2263.9669	983.15	94.95
955.094	2265.4269	982.35	99.9
955.2271	2266.8862	978.2	96.5
955.3602	2268.3448	979.1	95.05
955.4933	2269.8026	979.4	96.3
955.6264	2271.2598	980.4	96
955.7594	2272.7162	976.2	94.05
955.8924	2274.1719	980.7	96.05
956.0253	2275.6268	980.4	95.15
956.1583	2277.0811	983	97.5
956.2912	2278.5346	981	99.7
956.4241	2279.9874	978	95.95
956.5569	2281.4395	976.2	95.95
956.6897	2282.8908	980.05	91.65
956.8225	2284.3414	980.55	96.15
956.9553	2285.7914	975	90.7
957.088	2287.2406	983.9	98.3
957.2207	2288.689	980.6	92.6
957.3534	2290.1368	979.95	93.95
957.486	2291.5838	980.7	92.75
957.6186	2293.0302	981.1	93.2
957.7512	2294.4758	979.35	94.15
957.8838	2295.9206	978.1	90.6
958.0163	2297.3648	973.55	90.6
958.1488	2298.8082	975.95	92.95
958.2813	2300.251	974	89.15
958.4137	2301.693	978.2	90.5
958.5461	2303.1343	981.85	94.55
958.6785	2304.5748	977.15	92.2
958.8108	2306.0147	972.75	91.4
958.9432	2307.4538	977.2	92.35
959.0754	2308.8922	971.85	92.15
959.2077	2310.3299	974.9	92
959.3399	2311.7669	972.65	90.4
959.4721	2313.2031	974.55	90.4
959.6043	2314.6387	973.8	90.4
959.7365	2316.0735	972.5	89.3
959.8686	2317.5076	974.5	89.75
960.0006	2318.941	973.25	87.7
960.1327	2320.3737	973.9	88.55
960.2647	2321.8056	977.6	88.5
960.3967	2323.2369	973.8	88.8
960.5287	2324.6674	978.8	93.5
960.6606	2326.0972	983.65	96.1
960.7925	2327.5263	978.4	95.55
960.9244	2328.9547	983	97.35
961.0562	2330.3823	984.9	99.75
961.1881	2331.8092	981.4	92.9
961.3198	2333.2355	976.3	91.4
961.4516	2334.661	973.6	89.6
961.5833	2336.0858	974.5	86.25
961.715	2337.5098	971.95	85.15
961.8467	2338.9332	969.2	84.35
961.9783	2340.3558	974.75	89
962.1099	2341.7778	966.9	81.55
962.2415	2343.199	969.85	85.65
962.373	2344.6195	968.05	81.6
962.5045	2346.0393	970.05	89.15
962.636	2347.4583	968.85	83.1
962.7675	2348.8767	967.6	80.6
962.8989	2350.2943	971.55	83.55
963.0303	2351.7113	970.85	83.95
963.1617	2353.1275	973.3	85.8
963.293	2354.543	995.5	84.7
963.4243	2355.9578	968.6	79.15
963.5556	2357.3718	969.25	84.45
963.6868	2358.7852	972.65	86.95
963.818	2360.1978	967.8	84.5
963.9492	2361.6098	970.5	87
964.0803	2363.021	972.7	83.85
964.2114	2364.4315	969.65	84.75
964.3425	2365.8413	971.35	81.85
964.4736	2367.2504	967.7	82.9
964.6046	2368.6587	967	83.7
964.7356	2370.0664	963.65	79.9
964.8666	2371.4733	964.5	79.6
964.9975	2372.8795	966.9	80.1
965.1284	2374.285	969.3	83.6
965.2593	2375.6899	968.95	83.05
965.3901	2377.0939	963.75	76.9
965.5209	2378.4973	964.65	78.75
965.6517	2379.9	966.95	80.4
965.7825	2381.3019	968.9	82.25
965.9132	2382.7032	966.95	82.55
966.0439	2384.1037	964.9	80.75
966.1745	2385.5035	962.05	79.2
966.3051	2386.9027	964	81.5
966.4357	2388.3011	964.7	75.75
966.5663	2389.6987	963.35	78.8
966.6968	2391.0957	962.45	77.65
966.8273	2392.492	961.8	78.8
966.9578	2393.8876	965.55	79.7
967.0882	2395.2824	961.45	73.6
967.2186	2396.6765	968	80.95
967.349	2398.07	965.65	78.3
967.4793	2399.4627	962.8	74.25
967.6097	2400.8547	961.15	74
967.7399	2402.246	967.3	76.75
967.8702	2403.6366	963.9	75.45
968.0004	2405.0265	961.85	76.6
968.1306	2406.4156	967.05	78.2
968.2607	2407.8041	962.7	73.5
968.3909	2409.1918	965.65	75.05
968.521	2410.5789	964.1	76.35
968.651	2411.9652	963.45	72.85
968.781	2413.3508	964.8	77.5
968.911	2414.7358	963.95	76.8
969.041	2416.12	959.4	75
969.1709	2417.5035	961.5	76.4
969.3008	2418.8863	961	74.9
969.4307	2420.2684	962.4	76.45
969.5606	2421.6497	961.9	74.75
969.6904	2423.0304	958.6	73.5
969.8201	2424.4104	959.75	72.35
969.9499	2425.7896	966.2	73.8
970.0796	2427.1682	960.25	73.55
970.2093	2428.546	959	72.5
970.3389	2429.9232	955.95	67.2
970.4685	2431.2996	957.5	69.35
970.5981	2432.6753	958.4	71.95
970.7277	2434.0503	958	70.1
970.8572	2435.4246	959.4	71.45
970.9867	2436.7982	958.25	68.55
971.1161	2438.1711	960.95	73.85
971.2456	2439.5433	958.9	70.75
971.375	2440.9148	957.6	71.05
971.5043	2442.2856	954.8	69.6
971.6336	2443.6557	958.25	69.8
971.7629	2445.025	958.4	72.25
971.8922	2446.3937	953.9	66.9
972.0214	2447.7617	956.45	70
972.1506	2449.1289	951.85	65.15
972.2798	2450.4955	957.65	69.4
972.4089	2451.8613	955.7	69.9
972.538	2453.2265	956.6	71.8
972.6671	2454.5909	955.5	67.5
972.7961	2455.9546	956.05	68.55
972.9251	2457.3177	952.2	65
973.0541	2458.68	953.7	65.4
973.1831	2460.0416	954.85	67.05
973.312	2461.4025	953.85	66.65
973.4408	2462.7627	963.8	65.15
973.5697	2464.1222	951.45	69.25
973.6985	2465.4811	952.55	68.2
973.8273	2466.8392	950.55	66.1
973.956	2468.1966	954.4	69.1
974.0847	2469.5533	956.3	66.55
974.2134	2470.9093	953.95	65.6
974.3421	2472.2645	952.05	66.25
974.4707	2473.6191	952.65	64.7
974.5993	2474.973	951.4	64.35
974.7278	2476.3262	954	66.35
974.8563	2477.6787	952.6	67.2
974.9848	2479.0305	952.8	69.4
975.1132	2480.3816	954.45	68.85
975.2417	2481.7319	953.75	70.75
975.37	2483.0816	956	68.3
975.4984	2484.4306	953.4	66.6
975.6267	2485.7789	952	67.45
975.755	2487.1264	951.65	64.7
975.8833	2488.4733	947.7	64.85
976.0115	2489.8195	966.2	65.4
976.1397	2491.165	955.65	66.5
976.2678	2492.5097	951.2	63
976.3959	2493.8538	949.95	66.2
976.524	2495.1972	949.6	63.65
976.6521	2496.5398	951.2	66.4
976.7801	2497.8818	951.95	64.55
976.9081	2499.2231	948.1	60.5
977.036	2500.5637	953.3	66.6
977.164	2501.9035	946.95	59.5
977.2918	2503.2427	951.2	60.9
977.4197	2504.5812	948.55	62.4
977.5475	2505.919	950.05	62.65
977.6753	2507.256	949.25	64.25
977.8031	2508.5924	949.5	63.2
977.9308	2509.9281	955.55	64.9
978.0585	2511.2631	950.35	62.6
978.1861	2512.5974	945.8	62.8
978.3137	2513.9309	946.65	61
978.4413	2515.2638	973.5	62.1
978.5689	2516.596	949.4	64.35
978.6964	2517.9275	948.15	61.4
978.8239	2519.2583	947.4	63.45
978.9513	2520.5884	948.35	59.75
979.0788	2521.9178	947.9	61.65
979.2062	2523.2465	943.25	58.35
979.3335	2524.5745	943.6	57.9
979.4608	2525.9018	945.9	60.75
979.5881	2527.2284	942.75	57.8
979.7154	2528.5543	943.75	59.25
979.8426	2529.8796	946.1	61.65
979.9698	2531.2041	944.9	60.15
980.0969	2532.5279	944.55	61.6
980.224	2533.851	942.75	57.95
980.3511	2535.1735	946.05	59.8
980.4781	2536.4952	945.4	58.7
980.6052	2537.8163	947.9	62.4
980.7321	2539.1366	944.3	58.5
980.8591	2540.4562	944	56.8
980.986	2541.7752	945.6	60.05
981.1129	2543.0935	946	61.55
981.2397	2544.411	948.9	63
981.3665	2545.7279	941.85	57.6
981.4933	2547.0441	945.5	60.85
981.62	2548.3596	945.25	57.35
981.7467	2549.6744	942.4	57.2
981.8734	2550.9885	952.15	59.75
982.0001	2552.3019	942.75	57.85
982.1267	2553.6146	943.5	57.1
982.2532	2554.9266	944.45	58.85
982.3798	2556.2379	942.7	56.2
982.5063	2557.5485	941.15	58.65
982.6327	2558.8585	949.55	55.85
982.7592	2560.1677	944.9	56.45
982.8856	2561.4762	941.85	57.2
983.0119	2562.7841	947.4	59.25
983.1383	2564.0913	942.8	58.45
983.2646	2565.3977	939.9	54.05
983.3908	2566.7035	940.9	55.05
983.517	2568.0086	943.4	54.55
983.6432	2569.313	940.75	55.4
983.7694	2570.6167	945.9	55.75
983.8955	2571.9197	938.35	53.2
984.0216	2573.222	942.45	53.2
984.1476	2574.5236	943.3	54.6
984.2737	2575.8246	946.3	59.4
984.3996	2577.1248	945.05	57.25
984.5256	2578.4244	940.15	54.95
984.6515	2579.7232	941.45	56.45
984.7774	2581.0214	965.45	54.6
984.9032	2582.3189	939.65	55.15
985.029	2583.6157	945.35	55.45
985.1548	2584.9118	941.4	53.7
985.2806	2586.2072	940.05	56.5
985.4063	2587.5019	942.1	55.7
985.5319	2588.7959	942.45	56.65
985.6576	2590.0893	941.5	54.85
985.7832	2591.3819	939.55	54.45
985.9087	2592.6739	939.85	56.8
986.0343	2593.9652	942.05	56.65
986.1597	2595.2557	943	58.4
986.2852	2596.5456	943.9	56
986.4106	2597.8348	940.5	57.75
986.536	2599.1234	940.45	56.3
986.6614	2600.4112	942.25	56.25
986.7867	2601.6983	945.2	56.4
986.912	2602.9848	943.2	57.35
987.0372	2604.2705	945.15	53.4
987.1624	2605.5556	939.45	54.75
987.2876	2606.84	937.45	54.15
987.4128	2608.1237	938.9	52.35
987.5379	2609.4067	938.8	53.4
987.6629	2610.689	943.85	49.55
987.788	2611.9707	944.65	54.7
987.913	2613.2516	943.5	52.8
988.0379	2614.5319	938.05	52.95
988.1629	2615.8115	934.95	47.9
988.2878	2617.0903	936.75	50.4
988.4126	2618.3685	936.6	51.45
988.5375	2619.6461	938.85	55.4
988.6622	2620.9229	936.3	51.75
988.787	2622.199	934.55	50.4
988.9117	2623.4745	935.75	51.2
989.0364	2624.7493	932.4	50
989.161	2626.0234	935.85	50.6
989.2857	2627.2968	935.3	49.85
989.4102	2628.5695	936.75	50.35
989.5348	2629.8415	936.05	50.25
989.6593	2631.1128	937.45	50.45
989.7837	2632.3835	935.15	50.65
989.9082	2633.6535	933.45	49.9
990.0326	2634.9228	933.75	50.5
990.1569	2636.1914	933.45	47.65
990.2812	2637.4593	942.3	50.2
990.4055	2638.7265	935.3	48
990.5298	2639.9931	934.45	48.65
990.654	2641.259	935.5	47.7
990.7782	2642.5242	936.4	49.3
990.9023	2643.7887	935.85	52.25
991.0264	2645.0525	934.8	50.05
991.1505	2646.3156	934.35	50.5
991.2745	2647.5781	930.55	44.75
991.3985	2648.8398	931.75	48.95
991.5225	2650.1009	943.9	50.75
991.6464	2651.3613	932.55	46.85
991.7703	2652.6211	928.7	44.4
991.8942	2653.8801	930.2	46.3
992.018	2655.1385	933.5	45.2
992.1418	2656.3961	931.45	46.4
992.2655	2657.6531	931.35	47.15
992.3892	2658.9094	930.6	46.7
992.5129	2660.1651	929.55	46.1
992.6366	2661.42	931.15	45.5
992.7602	2662.6743	932.05	45.7
992.8837	2663.9279	929.9	46.1
993.0073	2665.1808	934.7	50.25
993.1307	2666.433	935.55	50.65
993.2542	2667.6846	933.05	50
993.3776	2668.9354	936.7	48.45
993.501	2670.1856	933.45	45.9
993.6244	2671.4351	932	49.9
993.7477	2672.6839	932.25	47.35
993.8709	2673.9321	933.15	49.9
993.9942	2675.1795	931.55	48
994.1174	2676.4263	930.95	45.85
994.2405	2677.6724	929.65	47.25
994.3637	2678.9179	933.05	47.65
994.4868	2680.1626	931.6	47.4
994.6098	2681.4067	932.8	47.65
994.7328	2682.6501	930.3	45.9
994.8558	2683.8928	932.8	48.75
994.9788	2685.1348	929.35	48.65
995.1017	2686.3761	930.1	44.35
995.2245	2687.6168	931.1	48.8
995.3474	2688.8568	927.95	45.05
995.4702	2690.0961	928.65	45.2
995.5929	2691.3348	928.05	45.5
995.7156	2692.5727	927.35	43.7
995.8383	2693.81	931.3	47.45
995.961	2695.0466	926.1	43.85
996.0836	2696.2826	928.3	42.35
996.2062	2697.5178	929.65	42.45
996.3287	2698.7524	927.75	43.2
996.4512	2699.9863	928.25	42.25
996.5737	2701.2195	925.35	42.35
996.6961	2702.452	928.65	44.6
996.8185	2703.6839	928.9	43.85
996.9408	2704.9151	928.85	47.2
997.0631	2706.1456	928.25	45.1
997.1854	2707.3755	929	44.9
997.3077	2708.6046	933.85	46.25
997.4299	2709.8331	932.55	49.6
997.552	2711.0609	929.4	45.9
997.6742	2712.2881	930.65	48.9
997.7963	2713.5145	931.85	45.6
997.9183	2714.7403	931	47.8
998.0403	2715.9654	930.55	48.45
998.1623	2717.1899	948.8	51.25
998.2842	2718.4136	935.3	52.25
998.4062	2719.6367	931.3	47.55
998.528	2720.8591	942.5	54.65
998.6498	2722.0809	935.65	52.95
998.7716	2723.3019	938.5	52.75
998.8934	2724.5223	938.85	54.1
999.0151	2725.7421	936.35	53.85
999.1368	2726.9611	937.1	52.6
999.2584	2728.1795	939.5	53.85
999.38	2729.3972	934.05	50.6
999.5016	2730.6142	942.45	52.45
999.6231	2731.8306	932.15	48.55
999.7446	2733.0462	932.25	45.85
999.8661	2734.2612	934.55	47.2
999.9875	2735.4756	932.35	48.25
1000.1089	2736.6892	928.7	45.05
1000.2302	2737.9022	930.1	47.7
1000.3515	2739.1145	928.55	47.3
1000.4728	2740.3262	934.5	44.45
1000.594	2741.5372	925.9	44.25
1000.7152	2742.7475	924.95	41.85
1000.8363	2743.9571	927.8	43.9
1000.9575	2745.1661	929.9	41.2
1001.0785	2746.3744	924.05	39.8
1001.1996	2747.582	924.85	44.05
1001.3206	2748.7889	924.4	39.85
1001.4415	2749.9952	921.25	38
1001.5625	2751.2008	922.95	39.65
1001.6833	2752.4057	924.95	40.8
1001.8042	2753.61	922.05	37.95
1001.925	2754.8136	923.9	39.4
1002.0458	2756.0165	921.05	38.7
1002.1665	2757.2188	918.6	38.85
1002.2872	2758.4204	919.5	35.05
1002.4078	2759.6213	922.2	38.35
1002.5285	2760.8215	925.85	41.15
1002.649	2762.0211	921.1	37.2
1002.7696	2763.22	924.5	37.45
1002.8901	2764.4182	920.7	35.55
1003.0106	2765.6158	917.7	35.75
1003.131	2766.8127	921.3	38
1003.2514	2768.009	919.4	35.7
1003.3717	2769.2045	919.3	34.9
1003.492	2770.3994	923.95	38.5
1003.6123	2771.5936	919.15	36.65
1003.7325	2772.7872	917.35	34.15
1003.8527	2773.9801	919.6	37
1003.9729	2775.1723	932.8	37.4
1004.093	2776.3639	919.2	37.5
1004.2131	2777.5548	919.25	35.1
1004.3331	2778.745	918.4	33.05
1004.4531	2779.9346	916.45	35.65
1004.5731	2781.1235	915.35	31.05
1004.693	2782.3117	916.95	36.65
1004.8129	2783.4992	919.45	36.8
1004.9328	2784.6861	916.1	35.7
1005.0526	2785.8723	917.8	35.15
1005.1723	2787.0579	919.15	36.5
1005.2921	2788.2428	919.05	36.75
1005.4118	2789.427	918.25	37.95
1005.5314	2790.6106	917.95	35.65
1005.651	2791.7935	917.05	35.5
1005.7706	2792.9757	915.55	34.3
1005.8902	2794.1573	921.25	36.8
1006.0097	2795.3382	916.45	35.25
1006.1291	2796.5184	918.75	36.05
1006.2485	2797.698	920.7	35.6
1006.3679	2798.8769	919	38.3
1006.4873	2800.0551	918.45	36.25
1006.6066	2801.2327	921.15	38.4
1006.7258	2802.4096	917.3	36.4
1006.8451	2803.5859	919	34.75
1006.9642	2804.7615	920.15	36.4
1007.0834	2805.9364	917.35	35.1
1007.2025	2807.1106	921.45	41.9
1007.3216	2808.2842	922.2	39.35
1007.4406	2809.4572	921.2	38.6
1007.5596	2810.6294	927.8	45.4
1007.6785	2811.801	924	42.1
1007.7975	2812.972	924.55	43.7
1007.9163	2814.1423	928.55	47.85
1008.0352	2815.3119	928.55	45.45
1008.154	2816.4808	930.45	51.5
1008.2727	2817.6491	933.05	49.7
1008.3914	2818.8167	933.3	54
1008.5101	2819.9837	947.2	59.8
1008.6288	2821.15	944.9	64.8
1008.7474	2822.3157	950.05	67
1008.8659	2823.4807	957.45	77.05
1008.9844	2824.645	960.6	77.05
1009.1029	2825.8086	965.75	83.1
1009.2214	2826.9716	976.05	96.55
1009.3398	2828.134	978.45	98
1009.4581	2829.2957	984.85	104
1009.5764	2830.4567	989.15	108.55
1009.6947	2831.617	991.25	109.5
1009.813	2832.7767	999.05	118.3
1009.9312	2833.9358	994.5	113.8
1010.0493	2835.0941	994.15	110.7
1010.1675	2836.2519	991.1	108.4
1010.2855	2837.4089	990.45	109.1
1010.4036	2838.5653	983.9	102.4
1010.5216	2839.7211	981.8	101.7
1010.6396	2840.8761	978.45	95.1
1010.7575	2842.0306	977.65	97.1
1010.8754	2843.1843	980.25	99
1010.9932	2844.3374	979.2	97.2
1011.111	2845.4899	981.8	97.35
1011.2288	2846.6417	983.25	102.9
1011.3465	2847.7928	986.4	104.65
1011.4642	2848.9433	986.2	106.9
1011.5818	2850.0931	988.9	106.75
1011.6995	2851.2422	988.55	103.2
1011.817	2852.3907	988.05	105.55
1011.9345	2853.5385	992.3	109.25
1012.052	2854.6857	1018.45	112.05
1012.1695	2855.8323	996.35	116.15
1012.2869	2856.9781	993.75	110.75
1012.4042	2858.1233	997.75	117.9
1012.5216	2859.2679	999.15	118.15
1012.6389	2860.4118	1002.5	123.25
1012.7561	2861.555	1013.1	128.05
1012.8733	2862.6976	1008.85	126.2
1012.9905	2863.8395	1009.75	128.6
1013.1076	2864.9808	1008.1	126.5
1013.2247	2866.1214	1011.9	130.35
1013.3417	2867.2614	1011.6	129
1013.4587	2868.4007	1015.55	132.75
1013.5757	2869.5393	1018.5	137.7
1013.6926	2870.6773	1021.1	135
1013.8095	2871.8146	1019.95	134
1013.9263	2872.9513	1025.6	141.35
1014.0431	2874.0874	1021.55	140.05
1014.1599	2875.2227	1026.6	145.75
1014.2766	2876.3574	1027.3	146.05
1014.3933	2877.4915	1025.8	145.6
1014.51	2878.6249	1026.1	145.5
1014.6266	2879.7577	1031.45	149.1
1014.7431	2880.8898	1041.7	150.1
1014.8596	2882.0212	1033.1	154.9
1014.9761	2883.152	1035.5	153.95
1015.0925	2884.2821	1035	155
1015.2089	2885.4116	1034.8	155.55
1015.3253	2886.5405	1041.6	160.3
1015.4416	2887.6686	1040.8	156.85
1015.5579	2888.7962	1040.95	162.1
1015.6741	2889.923	1038.55	158.45
1015.7903	2891.0493	1037.2	157.15
1015.9065	2892.1748	1040.8	158.7
1016.0226	2893.2997	1041.7	161.15
1016.1387	2894.424	1038.45	159.45
1016.2547	2895.5476	1040	158.75
1016.3707	2896.6706	1037.95	157.8
1016.4866	2897.7929	1039.3	157.4
1016.6025	2898.9145	1041.9	162.05
1016.7184	2900.0355	1045.45	162.1
1016.8342	2901.1559	1038	155.35
1016.95	2902.2756	1047.55	161.3
1017.0658	2903.3946	1040.1	159
1017.1815	2904.513	1042.3	159.4
1017.2971	2905.6308	1037.1	154.9
1017.4127	2906.7479	1041	159.5
1017.5283	2907.8643	1040.05	157.95
1017.6439	2908.9801	1035.4	155.4
1017.7594	2910.0953	1039	157.9
1017.8748	2911.2098	1043.8	158.65
1017.9902	2912.3236	1046.85	159.85
1018.1056	2913.4368	1042.9	159.65
1018.2209	2914.5494	1034.15	153.5
1018.3362	2915.6613	1038.1	151.9
1018.4515	2916.7725	1033.95	149.55
1018.5667	2917.8831	1028.9	147.55
1018.6819	2918.9931	1031	146.35
1018.797	2920.1024	1025	143.55
1018.9121	2921.211	1024.1	144.25
1019.0271	2922.319	1027.25	145
1019.1421	2923.4264	1022.85	145.35
1019.2571	2924.5331	1016.55	138.5
1019.372	2925.6391	1024.05	143.5
1019.4869	2926.7445	1019.3	139.2
1019.6017	2927.8493	1020.45	139.95
1019.7165	2928.9534	1020.75	142.9
1019.8313	2930.0569	1024.55	140.3
1019.946	2931.1597	1028.3	147.05
1020.0606	2932.2619	1026.4	146.65
1020.1753	2933.3634	1026.1	145.35
1020.2899	2934.4643	1035.8	148.15
1020.4044	2935.5645	1036.5	148.5
1020.5189	2936.6641	1033.45	150.6
1020.6334	2937.763	1029.4	152.45
1020.7478	2938.8613	1027.2	145.35
1020.8622	2939.959	1032.2	147.8
1020.9765	2941.056	1022.45	144.3
1021.0908	2942.1523	1018.25	137.6
1021.2051	2943.248	1013.2	131
1021.3193	2944.3431	1002.55	121.35
1021.4334	2945.4375	993.5	112.4
1021.5476	2946.5313	991.8	112.25
1021.6617	2947.6244	986.55	105.3
1021.7757	2948.7169	983.6	104.55
1021.8897	2949.8087	976.65	96.55
1022.0037	2950.8999	967.7	88.6
1022.1176	2951.9904	966.65	85.7
1022.2315	2953.0803	968	86.35
1022.3453	2954.1696	960.05	80.15
1022.4591	2955.2582	956	77.9
1022.5728	2956.3462	955.2	75.3
1022.6865	2957.4335	954.5	73.1
1022.8002	2958.5202	954.9	72.9
1022.9138	2959.6062	951.85	71.6
1023.0274	2960.6916	950.45	70.7
1023.141	2961.7764	951.85	69.7
1023.2545	2962.8605	953.85	72.55
1023.3679	2963.9439	949.3	68.8
1023.4813	2965.0267	953.25	73.35
1023.5947	2966.1089	973.85	69.3
1023.708	2967.1905	951.15	71.25
1023.8213	2968.2714	948.2	69.65
1023.9346	2969.3516	948.8	69.65
1024.0478	2970.4312	955.2	65.65
1024.1609	2971.5102	945.95	66.05
1024.274	2972.5885	946.4	65.5
1024.3871	2973.6662	954.35	70.35
1024.5002	2974.7432	947.7	68.8
1024.6132	2975.8196	952.35	72.9
1024.7261	2976.8954	950.6	70.95
1024.839	2977.9705	948.8	69.05
1024.9519	2979.045	951.65	71.9
1025.0647	2980.1188	949.45	69.85
1025.1775	2981.192	948.4	69.5
1025.2902	2982.2645	947.65	65.7
1025.4029	2983.3364	945.1	65.4
1025.5156	2984.4077	942.9	61.6
1025.6282	2985.4783	948	63.85
1025.7407	2986.5483	944.05	65.25
1025.8532	2987.6177	940.05	59.9
1025.9657	2988.6864	935.1	56.1
1026.0782	2989.7545	936.05	54.25
1026.1906	2990.8219	935.15	54.6
1026.3029	2991.8887	933.25	53.4
1026.4152	2992.9548	930.1	50.7
1026.5275	2994.0204	921.95	42.15
1026.6397	2995.0852	923.75	45.25
1026.7519	2996.1495	923.3	41.75
1026.864	2997.2131	921.1	42.25
1026.9761	2998.276	917.9	37.15
1027.0882	2999.3383	915.75	34.15
1027.2002	3000.4	914.35	34.45
1027.3122	3001.4611	913	34.25
1027.4241	3002.5215	912.75	33.8
1027.536	3003.5812	908.95	28.65
1027.6478	3004.6404	911.1	33.45
1027.7596	3005.6989	911.95	29.95
1027.8714	3006.7567	905.9	28.5
1027.9831	3007.8139	939.7	28.05
1028.0947	3008.8705	908.05	28.5
1028.2064	3009.9264	909.95	29.8
1028.3179	3010.9818	904.85	24.7
1028.4295	3012.0364	905.95	24.9
1028.541	3013.0905	905.95	26.2
1028.6524	3014.1439	905.95	27
1028.7638	3015.1966	903.5	24.6
1028.8752	3016.2487	905.3	24.65
1028.9865	3017.3002	906.65	23.3
1029.0978	3018.3511	903.65	25.4
1029.209	3019.4013	902.75	24.5
1029.3202	3020.4509	902.15	21.45
1029.4314	3021.4998	900.1	18.3
1029.5425	3022.5481	901.05	22.85
1029.6535	3023.5958	902	20.95
1029.7645	3024.6428	902.8	22.55
1029.8755	3025.6892	902.2	24.85
1029.9864	3026.735	904.85	26.3
1030.0973	3027.7802	900.75	21.05
1030.2082	3028.8247	901.6	23.05
1030.319	3029.8685	900.8	21.05
1030.4297	3030.9118	901.8	22.05
1030.5404	3031.9544	901.85	22.5
1030.6511	3032.9963	903.75	23.75
1030.7617	3034.0376	900.75	22.55
1030.8723	3035.0783	903.1	22.65
1030.9829	3036.1184	902.35	21.45
1031.0934	3037.1578	902.1	23.6
1031.2038	3038.1966	904.25	22.95
1031.3142	3039.2348	901.7	22.05
1031.4246	3040.2723	911.3	24.75
1031.5349	3041.3092	900.75	22.35
1031.6452	3042.3455	901.8	22
1031.7554	3043.3811	900.8	19.6
1031.8656	3044.4161	902.45	22.75
1031.9758	3045.4505	900.1	22.65
1032.0859	3046.4842	902.4	25.4
1032.1959	3047.5173	901.15	23.4
1032.3059	3048.5498	901.75	20.7
1032.4159	3049.5816	903.75	24.35
1032.5258	3050.6128	903.55	23.45
1032.6357	3051.6434	901.6	19.95
1032.7455	3052.6734	902.6	22.5
1032.8553	3053.7027	901.55	22.15
1032.9651	3054.7314	901.35	22.35
1033.0748	3055.7594	903	26.25
1033.1845	3056.7868	904.15	24.75
1033.2941	3057.8136	903.25	26.35
1033.4037	3058.8398	900.25	20.45
1033.5132	3059.8653	902.45	25.1
1033.6227	3060.8902	903.1	24.3
1033.7321	3061.9145	905.25	27.15
1033.8415	3062.9381	902.4	21.65
1033.9509	3063.9612	918.8	25.1
1034.0602	3064.9835	902.6	25.8
1034.1694	3066.0053	905.8	24.65
1034.2787	3067.0264	901.7	24.5
1034.3878	3068.0469	903.65	23.8
1034.497	3069.0668	907.05	26.4
1034.6061	3070.086	901.65	21.85
1034.7151	3071.1046	904.05	26.2
1034.8241	3072.1226	903.95	24.3
1034.9331	3073.1399	903.25	24.8
1035.042	3074.1567	900.9	21.2
1035.1508	3075.1727	903.7	23
1035.2597	3076.1882	899.8	21.65
1035.3684	3077.203	902.85	24.75
1035.4772	3078.2173	900.9	20.5
1035.5859	3079.2308	902.65	20.45
1035.6945	3080.2438	900.35	18.15
1035.8031	3081.2561	896.75	15.9
1035.9117	3082.2678	898.3	19
1036.0202	3083.2789	897.65	17.45
1036.1286	3084.2893	897	17.3
1036.2371	3085.2991	895.15	16.25
1036.3454	3086.3083	902.05	21
1036.4538	3087.3169	899.25	18.15
1036.562	3088.3248	898.4	17.85
1036.6703	3089.3321	897.55	16.65
1036.7785	3090.3388	895.5	16.95
1036.8866	3091.3449	895.35	16.1
1036.9948	3092.3503	897.65	15.4
1037.1028	3093.3551	892.9	15.05
1037.2108	3094.3593	894.9	18.05
1037.3188	3095.3629	896.4	17.9
1037.4267	3096.3658	893.85	15.1
1037.5346	3097.3681	895.9	15.25
1037.6425	3098.3698	895.35	13.55
1037.7503	3099.3708	895.25	17.7
1037.858	3100.3713	893.6	17.1
1037.9657	3101.3711	893.35	13.45
1038.0734	3102.3702	1029.95	11.85
1038.181	3103.3688	896.4	16.1
1038.2886	3104.3667	894.1	16.05
1038.3961	3105.364	892.15	12.1
1038.5036	3106.3607	894.75	15.05
1038.611	3107.3568	894.55	15
1038.7184	3108.3522	890.9	14.95
1038.8257	3109.347	892.15	10.9
1038.933	3110.3412	899	14.85
1039.0403	3111.3348	892.25	12.85
1039.1475	3112.3277	891.45	12
1039.2547	3113.32	889.85	12.2
1039.3618	3114.3117	891.2	12.65
1039.4689	3115.3028	890.85	12.25
1039.5759	3116.2932	893	12.55
1039.6829	3117.2831	897.55	14.3
1039.7898	3118.2723	892.1	13.15
1039.8967	3119.2608	889.75	9.7
1040.0035	3120.2488	889.95	11.45
1040.1103	3121.2361	889.6	10.95
1040.2171	3122.2229	891.7	13.25
1040.3238	3123.209	890.85	10.6
1040.4305	3124.1944	890.95	11.85
1040.5371	3125.1793	891.95	11.65
1040.6437	3126.1635	888.6	10.1
1040.7502	3127.1471	889.55	12.55
1040.8567	3128.1301	889.5	11.05
1040.9631	3129.1125	888.3	10.45
1041.0695	3130.0942	891.7	13.65
1041.1759	3131.0753	898.2	11.35
1041.2822	3132.0558	892.4	9.35
1041.3884	3133.0357	889.8	9.35
1041.4946	3134.015	888.85	9.15
1041.6008	3134.9936	888.9	9.35
1041.7069	3135.9716	909.8	12.3
1041.813	3136.949	890.75	13.55
1041.919	3137.9258	906.5	8.45
1042.025	3138.902	894.25	11.45
1042.1309	3139.8775	888.2	9.85
1042.2368	3140.8524	887.75	10.35
1042.3427	3141.8267	888.45	6.8
1042.4485	3142.8004	888.8	10.15
1042.5542	3143.7735	893.6	8.2
1042.6599	3144.7459	890.8	10.25
1042.7656	3145.7178	887.55	7.3
1042.8712	3146.689	885.95	9.45
1042.9768	3147.6596	890.2	8.85
1043.0823	3148.6295	888	9
1043.1878	3149.5989	889.1	12.1
1043.2932	3150.5676	884.45	6.45
1043.3986	3151.5357	884.6	8.45
1043.5039	3152.5032	888.15	9.85
1043.6092	3153.4701	886.35	9.8
1043.7145	3154.4364	888.7	7.55
1043.8197	3155.402	888.1	9.3
1043.9248	3156.367	888.8	9.3
1044.03	3157.3315	930	5.95
1044.135	3158.2952	885.6	8
1044.24	3159.2584	886.1	8.8
1044.345	3160.221	887.95	9
1044.4499	3161.1829	887.75	9.5
1044.5548	3162.1442	888.7	9.95
1044.6596	3163.105	885	6.3
1044.7644	3164.065	888.05	9.15
1044.8692	3165.0245	888.35	8.05
1044.9739	3165.9834	886.35	10.35
1045.0785	3166.9416	886.45	7.6
1045.1831	3167.8993	887.5	10.5
1045.2877	3168.8563	888	9.75
1045.3922	3169.8127	887.3	8.75
1045.4966	3170.7684	886.35	7.8
1045.6011	3171.7236	887.1	4.7
1045.7054	3172.6782	886.75	6.4
1045.8098	3173.6321	888.05	9.55
1045.914	3174.5854	890.3	9.05
1046.0183	3175.5381	884.1	6
1046.1224	3176.4902	887.8	9.8
1046.2266	3177.4417	886.8	8.95
1046.3307	3178.3926	882.5	6.2
1046.4347	3179.3428	884.35	7.95
1046.5387	3180.2924	885.75	7.9
1046.6427	3181.2415	887.05	8.15
1046.7466	3182.1899	886.9	7.05
1046.8504	3183.1377	886.35	8.05
1046.9542	3184.0848	891.55	11.4
1047.058	3185.0314	885.15	6.35
1047.1617	3185.9773	887.35	9.35
1047.2654	3186.9227	885	7.75
1047.369	3187.8674	886.7	8.65
1047.4726	3188.8115	889.5	6.2
1047.5761	3189.755	884.9	7.1
1047.6796	3190.6979	886	7.1
1047.783	3191.6402	884.85	7.8
1047.8864	3192.5818	885.4	5.35
1047.9898	3193.5229	903.2	5.1
1048.0931	3194.4633	884.3	5.2
1048.1963	3195.4031	886.6	7.4
1048.2995	3196.3423	884.55	6.25
1048.4027	3197.2809	886.1	8.6
1048.5058	3198.2189	886.7	8.6
1048.6089	3199.1563	902.55	6.7
1048.7119	3200.0931	884.95	6.65
1048.8148	3201.0292	884.05	7.85
1048.9178	3201.9648	883.55	2.7
1049.0206	3202.8997	884.2	4.6
1049.1235	3203.834	886.35	7.15
1049.2262	3204.7677	884.45	6.25
1049.329	3205.7008	886.1	5.6
1049.4317	3206.6333	883.2	4.4
1049.5343	3207.5652	888.7	9.15
1049.6369	3208.4964	884.35	4.55
1049.7394	3209.4271	883.35	6.75
1049.8419	3210.3571	883.8	6.65
1049.9444	3211.2865	884.5	3.85
1050.0468	3212.2154	883.95	4.2
1050.1491	3213.1436	886.25	5.9
1050.2514	3214.0712	891.2	6.7
1050.3537	3214.9982	885.55	8.3
1050.4559	3215.9246	884.55	5.6
1050.5581	3216.8503	883.45	6.85
1050.6602	3217.7755	885.2	5.85
1050.7623	3218.7001	884.95	7
1050.8643	3219.624	882.85	4.9
1050.9663	3220.5473	883.1	4.45
1051.0682	3221.4701	884.55	3.7
1051.1701	3222.3922	883.4	3.85
1051.2719	3223.3137	882.9	5.5
1051.3737	3224.2346	884.15	7.25
1051.4754	3225.1549	883.1	6.2
1051.5771	3226.0746	881.65	4.5
1051.6788	3226.9937	885.2	5.4
1051.7804	3227.9121	882.2	4.8
1051.8819	3228.83	884.65	7.85
1051.9834	3229.7473	885.65	9.05
1052.0849	3230.6639	883.2	4.5
1052.1863	3231.5799	883.2	5.9
1052.2876	3232.4954	883.7	4.9
1052.3889	3233.4102	883.3	6.45
1052.4902	3234.3244	886.85	10.2
1052.5914	3235.238	881.2	3.6
1052.6926	3236.151	908.6	6.8
1052.7937	3237.0634	882.25	5.55
1052.8948	3237.9752	883.85	6
1052.9958	3238.8864	882.8	5.55
1053.0968	3239.797	882	5.65
1053.1977	3240.7069	881.75	1.6
1053.2986	3241.6163	885.6	5.85
1053.3994	3242.5251	883.2	7.1
1053.5002	3243.4332	883.75	8.2
1053.6009	3244.3408	882.6	2.6
1053.7016	3245.2477	882.3	6.4
1053.8022	3246.154	885.1	4.5
1053.9028	3247.0598	882.3	3.1
1054.0034	3247.9649	881.55	4.85
1054.1039	3248.8694	884.05	5.3
1054.2043	3249.7733	881.6	4.8
1054.3047	3250.6766	883.8	4.95
1054.4051	3251.5793	886.6	7.2
1054.5054	3252.4814	880.9	3.45
1054.6056	3253.3829	882.65	5.95
1054.7058	3254.2838	883.4	7.4
1054.806	3255.1841	883.35	3.85
1054.9061	3256.0838	882.35	4.2
1055.0061	3256.9829	880.9	5.45
1055.1062	3257.8814	882.4	1.8
1055.2061	3258.7792	882.85	3
1055.306	3259.6765	882.25	4.2
1055.4059	3260.5731	882.4	4.15
1055.5057	3261.4692	883.15	6.15
1055.6055	3262.3647	882.45	3
1055.7052	3263.2595	882.95	5
1055.8049	3264.1538	883.1	4.55
1055.9045	3265.0474	883.5	5.4
1056.0041	3265.9404	883.75	7
1056.1036	3266.8329	878.85	0.8
1056.2031	3267.7247	890.75	0.9
1056.3025	3268.616	879.7	4.8
1056.4019	3269.5066	881	1.55
1056.5013	3270.3966	882.2	2.5
1056.6005	3271.286	879.95	2.45
