Software Version:	3.9.2.0
Unit SN:	10000200
Spectrometer SN:	6960
Date:	3/8/2024 2:08:17 PM
Data Line Index:	25
Spectral Points:	2048
Integration time (ms):	125
Averages:	20
Delay (ms):	30000
Sequence Number:	1
Processing:	dark subtract
Laser Power (mW):	300
Laser Current (mA):	823
Laser Diode Temp (C):	25.1
Laser Case Temp (C):	26.3
System Temp (C):	26.3
Spectrometer Temp (C):	24.1
CCD Temp (C):	0.01
Secondary Temp (C):	20.017
Heatsink Temp (C):	21.397
CCDPCB Temp (C):	36.329
SecondaryPCB Temp (C):	30.038

Wavelength	RamanShift	Raw Counts	Dark Subtracted
787.061	30.1047	466.8	59.95
787.2016	32.3739	468.75	62.35
787.3422	34.6426	474.25	67.5
787.4828	36.9109	480.1	71.15
787.6235	39.1787	489	76.05
787.7642	41.4461	499.1	83
787.9049	43.7131	504.25	85.05
788.0456	45.9796	514.25	89.6
788.1863	48.2456	527.95	100.3
788.3271	50.5112	536.7	104.8
788.4679	52.7764	548.75	113.95
788.6087	55.0411	563.65	123.9
788.7496	57.3054	573.85	128.4
788.8904	59.5692	579.55	133.05
789.0313	61.8326	589.9	141
789.1722	64.0955	603.7	152.9
789.3132	66.3579	622.35	165.7
789.4541	68.6199	642.25	181.05
789.5951	70.8815	683.7	216.65
789.7361	73.1426	765.35	296.45
789.8771	75.4032	986.2	512.5
790.0181	77.6634	1512.15	1033.9
790.1592	79.9231	2777.2	2290.8
790.3003	82.1824	5516.45	5014.35
790.4414	84.4412	10459.3	9924.85
790.5825	86.6995	17270.45	16699.15
790.7237	88.9574	23928.3	23329.65
790.8648	91.2148	28558.1	27928.35
791.006	93.4717	30715.2	30076.85
791.1472	95.7282	31255.5	30609.45
791.2885	97.9842	31273.8	30620.1
791.4297	100.2398	30777	30120.3
791.571	102.4949	30226.4	29570.7
791.7123	104.7495	29505.45	28844
791.8536	107.0036	28731.5	28070.8
791.9949	109.2573	28034.05	27373.45
792.1363	111.5105	27303.75	26640.7
792.2777	113.7632	26617.15	25951.05
792.4191	116.0154	26032.9	25357.5
792.5605	118.2672	25593.05	24920.1
792.7019	120.5185	25137.6	24464.6
792.8434	122.7693	24804.85	24129.85
792.9849	125.0197	24533	23857.05
793.1264	127.2696	24252.8	23572.45
793.2679	129.519	24187.35	23503.15
793.4094	131.7679	23973.5	23284.4
793.551	134.0163	23870.35	23179.55
793.6926	136.2642	23718.95	23024.25
793.8342	138.5117	23584.85	22880.4
793.9758	140.7587	23309	22612.55
794.1175	143.0052	23164.55	22465.35
794.2591	145.2512	22946.65	22244.3
794.4008	147.4967	22739.8	22040.7
794.5425	149.7417	22584.2	21878.95
794.6842	151.9863	22502.6	21794.25
794.826	154.2304	22453.3	21734.05
794.9677	156.4739	22307.7	21592.65
795.1095	158.717	22314.95	21595.15
795.2513	160.9596	22179.75	21456.45
795.3931	163.2017	21927.15	21202.45
795.535	165.4433	21631.1	20900.9
795.6768	167.6844	21352.8	20621.85
795.8187	169.925	21007.35	20272.95
795.9606	172.1651	20679.55	19947.25
796.1025	174.4047	20429.85	19692.35
796.2445	176.6439	20181.4	19442.9
796.3864	178.8825	19974.65	19234.45
796.5284	181.1206	19849.95	19107.45
796.6704	183.3582	19693.25	18943.05
796.8124	185.5954	19575.85	18828.25
796.9544	187.832	19528.2	18768.9
797.0965	190.0681	19515.2	18756.65
797.2386	192.3037	19532.6	18766.2
797.3806	194.5388	19549.6	18782.7
797.5228	196.7734	19615.3	18850.8
797.6649	199.0075	19708.4	18936.85
797.807	201.2411	19864.05	19088.5
797.9492	203.4742	19963.3	19189.45
798.0914	205.7068	20127.5	19351.35
798.2336	207.9389	20241.75	19462.2
798.3758	210.1704	20402.9	19626.1
798.518	212.4015	20521.4	19757.05
798.6603	214.632	20706.7	19952.9
798.8025	216.862	20943	20185.8
798.9448	219.0915	21086.4	20327
799.0871	221.3205	21330.5	20572.85
799.2294	223.549	21652.2	20895.8
799.3718	225.777	21927.8	21170.7
799.5141	228.0044	22299.4	21535
799.6565	230.2314	22820.25	22056
799.7989	232.4578	23267.2	22504.65
799.9413	234.6837	23628.9	22857.25
800.0837	236.909	23884	23105.55
800.2262	239.1339	23883.2	23079.35
800.3687	241.3582	23671.1	22885.5
800.5111	243.582	23367.65	22550.3
800.6536	245.8053	23051.05	22249.85
800.7961	248.0281	22711.45	21913.25
800.9387	250.2503	22449.75	21644.65
801.0812	252.472	22325.7	21522.2
801.2238	254.6932	22316.85	21512
801.3664	256.9139	22264.15	21462.45
801.509	259.134	22234.75	21425.5
801.6516	261.3536	22236.25	21424.75
801.7942	263.5727	22314.05	21506.45
801.9369	265.7912	22272.8	21462.9
802.0795	268.0092	22278	21470
802.2222	270.2267	22233.55	21423.6
802.3649	272.4436	22239.5	21426.95
802.5076	274.6601	22207.3	21384.45
802.6504	276.8759	22130.45	21313.45
802.7931	279.0913	22123.25	21307.05
802.9359	281.3061	22083.25	21265.75
803.0787	283.5204	22237.45	21413.6
803.2215	285.7341	22330.75	21506.55
803.3643	287.9473	22495.2	21661.5
803.5071	290.16	22761.95	21931.55
803.6499	292.3721	23068.9	22247.35
803.7928	294.5837	23497.6	22671.2
803.9357	296.7947	23867	23042.4
804.0786	299.0052	24123.4	23296.35
804.2215	301.2152	23959.4	23131.25
804.3644	303.4246	23641	22816.1
804.5074	305.6334	23114.05	22291.3
804.6503	307.8418	22612.15	21784.8
804.7933	310.0495	22224.4	21394.6
804.9363	312.2568	21931.05	21101.35
805.0793	314.4635	21706.95	20875.8
805.2223	316.6696	21609	20772.7
805.3653	318.8752	21608.2	20764.35
805.5084	321.0802	21652.6	20816.45
805.6514	323.2847	21797.3	20957.25
805.7945	325.4887	21856	21010.75
805.9376	327.692	21848.7	21009.65
806.0807	329.8949	21724.7	20882.95
806.2238	332.0972	21497.25	20654.75
806.367	334.2989	21284.1	20435.6
806.5101	336.5001	20970.45	20124.6
806.6533	338.7007	20766.15	19917.4
806.7965	340.9008	20687.6	19841.65
806.9397	343.1003	20575.65	19727.45
807.0829	345.2992	20589.55	19740.2
807.2261	347.4976	20568.05	19717.35
807.3693	349.6955	20535.1	19676.7
807.5126	351.8927	20645.5	19783.6
807.6559	354.0895	20636.15	19769.4
807.7991	356.2856	20725.1	19864.6
807.9424	358.4812	20715.1	19857.4
808.0857	360.6763	20769.65	19906.45
808.2291	362.8707	20775.1	19909.25
808.3724	365.0646	20834.05	19973.8
808.5158	367.258	20857.15	19991.2
808.6591	369.4508	20836.9	19967.7
808.8025	371.643	20945.1	20077.5
808.9459	373.8346	20942.25	20069.4
809.0893	376.0257	20955.95	20082.6
809.2327	378.2162	20825.1	19953.75
809.3762	380.4062	20818.2	19947.95
809.5196	382.5956	20626.45	19761.05
809.6631	384.7844	20555.85	19690.45
809.8066	386.9726	20480.3	19617.7
809.9501	389.1603	20444.3	19583.45
810.0936	391.3474	20416.65	19528.25
810.2371	393.5339	20424.25	19560.5
810.3806	395.7199	20359.1	19499.5
810.5241	397.9052	20381	19519.2
810.6677	400.09	20400.8	19534.35
810.8113	402.2743	20506.55	19643.9
810.9548	404.4579	20577.9	19712.95
811.0984	406.641	20782.35	19918.25
811.2421	408.8235	20992.65	20127.3
811.3857	411.0054	21311.55	20439.05
811.5293	413.1868	21818.75	20942.9
811.673	415.3675	22185	21306.2
811.8166	417.5477	22343.4	21463.35
811.9603	419.7273	22381.65	21502.5
812.104	421.9064	22279.15	21395.2
812.2477	424.0848	22185.4	21309.3
812.3914	426.2627	21950	21069.3
812.5351	428.4399	21660.3	20783.1
812.6788	430.6166	21331.25	20447.55
812.8226	432.7928	20968.5	20084.2
812.9663	434.9683	20669.35	19787.25
813.1101	437.1432	20461.3	19582.1
813.2539	439.3176	20317.65	19444.95
813.3977	441.4914	20207.8	19338.45
813.5415	443.6645	20199.35	19325.65
813.6853	445.8371	20142.55	19261.75
813.8291	448.0091	20054.65	19173.7
813.973	450.1806	20036.9	19156.2
814.1168	452.3514	19953.35	19078.65
814.2607	454.5216	20007.9	19122.05
814.4046	456.6913	19926.6	19041.8
814.5485	458.8603	19974.35	19095.45
814.6924	461.0288	20088.15	19213.9
814.8363	463.1967	20106.1	19237.45
814.9802	465.3639	20259.5	19384.9
815.1241	467.5306	20337.25	19460.6
815.2681	469.6967	20475.75	19602.75
815.412	471.8622	20670.15	19797.5
815.556	474.0271	20832.35	19957.1
815.7	476.1914	20911.6	20030.15
815.844	478.3551	20896.2	20010.45
815.988	480.5182	20899.25	20022.6
816.132	482.6807	20929.15	20059.5
816.276	484.8426	21054.9	20188.4
816.4201	487.0039	21318.2	20449.15
816.5641	489.1647	21758.35	20878.35
816.7082	491.3248	22192.85	21313.75
816.8522	493.4843	22374.75	21497.9
816.9963	495.6432	22399.35	21522.7
817.1404	497.8015	22288.85	21401.5
817.2845	499.9592	22320.3	21427.7
817.4286	502.1163	22304.7	21411.55
817.5727	504.2728	22056.9	21172.55
817.7168	506.4287	21816.25	20942.65
817.861	508.5839	21388.55	20514.2
818.0051	510.7386	21093.15	20211.45
818.1493	512.8927	20925.35	20037.5
818.2935	515.0461	20824.6	19936.7
818.4377	517.199	20766.25	19875.45
818.5818	519.3512	20831.45	19940.9
818.726	521.5029	20866.05	19967.15
818.8703	523.6539	20933.9	20045.75
819.0145	525.8043	21009	20115
819.1587	527.9541	21050.3	20154.05
819.303	530.1033	21025.55	20132.2
819.4472	532.2519	21102.1	20204.1
819.5915	534.3999	21252.6	20359.05
819.7357	536.5472	21516.4	20625.7
819.88	538.694	22005.9	21121.05
820.0243	540.8401	22615.45	21722.55
820.1686	542.9856	23125.15	22221
820.3129	545.1305	23344.6	22434.3
820.4572	547.2748	23219.5	22307.35
820.6016	549.4185	22817.7	21907
820.7459	551.5615	22450.15	21540.15
820.8902	553.704	22361.55	21452.1
821.0346	555.8458	22260.2	21357.9
821.1789	557.987	22339.05	21439.75
821.3233	560.1276	22311.75	21408.3
821.4677	562.2675	22319.1	21418
821.6121	564.4069	22411.2	21506.25
821.7565	566.5456	22374.45	21473
821.9009	568.6837	22292.1	21393.15
822.0453	570.8212	22012.1	21111.5
822.1897	572.958	21714.4	20814.2
822.3342	575.0942	21480.1	20581
822.4786	577.2299	21297.15	20402.75
822.6231	579.3648	21280.55	20397.9
822.7675	581.4992	21318.6	20448.65
822.912	583.6329	21526.95	20653.45
823.0565	585.766	21770.8	20888.75
823.201	587.8985	21944.7	21055.15
823.3454	590.0304	21941.8	21032.35
823.4899	592.1616	21917.25	21012.75
823.6345	594.2922	21800.25	20893.55
823.779	596.4222	21630.4	20722.75
823.9235	598.5515	21471.75	20559.9
824.068	600.6802	21329.85	20421.25
824.2126	602.8083	21168.4	20264.55
824.3571	604.9358	21103.65	20197.25
824.5017	607.0626	21071.9	20159.35
824.6462	609.1888	21036.1	20122.05
824.7908	611.3144	20995.55	20081.45
824.9354	613.4393	20938.4	20021.75
825.08	615.5636	20854.7	19939.5
825.2246	617.6873	20710.95	19795.05
825.3692	619.8103	20708	19791.75
825.5138	621.9327	20648.85	19732.35
825.6584	624.0544	20584.2	19678.45
825.803	626.1756	20621.2	19719.3
825.9477	628.2961	20558.3	19645.75
826.0923	630.4159	20514.3	19599.1
826.237	632.5351	20503.85	19589.5
826.3816	634.6537	20461.5	19546.5
826.5263	636.7716	20445.8	19519.95
826.6709	638.8889	20478.65	19553
826.8156	641.0056	20550.65	19626.25
826.9603	643.1216	20537.2	19618.7
827.105	645.237	20606.3	19686
827.2497	647.3518	20574.3	19665.4
827.3944	649.4659	20613.55	19704.55
827.5391	651.5793	20639.3	19735.45
827.6838	653.6922	20624.2	19712.55
827.8285	655.8043	20679.45	19766.65
827.9733	657.9159	20635.95	19719.05
828.118	660.0268	20543	19625.9
828.2627	662.137	20496.75	19578.4
828.4075	664.2466	20527.4	19605.95
828.5522	666.3556	20519	19595.7
828.697	668.4639	20495.15	19577.25
828.8418	670.5716	20552.45	19642.35
828.9865	672.6786	20648.7	19734.05
829.1313	674.785	20728.85	19806.8
829.2761	676.8907	20765.9	19848.3
829.4209	678.9958	20874.6	19954.65
829.5657	681.1002	20873.95	19953.45
829.7105	683.204	20869	19936.25
829.8553	685.3072	20816.5	19893.05
830.0001	687.4097	20764.8	19844.75
830.1449	689.5115	20741.05	19819.25
830.2898	691.6127	20736.7	19820.2
830.4346	693.7132	20657.8	19743.3
830.5794	695.8131	20657.3	19717.25
830.7243	697.9123	20639.85	19710.75
830.8691	700.0109	20638.5	19708.75
831.014	702.1089	20631.05	19706.1
831.1588	704.2061	20628.9	19704.85
831.3037	706.3028	20692.3	19765.2
831.4486	708.3987	20755.25	19828.4
831.5935	710.4941	20823.25	19899.8
831.7383	712.5887	21004.2	20081.65
831.8832	714.6827	21346.85	20422.9
832.0281	716.7761	21682.85	20760.25
832.173	718.8688	22048.8	21124.4
832.3179	720.9608	22232.7	21298.4
832.4628	723.0522	22370.65	21435.45
832.6077	725.1429	22186.45	21257.05
832.7527	727.233	21910.05	20979.25
832.8976	729.3224	21699.2	20774.55
833.0425	731.4112	21403.25	20475.5
833.1874	733.4993	21204.95	20276
833.3324	735.5867	21056	20128.95
833.4773	737.6735	20948.95	20018.1
833.6222	739.7596	20942.9	20012.7
833.7672	741.845	20886.4	19959.05
833.9122	743.9298	20869.15	19943.5
834.0571	746.014	20891.1	19963.45
834.2021	748.0974	20909.55	19973.65
834.347	750.1802	20904.7	19973.6
834.492	752.2624	20900.3	19965.15
834.637	754.3439	20963.85	20029.55
834.782	756.4247	21024.25	20081.35
834.9269	758.5048	21139.75	20206
835.0719	760.5843	21385.05	20449.4
835.2169	762.6631	21656.35	20716.55
835.3619	764.7413	22101.5	21167.3
835.5069	766.8188	22677.8	21740.1
835.6519	768.8956	23167.25	22230.75
835.7969	770.9718	23485.25	22550.9
835.9419	773.0473	23333.15	22396.9
836.0869	775.1221	22998.2	22065.55
836.232	777.1962	22627.3	21692.4
836.377	779.2697	22452.05	21516.5
836.522	781.3426	22497.9	21545.35
836.667	783.4147	22758.8	21820.5
836.8121	785.4862	23099.1	22163.95
836.9571	787.557	23122.3	22182.45
837.1021	789.6271	22821.95	21880.25
837.2472	791.6966	22256.25	21319.25
837.3922	793.7654	21731.3	20795.1
837.5373	795.8335	21436.55	20501.95
837.6823	797.901	21244.45	20310.75
837.8274	799.9678	21212.45	20272.25
837.9724	802.0339	21236.65	20297.35
838.1175	804.0993	21319.75	20369.7
838.2626	806.1641	21327.55	20390.6
838.4076	808.2282	21264.05	20329.7
838.5527	810.2916	21174.9	20235.95
838.6978	812.3544	21115.8	20184.5
838.8428	814.4164	20996.05	20056.75
838.9879	816.4778	21062.55	20121.6
839.133	818.5385	21074.45	20131.2
839.2781	820.5986	21143.1	20197.9
839.4232	822.658	21245.9	20301.65
839.5682	824.7166	21320.6	20381.85
839.7133	826.7747	21573.55	20630.2
839.8584	828.832	21818.9	20877.8
840.0035	830.8886	21905.2	20961.85
840.1486	832.9446	22058.75	21116.8
840.2937	834.9999	22053.05	21115.3
840.4388	837.0545	22150.8	21204.2
840.5839	839.1085	22117.1	21174.35
840.729	841.1618	22123.95	21177.75
840.8741	843.2143	22109.5	21167.1
841.0192	845.2662	22014.3	21071.65
841.1643	847.3175	22009.1	21063.05
841.3095	849.368	21889	20945.55
841.4546	851.4179	21764.45	20823.85
841.5997	853.467	21597.5	20656.8
841.7448	855.5155	21548.95	20606.6
841.8899	857.5633	21414.6	20469.95
842.0351	859.6105	21334.2	20390.5
842.1802	861.6569	21279.1	20333.05
842.3253	863.7027	21280.8	20333.4
842.4704	865.7478	21288.15	20344.85
842.6156	867.7922	21296.45	20347.2
842.7607	869.8359	21374.9	20428.4
842.9058	871.8789	21482.75	20536.7
843.0509	873.9212	21686.35	20712.65
843.1961	875.9629	21790.45	20846.5
843.3412	878.0039	22058.5	21116.2
843.4863	880.0441	22114.65	21172.1
843.6315	882.0837	22160.75	21219.05
843.7766	884.1226	22086.05	21141.75
843.9218	886.1609	21974.15	21030.45
844.0669	888.1984	21904.7	20958.85
844.212	890.2352	21942.3	20998.35
844.3572	892.2714	21903.3	20955.5
844.5023	894.3069	21882.7	20934
844.6475	896.3416	21809.15	20864.1
844.7926	898.3757	21804.1	20857.05
844.9377	900.4091	21806.45	20859.6
845.0829	902.4418	21845.55	20889.25
845.228	904.4739	21816.05	20861.45
845.3732	906.5052	21889.95	20937.85
845.5183	908.5358	21765.5	20818.2
845.6635	910.5658	21667.95	20712.75
845.8086	912.595	21537.1	20593.9
845.9538	914.6236	21361.2	20412.45
846.0989	916.6515	21344.85	20397.9
846.2441	918.6786	21302.9	20351.6
846.3892	920.7051	21414.65	20461.8
846.5344	922.7309	21563.45	20610.4
846.6795	924.756	21556.55	20608.1
846.8246	926.7804	21670.9	20720.1
846.9698	928.8041	21588.25	20639.1
847.1149	930.8272	21657.4	20706.75
847.2601	932.8495	21564.7	20612.45
847.4052	934.8711	21552.55	20601.95
847.5504	936.892	21367.25	20422.15
847.6955	938.9123	21236.9	20287.1
847.8407	940.9318	21117.65	20168.4
847.9858	942.9506	21067	20113.55
848.131	944.9688	20929.95	19982.9
848.2761	946.9862	20905.7	19957.1
848.4213	949.003	20799.7	19850.9
848.5664	951.019	20803.25	19856.25
848.7115	953.0344	20821.65	19871.35
848.8567	955.0491	20862.4	19910.6
849.0018	957.063	20989.5	20039.9
849.147	959.0763	21116.1	20167.45
849.2921	961.0888	21144.65	20193
849.4373	963.1007	21249.65	20298.5
849.5824	965.1119	21277.75	20337.45
849.7275	967.1223	21341.75	20408.85
849.8727	969.1321	21332	20399.3
850.0178	971.1412	21390.8	20452.8
850.1629	973.1495	21359.05	20416.35
850.3081	975.1572	21528.4	20525.2
850.4532	977.1641	21537.65	20586.6
850.5983	979.1704	21525.8	20577.15
850.7435	981.1759	21520.85	20569.6
850.8886	983.1808	21543.1	20591
851.0337	985.1849	21650.5	20689.6
851.1788	987.1884	21767.6	20819.7
851.324	989.1911	21961.05	21010.7
851.4691	991.1932	22087.55	21139.2
851.6142	993.1945	22117.85	21169.9
851.7593	995.1951	22061.7	21112.4
851.9045	997.1951	22072.95	21120.65
852.0496	999.1943	21930.2	20986.5
852.1947	1001.1928	21899.1	20947.05
852.3398	1003.1906	21885.2	20936.6
852.4849	1005.1877	21959.2	21007.9
852.63	1007.1841	21895.4	20946.8
852.7751	1009.1798	21812.7	20865.8
852.9202	1011.1748	21614.5	20668.4
853.0653	1013.1691	21452.7	20504.5
853.2104	1015.1627	21202.5	20254.3
853.3555	1017.1556	20974.6	20029
853.5006	1019.1477	20885.85	19942.4
853.6457	1021.1392	20780.6	19840.8
853.7908	1023.1299	20759.95	19822.25
853.9359	1025.12	20771.25	19840.95
854.081	1027.1093	20814.25	19892.65
854.2261	1029.0979	20891.5	19976.65
854.3712	1031.0859	20919.45	19993.35
854.5163	1033.0731	20920.25	19986.05
854.6613	1035.0596	20842.15	19902.5
854.8064	1037.0454	20710.2	19766.8
854.9515	1039.0304	20603.1	19659
855.0965	1041.0148	20482.05	19536.45
855.2416	1042.9985	20389.85	19442.4
855.3867	1044.9814	20357.4	19413.2
855.5317	1046.9636	20266.8	19316.8
855.6768	1048.9452	20217.5	19271.95
855.8219	1050.926	20257.05	19312.7
855.9669	1052.9061	20233.5	19291.3
856.112	1054.8855	20245.6	19296.8
856.257	1056.8642	20274.1	19324.15
856.4021	1058.8421	20387.45	19436
856.5471	1060.8194	20381.5	19430.85
856.6921	1062.7959	20378.2	19430.5
856.8372	1064.7717	20447.55	19499.45
856.9822	1066.7469	20448.25	19499.25
857.1272	1068.7213	20461.7	19512.95
857.2723	1070.695	20439.65	19495.35
857.4173	1072.6679	20361.25	19412.4
857.5623	1074.6402	20328.55	19382.5
857.7073	1076.6117	20333.65	19376.8
857.8523	1078.5826	20326.85	19376.5
857.9973	1080.5527	20357.55	19403.4
858.1423	1082.5221	20448.05	19501.7
858.2873	1084.4908	20629.1	19681.15
858.4323	1086.4587	20792.3	19845.65
858.5773	1088.426	20916.6	19968.25
858.7223	1090.3925	20877.05	19924.15
858.8673	1092.3584	20862.6	19917.9
859.0123	1094.3235	20712.95	19765.35
859.1573	1096.2879	20697.65	19754.65
859.3022	1098.2515	20662.25	19715.3
859.4472	1100.2145	20736	19793.25
859.5922	1102.1767	20779.35	19830.15
859.7371	1104.1382	20912.1	19968.75
859.8821	1106.099	21144.7	20196.8
860.027	1108.0591	21337.35	20394.6
860.172	1110.0185	21434.35	20486
860.3169	1111.9771	21498.95	20554.65
860.4619	1113.9351	21237.8	20292.55
860.6068	1115.8923	20961.3	20017.2
860.7517	1117.8488	20648.5	19702.6
860.8967	1119.8045	20381.4	19437.4
861.0416	1121.7596	20272.9	19328.5
861.1865	1123.7139	20166.1	19222.5
861.3314	1125.6675	20173.85	19227.95
861.4763	1127.6204	20288.95	19343.6
861.6212	1129.5726	20259.65	19309.7
861.7661	1131.524	20266.05	19322.25
861.911	1133.4748	20255.7	19310.75
862.0559	1135.4248	20209	19258.85
862.2008	1137.3741	20187.9	19241.7
862.3457	1139.3226	20162.95	19214.6
862.4905	1141.2705	20151.75	19204.95
862.6354	1143.2176	20047.35	19098.05
862.7803	1145.164	20060.45	19111.3
862.9251	1147.1097	20021.45	19075.4
863.07	1149.0546	20036.15	19088.65
863.2148	1150.9989	19961.15	19014.35
863.3597	1152.9424	19859.45	18910.25
863.5045	1154.8852	19672.6	18726.3
863.6493	1156.8272	19567.7	18621.15
863.7942	1158.7686	19550.15	18596.7
863.939	1160.7092	19522.95	18574.1
864.0838	1162.6491	19463.25	18518.7
864.2286	1164.5883	19577.5	18626.95
864.3734	1166.5267	19580.05	18631.75
864.5182	1168.4644	19765.3	18819.25
864.663	1170.4014	19944.2	18996.3
864.8078	1172.3377	20182.25	19241.25
864.9526	1174.2732	20398.95	19456.75
865.0974	1176.2081	20672.85	19729.05
865.2421	1178.1421	20872.2	19923.75
865.3869	1180.0755	21093.55	20147
865.5317	1182.0082	21111.1	20168.85
865.6764	1183.9401	21140.65	20199.35
865.8212	1185.8713	20991.2	20056.75
865.9659	1187.8017	20700.1	19768.5
866.1106	1189.7315	20457.75	19532.7
866.2554	1191.6605	20173.85	19251.95
866.4001	1193.5888	19953	19025.7
866.5448	1195.5163	19869.05	18931.5
866.6895	1197.4432	19743.5	18799.75
866.8342	1199.3693	19718.7	18779.35
866.9789	1201.2947	19668.3	18719.4
867.1236	1203.2193	19594.2	18653.95
867.2683	1205.1432	19606.6	18665.8
867.413	1207.0664	19649.9	18704.65
867.5576	1208.9889	19669.2	18725.7
867.7023	1210.9106	19682.7	18741.95
867.847	1212.8316	19751.35	18809.4
867.9916	1214.7519	19771.55	18817.5
868.1363	1216.6715	19770.35	18830.45
868.2809	1218.5903	19786.5	18848.3
868.4255	1220.5084	19737.2	18793.55
868.5701	1222.4257	19737.9	18797.5
868.7148	1224.3424	19662.9	18723.6
868.8594	1226.2583	19721.65	18777.8
869.004	1228.1735	19788.65	18850
869.1486	1230.0879	19848.05	18907.9
869.2932	1232.0016	19965.4	19026.35
869.4377	1233.9146	20008.05	19064.8
869.5823	1235.8269	19912.1	18970.8
869.7269	1237.7384	19784.45	18844.1
869.8715	1239.6492	19561.15	18619.2
870.016	1241.5592	19468.15	18526.7
870.1606	1243.4686	19362.55	18422.5
870.3051	1245.3772	19350.1	18411.45
870.4496	1247.285	19333.8	18394.9
870.5941	1249.1922	19253.55	18315.1
870.7387	1251.0986	19285.85	18347.05
870.8832	1253.0042	19239.05	18302
871.0277	1254.9092	19294.25	18352.75
871.1722	1256.8134	19336.95	18399.6
871.3167	1258.7169	19528.2	18591.55
871.4611	1260.6196	19664.65	18727.85
871.6056	1262.5216	19822.05	18882.7
871.7501	1264.4229	19970.05	19034.7
871.8945	1266.3234	20143.75	19208.65
872.039	1268.2232	20158.6	19219.75
872.1834	1270.1223	20187.95	19246.85
872.3278	1272.0207	20180.7	19240.6
872.4723	1273.9183	20106.4	19160.65
872.6167	1275.8151	20061.15	19124.05
872.7611	1277.7113	19954.05	19014.6
872.9055	1279.6067	19815.6	18879.55
873.0499	1281.5014	19721.55	18783.25
873.1943	1283.3953	19649.1	18707.55
873.3386	1285.2885	19648.3	18712.7
873.483	1287.181	19686	18748.35
873.6274	1289.0727	19779.35	18843.55
873.7717	1290.9637	19844.35	18906.7
873.9161	1292.854	19974.45	19036.5
874.0604	1294.7435	20082.15	19147.4
874.2047	1296.6323	20322.25	19387.5
874.349	1298.5204	20501.05	19557.95
874.4933	1300.4077	20707.2	19764.35
874.6376	1302.2943	20841.9	19905.75
874.7819	1304.1802	20921.95	19985.3
874.9262	1306.0653	20765.95	19825.15
875.0705	1307.9497	20571.25	19633.7
875.2147	1309.8333	20390.3	19449.6
875.359	1311.7162	20349.4	19411.5
875.5032	1313.5984	20341.8	19402
875.6475	1315.4798	20360.2	19410.45
875.7917	1317.3605	20402.65	19449.3
875.9359	1319.2405	20477.85	19537.6
876.0801	1321.1197	20464.25	19523.6
876.2243	1322.9982	20311.15	19369.3
876.3685	1324.876	20259.5	19323.65
876.5127	1326.753	20152.45	19213.85
876.6569	1328.6293	20142.95	19201.55
876.801	1330.5048	20159.3	19217.5
876.9452	1332.3796	20052.9	19114.05
877.0893	1334.2537	20056.05	19090.8
877.2335	1336.127	19953.8	19018.1
877.3776	1337.9996	19904.75	18967.45
877.5217	1339.8714	19825.75	18886.05
877.6658	1341.7426	19866.75	18883.7
877.8099	1343.6129	19773.4	18834.5
877.954	1345.4826	19722.3	18783.85
878.0981	1347.3515	19700.4	18755.95
878.2422	1349.2196	19643.65	18702.25
878.3862	1351.087	19611.45	18672.8
878.5303	1352.9537	19680.7	18740.9
878.6743	1354.8197	19800.9	18859.2
878.8184	1356.6849	19964.15	19023.1
878.9624	1358.5493	20000	19062.05
879.1064	1360.4131	20055.75	19119.95
879.2504	1362.276	19996.45	19059.95
879.3944	1364.1383	19832.55	18893.25
879.5384	1365.9998	19582.65	18638.1
879.6823	1367.8606	19266.2	18326.45
879.8263	1369.7206	18989.9	18052.25
879.9702	1371.5799	18735.35	17795.75
880.1142	1373.4384	18552.5	17614.35
880.2581	1375.2962	18414.8	17475.5
880.402	1377.1533	18141	17205.9
880.5459	1379.0096	17798.1	16865.95
880.6898	1380.8652	17495.7	16565.4
880.8337	1382.7201	17257.1	16322
880.9776	1384.5742	17020.25	16084.45
881.1215	1386.4275	16839.15	15901.35
881.2653	1388.2802	16663.05	15727
881.4092	1390.132	16517.55	15580.35
881.553	1391.9832	16472.8	15534.75
881.6968	1393.8336	16370.75	15433.75
881.8406	1395.6832	16296.05	15357.5
881.9844	1397.5322	16237.75	15299.7
882.1282	1399.3803	16169	15225.1
882.272	1401.2278	16141	15202.2
882.4158	1403.0745	16126	15189.45
882.5595	1404.9204	16071.65	15138.45
882.7033	1406.7656	16095.3	15161.35
882.847	1408.6101	16084	15147.1
882.9908	1410.4538	16042.85	15106.25
883.1345	1412.2968	16075.25	15141.15
883.2782	1414.139	16070.65	15135.6
883.4219	1415.9805	16162.9	15229.15
883.5656	1417.8213	16223.2	15283.25
883.7092	1419.6613	16282.3	15348.95
883.8529	1421.5006	16483.6	15549.2
883.9965	1423.3391	16708	15769.95
884.1402	1425.1769	16992.5	16053.95
884.2838	1427.0139	17462.65	16525.75
884.4274	1428.8502	18009.85	17073.95
884.571	1430.6858	18576.85	17643.25
884.7146	1432.5206	18937.45	18004.1
884.8582	1434.3547	19162.1	18229.25
885.0018	1436.188	19188.35	18256.85
885.1453	1438.0206	19085.2	18148.7
885.2889	1439.8524	18942.15	18006.9
885.4324	1441.6835	18795.8	17861.2
885.5759	1443.5139	18680.7	17747.3
885.7194	1445.3435	18618.5	17683.5
885.8629	1447.1724	18586.85	17654.95
886.0064	1449.0005	18470.45	17535.2
886.1499	1450.8279	18390.15	17453.95
886.2933	1452.6545	18326.55	17395.95
886.4368	1454.4804	18360.3	17429.2
886.5802	1456.3056	18309.95	17368.8
886.7237	1458.13	18190.25	17259.95
886.8671	1459.9536	17976.4	17045.5
887.0105	1461.7766	17642.35	16708.6
887.1539	1463.5987	17245.35	16310.3
887.2972	1465.4202	16845.2	15912.7
887.4406	1467.2409	16490.45	15557.45
887.584	1469.0608	16227.95	15293.8
887.7273	1470.88	15951.15	15016.85
887.8706	1472.6984	15710.15	14782.15
888.0139	1474.5161	15481.45	14545.65
888.1572	1476.3331	15340	14405.5
888.3005	1478.1493	15186.75	14254.3
888.4438	1479.9648	15073.35	14137
888.5871	1481.7795	14940.3	14007.9
888.7303	1483.5935	14873.55	13941.95
888.8736	1485.4067	14771.4	13840.05
889.0168	1487.2192	14751.9	13819.2
889.16	1489.031	14717.7	13782.1
889.3032	1490.842	14626.35	13695.7
889.4464	1492.6522	14633.4	13702.7
889.5896	1494.4618	14572.3	13637.35
889.7327	1496.2705	14506.45	13575.25
889.8759	1498.0785	14472.8	13540.5
890.019	1499.8858	14422.75	13491.8
890.1622	1501.6924	14390.65	13458.85
890.3053	1503.4981	14373.65	13441.65
890.4484	1505.3032	14324.75	13392.55
890.5914	1507.1075	14273.5	13342.95
890.7345	1508.911	14247.65	13316.7
890.8776	1510.7138	14167.2	13237.1
891.0206	1512.5159	14112.1	13180.5
891.1637	1514.3172	14040.45	13109.55
891.3067	1516.1178	13993.25	13060.65
891.4497	1517.9176	13951.15	13017.05
891.5927	1519.7166	13872.4	12941.25
891.7357	1521.515	13869	12934.5
891.8786	1523.3126	13809.65	12880.6
892.0216	1525.1094	13753.95	12821.2
892.1645	1526.9055	13707.4	12781.5
892.3074	1528.7008	13656.3	12728.7
892.4503	1530.4954	13580.8	12650.55
892.5932	1532.2893	13553.75	12628.5
892.7361	1534.0824	13503.1	12573.75
892.879	1535.8747	13508.65	12584.9
893.0218	1537.6663	13457.2	12534.2
893.1647	1539.4572	13425.75	12499.25
893.3075	1541.2473	13417.5	12490.7
893.4503	1543.0367	13377.55	12454.95
893.5931	1544.8253	13369.2	12439.95
893.7359	1546.6132	13348.8	12422.35
893.8787	1548.4003	13359.25	12427.35
894.0214	1550.1867	13354.5	12420.95
894.1642	1551.9723	13327.2	12401.1
894.3069	1553.7572	13344	12420.95
894.4496	1555.5414	13331.5	12408.6
894.5923	1557.3247	13396.1	12476.95
894.735	1559.1074	13455.35	12537
894.8777	1560.8893	13473.7	12553.3
895.0204	1562.6705	13548.45	12632.75
895.163	1564.4509	13612.95	12693.05
895.3056	1566.2305	13617.35	12704.7
895.4482	1568.0094	13688.5	12775.8
895.5908	1569.7876	13728.2	12810.95
895.7334	1571.565	13756.7	12837.05
895.876	1573.3417	13767.8	12849.15
896.0186	1575.1176	13712.95	12796.1
896.1611	1576.8928	13651	12738.45
896.3036	1578.6672	13550.1	12641.9
896.4461	1580.4409	13430.45	12522.35
896.5886	1582.2138	13335.3	12422.55
896.7311	1583.986	13207.45	12292.6
896.8736	1585.7575	13136.65	12225.1
897.0161	1587.5282	13041.55	12129.6
897.1585	1589.2981	13013.45	12106.2
897.3009	1591.0673	12978.3	12069.15
897.4433	1592.8358	12956.25	12045.6
897.5857	1594.6035	12957.45	12043.75
897.7281	1596.3704	12944.25	12026.6
897.8705	1598.1366	12950.45	12035.1
898.0128	1599.9021	12975.3	12064.95
898.1551	1601.6668	12981.6	12066.45
898.2975	1603.4308	13046.45	12134.3
898.4398	1605.194	13158.6	12243.35
898.5821	1606.9564	13242.45	12336.65
898.7243	1608.7182	13360.25	12458.35
898.8666	1610.4791	13489.65	12592.9
899.0088	1612.2394	13626.65	12731.05
899.1511	1613.9988	13826.85	12926.7
899.2933	1615.7576	13998.15	13092.4
899.4355	1617.5156	14164.3	13246.55
899.5776	1619.2728	14377.65	13462.3
899.7198	1621.0293	14492.85	13584.4
899.862	1622.785	14483.55	13571.2
900.0041	1624.54	14398.7	13489.45
900.1462	1626.2942	14226.25	13323.05
900.2883	1628.0477	13931.15	13025.35
900.4304	1629.8005	13691.7	12778.85
900.5725	1631.5525	13471.8	12567.85
900.7145	1633.3037	13296.55	12393.65
900.8566	1635.0542	13136.2	12233.2
900.9986	1636.804	13008	12103.6
901.1406	1638.553	12997.85	12009.15
901.2826	1640.3013	12869.3	11964.3
901.4245	1642.0488	12854.5	11948.95
901.5665	1643.7955	12855.25	11954.7
901.7085	1645.5416	12869.85	11967.15
901.8504	1647.2868	12945.8	12044.4
901.9923	1649.0313	12994.15	12086.9
902.1342	1650.7751	13170.7	12264.25
902.2761	1652.5181	13308.55	12407.05
902.4179	1654.2604	13486.2	12584.45
902.5598	1656.0019	13738.85	12838.1
902.7016	1657.7427	14020.75	13117.4
902.8434	1659.4828	14343.9	13438.65
902.9852	1661.222	14497.8	13589.1
903.127	1662.9606	14483.85	13577.45
903.2687	1664.6984	14261.3	13355.6
903.4105	1666.4354	13891.25	12981.65
903.5522	1668.1717	13388.45	12479.9
903.6939	1669.9072	12860.1	11953.35
903.8356	1671.642	12426.8	11517.75
903.9773	1673.3761	12083.55	11177.15
904.119	1675.1094	11801.05	10895.35
904.2606	1676.8419	11582.95	10678.5
904.4022	1678.5737	11364.3	10458.45
904.5439	1680.3048	11229.9	10321
904.6855	1682.0351	11113.4	10207.5
904.827	1683.7646	11003.75	10092.45
904.9686	1685.4934	10919.65	10014.4
905.1101	1687.2215	10858.85	9955
905.2517	1688.9488	10762.05	9858.8
905.3932	1690.6754	10677.95	9774.9
905.5347	1692.4012	10663.75	9757.85
905.6761	1694.1263	10622.6	9714.75
905.8176	1695.8506	10555	9648
905.9591	1697.5742	10489.45	9585.75
906.1005	1699.297	10439.75	9541.1
906.2419	1701.0191	10394.45	9496.5
906.3833	1702.7404	10345.75	9448.55
906.5246	1704.461	10317.6	9416.05
906.666	1706.1808	10257.65	9354.8
906.8073	1707.8999	10220.15	9317.4
906.9487	1709.6182	10169.6	9270.7
907.09	1711.3358	10131.3	9237.4
907.2313	1713.0527	10091.55	9199.15
907.3725	1714.7688	10043.4	9144.15
907.5138	1716.4841	10004.45	9101.35
907.655	1718.1987	9981.2	9076.65
907.7962	1719.9126	9964.55	9067.1
907.9374	1721.6257	9926.25	9029.95
908.0786	1723.338	9898.5	9004.55
908.2198	1725.0496	9836.2	8936.95
908.3609	1726.7605	9807.2	8905.35
908.502	1728.4706	9776.8	8879.6
908.6431	1730.18	9715.5	8819.4
908.7842	1731.8886	9687.3	8790.7
908.9253	1733.5964	9679.15	8776.95
909.0664	1735.3036	9649	8748.6
909.2074	1737.0099	9621	8725.25
909.3484	1738.7156	9614.95	8719.9
909.4894	1740.4204	9533.95	8637.35
909.6304	1742.1246	9511.9	8612.3
909.7714	1743.8279	9513.15	8616.65
909.9123	1745.5306	9478.9	8585.25
910.0532	1747.2325	9447.3	8551.25
910.1941	1748.9336	9404.45	8508.55
910.335	1750.634	9362.1	8463.9
910.4759	1752.3336	9343.8	8448.05
910.6168	1754.0325	9317.25	8426.4
910.7576	1755.7307	9298.75	8406.8
910.8984	1757.4281	9306.5	8409.25
911.0392	1759.1247	9288.85	8382.1
911.18	1760.8206	9259.65	8357.05
911.3208	1762.5158	9223.5	8317.8
911.4615	1764.2102	9182.1	8285.5
911.6022	1765.9039	9125.6	8230.3
911.7429	1767.5968	9112.55	8220.65
911.8836	1769.289	9117.6	8224.75
912.0243	1770.9804	9076.65	8178.95
912.1649	1772.6711	9073.3	8172.55
912.3056	1774.361	9049.75	8149.6
912.4462	1776.0502	9035.9	8136.75
912.5868	1777.7386	8995.5	8092.65
912.7274	1779.4263	8986.85	8092.5
912.8679	1781.1132	8980.8	8087.85
913.0084	1782.7994	8941.8	8050.75
913.149	1784.4849	8920.7	8030.35
913.2895	1786.1696	8884.3	7986.7
913.4299	1787.8535	8863.2	7974.25
913.5704	1789.5367	8830.5	7939.6
913.7108	1791.2192	8829.75	7938.7
913.8513	1792.9009	8812.1	7891.65
913.9917	1794.5818	8781.6	7884.6
914.132	1796.2621	8751.35	7854.1
914.2724	1797.9415	8747.1	7852.85
914.4128	1799.6202	8725.9	7829.3
914.5531	1801.2982	8690.45	7791
914.6934	1802.9755	8680.05	7783.6
914.8337	1804.6519	8679.65	7786.15
914.9739	1806.3277	8606.6	7714.25
915.1142	1808.0027	8564.6	7674.7
915.2544	1809.6769	8586.15	7694.35
915.3946	1811.3504	8562.2	7671.5
915.5348	1813.0231	8557.1	7668.95
915.675	1814.6951	8521.2	7628.15
915.8151	1816.3664	8523.8	7628.4
915.9553	1818.0369	8513.8	7620
916.0954	1819.7067	8492	7599.2
916.2355	1821.3757	8454.1	7558.1
916.3755	1823.044	8450.3	7553.9
916.5156	1824.7115	8409.55	7512.9
916.6556	1826.3783	8386.1	7490.05
916.7956	1828.0443	8363.9	7467.9
916.9356	1829.7096	8347.5	7451.9
917.0756	1831.3741	8340.7	7443.45
917.2155	1833.0379	8295.35	7404.35
917.3555	1834.701	8293	7400.45
917.4954	1836.3633	8262	7372.4
917.6353	1838.0248	8255.85	7363.45
917.7751	1839.6856	8232.25	7338.2
917.915	1841.3457	8216.75	7322.75
918.0548	1843.005	8202.4	7305.15
918.1946	1844.6636	8195.5	7299.75
918.3344	1846.3214	8180.65	7286.9
918.4742	1847.9785	8173.25	7279.5
918.6139	1849.6349	8137.85	7238.95
918.7537	1851.2904	8131.8	7225.05
918.8934	1852.9453	8085.6	7187.55
919.0331	1854.5994	8088.6	7189.55
919.1727	1856.2528	8071.25	7171.55
919.3124	1857.9054	8042.9	7148.65
919.452	1859.5572	8042.55	7150.6
919.5916	1861.2083	8022.8	7127.85
919.7312	1862.8587	8016	7119.65
919.8708	1864.5084	7998.7	7099.9
920.0103	1866.1572	7985.3	7089.65
920.1498	1867.8054	7943	7045.25
920.2893	1869.4528	7912.1	7016.8
920.4288	1871.0994	7903.85	7006.25
920.5683	1872.7453	7884.45	6986.1
920.7077	1874.3905	7878.95	6965.55
920.8471	1876.0349	7836.1	6939.15
920.9865	1877.6786	7831.05	6931.95
921.1259	1879.3215	7824.1	6928.95
921.2653	1880.9637	7809.35	6914.7
921.4046	1882.6051	7800.1	6905.5
921.5439	1884.2458	7766.6	6870.6
921.6832	1885.8858	7742.2	6846.2
921.8225	1887.525	7719.15	6825.55
921.9617	1889.1634	7695.35	6800.25
922.101	1890.8011	7655.95	6760.4
922.2402	1892.4381	7675.9	6781.8
922.3794	1894.0743	7646.85	6751.7
922.5185	1895.7098	7635.65	6741.85
922.6577	1897.3446	7604.5	6709.7
922.7968	1898.9786	7580.7	6683.1
922.9359	1900.6118	7570	6674.9
923.075	1902.2443	7530.05	6635.95
923.214	1903.8761	7524.7	6632.35
923.3531	1905.5071	7481.35	6585.8
923.4921	1907.1374	7426.25	6531.1
923.6311	1908.7669	7431.1	6537.15
923.77	1910.3957	7431.25	6537.2
923.909	1912.0237	7390.6	6499
924.0479	1913.651	7380.45	6488.1
924.1868	1915.2776	7379.45	6488.15
924.3257	1916.9034	7337.35	6446.25
924.4646	1918.5285	7301	6409.5
924.6034	1920.1528	7263.3	6370
924.7422	1921.7764	7272	6378.85
924.881	1923.3992	7239.4	6345.7
925.0198	1925.0213	7191.95	6297.95
925.1586	1926.6427	7191.4	6298.65
925.2973	1928.2633	7257.55	6261.7
925.436	1929.8832	7165.7	6269.1
925.5747	1931.5023	7126.7	6231.2
925.7134	1933.1207	7103.5	6211.55
925.852	1934.7383	7102.8	6209.45
925.9906	1936.3552	7052.35	6161.75
926.1292	1937.9714	7032.65	6139.6
926.2678	1939.5868	7015.8	6122.2
926.4064	1941.2015	6982.65	6089.3
926.5449	1942.8154	6969.75	6075.2
926.6834	1944.4286	6938.35	6045.2
926.8219	1946.041	6922.15	6003.95
926.9604	1947.6528	6883.95	5984.05
927.0988	1949.2637	6852.35	5958.35
927.2372	1950.8739	6842.35	5948.75
927.3756	1952.4834	6847.95	5956.55
927.514	1954.0921	6810.7	5916.3
927.6523	1955.7001	6825.65	5932.75
927.7907	1957.3074	6742.2	5855.05
927.929	1958.9139	6737.8	5850.9
928.0673	1960.5197	6725.15	5834.15
928.2055	1962.1247	6687.15	5794.95
928.3438	1963.729	6641.8	5754.5
928.482	1965.3325	6629	5737.4
928.6202	1966.9353	6606.2	5720.2
928.7584	1968.5374	6618.05	5729.55
928.8965	1970.1387	6590.7	5702
929.0346	1971.7393	6556.5	5666.9
929.1727	1973.3392	6520.65	5634.4
929.3108	1974.9383	6515.75	5626.6
929.4489	1976.5366	6483.85	5596.7
929.5869	1978.1342	6484.2	5596.8
929.7249	1979.7311	6452.9	5564.65
929.8629	1981.3273	6435.3	5550.85
930.0009	1982.9227	6421.9	5534.95
930.1388	1984.5173	6399.35	5514.9
930.2767	1986.1112	6384.35	5499.1
930.4146	1987.7044	6370.1	5485.75
930.5525	1989.2968	6349.25	5462.7
930.6904	1990.8885	6323.45	5434.2
930.8282	1992.4795	6317.95	5433.9
930.966	1994.0697	6284.45	5402.35
931.1038	1995.6592	6265.3	5379.2
931.2415	1997.2479	6278.85	5391.65
931.3793	1998.8359	6238	5352.6
931.517	2000.4232	6222.6	5340.1
931.6547	2002.0097	6198.5	5319.5
931.7923	2003.5955	6175.3	5292.95
931.93	2005.1805	6173.05	5289.6
932.0676	2006.7648	6154.25	5271.15
932.2052	2008.3484	6137.95	5256.4
932.3427	2009.9312	6124.85	5241.5
932.4803	2011.5133	6102.2	5222.25
932.6178	2013.0946	6084.35	5204.4
932.7553	2014.6752	6072.55	5189.7
932.8928	2016.2551	6054.2	5171.1
933.0302	2017.8342	6027.75	5144.75
933.1676	2019.4126	6012.85	5132.45
933.305	2020.9902	5967.7	5088
933.4424	2022.5672	5984.5	5103.15
933.5798	2024.1433	5979	5096.5
933.7171	2025.7188	5956.3	5078.8
933.8544	2027.2935	5921	5040.95
933.9917	2028.8674	5917.85	5037.35
934.129	2030.4406	5888.15	5009.6
934.2662	2032.0131	5879.65	5000.45
934.4034	2033.5849	5845.75	4955.35
934.5406	2035.1559	5829.8	4950.65
934.6778	2036.7261	5849.45	4968.85
934.8149	2038.2957	5837.05	4953.95
934.952	2039.8645	5815.7	4931
935.0891	2041.4325	5824.95	4938.1
935.2262	2042.9998	5789.75	4909.9
935.3632	2044.5664	5794.1	4912.2
935.5002	2046.1323	5755.3	4876.8
935.6372	2047.6974	5740.95	4860.25
935.7742	2049.2617	5720.45	4841.75
935.9111	2050.8254	5729.2	4844
936.048	2052.3883	5710.55	4825.6
936.1849	2053.9504	5712.5	4828.35
936.3218	2055.5118	5684.95	4801.85
936.4586	2057.0725	5671	4783.4
936.5955	2058.6325	5649.3	4767.1
936.7323	2060.1917	5629.15	4749.4
936.869	2061.7502	5624	4740.2
937.0058	2063.3079	5592.15	4714
937.1425	2064.8649	5568.9	4685.5
937.2792	2066.4212	5558.4	4677.4
937.4159	2067.9767	5551	4668.3
937.5525	2069.5315	5530.3	4646.6
937.6891	2071.0856	5510.8	4631
937.8257	2072.6389	5464.55	4579.5
937.9623	2074.1915	5457.95	4579.2
938.0989	2075.7433	5443.35	4559.95
938.2354	2077.2945	5426	4544.6
938.3719	2078.8448	5418.5	4534.35
938.5084	2080.3945	5402.9	4519.75
938.6448	2081.9434	5414.45	4530.5
938.7812	2083.4916	5390.4	4503.55
938.9176	2085.039	5363.4	4471.7
939.054	2086.5857	5361.55	4468.9
939.1903	2088.1317	5346.9	4454.5
939.3267	2089.677	5343.85	4451.7
939.463	2091.2215	5311.15	4419
939.5992	2092.7652	5299.35	4405.25
939.7355	2094.3083	5292.85	4401.5
939.8717	2095.8506	5291.05	4405.55
940.0079	2097.3921	5279.65	4392.9
940.1441	2098.933	5263.45	4376.45
940.2802	2100.4731	5241.4	4354.4
940.4163	2102.0124	5248.1	4343.35
940.5524	2103.5511	5224.45	4335.65
940.6885	2105.089	5229.5	4341.05
940.8245	2106.6261	5219.95	4335.1
940.9606	2108.1626	5187.6	4300.15
941.0965	2109.6983	5195.8	4279.95
941.2325	2111.2332	5167.45	4277.9
941.3684	2112.7675	5147.55	4259.15
941.5044	2114.301	5147.7	4256.8
941.6403	2115.8337	5128.85	4239.65
941.7761	2117.3657	5138.65	4250.4
941.912	2118.897	5108.85	4219.1
942.0478	2120.4276	5103.8	4210.1
942.1835	2121.9575	5077.45	4187.05
942.3193	2123.4866	5079.75	4176.95
942.455	2125.0149	5064.35	4175.05
942.5907	2126.5426	5028.6	4144.7
942.7264	2128.0695	5020.35	4134.5
942.8621	2129.5956	5005	4124.5
942.9977	2131.1211	5001.2	4114.4
943.1333	2132.6458	4987.95	4103.6
943.2689	2134.1698	4975.6	4084.25
943.4044	2135.693	4986.65	4094.35
943.54	2137.2155	4970.05	4076.75
943.6755	2138.7373	4934.25	4046.75
943.8109	2140.2584	4933.5	4051.6
943.9464	2141.7787	4913.55	4027.95
944.0818	2143.2983	4900.4	4021.2
944.2172	2144.8171	4862.9	3983.3
944.3526	2146.3353	4865.2	3980.65
944.4879	2147.8527	4851.3	3965.55
944.6232	2149.3693	4844.9	3958.7
944.7585	2150.8853	4847.6	3957
944.8938	2152.4005	4816.85	3925.65
945.029	2153.9149	4814.85	3923.35
945.1642	2155.4287	4808.8	3919.7
945.2994	2156.9417	4791.05	3902.55
945.4346	2158.454	4778.4	3890.3
945.5697	2159.9655	4756.8	3874.25
945.7048	2161.4764	4780.95	3894.9
945.8399	2162.9865	4749.4	3862.45
945.9749	2164.4958	4715.55	3830.05
946.1099	2166.0045	4717.9	3832.85
946.2449	2167.5124	4720.3	3834.6
946.3799	2169.0195	4692	3803.9
946.5148	2170.526	4698.25	3808.5
946.6498	2172.0317	4690.65	3803.4
946.7846	2173.5367	4690.25	3802.65
946.9195	2175.0409	4664.1	3778.05
947.0543	2176.5445	4649.55	3762.5
947.1891	2178.0473	4643.9	3753.55
947.3239	2179.5494	4629.75	3736.45
947.4587	2181.0507	4614.3	3724.15
947.5934	2182.5513	4611.35	3725.1
947.7281	2184.0512	4591.95	3704.4
947.8628	2185.5504	4567.55	3678.85
947.9974	2187.0488	4558.1	3673.6
948.132	2188.5465	4546.55	3662.4
948.2666	2190.0435	4543	3654.85
948.4012	2191.5397	4520.7	3631.7
948.5357	2193.0353	4509.3	3620.25
948.6702	2194.5301	4501	3605.95
948.8047	2196.0241	4483.35	3589.45
948.9392	2197.5175	4488.8	3592.85
949.0736	2199.0101	4474.1	3576.45
949.208	2200.502	4429.55	3541.35
949.3424	2201.9931	4418.4	3530.75
949.4767	2203.4835	4410.35	3523.7
949.611	2204.9733	4402.85	3513
949.7453	2206.4622	4379.55	3496.8
949.8796	2207.9505	4370.4	3483.8
950.0138	2209.438	4349.5	3466.6
950.148	2210.9248	4350	3463.05
950.2822	2212.4109	4334.9	3448.2
950.4164	2213.8962	4322.3	3430.15
950.5505	2215.3809	4332.05	3438.25
950.6846	2216.8648	4315.5	3421.4
950.8186	2218.3479	4298.7	3400.4
950.9527	2219.8304	4290	3392.05
951.0867	2221.3121	4266.3	3370.75
951.2207	2222.7931	4249.4	3358.75
951.3546	2224.2733	4248	3358.45
951.4886	2225.7529	4235.7	3345.75
951.6225	2227.2317	4215.05	3326.5
951.7563	2228.7098	4212.85	3325.2
951.8902	2230.1872	4205.8	3320.25
952.024	2231.6638	4182.8	3297.05
952.1578	2233.1397	4173.95	3285.65
952.2916	2234.6149	4175.05	3290.4
952.4253	2236.0894	4182.25	3294.35
952.559	2237.5632	4175.5	3280.65
952.6927	2239.0362	4141.15	3252.3
952.8263	2240.5085	4130.65	3241.85
952.9599	2241.9801	4111	3219.6
953.0935	2243.4509	4108.25	3218.05
953.2271	2244.921	4075.8	3186.95
953.3606	2246.3904	4073.15	3177.3
953.4941	2247.8591	4069.4	3178.4
953.6276	2249.3271	4065.9	3174.85
953.7611	2250.7943	4042.3	3150.05
953.8945	2252.2608	4023.2	3131.45
954.0279	2253.7266	4029.9	3141.3
954.1612	2255.1917	4018.45	3130.1
954.2946	2256.656	3997.25	3107.85
954.4279	2258.1197	3982.75	3096.7
954.5612	2259.5826	3978.35	3089.15
954.6944	2261.0447	3967.9	3078.45
954.8276	2262.5062	3975.8	3083.7
954.9608	2263.9669	3949.1	3058.05
955.094	2265.4269	3937.35	3047.2
955.2271	2266.8862	3945.35	3055.85
955.3602	2268.3448	3927.05	3039.05
955.4933	2269.8026	3916.65	3029.95
955.6264	2271.2598	3906.4	3021.15
955.7594	2272.7162	3888	2997.65
955.8924	2274.1719	3900.05	3009.4
956.0253	2275.6268	3867.7	2975.95
956.1583	2277.0811	3880.85	2988.95
956.2912	2278.5346	3861.05	2973.35
956.4241	2279.9874	3863.2	2977.35
956.5569	2281.4395	3851.2	2965.8
956.6897	2282.8908	3842.4	2950.05
956.8225	2284.3414	3835.55	2946.3
956.9553	2285.7914	3838.2	2948.4
957.088	2287.2406	3810.3	2917.15
957.2207	2288.689	3801.9	2912.8
957.3534	2290.1368	3813.15	2918.4
957.486	2291.5838	3795.85	2898.65
957.6186	2293.0302	3798.1	2902.3
957.7512	2294.4758	3766.25	2872.55
957.8838	2295.9206	3756.3	2863.4
958.0163	2297.3648	3741.65	2851.8
958.1488	2298.8082	3740	2849.65
958.2813	2300.251	3737.4	2845.1
958.4137	2301.693	3728.6	2832.8
958.5461	2303.1343	3733.45	2841.05
958.6785	2304.5748	3702.8	2813.25
958.8108	2306.0147	3695.85	2806.3
958.9432	2307.4538	3694.85	2804.4
959.0754	2308.8922	3677.05	2792.8
959.2077	2310.3299	3683.45	2797.65
959.3399	2311.7669	3653.7	2765.95
959.4721	2313.2031	3652.5	2762.2
959.6043	2314.6387	3653.3	2765.1
959.7365	2316.0735	3635.3	2746.75
959.8686	2317.5076	3616.15	2723.3
960.0006	2318.941	3608.2	2715.75
960.1327	2320.3737	3618.65	2723.8
960.2647	2321.8056	3610.7	2717.45
960.3967	2323.2369	3594.75	2701.2
960.5287	2324.6674	3588.1	2697.05
960.6606	2326.0972	3577.1	2687
960.7925	2327.5263	3567.25	2677.2
960.9244	2328.9547	3567.35	2675.25
961.0562	2330.3823	3549.8	2658.8
961.1881	2331.8092	3552.85	2655.7
961.3198	2333.2355	3529.5	2636.85
961.4516	2334.661	3529.05	2636.45
961.5833	2336.0858	3520.1	2626.2
961.715	2337.5098	3510.5	2619.15
961.8467	2338.9332	3502.5	2611.2
961.9783	2340.3558	3497.35	2604.5
962.1099	2341.7778	3484.95	2595.2
962.2415	2343.199	3473.45	2581.4
962.373	2344.6195	3455.35	2564.85
962.5045	2346.0393	3453.2	2564.3
962.636	2347.4583	3455.9	2565.75
962.7675	2348.8767	3440.6	2549.25
962.8989	2350.2943	3443.25	2550.6
963.0303	2351.7113	3450.4	2554.2
963.1617	2353.1275	3439	2547.9
963.293	2354.543	3420.1	2519.15
963.4243	2355.9578	3404.9	2512.65
963.5556	2357.3718	3398.65	2509.6
963.6868	2358.7852	3386.6	2497.95
963.818	2360.1978	3378.4	2491.2
963.9492	2361.6098	3382.95	2494.8
964.0803	2363.021	3372.3	2480.25
964.2114	2364.4315	3360.25	2469.35
964.3425	2365.8413	3350.15	2461.8
964.4736	2367.2504	3340.95	2456.1
964.6046	2368.6587	3328.75	2441.55
964.7356	2370.0664	3319.75	2432.85
964.8666	2371.4733	3308.3	2420.45
964.9975	2372.8795	3306.5	2419.05
965.1284	2374.285	3300.45	2413.25
965.2593	2375.6899	3274.7	2386.7
965.3901	2377.0939	3266	2379.85
965.5209	2378.4973	3261.55	2375.75
965.6517	2379.9	3247.25	2359.85
965.7825	2381.3019	3245.6	2357.65
965.9132	2382.7032	3226.95	2342.5
966.0439	2384.1037	3233.5	2350.55
966.1745	2385.5035	3229.65	2346.65
966.3051	2386.9027	3218.15	2336.5
966.4357	2388.3011	3220.3	2331.45
966.5663	2389.6987	3193.2	2307.95
966.6968	2391.0957	3173.95	2288.2
966.8273	2392.492	3174.25	2291.2
966.9578	2393.8876	3176.1	2291.15
967.0882	2395.2824	3143.95	2258.55
967.2186	2396.6765	3146.05	2261.8
967.349	2398.07	3137.75	2254.1
967.4793	2399.4627	3131.4	2247.1
967.6097	2400.8547	3131.4	2245.95
967.7399	2402.246	3127.7	2236.35
967.8702	2403.6366	3111.55	2227.5
968.0004	2405.0265	3110.9	2228.55
968.1306	2406.4156	3091.15	2202.95
968.2607	2407.8041	3084.8	2194.75
968.3909	2409.1918	3072.75	2183.65
968.521	2410.5789	3062.3	2178.3
968.651	2411.9652	3066.5	2177.5
968.781	2413.3508	3048.65	2164.55
968.911	2414.7358	3023.35	2137.15
969.041	2416.12	3023.25	2137.2
969.1709	2417.5035	3026.8	2142.95
969.3008	2418.8863	3020.35	2131.5
969.4307	2420.2684	3017.45	2131.15
969.5606	2421.6497	3002.2	2114.95
969.6904	2423.0304	2977.3	2092.9
969.8201	2424.4104	2982.6	2095.85
969.9499	2425.7896	2989.1	2103.65
970.0796	2427.1682	2976.95	2091.05
970.2093	2428.546	2975.45	2090.05
970.3389	2429.9232	2964.85	2074.95
970.4685	2431.2996	2951.25	2066.45
970.5981	2432.6753	2948.9	2062.4
970.7277	2434.0503	2947.25	2060.65
970.8572	2435.4246	2934.4	2049.7
970.9867	2436.7982	2926.3	2038.9
971.1161	2438.1711	2916.9	2032.3
971.2456	2439.5433	2912.45	2026.1
971.375	2440.9148	2892.3	1998.95
971.5043	2442.2856	2887.7	2001.15
971.6336	2443.6557	2890.65	2001.85
971.7629	2445.025	2889.95	2002.8
971.8922	2446.3937	2876.1	1989.25
972.0214	2447.7617	2863.45	1974.2
972.1506	2449.1289	2875.75	1990.1
972.2798	2450.4955	2874.3	1980.1
972.4089	2451.8613	2856.15	1970.4
972.538	2453.2265	2849.4	1962.5
972.6671	2454.5909	2844.4	1956.25
972.7961	2455.9546	2844.05	1959.8
972.9251	2457.3177	2828.35	1942.1
973.0541	2458.68	2824	1936.2
973.1831	2460.0416	2829.9	1943.9
973.312	2461.4025	2818.55	1929.85
973.4408	2462.7627	2824.5	1926.8
973.5697	2464.1222	2803.9	1918.95
973.6985	2465.4811	2788.6	1901.45
973.8273	2466.8392	2787.75	1902.5
973.956	2468.1966	2790	1903.05
974.0847	2469.5533	2790.85	1899.9
974.2134	2470.9093	2785.9	1900.35
974.3421	2472.2645	2780.35	1894.2
974.4707	2473.6191	2762.5	1877.25
974.5993	2474.973	2753.85	1867.2
974.7278	2476.3262	2754.7	1865.05
974.8563	2477.6787	2752.9	1866.15
974.9848	2479.0305	2735.9	1848.35
975.1132	2480.3816	2735.35	1846.5
975.2417	2481.7319	2714	1827.2
975.37	2483.0816	2713.35	1826.9
975.4984	2484.4306	2715.45	1828.95
975.6267	2485.7789	2688.95	1804.1
975.755	2487.1264	2692.7	1805.75
975.8833	2488.4733	2689.8	1805.25
976.0115	2489.8195	2679.65	1784.75
976.1397	2491.165	2669.45	1781.9
976.2678	2492.5097	2665.75	1776.45
976.3959	2493.8538	2651.9	1767.1
976.524	2495.1972	2653.4	1765.55
976.6521	2496.5398	2646	1755.85
976.7801	2497.8818	2638.7	1748
976.9081	2499.2231	2639.55	1749.75
977.036	2500.5637	2625.1	1735.15
977.164	2501.9035	2623.55	1734.4
977.2918	2503.2427	2622.85	1732
977.4197	2504.5812	2615.9	1726.2
977.5475	2505.919	2611.7	1720.35
977.6753	2507.256	2610.1	1722.1
977.8031	2508.5924	2597.5	1708.65
977.9308	2509.9281	2597	1705.7
978.0585	2511.2631	2579.15	1692.55
978.1861	2512.5974	2582.05	1694
978.3137	2513.9309	2563.75	1677.25
978.4413	2515.2638	2577.2	1659.3
978.5689	2516.596	2558.5	1670.9
978.6964	2517.9275	2553.35	1662.9
978.8239	2519.2583	2549.1	1660.15
978.9513	2520.5884	2551.25	1661.75
979.0788	2521.9178	2539.75	1652.8
979.2062	2523.2465	2529.75	1642.5
979.3335	2524.5745	2522.35	1637.45
979.4608	2525.9018	2525.7	1639.25
979.5881	2527.2284	2515.2	1629.45
979.7154	2528.5543	2508.05	1621.45
979.8426	2529.8796	2508.65	1619.65
979.9698	2531.2041	2507.05	1621.05
980.0969	2532.5279	2499.7	1611.95
980.224	2533.851	2488.6	1602.6
980.3511	2535.1735	2480.1	1592.55
980.4781	2536.4952	2484.2	1596.85
980.6052	2537.8163	2467.05	1578.95
980.7321	2539.1366	2471.15	1584.15
980.8591	2540.4562	2479.35	1591.35
980.986	2541.7752	2461.6	1574.55
981.1129	2543.0935	2466.35	1576.1
981.2397	2544.411	2462.25	1570.5
981.3665	2545.7279	2461.4	1573.95
981.4933	2547.0441	2453	1565.25
981.62	2548.3596	2458.9	1567.65
981.7467	2549.6744	2445.25	1556.15
981.8734	2550.9885	2441.7	1546.5
982.0001	2552.3019	2428.35	1540.6
982.1267	2553.6146	2437.85	1548.9
982.2532	2554.9266	2423.45	1533.9
982.3798	2556.2379	2407.4	1517.1
982.5063	2557.5485	2411.65	1526
982.6327	2558.8585	2418.2	1525.55
982.7592	2560.1677	2410.9	1516.5
982.8856	2561.4762	2401	1513.3
983.0119	2562.7841	2397.3	1505.45
983.1383	2564.0913	2392.85	1506.05
983.2646	2565.3977	2391.75	1502.8
983.3908	2566.7035	2390.75	1501.1
983.517	2568.0086	2392.65	1502.2
983.6432	2569.313	2373.65	1484.75
983.7694	2570.6167	2383.75	1493.15
983.8955	2571.9197	2375.3	1485.75
984.0216	2573.222	2374.3	1480.2
984.1476	2574.5236	2378.2	1487.45
984.2737	2575.8246	2362.95	1468.7
984.3996	2577.1248	2360.65	1469.5
984.5256	2578.4244	2357.15	1471.5
984.6515	2579.7232	2350.55	1461.75
984.7774	2581.0214	2381.2	1468.25
984.9032	2582.3189	2354.5	1464.9
985.029	2583.6157	2346.75	1452.7
985.1548	2584.9118	2355.95	1465.25
985.2806	2586.2072	2343.5	1456.75
985.4063	2587.5019	2329.75	1442.15
985.5319	2588.7959	2343.5	1453.3
985.6576	2590.0893	2340.15	1449.6
985.7832	2591.3819	2339.9	1451.2
985.9087	2592.6739	2327.35	1440.55
986.0343	2593.9652	2331.65	1441.6
986.1597	2595.2557	2333.25	1443.8
986.2852	2596.5456	2317.2	1427.1
986.4106	2597.8348	2315.15	1426.05
986.536	2599.1234	2322.1	1435.6
986.6614	2600.4112	2315.95	1427.85
986.7867	2601.6983	2309.9	1419.1
986.912	2602.9848	2292.35	1402.55
987.0372	2604.2705	2308.05	1411.45
987.1624	2605.5556	2298.8	1408.45
987.2876	2606.84	2292.45	1403.4
987.4128	2608.1237	2282.8	1392.6
987.5379	2609.4067	2279.55	1389.65
987.6629	2610.689	2292.7	1395.8
987.788	2611.9707	2274.15	1382.3
987.913	2613.2516	2268.7	1375.3
988.0379	2614.5319	2260.55	1372.25
988.1629	2615.8115	2253.3	1363.2
988.2878	2617.0903	2240.35	1350.45
988.4126	2618.3685	2244.8	1355.35
988.5375	2619.6461	2241.05	1351.55
988.6622	2620.9229	2222.2	1334.5
988.787	2622.199	2235.55	1345.1
988.9117	2623.4745	2222.5	1333.2
989.0364	2624.7493	2224.75	1337.7
989.161	2626.0234	2221	1333.9
989.2857	2627.2968	2224.6	1335
989.4102	2628.5695	2204.55	1316.05
989.5348	2629.8415	2220.9	1332.25
989.6593	2631.1128	2206.25	1315.95
989.7837	2632.3835	2202.65	1315.45
989.9082	2633.6535	2191.05	1306.1
990.0326	2634.9228	2189.85	1302.65
990.1569	2636.1914	2190.75	1301.55
990.2812	2637.4593	2182.55	1293.3
990.4055	2638.7265	2184.6	1296.4
990.5298	2639.9931	2185.4	1296.5
990.654	2641.259	2171.3	1281.3
990.7782	2642.5242	2171	1281.25
990.9023	2643.7887	2159.35	1269.4
991.0264	2645.0525	2157.4	1271
991.1505	2646.3156	2153.3	1264.75
991.2745	2647.5781	2155.3	1267.4
991.3985	2648.8398	2140.95	1254.6
991.5225	2650.1009	2151.75	1252.65
991.6464	2651.3613	2143.9	1256.5
991.7703	2652.6211	2129.8	1242.25
991.8942	2653.8801	2131.4	1244.1
992.018	2655.1385	2129.1	1239.05
992.1418	2656.3961	2126.6	1237.1
992.2655	2657.6531	2121.35	1232.6
992.3892	2658.9094	2120.45	1232.25
992.5129	2660.1651	2112.8	1226.35
992.6366	2661.42	2122	1234.9
992.7602	2662.6743	2112.2	1223
992.8837	2663.9279	2123.1	1236.1
993.0073	2665.1808	2105.45	1218.85
993.1307	2666.433	2098.3	1209.7
993.2542	2667.6846	2104.45	1218.4
993.3776	2668.9354	2122.05	1231
993.501	2670.1856	2102.35	1213.15
993.6244	2671.4351	2109.6	1220.45
993.7477	2672.6839	2113.75	1223.5
993.8709	2673.9321	2112.3	1224.75
993.9942	2675.1795	2115.35	1228.45
994.1174	2676.4263	2109	1221.7
994.2405	2677.6724	2105.75	1220.4
994.3637	2678.9179	2096.3	1208.35
994.4868	2680.1626	2106.8	1219.15
994.6098	2681.4067	2090.9	1202.2
994.7328	2682.6501	2090.9	1203.05
994.8558	2683.8928	2088.8	1199
994.9788	2685.1348	2081.05	1194
995.1017	2686.3761	2074.55	1190
995.2245	2687.6168	2074.5	1188
995.3474	2688.8568	2074.2	1188.55
995.4702	2690.0961	2058.4	1173.95
995.5929	2691.3348	2054.15	1164.4
995.7156	2692.5727	2043.35	1156.1
995.8383	2693.81	2047.95	1158.35
995.961	2695.0466	2038.75	1152
996.0836	2696.2826	2038.35	1150.9
996.2062	2697.5178	2047.5	1155.6
996.3287	2698.7524	2025.8	1138.8
996.4512	2699.9863	2031.6	1140.8
996.5737	2701.2195	2036.65	1149.15
996.6961	2702.452	2041.5	1153.2
996.8185	2703.6839	2030.65	1143.5
996.9408	2704.9151	2034.55	1148.45
997.0631	2706.1456	2042.85	1156.85
997.1854	2707.3755	2044.2	1156.3
997.3077	2708.6046	2041.8	1149.85
997.4299	2709.8331	2042.15	1152.8
997.552	2711.0609	2062.15	1174.45
997.6742	2712.2881	2058.95	1170.15
997.7963	2713.5145	2063.55	1172.15
997.9183	2714.7403	2065.95	1181.2
998.0403	2715.9654	2082.8	1195.25
998.1623	2717.1899	2096.8	1193.75
998.2842	2718.4136	2101.7	1214.15
998.4062	2719.6367	2102.65	1216.05
998.528	2720.8591	2121.45	1227.55
998.6498	2722.0809	2118.2	1231.25
998.7716	2723.3019	2126.7	1235
998.8934	2724.5223	2139.45	1252.35
999.0151	2725.7421	2133.15	1244.9
999.1368	2726.9611	2136.95	1249
999.2584	2728.1795	2134.9	1241.15
999.38	2729.3972	2115.2	1230
999.5016	2730.6142	2118.1	1219.75
999.6231	2731.8306	2093.85	1205.6
999.7446	2733.0462	2073	1183.2
999.8661	2734.2612	2062.1	1169.05
999.9875	2735.4756	2040.5	1151.85
1000.1089	2736.6892	2019.2	1133.6
1000.2302	2737.9022	1997.75	1112.95
1000.3515	2739.1145	1987.85	1101.55
1000.4728	2740.3262	1979.95	1083.65
1000.594	2741.5372	1954.1	1066.6
1000.7152	2742.7475	1946.3	1058.25
1000.8363	2743.9571	1935.3	1046.4
1000.9575	2745.1661	1929.4	1037.85
1001.0785	2746.3744	1913.85	1025.65
1001.1996	2747.582	1899.4	1011.45
1001.3206	2748.7889	1886.5	996.85
1001.4415	2749.9952	1876	988.5
1001.5625	2751.2008	1874.4	988.7
1001.6833	2752.4057	1878.8	989.4
1001.8042	2753.61	1867.85	981.15
1001.925	2754.8136	1870.3	981.45
1002.0458	2756.0165	1853.65	966
1002.1665	2757.2188	1854.55	969.5
1002.2872	2758.4204	1853.75	967.35
1002.4078	2759.6213	1847.4	958.8
1002.5285	2760.8215	1851.15	961.55
1002.649	2762.0211	1855.75	968.85
1002.7696	2763.22	1845.95	955.85
1002.8901	2764.4182	1839.2	950.4
1003.0106	2765.6158	1830.4	942.7
1003.131	2766.8127	1829.35	943.25
1003.2514	2768.009	1825.75	937
1003.3717	2769.2045	1826.75	938.8
1003.492	2770.3994	1806.9	918.1
1003.6123	2771.5936	1806.5	917.5
1003.7325	2772.7872	1806	921.9
1003.8527	2773.9801	1803.6	914.95
1003.9729	2775.1723	1812	909.4
1004.093	2776.3639	1802.95	917.35
1004.2131	2777.5548	1800.85	911.9
1004.3331	2778.745	1799.85	913.2
1004.4531	2779.9346	1792.45	905.95
1004.5731	2781.1235	1798.15	911.25
1004.693	2782.3117	1804.75	918.65
1004.8129	2783.4992	1803	917.65
1004.9328	2784.6861	1807.3	922.3
1005.0526	2785.8723	1810.25	925.85
1005.1723	2787.0579	1809.3	924.8
1005.2921	2788.2428	1811.4	926.55
1005.4118	2789.427	1812	926.25
1005.5314	2790.6106	1819.15	934.5
1005.651	2791.7935	1837.35	950.7
1005.7706	2792.9757	1832.95	949.15
1005.8902	2794.1573	1839.95	952.05
1006.0097	2795.3382	1858.9	973.55
1006.1291	2796.5184	1870.65	988.6
1006.2485	2797.698	1884.15	996.15
1006.3679	2798.8769	1905.8	1021.85
1006.4873	2800.0551	1912.65	1027.15
1006.6066	2801.2327	1919	1030.2
1006.7258	2802.4096	1937.2	1052.75
1006.8451	2803.5859	1954.55	1068.15
1006.9642	2804.7615	1986.9	1099.65
1007.0834	2805.9364	1998.1	1114.2
1007.2025	2807.1106	2029.8	1145.1
1007.3216	2808.2842	2047.6	1162.7
1007.4406	2809.4572	2085.4	1200.7
1007.5596	2810.6294	2109.85	1224.75
1007.6785	2811.801	2140.35	1257.5
1007.7975	2812.972	2195.65	1308.9
1007.9163	2814.1423	2232.45	1347.35
1008.0352	2815.3119	2283.1	1397.2
1008.154	2816.4808	2313.35	1428.95
1008.2727	2817.6491	2364.75	1478.2
1008.3914	2818.8167	2408.9	1524.95
1008.5101	2819.9837	2454.2	1565.25
1008.6288	2821.15	2503.65	1620
1008.7474	2822.3157	2530.8	1645.75
1008.8659	2823.4807	2583	1699.5
1008.9844	2824.645	2639.05	1752.5
1009.1029	2825.8086	2682.65	1798.15
1009.2214	2826.9716	2713.95	1828.75
1009.3398	2828.134	2770.75	1884.5
1009.4581	2829.2957	2809.45	1924.9
1009.5764	2830.4567	2830.55	1946.5
1009.6947	2831.617	2858.45	1974
1009.813	2832.7767	2863.6	1979.65
1009.9312	2833.9358	2871.4	1987.5
1010.0493	2835.0941	2868.15	1982.35
1010.1675	2836.2519	2832.2	1946.8
1010.2855	2837.4089	2824.9	1941
1010.4036	2838.5653	2820.65	1937.05
1010.5216	2839.7211	2815.75	1931.7
1010.6396	2840.8761	2843.25	1957.35
1010.7575	2842.0306	2845.75	1963.9
1010.8754	2843.1843	2877.8	1995.5
1010.9932	2844.3374	2915.5	2032.2
1011.111	2845.4899	2982.8	2096.6
1011.2288	2846.6417	3049.75	2166.7
1011.3465	2847.7928	3127.8	2244.15
1011.4642	2848.9433	3188.1	2302.8
1011.5818	2850.0931	3278.65	2394.85
1011.6995	2851.2422	3352.8	2465.25
1011.817	2852.3907	3418.5	2533.45
1011.9345	2853.5385	3480.25	2593.7
1012.052	2854.6857	3549.75	2638.7
1012.1695	2855.8323	3567.6	2681.55
1012.2869	2856.9781	3614.85	2731
1012.4042	2858.1233	3659.1	2777.2
1012.5216	2859.2679	3706.2	2821.15
1012.6389	2860.4118	3759.35	2874.9
1012.7561	2861.555	3795.65	2908.1
1012.8733	2862.6976	3827.55	2940.15
1012.9905	2863.8395	3849.5	2966.15
1013.1076	2864.9808	3865.35	2981.85
1013.2247	2866.1214	3893.2	3010.3
1013.3417	2867.2614	3909	3022.65
1013.4587	2868.4007	3928.3	3042.25
1013.5757	2869.5393	3942.25	3056.95
1013.6926	2870.6773	3938.35	3051.2
1013.8095	2871.8146	3962.3	3073.6
1013.9263	2872.9513	3964.4	3074.65
1014.0431	2874.0874	3954.45	3068
1014.1599	2875.2227	3952.65	3066.55
1014.2766	2876.3574	3937.65	3054.15
1014.3933	2877.4915	3909.15	3024.9
1014.51	2878.6249	3869.75	2986.65
1014.6266	2879.7577	3860	2973.5
1014.7431	2880.8898	3845.5	2952.4
1014.8596	2882.0212	3799.2	2918.2
1014.9761	2883.152	3800.8	2917.25
1015.0925	2884.2821	3780.55	2896.4
1015.2089	2885.4116	3766.25	2884.45
1015.3253	2886.5405	3777.65	2894.15
1015.4416	2887.6686	3787.5	2902.8
1015.5579	2888.7962	3783	2903.1
1015.6741	2889.923	3785.15	2903.9
1015.7903	2891.0493	3812.95	2930.85
1015.9065	2892.1748	3810.5	2927.4
1016.0226	2893.2997	3817.95	2936.8
1016.1387	2894.424	3832.45	2951.15
1016.2547	2895.5476	3865.7	2981.85
1016.3707	2896.6706	3879	2997.75
1016.4866	2897.7929	3908.55	3022.3
1016.6025	2898.9145	3935.6	3054.6
1016.7184	2900.0355	3957.1	3070.7
1016.8342	2901.1559	3973.65	3090.65
1016.95	2902.2756	4004.05	3121
1017.0658	2903.3946	4061.95	3178.65
1017.1815	2904.513	4094.4	3209.5
1017.2971	2905.6308	4111.15	3229.3
1017.4127	2906.7479	4129.55	3245.15
1017.5283	2907.8643	4154.15	3271.25
1017.6439	2908.9801	4169.7	3287.8
1017.7594	2910.0953	4179.7	3299.3
1017.8748	2911.2098	4161.25	3274.95
1017.9902	2912.3236	4167.8	3277.85
1018.1056	2913.4368	4151.6	3265.2
1018.2209	2914.5494	4137.8	3253.05
1018.3362	2915.6613	4113.8	3227.3
1018.4515	2916.7725	4073.05	3187.95
1018.5667	2917.8831	4046.05	3162.95
1018.6819	2918.9931	4005.85	3120.8
1018.797	2920.1024	3975.7	3090.9
1018.9121	2921.211	3931.55	3050.75
1019.0271	2922.319	3934.15	3051.75
1019.1421	2923.4264	3921.2	3041.15
1019.2571	2924.5331	3908.75	3027.6
1019.372	2925.6391	3888.55	3006.35
1019.4869	2926.7445	3882.2	3002.5
1019.6017	2927.8493	3873.25	2991.35
1019.7165	2928.9534	3875.9	2992.3
1019.8313	2930.0569	3875.25	2990.4
1019.946	2931.1597	3850.9	2967.4
1020.0606	2932.2619	3851.5	2968.95
1020.1753	2933.3634	3829	2946
1020.2899	2934.4643	3843.8	2953.25
1020.4044	2935.5645	3813.85	2923.95
1020.5189	2936.6641	3779.8	2893.85
1020.6334	2937.763	3727.5	2846.5
1020.7478	2938.8613	3696.45	2815
1020.8622	2939.959	3640.15	2754.05
1020.9765	2941.056	3554.65	2672.7
1021.0908	2942.1523	3488.45	2605.25
1021.2051	2943.248	3389	2506.85
1021.3193	2944.3431	3304.6	2422.15
1021.4334	2945.4375	3200.9	2316.15
1021.5476	2946.5313	3091.6	2210.75
1021.6617	2947.6244	2997.25	2114.8
1021.7757	2948.7169	2896.5	2014.25
1021.8897	2949.8087	2793.3	1912.6
1022.0037	2950.8999	2697.05	1812.85
1022.1176	2951.9904	2627.7	1746.8
1022.2315	2953.0803	2547.25	1666.2
1022.3453	2954.1696	2489.3	1607.05
1022.4591	2955.2582	2429.2	1547.55
1022.5728	2956.3462	2391.4	1509.4
1022.6865	2957.4335	2344.2	1459.4
1022.8002	2958.5202	2311.05	1429.45
1022.9138	2959.6062	2294.85	1414.2
1023.0274	2960.6916	2267.55	1386.1
1023.141	2961.7764	2240.25	1357.05
1023.2545	2962.8605	2222.8	1340.45
1023.3679	2963.9439	2216.45	1336.6
1023.4813	2965.0267	2205.7	1323.15
1023.5947	2966.1089	2216.6	1310.95
1023.708	2967.1905	2196.15	1313.5
1023.8213	2968.2714	2186.85	1304.1
1023.9346	2969.3516	2177.9	1297.45
1024.0478	2970.4312	2187	1297.3
1024.1609	2971.5102	2175.65	1294.35
1024.274	2972.5885	2183.6	1304
1024.3871	2973.6662	2178	1291.85
1024.5002	2974.7432	2181.6	1300.35
1024.6132	2975.8196	2171.65	1292.1
1024.7261	2976.8954	2153.8	1272.1
1024.839	2977.9705	2142.25	1260.7
1024.9519	2979.045	2131.45	1249.4
1025.0647	2980.1188	2119.95	1237.85
1025.1775	2981.192	2084.55	1203.3
1025.2902	2982.2645	2080.1	1198.9
1025.4029	2983.3364	2047.85	1165.5
1025.5156	2984.4077	2014	1133.85
1025.6282	2985.4783	1985.65	1099.3
1025.7407	2986.5483	1954.3	1075.75
1025.8532	2987.6177	1921.1	1040.1
1025.9657	2988.6864	1888.15	1005.9
1026.0782	2989.7545	1851.1	967.7
1026.1906	2990.8219	1826.55	944.5
1026.3029	2991.8887	1785.05	902
1026.4152	2992.9548	1755.65	875.85
1026.5275	2994.0204	1728.4	848.15
1026.6397	2995.0852	1696.25	817.8
1026.7519	2996.1495	1670.65	789.95
1026.864	2997.2131	1643.1	762.25
1026.9761	2998.276	1627.95	748.8
1027.0882	2999.3383	1605.45	724.65
1027.2002	3000.4	1585.3	703.4
1027.3122	3001.4611	1576.1	695.55
1027.4241	3002.5215	1554.95	672.55
1027.536	3003.5812	1536.65	657.75
1027.6478	3004.6404	1534.9	654.3
1027.7596	3005.6989	1514.7	631.45
1027.8714	3006.7567	1506.35	623.95
1027.9831	3007.8139	1524	612.25
1028.0947	3008.8705	1489.05	608.05
1028.2064	3009.9264	1486.8	604.2
1028.3179	3010.9818	1483.55	603.5
1028.4295	3012.0364	1466.75	586.4
1028.541	3013.0905	1464.25	583.4
1028.6524	3014.1439	1471.1	590.9
1028.7638	3015.1966	1459.65	579.45
1028.8752	3016.2487	1466.95	584.9
1028.9865	3017.3002	1463.05	579.1
1029.0978	3018.3511	1463.25	582.3
1029.209	3019.4013	1459.1	579.25
1029.3202	3020.4509	1457.2	576.45
1029.4314	3021.4998	1451.65	571
1029.5425	3022.5481	1453.75	572
1029.6535	3023.5958	1451.9	570.5
1029.7645	3024.6428	1446.9	566.55
1029.8755	3025.6892	1460.45	581.3
1029.9864	3026.735	1450	568.85
1030.0973	3027.7802	1454.95	574.2
1030.2082	3028.8247	1455.15	574.95
1030.319	3029.8685	1453.95	572.7
1030.4297	3030.9118	1460.4	578.1
1030.5404	3031.9544	1466.5	586.25
1030.6511	3032.9963	1463.3	583.45
1030.7617	3034.0376	1471.75	592.3
1030.8723	3035.0783	1476.7	594.2
1030.9829	3036.1184	1479.8	598.35
1031.0934	3037.1578	1470.15	589.5
1031.2038	3038.1966	1482.2	601.45
1031.3142	3039.2348	1483.15	605.15
1031.4246	3040.2723	1483.55	595.3
1031.5349	3041.3092	1478.15	599.05
1031.6452	3042.3455	1476.7	594.1
1031.7554	3043.3811	1474.65	593.4
1031.8656	3044.4161	1464.95	582.6
1031.9758	3045.4505	1463.45	585.2
1032.0859	3046.4842	1456.6	576.25
1032.1959	3047.5173	1457.55	578.7
1032.3059	3048.5498	1435.8	556
1032.4159	3049.5816	1441.5	561.55
1032.5258	3050.6128	1431.95	549.15
1032.6357	3051.6434	1430.75	549.3
1032.7455	3052.6734	1420.6	538.2
1032.8553	3053.7027	1415.3	535.15
1032.9651	3054.7314	1407.65	526.65
1033.0748	3055.7594	1402	523.3
1033.1845	3056.7868	1392.75	510.75
1033.2941	3057.8136	1390.25	510.1
1033.4037	3058.8398	1389.4	510.35
1033.5132	3059.8653	1386	505.3
1033.6227	3060.8902	1377.1	497.95
1033.7321	3061.9145	1375.25	496.15
1033.8415	3062.9381	1371.25	491.2
1033.9509	3063.9612	1379.1	482.2
1034.0602	3064.9835	1350	472.05
1034.1694	3066.0053	1347.4	464.8
1034.2787	3067.0264	1345.45	466.8
1034.3878	3068.0469	1331.1	448.7
1034.497	3069.0668	1329.4	447.35
1034.6061	3070.086	1320.25	441.1
1034.7151	3071.1046	1304.35	424.65
1034.8241	3072.1226	1297.6	414.9
1034.9331	3073.1399	1295.45	416.75
1035.042	3074.1567	1284.95	404.9
1035.1508	3075.1727	1279.7	399.3
1035.2597	3076.1882	1271.95	393.1
1035.3684	3077.203	1260.65	379.95
1035.4772	3078.2173	1248.85	369.25
1035.5859	3079.2308	1251.1	366.9
1035.6945	3080.2438	1238.9	355.7
1035.8031	3081.2561	1227.7	347.6
1035.9117	3082.2678	1219.95	341.15
1036.0202	3083.2789	1209.2	328
1036.1286	3084.2893	1209.9	329.4
1036.2371	3085.2991	1206.55	325.95
1036.3454	3086.3083	1201.95	320.45
1036.4538	3087.3169	1191.85	311.15
1036.562	3088.3248	1188.45	306.4
1036.6703	3089.3321	1183.35	301.2
1036.7785	3090.3388	1177.4	298.8
1036.8866	3091.3449	1171.7	291.4
1036.9948	3092.3503	1167.8	285.5
1037.1028	3093.3551	1164.2	285.2
1037.2108	3094.3593	1158.1	280.45
1037.3188	3095.3629	1155.8	276.5
1037.4267	3096.3658	1157.55	277.4
1037.5346	3097.3681	1148.45	269.7
1037.6425	3098.3698	1151.1	270.05
1037.7503	3099.3708	1148.6	263.6
1037.858	3100.3713	1136.95	258.9
1037.9657	3101.3711	1139.95	259.5
1038.0734	3102.3702	1271.65	252.1
1038.181	3103.3688	1131.9	250.6
1038.2886	3104.3667	1123	244.85
1038.3961	3105.364	1122.15	241.65
1038.5036	3106.3607	1124.9	244.4
1038.611	3107.3568	1122.6	242.7
1038.7184	3108.3522	1118.5	240.35
1038.8257	3109.347	1114.8	233.7
1038.933	3110.3412	1119.45	236.2
1039.0403	3111.3348	1109.4	230.45
1039.1475	3112.3277	1106.1	226.9
1039.2547	3113.32	1110.9	234.75
1039.3618	3114.3117	1110.5	230.7
1039.4689	3115.3028	1105.25	226.7
1039.5759	3116.2932	1107.9	229.35
1039.6829	3117.2831	1107.15	224.4
1039.7898	3118.2723	1103.85	225.8
1039.8967	3119.2608	1098.25	218.1
1040.0035	3120.2488	1097.3	218.75
1040.1103	3121.2361	1096.7	218.35
1040.2171	3122.2229	1094.1	216.6
1040.3238	3123.209	1095.85	214.9
1040.4305	3124.1944	1087.95	209
1040.5371	3125.1793	1094.7	215.15
1040.6437	3126.1635	1086.15	205.8
1040.7502	3127.1471	1084.45	207
1040.8567	3128.1301	1081	202.7
1040.9631	3129.1125	1079.15	198.8
1041.0695	3130.0942	1081.9	202.4
1041.1759	3131.0753	1088.1	200.45
1041.2822	3132.0558	1083.7	201.05
1041.3884	3133.0357	1078.2	198.75
1041.4946	3134.015	1079.95	198.45
1041.6008	3134.9936	1072.85	193.75
1041.7069	3135.9716	1096.15	200.15
1041.813	3136.949	1068.95	189.9
1041.919	3137.9258	1090.3	193.35
1042.025	3138.902	1077.25	193.05
1042.1309	3139.8775	1067.2	188.8
1042.2368	3140.8524	1065.3	187.1
1042.3427	3141.8267	1067.85	187
1042.4485	3142.8004	1060.1	181
1042.5542	3143.7735	1067.3	183.25
1042.6599	3144.7459	1062.7	183.5
1042.7656	3145.7178	1057.3	179.4
1042.8712	3146.689	1053.4	173.75
1042.9768	3147.6596	1055.75	175.4
1043.0823	3148.6295	1054.5	173.4
1043.1878	3149.5989	1053.85	175.4
1043.2932	3150.5676	1055.1	177.05
1043.3986	3151.5357	1044.65	166.95
1043.5039	3152.5032	1045.9	169.45
1043.6092	3153.4701	1041.35	162.8
1043.7145	3154.4364	1048.3	165.7
1043.8197	3155.402	1045.1	168.2
1043.9248	3156.367	1049.05	169.55
1044.03	3157.3315	1070.9	167.45
1044.135	3158.2952	1041.3	161.5
1044.24	3159.2584	1035.5	156.05
1044.345	3160.221	1040.3	161.45
1044.4499	3161.1829	1038.85	159.2
1044.5548	3162.1442	1036.7	160.35
1044.6596	3163.105	1035.9	156.85
1044.7644	3164.065	1032.7	154
1044.8692	3165.0245	1033.85	153.6
1044.9739	3165.9834	1032.35	154.8
1045.0785	3166.9416	1026.45	150.2
1045.1831	3167.8993	1034.3	156.85
1045.2877	3168.8563	1028.55	150.25
1045.3922	3169.8127	1027.6	152.2
1045.4966	3170.7684	1025.05	147.65
1045.6011	3171.7236	1027.35	149.25
1045.7054	3172.6782	1024.1	144.85
1045.8098	3173.6321	1029.6	152.15
1045.914	3174.5854	1024.65	144.65
1046.0183	3175.5381	1022.45	144.95
1046.1224	3176.4902	1019.05	142.25
1046.2266	3177.4417	1022	144.85
1046.3307	3178.3926	1012.65	135.85
1046.4347	3179.3428	1015.05	137.35
1046.5387	3180.2924	1016.55	140.4
1046.6427	3181.2415	1019.75	140.2
1046.7466	3182.1899	1018.4	138.2
1046.8504	3183.1377	1017.8	141.05
1046.9542	3184.0848	1013.65	132.15
1047.058	3185.0314	1014.45	137.1
1047.1617	3185.9773	1013.8	136.45
1047.2654	3186.9227	1012.95	136.75
1047.369	3187.8674	1011.45	133.65
1047.4726	3188.8115	1021.95	140.1
1047.5761	3189.755	1012.85	134.6
1047.6796	3190.6979	1009.2	130.85
1047.783	3191.6402	1007.9	133
1047.8864	3192.5818	1010.95	133
1047.9898	3193.5229	1011.3	128.85
1048.0931	3194.4633	1010.3	134.15
1048.1963	3195.4031	1005.6	126.65
1048.2995	3196.3423	1004.7	126.45
1048.4027	3197.2809	1004.7	128.5
1048.5058	3198.2189	1003.75	128.4
1048.6089	3199.1563	1018	124.6
1048.7119	3200.0931	1005.5	129.35
1048.8148	3201.0292	999	122.9
1048.9178	3201.9648	999.8	122.15
1049.0206	3202.8997	1002.2	121.2
1049.1235	3203.834	998.2	121.4
1049.2262	3204.7677	999	123.2
1049.329	3205.7008	1000.55	121.25
1049.4317	3206.6333	992.3	117
1049.5343	3207.5652	996.7	116.35
1049.6369	3208.4964	995.65	119.75
1049.7394	3209.4271	989.9	111.9
1049.8419	3210.3571	992.35	115.65
1049.9444	3211.2865	994.15	115.55
1050.0468	3212.2154	992.05	113.4
1050.1491	3213.1436	995.45	114.85
1050.2514	3214.0712	995.95	111.9
1050.3537	3214.9982	989.55	111.65
1050.4559	3215.9246	988.4	110.25
1050.5581	3216.8503	987.95	112.05
1050.6602	3217.7755	989.35	112.6
1050.7623	3218.7001	986.2	109.5
1050.8643	3219.624	987.25	109.6
1050.9663	3220.5473	986.05	109.1
1051.0682	3221.4701	988.2	110.85
1051.1701	3222.3922	987.5	110
1051.2719	3223.3137	986.2	108.95
1051.3737	3224.2346	986.75	109.35
1051.4754	3225.1549	982.7	105.55
1051.5771	3226.0746	984.2	106.6
1051.6788	3226.9937	985.3	109.95
1051.7804	3227.9121	980.3	105.35
1051.8819	3228.83	980.55	103.45
1051.9834	3229.7473	982.6	105.95
1052.0849	3230.6639	980.95	105.05
1052.1863	3231.5799	978.8	103.75
1052.2876	3232.4954	980	100.7
1052.3889	3233.4102	978.85	101.05
1052.4902	3234.3244	979.45	102.3
1052.5914	3235.238	975.85	100.55
1052.6926	3236.151	992.75	103
1052.7937	3237.0634	976	101.4
1052.8948	3237.9752	976.25	100.15
1052.9958	3238.8864	973.15	96.15
1053.0968	3239.797	973.6	96.75
1053.1977	3240.7069	975	97.7
1053.2986	3241.6163	972.2	94.7
1053.3994	3242.5251	973.3	97.05
1053.5002	3243.4332	971.15	96.3
1053.6009	3244.3408	974	97.1
1053.7016	3245.2477	969	93.25
1053.8022	3246.154	971.8	93.95
1053.9028	3247.0598	970.05	93
1054.0034	3247.9649	967.4	91.7
1054.1039	3248.8694	965.6	88
1054.2043	3249.7733	967.7	93.15
1054.3047	3250.6766	963.55	86.6
1054.4051	3251.5793	961.7	85.4
1054.5054	3252.4814	961.7	86.15
1054.6056	3253.3829	963.35	87.4
1054.7058	3254.2838	961.25	86.35
1054.806	3255.1841	961.95	84.8
1054.9061	3256.0838	960	84.15
1055.0061	3256.9829	957.2	84.3
1055.1062	3257.8814	962.3	84.95
1055.2061	3258.7792	960.5	80.15
1055.306	3259.6765	957.8	81.1
1055.4059	3260.5731	957.85	82.75
1055.5057	3261.4692	952.7	77
1055.6055	3262.3647	954.7	76.05
1055.7052	3263.2595	953.9	80.2
1055.8049	3264.1538	951.9	76.75
1055.9045	3265.0474	951.95	76.9
1056.0041	3265.9404	947.8	72.9
1056.1036	3266.8329	951.45	76.95
1056.2031	3267.7247	955.5	70.85
1056.3025	3268.616	944.9	71.75
1056.4019	3269.5066	943.25	66
1056.5013	3270.3966	946.85	69.65
1056.6005	3271.286	938.6	63.7
