Software Version:	3.9.2.0
Unit SN:	10000200
Spectrometer SN:	6960
Date:	3/8/2024 2:13:07 PM
Data Line Index:	25
Spectral Points:	2048
Integration time (ms):	125
Averages:	20
Delay (ms):	30000
Sequence Number:	1
Processing:	dark subtract
Laser Power (mW):	305
Laser Current (mA):	823
Laser Diode Temp (C):	25.1
Laser Case Temp (C):	26.3
System Temp (C):	26.3
Spectrometer Temp (C):	24.2
CCD Temp (C):	0.013
Secondary Temp (C):	20.008
Heatsink Temp (C):	21.112
CCDPCB Temp (C):	36.362
SecondaryPCB Temp (C):	31.238

Wavelength	RamanShift	Raw Counts	Dark Subtracted
787.061	30.1047	466.15	58.65
787.2016	32.3739	465.7	60.45
787.3422	34.6426	474.75	67.7
787.4828	36.9109	478.55	69.25
787.6235	39.1787	483.9	70.9
787.7642	41.4461	492.75	74.3
787.9049	43.7131	504.05	85.4
788.0456	45.9796	515.55	91.9
788.1863	48.2456	526.1	100.85
788.3271	50.5112	531.25	98.25
788.4679	52.7764	542.75	108.9
788.6087	55.0411	553.1	112.8
788.7496	57.3054	565.65	121.65
788.8904	59.5692	576.65	129.1
789.0313	61.8326	585.05	137
789.1722	64.0955	599.85	148.45
789.3132	66.3579	612.95	155.5
789.4541	68.6199	638.75	177.05
789.5951	70.8815	672.7	205.7
789.7361	73.1426	757.85	288.4
789.8771	75.4032	968.5	494.55
790.0181	77.6634	1496.5	1018.5
790.1592	79.9231	2742.75	2255.85
790.3003	82.1824	5442.15	4939.9
790.4414	84.4412	10306.8	9773.2
790.5825	86.6995	16949.25	16375.35
790.7237	88.9574	23430.6	22820.8
790.8648	91.2148	27924.95	27295.8
791.006	93.4717	30043.15	29398.55
791.1472	95.7282	30526.8	29873.35
791.2885	97.9842	30526.95	29873.3
791.4297	100.2398	30061	29404.7
791.571	102.4949	29497.15	28839.35
791.7123	104.7495	28788.1	28122.45
791.8536	107.0036	28022.2	27358.3
791.9949	109.2573	27311.45	26647.65
792.1363	111.5105	26584.3	25915.9
792.2777	113.7632	25914.35	25244.35
792.4191	116.0154	25279.1	24595.4
792.5605	118.2672	24845.6	24168.85
792.7019	120.5185	24387.85	23714
792.8434	122.7693	24047.9	23369.05
792.9849	125.0197	23734.4	23050.6
793.1264	127.2696	23480.6	22796.85
793.2679	129.519	23392.75	22702.15
793.4094	131.7679	23222.9	22530.85
793.551	134.0163	23091.05	22395.8
793.6926	136.2642	22924.55	22223.85
793.8342	138.5117	22746.8	22037.7
793.9758	140.7587	22555.25	21852.5
794.1175	143.0052	22364.5	21656.75
794.2591	145.2512	22142.5	21433.25
794.4008	147.4967	21906.5	21196.6
794.5425	149.7417	21806.6	21096.6
794.6842	151.9863	21693.45	20976.85
794.826	154.2304	21659.55	20937.45
794.9677	156.4739	21516.2	20790.6
795.1095	158.717	21467.85	20742.75
795.2513	160.9596	21335.05	20601.85
795.3931	163.2017	21108.75	20373.8
795.535	165.4433	20868.55	20133.85
795.6768	167.6844	20509.8	19773.35
795.8187	169.925	20227.4	19491.05
795.9606	172.1651	19838.1	19098.9
796.1025	174.4047	19596.65	18854.1
796.2445	176.6439	19340.4	18595.25
796.3864	178.8825	19107.05	18360.1
796.5284	181.1206	18985.05	18231.3
796.6704	183.3582	18853.5	18093.3
796.8124	185.5954	18735.35	17973.7
796.9544	187.832	18659.95	17895.5
797.0965	190.0681	18641.45	17877.15
797.2386	192.3037	18659.95	17887.35
797.3806	194.5388	18707.75	17935.2
797.5228	196.7734	18753.9	17979.15
797.6649	199.0075	18817.1	18038.95
797.807	201.2411	18970.35	18192.95
797.9492	203.4742	19081.05	18300.5
798.0914	205.7068	19258.95	18474.5
798.2336	207.9389	19359	18576.05
798.3758	210.1704	19562.1	18789
798.518	212.4015	19628.35	18868
798.6603	214.632	19833.2	19074.25
798.8025	216.862	20036.45	19279.4
798.9448	219.0915	20205.35	19444.4
799.0871	221.3205	20457.75	19693
799.2294	223.549	20724.5	19964.1
799.3718	225.777	21061.65	20298.25
799.5141	228.0044	21431.05	20659.7
799.6565	230.2314	21960.3	21189.85
799.7989	232.4578	22360.55	21584.45
799.9413	234.6837	22750.5	21967.45
800.0837	236.909	22963	22182.8
800.2262	239.1339	23016.55	22210
800.3687	241.3582	22805.9	22011.65
800.5111	243.582	22456.4	21631.6
800.6536	245.8053	22125.75	21317.5
800.7961	248.0281	21798.85	20992.1
800.9387	250.2503	21505.55	20698.4
801.0812	252.472	21396.7	20583.05
801.2238	254.6932	21396.4	20586.5
801.3664	256.9139	21278.85	20470.2
801.509	259.134	21256.25	20441.15
801.6516	261.3536	21244.95	20434.85
801.7942	263.5727	21260.65	20442.75
801.9369	265.7912	21239.15	20425.2
802.0795	268.0092	21283.95	20469.6
802.2222	270.2267	21221.95	20408.3
802.3649	272.4436	21204.25	20387.3
802.5076	274.6601	21166.05	20340
802.6504	276.8759	21082.9	20261.05
802.7931	279.0913	21107.45	20286.15
802.9359	281.3061	21084.15	20260.55
803.0787	283.5204	21151.7	20320.8
803.2215	285.7341	21285.4	20457.7
803.3643	287.9473	21457.3	20616.5
803.5071	290.16	21725.05	20893.5
803.6499	292.3721	22040.9	21208.05
803.7928	294.5837	22497.85	21670.15
803.9357	296.7947	22871.2	22043.85
804.0786	299.0052	23046.9	22216.85
804.2215	301.2152	22907.55	22070.95
804.3644	303.4246	22583.55	21753.2
804.5074	305.6334	22057.8	21227.9
804.6503	307.8418	21571	20742.2
804.7933	310.0495	21178.25	20344.55
804.9363	312.2568	20872.2	20035.3
805.0793	314.4635	20668.4	19829.95
805.2223	316.6696	20632.55	19791
805.3653	318.8752	20591.1	19738.9
805.5084	321.0802	20627.15	19790.55
805.6514	323.2847	20762.15	19917.35
805.7945	325.4887	20814.95	19967.35
805.9376	327.692	20773.65	19925.1
806.0807	329.8949	20707.1	19858.1
806.2238	332.0972	20459.45	19609.7
806.367	334.2989	20174.85	19322.6
806.5101	336.5001	19885.9	19034.45
806.6533	338.7007	19716.55	18862.95
806.7965	340.9008	19646.8	18790.75
806.9397	343.1003	19530.15	18679.5
807.0829	345.2992	19475.1	18616.8
807.2261	347.4976	19509.85	18653.7
807.3693	349.6955	19507.85	18643.3
807.5126	351.8927	19569.4	18711.05
807.6559	354.0895	19580.9	18709.3
807.7991	356.2856	19664.85	18801.05
807.9424	358.4812	19663.6	18796.65
808.0857	360.6763	19702.7	18837.1
808.2291	362.8707	19655.15	18781.2
808.3724	365.0646	19765.85	18893.5
808.5158	367.258	19752	18880.4
808.6591	369.4508	19802.15	18924.75
808.8025	371.643	19898.75	19021.35
808.9459	373.8346	19866.2	18985.65
809.0893	376.0257	19863.55	18979.6
809.2327	378.2162	19778.3	18901.45
809.3762	380.4062	19691.3	18814.8
809.5196	382.5956	19539.6	18665.15
809.6631	384.7844	19469.55	18601.15
809.8066	386.9726	19404	18539.45
809.9501	389.1603	19371.65	18504.65
810.0936	391.3474	19328.35	18439.05
810.2371	393.5339	19317.75	18445.75
810.3806	395.7199	19250.5	18379.55
810.5241	397.9052	19275.9	18410.15
810.6677	400.09	19352.45	18485.65
810.8113	402.2743	19415.5	18548.35
810.9548	404.4579	19488.85	18622.7
811.0984	406.641	19673.05	18799.95
811.2421	408.8235	19890.45	19016.95
811.3857	411.0054	20225.6	19350.6
811.5293	413.1868	20712.65	19833.8
811.673	415.3675	21037.7	20154.95
811.8166	417.5477	21267.2	20382.3
811.9603	419.7273	21347.7	20460.9
812.104	421.9064	21207.35	20316.35
812.2477	424.0848	21062.3	20181.8
812.3914	426.2627	20864.85	19983.5
812.5351	428.4399	20609.45	19722.65
812.6788	430.6166	20257	19367.4
812.8226	432.7928	19877.05	18986.55
812.9663	434.9683	19591.55	18706.75
813.1101	437.1432	19351.95	18467
813.2539	439.3176	19188.45	18312.25
813.3977	441.4914	19060.65	18187.35
813.5415	443.6645	19083.7	18208.9
813.6853	445.8371	19014.2	18129.6
813.8291	448.0091	18952.45	18065.45
813.973	450.1806	18943.3	18060.25
814.1168	452.3514	18874.25	17995
814.2607	454.5216	18889.7	17997.3
814.4046	456.6913	18837.65	17952.4
814.5485	458.8603	18882.95	17999.35
814.6924	461.0288	18957.9	18080.65
814.8363	463.1967	18960.25	18086.45
814.9802	465.3639	19155.35	18280.5
815.1241	467.5306	19224.5	18338.4
815.2681	469.6967	19382.45	18502.65
815.412	471.8622	19524.5	18649.05
815.556	474.0271	19762.35	18882.6
815.7	476.1914	19807.25	18919.55
815.844	478.3551	19830.15	18943.4
815.988	480.5182	19798	18916.75
816.132	482.6807	19811.7	18938.45
816.276	484.8426	19910.75	19041.5
816.4201	487.0039	20192.35	19320.45
816.5641	489.1647	20609.2	19725.15
816.7082	491.3248	21068.75	20183.65
816.8522	493.4843	21270.7	20390.7
816.9963	495.6432	21299.05	20418.95
817.1404	497.8015	21230.35	20339.85
817.2845	499.9592	21254.4	20356.25
817.4286	502.1163	21176.25	20279.05
817.5727	504.2728	20947.6	20060.5
817.7168	506.4287	20684.5	19804.9
817.861	508.5839	20269.75	19390.8
818.0051	510.7386	19991.75	19104.95
818.1493	512.8927	19798.7	18903.5
818.2935	515.0461	19673.65	18778.8
818.4377	517.199	19609.95	18714.7
818.5818	519.3512	19613.25	18713.2
818.726	521.5029	19737.85	18838.15
818.8703	523.6539	19792.65	18897.1
819.0145	525.8043	19873.4	18974.8
819.1587	527.9541	19880.4	18977.25
819.303	530.1033	19867.15	18969.6
819.4472	532.2519	19948.5	19047.7
819.5915	534.3999	20086.15	19181.9
819.7357	536.5472	20371.95	19476.25
819.88	538.694	20840.15	19945.35
820.0243	540.8401	21485.5	20585
820.1686	542.9856	21995.1	21086.95
820.3129	545.1305	22144.45	21224.35
820.4572	547.2748	22037.1	21121.6
820.6016	549.4185	21703.3	20778.25
820.7459	551.5615	21347	20427.6
820.8902	553.704	21208.7	20295.65
821.0346	555.8458	21138.25	20230.25
821.1789	557.987	21186.2	20280.05
821.3233	560.1276	21160.35	20248.25
821.4677	562.2675	21192.05	20278.7
821.6121	564.4069	21201.15	20290.25
821.7565	566.5456	21160.85	20258.55
821.9009	568.6837	21114.75	20208.65
822.0453	570.8212	20861.35	19955.15
822.1897	572.958	20523.45	19614.7
822.3342	575.0942	20287.3	19385.35
822.4786	577.2299	20085	19190.4
822.6231	579.3648	20109.25	19223.5
822.7675	581.4992	20139.1	19261.65
822.912	583.6329	20359.55	19485.25
823.0565	585.766	20580.7	19697
823.201	587.8985	20748.2	19858.65
823.3454	590.0304	20765.4	19854.95
823.4899	592.1616	20720.1	19808.25
823.6345	594.2922	20626.55	19715.85
823.779	596.4222	20541.45	19629.9
823.9235	598.5515	20291.2	19375.7
824.068	600.6802	20184	19267.6
824.2126	602.8083	19994.95	19085.1
824.3571	604.9358	19988.95	19079.85
824.5017	607.0626	19888.4	18973.35
824.6462	609.1888	19901.1	18979.25
824.7908	611.3144	19847.5	18923.6
824.9354	613.4393	19732.2	18811.45
825.08	615.5636	19655.9	18732.6
825.2246	617.6873	19543.45	18624.8
825.3692	619.8103	19529.95	18610.35
825.5138	621.9327	19457.4	18539
825.6584	624.0544	19400.9	18489.7
825.803	626.1756	19390.7	18474.95
825.9477	628.2961	19365.85	18448.7
826.0923	630.4159	19297.8	18379.4
826.237	632.5351	19300.15	18379.3
826.3816	634.6537	19255.1	18332.7
826.5263	636.7716	19288.3	18361.35
826.6709	638.8889	19291.4	18361.55
826.8156	641.0056	19348.45	18423.05
826.9603	643.1216	19348.2	18423.3
827.105	645.237	19414.3	18491.6
827.2497	647.3518	19362.25	18450.3
827.3944	649.4659	19456.6	18546.75
827.5391	651.5793	19452.15	18539.85
827.6838	653.6922	19409.8	18499.5
827.8285	655.8043	19469.45	18554.55
827.9733	657.9159	19433.4	18516.6
828.118	660.0268	19352.3	18435.8
828.2627	662.137	19349.2	18430.4
828.4075	664.2466	19333.4	18405.4
828.5522	666.3556	19320.95	18397.95
828.697	668.4639	19317.8	18396.1
828.8418	670.5716	19371.7	18457.75
828.9865	672.6786	19481.6	18559.75
829.1313	674.785	19526.7	18600.95
829.2761	676.8907	19590.65	18668
829.4209	678.9958	19690.5	18769.6
829.5657	681.1002	19689.15	18764.65
829.7105	683.204	19699.1	18763.6
829.8553	685.3072	19644.35	18711.55
830.0001	687.4097	19602.9	18677
830.1449	689.5115	19597.2	18671.2
830.2898	691.6127	19564.3	18640.4
830.4346	693.7132	19432.6	18513.6
830.5794	695.8131	19459.15	18517.9
830.7243	697.9123	19426	18490.15
830.8691	700.0109	19433.7	18498.2
831.014	702.1089	19424.8	18495.55
831.1588	704.2061	19459.2	18528.05
831.3037	706.3028	19504.05	18569.45
831.4486	708.3987	19575.15	18644.3
831.5935	710.4941	19676.85	18750.85
831.7383	712.5887	19856.75	18926.55
831.8832	714.6827	20164.15	19234.75
832.0281	716.7761	20504.55	19577.3
832.173	718.8688	20889.25	19963.4
832.3179	720.9608	21087.35	20147.4
832.4628	723.0522	21204.35	20262.25
832.6077	725.1429	20974.9	20042.7
832.7527	727.233	20721.6	19791.8
832.8976	729.3224	20489.25	19558.1
833.0425	731.4112	20213	19280.9
833.1874	733.4993	19984	19049.9
833.3324	735.5867	19836.85	18904.8
833.4773	737.6735	19775.7	18843.9
833.6222	739.7596	19736.25	18802.8
833.7672	741.845	19708.05	18772.7
833.9122	743.9298	19677.35	18739.75
834.0571	746.014	19713.4	18780.25
834.2021	748.0974	19730.05	18789.65
834.347	750.1802	19733.45	18791.65
834.492	752.2624	19717.4	18776.5
834.637	754.3439	19743.3	18796.4
834.782	756.4247	19813.05	18861.8
834.9269	758.5048	19947.45	19010
835.0719	760.5843	20132.95	19190.85
835.2169	762.6631	20440.05	19499.8
835.3619	764.7413	20909.45	19975.8
835.5069	766.8188	21447.05	20511.05
835.6519	768.8956	21900.95	20956.9
835.7969	770.9718	22251.9	21312.85
835.9419	773.0473	22092.65	21152.2
836.0869	775.1221	21777.2	20838.8
836.232	777.1962	21425.65	20487.1
836.377	779.2697	21225.1	20284
836.522	781.3426	21348	20392.3
836.667	783.4147	21533.6	20589.85
836.8121	785.4862	21915.45	20972.2
836.9571	787.557	21971.3	21028.85
837.1021	789.6271	21580.6	20635.7
837.2472	791.6966	21082.5	20141.95
837.3922	793.7654	20513.5	19571.15
837.5373	795.8335	20229.45	19289.75
837.6823	797.901	20054.45	19110.75
837.8274	799.9678	20055.85	19111.15
837.9724	802.0339	20078.1	19132.05
838.1175	804.0993	20138.9	19179.55
838.2626	806.1641	20113.4	19169.85
838.4076	808.2282	20090.25	19149.25
838.5527	810.2916	19960.9	19016.7
838.6978	812.3544	19894.75	18955.05
838.8428	814.4164	19842.1	18901.9
838.9879	816.4778	19860.95	18915.6
839.133	818.5385	19863	18914.35
839.2781	820.5986	19972.8	19023.9
839.4232	822.658	20071.1	19125.7
839.5682	824.7166	20126.15	19181.45
839.7133	826.7747	20387.2	19440.15
839.8584	828.832	20582.6	19636.85
840.0035	830.8886	20719.45	19770.5
840.1486	832.9446	20841.55	19892.4
840.2937	834.9999	20936	19990.75
840.4388	837.0545	20956	20006.85
840.5839	839.1085	21019.65	20070.75
840.729	841.1618	20946.7	19997.8
840.8741	843.2143	20899.65	19953.35
841.0192	845.2662	20825.3	19879.5
841.1643	847.3175	20797.85	19850.85
841.3095	849.368	20708.2	19761.15
841.4546	851.4179	20590.45	19644.05
841.5997	853.467	20436.2	19490.15
841.7448	855.5155	20354.35	19407.45
841.8899	857.5633	20280.15	19332.85
842.0351	859.6105	20171.9	19222.85
842.1802	861.6569	20143.4	19193.2
842.3253	863.7027	20109.65	19157.4
842.4704	865.7478	20099.55	19150.35
842.6156	867.7922	20131.25	19180.95
842.7607	869.8359	20186.3	19236.05
842.9058	871.8789	20316.05	19368.15
843.0509	873.9212	20546.4	19567.45
843.1961	875.9629	20655.9	19708.1
843.3412	878.0039	20830.3	19882.9
843.4863	880.0441	20943.2	19997.15
843.6315	882.0837	20982.75	20034.8
843.7766	884.1226	20916.6	19966.35
843.9218	886.1609	20819.1	19870.15
844.0669	888.1984	20740.8	19790.05
844.212	890.2352	20758.55	19805.8
844.3572	892.2714	20721.8	19764.15
844.5023	894.3069	20719.7	19766.2
844.6475	896.3416	20657.5	19707.4
844.7926	898.3757	20626.5	19674.05
844.9377	900.4091	20626.6	19672
845.0829	902.4418	20650.25	19693.4
845.228	904.4739	20671.3	19716.45
845.3732	906.5052	20665.45	19711.1
845.5183	908.5358	20574.45	19621.15
845.6635	910.5658	20483.55	19527.9
845.8086	912.595	20308.45	19354.6
845.9538	914.6236	20146.9	19193.85
846.0989	916.6515	20121.6	19168.55
846.2441	918.6786	20093.55	19139.6
846.3892	920.7051	20240.45	19286.35
846.5344	922.7309	20345.1	19391.1
846.6795	924.756	20399.85	19449.45
846.8246	926.7804	20515.85	19562.35
846.9698	928.8041	20452.4	19499.9
847.1149	930.8272	20514.25	19563.15
847.2601	932.8495	20400.95	19444.95
847.4052	934.8711	20376	19418.5
847.5504	936.892	20204.9	19249.8
847.6955	938.9123	20057.95	19101.75
847.8407	940.9318	19964.3	19012.2
847.9858	942.9506	19832.5	18878.75
848.131	944.9688	19742.7	18787.3
848.2761	946.9862	19684.25	18731.85
848.4213	949.003	19581.25	18627.45
848.5664	951.019	19633.9	18677.3
848.7115	953.0344	19679.05	18727.6
848.8567	955.0491	19704.3	18749.45
849.0018	957.063	19812.8	18856.85
849.147	959.0763	19972.5	19021.65
849.2921	961.0888	19992.05	19034.95
849.4373	963.1007	20068.3	19119.9
849.5824	965.1119	20135.25	19191.65
849.7275	967.1223	20138.3	19204.95
849.8727	969.1321	20188.8	19251.7
850.0178	971.1412	20232	19287
850.1629	973.1495	20269.05	19322.9
850.3081	975.1572	20331.3	19324.2
850.4532	977.1641	20353.65	19400.25
850.5983	979.1704	20332.5	19380.9
850.7435	981.1759	20295.8	19338.65
850.8886	983.1808	20417.3	19465.75
851.0337	985.1849	20485.3	19523
851.1788	987.1884	20640.35	19685.65
851.324	989.1911	20797.95	19841.8
851.4691	991.1932	20967	20016.5
851.6142	993.1945	20996.55	20047.2
851.7593	995.1951	20933.25	19980.05
851.9045	997.1951	20928.2	19970.7
852.0496	999.1943	20845.65	19891.55
852.1947	1001.1928	20744.7	19788.75
852.3398	1003.1906	20744.95	19792.85
852.4849	1005.1877	20831.9	19877.1
852.63	1007.1841	20752.6	19800
852.7751	1009.1798	20691.6	19741.9
852.9202	1011.1748	20489	19539.95
853.0653	1013.1691	20311.6	19361.45
853.2104	1015.1627	20096.9	19144.8
853.3555	1017.1556	19848.85	18900.55
853.5006	1019.1477	19791.2	18840.2
853.6457	1021.1392	19691.05	18746.7
853.7908	1023.1299	19655.75	18712.9
853.9359	1025.12	19669.25	18733.55
854.081	1027.1093	19692	18769.85
854.2261	1029.0979	19818.8	18900.25
854.3712	1031.0859	19826.65	18902.65
854.5163	1033.0731	19850.85	18913.1
854.6613	1035.0596	19774.9	18833.15
854.8064	1037.0454	19611.95	18664.15
854.9515	1039.0304	19488.95	18540.35
855.0965	1041.0148	19373.95	18422.55
855.2416	1042.9985	19302.2	18351.4
855.3867	1044.9814	19261.6	18314.55
855.5317	1046.9636	19204.15	18252.75
855.6768	1048.9452	19194.75	18248.8
855.8219	1050.926	19181.85	18234.3
855.9669	1052.9061	19200.25	18248
856.112	1054.8855	19181.1	18231.65
856.257	1056.8642	19200.95	18252.9
856.4021	1058.8421	19263.25	18311.7
856.5471	1060.8194	19294.2	18342.05
856.6921	1062.7959	19341.35	18390.55
856.8372	1064.7717	19369.1	18415.65
856.9822	1066.7469	19369.5	18414.55
857.1272	1068.7213	19365.05	18413.05
857.2723	1070.695	19377.85	18426.7
857.4173	1072.6679	19279.2	18327.35
857.5623	1074.6402	19249.3	18297.2
857.7073	1076.6117	19236.6	18279.55
857.8523	1078.5826	19242.9	18291.8
857.9973	1080.5527	19260.6	18308.9
858.1423	1082.5221	19354.95	18405.85
858.2873	1084.4908	19512.35	18561.85
858.4323	1086.4587	19719.1	18769.3
858.5773	1088.426	19867.55	18915.6
858.7223	1090.3925	19871.4	18913.8
858.8673	1092.3584	19851.8	18898.45
859.0123	1094.3235	19659.9	18710.6
859.1573	1096.2879	19592.9	18643.35
859.3022	1098.2515	19596.55	18647.4
859.4472	1100.2145	19649.85	18703.4
859.5922	1102.1767	19722.5	18770.95
859.7371	1104.1382	19858.8	18909.05
859.8821	1106.099	20061.25	19108.95
860.027	1108.0591	20272.4	19321.7
860.172	1110.0185	20387	19436.15
860.3169	1111.9771	20409.1	19460.85
860.4619	1113.9351	20172.25	19224.65
860.6068	1115.8923	19867.7	18917.4
860.7517	1117.8488	19595.4	18646.05
860.8967	1119.8045	19330.55	18381.5
861.0416	1121.7596	19220.85	18269.65
861.1865	1123.7139	19126.05	18177.25
861.3314	1125.6675	19159.2	18211.8
861.4763	1127.6204	19232.55	18285.95
861.6212	1129.5726	19201.35	18246.65
861.7661	1131.524	19198.95	18251.15
861.911	1133.4748	19191.25	18244.45
862.0559	1135.4248	19178.6	18229.35
862.2008	1137.3741	19159.05	18208.4
862.3457	1139.3226	19107.85	18159.3
862.4905	1141.2705	19116.55	18166.45
862.6354	1143.2176	18991.05	18038.1
862.7803	1145.164	19010.8	18059.75
862.9251	1147.1097	19032.85	18082.1
863.07	1149.0546	18985.9	18035.2
863.2148	1150.9989	18938.9	17989.35
863.3597	1152.9424	18815.9	17867.9
863.5045	1154.8852	18654.15	17708
863.6493	1156.8272	18531.75	17582.85
863.7942	1158.7686	18537.35	17581.6
863.939	1160.7092	18420.65	17468.05
864.0838	1162.6491	18413.85	17462.25
864.2286	1164.5883	18504.95	17557.3
864.3734	1166.5267	18570.95	17619.5
864.5182	1168.4644	18734.6	17787.75
864.663	1170.4014	18901.15	17949.15
864.8078	1172.3377	19146.6	18200.8
864.9526	1174.2732	19349.45	18402.55
865.0974	1176.2081	19607.6	18661.15
865.2421	1178.1421	19812.25	18860
865.3869	1180.0755	20034.65	19089.55
865.5317	1182.0082	20097.5	19150.55
865.6764	1183.9401	20100.8	19155.05
865.8212	1185.8713	19948.95	19009.35
865.9659	1187.8017	19702.4	18768.05
866.1106	1189.7315	19458	18535.5
866.2554	1191.6605	19121.15	18197.95
866.4001	1193.5888	18923.7	17993.65
866.5448	1195.5163	18842.85	17903
866.6895	1197.4432	18727.55	17785.25
866.8342	1199.3693	18673.35	17726.5
866.9789	1201.2947	18616.45	17667.05
867.1236	1203.2193	18572.35	17628.45
867.2683	1205.1432	18658.3	17713.4
867.413	1207.0664	18630.35	17685.35
867.5576	1208.9889	18650.45	17702.45
867.7023	1210.9106	18670.05	17725
867.847	1212.8316	18729.9	17786.5
867.9916	1214.7519	18782.2	17829.05
868.1363	1216.6715	18754.75	17812
868.2809	1218.5903	18755.85	17810.2
868.4255	1220.5084	18740.7	17796.6
868.5701	1222.4257	18720.95	17776.35
868.7148	1224.3424	18650.6	17711.05
868.8594	1226.2583	18688.7	17742.35
869.004	1228.1735	18795.95	17853.15
869.1486	1230.0879	18860.45	17914.05
869.2932	1232.0016	18979.6	18036
869.4377	1233.9146	19025.9	18079.3
869.5823	1235.8269	18925.3	17984.05
869.7269	1237.7384	18792.55	17847.9
869.8715	1239.6492	18570.35	17634.85
870.016	1241.5592	18499.3	17554.55
870.1606	1243.4686	18411.35	17467.6
870.3051	1245.3772	18342.5	17397.55
870.4496	1247.285	18318	17371.4
870.5941	1249.1922	18278.75	17335.45
870.7387	1251.0986	18297.4	17352.6
870.8832	1253.0042	18235.35	17293.75
871.0277	1254.9092	18290.8	17351.1
871.1722	1256.8134	18388.05	17449.55
871.3167	1258.7169	18509.1	17569.35
871.4611	1260.6196	18640.6	17699.1
871.6056	1262.5216	18816.6	17875
871.7501	1264.4229	18995.8	18057.1
871.8945	1266.3234	19135.6	18194.15
872.039	1268.2232	19200.9	18256.75
872.1834	1270.1223	19168.5	18224.85
872.3278	1272.0207	19170	18223.9
872.4723	1273.9183	19128.15	18180.85
872.6167	1275.8151	19045.25	18103.85
872.7611	1277.7113	18948.5	18006.85
872.9055	1279.6067	18804.75	17866.7
873.0499	1281.5014	18725.3	17783.1
873.1943	1283.3953	18642	17696.75
873.3386	1285.2885	18607.1	17668.45
873.483	1287.181	18645.4	17703.05
873.6274	1289.0727	18739.4	17801.1
873.7717	1290.9637	18818.7	17875.9
873.9161	1292.854	18940.85	17998.7
874.0604	1294.7435	19082.9	18142.45
874.2047	1296.6323	19266.15	18325.35
874.349	1298.5204	19480.85	18536.8
874.4933	1300.4077	19695.5	18755.05
874.6376	1302.2943	19857.3	18915.3
874.7819	1304.1802	19897.7	18958.05
874.9262	1306.0653	19779.7	18839.55
875.0705	1307.9497	19577.2	18635.65
875.2147	1309.8333	19475.3	18535.2
875.359	1311.7162	19354.35	18415.2
875.5032	1313.5984	19397.95	18458.25
875.6475	1315.4798	19399.15	18448.1
875.7917	1317.3605	19490.4	18532.35
875.9359	1319.2405	19537.9	18596.9
876.0801	1321.1197	19511.2	18566.6
876.2243	1322.9982	19327	18385.15
876.3685	1324.876	19333.85	18391.45
876.5127	1326.753	19220.15	18281.8
876.6569	1328.6293	19178.6	18233.9
876.801	1330.5048	19224.1	18282.25
876.9452	1332.3796	19086.5	18147.35
877.0893	1334.2537	19104.9	18136
877.2335	1336.127	19029.65	18088.2
877.3776	1337.9996	18976.7	18037.55
877.5217	1339.8714	18937	17995.25
877.6658	1341.7426	18931.2	17943
877.8099	1343.6129	18885.7	17941.1
877.954	1345.4826	18813.65	17868.55
878.0981	1347.3515	18781.4	17835.45
878.2422	1349.2196	18691.2	17750.05
878.3862	1351.087	18709.55	17768.6
878.5303	1352.9537	18727.3	17782.3
878.6743	1354.8197	18846	17902.7
878.8184	1356.6849	18988.55	18046.85
878.9624	1358.5493	19074.25	18131.3
879.1064	1360.4131	19095.95	18157.7
879.2504	1362.276	19068.35	18129.05
879.3944	1364.1383	18899.6	17959.55
879.5384	1365.9998	18656.95	17711
879.6823	1367.8606	18322.8	17382.55
879.8263	1369.7206	18036.6	17090.3
879.9702	1371.5799	17826.35	16881
880.1142	1373.4384	17641.1	16702.15
880.2581	1375.2962	17515.45	16572.6
880.402	1377.1533	17223.9	16285.9
880.5459	1379.0096	16902.9	15967.35
880.6898	1380.8652	16598.95	15664.55
880.8337	1382.7201	16361.6	15425.75
880.9776	1384.5742	16092.15	15153.05
881.1215	1386.4275	15925.8	14986.8
881.2653	1388.2802	15790.55	14851.6
881.4092	1390.132	15659.8	14722.15
881.553	1391.9832	15618.55	14677.55
881.6968	1393.8336	15501.85	14563.15
881.8406	1395.6832	15437.2	14493.65
881.9844	1397.5322	15366.1	14424.5
882.1282	1399.3803	15334.4	14389.8
882.272	1401.2278	15263.95	14328.95
882.4158	1403.0745	15286.5	14349.85
882.5595	1404.9204	15216.55	14278.6
882.7033	1406.7656	15204.2	14265.05
882.847	1408.6101	15216	14274.9
882.9908	1410.4538	15197.35	14257
883.1345	1412.2968	15228.85	14292.7
883.2782	1414.139	15240.1	14300.15
883.4219	1415.9805	15328.15	14389.65
883.5656	1417.8213	15390.7	14449.95
883.7092	1419.6613	15439.55	14502.7
883.8529	1421.5006	15629.55	14690.1
883.9965	1423.3391	15832.5	14894
884.1402	1425.1769	16154.05	15215.95
884.2838	1427.0139	16616.85	15680.85
884.4274	1428.8502	17186.85	16249.1
884.571	1430.6858	17745.2	16808.95
884.7146	1432.5206	18100.8	17164.7
884.8582	1434.3547	18342.65	17406.05
885.0018	1436.188	18391.75	17456.85
885.1453	1438.0206	18304.45	17366.5
885.2889	1439.8524	18127.35	17191.35
885.4324	1441.6835	18005.95	17067.35
885.5759	1443.5139	17922.6	16981.75
885.7194	1445.3435	17824.15	16889.4
885.8629	1447.1724	17775.45	16843.6
886.0064	1449.0005	17703.65	16771.25
886.1499	1450.8279	17605.45	16670.35
886.2933	1452.6545	17500.75	16565.7
886.4368	1454.4804	17541.1	16609.35
886.5802	1456.3056	17522.05	16580
886.7237	1458.13	17425.5	16493.25
886.8671	1459.9536	17211.4	16275.9
887.0105	1461.7766	16832.65	15893.5
887.1539	1463.5987	16438.45	15502.35
887.2972	1465.4202	16072.05	15134.55
887.4406	1467.2409	15677.8	14741.85
887.584	1469.0608	15410.55	14475.15
887.7273	1470.88	15153.75	14220.7
887.8706	1472.6984	14937.45	14002.95
888.0139	1474.5161	14696.25	13762.55
888.1572	1476.3331	14549.05	13614.25
888.3005	1478.1493	14410.95	13475.65
888.4438	1479.9648	14305.65	13373.3
888.5871	1481.7795	14197	13263.3
888.7303	1483.5935	14087.3	13148.95
888.8736	1485.4067	14030.5	13094.3
889.0168	1487.2192	13981.15	13043.4
889.16	1489.031	13915.75	12983.95
889.3032	1490.842	13904.8	12971.8
889.4464	1492.6522	13843.1	12909
889.5896	1494.4618	13790.2	12858.4
889.7327	1496.2705	13757.65	12824.95
889.8759	1498.0785	13715	12780.8
890.019	1499.8858	13640.9	12703.15
890.1622	1501.6924	13624.45	12691.45
890.3053	1503.4981	13606.9	12673.55
890.4484	1505.3032	13552.3	12617
890.5914	1507.1075	13539.3	12602.9
890.7345	1508.911	13497.35	12562.8
890.8776	1510.7138	13441.6	12507.75
891.0206	1512.5159	13372.15	12437.35
891.1637	1514.3172	13310	12377.4
891.3067	1516.1178	13203.3	12272.45
891.4497	1517.9176	13172.1	12235.7
891.5927	1519.7166	13145.55	12216.4
891.7357	1521.515	13089.55	12152.5
891.8786	1523.3126	13050.65	12120.2
892.0216	1525.1094	12992.7	12058.05
892.1645	1526.9055	12964.15	12036.65
892.3074	1528.7008	12941.3	12011.05
892.4503	1530.4954	12872.05	11942.5
892.5932	1532.2893	12865.8	11940.85
892.7361	1534.0824	12771.45	11841.65
892.879	1535.8747	12759.25	11833.4
893.0218	1537.6663	12729.75	11804.7
893.1647	1539.4572	12699.75	11774
893.3075	1541.2473	12687.25	11761.2
893.4503	1543.0367	12643.05	11718.45
893.5931	1544.8253	12622.8	11694.8
893.7359	1546.6132	12624.4	11693.8
893.8787	1548.4003	12584.3	11650.2
894.0214	1550.1867	12622.65	11688.55
894.1642	1551.9723	12616.75	11686.85
894.3069	1553.7572	12636.85	11711.25
894.4496	1555.5414	12641.8	11720.25
894.5923	1557.3247	12677.25	11755.65
894.735	1559.1074	12714.3	11797.45
894.8777	1560.8893	12770.7	11850.15
895.0204	1562.6705	12826.9	11907.35
895.163	1564.4509	12857.3	11940.05
895.3056	1566.2305	12916.35	12001.2
895.4482	1568.0094	12990.7	12075.55
895.5908	1569.7876	13024.85	12106.55
895.7334	1571.565	13049.75	12128.5
895.876	1573.3417	13046.65	12127.9
896.0186	1575.1176	13001.55	12084.4
896.1611	1576.8928	12962.1	12047.3
896.3036	1578.6672	12881.2	11969.8
896.4461	1580.4409	12773.9	11864.85
896.5886	1582.2138	12623.25	11707.4
896.7311	1583.986	12520.15	11605.6
896.8736	1585.7575	12409.7	11495.5
897.0161	1587.5282	12329.55	11418.15
897.1585	1589.2981	12306.2	11399.7
897.3009	1591.0673	12252.3	11346
897.4433	1592.8358	12244.75	11336.85
897.5857	1594.6035	12283.8	11369.6
897.7281	1596.3704	12258.85	11342.05
897.8705	1598.1366	12245.9	11334.4
898.0128	1599.9021	12285.95	11372.75
898.1551	1601.6668	12299	11386.9
898.2975	1603.4308	12352.9	11437.85
898.4398	1605.194	12432.85	11514.85
898.5821	1606.9564	12555.25	11648.75
898.7243	1608.7182	12676.4	11775.7
898.8666	1610.4791	12763.35	11867.35
899.0088	1612.2394	12870.55	11976.7
899.1511	1613.9988	13068.4	12168.35
899.2933	1615.7576	13286.15	12382
899.4355	1617.5156	13483.6	12566.9
899.5776	1619.2728	13671.05	12757.15
899.7198	1621.0293	13786	12874.2
899.862	1622.785	13816.15	12901.4
900.0041	1624.54	13690.65	12785.8
900.1462	1626.2942	13546.4	12640.15
900.2883	1628.0477	13263.5	12352.9
900.4304	1629.8005	13041	12134.25
900.5725	1631.5525	12809.05	11903.4
900.7145	1633.3037	12620.8	11717.4
900.8566	1635.0542	12452.75	11549.25
900.9986	1636.804	12345.9	11441.95
901.1406	1638.553	12344.35	11356.7
901.2826	1640.3013	12233.45	11326.65
901.4245	1642.0488	12158.35	11251
901.5665	1643.7955	12179.7	11277.6
901.7085	1645.5416	12211	11308.6
901.8504	1647.2868	12278.25	11373.7
901.9923	1649.0313	12349.65	11442.2
902.1342	1650.7751	12521.65	11612.6
902.2761	1652.5181	12612.3	11710.8
902.4179	1654.2604	12821.75	11921.35
902.5598	1656.0019	13065.4	12163.35
902.7016	1657.7427	13384.75	12479.4
902.8434	1659.4828	13672.75	12766
902.9852	1661.222	13823.35	12917.15
903.127	1662.9606	13845.7	12939.1
903.2687	1664.6984	13653.1	12747.5
903.4105	1666.4354	13234.3	12325.15
903.5522	1668.1717	12749.15	11839.7
903.6939	1669.9072	12217.8	11306.4
903.8356	1671.642	11848.25	10936.3
903.9773	1673.3761	11494.1	10588.3
904.119	1675.1094	11176.1	10268.7
904.2606	1676.8419	10971.3	10066.4
904.4022	1678.5737	10776.7	9870.55
904.5439	1680.3048	10637.5	9729.5
904.6855	1682.0351	10527.35	9621.6
904.827	1683.7646	10406.35	9496.1
904.9686	1685.4934	10336.95	9430.8
905.1101	1687.2215	10255.35	9348.05
905.2517	1688.9488	10169.2	9265.2
905.3932	1690.6754	10106.85	9202.8
905.5347	1692.4012	10092.65	9188.8
905.6761	1694.1263	10027.15	9123.8
905.8176	1695.8506	9988.8	9082.6
905.9591	1697.5742	9933.9	9031.35
906.1005	1699.297	9905.55	9004.6
906.2419	1701.0191	9837.75	8939.1
906.3833	1702.7404	9793.9	8893.25
906.5246	1704.461	9718.45	8818.25
906.666	1706.1808	9702.6	8800.55
906.8073	1707.8999	9650.4	8750.5
906.9487	1709.6182	9621.05	8725.35
907.09	1711.3358	9588.85	8693.55
907.2313	1713.0527	9523.8	8632
907.3725	1714.7688	9492.7	8589.55
907.5138	1716.4841	9473.05	8573.5
907.655	1718.1987	9451.7	8546.65
907.7962	1719.9126	9378.65	8481.05
907.9374	1721.6257	9343.8	8449.15
908.0786	1723.338	9361.3	8467.05
908.2198	1725.0496	9273.65	8376.95
908.3609	1726.7605	9249.5	8349.35
908.502	1728.4706	9229.35	8331.75
908.6431	1730.18	9191.15	8294.7
908.7842	1731.8886	9154.6	8260.6
908.9253	1733.5964	9162.15	8261.7
909.0664	1735.3036	9116.55	8219.55
909.2074	1737.0099	9102.3	8205.3
909.3484	1738.7156	9070.05	8176.35
909.4894	1740.4204	9000.85	8102.45
909.6304	1742.1246	9007.55	8107.5
909.7714	1743.8279	8966.65	8072.95
909.9123	1745.5306	8969.1	8073.35
910.0532	1747.2325	8908.6	8017.2
910.1941	1748.9336	8884.15	7988.6
910.335	1750.634	8843.8	7945.9
910.4759	1752.3336	8837.65	7941.9
910.6168	1754.0325	8801.3	7912.2
910.7576	1755.7307	8757.8	7863.2
910.8984	1757.4281	8781.05	7886.25
911.0392	1759.1247	8792.35	7886.05
911.18	1760.8206	8746.95	7843.2
911.3208	1762.5158	8732.4	7829.8
911.4615	1764.2102	8681.3	7784.65
911.6022	1765.9039	8642.85	7747.75
911.7429	1767.5968	8639.35	7747.65
911.8836	1769.289	8586.25	7690.25
912.0243	1770.9804	8592.3	7694.75
912.1649	1772.6711	8579.75	7679.95
912.3056	1774.361	8532.45	7632
912.4462	1776.0502	8535.9	7635.95
912.5868	1777.7386	8522.6	7625.1
912.7274	1779.4263	8474.1	7578.5
912.8679	1781.1132	8479.95	7587.95
913.0084	1782.7994	8441.55	7549.65
913.149	1784.4849	8422.75	7530.75
913.2895	1786.1696	8405.75	7508.2
913.4299	1787.8535	8375.45	7486.55
913.5704	1789.5367	8371.95	7482.7
913.7108	1791.2192	8368	7477.2
913.8513	1792.9009	8345.75	7425.25
913.9917	1794.5818	8307.5	7409.2
914.132	1796.2621	8300	7404.9
914.2724	1797.9415	8266	7370.45
914.4128	1799.6202	8239.5	7342.8
914.5531	1801.2982	8229.65	7332.25
914.6934	1802.9755	8209.45	7311.2
914.8337	1804.6519	8185.8	7289.75
914.9739	1806.3277	8135.2	7242.55
915.1142	1808.0027	8123.75	7234
915.2544	1809.6769	8098.9	7211.8
915.3946	1811.3504	8099.05	7207.8
915.5348	1813.0231	8066	7177.05
915.675	1814.6951	8053.55	7161.15
915.8151	1816.3664	8054.9	7158.25
915.9553	1818.0369	8007.15	7111.55
916.0954	1819.7067	8013.7	7119.15
916.2355	1821.3757	7995.5	7099.7
916.3755	1823.044	7998.75	7103.2
916.5156	1824.7115	7969.85	7072
916.6556	1826.3783	7913.9	7021.35
916.7956	1828.0443	7892.45	6999.15
916.9356	1829.7096	7903.8	7006.45
917.0756	1831.3741	7861.85	6965.4
917.2155	1833.0379	7871.5	6978.45
917.3555	1834.701	7831.55	6939.7
917.4954	1836.3633	7809.25	6921.4
917.6353	1838.0248	7789.25	6899.05
917.7751	1839.6856	7779.1	6885.8
917.915	1841.3457	7782.6	6892.1
918.0548	1843.005	7756.9	6861.75
918.1946	1844.6636	7743.75	6849.7
918.3344	1846.3214	7732.45	6840.3
918.4742	1847.9785	7724.95	6833.9
918.6139	1849.6349	7689.5	6794.35
918.7537	1851.2904	7696.7	6791.5
918.8934	1852.9453	7674.15	6779.3
919.0331	1854.5994	7646.85	6749.05
919.1727	1856.2528	7660.35	6759.5
919.3124	1857.9054	7609.7	6715.15
919.452	1859.5572	7600.7	6708.55
919.5916	1861.2083	7581.65	6685.35
919.7312	1862.8587	7561.3	6667
919.8708	1864.5084	7552.45	6656.4
920.0103	1866.1572	7526.35	6628.5
920.1498	1867.8054	7491.9	6596.1
920.2893	1869.4528	7501.95	6606.65
920.4288	1871.0994	7471.95	6574.6
920.5683	1872.7453	7443.25	6546.65
920.7077	1874.3905	7437.95	6524.65
920.8471	1876.0349	7432.25	6535.35
920.9865	1877.6786	7415.9	6522.35
921.1259	1879.3215	7392.85	6500.7
921.2653	1880.9637	7376.35	6481.65
921.4046	1882.6051	7369.65	6476.7
921.5439	1884.2458	7344	6447.95
921.6832	1885.8858	7301.95	6409.35
921.8225	1887.525	7315.25	6420.15
921.9617	1889.1634	7285.9	6393.3
922.101	1890.8011	7249.6	6354.25
922.2402	1892.4381	7235.55	6341.9
922.3794	1894.0743	7245.85	6351.45
922.5185	1895.7098	7205.55	6313.6
922.6577	1897.3446	7190.45	6295.45
922.7968	1898.9786	7187.7	6290.6
922.9359	1900.6118	7162.4	6268.1
923.075	1902.2443	7127.45	6236.2
923.214	1903.8761	7110.55	6218.5
923.3531	1905.5071	7092.25	6198.7
923.4921	1907.1374	7051.45	6157.35
923.6311	1908.7669	7064.65	6170.65
923.77	1910.3957	7026.75	6134.1
923.909	1912.0237	6972.8	6081.5
924.0479	1913.651	6979.4	6085.15
924.1868	1915.2776	6971.45	6079.95
924.3257	1916.9034	6947.05	6058.55
924.4646	1918.5285	6914.2	6023.45
924.6034	1920.1528	6880.7	5988.6
924.7422	1921.7764	6874.85	5980.45
924.881	1923.3992	6859.75	5967.15
925.0198	1925.0213	6804.05	5911.55
925.1586	1926.6427	6779.5	5889.3
925.2973	1928.2633	6861.6	5866.95
925.436	1929.8832	6763.1	5865.6
925.5747	1931.5023	6735.95	5845
925.7134	1933.1207	6701.6	5806.65
925.852	1934.7383	6705.65	5812.55
925.9906	1936.3552	6682.15	5792
926.1292	1937.9714	6649.35	5757.2
926.2678	1939.5868	6634	5738.45
926.4064	1941.2015	6612.15	5718.4
926.5449	1942.8154	6577.5	5682.7
926.6834	1944.4286	6565.75	5669.85
926.8219	1946.041	6544	5626.45
926.9604	1947.6528	6514	5616
927.0988	1949.2637	6487.8	5596.25
927.2372	1950.8739	6463.8	5570.4
927.3756	1952.4834	6451.1	5560.8
927.514	1954.0921	6462.3	5569.2
927.6523	1955.7001	6421.35	5526.2
927.7907	1957.3074	6393.9	5508.2
927.929	1958.9139	6377.6	5491.4
928.0673	1960.5197	6358.7	5467.75
928.2055	1962.1247	6332.5	5442.75
928.3438	1963.729	6307.95	5420.5
928.482	1965.3325	6291.7	5398.3
928.6202	1966.9353	6252.75	5367.2
928.7584	1968.5374	6239.45	5351.4
928.8965	1970.1387	6219.35	5329.7
929.0346	1971.7393	6186.55	5298.6
929.1727	1973.3392	6185.55	5300.75
929.3108	1974.9383	6150.8	5264.8
929.4489	1976.5366	6121.3	5233.25
929.5869	1978.1342	6131.55	5244.95
929.7249	1979.7311	6101.85	5216.4
929.8629	1981.3273	6094.35	5208.8
930.0009	1982.9227	6075.5	5189.25
930.1388	1984.5173	6052.75	5169.9
930.2767	1986.1112	6025.35	5143.75
930.4146	1987.7044	6025	5141.15
930.5525	1989.2968	5992.1	5106.15
930.6904	1990.8885	5996.75	5108.1
930.8282	1992.4795	5994.7	5111.85
930.966	1994.0697	5958.25	5075.15
931.1038	1995.6592	5941.55	5056.3
931.2415	1997.2479	5929.25	5044.05
931.3793	1998.8359	5922.2	5038.05
931.517	2000.4232	5875	4994.8
931.6547	2002.0097	5865.2	4986.85
931.7923	2003.5955	5846.55	4966.55
931.93	2005.1805	5836.75	4953.7
932.0676	2006.7648	5808.1	4926.85
932.2052	2008.3484	5789.35	4907.25
932.3427	2009.9312	5819	4938
932.4803	2011.5133	5759.65	4882.2
932.6178	2013.0946	5758.1	4880.85
932.7553	2014.6752	5761.05	4880.05
932.8928	2016.2551	5745.8	4863.75
933.0302	2017.8342	5707.6	4827.2
933.1676	2019.4126	5701.15	4821.75
933.305	2020.9902	5672.2	4793.85
933.4424	2022.5672	5656.35	4777
933.5798	2024.1433	5644.05	4760.7
933.7171	2025.7188	5628.25	4751.3
933.8544	2027.2935	5618.45	4740.85
933.9917	2028.8674	5591	4712.45
934.129	2030.4406	5580.95	4703.9
934.2662	2032.0131	5575.1	4699.3
934.4034	2033.5849	5552.9	4665.8
934.5406	2035.1559	5559.25	4682.65
934.6778	2036.7261	5542.15	4662.4
934.8149	2038.2957	5501.3	4620.15
934.952	2039.8645	5503.7	4617.4
935.0891	2041.4325	5502.95	4617.1
935.2262	2042.9998	5484.85	4602.6
935.3632	2044.5664	5479.6	4599.2
935.5002	2046.1323	5445.5	4568.15
935.6372	2047.6974	5428.6	4550.35
935.7742	2049.2617	5419.7	4542.15
935.9111	2050.8254	5417.85	4531.85
936.048	2052.3883	5435.55	4553.8
936.1849	2053.9504	5383.1	4499.05
936.3218	2055.5118	5388.85	4507.7
936.4586	2057.0725	5360.35	4476.75
936.5955	2058.6325	5323.9	4445.2
936.7323	2060.1917	5327.6	4446.9
936.869	2061.7502	5312.05	4429.95
937.0058	2063.3079	5299.7	4422
937.1425	2064.8649	5284.75	4403.2
937.2792	2066.4212	5267.65	4386.6
937.4159	2067.9767	5260.7	4380.2
937.5525	2069.5315	5228.05	4346.7
937.6891	2071.0856	5229.7	4350.7
937.8257	2072.6389	5198.45	4317.85
937.9623	2074.1915	5174.8	4298.45
938.0989	2075.7433	5159.6	4277.95
938.2354	2077.2945	5153.5	4276.65
938.3719	2078.8448	5133.35	4250.2
938.5084	2080.3945	5144.3	4262.5
938.6448	2081.9434	5124.55	4241.65
938.7812	2083.4916	5097.15	4208.6
938.9176	2085.039	5091.35	4200.5
939.054	2086.5857	5093	4202.85
939.1903	2088.1317	5071.05	4179.9
939.3267	2089.677	5043.5	4152.3
939.463	2091.2215	5040.7	4151.8
939.5992	2092.7652	5021.15	4129.15
939.7355	2094.3083	5001.25	4111.65
939.8717	2095.8506	4994.9	4108.1
940.0079	2097.3921	5001.45	4115.45
940.1441	2098.933	4985.65	4102.6
940.2802	2100.4731	4974.7	4088.4
940.4163	2102.0124	4973.7	4069.35
940.5524	2103.5511	4971.25	4086.2
940.6885	2105.089	4946.3	4058.6
940.8245	2106.6261	4948.8	4064.4
940.9606	2108.1626	4918.85	4034.6
941.0965	2109.6983	4933.7	4019.3
941.2325	2111.2332	4910.1	4023.9
941.3684	2112.7675	4907.2	4018.8
941.5044	2114.301	4876.95	3988.5
941.6403	2115.8337	4882.8	3994.8
941.7761	2117.3657	4855.8	3970.8
941.912	2118.897	4861.8	3974.3
942.0478	2120.4276	4838.05	3946.9
942.1835	2121.9575	4816.35	3929.55
942.3193	2123.4866	4819.5	3917.15
942.455	2125.0149	4803.75	3914.25
942.5907	2126.5426	4772.3	3888.25
942.7264	2128.0695	4769.9	3884.35
942.8621	2129.5956	4756.8	3877.15
942.9977	2131.1211	4757.4	3871.85
943.1333	2132.6458	4737.6	3853.3
943.2689	2134.1698	4730.7	3843.4
943.4044	2135.693	4727	3834.2
943.54	2137.2155	4705.45	3814.7
943.6755	2138.7373	4692.85	3806.2
943.8109	2140.2584	4687.1	3804.8
943.9464	2141.7787	4683.9	3798.7
944.0818	2143.2983	4661.45	3783.8
944.2172	2144.8171	4624.7	3747.85
944.3526	2146.3353	4626.85	3743.55
944.4879	2147.8527	4606.45	3725.15
944.6232	2149.3693	4612.15	3726.4
944.7585	2150.8853	4587.25	3698.7
944.8938	2152.4005	4571.6	3684.15
945.029	2153.9149	4588.45	3699.5
945.1642	2155.4287	4577	3688.4
945.2994	2156.9417	4553.4	3664.95
945.4346	2158.454	4531.85	3647
945.5697	2159.9655	4524.3	3642.2
945.7048	2161.4764	4522.6	3638.3
945.8399	2162.9865	4497.75	3616.85
945.9749	2164.4958	4502.45	3620.8
946.1099	2166.0045	4480.75	3595.35
946.2449	2167.5124	4479.45	3596.4
946.3799	2169.0195	4468.2	3583.65
946.5148	2170.526	4470.75	3583.05
946.6498	2172.0317	4472.6	3585.55
946.7846	2173.5367	4454.1	3570.7
946.9195	2175.0409	4432.15	3548.05
947.0543	2176.5445	4428.4	3542.8
947.1891	2178.0473	4412.6	3525.95
947.3239	2179.5494	4395.45	3504.75
947.4587	2181.0507	4384.7	3499.2
947.5934	2182.5513	4383.85	3499.75
947.7281	2184.0512	4375.2	3488.3
947.8628	2185.5504	4354.55	3467.7
947.9974	2187.0488	4334.3	3450.5
948.132	2188.5465	4305.25	3421
948.2666	2190.0435	4301.35	3417.5
948.4012	2191.5397	4294.4	3407.95
948.5357	2193.0353	4287.95	3400.35
948.6702	2194.5301	4266.55	3376.5
948.8047	2196.0241	4270.5	3378.7
948.9392	2197.5175	4253.8	3361.4
949.0736	2199.0101	4258.6	3363.6
949.208	2200.502	4218.5	3331
949.3424	2201.9931	4201.2	3315.4
949.4767	2203.4835	4191.65	3307.25
949.611	2204.9733	4183.45	3294.65
949.7453	2206.4622	4178.25	3297.25
949.8796	2207.9505	4164.15	3279.95
950.0138	2209.438	4145.05	3267.1
950.148	2210.9248	4120.05	3235.4
950.2822	2212.4109	4126.4	3241.55
950.4164	2213.8962	4117.7	3226.1
950.5505	2215.3809	4116.65	3226.15
950.6846	2216.8648	4093.85	3202.35
950.8186	2218.3479	4088.7	3189.65
950.9527	2219.8304	4067.8	3172.2
951.0867	2221.3121	4086.65	3191.35
951.2207	2222.7931	4056.95	3166.9
951.3546	2224.2733	4038.65	3148.8
951.4886	2225.7529	4031.2	3144.35
951.6225	2227.2317	4009.1	3121.25
951.7563	2228.7098	4004.65	3122.25
951.8902	2230.1872	4005.05	3123.55
952.024	2231.6638	3964.85	3082.8
952.1578	2233.1397	3970.3	3082.4
952.2916	2234.6149	3972.75	3089.65
952.4253	2236.0894	3952.7	3068.55
952.559	2237.5632	3956.75	3061.8
952.6927	2239.0362	3930.45	3042.7
952.8263	2240.5085	3927	3042.25
952.9599	2241.9801	3924.95	3037.65
953.0935	2243.4509	3910.85	3022
953.2271	2244.921	3901.75	3010.35
953.3606	2246.3904	3880.95	2988.3
953.4941	2247.8591	3876.35	2990.15
953.6276	2249.3271	3854.8	2966.45
953.7611	2250.7943	3839.15	2950.45
953.8945	2252.2608	3831.9	2943.3
954.0279	2253.7266	3826.45	2941.95
954.1612	2255.1917	3817.95	2930.25
954.2946	2256.656	3795.6	2910.55
954.4279	2258.1197	3791.6	2907.8
954.5612	2259.5826	3783.25	2897.9
954.6944	2261.0447	3786.95	2898
954.8276	2262.5062	3776.75	2887.85
954.9608	2263.9669	3754.7	2865.95
955.094	2265.4269	3759.15	2872.85
955.2271	2266.8862	3746.55	2860.3
955.3602	2268.3448	3748.65	2862.7
955.4933	2269.8026	3734.55	2848.1
955.6264	2271.2598	3720.85	2838.2
955.7594	2272.7162	3711.2	2826.7
955.8924	2274.1719	3702.35	2815.85
956.0253	2275.6268	3703.6	2816.75
956.1583	2277.0811	3696.5	2809.15
956.2912	2278.5346	3678.65	2792.6
956.4241	2279.9874	3677.6	2792.35
956.5569	2281.4395	3686.15	2802.55
956.6897	2282.8908	3671.75	2780.05
956.8225	2284.3414	3658.15	2771.5
956.9553	2285.7914	3653.2	2767.75
957.088	2287.2406	3637.85	2749.65
957.2207	2288.689	3634.7	2747.7
957.3534	2290.1368	3622.75	2729.9
957.486	2291.5838	3621.95	2725.15
957.6186	2293.0302	3619.45	2724.75
957.7512	2294.4758	3593.5	2701.5
957.8838	2295.9206	3585.4	2694.4
958.0163	2297.3648	3579.25	2692.15
958.1488	2298.8082	3552.75	2666.5
958.2813	2300.251	3560.85	2674.3
958.4137	2301.693	3553.95	2660.85
958.5461	2303.1343	3541.9	2653.85
958.6785	2304.5748	3529.85	2640.95
958.8108	2306.0147	3512.3	2627.9
958.9432	2307.4538	3523.25	2639.15
959.0754	2308.8922	3511.55	2629.1
959.2077	2310.3299	3497.4	2612.55
959.3399	2311.7669	3496.3	2612.45
959.4721	2313.2031	3496.7	2609.5
959.6043	2314.6387	3485.25	2599.95
959.7365	2316.0735	3457	2569.9
959.8686	2317.5076	3464.3	2575.5
960.0006	2318.941	3442.75	2552.15
960.1327	2320.3737	3456.9	2565.3
960.2647	2321.8056	3439.2	2546.3
960.3967	2323.2369	3418.55	2530
960.5287	2324.6674	3426.2	2536.3
960.6606	2326.0972	3403.1	2514.25
960.7925	2327.5263	3405.2	2518.35
960.9244	2328.9547	3386.2	2494.55
961.0562	2330.3823	3388.55	2497.55
961.1881	2331.8092	3387.25	2492.25
961.3198	2333.2355	3364.65	2474.5
961.4516	2334.661	3371.35	2481
961.5833	2336.0858	3359.45	2467.15
961.715	2337.5098	3358.8	2469.25
961.8467	2338.9332	3346.2	2458.2
961.9783	2340.3558	3328.3	2441.35
962.1099	2341.7778	3314.8	2427.95
962.2415	2343.199	3315.55	2428.2
962.373	2344.6195	3300.65	2414
962.5045	2346.0393	3300.5	2415.85
962.636	2347.4583	3304.8	2417.8
962.7675	2348.8767	3307.85	2419.85
962.8989	2350.2943	3302	2411.85
963.0303	2351.7113	3288.8	2398.5
963.1617	2353.1275	3281.25	2392.05
963.293	2354.543	3283.2	2384.65
963.4243	2355.9578	3258.85	2371.4
963.5556	2357.3718	3240	2354.35
963.6868	2358.7852	3233.4	2347.2
963.818	2360.1978	3237.7	2348.75
963.9492	2361.6098	3219.95	2333.85
964.0803	2363.021	3211.6	2323.6
964.2114	2364.4315	3208	2321.65
964.3425	2365.8413	3191.45	2304.05
964.4736	2367.2504	3200.2	2315.7
964.6046	2368.6587	3172.2	2287.1
964.7356	2370.0664	3164.85	2281.35
964.8666	2371.4733	3154.45	2271.85
964.9975	2372.8795	3158.95	2273.55
965.1284	2374.285	3143	2257.5
965.2593	2375.6899	3123.7	2239.25
965.3901	2377.0939	3119.2	2238.05
965.5209	2378.4973	3119.65	2236.15
965.6517	2379.9	3111.25	2229.1
965.7825	2381.3019	3106.4	2222.7
965.9132	2382.7032	3094.6	2212.8
966.0439	2384.1037	3086	2207
966.1745	2385.5035	3083.8	2202.65
966.3051	2386.9027	3061.65	2182.65
966.4357	2388.3011	3071.9	2187.5
966.5663	2389.6987	3055.15	2174.2
966.6968	2391.0957	3041.15	2158.85
966.8273	2392.492	3043.2	2162.05
966.9578	2393.8876	3026.9	2144.5
967.0882	2395.2824	3019.25	2137.3
967.2186	2396.6765	3012.8	2130.45
967.349	2398.07	2995.9	2112.05
967.4793	2399.4627	2999.6	2113.25
967.6097	2400.8547	2992.65	2108.8
967.7399	2402.246	2988.95	2099.85
967.8702	2403.6366	2983.1	2098.2
968.0004	2405.0265	2959.55	2077.35
968.1306	2406.4156	2958.9	2073.75
968.2607	2407.8041	2938.8	2051.3
968.3909	2409.1918	2938.05	2053.15
968.521	2410.5789	2930.9	2048.95
968.651	2411.9652	2922.2	2035.85
968.781	2413.3508	2919.7	2035.95
968.911	2414.7358	2914.3	2032.05
969.041	2416.12	2906.1	2024.25
969.1709	2417.5035	2884.2	2002.7
969.3008	2418.8863	2897.3	2012.8
969.4307	2420.2684	2890.45	2005.95
969.5606	2421.6497	2879.4	1994.15
969.6904	2423.0304	2863.95	1980.9
969.8201	2424.4104	2868.65	1983.45
969.9499	2425.7896	2853.45	1968.2
970.0796	2427.1682	2850.55	1968.15
970.2093	2428.546	2847.75	1963.6
970.3389	2429.9232	2828.35	1945.55
970.4685	2431.2996	2832.5	1946.65
970.5981	2432.6753	2830.7	1946.35
970.7277	2434.0503	2813.5	1929.65
970.8572	2435.4246	2814.6	1930.1
970.9867	2436.7982	2802.4	1916.85
971.1161	2438.1711	2789.15	1902.85
971.2456	2439.5433	2792.35	1905.75
971.375	2440.9148	2782.6	1889.85
971.5043	2442.2856	2770.4	1886.1
971.6336	2443.6557	2767.5	1883.9
971.7629	2445.025	2763.8	1880.85
971.8922	2446.3937	2758.8	1872.45
972.0214	2447.7617	2754	1870.75
972.1506	2449.1289	2743.9	1859
972.2798	2450.4955	2743.9	1855.4
972.4089	2451.8613	2732.7	1850.8
972.538	2453.2265	2727.35	1843.9
972.6671	2454.5909	2732.25	1848.1
972.7961	2455.9546	2718.95	1833.9
972.9251	2457.3177	2714.05	1829
973.0541	2458.68	2701.1	1815.2
973.1831	2460.0416	2700.2	1816.15
973.312	2461.4025	2704.7	1818
973.4408	2462.7627	2701.9	1807.4
973.5697	2464.1222	2690.45	1810.2
973.6985	2465.4811	2688.25	1802.75
973.8273	2466.8392	2668.1	1786.85
973.956	2468.1966	2674.7	1787.6
974.0847	2469.5533	2674.2	1787.6
974.2134	2470.9093	2660.85	1779.3
974.3421	2472.2645	2661.55	1777.85
974.4707	2473.6191	2646.05	1761.55
974.5993	2474.973	2665.9	1781.4
974.7278	2476.3262	2653.8	1766.3
974.8563	2477.6787	2638.55	1754.95
974.9848	2479.0305	2627.3	1742.95
975.1132	2480.3816	2624.4	1739.15
975.2417	2481.7319	2618.35	1735.05
975.37	2483.0816	2606.95	1721.95
975.4984	2484.4306	2605.8	1720.6
975.6267	2485.7789	2591	1707.55
975.755	2487.1264	2581.6	1695.65
975.8833	2488.4733	2576.75	1694.65
976.0115	2489.8195	2586.2	1686.6
976.1397	2491.165	2572.9	1687.15
976.2678	2492.5097	2555.1	1669.45
976.3959	2493.8538	2544.9	1663.9
976.524	2495.1972	2548.75	1666
976.6521	2496.5398	2541.75	1655.9
976.7801	2497.8818	2528.4	1639
976.9081	2499.2231	2539.65	1654.1
977.036	2500.5637	2522.15	1636.9
977.164	2501.9035	2516.8	1629.7
977.2918	2503.2427	2528.85	1638.45
977.4197	2504.5812	2498	1613.15
977.5475	2505.919	2511.8	1624.7
977.6753	2507.256	2512.35	1626.95
977.8031	2508.5924	2488.9	1603.75
977.9308	2509.9281	2494.9	1604.75
978.0585	2511.2631	2477.65	1593.35
978.1861	2512.5974	2492.6	1608.85
978.3137	2513.9309	2477.75	1593.9
978.4413	2515.2638	2491.05	1574.2
978.5689	2516.596	2467.15	1581.15
978.6964	2517.9275	2449.75	1563.05
978.8239	2519.2583	2459.3	1574.5
978.9513	2520.5884	2435.95	1547.55
979.0788	2521.9178	2424.45	1541.05
979.2062	2523.2465	2433.6	1550.65
979.3335	2524.5745	2432.4	1550.3
979.4608	2525.9018	2416.4	1531.15
979.5881	2527.2284	2422.5	1537.2
979.7154	2528.5543	2410	1526.25
979.8426	2529.8796	2412	1527.95
979.9698	2531.2041	2404.1	1519.1
980.0969	2532.5279	2404.2	1522.7
980.224	2533.851	2404.6	1521.15
980.3511	2535.1735	2404.65	1522.8
980.4781	2536.4952	2401.4	1516.15
980.6052	2537.8163	2389.05	1503.55
980.7321	2539.1366	2392.35	1506.3
980.8591	2540.4562	2385.3	1500
980.986	2541.7752	2381.8	1497.85
981.1129	2543.0935	2374.95	1489.85
981.2397	2544.411	2376.85	1488.3
981.3665	2545.7279	2357.15	1470.9
981.4933	2547.0441	2357.25	1472.7
981.62	2548.3596	2364.45	1477.05
981.7467	2549.6744	2355.45	1467.5
981.8734	2550.9885	2363.6	1471.5
982.0001	2552.3019	2342	1456.2
982.1267	2553.6146	2341.75	1454.85
982.2532	2554.9266	2335.2	1448.5
982.3798	2556.2379	2326	1440.1
982.5063	2557.5485	2328.6	1445.65
982.6327	2558.8585	2323.1	1431.15
982.7592	2560.1677	2323.85	1434.75
982.8856	2561.4762	2317	1433
983.0119	2562.7841	2317.9	1428.6
983.1383	2564.0913	2312.45	1427.2
983.2646	2565.3977	2302.05	1417.4
983.3908	2566.7035	2300.15	1413.7
983.517	2568.0086	2300.2	1414.9
983.6432	2569.313	2298.6	1414.3
983.7694	2570.6167	2302.05	1409.35
983.8955	2571.9197	2275.95	1390.9
984.0216	2573.222	2295.3	1406.05
984.1476	2574.5236	2288.2	1399.95
984.2737	2575.8246	2280.95	1393.05
984.3996	2577.1248	2272.3	1384.9
984.5256	2578.4244	2264.05	1379.4
984.6515	2579.7232	2270.8	1384.05
984.7774	2581.0214	2293.85	1376.75
984.9032	2582.3189	2272.3	1387.45
985.029	2583.6157	2276.55	1386.55
985.1548	2584.9118	2271.8	1385.9
985.2806	2586.2072	2262.3	1375.8
985.4063	2587.5019	2255.9	1371.75
985.5319	2588.7959	2261.35	1375.7
985.6576	2590.0893	2268.55	1379.05
985.7832	2591.3819	2260.8	1374.45
985.9087	2592.6739	2257.25	1372.35
986.0343	2593.9652	2251.2	1363.1
986.1597	2595.2557	2240.9	1352.6
986.2852	2596.5456	2246.35	1357.3
986.4106	2597.8348	2238.05	1349.6
986.536	2599.1234	2234.5	1351.8
986.6614	2600.4112	2235.75	1350.65
986.7867	2601.6983	2235.35	1347.35
986.912	2602.9848	2234	1349.3
987.0372	2604.2705	2220.35	1328
987.1624	2605.5556	2221	1334.7
987.2876	2606.84	2216.5	1331
987.4128	2608.1237	2210.6	1325
987.5379	2609.4067	2195.95	1308.5
987.6629	2610.689	2207.8	1314
987.788	2611.9707	2203.95	1315.95
987.913	2613.2516	2192.25	1302.6
988.0379	2614.5319	2187.75	1304.5
988.1629	2615.8115	2179	1292.1
988.2878	2617.0903	2167.55	1281.9
988.4126	2618.3685	2166.7	1279.55
988.5375	2619.6461	2170.5	1283.7
988.6622	2620.9229	2154.15	1267.85
988.787	2622.199	2164.2	1278.95
988.9117	2623.4745	2166.95	1280.8
989.0364	2624.7493	2152.4	1266.95
989.161	2626.0234	2141.05	1257.45
989.2857	2627.2968	2139.85	1255.8
989.4102	2628.5695	2145.55	1261.35
989.5348	2629.8415	2143.05	1257.3
989.6593	2631.1128	2138.5	1250.65
989.7837	2632.3835	2130.1	1243
989.9082	2633.6535	2126.6	1243.15
990.0326	2634.9228	2125.85	1241.3
990.1569	2636.1914	2116.9	1230.85
990.2812	2637.4593	2115.5	1229.85
990.4055	2638.7265	2115.6	1229.45
990.5298	2639.9931	2107.5	1223.3
990.654	2641.259	2107.7	1222.15
990.7782	2642.5242	2100.65	1213.95
990.9023	2643.7887	2102.1	1213.7
991.0264	2645.0525	2096.1	1211.05
991.1505	2646.3156	2083.5	1197.2
991.2745	2647.5781	2085.35	1199.55
991.3985	2648.8398	2075.7	1192.7
991.5225	2650.1009	2073.9	1180.95
991.6464	2651.3613	2058.2	1171.9
991.7703	2652.6211	2063.6	1178.65
991.8942	2653.8801	2064.4	1182.9
992.018	2655.1385	2072.8	1184.45
992.1418	2656.3961	2056.65	1171.85
992.2655	2657.6531	2060.85	1175.85
992.3892	2658.9094	2051.1	1163.75
992.5129	2660.1651	2050.45	1165.7
992.6366	2661.42	2061.4	1174.25
992.7602	2662.6743	2044.7	1159
992.8837	2663.9279	2052.3	1167.2
993.0073	2665.1808	2048.05	1162.25
993.1307	2666.433	2052.55	1168.35
993.2542	2667.6846	2044.2	1160.3
993.3776	2668.9354	2042.9	1153.2
993.501	2670.1856	2036.7	1150.6
993.6244	2671.4351	2033.7	1148.8
993.7477	2672.6839	2044.6	1159.2
993.8709	2673.9321	2044.4	1157.55
993.9942	2675.1795	2042.5	1157.85
994.1174	2676.4263	2043.95	1157.8
994.2405	2677.6724	2034.7	1151.35
994.3637	2678.9179	2044.4	1158.25
994.4868	2680.1626	2042.45	1158.3
994.6098	2681.4067	2032.7	1148.05
994.7328	2682.6501	2040.7	1154.85
994.8558	2683.8928	2034.6	1149.3
994.9788	2685.1348	2017.2	1135.05
995.1017	2686.3761	2012.5	1128
995.2245	2687.6168	2022.4	1136.75
995.3474	2688.8568	2013.7	1127.65
995.4702	2690.0961	1989.3	1106.95
995.5929	2691.3348	2004.15	1118.9
995.7156	2692.5727	1990.55	1105.3
995.8383	2693.81	1991.75	1108.45
995.961	2695.0466	1980.95	1098.15
996.0836	2696.2826	1979.35	1092
996.2062	2697.5178	1980.25	1090.9
996.3287	2698.7524	1971.9	1087
996.4512	2699.9863	1980.3	1092.45
996.5737	2701.2195	1969.15	1086.4
996.6961	2702.452	1972.7	1088.05
996.8185	2703.6839	1988.85	1102.8
996.9408	2704.9151	1971.55	1089.5
997.0631	2706.1456	1979.9	1095.6
997.1854	2707.3755	1986.8	1102.5
997.3077	2708.6046	1998.35	1113.95
997.4299	2709.8331	1995.85	1112
997.552	2711.0609	2001.15	1115.9
997.6742	2712.2881	2004.05	1117.4
997.7963	2713.5145	2004.7	1115.95
997.9183	2714.7403	2004.55	1121.75
998.0403	2715.9654	2026	1139.1
998.1623	2717.1899	2038.75	1142
998.2842	2718.4136	2051	1166.55
998.4062	2719.6367	2051.05	1168.95
998.528	2720.8591	2063.65	1172.4
998.6498	2722.0809	2057.65	1172.9
998.7716	2723.3019	2072.4	1184.55
998.8934	2724.5223	2084.95	1200.2
999.0151	2725.7421	2083.75	1197.85
999.1368	2726.9611	2076.45	1190.5
999.2584	2728.1795	2077.25	1188.45
999.38	2729.3972	2064.2	1181.05
999.5016	2730.6142	2067.9	1170.9
999.6231	2731.8306	2047.25	1159.1
999.7446	2733.0462	2033.15	1149.7
999.8661	2734.2612	2014.5	1126.25
999.9875	2735.4756	1990.45	1103.15
1000.1089	2736.6892	1969.5	1086.85
1000.2302	2737.9022	1947.25	1064.25
1000.3515	2739.1145	1939.7	1055.95
1000.4728	2740.3262	1927	1035.35
1000.594	2741.5372	1904.15	1019.8
1000.7152	2742.7475	1889.65	1005.8
1000.8363	2743.9571	1884.15	999.85
1000.9575	2745.1661	1870.85	981.4
1001.0785	2746.3744	1870.65	986
1001.1996	2747.582	1854.7	972.35
1001.3206	2748.7889	1848.05	962.1
1001.4415	2749.9952	1837.1	953.6
1001.5625	2751.2008	1819.95	935.4
1001.6833	2752.4057	1819.45	935.2
1001.8042	2753.61	1819.9	936.15
1001.925	2754.8136	1809.75	924.45
1002.0458	2756.0165	1801.05	918.75
1002.1665	2757.2188	1809.65	927.6
1002.2872	2758.4204	1799.65	917.55
1002.4078	2759.6213	1804.25	918.2
1002.5285	2760.8215	1804.95	918.4
1002.649	2762.0211	1797.8	912.3
1002.7696	2763.22	1787.7	899.65
1002.8901	2764.4182	1794.9	910.4
1003.0106	2765.6158	1786.8	903.4
1003.131	2766.8127	1777.05	893.2
1003.2514	2768.009	1772.25	889.55
1003.3717	2769.2045	1776.35	892.3
1003.492	2770.3994	1768.1	883.6
1003.6123	2771.5936	1774.9	891.7
1003.7325	2772.7872	1761.25	878.1
1003.8527	2773.9801	1753.1	870.3
1003.9729	2775.1723	1776.55	877.15
1004.093	2776.3639	1754.55	872.75
1004.2131	2777.5548	1751.4	866.65
1004.3331	2778.745	1757.55	875.5
1004.4531	2779.9346	1754.35	874.35
1004.5731	2781.1235	1757.35	873.55
1004.693	2782.3117	1755.35	873.05
1004.8129	2783.4992	1751.7	870.55
1004.9328	2784.6861	1756.65	873.95
1005.0526	2785.8723	1760.75	878.25
1005.1723	2787.0579	1769.7	887.75
1005.2921	2788.2428	1767.55	883.5
1005.4118	2789.427	1772.6	891.5
1005.5314	2790.6106	1781.6	898.3
1005.651	2791.7935	1790.65	909.25
1005.7706	2792.9757	1798.8	916.75
1005.8902	2794.1573	1802.7	917.35
1006.0097	2795.3382	1817.65	933.8
1006.1291	2796.5184	1825.35	944.65
1006.2485	2797.698	1836.7	952.5
1006.3679	2798.8769	1849.3	967.05
1006.4873	2800.0551	1872.6	990
1006.6066	2801.2327	1884.8	999.5
1006.7258	2802.4096	1909.3	1028.7
1006.8451	2803.5859	1926	1042.15
1006.9642	2804.7615	1932.85	1048.8
1007.0834	2805.9364	1952.15	1073.6
1007.2025	2807.1106	1975.9	1094.8
1007.3216	2808.2842	1998.5	1116.05
1007.4406	2809.4572	2036.2	1153.1
1007.5596	2810.6294	2072.2	1189.15
1007.6785	2811.801	2107.5	1227.75
1007.7975	2812.972	2147	1265.1
1007.9163	2814.1423	2184.4	1302.85
1008.0352	2815.3119	2233.15	1348.1
1008.154	2816.4808	2273.7	1391.05
1008.2727	2817.6491	2335.05	1453.4
1008.3914	2818.8167	2371.15	1489.15
1008.5101	2819.9837	2422.25	1535.05
1008.6288	2821.15	2475.9	1592.55
1008.7474	2822.3157	2508.1	1628.75
1008.8659	2823.4807	2572.75	1689.15
1008.9844	2824.645	2607.2	1724.9
1009.1029	2825.8086	2647.5	1764.05
1009.2214	2826.9716	2690.15	1809.8
1009.3398	2828.134	2726.85	1843.55
1009.4581	2829.2957	2768.85	1887.2
1009.5764	2830.4567	2801.3	1921.3
1009.6947	2831.617	2822.85	1940
1009.813	2832.7767	2824.85	1945.8
1009.9312	2833.9358	2832.75	1953.1
1010.0493	2835.0941	2822.6	1940
1010.1675	2836.2519	2814.6	1933.3
1010.2855	2837.4089	2796.1	1913.4
1010.4036	2838.5653	2798.65	1917.85
1010.5216	2839.7211	2791.65	1911.25
1010.6396	2840.8761	2788.85	1906.2
1010.7575	2842.0306	2813.7	1933.75
1010.8754	2843.1843	2855.65	1973.5
1010.9932	2844.3374	2892.65	2010.5
1011.111	2845.4899	2956.45	2074.65
1011.2288	2846.6417	3021.25	2140.55
1011.3465	2847.7928	3087.9	2207.55
1011.4642	2848.9433	3158.2	2278.45
1011.5818	2850.0931	3234	2352.1
1011.6995	2851.2422	3319.85	2436.9
1011.817	2852.3907	3391.1	2507.75
1011.9345	2853.5385	3446.05	2561.4
1012.052	2854.6857	3514.15	2608.45
1012.1695	2855.8323	3538.4	2656
1012.2869	2856.9781	3585.6	2705.5
1012.4042	2858.1233	3644.55	2764.15
1012.5216	2859.2679	3684.2	2804.9
1012.6389	2860.4118	3729	2849.5
1012.7561	2861.555	3775.9	2890.45
1012.8733	2862.6976	3808.5	2927.2
1012.9905	2863.8395	3837.45	2956.3
1013.1076	2864.9808	3854.85	2973.4
1013.2247	2866.1214	3860.9	2980.5
1013.3417	2867.2614	3872.95	2989.75
1013.4587	2868.4007	3882.2	2998.75
1013.5757	2869.5393	3914.3	3030.6
1013.6926	2870.6773	3918.95	3035.8
1013.8095	2871.8146	3930.05	3044.75
1013.9263	2872.9513	3934.15	3049.75
1014.0431	2874.0874	3922.95	3042.65
1014.1599	2875.2227	3912.75	3030.45
1014.2766	2876.3574	3898.5	3018.85
1014.3933	2877.4915	3872.45	2992
1014.51	2878.6249	3838.55	2959.15
1014.6266	2879.7577	3817.2	2934.85
1014.7431	2880.8898	3813.35	2922.25
1014.8596	2882.0212	3795.4	2916.95
1014.9761	2883.152	3774.9	2894.5
1015.0925	2884.2821	3761.9	2881.2
1015.2089	2885.4116	3750.9	2870
1015.3253	2886.5405	3753.45	2872.75
1015.4416	2887.6686	3759.6	2875.25
1015.5579	2888.7962	3743.25	2863.05
1015.6741	2889.923	3765.45	2886.05
1015.7903	2891.0493	3769.85	2890.2
1015.9065	2892.1748	3767.5	2886.8
1016.0226	2893.2997	3795	2913.65
1016.1387	2894.424	3810.6	2931.85
1016.2547	2895.5476	3834.65	2955.45
1016.3707	2896.6706	3856.45	2977.55
1016.4866	2897.7929	3877.4	2996.5
1016.6025	2898.9145	3886.45	3006.8
1016.7184	2900.0355	3927.75	3047.5
1016.8342	2901.1559	3950.9	3069.9
1016.95	2902.2756	3997.2	3117.15
1017.0658	2903.3946	4022.25	3142.35
1017.1815	2904.513	4050.05	3168.05
1017.2971	2905.6308	4084.65	3205.15
1017.4127	2906.7479	4103.1	3222.9
1017.5283	2907.8643	4127.85	3248.05
1017.6439	2908.9801	4128.35	3247.25
1017.7594	2910.0953	4137.15	3256.75
1017.8748	2911.2098	4130.5	3245.55
1017.9902	2912.3236	4129.8	3242.75
1018.1056	2913.4368	4126.4	3241.25
1018.2209	2914.5494	4090	3208.55
1018.3362	2915.6613	4071.9	3186.5
1018.4515	2916.7725	4035.6	3153.35
1018.5667	2917.8831	4018.35	3137.95
1018.6819	2918.9931	3979.65	3097.75
1018.797	2920.1024	3946.5	3064.05
1018.9121	2921.211	3926.4	3048.1
1019.0271	2922.319	3904.4	3026.6
1019.1421	2923.4264	3882.45	3006.85
1019.2571	2924.5331	3891.1	3012.55
1019.372	2925.6391	3868.05	2990.25
1019.4869	2926.7445	3858.95	2979.75
1019.6017	2927.8493	3852.4	2972.8
1019.7165	2928.9534	3851.8	2971.3
1019.8313	2930.0569	3849.85	2968.6
1019.946	2931.1597	3838.55	2957.8
1020.0606	2932.2619	3814.55	2937
1020.1753	2933.3634	3807.15	2929.5
1020.2899	2934.4643	3816.85	2928.4
1020.4044	2935.5645	3804.8	2920.7
1020.5189	2936.6641	3760	2876.25
1020.6334	2937.763	3709.5	2831.45
1020.7478	2938.8613	3666.65	2787.85
1020.8622	2939.959	3625.8	2740.75
1020.9765	2941.056	3538.4	2659.3
1021.0908	2942.1523	3439.3	2557.75
1021.2051	2943.248	3380.65	2501.2
1021.3193	2944.3431	3272.25	2393.05
1021.4334	2945.4375	3168.7	2288
1021.5476	2946.5313	3083.25	2204.75
1021.6617	2947.6244	2968.55	2087.6
1021.7757	2948.7169	2862.8	1984
1021.8897	2949.8087	2778.4	1899.05
1022.0037	2950.8999	2685.5	1805.2
1022.1176	2951.9904	2604.15	1726.3
1022.2315	2953.0803	2534.05	1657.65
1022.3453	2954.1696	2461.95	1583.2
1022.4591	2955.2582	2406.65	1528.6
1022.5728	2956.3462	2376.65	1498.35
1022.6865	2957.4335	2334.55	1454.9
1022.8002	2958.5202	2293.15	1412.35
1022.9138	2959.6062	2273.85	1395.75
1023.0274	2960.6916	2245.95	1366.7
1023.141	2961.7764	2220.65	1341.1
1023.2545	2962.8605	2210.1	1331.05
1023.3679	2963.9439	2190.65	1311.45
1023.4813	2965.0267	2183	1302.8
1023.5947	2966.1089	2191	1290.1
1023.708	2967.1905	2166.4	1289.9
1023.8213	2968.2714	2168	1291.2
1023.9346	2969.3516	2166.25	1288.75
1024.0478	2970.4312	2168.6	1281.05
1024.1609	2971.5102	2172.6	1294.35
1024.274	2972.5885	2159.65	1281.6
1024.3871	2973.6662	2168.95	1282.5
1024.5002	2974.7432	2155.8	1278
1024.6132	2975.8196	2141.7	1261.95
1024.7261	2976.8954	2136.65	1259.7
1024.839	2977.9705	2115.5	1238.6
1024.9519	2979.045	2104.35	1229.1
1025.0647	2980.1188	2092.75	1214.3
1025.1775	2981.192	2073.95	1197.2
1025.2902	2982.2645	2054.85	1176.55
1025.4029	2983.3364	2031.1	1152.15
1025.5156	2984.4077	2004.65	1128.05
1025.6282	2985.4783	1978.35	1092.65
1025.7407	2986.5483	1939.05	1063.5
1025.8532	2987.6177	1905	1026.5
1025.9657	2988.6864	1861.9	983.55
1026.0782	2989.7545	1840.7	962.3
1026.1906	2990.8219	1801.1	923.15
1026.3029	2991.8887	1773.2	892.3
1026.4152	2992.9548	1749.25	872.15
1026.5275	2994.0204	1705.8	828.2
1026.6397	2995.0852	1673.4	796.95
1026.7519	2996.1495	1646.4	766.35
1026.864	2997.2131	1632.1	753.65
1026.9761	2998.276	1608.9	729.9
1027.0882	2999.3383	1586.1	708.75
1027.2002	3000.4	1569.5	691.25
1027.3122	3001.4611	1557.8	678.75
1027.4241	3002.5215	1529.3	649.6
1027.536	3003.5812	1521.6	645.95
1027.6478	3004.6404	1513.1	636.6
1027.7596	3005.6989	1498.45	618.7
1027.8714	3006.7567	1497.35	620.8
1027.9831	3007.8139	1515.15	606.25
1028.0947	3008.8705	1465.75	586.35
1028.2064	3009.9264	1470.75	588.7
1028.3179	3010.9818	1464.35	586.5
1028.4295	3012.0364	1456.3	577.2
1028.541	3013.0905	1448.3	567.8
1028.6524	3014.1439	1452.05	574.2
1028.7638	3015.1966	1447.4	569.5
1028.8752	3016.2487	1438.25	562.4
1028.9865	3017.3002	1450.05	566.6
1029.0978	3018.3511	1448.6	571.45
1029.209	3019.4013	1444.9	565.3
1029.3202	3020.4509	1436.25	558.5
1029.4314	3021.4998	1437.25	558.75
1029.5425	3022.5481	1430.35	552.75
1029.6535	3023.5958	1443.1	565
1029.7645	3024.6428	1433.1	553.55
1029.8755	3025.6892	1438.9	561.5
1029.9864	3026.735	1438.65	559.3
1030.0973	3027.7802	1439.9	563.2
1030.2082	3028.8247	1446.25	567.15
1030.319	3029.8685	1445.15	567.95
1030.4297	3030.9118	1450.5	571.55
1030.5404	3031.9544	1444.3	568.75
1030.6511	3032.9963	1454.05	577
1030.7617	3034.0376	1453.35	577.05
1030.8723	3035.0783	1460.15	580.65
1030.9829	3036.1184	1461.1	584
1031.0934	3037.1578	1461.65	585.35
1031.2038	3038.1966	1465.65	585.25
1031.3142	3039.2348	1465.45	589.45
1031.4246	3040.2723	1477.45	590.1
1031.5349	3041.3092	1461.9	585.75
1031.6452	3042.3455	1464.55	586.05
1031.7554	3043.3811	1465.75	585.65
1031.8656	3044.4161	1457.2	578.2
1031.9758	3045.4505	1452	573.55
1032.0859	3046.4842	1442.45	565.5
1032.1959	3047.5173	1434.1	556.95
1032.3059	3048.5498	1432.55	554.15
1032.4159	3049.5816	1420.6	542.75
1032.5258	3050.6128	1416.85	539.1
1032.6357	3051.6434	1412.3	534.15
1032.7455	3052.6734	1410.1	530
1032.8553	3053.7027	1400.35	523.05
1032.9651	3054.7314	1396.5	521.05
1033.0748	3055.7594	1387.9	512.25
1033.1845	3056.7868	1387.45	510.15
1033.2941	3057.8136	1380.15	503.05
1033.4037	3058.8398	1376.15	499.3
1033.5132	3059.8653	1366.45	489.9
1033.6227	3060.8902	1368.15	490.95
1033.7321	3061.9145	1360.15	484.1
1033.8415	3062.9381	1352.05	474.7
1033.9509	3063.9612	1355.95	462.4
1034.0602	3064.9835	1338.7	463.3
1034.1694	3066.0053	1330.55	450.35
1034.2787	3067.0264	1327.45	450.1
1034.3878	3068.0469	1320.4	442.7
1034.497	3069.0668	1316.25	436.65
1034.6061	3070.086	1307.75	431.9
1034.7151	3071.1046	1298.6	420.2
1034.8241	3072.1226	1282.9	404.55
1034.9331	3073.1399	1281.3	403.55
1035.042	3074.1567	1267.85	390.75
1035.1508	3075.1727	1269.15	391.5
1035.2597	3076.1882	1254.5	379.5
1035.3684	3077.203	1247.45	371.2
1035.4772	3078.2173	1237.85	358.7
1035.5859	3079.2308	1237	358.4
1035.6945	3080.2438	1226.75	346.9
1035.8031	3081.2561	1213.45	336.45
1035.9117	3082.2678	1206	328.25
1036.0202	3083.2789	1195.7	318.8
1036.1286	3084.2893	1190.7	313.55
1036.2371	3085.2991	1191.55	312.65
1036.3454	3086.3083	1188.85	307.55
1036.4538	3087.3169	1176.1	299.2
1036.562	3088.3248	1175.1	296.4
1036.6703	3089.3321	1168.05	290.7
1036.7785	3090.3388	1161.95	285.35
1036.8866	3091.3449	1161.6	284.35
1036.9948	3092.3503	1160.8	282.75
1037.1028	3093.3551	1145.9	270.75
1037.2108	3094.3593	1140.55	266.25
1037.3188	3095.3629	1142.9	267.05
1037.4267	3096.3658	1139.35	261.05
1037.5346	3097.3681	1139.6	262.5
1037.6425	3098.3698	1137.9	258.6
1037.7503	3099.3708	1133.5	250.5
1037.858	3100.3713	1123.25	247.9
1037.9657	3101.3711	1124.4	247.45
1038.0734	3102.3702	1239.85	243.25
1038.181	3103.3688	1120.1	240.1
1038.2886	3104.3667	1121.85	246.9
1038.3961	3105.364	1120.4	243.25
1038.5036	3106.3607	1115.8	236.5
1038.611	3107.3568	1112.2	234.7
1038.7184	3108.3522	1110.7	235.55
1038.8257	3109.347	1105.9	229.4
1038.933	3110.3412	1107.6	226.9
1039.0403	3111.3348	1102	224.4
1039.1475	3112.3277	1096.8	220.75
1039.2547	3113.32	1094.25	219.85
1039.3618	3114.3117	1097.55	222.3
1039.4689	3115.3028	1097	220.5
1039.5759	3116.2932	1098.85	220.7
1039.6829	3117.2831	1095.1	215.4
1039.7898	3118.2723	1089.3	215.05
1039.8967	3119.2608	1090.25	214.15
1040.0035	3120.2488	1084.8	208.15
1040.1103	3121.2361	1083.55	207.05
1040.2171	3122.2229	1077.6	202
1040.3238	3123.209	1085.65	208.35
1040.4305	3124.1944	1077.25	200.45
1040.5371	3125.1793	1073.05	194.5
1040.6437	3126.1635	1074.35	198.1
1040.7502	3127.1471	1071.8	195.15
1040.8567	3128.1301	1074	199.35
1040.9631	3129.1125	1073.05	198.1
1041.0695	3130.0942	1069.75	192.8
1041.1759	3131.0753	1075.2	191.8
1041.2822	3132.0558	1072.7	196.6
1041.3884	3133.0357	1066.2	189.05
1041.4946	3134.015	1065.5	187.3
1041.6008	3134.9936	1064.65	188.95
1041.7069	3135.9716	1085.85	186.1
1041.813	3136.949	1064.6	189.85
1041.919	3137.9258	1074.6	179.8
1042.025	3138.902	1064.95	186.1
1042.1309	3139.8775	1058.85	183.75
1042.2368	3140.8524	1050.4	175.25
1042.3427	3141.8267	1058.15	181.1
1042.4485	3142.8004	1054.5	178.35
1042.5542	3143.7735	1057.55	174.9
1042.6599	3144.7459	1055.6	177.65
1042.7656	3145.7178	1053.4	176.15
1042.8712	3146.689	1047.25	173.35
1042.9768	3147.6596	1048.65	171.2
1043.0823	3148.6295	1047.2	172.25
1043.1878	3149.5989	1041.95	166.5
1043.2932	3150.5676	1039.8	163.75
1043.3986	3151.5357	1041.65	166.15
1043.5039	3152.5032	1039.6	164.7
1043.6092	3153.4701	1036.85	160.95
1043.7145	3154.4364	1039.45	161.25
1043.8197	3155.402	1039.1	162.6
1043.9248	3156.367	1037.4	158.65
1044.03	3157.3315	1059.25	158.4
1044.135	3158.2952	1030.85	156.65
1044.24	3159.2584	1027.55	152.95
1044.345	3160.221	1032.15	157.25
1044.4499	3161.1829	1029.3	154.2
1044.5548	3162.1442	1028.9	154.45
1044.6596	3163.105	1029.9	156.75
1044.7644	3164.065	1028.6	153.4
1044.8692	3165.0245	1024.6	147
1044.9739	3165.9834	1021.75	148.85
1045.0785	3166.9416	1022.1	146.75
1045.1831	3167.8993	1021.4	146.6
1045.2877	3168.8563	1024.8	148.65
1045.3922	3169.8127	1021.5	145
1045.4966	3170.7684	1017.55	142.3
1045.6011	3171.7236	1020.85	143.9
1045.7054	3172.6782	1015.9	139.95
1045.8098	3173.6321	1014.95	139.2
1045.914	3174.5854	1019.7	140.35
1046.0183	3175.5381	1014.85	139
1046.1224	3176.4902	1015.2	141.8
1046.2266	3177.4417	1010.25	135.55
1046.3307	3178.3926	1009.15	134.9
1046.4347	3179.3428	1010.35	135.35
1046.5387	3180.2924	1011.4	137.45
1046.6427	3181.2415	1007.05	130.95
1046.7466	3182.1899	1010.8	133.8
1046.8504	3183.1377	1008	134.65
1046.9542	3184.0848	1012.1	134.35
1047.058	3185.0314	1005.65	130.95
1047.1617	3185.9773	1006.6	130.5
1047.2654	3186.9227	1002.2	125.8
1047.369	3187.8674	1004.7	129.3
1047.4726	3188.8115	1005.2	128.4
1047.5761	3189.755	1000.3	126.95
1047.6796	3190.6979	1002.75	127.75
1047.783	3191.6402	998.45	123.7
1047.8864	3192.5818	1000.65	125
1047.9898	3193.5229	1006.5	127.45
1048.0931	3194.4633	998.25	122.2
1048.1963	3195.4031	999.85	124.85
1048.2995	3196.3423	996.95	119.6
1048.4027	3197.2809	999.15	123.6
1048.5058	3198.2189	994.15	120.45
1048.6089	3199.1563	1011.65	123.15
1048.7119	3200.0931	992.05	119.95
1048.8148	3201.0292	989.6	115.6
1048.9178	3201.9648	993.6	120.35
1049.0206	3202.8997	995.1	117.15
1049.1235	3203.834	993.75	118.45
1049.2262	3204.7677	992.85	119.85
1049.329	3205.7008	996.5	121.4
1049.4317	3206.6333	989	114.5
1049.5343	3207.5652	987.15	111
1049.6369	3208.4964	986.25	110.5
1049.7394	3209.4271	980.9	107.75
1049.8419	3210.3571	984.75	108.55
1049.9444	3211.2865	984.05	107
1050.0468	3212.2154	991.15	118.2
1050.1491	3213.1436	986.55	107.8
1050.2514	3214.0712	989.35	109.6
1050.3537	3214.9982	986.15	110.1
1050.4559	3215.9246	980.7	106.9
1050.5581	3216.8503	982.15	108.75
1050.6602	3217.7755	983.9	109.6
1050.7623	3218.7001	981.25	106.8
1050.8643	3219.624	980.85	106.05
1050.9663	3220.5473	977.3	102.85
1051.0682	3221.4701	977.95	101.85
1051.1701	3222.3922	983.7	106
1051.2719	3223.3137	976.3	102.3
1051.3737	3224.2346	977.7	103
1051.4754	3225.1549	979.45	103.6
1051.5771	3226.0746	980	105.35
1051.6788	3226.9937	976.3	101.75
1051.7804	3227.9121	970.5	96.4
1051.8819	3228.83	977.45	103.35
1051.9834	3229.7473	973.5	100.5
1052.0849	3230.6639	974.4	100.75
1052.1863	3231.5799	975.8	100.45
1052.2876	3232.4954	976.65	99.5
1052.3889	3233.4102	972.45	97.9
1052.4902	3234.3244	972.25	97.05
1052.5914	3235.238	971.8	96.55
1052.6926	3236.151	985.2	95.75
1052.7937	3237.0634	971.55	99.3
1052.8948	3237.9752	972.25	97.4
1052.9958	3238.8864	969.65	94.65
1053.0968	3239.797	967.95	93.65
1053.1977	3240.7069	965.35	89.45
1053.2986	3241.6163	969.65	93.75
1053.3994	3242.5251	963.5	90.4
1053.5002	3243.4332	962.05	90.4
1053.6009	3244.3408	966.3	92.1
1053.7016	3245.2477	963.85	90
1053.8022	3246.154	963.7	89.1
1053.9028	3247.0598	965.3	91
1054.0034	3247.9649	962.2	88.25
1054.1039	3248.8694	959.3	83.5
1054.2043	3249.7733	962.9	88
1054.3047	3250.6766	959.55	87
1054.4051	3251.5793	960.65	85.4
1054.5054	3252.4814	959.4	86.2
1054.6056	3253.3829	958.15	83.95
1054.7058	3254.2838	957.5	84.7
1054.806	3255.1841	958.75	84.05
1054.9061	3256.0838	956.4	81.8
1055.0061	3256.9829	952	78.15
1055.1062	3257.8814	956.2	80.6
1055.2061	3258.7792	954.45	77.55
1055.306	3259.6765	952.65	77.85
1055.4059	3260.5731	949.1	75.95
1055.5057	3261.4692	948.65	73.55
1055.6055	3262.3647	948.85	74.55
1055.7052	3263.2595	947	72.55
1055.8049	3264.1538	944.45	72.3
1055.9045	3265.0474	947.65	72.8
1056.0041	3265.9404	945.05	72.15
1056.1036	3266.8329	942.85	70.15
1056.2031	3267.7247	954.65	71.8
1056.3025	3268.616	940.9	70.1
1056.4019	3269.5066	939.25	65.4
1056.5013	3270.3966	938.75	64.55
1056.6005	3271.286	934.3	59.9
