Software Version:	3.9.2.0
Unit SN:	10000200
Spectrometer SN:	6960
Date:	3/8/2024 1:43:04 PM
Data Line Index:	25
Spectral Points:	2048
Integration time (ms):	125
Averages:	20
Delay (ms):	30000
Sequence Number:	1
Processing:	dark subtract
Laser Power (mW):	305
Laser Current (mA):	823
Laser Diode Temp (C):	25.1
Laser Case Temp (C):	26.3
System Temp (C):	26.3
Spectrometer Temp (C):	24.1
CCD Temp (C):	0.009
Secondary Temp (C):	20.01
Heatsink Temp (C):	21.372
CCDPCB Temp (C):	36.296
SecondaryPCB Temp (C):	30.471

Wavelength	RamanShift	Raw Counts	Dark Subtracted
787.061	30.1047	467.35	60
787.2016	32.3739	467.8	64.25
787.3422	34.6426	473.8	69.5
787.4828	36.9109	478.05	70.15
787.6235	39.1787	488.1	75.6
787.7642	41.4461	499.75	81.7
787.9049	43.7131	509.45	89
788.0456	45.9796	517.15	94.35
788.1863	48.2456	524.35	95.2
788.3271	50.5112	539.55	110.1
788.4679	52.7764	541.55	107.55
788.6087	55.0411	558.05	119.25
788.7496	57.3054	572.55	126.2
788.8904	59.5692	581.8	135.55
789.0313	61.8326	590.15	140.8
789.1722	64.0955	605.05	153.7
789.3132	66.3579	620.7	164.15
789.4541	68.6199	642.15	177.6
789.5951	70.8815	683.95	218.05
789.7361	73.1426	765.6	295.4
789.8771	75.4032	987.2	513.2
790.0181	77.6634	1520.7	1040.6
790.1592	79.9231	2776.5	2289.2
790.3003	82.1824	5555.75	5050.8
790.4414	84.4412	10531.05	9997.5
790.5825	86.6995	17438.85	16868.2
790.7237	88.9574	24156.6	23550.55
790.8648	91.2148	28847.1	28217.65
791.006	93.4717	30998.6	30352.85
791.1472	95.7282	31480.9	30828.7
791.2885	97.9842	31482.8	30829.4
791.4297	100.2398	30939.15	30280.75
791.571	102.4949	30364	29701.55
791.7123	104.7495	29599.8	28933.9
791.8536	107.0036	28815.45	28154.6
791.9949	109.2573	28082.45	27418.25
792.1363	111.5105	27377	26707.65
792.2777	113.7632	26657.05	25987.55
792.4191	116.0154	26103.6	25421.1
792.5605	118.2672	25677	24997.55
792.7019	120.5185	25215.05	24537.95
792.8434	122.7693	24889	24212.15
792.9849	125.0197	24589.55	23909.55
793.1264	127.2696	24373.9	23686.2
793.2679	129.519	24252.55	23563.65
793.4094	131.7679	24057.2	23362.55
793.551	134.0163	23879.4	23178.65
793.6926	136.2642	23668.05	22972.05
793.8342	138.5117	23479.95	22778.55
793.9758	140.7587	23228.3	22524.1
794.1175	143.0052	23032.6	22325.35
794.2591	145.2512	22811.95	22105.7
794.4008	147.4967	22609.95	21904
794.5425	149.7417	22462.05	21750.55
794.6842	151.9863	22343.1	21622.5
794.826	154.2304	22263.5	21547.35
794.9677	156.4739	22098.05	21373.3
795.1095	158.717	22116.75	21395.35
795.2513	160.9596	21980.7	21251.15
795.3931	163.2017	21732.35	21002.2
795.535	165.4433	21462.3	20727.4
795.6768	167.6844	21110.85	20374.6
795.8187	169.925	20841.65	20103.55
795.9606	172.1651	20467.85	19733.15
796.1025	174.4047	20186.25	19444.3
796.2445	176.6439	19939.5	19196.2
796.3864	178.8825	19747	19001.55
796.5284	181.1206	19613.45	18859.45
796.6704	183.3582	19450.6	18694.35
796.8124	185.5954	19347.6	18590.5
796.9544	187.832	19291.9	18530.65
797.0965	190.0681	19280.5	18518.75
797.2386	192.3037	19282.75	18514
797.3806	194.5388	19326.65	18553.4
797.5228	196.7734	19394.25	18622.25
797.6649	199.0075	19449.1	18672.15
797.807	201.2411	19640.4	18864.7
797.9492	203.4742	19696.6	18918.4
798.0914	205.7068	19914.95	19128.3
798.2336	207.9389	19987.95	19207
798.3758	210.1704	20170.7	19387.8
798.518	212.4015	20299.3	19532.95
798.6603	214.632	20495.9	19735.1
798.8025	216.862	20723.1	19966.95
798.9448	219.0915	20839.55	20078.35
799.0871	221.3205	21115.15	20349.9
799.2294	223.549	21336.25	20574.65
799.3718	225.777	21606.5	20846.25
799.5141	228.0044	21967.8	21200.3
799.6565	230.2314	22448.2	21683.45
799.7989	232.4578	22831.7	22062.95
799.9413	234.6837	23174	22394.9
800.0837	236.909	23401.9	22621.25
800.2262	239.1339	23408.75	22597.8
800.3687	241.3582	23240.15	22447.65
800.5111	243.582	22941.35	22121.25
800.6536	245.8053	22648.2	21839.05
800.7961	248.0281	22337.65	21536.65
800.9387	250.2503	22135.3	21328
801.0812	252.472	22064.05	21255.8
801.2238	254.6932	22054.25	21246.35
801.3664	256.9139	21980.9	21171.05
801.509	259.134	21998.75	21184.2
801.6516	261.3536	22023.55	21208.4
801.7942	263.5727	22161.65	21346.9
801.9369	265.7912	22115.3	21300.85
802.0795	268.0092	22227.95	21416.5
802.2222	270.2267	22210.55	21399.5
802.3649	272.4436	22190.65	21374.45
802.5076	274.6601	22150.95	21323.65
802.6504	276.8759	22079.35	21261.4
802.7931	279.0913	22058.35	21237.6
802.9359	281.3061	22056.65	21234.55
803.0787	283.5204	22125.2	21297.45
803.2215	285.7341	22206.25	21377.85
803.3643	287.9473	22358.1	21516.15
803.5071	290.16	22581.05	21750.1
803.6499	292.3721	22880.5	22053.4
803.7928	294.5837	23305.85	22476.5
803.9357	296.7947	23631.95	22803.2
804.0786	299.0052	23839.3	23009.75
804.2215	301.2152	23746.65	22913
804.3644	303.4246	23412.6	22583.85
804.5074	305.6334	22905.55	22077.65
804.6503	307.8418	22406.3	21576.1
804.7933	310.0495	22035.95	21202.15
804.9363	312.2568	21700.3	20867.2
805.0793	314.4635	21474.45	20636.45
805.2223	316.6696	21360.5	20519.35
805.3653	318.8752	21315	20469.9
805.5084	321.0802	21347.55	20509.55
805.6514	323.2847	21499.35	20657.1
805.7945	325.4887	21562.05	20715.8
805.9376	327.692	21492.7	20646.65
806.0807	329.8949	21436.9	20591.75
806.2238	332.0972	21168.3	20321.65
806.367	334.2989	20926.6	20078.1
806.5101	336.5001	20642.55	19790.7
806.6533	338.7007	20469.7	19622.2
806.7965	340.9008	20393.75	19542.4
806.9397	343.1003	20275.85	19422.45
807.0829	345.2992	20235	19385.45
807.2261	347.4976	20193.45	19340
807.3693	349.6955	20182.1	19325
807.5126	351.8927	20306.1	19446.3
807.6559	354.0895	20286.95	19413.9
807.7991	356.2856	20345.15	19488.75
807.9424	358.4812	20339.2	19478.3
808.0857	360.6763	20381.1	19514.7
808.2291	362.8707	20354.7	19491.75
808.3724	365.0646	20443.35	19574.6
808.5158	367.258	20414.8	19546.25
808.6591	369.4508	20462.05	19590.7
808.8025	371.643	20586.35	19710.7
808.9459	373.8346	20578.5	19704.05
809.0893	376.0257	20586.3	19707.8
809.2327	378.2162	20515.4	19640
809.3762	380.4062	20462.9	19589.2
809.5196	382.5956	20330.8	19458.65
809.6631	384.7844	20239.95	19374.15
809.8066	386.9726	20125.8	19261.1
809.9501	389.1603	20085.7	19220.7
810.0936	391.3474	20082.65	19182.5
810.2371	393.5339	20045.65	19180.15
810.3806	395.7199	20002.35	19136.5
810.5241	397.9052	20039.05	19172.6
810.6677	400.09	20074.1	19204.25
810.8113	402.2743	20160.95	19293.25
810.9548	404.4579	20233.35	19365.8
811.0984	406.641	20444.55	19570.2
811.2421	408.8235	20671.75	19801.85
811.3857	411.0054	20973.3	20099.4
811.5293	413.1868	21416.6	20543.05
811.673	415.3675	21684.75	20804.6
811.8166	417.5477	21889.1	21009.9
811.9603	419.7273	21923.9	21043.2
812.104	421.9064	21814	20925
812.2477	424.0848	21710.85	20828
812.3914	426.2627	21477.35	20596.1
812.5351	428.4399	21232.9	20347.9
812.6788	430.6166	20904.15	20017.8
812.8226	432.7928	20547	19659.95
812.9663	434.9683	20248.65	19363.45
813.1101	437.1432	20017.75	19132.8
813.2539	439.3176	19855.75	18977.75
813.3977	441.4914	19713.1	18838
813.5415	443.6645	19693.4	18812.4
813.6853	445.8371	19650.7	18767
813.8291	448.0091	19609.15	18722.85
813.973	450.1806	19588.95	18706.05
814.1168	452.3514	19521.15	18642.85
814.2607	454.5216	19559.1	18662.1
814.4046	456.6913	19463.35	18578.25
814.5485	458.8603	19525.2	18643.65
814.6924	461.0288	19613.4	18736.6
814.8363	463.1967	19622.15	18750.7
814.9802	465.3639	19770.15	18893.25
815.1241	467.5306	19855.5	18974.5
815.2681	469.6967	19978	19101.15
815.412	471.8622	20086.1	19209.1
815.556	474.0271	20268.2	19390.4
815.7	476.1914	20368.55	19484.2
815.844	478.3551	20351.75	19464.65
815.988	480.5182	20385.5	19503.1
816.132	482.6807	20440.7	19565.7
816.276	484.8426	20482.95	19617.2
816.4201	487.0039	20819.65	19943.5
816.5641	489.1647	21259.3	20377.95
816.7082	491.3248	21676.85	20791.3
816.8522	493.4843	21831.3	20951.25
816.9963	495.6432	21841.95	20960
817.1404	497.8015	21751	20858.8
817.2845	499.9592	21769.35	20872.95
817.4286	502.1163	21713.8	20817.1
817.5727	504.2728	21440.95	20552.9
817.7168	506.4287	21193.85	20317.1
817.861	508.5839	20785.6	19906.1
818.0051	510.7386	20476.35	19591.45
818.1493	512.8927	20323.05	19426.2
818.2935	515.0461	20252.15	19359.6
818.4377	517.199	20252.5	19356.85
818.5818	519.3512	20244.15	19350.7
818.726	521.5029	20365.9	19467.05
818.8703	523.6539	20472.25	19576.25
819.0145	525.8043	20476.9	19580.6
819.1587	527.9541	20501.7	19604.45
819.303	530.1033	20496.55	19601.6
819.4472	532.2519	20537.8	19639.6
819.5915	534.3999	20642.05	19743.55
819.7357	536.5472	20909.65	20013.1
819.88	538.694	21363.1	20473.85
820.0243	540.8401	21949.5	21050
820.1686	542.9856	22423.75	21512.8
820.3129	545.1305	22556.65	21643.8
820.4572	547.2748	22461.95	21549.25
820.6016	549.4185	22084.55	21165.6
820.7459	551.5615	21791.35	20878.4
820.8902	553.704	21681.1	20766.55
821.0346	555.8458	21641.95	20738.75
821.1789	557.987	21667.55	20761
821.3233	560.1276	21717.6	20810.7
821.4677	562.2675	21782.9	20874.8
821.6121	564.4069	21884.6	20976.55
821.7565	566.5456	21925.35	21022.2
821.9009	568.6837	21923.15	21023.55
822.0453	570.8212	21605.1	20703.85
822.1897	572.958	21273.1	20370
822.3342	575.0942	20931.1	20032.05
822.4786	577.2299	20708.6	19814.05
822.6231	579.3648	20644.4	19760.05
822.7675	581.4992	20706.4	19831.2
822.912	583.6329	20899.35	20026.2
823.0565	585.766	21099.05	20216.6
823.201	587.8985	21220.85	20333.3
823.3454	590.0304	21247	20327.15
823.4899	592.1616	21201.65	20297.85
823.6345	594.2922	21139.9	20234
823.779	596.4222	20924.55	20008.95
823.9235	598.5515	20787	19871.5
824.068	600.6802	20643.55	19729.7
824.2126	602.8083	20452.15	19543.25
824.3571	604.9358	20454.85	19544.3
824.5017	607.0626	20387.3	19474.25
824.6462	609.1888	20398.9	19481.5
824.7908	611.3144	20383.25	19464.1
824.9354	613.4393	20256.25	19338.9
825.08	615.5636	20205.2	19285.5
825.2246	617.6873	20129.1	19217.75
825.3692	619.8103	20108.5	19189.35
825.5138	621.9327	20011.45	19098.55
825.6584	624.0544	19920.65	19008.6
825.803	626.1756	19921.05	19009.5
825.9477	628.2961	19895.7	18980.8
826.0923	630.4159	19852.5	18935.6
826.237	632.5351	19817.55	18898.2
826.3816	634.6537	19782.8	18867.15
826.5263	636.7716	19796.4	18876.6
826.6709	638.8889	19824.4	18897.9
826.8156	641.0056	19886.2	18959
826.9603	643.1216	19859.25	18936.35
827.105	645.237	19888.65	18968.75
827.2497	647.3518	19841.6	18927.9
827.3944	649.4659	19903.75	18994.85
827.5391	651.5793	19870.9	18963.55
827.6838	653.6922	19885.65	18971.15
827.8285	655.8043	19862.35	18949.4
827.9733	657.9159	19909.45	18994.1
828.118	660.0268	19786.4	18872.95
828.2627	662.137	19756.95	18836.2
828.4075	664.2466	19790.4	18866.6
828.5522	666.3556	19767.85	18844.85
828.697	668.4639	19743.3	18827.4
828.8418	670.5716	19786	18870.9
828.9865	672.6786	19862.15	18944.9
829.1313	674.785	19900.85	18978.5
829.2761	676.8907	19945.2	19025.35
829.4209	678.9958	20072.1	19156.55
829.5657	681.1002	20042.75	19121.8
829.7105	683.204	20036.75	19110.85
829.8553	685.3072	19987.15	19059.5
830.0001	687.4097	19927	19003.05
830.1449	689.5115	19935.25	19009.85
830.2898	691.6127	19900.65	18975.9
830.4346	693.7132	19838.85	18922.4
830.5794	695.8131	19829.7	18894.95
830.7243	697.9123	19810.6	18878
830.8691	700.0109	19802.55	18873.15
831.014	702.1089	19806.75	18880.8
831.1588	704.2061	19828.05	18902.9
831.3037	706.3028	19867.8	18938.75
831.4486	708.3987	19945.75	19020.45
831.5935	710.4941	19984.8	19056.5
831.7383	712.5887	20203.7	19276.3
831.8832	714.6827	20448.25	19516.1
832.0281	716.7761	20776.9	19856.55
832.173	718.8688	21143.85	20219.7
832.3179	720.9608	21330.5	20397.65
832.4628	723.0522	21472.25	20531.35
832.6077	725.1429	21301.95	20371.1
832.7527	727.233	21054.05	20123.75
832.8976	729.3224	20866.9	19939.9
833.0425	731.4112	20593.8	19664.35
833.1874	733.4993	20406.2	19475.1
833.3324	735.5867	20234.2	19305.1
833.4773	737.6735	20110.75	19183
833.6222	739.7596	20059.9	19125.55
833.7672	741.845	20003	19073.1
833.9122	743.9298	19942.7	19011.4
834.0571	746.014	19992.05	19063.65
834.2021	748.0974	20008.1	19072.05
834.347	750.1802	20026.35	19087.45
834.492	752.2624	19998.6	19059.75
834.637	754.3439	20028.5	19094.7
834.782	756.4247	20090.05	19146.95
834.9269	758.5048	20240.6	19303.95
835.0719	760.5843	20515.75	19581.2
835.2169	762.6631	20799.55	19859.1
835.3619	764.7413	21261.75	20325.45
835.5069	766.8188	21874.25	20934.35
835.6519	768.8956	22316.45	21377.9
835.7969	770.9718	22646.85	21711.55
835.9419	773.0473	22483.15	21547.8
836.0869	775.1221	22177.7	21242.25
836.232	777.1962	21844.65	20910.2
836.377	779.2697	21660	20718.8
836.522	781.3426	21748.6	20796.5
836.667	783.4147	21915.2	20977.5
836.8121	785.4862	22226.9	21290.15
836.9571	787.557	22214.4	21275.75
837.1021	789.6271	21862	20920.7
837.2472	791.6966	21332.75	20393.8
837.3922	793.7654	20799.2	19863.5
837.5373	795.8335	20509.5	19574.6
837.6823	797.901	20314.5	19374.05
837.8274	799.9678	20232.75	19288.4
837.9724	802.0339	20239.45	19298.4
838.1175	804.0993	20324.65	19375.35
838.2626	806.1641	20278.15	19334.05
838.4076	808.2282	20236.45	19301.6
838.5527	810.2916	20146.1	19207.2
838.6978	812.3544	20081.85	19149.4
838.8428	814.4164	19998.2	19062.35
838.9879	816.4778	20046.25	19103.3
839.133	818.5385	20014.1	19072.95
839.2781	820.5986	20143.4	19201.25
839.4232	822.658	20271.8	19328.3
839.5682	824.7166	20368.45	19431.85
839.7133	826.7747	20656.3	19717.15
839.8584	828.832	20923	19976.55
840.0035	830.8886	21088.45	20143.9
840.1486	832.9446	21220.6	20278.95
840.2937	834.9999	21224.8	20282
840.4388	837.0545	21187.7	20243.65
840.5839	839.1085	21146.95	20204.35
840.729	841.1618	21119.2	20174.25
840.8741	843.2143	21037.85	20094
841.0192	845.2662	20981.3	20037.15
841.1643	847.3175	20894.05	19952.35
841.3095	849.368	20796.05	19851.05
841.4546	851.4179	20693.1	19750.8
841.5997	853.467	20536.9	19593.3
841.7448	855.5155	20472.05	19528.6
841.8899	857.5633	20335.1	19393.1
842.0351	859.6105	20267.1	19322.2
842.1802	861.6569	20220.15	19272.75
842.3253	863.7027	20160.6	19216
842.4704	865.7478	20166.8	19220.85
842.6156	867.7922	20177.35	19233.8
842.7607	869.8359	20230.5	19283.7
842.9058	871.8789	20338.85	19392.95
843.0509	873.9212	20510.8	19532.6
843.1961	875.9629	20632.9	19686.2
843.3412	878.0039	20850.3	19902.1
843.4863	880.0441	20926.95	19980.85
843.6315	882.0837	20942.45	19999.6
843.7766	884.1226	20896.75	19952.3
843.9218	886.1609	20818.5	19873.45
844.0669	888.1984	20796.7	19852.25
844.212	890.2352	20813.8	19866.4
844.3572	892.2714	20783.3	19835.45
844.5023	894.3069	20784.6	19836.55
844.6475	896.3416	20710.95	19766.4
844.7926	898.3757	20704.05	19757.95
844.9377	900.4091	20673.8	19724.85
845.0829	902.4418	20685.3	19731.15
845.228	904.4739	20673.9	19723.15
845.3732	906.5052	20695.55	19748.55
845.5183	908.5358	20555.05	19610.6
845.6635	910.5658	20474.05	19526.25
845.8086	912.595	20327.05	19375.95
845.9538	914.6236	20177.8	19229.4
846.0989	916.6515	20140.25	19190.35
846.2441	918.6786	20102.65	19150.95
846.3892	920.7051	20179.15	19227.9
846.5344	922.7309	20298.3	19347.75
846.6795	924.756	20335.55	19386.35
846.8246	926.7804	20443.4	19494.35
846.9698	928.8041	20354	19401.95
847.1149	930.8272	20421.1	19474.05
847.2601	932.8495	20306.85	19355.35
847.4052	934.8711	20295.65	19346.15
847.5504	936.892	20131.65	19181.05
847.6955	938.9123	19997.15	19044.8
847.8407	940.9318	19951.25	19002.5
847.9858	942.9506	19815.05	18866.4
848.131	944.9688	19703.1	18755.05
848.2761	946.9862	19681.9	18735.7
848.4213	949.003	19552.2	18604.25
848.5664	951.019	19585.5	18634.6
848.7115	953.0344	19604.3	18652.65
848.8567	955.0491	19639.9	18693.2
849.0018	957.063	19734.7	18786.6
849.147	959.0763	19841.2	18893.45
849.2921	961.0888	19867.6	18920.1
849.4373	963.1007	19966.2	19020.45
849.5824	965.1119	19988.8	19051.15
849.7275	967.1223	20034.9	19102.35
849.8727	969.1321	20072.85	19139.95
850.0178	971.1412	20130.8	19190.95
850.1629	973.1495	20122.55	19180.75
850.3081	975.1572	20192.15	19189.4
850.4532	977.1641	20178.8	19228.85
850.5983	979.1704	20152.15	19201.15
850.7435	981.1759	20141.75	19185.95
850.8886	983.1808	20239.25	19287.05
851.0337	985.1849	20277.5	19315.2
851.1788	987.1884	20461.75	19512.5
851.324	989.1911	20566.65	19620.2
851.4691	991.1932	20752.15	19802.8
851.6142	993.1945	20742.75	19793.9
851.7593	995.1951	20672.45	19724.2
851.9045	997.1951	20690.25	19737.15
852.0496	999.1943	20594.1	19645.25
852.1947	1001.1928	20537.15	19586.3
852.3398	1003.1906	20509.15	19561.05
852.4849	1005.1877	20601.9	19653.85
852.63	1007.1841	20589.8	19644.05
852.7751	1009.1798	20509.4	19564.7
852.9202	1011.1748	20345.8	19398.55
853.0653	1013.1691	20162.7	19211
853.2104	1015.1627	19925.85	18979.35
853.3555	1017.1556	19680.95	18738.95
853.5006	1019.1477	19614.05	18667.65
853.6457	1021.1392	19453.8	18515.7
853.7908	1023.1299	19434.7	18496.05
853.9359	1025.12	19467.75	18532.4
854.081	1027.1093	19491.45	18571.9
854.2261	1029.0979	19615.55	18698.25
854.3712	1031.0859	19634.7	18711.35
854.5163	1033.0731	19625.3	18691.35
854.6613	1035.0596	19604.45	18666.85
854.8064	1037.0454	19450.25	18505.7
854.9515	1039.0304	19323.85	18379.8
855.0965	1041.0148	19171.6	18228.1
855.2416	1042.9985	19075.2	18127.5
855.3867	1044.9814	19063.15	18120.55
855.5317	1046.9636	19006.2	18060.6
855.6768	1048.9452	18945.25	17999.85
855.8219	1050.926	18984.35	18040.35
855.9669	1052.9061	18964.05	18021.85
856.112	1054.8855	19000.75	18054.1
856.257	1056.8642	19053.7	18108.75
856.4021	1058.8421	19128.15	18177.3
856.5471	1060.8194	19134.55	18187.85
856.6921	1062.7959	19143	18194.75
856.8372	1064.7717	19177.6	18230.15
856.9822	1066.7469	19177.95	18229.3
857.1272	1068.7213	19210.05	18259.2
857.2723	1070.695	19207.8	18265.35
857.4173	1072.6679	19132.85	18185.15
857.5623	1074.6402	19106.6	18158.5
857.7073	1076.6117	19089.8	18135.45
857.8523	1078.5826	19106.3	18157.4
857.9973	1080.5527	19085.6	18137.7
858.1423	1082.5221	19112.1	18162.45
858.2873	1084.4908	19256.75	18309.95
858.4323	1086.4587	19417.3	18469.8
858.5773	1088.426	19546.65	18601.4
858.7223	1090.3925	19563	18608.35
858.8673	1092.3584	19493.05	18549.2
859.0123	1094.3235	19413.65	18470
859.1573	1096.2879	19357.5	18410.9
859.3022	1098.2515	19340.15	18394.05
859.4472	1100.2145	19411	18466.15
859.5922	1102.1767	19514.5	18565.55
859.7371	1104.1382	19689.2	18743.35
859.8821	1106.099	19914.65	18967.2
860.027	1108.0591	20100	19157.1
860.172	1110.0185	20247.5	19297.4
860.3169	1111.9771	20262.95	19317.15
860.4619	1113.9351	20046.25	19101.85
860.6068	1115.8923	19773.8	18828.05
860.7517	1117.8488	19496.7	18553.25
860.8967	1119.8045	19209.8	18264.95
861.0416	1121.7596	19129.1	18184.4
861.1865	1123.7139	19010	18066.5
861.3314	1125.6675	19007.65	18063.65
861.4763	1127.6204	19117.45	18173.4
861.6212	1129.5726	19073.45	18126.15
861.7661	1131.524	19077.7	18134.05
861.911	1133.4748	19030.1	18084.75
862.0559	1135.4248	18969.5	18021.6
862.2008	1137.3741	18940.3	17995.25
862.3457	1139.3226	18898.1	17952.4
862.4905	1141.2705	18876.15	17928.95
862.6354	1143.2176	18767.9	17814.8
862.7803	1145.164	18794.15	17849.75
862.9251	1147.1097	18781.35	17834.8
863.07	1149.0546	18726.05	17777.8
863.2148	1150.9989	18675.4	17731.25
863.3597	1152.9424	18541.7	17595.8
863.5045	1154.8852	18388.9	17440.45
863.6493	1156.8272	18288.95	17344.1
863.7942	1158.7686	18262.05	17311.7
863.939	1160.7092	18203.75	17257.1
864.0838	1162.6491	18217.9	17270.75
864.2286	1164.5883	18289	17342.95
864.3734	1166.5267	18358.75	17411.6
864.5182	1168.4644	18499.85	17554.95
864.663	1170.4014	18668.1	17725.45
864.8078	1172.3377	18958.65	18017.2
864.9526	1174.2732	19157.3	18216.7
865.0974	1176.2081	19460.25	18518.1
865.2421	1178.1421	19735.95	18788.05
865.3869	1180.0755	19971.15	19030.8
865.5317	1182.0082	20105.15	19164.2
865.6764	1183.9401	20111.1	19169.15
865.8212	1185.8713	19942.1	19006.45
865.9659	1187.8017	19739.45	18808.7
866.1106	1189.7315	19457.75	18537.4
866.2554	1191.6605	19124.5	18203.6
866.4001	1193.5888	18922.35	17994.05
866.5448	1195.5163	18800.8	17866.3
866.6895	1197.4432	18696.2	17758.55
866.8342	1199.3693	18661.9	17721.05
866.9789	1201.2947	18580.15	17639.7
867.1236	1203.2193	18537.05	17593.8
867.2683	1205.1432	18554.55	17614.25
867.413	1207.0664	18605.65	17667.55
867.5576	1208.9889	18640.05	17697.75
867.7023	1210.9106	18606	17666.8
867.847	1212.8316	18642.1	17703.75
867.9916	1214.7519	18710.3	17758.95
868.1363	1216.6715	18698.75	17759.5
868.2809	1218.5903	18684.45	17743.65
868.4255	1220.5084	18657.05	17716.95
868.5701	1222.4257	18674.4	17736
868.7148	1224.3424	18628.75	17688.45
868.8594	1226.2583	18664.95	17723.15
869.004	1228.1735	18768.15	17829.5
869.1486	1230.0879	18826.6	17889.4
869.2932	1232.0016	18966.7	18027.1
869.4377	1233.9146	18982.25	18037.65
869.5823	1235.8269	18894.2	17956.7
869.7269	1237.7384	18738.35	17799.55
869.8715	1239.6492	18581.8	17643.45
870.016	1241.5592	18489.4	17548.35
870.1606	1243.4686	18379.25	17440.45
870.3051	1245.3772	18394.05	17455.9
870.4496	1247.285	18381.05	17441.25
870.5941	1249.1922	18366.95	17426.15
870.7387	1251.0986	18388.1	17451.55
870.8832	1253.0042	18383.5	17443.05
871.0277	1254.9092	18419.35	17481.35
871.1722	1256.8134	18449.55	17516.5
871.3167	1258.7169	18619.9	17680.35
871.4611	1260.6196	18777.65	17842.9
871.6056	1262.5216	18993.6	18055.2
871.7501	1264.4229	19150.6	18212.3
871.8945	1266.3234	19334.25	18398.95
872.039	1268.2232	19378.5	18435.5
872.1834	1270.1223	19395.15	18452.35
872.3278	1272.0207	19383.75	18441.6
872.4723	1273.9183	19342.4	18397
872.6167	1275.8151	19275.25	18337.65
872.7611	1277.7113	19217.65	18275.8
872.9055	1279.6067	19091.75	18154.85
873.0499	1281.5014	19015.4	18075.75
873.1943	1283.3953	19031.4	18091.1
873.3386	1285.2885	19085.1	18150.1
873.483	1287.181	19165.2	18227.05
873.6274	1289.0727	19347	18409.7
873.7717	1290.9637	19414.9	18479.75
873.9161	1292.854	19536	18599.8
874.0604	1294.7435	19616.85	18679.45
874.2047	1296.6323	19776.95	18838.45
874.349	1298.5204	19906.25	18967.4
874.4933	1300.4077	20085.5	19151.35
874.6376	1302.2943	20191.1	19253.25
874.7819	1304.1802	20214	19277.35
874.9262	1306.0653	20020.45	19078.65
875.0705	1307.9497	19791.5	18856.65
875.2147	1309.8333	19602.7	18664.95
875.359	1311.7162	19521.75	18583.65
875.5032	1313.5984	19468.9	18530.2
875.6475	1315.4798	19497	18557.4
875.7917	1317.3605	19526.55	18585.4
875.9359	1319.2405	19551.25	18612.45
876.0801	1321.1197	19483.6	18545.45
876.2243	1322.9982	19354.3	18411.15
876.3685	1324.876	19233.9	18296.25
876.5127	1326.753	19103.7	18167.7
876.6569	1328.6293	19093.45	18152
876.801	1330.5048	19067.75	18123.05
876.9452	1332.3796	18984.65	18047.6
877.0893	1334.2537	18978.1	18016.2
877.2335	1336.127	18895.25	17955.25
877.3776	1337.9996	18849.85	17913.7
877.5217	1339.8714	18829.7	17892.7
877.6658	1341.7426	18751.65	17768.4
877.8099	1343.6129	18720.3	17778.6
877.954	1345.4826	18674.65	17733.45
878.0981	1347.3515	18696.6	17756.8
878.2422	1349.2196	18670	17732.95
878.3862	1351.087	18631.15	17695.2
878.5303	1352.9537	18665.8	17725.35
878.6743	1354.8197	18787.1	17847.85
878.8184	1356.6849	18957.45	18018.35
878.9624	1358.5493	19030.15	18091.7
879.1064	1360.4131	19097.8	18160.9
879.2504	1362.276	19033.95	18096.3
879.3944	1364.1383	18928.55	17992.95
879.5384	1365.9998	18665.6	17723.6
879.6823	1367.8606	18324.85	17385.6
879.8263	1369.7206	18045.8	17107.3
879.9702	1371.5799	17775.45	16836.7
880.1142	1373.4384	17578.75	16638.85
880.2581	1375.2962	17437.3	16496.05
880.402	1377.1533	17151.65	16217.5
880.5459	1379.0096	16782.6	15848.75
880.6898	1380.8652	16458.3	15528.85
880.8337	1382.7201	16233.5	15299.2
880.9776	1384.5742	15969.85	15033.15
881.1215	1386.4275	15789.15	14854.2
881.2653	1388.2802	15630.5	14695.3
881.4092	1390.132	15459.9	14520.55
881.553	1391.9832	15436.95	14499.05
881.6968	1393.8336	15310.6	14375.9
881.8406	1395.6832	15269.55	14332.5
881.9844	1397.5322	15188.3	14253.9
882.1282	1399.3803	15158.95	14221.7
882.272	1401.2278	15088.15	14153.7
882.4158	1403.0745	15081.05	14147.7
882.5595	1404.9204	15034.7	14101.05
882.7033	1406.7656	15073.3	14136.55
882.847	1408.6101	15059.9	14122.5
882.9908	1410.4538	15054.3	14117.7
883.1345	1412.2968	15080.75	14141.55
883.2782	1414.139	15108.75	14172.45
883.4219	1415.9805	15181.75	14245.1
883.5656	1417.8213	15221.05	14281.1
883.7092	1419.6613	15324.6	14390.8
883.8529	1421.5006	15464.45	14529.8
883.9965	1423.3391	15660.8	14729.15
884.1402	1425.1769	15985.8	15049.15
884.2838	1427.0139	16442.65	15507.7
884.4274	1428.8502	17019.35	16082.95
884.571	1430.6858	17550.75	16617.05
884.7146	1432.5206	17927.6	16997.05
884.8582	1434.3547	18150.3	17216.3
885.0018	1436.188	18185.6	17252.35
885.1453	1438.0206	18112.6	17175.9
885.2889	1439.8524	17932.4	16999.2
885.4324	1441.6835	17820.75	16884.05
885.5759	1443.5139	17716.8	16778.9
885.7194	1445.3435	17633.35	16702.35
885.8629	1447.1724	17575.75	16647.1
886.0064	1449.0005	17490.05	16556.3
886.1499	1450.8279	17396.1	16463.65
886.2933	1452.6545	17364.9	16433.95
886.4368	1454.4804	17387.2	16458.95
886.5802	1456.3056	17362.45	16422.9
886.7237	1458.13	17236.4	16308.75
886.8671	1459.9536	17020.5	16088.15
887.0105	1461.7766	16697.4	15768.25
887.1539	1463.5987	16301.75	15370.35
887.2972	1465.4202	15913	14978.2
887.4406	1467.2409	15525.15	14593.7
887.584	1469.0608	15284.3	14353.8
887.7273	1470.88	15024.6	14092.4
887.8706	1472.6984	14737.45	13808.5
888.0139	1474.5161	14516.05	13583.4
888.1572	1476.3331	14354.25	13420.8
888.3005	1478.1493	14242.85	13309.8
888.4438	1479.9648	14133.55	13201.3
888.5871	1481.7795	14051.15	13119.5
888.7303	1483.5935	13945.1	13015.55
888.8736	1485.4067	13876.7	12944.05
889.0168	1487.2192	13833.35	12902.35
889.16	1489.031	13782.05	12847.9
889.3032	1490.842	13719.95	12789.5
889.4464	1492.6522	13683.75	12752.9
889.5896	1494.4618	13625.35	12693.05
889.7327	1496.2705	13614.1	12679.7
889.8759	1498.0785	13549.1	12618.3
890.019	1499.8858	13506.75	12576.3
890.1622	1501.6924	13455	12524.65
890.3053	1503.4981	13399.45	12468.5
890.4484	1505.3032	13379.15	12450.25
890.5914	1507.1075	13363	12432.5
890.7345	1508.911	13333.9	12405.75
890.8776	1510.7138	13282.8	12351.65
891.0206	1512.5159	13194.5	12264.65
891.1637	1514.3172	13162.3	12233
891.3067	1516.1178	13072.75	12147.6
891.4497	1517.9176	13047.2	12115.2
891.5927	1519.7166	13010.8	12082.4
891.7357	1521.515	12932.5	11997.4
891.8786	1523.3126	12897.35	11967.9
892.0216	1525.1094	12866.7	11937.45
892.1645	1526.9055	12823.5	11899.7
892.3074	1528.7008	12744.75	11816.8
892.4503	1530.4954	12706.2	11778.45
892.5932	1532.2893	12683.95	11760.45
892.7361	1534.0824	12614.6	11684.4
892.879	1535.8747	12621.05	11697.45
893.0218	1537.6663	12594.55	11670.3
893.1647	1539.4572	12546.75	11624.65
893.3075	1541.2473	12537.85	11612.4
893.4503	1543.0367	12494.95	11571.7
893.5931	1544.8253	12495.05	11567.4
893.7359	1546.6132	12475.9	11546.1
893.8787	1548.4003	12437	11502.65
894.0214	1550.1867	12469.2	11535.35
894.1642	1551.9723	12490.95	11565.9
894.3069	1553.7572	12511.5	11590.95
894.4496	1555.5414	12556.85	11636.15
894.5923	1557.3247	12628.05	11707.2
894.735	1559.1074	12674.3	11755.95
894.8777	1560.8893	12735.85	11817.25
895.0204	1562.6705	12801.1	11885.25
895.163	1564.4509	12859.95	11942.3
895.3056	1566.2305	12866.45	11953.85
895.4482	1568.0094	12977.05	12061.25
895.5908	1569.7876	13028.9	12114.7
895.7334	1571.565	12984.85	12065.25
895.876	1573.3417	12968.9	12050.05
896.0186	1575.1176	12954.65	12038.1
896.1611	1576.8928	12918.15	12006.6
896.3036	1578.6672	12804.1	11894.1
896.4461	1580.4409	12715.7	11808.95
896.5886	1582.2138	12612.4	11699.6
896.7311	1583.986	12498.05	11585.6
896.8736	1585.7575	12456.15	11543.05
897.0161	1587.5282	12392.95	11482.15
897.1585	1589.2981	12363.45	11453.2
897.3009	1591.0673	12329.7	11421.1
897.4433	1592.8358	12359.25	11448.95
897.5857	1594.6035	12349.05	11434.85
897.7281	1596.3704	12349.7	11436.7
897.8705	1598.1366	12385.9	11475.15
898.0128	1599.9021	12435.15	11525.75
898.1551	1601.6668	12479.05	11565.05
898.2975	1603.4308	12538.25	11622.7
898.4398	1605.194	12628.3	11713.05
898.5821	1606.9564	12729.6	11826.45
898.7243	1608.7182	12879.3	11976.15
898.8666	1610.4791	13025.85	12129.6
899.0088	1612.2394	13215	12317.7
899.1511	1613.9988	13381.6	12484.75
899.2933	1615.7576	13585.8	12682
899.4355	1617.5156	13793.45	12877.8
899.5776	1619.2728	13951.7	13041.4
899.7198	1621.0293	14003.2	13091.5
899.862	1622.785	14048.55	13138
900.0041	1624.54	13923.25	13018.1
900.1462	1626.2942	13727.85	12822.8
900.2883	1628.0477	13429.4	12521.95
900.4304	1629.8005	13185.9	12277.7
900.5725	1631.5525	12974.05	12069.6
900.7145	1633.3037	12787.1	11884.35
900.8566	1635.0542	12610.05	11706.05
900.9986	1636.804	12474.75	11571.55
901.1406	1638.553	12496.9	11524.2
901.2826	1640.3013	12392.2	11488.55
901.4245	1642.0488	12349.5	11442.05
901.5665	1643.7955	12378.8	11476.8
901.7085	1645.5416	12394.55	11492.95
901.8504	1647.2868	12494.35	11589.9
901.9923	1649.0313	12565.65	11658.8
902.1342	1650.7751	12706.7	11798.1
902.2761	1652.5181	12856.85	11957.25
902.4179	1654.2604	13013.45	12112.55
902.5598	1656.0019	13258.1	12354.8
902.7016	1657.7427	13516.45	12615.05
902.8434	1659.4828	13839.95	12936.75
902.9852	1661.222	13991.35	13083.55
903.127	1662.9606	13994.65	13089.3
903.2687	1664.6984	13765.25	12859.85
903.4105	1666.4354	13334.45	12426.05
903.5522	1668.1717	12812.25	11901.2
903.6939	1669.9072	12298.95	11391
903.8356	1671.642	11857.4	10945.3
903.9773	1673.3761	11506.6	10602.6
904.119	1675.1094	11194.15	10289.05
904.2606	1676.8419	10943.75	10041.4
904.4022	1678.5737	10756.8	9850.9
904.5439	1680.3048	10619.9	9711.2
904.6855	1682.0351	10479.85	9572.95
904.827	1683.7646	10390.85	9485.15
904.9686	1685.4934	10303.7	9398.5
905.1101	1687.2215	10209.85	9306.55
905.2517	1688.9488	10132.75	9233.05
905.3932	1690.6754	10081.45	9177.8
905.5347	1692.4012	10007.75	9103.05
905.6761	1694.1263	9953.3	9048.65
905.8176	1695.8506	9917.55	9011.15
905.9591	1697.5742	9872.95	8973.1
906.1005	1699.297	9808.65	8908.15
906.2419	1701.0191	9763.95	8868.4
906.3833	1702.7404	9722.9	8826.35
906.5246	1704.461	9646.45	8743.1
906.666	1706.1808	9616.65	8716.35
906.8073	1707.8999	9572	8671.85
906.9487	1709.6182	9555.9	8657.9
907.09	1711.3358	9507.7	8611.3
907.2313	1713.0527	9470.3	8577.05
907.3725	1714.7688	9419.25	8516.9
907.5138	1716.4841	9379.05	8477.35
907.655	1718.1987	9371.95	8469.65
907.7962	1719.9126	9348.8	8453.05
907.9374	1721.6257	9286.8	8388.9
908.0786	1723.338	9278.55	8383.95
908.2198	1725.0496	9232.6	8335.55
908.3609	1726.7605	9184.25	8285.7
908.502	1728.4706	9141.5	8243.1
908.6431	1730.18	9107.45	8212
908.7842	1731.8886	9084.7	8190
908.9253	1733.5964	9081.1	8161.3
909.0664	1735.3036	9051.5	8155.1
909.2074	1737.0099	9014.45	8119.95
909.3484	1738.7156	8992.55	8096.15
909.4894	1740.4204	8942.45	8044.7
909.6304	1742.1246	8948.35	8052.15
909.7714	1743.8279	8918.25	8023.15
909.9123	1745.5306	8883	7988.55
910.0532	1747.2325	8831.55	7937.7
910.1941	1748.9336	8799.95	7905.65
910.335	1750.634	8761.45	7861.95
910.4759	1752.3336	8746.8	7853.3
910.6168	1754.0325	8725.4	7831.75
910.7576	1755.7307	8720.95	7828.1
910.8984	1757.4281	8702.7	7807.4
911.0392	1759.1247	8689	7783.9
911.18	1760.8206	8675.5	7771.3
911.3208	1762.5158	8645.45	7742.55
911.4615	1764.2102	8602.85	7706.2
911.6022	1765.9039	8580.85	7685.7
911.7429	1767.5968	8557.35	7665.7
911.8836	1769.289	8540.55	7646.25
912.0243	1770.9804	8512.05	7615.85
912.1649	1772.6711	8505.3	7607.2
912.3056	1774.361	8478.45	7580.05
912.4462	1776.0502	8476.3	7579.2
912.5868	1777.7386	8446.25	7546.1
912.7274	1779.4263	8433.45	7537.6
912.8679	1781.1132	8391.15	7498.4
913.0084	1782.7994	8375.7	7485.25
913.149	1784.4849	8351.65	7461.15
913.2895	1786.1696	8343.85	7443.5
913.4299	1787.8535	8297.15	7405.1
913.5704	1789.5367	8271.7	7382.3
913.7108	1791.2192	8284.35	7394.65
913.8513	1792.9009	8260.65	7340.55
913.9917	1794.5818	8201.65	7303.35
914.132	1796.2621	8204.9	7310.65
914.2724	1797.9415	8195	7299.15
914.4128	1799.6202	8165.2	7270.1
914.5531	1801.2982	8158.2	7261.5
914.6934	1802.9755	8109.6	7211.05
914.8337	1804.6519	8109.6	7216.15
914.9739	1806.3277	8069.15	7177.4
915.1142	1808.0027	8042.15	7152.65
915.2544	1809.6769	8028.95	7139.7
915.3946	1811.3504	8005.65	7114.35
915.5348	1813.0231	7990.7	7098.2
915.675	1814.6951	7980.8	7088.9
915.8151	1816.3664	7983.6	7087.75
915.9553	1818.0369	7953.4	7060.95
916.0954	1819.7067	7929.75	7035.85
916.2355	1821.3757	7914.15	7016.2
916.3755	1823.044	7907.55	7010.35
916.5156	1824.7115	7905.35	7010
916.6556	1826.3783	7846.85	6952.5
916.7956	1828.0443	7844.05	6950.25
916.9356	1829.7096	7837.1	6941.15
917.0756	1831.3741	7806.75	6910.45
917.2155	1833.0379	7765.2	6874.9
917.3555	1834.701	7765.15	6874.05
917.4954	1836.3633	7723.45	6832.65
917.6353	1838.0248	7739.3	6847.9
917.7751	1839.6856	7716.6	6824.05
917.915	1841.3457	7710.7	6815.4
918.0548	1843.005	7698.05	6805.35
918.1946	1844.6636	7701.65	6808.05
918.3344	1846.3214	7669	6776.75
918.4742	1847.9785	7656.65	6766.75
918.6139	1849.6349	7632.4	6737.7
918.7537	1851.2904	7652.1	6747.1
918.8934	1852.9453	7599.55	6703.95
919.0331	1854.5994	7581.75	6684.15
919.1727	1856.2528	7577.8	6679.6
919.3124	1857.9054	7569.6	6674
919.452	1859.5572	7544.65	6651.25
919.5916	1861.2083	7543.65	6649.6
919.7312	1862.8587	7529.3	6635.55
919.8708	1864.5084	7523.3	6627.05
920.0103	1866.1572	7463.6	6569.3
920.1498	1867.8054	7424.45	6528
920.2893	1869.4528	7419.85	6524.05
920.4288	1871.0994	7398.3	6502.75
920.5683	1872.7453	7402.7	6506.6
920.7077	1874.3905	7386.75	6474.95
920.8471	1876.0349	7365.95	6470.35
920.9865	1877.6786	7347.4	6450
921.1259	1879.3215	7351.1	6458.05
921.2653	1880.9637	7315.55	6421.8
921.4046	1882.6051	7304.9	6411.2
921.5439	1884.2458	7275.2	6380.5
921.6832	1885.8858	7255.05	6361.2
921.8225	1887.525	7248	6354.95
921.9617	1889.1634	7216.9	6321.95
922.101	1890.8011	7212.95	6318.15
922.2402	1892.4381	7189.35	6293.1
922.3794	1894.0743	7182.85	6287.65
922.5185	1895.7098	7163.55	6267.55
922.6577	1897.3446	7137.9	6243.05
922.7968	1898.9786	7126.35	6228.65
922.9359	1900.6118	7126.2	6232.1
923.075	1902.2443	7078.85	6186.8
923.214	1903.8761	7061.1	6166.7
923.3531	1905.5071	7004.8	6109.8
923.4921	1907.1374	7034.65	6140.85
923.6311	1908.7669	6994.9	6099.05
923.77	1910.3957	6984.95	6093.35
923.909	1912.0237	6943.2	6049.7
924.0479	1913.651	6954	6059.05
924.1868	1915.2776	6915.75	6024.1
924.3257	1916.9034	6894.4	6001.7
924.4646	1918.5285	6864.45	5975.2
924.6034	1920.1528	6827.5	5935.1
924.7422	1921.7764	6841.4	5949.85
924.881	1923.3992	6809.55	5914.9
925.0198	1925.0213	6772.05	5879.65
925.1586	1926.6427	6744.9	5852.35
925.2973	1928.2633	6822.1	5835.3
925.436	1929.8832	6735.55	5842.75
925.5747	1931.5023	6687.7	5794.3
925.7134	1933.1207	6669.2	5776.15
925.852	1934.7383	6671.6	5782.25
925.9906	1936.3552	6638.8	5747.9
926.1292	1937.9714	6613.8	5722.9
926.2678	1939.5868	6609.25	5714.3
926.4064	1941.2015	6572.25	5677.1
926.5449	1942.8154	6540.85	5648.65
926.6834	1944.4286	6515.75	5622.25
926.8219	1946.041	6527.1	5610.35
926.9604	1947.6528	6478.8	5580.4
927.0988	1949.2637	6436.15	5545.7
927.2372	1950.8739	6436.55	5542.15
927.3756	1952.4834	6418.1	5524.9
927.514	1954.0921	6418.45	5525.45
927.6523	1955.7001	6378.9	5486.15
927.7907	1957.3074	6355.65	5468.7
927.929	1958.9139	6327.1	5438.05
928.0673	1960.5197	6322.3	5429.35
928.2055	1962.1247	6285.9	5395.5
928.3438	1963.729	6266.5	5377.6
928.482	1965.3325	6243.45	5351.15
928.6202	1966.9353	6204.7	5318.75
928.7584	1968.5374	6204.9	5316.55
928.8965	1970.1387	6191.35	5303.2
929.0346	1971.7393	6163.1	5274.9
929.1727	1973.3392	6137.9	5249.7
929.3108	1974.9383	6123.45	5237.8
929.4489	1976.5366	6107.6	5220.15
929.5869	1978.1342	6089.25	5200.8
929.7249	1979.7311	6102.55	5215.15
929.8629	1981.3273	6083.35	5195.25
930.0009	1982.9227	6052.3	5164.45
930.1388	1984.5173	6017.6	5133.05
930.2767	1986.1112	5999.15	5114.85
930.4146	1987.7044	5997.15	5112.1
930.5525	1989.2968	5974.55	5087.15
930.6904	1990.8885	5940.6	5052.45
930.8282	1992.4795	5953.75	5069.7
930.966	1994.0697	5915.7	5033.75
931.1038	1995.6592	5907	5022.6
931.2415	1997.2479	5889.6	5003.5
931.3793	1998.8359	5888.35	5000.75
931.517	2000.4232	5866.5	4983.6
931.6547	2002.0097	5848.85	4971.1
931.7923	2003.5955	5827.05	4947
931.93	2005.1805	5826.6	4944.75
932.0676	2006.7648	5772.6	4890.5
932.2052	2008.3484	5768.1	4884.75
932.3427	2009.9312	5764.35	4882.95
932.4803	2011.5133	5757.3	4877.4
932.6178	2013.0946	5724.95	4843.45
932.7553	2014.6752	5710.3	4828.5
932.8928	2016.2551	5722	4838.1
933.0302	2017.8342	5680.5	4797.95
933.1676	2019.4126	5677.9	4798.3
933.305	2020.9902	5639.6	4757.35
933.4424	2022.5672	5628.85	4750.85
933.5798	2024.1433	5624.3	4740.4
933.7171	2025.7188	5608.1	4730.75
933.8544	2027.2935	5584.5	4704.4
933.9917	2028.8674	5575.85	4695.95
934.129	2030.4406	5558.15	4680.4
934.2662	2032.0131	5540.8	4663.35
934.4034	2033.5849	5527.75	4641.9
934.5406	2035.1559	5513.9	4635.65
934.6778	2036.7261	5505.1	4624.8
934.8149	2038.2957	5497.05	4613.7
934.952	2039.8645	5469.85	4583.5
935.0891	2041.4325	5493.6	4604.9
935.2262	2042.9998	5463.85	4582.05
935.3632	2044.5664	5435.35	4552.65
935.5002	2046.1323	5423.75	4544.15
935.6372	2047.6974	5411.25	4532.1
935.7742	2049.2617	5389.35	4510.55
935.9111	2050.8254	5402.65	4487.7
936.048	2052.3883	5388.15	4504.9
936.1849	2053.9504	5379.25	4494.55
936.3218	2055.5118	5346.45	4464.5
936.4586	2057.0725	5334.3	4449.55
936.5955	2058.6325	5310.85	4428.95
936.7323	2060.1917	5312.2	4431.65
936.869	2061.7502	5320.95	4439
937.0058	2063.3079	5296.15	4416.35
937.1425	2064.8649	5275.85	4391.2
937.2792	2066.4212	5254	4372.5
937.4159	2067.9767	5242.8	4360.8
937.5525	2069.5315	5197.8	4316.7
937.6891	2071.0856	5201.1	4319.8
937.8257	2072.6389	5178.5	4296.85
937.9623	2074.1915	5188.6	4309.3
938.0989	2075.7433	5135.35	4250.8
938.2354	2077.2945	5122.35	4242.2
938.3719	2078.8448	5102.85	4218.9
938.5084	2080.3945	5106.85	4223.45
938.6448	2081.9434	5110.7	4226.25
938.7812	2083.4916	5095	4209.5
938.9176	2085.039	5082	4192.55
939.054	2086.5857	5073.4	4179
939.1903	2088.1317	5051.1	4159.95
939.3267	2089.677	5043.8	4149.85
939.463	2091.2215	5031.85	4140.6
939.5992	2092.7652	5027.5	4132.2
939.7355	2094.3083	5008.15	4116.3
939.8717	2095.8506	4997.75	4109.15
940.0079	2097.3921	4992.35	4104.6
940.1441	2098.933	4961.2	4071.75
940.2802	2100.4731	4956.9	4069.1
940.4163	2102.0124	4969.3	4070.15
940.5524	2103.5511	4956.55	4064.5
940.6885	2105.089	4938.95	4046.45
940.8245	2106.6261	4919.3	4027.5
940.9606	2108.1626	4909	4017.35
941.0965	2109.6983	4925.9	4008.3
941.2325	2111.2332	4881.8	3989.25
941.3684	2112.7675	4866.55	3974.15
941.5044	2114.301	4850.7	3958.45
941.6403	2115.8337	4861.6	3970.45
941.7761	2117.3657	4854.7	3964.15
941.912	2118.897	4842.95	3952.4
942.0478	2120.4276	4842.6	3945.7
942.1835	2121.9575	4818.6	3927.8
942.3193	2123.4866	4822.3	3916.8
942.455	2125.0149	4790.9	3901.4
942.5907	2126.5426	4763.3	3876.85
942.7264	2128.0695	4772.55	3884.75
942.8621	2129.5956	4741.3	3861.6
942.9977	2131.1211	4721.5	3834.45
943.1333	2132.6458	4725.5	3839.4
943.2689	2134.1698	4708.3	3821.35
943.4044	2135.693	4702.7	3809.45
943.54	2137.2155	4694.3	3802.55
943.6755	2138.7373	4684.3	3794.7
943.8109	2140.2584	4664.3	3781.25
943.9464	2141.7787	4655.1	3768.4
944.0818	2143.2983	4638.95	3759.4
944.2172	2144.8171	4605.95	3725.95
944.3526	2146.3353	4617.5	3732
944.4879	2147.8527	4580.3	3696.35
944.6232	2149.3693	4584.65	3696.25
944.7585	2150.8853	4588.75	3699.15
944.8938	2152.4005	4553.15	3662.9
945.029	2153.9149	4548.45	3658.95
945.1642	2155.4287	4537.8	3648.2
945.2994	2156.9417	4530.45	3641.85
945.4346	2158.454	4518.7	3629.35
945.5697	2159.9655	4511.2	3626.5
945.7048	2161.4764	4515.7	3633
945.8399	2162.9865	4491.15	3604.6
945.9749	2164.4958	4501.25	3617.25
946.1099	2166.0045	4466.8	3580.85
946.2449	2167.5124	4453.3	3569.95
946.3799	2169.0195	4456.5	3570.6
946.5148	2170.526	4455.2	3566.7
946.6498	2172.0317	4432.1	3543.8
946.7846	2173.5367	4428.9	3542.85
946.9195	2175.0409	4417.4	3534
947.0543	2176.5445	4405.15	3519.15
947.1891	2178.0473	4394.55	3506.65
947.3239	2179.5494	4383.15	3490.55
947.4587	2181.0507	4363.1	3476.75
947.5934	2182.5513	4347.4	3459
947.7281	2184.0512	4342.55	3454.8
947.8628	2185.5504	4338.9	3451.55
947.9974	2187.0488	4314.65	3427.5
948.132	2188.5465	4312.35	3428.85
948.2666	2190.0435	4307.25	3422.65
948.4012	2191.5397	4288.5	3399.15
948.5357	2193.0353	4297.15	3408.3
948.6702	2194.5301	4253.6	3362.75
948.8047	2196.0241	4245.2	3352.75
948.9392	2197.5175	4247.55	3353.85
949.0736	2199.0101	4222.55	3328.2
949.208	2200.502	4219.45	3332.35
949.3424	2201.9931	4201.85	3316
949.4767	2203.4835	4170.2	3286.3
949.611	2204.9733	4186.6	3297.45
949.7453	2206.4622	4161.25	3278.1
949.8796	2207.9505	4160.75	3274.6
950.0138	2209.438	4119.5	3239.85
950.148	2210.9248	4128.9	3243.2
950.2822	2212.4109	4107.2	3221.55
950.4164	2213.8962	4121.3	3232.05
950.5505	2215.3809	4114.9	3222.65
950.6846	2216.8648	4098.8	3207.15
950.8186	2218.3479	4081.7	3181.45
950.9527	2219.8304	4074.15	3177.05
951.0867	2221.3121	4056.7	3159.35
951.2207	2222.7931	4033.85	3142.2
951.3546	2224.2733	4034	3144.75
951.4886	2225.7529	4023.05	3136.3
951.6225	2227.2317	4002.5	3114.9
951.7563	2228.7098	3998.3	3115.45
951.8902	2230.1872	3986.2	3100.45
952.024	2231.6638	3978.05	3093.6
952.1578	2233.1397	3964.65	3076.05
952.2916	2234.6149	3963.5	3080.25
952.4253	2236.0894	3944.65	3059.1
952.559	2237.5632	3945.15	3047.25
952.6927	2239.0362	3928.3	3039.45
952.8263	2240.5085	3909.5	3020.55
952.9599	2241.9801	3915	3026.65
953.0935	2243.4509	3898.75	3007.4
953.2271	2244.921	3888.55	2996.3
953.3606	2246.3904	3864.65	2973.25
953.4941	2247.8591	3859.5	2970
953.6276	2249.3271	3864.9	2974.9
953.7611	2250.7943	3844.85	2954.4
953.8945	2252.2608	3839.2	2949.95
954.0279	2253.7266	3813.95	2925.35
954.1612	2255.1917	3818.2	2929.7
954.2946	2256.656	3793.3	2905.8
954.4279	2258.1197	3777.9	2893.75
954.5612	2259.5826	3765.6	2877.55
954.6944	2261.0447	3771.45	2881.8
954.8276	2262.5062	3757.7	2866.8
954.9608	2263.9669	3752.5	2860.4
955.094	2265.4269	3742.9	2853.25
955.2271	2266.8862	3755.5	2868.1
955.3602	2268.3448	3730.3	2843.95
955.4933	2269.8026	3729.95	2843.65
955.6264	2271.2598	3720.45	2835.55
955.7594	2272.7162	3695.7	2809
955.8924	2274.1719	3699.5	2811.25
956.0253	2275.6268	3706.05	2815.05
956.1583	2277.0811	3697.6	2808.2
956.2912	2278.5346	3675.3	2788.95
956.4241	2279.9874	3669.9	2784.8
956.5569	2281.4395	3667.5	2783
956.6897	2282.8908	3660.55	2766.7
956.8225	2284.3414	3645.35	2756.65
956.9553	2285.7914	3638.75	2749.7
957.088	2287.2406	3645.2	2755.35
957.2207	2288.689	3641.8	2750.6
957.3534	2290.1368	3626.65	2733.7
957.486	2291.5838	3609.15	2715.45
957.6186	2293.0302	3606.65	2710.8
957.7512	2294.4758	3586.2	2695.1
957.8838	2295.9206	3571.3	2680
958.0163	2297.3648	3561	2674.6
958.1488	2298.8082	3554.55	2665.1
958.2813	2300.251	3558.6	2667.85
958.4137	2301.693	3547.25	2651.5
958.5461	2303.1343	3552.45	2664
958.6785	2304.5748	3524.6	2636.25
958.8108	2306.0147	3514.9	2626.9
958.9432	2307.4538	3517.6	2630.1
959.0754	2308.8922	3502.65	2620.6
959.2077	2310.3299	3492.8	2606.7
959.3399	2311.7669	3486.85	2601.4
959.4721	2313.2031	3489.25	2600.9
959.6043	2314.6387	3476.85	2588.45
959.7365	2316.0735	3451.45	2563.85
959.8686	2317.5076	3455.4	2566.65
960.0006	2318.941	3459.55	2568.95
960.1327	2320.3737	3456.65	2563.6
960.2647	2321.8056	3443.7	2548.5
960.3967	2323.2369	3426.15	2534.65
960.5287	2324.6674	3423.8	2532.75
960.6606	2326.0972	3403.55	2512.1
960.7925	2327.5263	3392.85	2500.95
960.9244	2328.9547	3379.55	2492.45
961.0562	2330.3823	3388.4	2495.95
961.1881	2331.8092	3391.05	2497
961.3198	2333.2355	3376.6	2484.7
961.4516	2334.661	3365.1	2474.9
961.5833	2336.0858	3360.05	2465.25
961.715	2337.5098	3352.8	2459.9
961.8467	2338.9332	3334.75	2443.25
961.9783	2340.3558	3328.7	2436.15
962.1099	2341.7778	3323.25	2435.9
962.2415	2343.199	3320.55	2430.6
962.373	2344.6195	3308.35	2421.7
962.5045	2346.0393	3301.2	2414.5
962.636	2347.4583	3296.2	2408.6
962.7675	2348.8767	3290.3	2399.7
962.8989	2350.2943	3291.8	2401.55
963.0303	2351.7113	3292.15	2397.15
963.1617	2353.1275	3289.1	2393.85
963.293	2354.543	3284.1	2385.35
963.4243	2355.9578	3274.75	2383.85
963.5556	2357.3718	3255.45	2370.05
963.6868	2358.7852	3239.95	2350.4
963.818	2360.1978	3231.4	2344.85
963.9492	2361.6098	3220.45	2330.65
964.0803	2363.021	3222.45	2328.8
964.2114	2364.4315	3203.6	2314.7
964.3425	2365.8413	3204.3	2314.5
964.4736	2367.2504	3184.8	2298.6
964.6046	2368.6587	3163.7	2277.55
964.7356	2370.0664	3169.3	2282.95
964.8666	2371.4733	3167.35	2280.8
964.9975	2372.8795	3149.5	2263.55
965.1284	2374.285	3155.15	2267.5
965.2593	2375.6899	3137.85	2251
965.3901	2377.0939	3117.45	2231.35
965.5209	2378.4973	3118.7	2233.7
965.6517	2379.9	3115.2	2227.6
965.7825	2381.3019	3095.95	2211.25
965.9132	2382.7032	3097.75	2212.75
966.0439	2384.1037	3092.5	2209.8
966.1745	2385.5035	3073.2	2191.3
966.3051	2386.9027	3057.3	2177.5
966.4357	2388.3011	3052.6	2165.5
966.5663	2389.6987	3058.55	2173.35
966.6968	2391.0957	3054.3	2168.65
966.8273	2392.492	3048.15	2165.4
966.9578	2393.8876	3030	2146.55
967.0882	2395.2824	3017	2133.85
967.2186	2396.6765	3014.65	2131.35
967.349	2398.07	2993.5	2109.1
967.4793	2399.4627	2991.25	2105.1
967.6097	2400.8547	2995.95	2110.65
967.7399	2402.246	2989.4	2096.35
967.8702	2403.6366	2963.35	2077.9
968.0004	2405.0265	2955.15	2071.35
968.1306	2406.4156	2953.15	2064.8
968.2607	2407.8041	2950.45	2063.9
968.3909	2409.1918	2948.65	2060.35
968.521	2410.5789	2927.1	2042
968.651	2411.9652	2927.75	2041
968.781	2413.3508	2917.95	2033.7
968.911	2414.7358	2900.75	2016.3
969.041	2416.12	2893.5	2008.6
969.1709	2417.5035	2894.25	2010.8
969.3008	2418.8863	2891.6	2005.5
969.4307	2420.2684	2891.7	2005.55
969.5606	2421.6497	2863.1	1978.3
969.6904	2423.0304	2860.3	1974.85
969.8201	2424.4104	2853.05	1967.9
969.9499	2425.7896	2853.3	1967.1
970.0796	2427.1682	2840.3	1955.45
970.2093	2428.546	2854.05	1969.45
970.3389	2429.9232	2833.05	1946.05
970.4685	2431.2996	2840.8	1955.65
970.5981	2432.6753	2845.7	1960.25
970.7277	2434.0503	2823.2	1938.05
970.8572	2435.4246	2807.8	1922.4
970.9867	2436.7982	2813.3	1923.7
971.1161	2438.1711	2803.85	1916.2
971.2456	2439.5433	2795.8	1909.85
971.375	2440.9148	2784	1892.25
971.5043	2442.2856	2762.55	1877.4
971.6336	2443.6557	2770.25	1885.1
971.7629	2445.025	2764.9	1879.05
971.8922	2446.3937	2756.7	1869.2
972.0214	2447.7617	2742.3	1855.8
972.1506	2449.1289	2745	1860.3
972.2798	2450.4955	2740.9	1850.55
972.4089	2451.8613	2748.15	1862.15
972.538	2453.2265	2729.1	1842.05
972.6671	2454.5909	2710.1	1823.8
972.7961	2455.9546	2714.7	1828.75
972.9251	2457.3177	2718.75	1833.75
973.0541	2458.68	2729.35	1841.65
973.1831	2460.0416	2708.15	1823.7
973.312	2461.4025	2699.25	1812.95
973.4408	2462.7627	2699.05	1801.2
973.5697	2464.1222	2688.45	1802.85
973.6985	2465.4811	2684.8	1798.7
973.8273	2466.8392	2688.6	1803.05
973.956	2468.1966	2677.05	1787.35
974.0847	2469.5533	2686.65	1798.05
974.2134	2470.9093	2663.2	1776.8
974.3421	2472.2645	2672.3	1785.05
974.4707	2473.6191	2649.1	1764.3
974.5993	2474.973	2640.35	1754.5
974.7278	2476.3262	2640.75	1752.65
974.8563	2477.6787	2643.65	1760.3
974.9848	2479.0305	2632.6	1746
975.1132	2480.3816	2625.25	1736.65
975.2417	2481.7319	2616.75	1731.35
975.37	2483.0816	2607.1	1718.2
975.4984	2484.4306	2604.05	1716.85
975.6267	2485.7789	2598	1713.7
975.755	2487.1264	2606.55	1722.15
975.8833	2488.4733	2574.4	1688.9
976.0115	2489.8195	2578.3	1687.3
976.1397	2491.165	2564.25	1675.65
976.2678	2492.5097	2561.4	1674.15
976.3959	2493.8538	2549	1664.65
976.524	2495.1972	2549.8	1664.05
976.6521	2496.5398	2547.3	1659.95
976.7801	2497.8818	2535.45	1646.2
976.9081	2499.2231	2531.5	1643.4
977.036	2500.5637	2512.8	1624.05
977.164	2501.9035	2527.85	1639.8
977.2918	2503.2427	2516.25	1625.65
977.4197	2504.5812	2505.1	1619.15
977.5475	2505.919	2520.45	1631.75
977.6753	2507.256	2502.45	1617.7
977.8031	2508.5924	2485.15	1597.2
977.9308	2509.9281	2492.25	1599.55
978.0585	2511.2631	2478.95	1593.3
978.1861	2512.5974	2486.75	1600.35
978.3137	2513.9309	2473	1585.15
978.4413	2515.2638	2499.75	1581.6
978.5689	2516.596	2471.6	1583.8
978.6964	2517.9275	2450.1	1563.4
978.8239	2519.2583	2447.1	1558.5
978.9513	2520.5884	2440.95	1553.45
979.0788	2521.9178	2446.05	1559.65
979.2062	2523.2465	2429	1542.75
979.3335	2524.5745	2430.6	1543.9
979.4608	2525.9018	2425.75	1539.55
979.5881	2527.2284	2424.3	1538.2
979.7154	2528.5543	2428.8	1543
979.8426	2529.8796	2413.8	1527
979.9698	2531.2041	2408.25	1521.75
980.0969	2532.5279	2403.55	1517.7
980.224	2533.851	2397.7	1509
980.3511	2535.1735	2406.45	1520.8
980.4781	2536.4952	2385.25	1497.8
980.6052	2537.8163	2390.2	1502.45
980.7321	2539.1366	2384.65	1495.25
980.8591	2540.4562	2372.15	1482.9
980.986	2541.7752	2375.1	1488.25
981.1129	2543.0935	2385.55	1496.7
981.2397	2544.411	2374.35	1484.65
981.3665	2545.7279	2371.55	1483.2
981.4933	2547.0441	2364.9	1476.7
981.62	2548.3596	2360.6	1470.15
981.7467	2549.6744	2355.9	1465.8
981.8734	2550.9885	2363.55	1474.85
982.0001	2552.3019	2349.55	1463
982.1267	2553.6146	2340.85	1453.65
982.2532	2554.9266	2332.7	1444.8
982.3798	2556.2379	2328.4	1440.75
982.5063	2557.5485	2332.3	1447.7
982.6327	2558.8585	2340.2	1447.9
982.7592	2560.1677	2331.15	1439
982.8856	2561.4762	2331.4	1445.15
983.0119	2562.7841	2321.1	1428.4
983.1383	2564.0913	2307.45	1421.25
983.2646	2565.3977	2305.1	1420.15
983.3908	2566.7035	2304.05	1415.35
983.517	2568.0086	2310.75	1420.7
983.6432	2569.313	2295.55	1407.15
983.7694	2570.6167	2292.65	1401.35
983.8955	2571.9197	2299.15	1409.3
984.0216	2573.222	2291.3	1401.25
984.1476	2574.5236	2287.5	1401.6
984.2737	2575.8246	2281.4	1391.95
984.3996	2577.1248	2284.4	1394.8
984.5256	2578.4244	2281.8	1395.3
984.6515	2579.7232	2273.2	1385.8
984.7774	2581.0214	2295.3	1379.8
984.9032	2582.3189	2274.75	1388.05
985.029	2583.6157	2272.05	1381.1
985.1548	2584.9118	2271.7	1385.05
985.2806	2586.2072	2265.9	1375.35
985.4063	2587.5019	2264.15	1376.1
985.5319	2588.7959	2258.4	1368.9
985.6576	2590.0893	2267.25	1377.4
985.7832	2591.3819	2259.4	1375.1
985.9087	2592.6739	2257.6	1372.75
986.0343	2593.9652	2256.25	1365.1
986.1597	2595.2557	2248.65	1362.3
986.2852	2596.5456	2242.2	1353.8
986.4106	2597.8348	2245.1	1357.9
986.536	2599.1234	2226.65	1339.25
986.6614	2600.4112	2221.85	1334.9
986.7867	2601.6983	2234.15	1344.65
986.912	2602.9848	2227.05	1337.75
987.0372	2604.2705	2231.3	1337.6
987.1624	2605.5556	2218.45	1328.9
987.2876	2606.84	2212.95	1326.25
987.4128	2608.1237	2220.65	1333.4
987.5379	2609.4067	2199.95	1309.05
987.6629	2610.689	2201.8	1303.5
987.788	2611.9707	2203.4	1310.7
987.913	2613.2516	2191.6	1297.95
988.0379	2614.5319	2186.75	1299.9
988.1629	2615.8115	2185.1	1299.45
988.2878	2617.0903	2173.95	1286
988.4126	2618.3685	2160.55	1273.2
988.5375	2619.6461	2162.2	1273.4
988.6622	2620.9229	2165.3	1278.4
988.787	2622.199	2159.6	1271.15
988.9117	2623.4745	2159.2	1271.4
989.0364	2624.7493	2149.15	1261.4
989.161	2626.0234	2162.15	1275.9
989.2857	2627.2968	2157.7	1271
989.4102	2628.5695	2141.55	1252
989.5348	2629.8415	2139.6	1254.05
989.6593	2631.1128	2143.95	1254.4
989.7837	2632.3835	2131.1	1244.55
989.9082	2633.6535	2132.95	1248.6
990.0326	2634.9228	2132.15	1248.15
990.1569	2636.1914	2109.6	1222.35
990.2812	2637.4593	2126.55	1239.5
990.4055	2638.7265	2108.2	1221
990.5298	2639.9931	2109.05	1224.8
990.654	2641.259	2107.8	1218.95
990.7782	2642.5242	2101.5	1214.8
990.9023	2643.7887	2104.75	1218.45
991.0264	2645.0525	2085.4	1197.3
991.1505	2646.3156	2093.6	1206.45
991.2745	2647.5781	2077.2	1190.3
991.3985	2648.8398	2070.6	1185.45
991.5225	2650.1009	2082.05	1185.1
991.6464	2651.3613	2062.55	1174.85
991.7703	2652.6211	2073.7	1185.7
991.8942	2653.8801	2063	1176.95
992.018	2655.1385	2064.35	1174.2
992.1418	2656.3961	2064.95	1177.75
992.2655	2657.6531	2062.55	1177.35
992.3892	2658.9094	2056.75	1171.95
992.5129	2660.1651	2062.45	1177.1
992.6366	2661.42	2056.85	1171.8
992.7602	2662.6743	2055.8	1168.6
992.8837	2663.9279	2060.5	1174.55
993.0073	2665.1808	2050.65	1161.7
993.1307	2666.433	2056.2	1167.75
993.2542	2667.6846	2046.4	1161.25
993.3776	2668.9354	2057.2	1169.05
993.501	2670.1856	2051.1	1163.4
993.6244	2671.4351	2043.75	1156.45
993.7477	2672.6839	2043.4	1154.55
993.8709	2673.9321	2050.75	1165
993.9942	2675.1795	2046.25	1159.35
994.1174	2676.4263	2045.4	1159.7
994.2405	2677.6724	2037.85	1155
994.3637	2678.9179	2043	1157.4
994.4868	2680.1626	2038.45	1153.2
994.6098	2681.4067	2035.55	1149.65
994.7328	2682.6501	2023.8	1137.1
994.8558	2683.8928	2028.5	1142.45
994.9788	2685.1348	2020.6	1131.1
995.1017	2686.3761	2021.5	1135.65
995.2245	2687.6168	2018.1	1131.85
995.3474	2688.8568	2010.65	1125.1
995.4702	2690.0961	1996.75	1111.2
995.5929	2691.3348	1999.05	1113.5
995.7156	2692.5727	2000.9	1117.1
995.8383	2693.81	1999.35	1114.65
995.961	2695.0466	1988.2	1104.65
996.0836	2696.2826	1983.25	1096.1
996.2062	2697.5178	1995.7	1088.65
996.3287	2698.7524	1977	1090.15
996.4512	2699.9863	1986.35	1098.65
996.5737	2701.2195	1982.25	1098.55
996.6961	2702.452	1992.15	1104.1
996.8185	2703.6839	1983.1	1095.3
996.9408	2704.9151	1976.3	1090.9
997.0631	2706.1456	1986.8	1100
997.1854	2707.3755	1985.65	1100.55
997.3077	2708.6046	1996.95	1108.45
997.4299	2709.8331	1997.95	1110.65
997.552	2711.0609	2000.65	1114.3
997.6742	2712.2881	2006.65	1118.3
997.7963	2713.5145	2015.25	1127.65
997.9183	2714.7403	2020.95	1137.35
998.0403	2715.9654	2025.35	1140.55
998.1623	2717.1899	2045.9	1145.9
998.2842	2718.4136	2042	1155.5
998.4062	2719.6367	2060.1	1175.1
998.528	2720.8591	2069.2	1179.8
998.6498	2722.0809	2067.25	1179
998.7716	2723.3019	2075.5	1186.35
998.8934	2724.5223	2078.15	1189.65
999.0151	2725.7421	2087.7	1200.35
999.1368	2726.9611	2088.8	1201.3
999.2584	2728.1795	2084.55	1196.8
999.38	2729.3972	2078.15	1191.8
999.5016	2730.6142	2072.45	1175.4
999.6231	2731.8306	2047.85	1160.25
999.7446	2733.0462	2031.35	1144.3
999.8661	2734.2612	2018	1130.05
999.9875	2735.4756	1996.95	1108.2
1000.1089	2736.6892	1969.8	1083.7
1000.2302	2737.9022	1946.5	1061.95
1000.3515	2739.1145	1939.9	1054.75
1000.4728	2740.3262	1931.35	1037.4
1000.594	2741.5372	1898.7	1014.55
1000.7152	2742.7475	1893.5	1009
1000.8363	2743.9571	1895.7	1009.5
1000.9575	2745.1661	1874.6	984.7
1001.0785	2746.3744	1863.5	977.3
1001.1996	2747.582	1860.5	973.6
1001.3206	2748.7889	1856.8	971.1
1001.4415	2749.9952	1841.35	956.7
1001.5625	2751.2008	1830.65	944.35
1001.6833	2752.4057	1832.3	943.55
1001.8042	2753.61	1825.4	938.6
1001.925	2754.8136	1820.25	934
1002.0458	2756.0165	1817.15	932.75
1002.1665	2757.2188	1810.7	927
1002.2872	2758.4204	1808.9	927.35
1002.4078	2759.6213	1801.8	914.55
1002.5285	2760.8215	1819.7	929.75
1002.649	2762.0211	1806.55	919.5
1002.7696	2763.22	1794.7	906.1
1002.8901	2764.4182	1796.55	907.95
1003.0106	2765.6158	1793.15	907.9
1003.131	2766.8127	1780.15	895.75
1003.2514	2768.009	1781.45	897.7
1003.3717	2769.2045	1772.5	889.6
1003.492	2770.3994	1782.35	895.35
1003.6123	2771.5936	1769.3	884.8
1003.7325	2772.7872	1770.4	886.7
1003.8527	2773.9801	1760.2	871.35
1003.9729	2775.1723	1769.2	867.75
1004.093	2776.3639	1761.55	878.9
1004.2131	2777.5548	1756.65	869.8
1004.3331	2778.745	1745.4	859.5
1004.4531	2779.9346	1751.5	868.85
1004.5731	2781.1235	1755.4	871.6
1004.693	2782.3117	1748.75	865
1004.8129	2783.4992	1754.9	870.8
1004.9328	2784.6861	1754.85	872.95
1005.0526	2785.8723	1753.25	867.25
1005.1723	2787.0579	1767.75	882.45
1005.2921	2788.2428	1771.5	888.05
1005.4118	2789.427	1771.1	888.95
1005.5314	2790.6106	1778.05	895.75
1005.651	2791.7935	1787.05	901.05
1005.7706	2792.9757	1789.85	907
1005.8902	2794.1573	1806.65	920.05
1006.0097	2795.3382	1821	936
1006.1291	2796.5184	1822	939.8
1006.2485	2797.698	1834.2	948.4
1006.3679	2798.8769	1849.25	964.1
1006.4873	2800.0551	1862.2	977.85
1006.6066	2801.2327	1878.2	991.85
1006.7258	2802.4096	1887.9	1004.7
1006.8451	2803.5859	1911.6	1027.15
1006.9642	2804.7615	1925.95	1042.75
1007.0834	2805.9364	1950.85	1067
1007.2025	2807.1106	1976.55	1092.3
1007.3216	2808.2842	1998	1111.7
1007.4406	2809.4572	2020.6	1135.5
1007.5596	2810.6294	2066.05	1181.6
1007.6785	2811.801	2102.7	1218.85
1007.7975	2812.972	2141.35	1260.15
1007.9163	2814.1423	2187.8	1303.55
1008.0352	2815.3119	2215.7	1331.2
1008.154	2816.4808	2266.8	1384.45
1008.2727	2817.6491	2325.6	1441.9
1008.3914	2818.8167	2361.9	1478.35
1008.5101	2819.9837	2421.75	1534.9
1008.6288	2821.15	2455.85	1573.6
1008.7474	2822.3157	2501.75	1620.55
1008.8659	2823.4807	2548.85	1665.35
1008.9844	2824.645	2611.35	1726.1
1009.1029	2825.8086	2649.75	1767.65
1009.2214	2826.9716	2701.95	1819
1009.3398	2828.134	2726.75	1844.45
1009.4581	2829.2957	2773.2	1890.1
1009.5764	2830.4567	2804.3	1920.9
1009.6947	2831.617	2806.5	1923.1
1009.813	2832.7767	2824.85	1943.65
1009.9312	2833.9358	2833.35	1951.55
1010.0493	2835.0941	2838.45	1951.5
1010.1675	2836.2519	2823.5	1939.95
1010.2855	2837.4089	2798.2	1914
1010.4036	2838.5653	2797.05	1915.3
1010.5216	2839.7211	2797.15	1915.25
1010.6396	2840.8761	2788.85	1902.55
1010.7575	2842.0306	2813.15	1931.8
1010.8754	2843.1843	2848	1965.3
1010.9932	2844.3374	2885.9	2002.9
1011.111	2845.4899	2940.7	2056.4
1011.2288	2846.6417	3012.65	2128.65
1011.3465	2847.7928	3095.55	2211.45
1011.4642	2848.9433	3153.05	2271.75
1011.5818	2850.0931	3217.65	2334.9
1011.6995	2851.2422	3304.45	2419.4
1011.817	2852.3907	3357.3	2475.05
1011.9345	2853.5385	3427.9	2545.5
1012.052	2854.6857	3499.1	2590.3
1012.1695	2855.8323	3535.5	2652.2
1012.2869	2856.9781	3589.7	2706.2
1012.4042	2858.1233	3630.45	2748.45
1012.5216	2859.2679	3660.55	2776.25
1012.6389	2860.4118	3715.95	2835.85
1012.7561	2861.555	3762.5	2874.8
1012.8733	2862.6976	3795.05	2910.6
1012.9905	2863.8395	3819.1	2937.3
1013.1076	2864.9808	3843.15	2961.4
1013.2247	2866.1214	3864.55	2981.85
1013.3417	2867.2614	3866.05	2982.85
1013.4587	2868.4007	3907.1	3021.55
1013.5757	2869.5393	3898.25	3012.55
1013.6926	2870.6773	3913.75	3026.95
1013.8095	2871.8146	3925.65	3036.8
1013.9263	2872.9513	3927.3	3042.15
1014.0431	2874.0874	3922.5	3039.05
1014.1599	2875.2227	3897.2	3015.65
1014.2766	2876.3574	3882.7	2999.15
1014.3933	2877.4915	3861.35	2980.6
1014.51	2878.6249	3834.1	2952.65
1014.6266	2879.7577	3803.45	2919.95
1014.7431	2880.8898	3797.15	2904.05
1014.8596	2882.0212	3766.15	2884
1014.9761	2883.152	3760.55	2876.95
1015.0925	2884.2821	3744.1	2862.05
1015.2089	2885.4116	3750.6	2868.3
1015.3253	2886.5405	3753.25	2872.1
1015.4416	2887.6686	3759.1	2872.15
1015.5579	2888.7962	3754.9	2874.8
1015.6741	2889.923	3764.4	2882.6
1015.7903	2891.0493	3765.45	2885.2
1015.9065	2892.1748	3772.35	2890.75
1016.0226	2893.2997	3784.05	2902.85
1016.1387	2894.424	3808.7	2928.6
1016.2547	2895.5476	3813.2	2933.8
1016.3707	2896.6706	3834.9	2954.65
1016.4866	2897.7929	3865.75	2983.6
1016.6025	2898.9145	3895.4	3016.55
1016.7184	2900.0355	3926.95	3044
1016.8342	2901.1559	3951.65	3070.5
1016.95	2902.2756	3996	3115.05
1017.0658	2903.3946	4011.8	3130.3
1017.1815	2904.513	4043.95	3160.6
1017.2971	2905.6308	4060.95	3179.5
1017.4127	2906.7479	4100.5	3219.6
1017.5283	2907.8643	4124.85	3242.4
1017.6439	2908.9801	4128.3	3247.6
1017.7594	2910.0953	4128.15	3248.7
1017.8748	2911.2098	4131.05	3244.7
1017.9902	2912.3236	4135.5	3249.45
1018.1056	2913.4368	4109.9	3223.95
1018.2209	2914.5494	4110.05	3229.7
1018.3362	2915.6613	4071.9	3184.25
1018.4515	2916.7725	4035	3148.8
1018.5667	2917.8831	4000.4	3117.95
1018.6819	2918.9931	3980.45	3094.85
1018.797	2920.1024	3941.8	3061.45
1018.9121	2921.211	3911	3028.15
1019.0271	2922.319	3888.95	3006.75
1019.1421	2923.4264	3892	3013.55
1019.2571	2924.5331	3876.25	2994.85
1019.372	2925.6391	3869.5	2989.35
1019.4869	2926.7445	3850.75	2969.5
1019.6017	2927.8493	3842.1	2959.4
1019.7165	2928.9534	3840.25	2959.85
1019.8313	2930.0569	3840.85	2957.25
1019.946	2931.1597	3830.65	2947.35
1020.0606	2932.2619	3824.2	2944.45
1020.1753	2933.3634	3828.15	2947.2
1020.2899	2934.4643	3828.9	2942.65
1020.4044	2935.5645	3803.8	2916.05
1020.5189	2936.6641	3770.6	2884.2
1020.6334	2937.763	3719.75	2839.95
1020.7478	2938.8613	3685.75	2801.5
1020.8622	2939.959	3610.35	2723.8
1020.9765	2941.056	3543.35	2664.6
1021.0908	2942.1523	3451.75	2570.05
1021.2051	2943.248	3394.2	2514.35
1021.3193	2944.3431	3291.8	2411.1
1021.4334	2945.4375	3193.7	2313
1021.5476	2946.5313	3078.7	2201.35
1021.6617	2947.6244	2986.3	2105.75
1021.7757	2948.7169	2882.8	2001.05
1021.8897	2949.8087	2785.7	1904.4
1022.0037	2950.8999	2687.65	1807.15
1022.1176	2951.9904	2620.85	1740.45
1022.2315	2953.0803	2553.7	1671.35
1022.3453	2954.1696	2477.35	1597.1
1022.4591	2955.2582	2421.2	1539.8
1022.5728	2956.3462	2379.15	1499.2
1022.6865	2957.4335	2328.45	1447.05
1022.8002	2958.5202	2303.1	1420.45
1022.9138	2959.6062	2281.05	1401.05
1023.0274	2960.6916	2260.5	1380.6
1023.141	2961.7764	2224.45	1342.15
1023.2545	2962.8605	2211.5	1330.2
1023.3679	2963.9439	2202.7	1322.75
1023.4813	2965.0267	2193.7	1312.65
1023.5947	2966.1089	2198.75	1296.75
1023.708	2967.1905	2180.3	1299.15
1023.8213	2968.2714	2171.85	1292.2
1023.9346	2969.3516	2165.5	1285.25
1024.0478	2970.4312	2168.1	1281.05
1024.1609	2971.5102	2163.35	1283.8
1024.274	2972.5885	2166.9	1288.7
1024.3871	2973.6662	2173.95	1291.4
1024.5002	2974.7432	2159.3	1279.05
1024.6132	2975.8196	2160.05	1277.95
1024.7261	2976.8954	2143.95	1264.75
1024.839	2977.9705	2132.75	1252.05
1024.9519	2979.045	2120.4	1241.4
1025.0647	2980.1188	2097.5	1216.5
1025.1775	2981.192	2082.3	1204.15
1025.2902	2982.2645	2058.7	1177.95
1025.4029	2983.3364	2036.9	1158.35
1025.5156	2984.4077	2019.55	1141.1
1025.6282	2985.4783	1988.05	1103.8
1025.7407	2986.5483	1939.8	1059.6
1025.8532	2987.6177	1918.15	1041.15
1025.9657	2988.6864	1885.55	1005.8
1026.0782	2989.7545	1850.45	967.95
1026.1906	2990.8219	1815.3	934.8
1026.3029	2991.8887	1791.2	905.9
1026.4152	2992.9548	1744.5	864.5
1026.5275	2994.0204	1714.05	834.9
1026.6397	2995.0852	1685.5	805.95
1026.7519	2996.1495	1676.6	796.15
1026.864	2997.2131	1636.5	756.95
1026.9761	2998.276	1614.5	735.7
1027.0882	2999.3383	1589.3	709.15
1027.2002	3000.4	1569.3	688.85
1027.3122	3001.4611	1557.1	676.2
1027.4241	3002.5215	1537.95	658.75
1027.536	3003.5812	1524.7	645.65
1027.6478	3004.6404	1504.15	624.05
1027.7596	3005.6989	1509.15	630.35
1027.8714	3006.7567	1497.4	618.05
1027.9831	3007.8139	1512.75	602.25
1028.0947	3008.8705	1483.45	603.7
1028.2064	3009.9264	1472.45	591.15
1028.3179	3010.9818	1463.7	583.6
1028.4295	3012.0364	1459.2	580.5
1028.541	3013.0905	1456.7	576.75
1028.6524	3014.1439	1440.05	559.6
1028.7638	3015.1966	1449.45	569.5
1028.8752	3016.2487	1449.25	571.55
1028.9865	3017.3002	1444.3	559.85
1029.0978	3018.3511	1450.85	572.4
1029.209	3019.4013	1441	561.9
1029.3202	3020.4509	1437.4	557.3
1029.4314	3021.4998	1441.45	562.45
1029.5425	3022.5481	1439.35	559.35
1029.6535	3023.5958	1433.5	553.7
1029.7645	3024.6428	1437.65	558.85
1029.8755	3025.6892	1436.35	558.3
1029.9864	3026.735	1428.65	549.6
1030.0973	3027.7802	1434.75	554.7
1030.2082	3028.8247	1438.95	559.75
1030.319	3029.8685	1439.05	560.5
1030.4297	3030.9118	1446.5	566.9
1030.5404	3031.9544	1445.9	566.65
1030.6511	3032.9963	1444.7	564.05
1030.7617	3034.0376	1451.25	571.25
1030.8723	3035.0783	1443.4	560.65
1030.9829	3036.1184	1455.9	577.15
1031.0934	3037.1578	1456.35	577.85
1031.2038	3038.1966	1461.7	581.3
1031.3142	3039.2348	1460.85	580.9
1031.4246	3040.2723	1474.7	587.15
1031.5349	3041.3092	1453.9	575.3
1031.6452	3042.3455	1461.45	583
1031.7554	3043.3811	1456.6	577
1031.8656	3044.4161	1447.85	568.1
1031.9758	3045.4505	1440.3	561.45
1032.0859	3046.4842	1438.1	558.05
1032.1959	3047.5173	1427.95	550.7
1032.3059	3048.5498	1427.5	548.75
1032.4159	3049.5816	1414.6	534.3
1032.5258	3050.6128	1420.1	539.25
1032.6357	3051.6434	1416.85	536.1
1032.7455	3052.6734	1405.35	525.2
1032.8553	3053.7027	1397.55	518
1032.9651	3054.7314	1393.5	514.6
1033.0748	3055.7594	1392.2	515.55
1033.1845	3056.7868	1379.85	499.35
1033.2941	3057.8136	1382.05	503.25
1033.4037	3058.8398	1376.1	500.65
1033.5132	3059.8653	1366.8	486.65
1033.6227	3060.8902	1368	488.95
1033.7321	3061.9145	1355.95	476.2
1033.8415	3062.9381	1355	476.65
1033.9509	3063.9612	1364.75	471.6
1034.0602	3064.9835	1349.15	468.65
1034.1694	3066.0053	1344	462.6
1034.2787	3067.0264	1331.95	452.45
1034.3878	3068.0469	1321.1	438.75
1034.497	3069.0668	1322.5	441.2
1034.6061	3070.086	1310.95	433.95
1034.7151	3071.1046	1301.85	424.5
1034.8241	3072.1226	1293.55	413.55
1034.9331	3073.1399	1285.5	407.85
1035.042	3074.1567	1277.6	398.3
1035.1508	3075.1727	1273.2	390.95
1035.2597	3076.1882	1261.9	385.05
1035.3684	3077.203	1249.7	371.7
1035.4772	3078.2173	1248.8	369.25
1035.5859	3079.2308	1242.45	362
1035.6945	3080.2438	1226.9	347.05
1035.8031	3081.2561	1219.5	341.95
1035.9117	3082.2678	1218	340.35
1036.0202	3083.2789	1208.3	327
1036.1286	3084.2893	1198.35	320
1036.2371	3085.2991	1190.65	309.45
1036.3454	3086.3083	1192.6	308.45
1036.4538	3087.3169	1183	302.55
1036.562	3088.3248	1171.45	292.9
1036.6703	3089.3321	1174.3	294.95
1036.7785	3090.3388	1172.75	294.3
1036.8866	3091.3449	1162.2	283.3
1036.9948	3092.3503	1164	282.3
1037.1028	3093.3551	1156.25	277.9
1037.2108	3094.3593	1147.25	268.55
1037.3188	3095.3629	1150.3	274
1037.4267	3096.3658	1149.7	270.45
1037.5346	3097.3681	1146.25	268.35
1037.6425	3098.3698	1141.95	264.4
1037.7503	3099.3708	1143.35	259.15
1037.858	3100.3713	1136.35	257.25
1037.9657	3101.3711	1134.95	256.3
1038.0734	3102.3702	1266.2	250.6
1038.181	3103.3688	1125.85	247.5
1038.2886	3104.3667	1121.15	243.95
1038.3961	3105.364	1120.45	241
1038.5036	3106.3607	1122.7	242.1
1038.611	3107.3568	1121.05	242.5
1038.7184	3108.3522	1112.25	234.6
1038.8257	3109.347	1113.65	234.6
1038.933	3110.3412	1113.05	229.2
1039.0403	3111.3348	1107.1	230.2
1039.1475	3112.3277	1104.7	228.2
1039.2547	3113.32	1101.1	224.85
1039.3618	3114.3117	1101.7	223.75
1039.4689	3115.3028	1101	221.95
1039.5759	3116.2932	1099.9	221.55
1039.6829	3117.2831	1102.15	218.6
1039.7898	3118.2723	1091.95	213.15
1039.8967	3119.2608	1088.2	210.15
1040.0035	3120.2488	1086.25	207.9
1040.1103	3121.2361	1089.35	208.75
1040.2171	3122.2229	1086.5	210
1040.3238	3123.209	1086.95	206.95
1040.4305	3124.1944	1080.95	203.5
1040.5371	3125.1793	1083.55	204.65
1040.6437	3126.1635	1085.55	207.55
1040.7502	3127.1471	1080.05	201.85
1040.8567	3128.1301	1079.6	202
1040.9631	3129.1125	1074.95	196.85
1041.0695	3130.0942	1073	195.7
1041.1759	3131.0753	1086.5	199.6
1041.2822	3132.0558	1071.95	192.4
1041.3884	3133.0357	1072.8	195.3
1041.4946	3134.015	1068.85	191.1
1041.6008	3134.9936	1068.2	187.5
1041.7069	3135.9716	1085.8	186.75
1041.813	3136.949	1066.85	190.7
1041.919	3137.9258	1084.25	187.35
1042.025	3138.902	1070	188.5
1042.1309	3139.8775	1061.05	184.55
1042.2368	3140.8524	1059.4	180
1042.3427	3141.8267	1055.7	176.05
1042.4485	3142.8004	1059.95	178.8
1042.5542	3143.7735	1063.45	181.7
1042.6599	3144.7459	1056.3	175.8
1042.7656	3145.7178	1058.6	179.95
1042.8712	3146.689	1052.45	174.2
1042.9768	3147.6596	1051.2	170.9
1043.0823	3148.6295	1049.45	171.4
1043.1878	3149.5989	1047.75	171.55
1043.2932	3150.5676	1043.95	167.85
1043.3986	3151.5357	1045.9	170.2
1043.5039	3152.5032	1044.6	168.45
1043.6092	3153.4701	1042.8	163.65
1043.7145	3154.4364	1044.7	162.65
1043.8197	3155.402	1039.9	162.15
1043.9248	3156.367	1043.65	164.5
1044.03	3157.3315	1068.25	160.9
1044.135	3158.2952	1039.6	161.5
1044.24	3159.2584	1033.7	158.05
1044.345	3160.221	1035.45	157.65
1044.4499	3161.1829	1035.4	159.35
1044.5548	3162.1442	1031.25	155.1
1044.6596	3163.105	1034.7	157.95
1044.7644	3164.065	1030.95	154.55
1044.8692	3165.0245	1030.8	150.2
1044.9739	3165.9834	1026.15	152.2
1045.0785	3166.9416	1025.75	150
1045.1831	3167.8993	1029.5	150.45
1045.2877	3168.8563	1025.05	147.3
1045.3922	3169.8127	1024.4	149.55
1045.4966	3170.7684	1023.8	147.05
1045.6011	3171.7236	1023.95	145.55
1045.7054	3172.6782	1021.5	144.55
1045.8098	3173.6321	1022.2	145.15
1045.914	3174.5854	1025	144.6
1046.0183	3175.5381	1019.9	141.85
1046.1224	3176.4902	1015.75	140
1046.2266	3177.4417	1014.45	139.45
1046.3307	3178.3926	1013.45	136.9
1046.4347	3179.3428	1016.9	140.45
1046.5387	3180.2924	1011.75	134.85
1046.6427	3181.2415	1015.1	138
1046.7466	3182.1899	1017.55	138.9
1046.8504	3183.1377	1014.8	138.05
1046.9542	3184.0848	1011.6	132.1
1047.058	3185.0314	1009	133.1
1047.1617	3185.9773	1008.95	133.15
1047.2654	3186.9227	1007.45	129.55
1047.369	3187.8674	1007.5	130.65
1047.4726	3188.8115	1012.6	132.05
1047.5761	3189.755	1006.9	129.75
1047.6796	3190.6979	1004.1	128.1
1047.783	3191.6402	1003.45	126.7
1047.8864	3192.5818	1001.3	124.5
1047.9898	3193.5229	1020.75	124.3
1048.0931	3194.4633	1003.1	126.8
1048.1963	3195.4031	1002	125.6
1048.2995	3196.3423	1000.45	124.6
1048.4027	3197.2809	1002.45	123.5
1048.5058	3198.2189	1002.55	126
1048.6089	3199.1563	1004.95	122.55
1048.7119	3200.0931	995.25	119.1
1048.8148	3201.0292	999.35	123.6
1048.9178	3201.9648	993.45	116.55
1049.0206	3202.8997	999.85	119.55
1049.1235	3203.834	997.8	121.35
1049.2262	3204.7677	994.35	119.3
1049.329	3205.7008	997.5	121.2
1049.4317	3206.6333	992.75	115.35
1049.5343	3207.5652	993.8	115.7
1049.6369	3208.4964	990.75	114.9
1049.7394	3209.4271	990.7	114.05
1049.8419	3210.3571	992.25	115.4
1049.9444	3211.2865	990.6	113.4
1050.0468	3212.2154	988.4	110.25
1050.1491	3213.1436	995.7	116.45
1050.2514	3214.0712	994.15	111
1050.3537	3214.9982	986.95	112.65
1050.4559	3215.9246	987.6	109.75
1050.5581	3216.8503	984.15	108.05
1050.6602	3217.7755	987.85	110.85
1050.7623	3218.7001	984.2	110.15
1050.8643	3219.624	984.9	108.45
1050.9663	3220.5473	983.95	105.3
1051.0682	3221.4701	984.15	105.95
1051.1701	3222.3922	982.6	105.15
1051.2719	3223.3137	983.9	107.6
1051.3737	3224.2346	981.4	103.15
1051.4754	3225.1549	981.45	106.4
1051.5771	3226.0746	977.95	102.9
1051.6788	3226.9937	981.65	104.05
1051.7804	3227.9121	978.3	102.6
1051.8819	3228.83	978.7	104.4
1051.9834	3229.7473	978.4	103
1052.0849	3230.6639	975.4	99.8
1052.1863	3231.5799	977.45	101.35
1052.2876	3232.4954	978.15	102.5
1052.3889	3233.4102	976	100.35
1052.4902	3234.3244	976.05	98.6
1052.5914	3235.238	976.25	98.7
1052.6926	3236.151	993.45	94.75
1052.7937	3237.0634	969.2	94.45
1052.8948	3237.9752	974.7	97.7
1052.9958	3238.8864	974.35	97.8
1053.0968	3239.797	970.2	95.9
1053.1977	3240.7069	970.4	94.15
1053.2986	3241.6163	973.05	98.35
1053.3994	3242.5251	969.15	94.75
1053.5002	3243.4332	966.15	90.6
1053.6009	3244.3408	966.75	90.35
1053.7016	3245.2477	967.95	93.6
1053.8022	3246.154	972.15	93.35
1053.9028	3247.0598	966.65	90.25
1054.0034	3247.9649	965.85	88.6
1054.1039	3248.8694	964.6	89.4
1054.2043	3249.7733	965.85	89.4
1054.3047	3250.6766	962.7	85.65
1054.4051	3251.5793	962.8	86.1
1054.5054	3252.4814	959.4	85.3
1054.6056	3253.3829	959.05	83.5
1054.7058	3254.2838	960.65	85
1054.806	3255.1841	957.3	80
1054.9061	3256.0838	957.1	83.7
1055.0061	3256.9829	958.35	84.4
1055.1062	3257.8814	958.2	81.75
1055.2061	3258.7792	961.1	83.05
1055.306	3259.6765	956.9	79.85
1055.4059	3260.5731	955.55	80.95
1055.5057	3261.4692	950.9	75.45
1055.6055	3262.3647	951	73.2
1055.7052	3263.2595	948.9	73.2
1055.8049	3264.1538	952.25	76.55
1055.9045	3265.0474	950	74.8
1056.0041	3265.9404	946.7	72.15
1056.1036	3266.8329	946.9	72.25
1056.2031	3267.7247	955.05	70.8
1056.3025	3268.616	939.45	66.8
1056.4019	3269.5066	940.25	65.35
1056.5013	3270.3966	941.7	64.2
1056.6005	3271.286	934.8	60.55
