Software Version:	3.9.2.0
Unit SN:	10000200
Spectrometer SN:	6960
Date:	3/8/2024 1:14:41 PM
Data Line Index:	25
Spectral Points:	2048
Integration time (ms):	125
Averages:	20
Delay (ms):	30000
Sequence Number:	1
Processing:	dark subtract
Laser Power (mW):	305
Laser Current (mA):	822
Laser Diode Temp (C):	25
Laser Case Temp (C):	26.1
System Temp (C):	26.1
Spectrometer Temp (C):	24
CCD Temp (C):	0.008
Secondary Temp (C):	19.995
Heatsink Temp (C):	20.389
CCDPCB Temp (C):	36.107
SecondaryPCB Temp (C):	31.56

Wavelength	RamanShift	Raw Counts	Dark Subtracted
787.061	30.1047	455.5	48.3
787.2016	32.3739	455.25	49.3
787.3422	34.6426	458.35	50.65
787.4828	36.9109	467.2	57.45
787.6235	39.1787	473.55	62.75
787.7642	41.4461	482.45	64.9
787.9049	43.7131	492.9	73.2
788.0456	45.9796	498.55	75.25
788.1863	48.2456	508.05	79.75
788.3271	50.5112	517.45	86.1
788.4679	52.7764	527.35	91
788.6087	55.0411	535.3	94.3
788.7496	57.3054	544.45	98.5
788.8904	59.5692	556.1	110.3
789.0313	61.8326	565.65	117.25
789.1722	64.0955	577.7	124.35
789.3132	66.3579	592.8	135.55
789.4541	68.6199	614.85	152.95
789.5951	70.8815	648.5	180.1
789.7361	73.1426	729.85	260
789.8771	75.4032	924.95	449.8
790.0181	77.6634	1421	941.9
790.1592	79.9231	2569.85	2082.25
790.3003	82.1824	5052.4	4546.1
790.4414	84.4412	9522.9	8981.4
790.5825	86.6995	15692.45	15114.15
790.7237	88.9574	21684.35	21067.8
790.8648	91.2148	25803.8	25167.4
791.006	93.4717	27699.6	27042.8
791.1472	95.7282	27980.25	27315.75
791.2885	97.9842	27807.3	27139.1
791.4297	100.2398	27160.9	26491.1
791.571	102.4949	26486.25	25811.6
791.7123	104.7495	25619.25	24944
791.8536	107.0036	24752.2	24077.4
791.9949	109.2573	23977	23301.9
792.1363	111.5105	23238.55	22557
792.2777	113.7632	22547.35	21862.65
792.4191	116.0154	22000.4	21302.2
792.5605	118.2672	21561.2	20870.35
792.7019	120.5185	21070.75	20379.9
792.8434	122.7693	20793.3	20102.25
792.9849	125.0197	20471.9	19775.85
793.1264	127.2696	20201.25	19502.25
793.2679	129.519	20009.95	19306.25
793.4094	131.7679	19746.1	19041.65
793.551	134.0163	19547.4	18836.85
793.6926	136.2642	19282.5	18570.4
793.8342	138.5117	18985	18264.3
793.9758	140.7587	18715.8	17997.75
794.1175	143.0052	18467.15	17740.9
794.2591	145.2512	18150.7	17429.25
794.4008	147.4967	17914.75	17192.75
794.5425	149.7417	17709.8	16985.5
794.6842	151.9863	17567.8	16834.3
794.826	154.2304	17491.4	16757.65
794.9677	156.4739	17361.5	16621.8
795.1095	158.717	17273.75	16536
795.2513	160.9596	17079.4	16335.65
795.3931	163.2017	16834.2	16090.7
795.535	165.4433	16580.25	15832.1
795.6768	167.6844	16230.6	15484.3
795.8187	169.925	15944.55	15194.15
795.9606	172.1651	15580.5	14829.8
796.1025	174.4047	15312.95	14558.9
796.2445	176.6439	15038.05	14282.8
796.3864	178.8825	14787.7	14028.25
796.5284	181.1206	14660.2	13895.05
796.6704	183.3582	14499.3	13730.6
796.8124	185.5954	14412.15	13637.4
796.9544	187.832	14342	13569.1
797.0965	190.0681	14297.6	13518.1
797.2386	192.3037	14300.45	13518.7
797.3806	194.5388	14271.8	13488.05
797.5228	196.7734	14312.45	13529.6
797.6649	199.0075	14396.1	13608.95
797.807	201.2411	14511.25	13719.75
797.9492	203.4742	14607.3	13813.35
798.0914	205.7068	14763.7	13970
798.2336	207.9389	14859	14064.1
798.3758	210.1704	15004.25	14212.1
798.518	212.4015	15101.15	14319.65
798.6603	214.632	15282.2	14501.75
798.8025	216.862	15464.2	14691.1
798.9448	219.0915	15577.15	14802.2
799.0871	221.3205	15739.7	14960.5
799.2294	223.549	15956.35	15185.7
799.3718	225.777	16168.85	15391.55
799.5141	228.0044	16444.25	15660.65
799.6565	230.2314	16747.6	15965.25
799.7989	232.4578	17030	16253.4
799.9413	234.6837	17302.45	16509.85
800.0837	236.909	17479.85	16684.5
800.2262	239.1339	17467	16646.05
800.3687	241.3582	17319.85	16512.3
800.5111	243.582	17084.3	16246.35
800.6536	245.8053	16836.25	16013.5
800.7961	248.0281	16616.4	15800.1
800.9387	250.2503	16474.4	15652.95
801.0812	252.472	16416.5	15596.95
801.2238	254.6932	16434.9	15611.55
801.3664	256.9139	16467.95	15643.9
801.509	259.134	16531.65	15703.95
801.6516	261.3536	16656.9	15831.7
801.7942	263.5727	16809.95	15983.35
801.9369	265.7912	16886.05	16060.75
802.0795	268.0092	17009.65	16183.25
802.2222	270.2267	17092.6	16265.55
802.3649	272.4436	17099.7	16264.55
802.5076	274.6601	17089.45	16249.9
802.6504	276.8759	16964.7	16135.4
802.7931	279.0913	16911.65	16078.95
802.9359	281.3061	16808.1	15972.3
803.0787	283.5204	16802.5	15957.6
803.2215	285.7341	16865.95	16021.4
803.3643	287.9473	16960.75	16108.75
803.5071	290.16	17107.2	16261.4
803.6499	292.3721	17351.05	16512.65
803.7928	294.5837	17728.05	16887
803.9357	296.7947	17991.95	17151.8
804.0786	299.0052	18181.1	17339.65
804.2215	301.2152	18079.85	17236.35
804.3644	303.4246	17810.1	16973
804.5074	305.6334	17314.65	16477.2
804.6503	307.8418	16852.55	16006.9
804.7933	310.0495	16456.85	15611.8
804.9363	312.2568	16087.1	15238.75
805.0793	314.4635	15806.05	14954.25
805.2223	316.6696	15619.45	14767.55
805.3653	318.8752	15518.35	14659.45
805.5084	321.0802	15514.15	14660.3
805.6514	323.2847	15613.15	14756.85
805.7945	325.4887	15641.6	14784.3
805.9376	327.692	15568.65	14712.3
806.0807	329.8949	15526.7	14667.35
806.2238	332.0972	15285.35	14422.55
806.367	334.2989	15032.05	14167.25
806.5101	336.5001	14790.95	13925.4
806.6533	338.7007	14589.55	13726.65
806.7965	340.9008	14461.3	13598.8
806.9397	343.1003	14319.45	13451.85
807.0829	345.2992	14266.2	13396.65
807.2261	347.4976	14237.05	13368.85
807.3693	349.6955	14187.95	13314.6
807.5126	351.8927	14241.5	13366.15
807.6559	354.0895	14191.25	13307.75
807.7991	356.2856	14204.75	13328.75
807.9424	358.4812	14161.05	13287.7
808.0857	360.6763	14200.1	13319.35
808.2291	362.8707	14205.9	13331.35
808.3724	365.0646	14220.95	13339.15
808.5158	367.258	14248.85	13366.1
808.6591	369.4508	14337.9	13452.1
808.8025	371.643	14430.55	13545.5
808.9459	373.8346	14430.65	13543.1
809.0893	376.0257	14462.5	13575.3
809.2327	378.2162	14418.7	13536.7
809.3762	380.4062	14368.85	13484
809.5196	382.5956	14228.65	13341.7
809.6631	384.7844	14121.2	13243.95
809.8066	386.9726	14001.1	13125.15
809.9501	389.1603	13938.35	13061.45
810.0936	391.3474	13938.75	13028.8
810.2371	393.5339	13873.8	12993.25
810.3806	395.7199	13809.55	12927.65
810.5241	397.9052	13859.05	12980.35
810.6677	400.09	13900.85	13019.75
810.8113	402.2743	13990.85	13113.55
810.9548	404.4579	14116.75	13233.55
811.0984	406.641	14319.95	13439.7
811.2421	408.8235	14498.9	13614.75
811.3857	411.0054	14752.15	13866.45
811.5293	413.1868	15104.8	14213.5
811.673	415.3675	15343.05	14443.45
811.8166	417.5477	15441.45	14550.75
811.9603	419.7273	15453.95	14558.75
812.104	421.9064	15353.1	14450.9
812.2477	424.0848	15264.9	14375.65
812.3914	426.2627	15088.75	14191.6
812.5351	428.4399	14813.35	13919.5
812.6788	430.6166	14477.25	13573.6
812.8226	432.7928	14119.9	13219.25
812.9663	434.9683	13818.4	12923.1
813.1101	437.1432	13599.3	12703.65
813.2539	439.3176	13420.2	12530.45
813.3977	441.4914	13322.05	12435.55
813.5415	443.6645	13287.8	12398.9
813.6853	445.8371	13230.6	12335.35
813.8291	448.0091	13218.25	12320.3
813.973	450.1806	13175.9	12282.55
814.1168	452.3514	13143.5	12247.5
814.2607	454.5216	13180.7	12278.9
814.4046	456.6913	13099.55	12201.1
814.5485	458.8603	13136.65	12238.9
814.6924	461.0288	13223.35	12336.5
814.8363	463.1967	13195.4	12308.6
814.9802	465.3639	13305.35	12413.7
815.1241	467.5306	13347.85	12456.2
815.2681	469.6967	13450	12560.55
815.412	471.8622	13516.5	12629.4
815.556	474.0271	13638.1	12747.15
815.7	476.1914	13725.55	12827.45
815.844	478.3551	13684.5	12787.8
815.988	480.5182	13741.55	12849.25
816.132	482.6807	13781.9	12898.35
816.276	484.8426	13932.15	13056.5
816.4201	487.0039	14222.25	13339.75
816.5641	489.1647	14592.45	13697.15
816.7082	491.3248	14979.45	14081.45
816.8522	493.4843	15150.7	14259.7
816.9963	495.6432	15125.1	14235.9
817.1404	497.8015	14996.4	14094.35
817.2845	499.9592	14997.55	14087.5
817.4286	502.1163	14834.8	13927.15
817.5727	504.2728	14594.25	13698.25
817.7168	506.4287	14307.35	13426.05
817.861	508.5839	13916.9	13031.35
818.0051	510.7386	13658.5	12760.45
818.1493	512.8927	13540.7	12632.05
818.2935	515.0461	13463.85	12559.85
818.4377	517.199	13478.2	12574.2
818.5818	519.3512	13547.6	12640.85
818.726	521.5029	13698.05	12790.2
818.8703	523.6539	13864.7	12959.4
819.0145	525.8043	13881.6	12972.95
819.1587	527.9541	13885.8	12975.2
819.303	530.1033	13796.6	12886.15
819.4472	532.2519	13758.85	12852.1
819.5915	534.3999	13806.3	12895.8
819.7357	536.5472	13980.2	13073.15
819.88	538.694	14343.05	13441.45
820.0243	540.8401	14816.55	13907.05
820.1686	542.9856	15204.75	14289.1
820.3129	545.1305	15312.4	14387
820.4572	547.2748	15199.8	14271.5
820.6016	549.4185	14897.9	13972.05
820.7459	551.5615	14666.7	13741.1
820.8902	553.704	14580.8	13658.05
821.0346	555.8458	14581.3	13663.65
821.1789	557.987	14686.25	13772
821.3233	560.1276	14772.2	13850.6
821.4677	562.2675	14941.5	14021.45
821.6121	564.4069	15165.1	14246.5
821.7565	566.5456	15363.35	14447.9
821.9009	568.6837	15353.7	14437
822.0453	570.8212	15022.65	14110.7
822.1897	572.958	14544.15	13628.35
822.3342	575.0942	14128.15	13216.45
822.4786	577.2299	13847.55	12941.05
822.6231	579.3648	13716.8	12821.75
822.7675	581.4992	13739.8	12858.35
822.912	583.6329	13909.5	13024.4
823.0565	585.766	14126.95	13236.2
823.201	587.8985	14274.2	13372.9
823.3454	590.0304	14283.7	13351.4
823.4899	592.1616	14225.4	13311.6
823.6345	594.2922	14113.6	13193.4
823.779	596.4222	13968.95	13044.4
823.9235	598.5515	13793.05	12864.1
824.068	600.6802	13614.1	12689.6
824.2126	602.8083	13446.65	12525.7
824.3571	604.9358	13420.7	12500.15
824.5017	607.0626	13381.65	12455.4
824.6462	609.1888	13445.4	12511.8
824.7908	611.3144	13457.75	12529.75
824.9354	613.4393	13440.05	12514.15
825.08	615.5636	13442.65	12511.35
825.2246	617.6873	13420.9	12491.85
825.3692	619.8103	13347.45	12419.75
825.5138	621.9327	13215.4	12287.3
825.6584	624.0544	13102.05	12182.3
825.803	626.1756	13031.5	12108.3
825.9477	628.2961	12951.5	12023.35
826.0923	630.4159	12865.55	11939.55
826.237	632.5351	12825.7	11894.15
826.3816	634.6537	12808.15	11879.7
826.5263	636.7716	12811.45	11875.8
826.6709	638.8889	12825.7	11887.95
826.8156	641.0056	12869.3	11934.5
826.9603	643.1216	12809.45	11873.95
827.105	645.237	12817.4	11883.05
827.2497	647.3518	12782.5	11858.75
827.3944	649.4659	12746.4	11829.2
827.5391	651.5793	12754.75	11831.45
827.6838	653.6922	12736.65	11812.55
827.8285	655.8043	12692.4	11765.55
827.9733	657.9159	12721	11794.5
828.118	660.0268	12622.7	11694.55
828.2627	662.137	12632.65	11701.75
828.4075	664.2466	12640.4	11702.5
828.5522	666.3556	12636.9	11704.45
828.697	668.4639	12587.55	11658
828.8418	670.5716	12594.65	11669.6
828.9865	672.6786	12652.35	11725.55
829.1313	674.785	12659.9	11722.3
829.2761	676.8907	12702.35	11774.4
829.4209	678.9958	12746.2	11821.5
829.5657	681.1002	12718.9	11788.05
829.7105	683.204	12701.95	11763.8
829.8553	685.3072	12653.8	11713.65
830.0001	687.4097	12614.7	11679.35
830.1449	689.5115	12596.15	11659.55
830.2898	691.6127	12570.35	11641.5
830.4346	693.7132	12526.95	11596.75
830.5794	695.8131	12524.4	11581.2
830.7243	697.9123	12503.1	11561.1
830.8691	700.0109	12510	11564.95
831.014	702.1089	12512.75	11570.3
831.1588	704.2061	12527.7	11593.85
831.3037	706.3028	12571.1	11632.45
831.4486	708.3987	12635.6	11695.25
831.5935	710.4941	12695.65	11760.65
831.7383	712.5887	12791.65	11852
831.8832	714.6827	12981.85	12042.5
832.0281	716.7761	13231.35	12299.55
832.173	718.8688	13543.55	12612.2
832.3179	720.9608	13718	12774.65
832.4628	723.0522	13798.15	12850.35
832.6077	725.1429	13745	12799.05
832.7527	727.233	13605.3	12665
832.8976	729.3224	13524	12582.85
833.0425	731.4112	13313.5	12373.55
833.1874	733.4993	13136.3	12191.6
833.3324	735.5867	12956.5	12015.45
833.4773	737.6735	12789.25	11851.6
833.6222	739.7596	12704.1	11757.45
833.7672	741.845	12622.45	11682.3
833.9122	743.9298	12574.85	11635.55
834.0571	746.014	12571.05	11631.15
834.2021	748.0974	12583.8	11637.45
834.347	750.1802	12576.7	11627.15
834.492	752.2624	12600.25	11653.15
834.637	754.3439	12645.7	11696.15
834.782	756.4247	12724.95	11767.8
834.9269	758.5048	12860	11911.75
835.0719	760.5843	13125.15	12174.4
835.2169	762.6631	13499.85	12551
835.3619	764.7413	14015.15	13068.85
835.5069	766.8188	14631.65	13682.05
835.6519	768.8956	15120.4	14170.7
835.7969	770.9718	15430.7	14483.65
835.9419	773.0473	15312.95	14369.05
836.0869	775.1221	15038.75	14092.25
836.232	777.1962	14706.2	13758.5
836.377	779.2697	14551.7	13601.5
836.522	781.3426	14576.75	13617.3
836.667	783.4147	14783.75	13832.95
836.8121	785.4862	14976.7	14029.15
836.9571	787.557	14917.45	13963
837.1021	789.6271	14539.55	13585.7
837.2472	791.6966	13984.75	13032.95
837.3922	793.7654	13432.2	12483.2
837.5373	795.8335	13078.75	12131.8
837.6823	797.901	12828.15	11879.4
837.8274	799.9678	12739.1	11786.6
837.9724	802.0339	12699.05	11746
838.1175	804.0993	12734.2	11770.8
838.2626	806.1641	12693.5	11740.8
838.4076	808.2282	12641.1	11691.3
838.5527	810.2916	12556.45	11607.65
838.6978	812.3544	12467.4	11521.9
838.8428	814.4164	12370.4	11421.25
838.9879	816.4778	12405.5	11455.15
839.133	818.5385	12437.85	11484.05
839.2781	820.5986	12560.95	11604.25
839.4232	822.658	12723.45	11769.4
839.5682	824.7166	12934.7	11981.8
839.7133	826.7747	13280.75	12327.8
839.8584	828.832	13600.75	12644.8
840.0035	830.8886	13871.55	12913.85
840.1486	832.9446	13985	13028.9
840.2937	834.9999	13935.35	12981.95
840.4388	837.0545	13817.6	12859.95
840.5839	839.1085	13659.15	12702.15
840.729	841.1618	13525.35	12568.95
840.8741	843.2143	13407.25	12448
841.0192	845.2662	13245.85	12289.55
841.1643	847.3175	13200.15	12247.1
841.3095	849.368	13052.5	12095.4
841.4546	851.4179	12982.4	12026.9
841.5997	853.467	12867.35	11912.45
841.7448	855.5155	12816.6	11857.55
841.8899	857.5633	12704.3	11748.4
842.0351	859.6105	12602.75	11646.8
842.1802	861.6569	12530.55	11574.6
842.3253	863.7027	12481.35	11523.3
842.4704	865.7478	12441.3	11483.1
842.6156	867.7922	12441.25	11486.5
842.7607	869.8359	12459	11499.8
842.9058	871.8789	12540.6	11584.75
843.0509	873.9212	12705.4	11718.55
843.1961	875.9629	12832.85	11875.05
843.3412	878.0039	12954.65	11997.1
843.4863	880.0441	13011.1	12055.95
843.6315	882.0837	13066.3	12113.6
843.7766	884.1226	13059.15	12099.5
843.9218	886.1609	12987.2	12031.25
844.0669	888.1984	12972.15	12019.1
844.212	890.2352	13063.65	12105.95
844.3572	892.2714	13014.9	12056.1
844.5023	894.3069	13002.45	12044.7
844.6475	896.3416	12880.75	11922.05
844.7926	898.3757	12832.3	11872.55
844.9377	900.4091	12776.25	11819.15
845.0829	902.4418	12788.9	11825.45
845.228	904.4739	12798.95	11837.75
845.3732	906.5052	12824.6	11860.45
845.5183	908.5358	12798.7	11836.7
845.6635	910.5658	12641.3	11681.7
845.8086	912.595	12452.45	11490.85
845.9538	914.6236	12295.15	11335.45
846.0989	916.6515	12194.3	11236.85
846.2441	918.6786	12141.25	11177.95
846.3892	920.7051	12163.8	11198.15
846.5344	922.7309	12258	11295.7
846.6795	924.756	12318.1	11359.85
846.8246	926.7804	12417.8	11457.8
846.9698	928.8041	12399.4	11438.85
847.1149	930.8272	12421.9	11458.9
847.2601	932.8495	12386.65	11424.95
847.4052	934.8711	12386.75	11426.9
847.5504	936.892	12275	11313
847.6955	938.9123	12180	11216.5
847.8407	940.9318	12141.95	11179.25
847.9858	942.9506	12033.65	11069.95
848.131	944.9688	11954.7	10995.85
848.2761	946.9862	11903.65	10940.05
848.4213	949.003	11807.2	10844.6
848.5664	951.019	11787	10826.6
848.7115	953.0344	11790.9	10828.95
848.8567	955.0491	11799.9	10838.55
849.0018	957.063	11855.75	10897.05
849.147	959.0763	11944	10986.3
849.2921	961.0888	11970.15	11010.2
849.4373	963.1007	12059.2	11103.8
849.5824	965.1119	12107	11157.25
849.7275	967.1223	12094.5	11150.6
849.8727	969.1321	12118.5	11177.75
850.0178	971.1412	12122.6	11173.65
850.1629	973.1495	12150.55	11196.6
850.3081	975.1572	12225.25	11218.6
850.4532	977.1641	12236.1	11275.95
850.5983	979.1704	12204.4	11242.35
850.7435	981.1759	12182	11218.5
850.8886	983.1808	12212.1	11246.1
851.0337	985.1849	12297.7	11326.65
851.1788	987.1884	12397.55	11437.45
851.324	989.1911	12527.15	11568.15
851.4691	991.1932	12632.45	11674.3
851.6142	993.1945	12629.45	11669.3
851.7593	995.1951	12613	11650.8
851.9045	997.1951	12595	11628.15
852.0496	999.1943	12546.95	11583.95
852.1947	1001.1928	12487.55	11527.25
852.3398	1003.1906	12506.2	11547.1
852.4849	1005.1877	12605.9	11642.65
852.63	1007.1841	12626.95	11666.9
852.7751	1009.1798	12572.5	11605.7
852.9202	1011.1748	12460.05	11502.4
853.0653	1013.1691	12303.2	11342.8
853.2104	1015.1627	12089.05	11131.85
853.3555	1017.1556	11882.9	10924.9
853.5006	1019.1477	11775.4	10817.7
853.6457	1021.1392	11674.8	10727
853.7908	1023.1299	11660.3	10712.75
853.9359	1025.12	11666.2	10729.95
854.081	1027.1093	11717.85	10790.7
854.2261	1029.0979	11815.2	10892.4
854.3712	1031.0859	11885.2	10953.9
854.5163	1033.0731	11902.45	10960.7
854.6613	1035.0596	11860.8	10910.1
854.8064	1037.0454	11729.6	10775.7
854.9515	1039.0304	11657.6	10700
855.0965	1041.0148	11533.25	10580.05
855.2416	1042.9985	11446.8	10487.7
855.3867	1044.9814	11406.05	10454.5
855.5317	1046.9636	11353.05	10397.3
855.6768	1048.9452	11350.85	10396.65
855.8219	1050.926	11361.8	10405.35
855.9669	1052.9061	11368	10409.6
856.112	1054.8855	11371.5	10413.75
856.257	1056.8642	11421.65	10464.4
856.4021	1058.8421	11463.95	10501.35
856.5471	1060.8194	11507.15	10550.2
856.6921	1062.7959	11550.8	10593.8
856.8372	1064.7717	11590.15	10631.35
856.9822	1066.7469	11631.4	10672.2
857.1272	1068.7213	11656.55	10695.95
857.2723	1070.695	11703.15	10747.75
857.4173	1072.6679	11686.9	10726.9
857.5623	1074.6402	11655.75	10699.5
857.7073	1076.6117	11633.3	10672.2
857.8523	1078.5826	11592.65	10633.4
857.9973	1080.5527	11523	10562.65
858.1423	1082.5221	11519.25	10561.75
858.2873	1084.4908	11620.95	10668.25
858.4323	1086.4587	11757.25	10803.45
858.5773	1088.426	11853.1	10893.25
858.7223	1090.3925	11861.05	10900.7
858.8673	1092.3584	11832.2	10876.5
859.0123	1094.3235	11774.2	10817.65
859.1573	1096.2879	11748.15	10792.05
859.3022	1098.2515	11836.8	10884.4
859.4472	1100.2145	11916.2	10959.85
859.5922	1102.1767	12083.75	11129.05
859.7371	1104.1382	12252.65	11295.75
859.8821	1106.099	12481.9	11525.9
860.027	1108.0591	12704.45	11751.15
860.172	1110.0185	12855.4	11896.8
860.3169	1111.9771	12887.95	11932.7
860.4619	1113.9351	12740.75	11781.35
860.6068	1115.8923	12508.9	11553.6
860.7517	1117.8488	12290.4	11334.05
860.8967	1119.8045	12031.35	11078.55
861.0416	1121.7596	11921.8	10965.1
861.1865	1123.7139	11851.5	10897
861.3314	1125.6675	11795.4	10842.4
861.4763	1127.6204	11888.55	10932.15
861.6212	1129.5726	11866.95	10910.95
861.7661	1131.524	11783.65	10824.75
861.911	1133.4748	11731.65	10776.7
862.0559	1135.4248	11627	10673.2
862.2008	1137.3741	11553.95	10603.15
862.3457	1139.3226	11476.1	10521.25
862.4905	1141.2705	11470.5	10516
862.6354	1143.2176	11355.4	10397.75
862.7803	1145.164	11337.4	10377.25
862.9251	1147.1097	11341.35	10383.1
863.07	1149.0546	11270.3	10312.35
863.2148	1150.9989	11204.4	10249.75
863.3597	1152.9424	11104.95	10151.85
863.5045	1154.8852	10932.85	9980.2
863.6493	1156.8272	10875.95	9924.9
863.7942	1158.7686	10877.35	9919.3
863.939	1160.7092	10852.2	9895.05
864.0838	1162.6491	10856.9	9900.45
864.2286	1164.5883	10961.7	10001.9
864.3734	1166.5267	11032.75	10077.05
864.5182	1168.4644	11198.15	10243.5
864.663	1170.4014	11398.85	10443.35
864.8078	1172.3377	11624.65	10673.3
864.9526	1174.2732	11871.2	10920.6
865.0974	1176.2081	12201.75	11245.3
865.2421	1178.1421	12560.05	11601.8
865.3869	1180.0755	12919.7	11966.2
865.5317	1182.0082	13121.9	12170.9
865.6764	1183.9401	13209	12258.7
865.8212	1185.8713	13095.7	12147.65
865.9659	1187.8017	12830.05	11893.35
866.1106	1189.7315	12506	11578.2
866.2554	1191.6605	12169.3	11239.15
866.4001	1193.5888	11955.05	11019.15
866.5448	1195.5163	11835.9	10893.1
866.6895	1197.4432	11746.35	10793.75
866.8342	1199.3693	11714.8	10761.8
866.9789	1201.2947	11691.7	10741.45
867.1236	1203.2193	11665.95	10715.65
867.2683	1205.1432	11686.25	10733.6
867.413	1207.0664	11670.1	10718.25
867.5576	1208.9889	11677.4	10727.2
867.7023	1210.9106	11682.15	10732.45
867.847	1212.8316	11694.2	10744.5
867.9916	1214.7519	11755.6	10796
868.1363	1216.6715	11781.05	10830.45
868.2809	1218.5903	11792.55	10841.55
868.4255	1220.5084	11833.75	10881.6
868.5701	1222.4257	11857.25	10908.85
868.7148	1224.3424	11843.6	10896.5
868.8594	1226.2583	11923.1	10972.1
869.004	1228.1735	12037.75	11089
869.1486	1230.0879	12136.1	11184.25
869.2932	1232.0016	12285.7	11336.7
869.4377	1233.9146	12346	11395.4
869.5823	1235.8269	12275.95	11327.55
869.7269	1237.7384	12186.55	11236.65
869.8715	1239.6492	12033	11084.1
870.016	1241.5592	11974.2	11023.25
870.1606	1243.4686	11945.35	10994.4
870.3051	1245.3772	12003.95	11055.45
870.4496	1247.285	12096.4	11148.6
870.5941	1249.1922	12112	11162.3
870.7387	1251.0986	12150.5	11200.45
870.8832	1253.0042	12168	11221.65
871.0277	1254.9092	12262.55	11313.65
871.1722	1256.8134	12343.95	11397.95
871.3167	1258.7169	12482.85	11530.25
871.4611	1260.6196	12642	11696.7
871.6056	1262.5216	12857.2	11909
871.7501	1264.4229	13036.35	12091.3
871.8945	1266.3234	13225.1	12277.15
872.039	1268.2232	13321.55	12372.9
872.1834	1270.1223	13346.9	12403
872.3278	1272.0207	13335.4	12390.3
872.4723	1273.9183	13330.65	12375.8
872.6167	1275.8151	13250.9	12300.4
872.7611	1277.7113	13192.55	12244.4
872.9055	1279.6067	13140.1	12192
873.0499	1281.5014	13231.3	12282
873.1943	1283.3953	13337.15	12387.9
873.3386	1285.2885	13555.8	12611.05
873.483	1287.181	13785.9	12842.15
873.6274	1289.0727	14046.3	13103.25
873.7717	1290.9637	14213.05	13268.95
873.9161	1292.854	14379.4	13431.55
874.0604	1294.7435	14438.75	13491.95
874.2047	1296.6323	14486.05	13540.25
874.349	1298.5204	14540.4	13594
874.4933	1300.4077	14587.1	13638.5
874.6376	1302.2943	14579.15	13634.95
874.7819	1304.1802	14476.25	13532.7
874.9262	1306.0653	14178.1	13227.6
875.0705	1307.9497	13905.4	12961.05
875.2147	1309.8333	13643.1	12702.25
875.359	1311.7162	13460.3	12512.3
875.5032	1313.5984	13388.65	12440.9
875.6475	1315.4798	13348.35	12400.65
875.7917	1317.3605	13360.95	12399.25
875.9359	1319.2405	13298.2	12347.25
876.0801	1321.1197	13183.1	12233.15
876.2243	1322.9982	12985.5	12035.05
876.3685	1324.876	12827.2	11880.05
876.5127	1326.753	12668.4	11723.7
876.6569	1328.6293	12594.3	11646.15
876.801	1330.5048	12520.3	11570.05
876.9452	1332.3796	12431	11484.35
877.0893	1334.2537	12396.1	11424.8
877.2335	1336.127	12320.65	11374.25
877.3776	1337.9996	12299	11354.4
877.5217	1339.8714	12266.55	11317.9
877.6658	1341.7426	12293.7	11303.4
877.8099	1343.6129	12263.7	11312.65
877.954	1345.4826	12241.05	11293.2
878.0981	1347.3515	12246.35	11294.4
878.2422	1349.2196	12185.35	11234.4
878.3862	1351.087	12246.55	11298.5
878.5303	1352.9537	12273.85	11324.75
878.6743	1354.8197	12433.45	11487
878.8184	1356.6849	12540.2	11591.15
878.9624	1358.5493	12683.7	11737.6
879.1064	1360.4131	12773.2	11825.15
879.2504	1362.276	12796.1	11852
879.3944	1364.1383	12705.5	11754.85
879.5384	1365.9998	12500.55	11548.15
879.6823	1367.8606	12178.7	11230.85
879.8263	1369.7206	11828.8	10876.65
879.9702	1371.5799	11593.75	10643.5
880.1142	1373.4384	11364.05	10416.9
880.2581	1375.2962	11166.95	10218.9
880.402	1377.1533	10892.4	9948.55
880.5459	1379.0096	10564.5	9623.55
880.6898	1380.8652	10241.1	9298.3
880.8337	1382.7201	9982.65	9040.4
880.9776	1384.5742	9757.45	8814.55
881.1215	1386.4275	9584.4	8638
881.2653	1388.2802	9423.85	8481
881.4092	1390.132	9286.95	8340.2
881.553	1391.9832	9243.85	8297.1
881.6968	1393.8336	9180.65	8233.6
881.8406	1395.6832	9135.65	8188.3
881.9844	1397.5322	9076.05	8133.9
882.1282	1399.3803	9049.8	8101.4
882.272	1401.2278	9027	8084.75
882.4158	1403.0745	9015.85	8074.9
882.5595	1404.9204	8990.3	8049.5
882.7033	1406.7656	9027.35	8084.75
882.847	1408.6101	9026.15	8080.3
882.9908	1410.4538	9080.5	8136.15
883.1345	1412.2968	9124.45	8180.9
883.2782	1414.139	9150.9	8208.35
883.4219	1415.9805	9255.85	8311.25
883.5656	1417.8213	9311.75	8362.8
883.7092	1419.6613	9409.4	8464.9
883.8529	1421.5006	9581.15	8639.65
883.9965	1423.3391	9803	8859.95
884.1402	1425.1769	10093.2	9146.05
884.2838	1427.0139	10544	9599.4
884.4274	1428.8502	11101.15	10157.3
884.571	1430.6858	11616.15	10677.5
884.7146	1432.5206	12012.6	11073.25
884.8582	1434.3547	12243.55	11299.75
885.0018	1436.188	12242.35	11301.3
885.1453	1438.0206	12174.5	11232.9
885.2889	1439.8524	11999.4	11060.15
885.4324	1441.6835	11907.5	10965.15
885.5759	1443.5139	11783.8	10838.75
885.7194	1445.3435	11721.25	10783.25
885.8629	1447.1724	11718.7	10782.15
886.0064	1449.0005	11627.9	10689.2
886.1499	1450.8279	11544.3	10601.85
886.2933	1452.6545	11519.7	10580.3
886.4368	1454.4804	11561.85	10623.25
886.5802	1456.3056	11519.8	10575.4
886.7237	1458.13	11434.25	10497.45
886.8671	1459.9536	11300.55	10359.8
887.0105	1461.7766	10982.15	10044.95
887.1539	1463.5987	10596.2	9655.7
887.2972	1465.4202	10214.45	9275.05
887.4406	1467.2409	9880.05	8941.35
887.584	1469.0608	9610	8671.9
887.7273	1470.88	9357.7	8416.2
887.8706	1472.6984	9119.85	8179.75
888.0139	1474.5161	8912.95	7971.7
888.1572	1476.3331	8761.85	7821.7
888.3005	1478.1493	8654.85	7716.65
888.4438	1479.9648	8566.15	7625.7
888.5871	1481.7795	8486.05	7548
888.7303	1483.5935	8394.85	7455.9
888.8736	1485.4067	8357.15	7417.8
889.0168	1487.2192	8306.8	7369.45
889.16	1489.031	8247.85	7306.1
889.3032	1490.842	8221.2	7278.25
889.4464	1492.6522	8178.8	7238
889.5896	1494.4618	8121.4	7181.6
889.7327	1496.2705	8119.1	7181.55
889.8759	1498.0785	8067.35	7126.5
890.019	1499.8858	8030.4	7092.05
890.1622	1501.6924	8021.6	7083.25
890.3053	1503.4981	7973.75	7036.7
890.4484	1505.3032	7949.65	7012.4
890.5914	1507.1075	7923.2	6985.65
890.7345	1508.911	7889.05	6949.7
890.8776	1510.7138	7828.25	6889.1
891.0206	1512.5159	7767.3	6827.05
891.1637	1514.3172	7752.7	6816.15
891.3067	1516.1178	7671.05	6735.7
891.4497	1517.9176	7667.5	6728.8
891.5927	1519.7166	7607.65	6675.25
891.7357	1521.515	7612.65	6670.55
891.8786	1523.3126	7574.05	6638.75
892.0216	1525.1094	7549.7	6615.3
892.1645	1526.9055	7518.55	6584.7
892.3074	1528.7008	7472.6	6537.25
892.4503	1530.4954	7432.1	6498.2
892.5932	1532.2893	7418.6	6487.4
892.7361	1534.0824	7374.55	6440.2
892.879	1535.8747	7406.85	6474.35
893.0218	1537.6663	7376.85	6448.35
893.1647	1539.4572	7375.15	6441.6
893.3075	1541.2473	7369.05	6435.75
893.4503	1543.0367	7382.55	6452.35
893.5931	1544.8253	7360.25	6423.4
893.7359	1546.6132	7372.4	6437.25
893.8787	1548.4003	7389.7	6449.5
894.0214	1550.1867	7414.8	6473.55
894.1642	1551.9723	7458.5	6526.75
894.3069	1553.7572	7511.45	6583.15
894.4496	1555.5414	7582.55	6655.1
894.5923	1557.3247	7686.5	6760.55
894.735	1559.1074	7784.95	6859.45
894.8777	1560.8893	7883.15	6959.25
895.0204	1562.6705	8003.15	7080.4
895.163	1564.4509	8088.35	7165
895.3056	1566.2305	8131.85	7208.7
895.4482	1568.0094	8197.85	7278.1
895.5908	1569.7876	8203.7	7282.95
895.7334	1571.565	8222.75	7297.7
895.876	1573.3417	8209.15	7286.65
896.0186	1575.1176	8193.6	7273.3
896.1611	1576.8928	8157.1	7239
896.3036	1578.6672	8107.85	7195.6
896.4461	1580.4409	8057.5	7144.7
896.5886	1582.2138	7992.45	7076.8
896.7311	1583.986	7957.55	7039.2
896.8736	1585.7575	7938	7017.35
897.0161	1587.5282	7958.15	7045
897.1585	1589.2981	7944.05	7030.95
897.3009	1591.0673	7993.65	7081.4
897.4433	1592.8358	8039.2	7125.8
897.5857	1594.6035	8092.25	7173.35
897.7281	1596.3704	8161.65	7243.95
897.8705	1598.1366	8191	7276.2
898.0128	1599.9021	8296.55	7381.5
898.1551	1601.6668	8359.95	7444.95
898.2975	1603.4308	8461.65	7540.4
898.4398	1605.194	8587.55	7665.4
898.5821	1606.9564	8756.55	7849.15
898.7243	1608.7182	8926.25	8018.95
898.8666	1610.4791	9148.5	8251.05
899.0088	1612.2394	9382.05	8482.55
899.1511	1613.9988	9601.4	8699.55
899.2933	1615.7576	9814.75	8907.45
899.4355	1617.5156	10059.3	9138.4
899.5776	1619.2728	10175.65	9256
899.7198	1621.0293	10187.6	9270.35
899.862	1622.785	10101.6	9186.6
900.0041	1624.54	9902.6	8991.8
900.1462	1626.2942	9705.5	8796.4
900.2883	1628.0477	9385.25	8477.25
900.4304	1629.8005	9150.3	8236.5
900.5725	1631.5525	8885.8	7978.6
900.7145	1633.3037	8686.4	7779.65
900.8566	1635.0542	8531.2	7623.8
900.9986	1636.804	8410.95	7505
901.1406	1638.553	8387.1	7404.45
901.2826	1640.3013	8295.25	7385.85
901.4245	1642.0488	8268.95	7360.65
901.5665	1643.7955	8297.9	7393.05
901.7085	1645.5416	8357.25	7451.75
901.8504	1647.2868	8456.95	7549.9
901.9923	1649.0313	8563.4	7652
902.1342	1650.7751	8711.9	7798.9
902.2761	1652.5181	8870.55	7962.15
902.4179	1654.2604	9054.7	8150.2
902.5598	1656.0019	9266.75	8360.65
902.7016	1657.7427	9539.15	8630.95
902.8434	1659.4828	9804.8	8895.95
902.9852	1661.222	10000.1	9088.9
903.127	1662.9606	9935.05	9026.7
903.2687	1664.6984	9706.9	8797.45
903.4105	1666.4354	9297.75	8383.55
903.5522	1668.1717	8745.3	7830.8
903.6939	1669.9072	8227.55	7311.65
903.8356	1671.642	7783.05	6868.05
903.9773	1673.3761	7400.1	6490.4
904.119	1675.1094	7088.75	6179.95
904.2606	1676.8419	6869.5	5960.85
904.4022	1678.5737	6700.2	5790
904.5439	1680.3048	6542.15	5629.95
904.6855	1682.0351	6423.55	5513.6
904.827	1683.7646	6331.65	5419.4
904.9686	1685.4934	6250.9	5340.6
905.1101	1687.2215	6181.45	5273.2
905.2517	1688.9488	6112.5	5207.25
905.3932	1690.6754	6049.15	5140.2
905.5347	1692.4012	6010.3	5099.5
905.6761	1694.1263	5976.65	5069.4
905.8176	1695.8506	5957.8	5049.35
905.9591	1697.5742	5901	4995.2
906.1005	1699.297	5864.2	4961.5
906.2419	1701.0191	5817.65	4915.25
906.3833	1702.7404	5790.7	4887.75
906.5246	1704.461	5740.5	4832.65
906.666	1706.1808	5703.5	4798.65
906.8073	1707.8999	5686.8	4786.3
906.9487	1709.6182	5652.7	4750.9
907.09	1711.3358	5627.1	4728.3
907.2313	1713.0527	5589.95	4692.4
907.3725	1714.7688	5567.05	4661.2
907.5138	1716.4841	5565.25	4660.8
907.655	1718.1987	5527.9	4619.6
907.7962	1719.9126	5511.35	4611.75
907.9374	1721.6257	5488.4	4590.05
908.0786	1723.338	5484.5	4585.75
908.2198	1725.0496	5449.95	4549.1
908.3609	1726.7605	5431.85	4529.3
908.502	1728.4706	5407.5	4506.7
908.6431	1730.18	5371.5	4471.05
908.7842	1731.8886	5366.3	4469.9
908.9253	1733.5964	5376.45	4459.5
909.0664	1735.3036	5351.05	4451.1
909.2074	1737.0099	5334.15	4436.1
909.3484	1738.7156	5316.2	4419.1
909.4894	1740.4204	5278.3	4380.1
909.6304	1742.1246	5263.45	4362.65
909.7714	1743.8279	5237.2	4338.6
909.9123	1745.5306	5212.3	4315.45
910.0532	1747.2325	5183.9	4288.9
910.1941	1748.9336	5174.55	4273.65
910.335	1750.634	5147.2	4245.5
910.4759	1752.3336	5133.55	4235.4
910.6168	1754.0325	5110.65	4217.3
910.7576	1755.7307	5109.05	4211.65
910.8984	1757.4281	5098.75	4202.35
911.0392	1759.1247	5113.35	4202.85
911.18	1760.8206	5089.05	4180.85
911.3208	1762.5158	5066.95	4159.9
911.4615	1764.2102	5053.75	4154.4
911.6022	1765.9039	5024.15	4125.45
911.7429	1767.5968	5018.3	4122.75
911.8836	1769.289	5002.8	4106.4
912.0243	1770.9804	5003.55	4104.6
912.1649	1772.6711	4997.15	4095.45
912.3056	1774.361	4980.7	4078.25
912.4462	1776.0502	4961.4	4061.1
912.5868	1777.7386	4966.15	4062.65
912.7274	1779.4263	4947	4046.45
912.8679	1781.1132	4937.25	4039.8
913.0084	1782.7994	4911.9	4015.55
913.149	1784.4849	4910.05	4016
913.2895	1786.1696	4885.35	3983.5
913.4299	1787.8535	4877.55	3985.25
913.5704	1789.5367	4866.6	3973.75
913.7108	1791.2192	4875.65	3984.6
913.8513	1792.9009	4854.3	3932.3
913.9917	1794.5818	4854.4	3953.6
914.132	1796.2621	4837.55	3939.45
914.2724	1797.9415	4817.7	3919
914.4128	1799.6202	4812.35	3913.25
914.5531	1801.2982	4792.65	3894.75
914.6934	1802.9755	4803.05	3903
914.8337	1804.6519	4783	3882
914.9739	1806.3277	4763.1	3868.3
915.1142	1808.0027	4750.15	3855.4
915.2544	1809.6769	4728.55	3838.3
915.3946	1811.3504	4723.6	3828.3
915.5348	1813.0231	4715.15	3823.35
915.675	1814.6951	4711.05	3817.5
915.8151	1816.3664	4725.3	3826.85
915.9553	1818.0369	4696.85	3798.55
916.0954	1819.7067	4701.55	3805.05
916.2355	1821.3757	4673.25	3773.05
916.3755	1823.044	4674.85	3777.2
916.5156	1824.7115	4662.9	3765.45
916.6556	1826.3783	4637.05	3740.8
916.7956	1828.0443	4623.8	3729.75
916.9356	1829.7096	4638.15	3739.35
917.0756	1831.3741	4602	3701.35
917.2155	1833.0379	4617.7	3725.75
917.3555	1834.701	4566.05	3675
917.4954	1836.3633	4578.65	3688.95
917.6353	1838.0248	4571.15	3675.9
917.7751	1839.6856	4578.35	3683.8
917.915	1841.3457	4583.65	3686.8
918.0548	1843.005	4562.7	3665.5
918.1946	1844.6636	4567.35	3672.75
918.3344	1846.3214	4538.3	3641.75
918.4742	1847.9785	4538.05	3642.25
918.6139	1849.6349	4532.35	3633.05
918.7537	1851.2904	4544.2	3637.05
918.8934	1852.9453	4512.85	3612.3
919.0331	1854.5994	4496.65	3596.05
919.1727	1856.2528	4502.4	3600.25
919.3124	1857.9054	4484.4	3586
919.452	1859.5572	4484.55	3589.95
919.5916	1861.2083	4462.85	3567.2
919.7312	1862.8587	4481.1	3582.4
919.8708	1864.5084	4463.55	3564.6
920.0103	1866.1572	4452.55	3555.3
920.1498	1867.8054	4436.15	3536.6
920.2893	1869.4528	4417.55	3519.45
920.4288	1871.0994	4410.9	3512.5
920.5683	1872.7453	4410.25	3512.2
920.7077	1874.3905	4404.4	3490.9
920.8471	1876.0349	4385.15	3488.35
920.9865	1877.6786	4370.65	3470.25
921.1259	1879.3215	4370.45	3474.45
921.2653	1880.9637	4354.9	3455.2
921.4046	1882.6051	4344.15	3450.65
921.5439	1884.2458	4348.25	3449.55
921.6832	1885.8858	4345.2	3447.8
921.8225	1887.525	4333.05	3437.4
921.9617	1889.1634	4316.8	3420.6
922.101	1890.8011	4311	3414.3
922.2402	1892.4381	4281.7	3382.55
922.3794	1894.0743	4302.85	3409.85
922.5185	1895.7098	4281.7	3384.7
922.6577	1897.3446	4273.2	3376.05
922.7968	1898.9786	4257	3357.1
922.9359	1900.6118	4252.6	3357.7
923.075	1902.2443	4233.8	3341.15
923.214	1903.8761	4217.1	3320.7
923.3531	1905.5071	4184.65	3288.65
923.4921	1907.1374	4199.9	3304
923.6311	1908.7669	4198.2	3300.35
923.77	1910.3957	4193.4	3298.4
923.909	1912.0237	4160	3266.4
924.0479	1913.651	4165	3267.25
924.1868	1915.2776	4152.9	3259.7
924.3257	1916.9034	4126	3232.15
924.4646	1918.5285	4125.05	3233.05
924.6034	1920.1528	4086.8	3191.65
924.7422	1921.7764	4108.6	3211.6
924.881	1923.3992	4104.1	3210.6
925.0198	1925.0213	4084.55	3189.8
925.1586	1926.6427	4058.9	3164.7
925.2973	1928.2633	4223.65	3126.95
925.436	1929.8832	4062.2	3162.85
925.5747	1931.5023	4045.45	3150.25
925.7134	1933.1207	4024.25	3127.55
925.852	1934.7383	4007.15	3114.55
925.9906	1936.3552	3996.65	3104.3
926.1292	1937.9714	3988.8	3095.9
926.2678	1939.5868	3964.4	3068.95
926.4064	1941.2015	3964.7	3066.3
926.5449	1942.8154	3946.2	3048.6
926.6834	1944.4286	3933.85	3038.35
926.8219	1946.041	3941.1	3030.55
926.9604	1947.6528	3924.75	3025.65
927.0988	1949.2637	3899.9	3007.25
927.2372	1950.8739	3893.45	2996.85
927.3756	1952.4834	3888.95	2994.85
927.514	1954.0921	3867.3	2971.9
927.6523	1955.7001	3860.45	2964.25
927.7907	1957.3074	3864.7	2973.85
927.929	1958.9139	3829.8	2939.95
928.0673	1960.5197	3835.8	2944.1
928.2055	1962.1247	3821.75	2932
928.3438	1963.729	3790.3	2900.05
928.482	1965.3325	3794.2	2900.5
928.6202	1966.9353	3787.95	2898.8
928.7584	1968.5374	3772.4	2881.6
928.8965	1970.1387	3753.15	2860.7
929.0346	1971.7393	3749.7	2860.35
929.1727	1973.3392	3740.4	2851
929.3108	1974.9383	3743.3	2855.2
929.4489	1976.5366	3709.95	2823.15
929.5869	1978.1342	3703.5	2816
929.7249	1979.7311	3711.25	2823.35
929.8629	1981.3273	3693.45	2805
930.0009	1982.9227	3694.5	2807.55
930.1388	1984.5173	3671.9	2785.9
930.2767	1986.1112	3650.65	2765.75
930.4146	1987.7044	3651.15	2766
930.5525	1989.2968	3645.75	2756.8
930.6904	1990.8885	3637.45	2748.15
930.8282	1992.4795	3617.05	2730.8
930.966	1994.0697	3618.5	2736.05
931.1038	1995.6592	3615.65	2731.15
931.2415	1997.2479	3606.25	2718.9
931.3793	1998.8359	3596.3	2709.6
931.517	2000.4232	3588.25	2706.85
931.6547	2002.0097	3566.05	2687.5
931.7923	2003.5955	3552.55	2670
931.93	2005.1805	3563.8	2680.8
932.0676	2006.7648	3548.2	2665.4
932.2052	2008.3484	3541.25	2659.7
932.3427	2009.9312	3540.95	2660.05
932.4803	2011.5133	3522.05	2644.7
932.6178	2013.0946	3517.3	2639.05
932.7553	2014.6752	3504.95	2624.45
932.8928	2016.2551	3502	2617.05
933.0302	2017.8342	3489.7	2606
933.1676	2019.4126	3478.9	2599.2
933.305	2020.9902	3473.25	2594.05
933.4424	2022.5672	3467.2	2588
933.5798	2024.1433	3471.35	2588.8
933.7171	2025.7188	3446.75	2568.9
933.8544	2027.2935	3446.8	2566.95
933.9917	2028.8674	3441.25	2563.9
934.129	2030.4406	3432.3	2554.75
934.2662	2032.0131	3413.35	2537.4
934.4034	2033.5849	3411.9	2530.8
934.5406	2035.1559	3408.8	2530.65
934.6778	2036.7261	3399	2518.15
934.8149	2038.2957	3382.75	2499.35
934.952	2039.8645	3396.85	2511.8
935.0891	2041.4325	3398.35	2510.4
935.2262	2042.9998	3375.35	2493.6
935.3632	2044.5664	3381.85	2500.1
935.5002	2046.1323	3361.5	2483.25
935.6372	2047.6974	3341.7	2462.65
935.7742	2049.2617	3341.2	2461.9
935.9111	2050.8254	3348.75	2446.5
936.048	2052.3883	3348.45	2465.5
936.1849	2053.9504	3343.8	2459.3
936.3218	2055.5118	3325.4	2441.9
936.4586	2057.0725	3311	2425.85
936.5955	2058.6325	3304.9	2424.15
936.7323	2060.1917	3281.7	2399.75
936.869	2061.7502	3291.8	2411.3
937.0058	2063.3079	3277	2399.55
937.1425	2064.8649	3284.6	2402.5
937.2792	2066.4212	3271.6	2388.5
937.4159	2067.9767	3269.45	2387.7
937.5525	2069.5315	3248.7	2366.75
937.6891	2071.0856	3245.4	2362.6
937.8257	2072.6389	3228.45	2348.8
937.9623	2074.1915	3214.9	2338.6
938.0989	2075.7433	3209.8	2331.95
938.2354	2077.2945	3199.4	2318.5
938.3719	2078.8448	3201.5	2316.95
938.5084	2080.3945	3200.15	2316.75
938.6448	2081.9434	3188.75	2304.85
938.7812	2083.4916	3185.65	2298.55
938.9176	2085.039	3189.95	2300.3
939.054	2086.5857	3184.85	2291.55
939.1903	2088.1317	3175.65	2284.55
939.3267	2089.677	3169.3	2275.35
939.463	2091.2215	3165.1	2272.9
939.5992	2092.7652	3151	2257.85
939.7355	2094.3083	3139.9	2247.5
939.8717	2095.8506	3134.8	2245.6
940.0079	2097.3921	3135.65	2248.15
940.1441	2098.933	3116.85	2229.75
940.2802	2100.4731	3122.4	2235.8
940.4163	2102.0124	3120.5	2223.35
940.5524	2103.5511	3113.4	2225.75
940.6885	2105.089	3099.2	2209.95
940.8245	2106.6261	3100.8	2212.95
940.9606	2108.1626	3083.65	2197.8
941.0965	2109.6983	3111	2198.95
941.2325	2111.2332	3085.75	2196.75
941.3684	2112.7675	3087.2	2197.1
941.5044	2114.301	3075.95	2184.55
941.6403	2115.8337	3076.4	2186.8
941.7761	2117.3657	3073.35	2184.65
941.912	2118.897	3059.2	2171.05
942.0478	2120.4276	3047.65	2154.8
942.1835	2121.9575	3047.85	2157.45
942.3193	2123.4866	3049.7	2158.7
942.455	2125.0149	3027.6	2139.8
942.5907	2126.5426	3001.2	2118.5
942.7264	2128.0695	3014.05	2129.65
942.8621	2129.5956	3005.4	2126.45
942.9977	2131.1211	3010.25	2123.75
943.1333	2132.6458	2984.9	2097.6
943.2689	2134.1698	2995	2105.65
943.4044	2135.693	2988.95	2095.65
943.54	2137.2155	2989.15	2099.7
943.6755	2138.7373	2981.15	2094
943.8109	2140.2584	2959.95	2077.75
943.9464	2141.7787	2956.1	2070.35
944.0818	2143.2983	2939.7	2060.65
944.2172	2144.8171	2925.15	2046.15
944.3526	2146.3353	2934.4	2051.15
944.4879	2147.8527	2924.95	2043.2
944.6232	2149.3693	2927.7	2039.05
944.7585	2150.8853	2925.4	2035.3
944.8938	2152.4005	2918.5	2030.85
945.029	2153.9149	2912.4	2023.1
945.1642	2155.4287	2917.3	2027.65
945.2994	2156.9417	2909.75	2020
945.4346	2158.454	2892.75	2005.35
945.5697	2159.9655	2881.9	1999.3
945.7048	2161.4764	2880.6	1995.6
945.8399	2162.9865	2875.75	1993.6
945.9749	2164.4958	2874.4	1992.2
946.1099	2166.0045	2866.95	1980.75
946.2449	2167.5124	2855.85	1969.05
946.3799	2169.0195	2857.5	1969.75
946.5148	2170.526	2854.05	1967.3
946.6498	2172.0317	2833.9	1946.55
946.7846	2173.5367	2845.15	1956.5
946.9195	2175.0409	2828.15	1944
947.0543	2176.5445	2828.05	1940.65
947.1891	2178.0473	2832.1	1943.75
947.3239	2179.5494	2823.65	1933.2
947.4587	2181.0507	2810.95	1926.05
947.5934	2182.5513	2801	1916.1
947.7281	2184.0512	2794.85	1905.4
947.8628	2185.5504	2797.1	1907.6
947.9974	2187.0488	2784.7	1902.6
948.132	2188.5465	2778.7	1896.85
948.2666	2190.0435	2771.35	1886.2
948.4012	2191.5397	2755.4	1865.95
948.5357	2193.0353	2772.1	1880.9
948.6702	2194.5301	2756.25	1865.35
948.8047	2196.0241	2753.25	1859.7
948.9392	2197.5175	2762.55	1870.6
949.0736	2199.0101	2759.2	1863.95
949.208	2200.502	2734.5	1844.6
949.3424	2201.9931	2713.65	1830.2
949.4767	2203.4835	2704.55	1820.8
949.611	2204.9733	2708.15	1817.85
949.7453	2206.4622	2697.15	1813.55
949.8796	2207.9505	2700.45	1815.9
950.0138	2209.438	2676.75	1795.7
950.148	2210.9248	2681.6	1795.35
950.2822	2212.4109	2679.7	1793.65
950.4164	2213.8962	2688.75	1796.8
950.5505	2215.3809	2674.6	1779.35
950.6846	2216.8648	2674.25	1781.55
950.8186	2218.3479	2676.25	1779.8
950.9527	2219.8304	2655.45	1759.35
951.0867	2221.3121	2655.3	1761.5
951.2207	2222.7931	2642.1	1753.4
951.3546	2224.2733	2630.1	1743
951.4886	2225.7529	2627.2	1738.9
951.6225	2227.2317	2626.75	1740.15
951.7563	2228.7098	2628.7	1745.05
951.8902	2230.1872	2603.3	1718.15
952.024	2231.6638	2610.15	1727.35
952.1578	2233.1397	2607.45	1719.15
952.2916	2234.6149	2596.45	1714.15
952.4253	2236.0894	2596.9	1709.5
952.559	2237.5632	2587.7	1690.15
952.6927	2239.0362	2580.2	1694.2
952.8263	2240.5085	2572.95	1685.25
952.9599	2241.9801	2566.25	1678.6
953.0935	2243.4509	2559.15	1668.7
953.2271	2244.921	2558.45	1669.05
953.3606	2246.3904	2552.05	1657
953.4941	2247.8591	2538.9	1650.7
953.6276	2249.3271	2539	1651.65
953.7611	2250.7943	2528.65	1636.7
953.8945	2252.2608	2522.55	1632.85
954.0279	2253.7266	2520.55	1629.9
954.1612	2255.1917	2509.25	1620.55
954.2946	2256.656	2515.7	1628.75
954.4279	2258.1197	2488.4	1603.6
954.5612	2259.5826	2500.4	1612
954.6944	2261.0447	2494.65	1604.85
954.8276	2262.5062	2495.25	1602.1
954.9608	2263.9669	2489.8	1596.25
955.094	2265.4269	2473.35	1581.8
955.2271	2266.8862	2476.1	1590.55
955.3602	2268.3448	2481.2	1593.9
955.4933	2269.8026	2472.6	1589.7
955.6264	2271.2598	2464.2	1578.25
955.7594	2272.7162	2450.5	1563.45
955.8924	2274.1719	2451.2	1561.45
956.0253	2275.6268	2456.3	1565.05
956.1583	2277.0811	2466.4	1575.4
956.2912	2278.5346	2444.4	1559.15
956.4241	2279.9874	2450.75	1566.75
956.5569	2281.4395	2437.05	1554.4
956.6897	2282.8908	2439.8	1549.35
956.8225	2284.3414	2430.05	1540.9
956.9553	2285.7914	2428.65	1542.05
957.088	2287.2406	2429.8	1536.75
957.2207	2288.689	2421	1531.3
957.3534	2290.1368	2423.35	1527.15
957.486	2291.5838	2407.85	1512.5
957.6186	2293.0302	2410.2	1515.7
957.7512	2294.4758	2417.7	1523.25
957.8838	2295.9206	2391.7	1497.8
958.0163	2297.3648	2385.75	1499.05
958.1488	2298.8082	2384.1	1496.25
958.2813	2300.251	2383.05	1496.2
958.4137	2301.693	2380.95	1485.35
958.5461	2303.1343	2378.85	1489.75
958.6785	2304.5748	2364.45	1476.3
958.8108	2306.0147	2362.5	1474.8
958.9432	2307.4538	2362.95	1476.95
959.0754	2308.8922	2362.65	1478.05
959.2077	2310.3299	2349.35	1465.6
959.3399	2311.7669	2338.95	1453.9
959.4721	2313.2031	2344.65	1454.4
959.6043	2314.6387	2337.3	1448.7
959.7365	2316.0735	2331.45	1444.8
959.8686	2317.5076	2334.9	1446.55
960.0006	2318.941	2334.35	1444.25
960.1327	2320.3737	2330.45	1437.15
960.2647	2321.8056	2316.75	1424.05
960.3967	2323.2369	2313.65	1425.05
960.5287	2324.6674	2307.25	1417.3
960.6606	2326.0972	2311.7	1421.65
960.7925	2327.5263	2305.4	1414.75
960.9244	2328.9547	2300.45	1408.4
961.0562	2330.3823	2300.6	1408.4
961.1881	2331.8092	2302.9	1408.65
961.3198	2333.2355	2284.55	1392.45
961.4516	2334.661	2284.35	1393.45
961.5833	2336.0858	2282.05	1392.75
961.715	2337.5098	2275.5	1386.8
961.8467	2338.9332	2272.85	1382.7
961.9783	2340.3558	2265.35	1374.05
962.1099	2341.7778	2267.6	1380.45
962.2415	2343.199	2256.85	1368.55
962.373	2344.6195	2259.05	1372.4
962.5045	2346.0393	2246.75	1360.75
962.636	2347.4583	2256.75	1367.5
962.7675	2348.8767	2242.5	1349.6
962.8989	2350.2943	2247.3	1353.6
963.0303	2351.7113	2250.15	1356.85
963.1617	2353.1275	2244.8	1350.8
963.293	2354.543	2249.25	1348.3
963.4243	2355.9578	2229	1336.6
963.5556	2357.3718	2216.5	1329.4
963.6868	2358.7852	2208.15	1318.95
963.818	2360.1978	2208.8	1322.15
963.9492	2361.6098	2205.85	1321.1
964.0803	2363.021	2220.5	1328
964.2114	2364.4315	2209.15	1321.7
964.3425	2365.8413	2192.4	1302.85
964.4736	2367.2504	2197.35	1310.25
964.6046	2368.6587	2184.25	1300.65
964.7356	2370.0664	2177.75	1291.9
964.8666	2371.4733	2182.25	1295.95
964.9975	2372.8795	2182.15	1293.75
965.1284	2374.285	2172.5	1284.9
965.2593	2375.6899	2168.9	1284.3
965.3901	2377.0939	2155.9	1269.9
965.5209	2378.4973	2149.9	1265.3
965.6517	2379.9	2156.3	1267.4
965.7825	2381.3019	2148.75	1261.85
965.9132	2382.7032	2152.75	1266.5
966.0439	2384.1037	2147.65	1266.15
966.1745	2385.5035	2128.4	1245.85
966.3051	2386.9027	2122.35	1241.45
966.4357	2388.3011	2125.45	1236.7
966.5663	2389.6987	2120.35	1235.3
966.6968	2391.0957	2123.45	1238.4
966.8273	2392.492	2111.2	1226.55
966.9578	2393.8876	2099.4	1214.65
967.0882	2395.2824	2100.8	1214.8
967.2186	2396.6765	2088.35	1204.6
967.349	2398.07	2093.15	1208.55
967.4793	2399.4627	2087.7	1199.2
967.6097	2400.8547	2088.75	1202.05
967.7399	2402.246	2088.95	1196.1
967.8702	2403.6366	2080.95	1198.05
968.0004	2405.0265	2070.55	1184.7
968.1306	2406.4156	2077.8	1189.75
968.2607	2407.8041	2063.75	1176.8
968.3909	2409.1918	2058.95	1169.9
968.521	2410.5789	2056.7	1170.85
968.651	2411.9652	2049.2	1161.9
968.781	2413.3508	2046.55	1158.8
968.911	2414.7358	2044.9	1157.4
969.041	2416.12	2044.25	1158.25
969.1709	2417.5035	2041.3	1157.1
969.3008	2418.8863	2031.8	1146.2
969.4307	2420.2684	2033.15	1146.5
969.5606	2421.6497	2030.65	1144.1
969.6904	2423.0304	2016.25	1133.1
969.8201	2424.4104	2023.2	1135.4
969.9499	2425.7896	2010.9	1123.65
970.0796	2427.1682	2018.6	1132.7
970.2093	2428.546	2016.25	1130.05
970.3389	2429.9232	2021.6	1132.95
970.4685	2431.2996	2003.7	1118.55
970.5981	2432.6753	2005.1	1117.1
970.7277	2434.0503	1993.55	1105.35
970.8572	2435.4246	1993.4	1106
970.9867	2436.7982	1994.95	1104.9
971.1161	2438.1711	1990.45	1105.6
971.2456	2439.5433	1986.75	1100.4
971.375	2440.9148	1981.55	1089.3
971.5043	2442.2856	1966.6	1080.85
971.6336	2443.6557	1973.85	1086.3
971.7629	2445.025	1960.3	1073.25
971.8922	2446.3937	1965.55	1076.4
972.0214	2447.7617	1959.35	1070.15
972.1506	2449.1289	1961.1	1074.55
972.2798	2450.4955	1957.6	1066.9
972.4089	2451.8613	1949.3	1063.9
972.538	2453.2265	1942.3	1057.45
972.6671	2454.5909	1949.1	1062.2
972.7961	2455.9546	1937.25	1051.65
972.9251	2457.3177	1937.5	1049.85
973.0541	2458.68	1939.55	1051.1
973.1831	2460.0416	1935.6	1049.55
973.312	2461.4025	1938.25	1048.8
973.4408	2462.7627	1940.55	1045.35
973.5697	2464.1222	1932.15	1049.65
973.6985	2465.4811	1922.4	1036.75
973.8273	2466.8392	1927	1041.85
973.956	2468.1966	1922	1033.05
974.0847	2469.5533	1935.45	1046.4
974.2134	2470.9093	1914.65	1029.1
974.3421	2472.2645	1925.8	1038.45
974.4707	2473.6191	1916.8	1029.9
974.5993	2474.973	1914.45	1027.55
974.7278	2476.3262	1917.1	1029.15
974.8563	2477.6787	1902.8	1016.85
974.9848	2479.0305	1902.6	1015.25
975.1132	2480.3816	1900.1	1012.35
975.2417	2481.7319	1897.65	1010.85
975.37	2483.0816	1896.75	1010.8
975.4984	2484.4306	1888.05	1000.2
975.6267	2485.7789	1888.2	1003.3
975.755	2487.1264	1877.8	989.7
975.8833	2488.4733	1869.9	985
976.0115	2489.8195	1875.1	981.55
976.1397	2491.165	1875.4	984.75
976.2678	2492.5097	1858.05	971.65
976.3959	2493.8538	1870.85	987.85
976.524	2495.1972	1852.1	963.05
976.6521	2496.5398	1850.55	963.15
976.7801	2497.8818	1850.75	961.2
976.9081	2499.2231	1842.7	954.55
977.036	2500.5637	1846.4	956.45
977.164	2501.9035	1840.85	952.3
977.2918	2503.2427	1844.35	952.55
977.4197	2504.5812	1835.95	948.95
977.5475	2505.919	1838.7	948.65
977.6753	2507.256	1847.8	961.1
977.8031	2508.5924	1823.35	939.95
977.9308	2509.9281	1834.4	942.7
978.0585	2511.2631	1826.6	939.05
978.1861	2512.5974	1818.2	933.25
978.3137	2513.9309	1821.15	932.55
978.4413	2515.2638	1841.2	931.15
978.5689	2516.596	1821.5	936.65
978.6964	2517.9275	1811.7	924.55
978.8239	2519.2583	1809.45	920.05
978.9513	2520.5884	1805.55	918.7
979.0788	2521.9178	1798.65	912.4
979.2062	2523.2465	1795.55	911.1
979.3335	2524.5745	1794.2	907.35
979.4608	2525.9018	1786.75	901.4
979.5881	2527.2284	1786.25	899.6
979.7154	2528.5543	1786.25	900.7
979.8426	2529.8796	1791.4	902.8
979.9698	2531.2041	1786.95	898.6
980.0969	2532.5279	1783.9	897.75
980.224	2533.851	1776.1	888.7
980.3511	2535.1735	1768.45	883.15
980.4781	2536.4952	1782.3	895.75
980.6052	2537.8163	1777.9	888.8
980.7321	2539.1366	1774.9	887.85
980.8591	2540.4562	1776.45	887.7
980.986	2541.7752	1775.7	890.35
981.1129	2543.0935	1767.2	880.35
981.2397	2544.411	1773.65	882.6
981.3665	2545.7279	1768.25	880.75
981.4933	2547.0441	1757.5	868.6
981.62	2548.3596	1759.65	866.65
981.7467	2549.6744	1761.3	874.5
981.8734	2550.9885	1757.3	866.7
982.0001	2552.3019	1753.65	864.8
982.1267	2553.6146	1747.8	860.45
982.2532	2554.9266	1743.2	858.55
982.3798	2556.2379	1750.4	862.9
982.5063	2557.5485	1743.5	858.8
982.6327	2558.8585	1756.2	863.6
982.7592	2560.1677	1747.75	857.7
982.8856	2561.4762	1738.7	852.3
983.0119	2562.7841	1746.25	855.95
983.1383	2564.0913	1735.55	850.55
983.2646	2565.3977	1724.2	837.95
983.3908	2566.7035	1728.45	841.6
983.517	2568.0086	1726.5	837.7
983.6432	2569.313	1716.15	828.4
983.7694	2570.6167	1724.95	834.45
983.8955	2571.9197	1723.45	836.15
984.0216	2573.222	1726.8	836.15
984.1476	2574.5236	1720.8	830.7
984.2737	2575.8246	1730.45	841.7
984.3996	2577.1248	1719.1	829.15
984.5256	2578.4244	1727.05	840.8
984.6515	2579.7232	1714.6	828.9
984.7774	2581.0214	1743.6	830.7
984.9032	2582.3189	1717.7	833.35
985.029	2583.6157	1719.5	827.1
985.1548	2584.9118	1726.05	839.4
985.2806	2586.2072	1710.65	821.6
985.4063	2587.5019	1711.55	823.95
985.5319	2588.7959	1717.8	830.2
985.6576	2590.0893	1709.5	819.25
985.7832	2591.3819	1709.3	822.5
985.9087	2592.6739	1710.85	824.95
986.0343	2593.9652	1713.5	823.3
986.1597	2595.2557	1710.2	821.75
986.2852	2596.5456	1708.5	819.05
986.4106	2597.8348	1709.75	824
986.536	2599.1234	1710.1	824.4
986.6614	2600.4112	1704.4	818.4
986.7867	2601.6983	1713.05	821.65
986.912	2602.9848	1703.8	815.45
987.0372	2604.2705	1706.95	814.35
987.1624	2605.5556	1701.65	815.7
987.2876	2606.84	1687.85	802.8
987.4128	2608.1237	1698.5	812.6
987.5379	2609.4067	1690.65	803.9
987.6629	2610.689	1694.2	798.15
987.788	2611.9707	1681.9	790.1
987.913	2613.2516	1686.2	794.9
988.0379	2614.5319	1673.75	789.95
988.1629	2615.8115	1668.1	781.3
988.2878	2617.0903	1669.3	782.35
988.4126	2618.3685	1666.7	782.4
988.5375	2619.6461	1671	783.25
988.6622	2620.9229	1660.95	773.55
988.787	2622.199	1671.5	785.25
988.9117	2623.4745	1666.35	779.7
989.0364	2624.7493	1651.3	768.35
989.161	2626.0234	1661.5	777.75
989.2857	2627.2968	1656.8	768.35
989.4102	2628.5695	1652	765.2
989.5348	2629.8415	1658.25	771.05
989.6593	2631.1128	1654.6	767.4
989.7837	2632.3835	1653.5	767.6
989.9082	2633.6535	1643.75	757.3
990.0326	2634.9228	1642.75	758.5
990.1569	2636.1914	1635.85	751.25
990.2812	2637.4593	1645.65	759.25
990.4055	2638.7265	1642.45	756.7
990.5298	2639.9931	1644.55	759.6
990.654	2641.259	1628	740.95
990.7782	2642.5242	1635.75	748.65
990.9023	2643.7887	1626.6	742.5
991.0264	2645.0525	1632.95	748.5
991.1505	2646.3156	1625.8	737.55
991.2745	2647.5781	1624.15	739.8
991.3985	2648.8398	1619.1	735.15
991.5225	2650.1009	1648.55	724.85
991.6464	2651.3613	1625.4	740.6
991.7703	2652.6211	1616.35	730.95
991.8942	2653.8801	1611.35	726.85
992.018	2655.1385	1623.7	739.75
992.1418	2656.3961	1612.8	726.9
992.2655	2657.6531	1612.55	727.7
992.3892	2658.9094	1606.85	722.6
992.5129	2660.1651	1610	727.8
992.6366	2661.42	1613.85	726.85
992.7602	2662.6743	1620.15	733.45
992.8837	2663.9279	1620.85	736.45
993.0073	2665.1808	1609.85	723.15
993.1307	2666.433	1610.15	722.25
993.2542	2667.6846	1614.85	732.4
993.3776	2668.9354	1622.5	733.1
993.501	2670.1856	1618.15	732.15
993.6244	2671.4351	1614.65	729.7
993.7477	2672.6839	1619.7	733.35
993.8709	2673.9321	1621.3	736.85
993.9942	2675.1795	1627.25	739.65
994.1174	2676.4263	1624.7	739.9
994.2405	2677.6724	1624.8	740.65
994.3637	2678.9179	1620.35	735.5
994.4868	2680.1626	1623.65	739.45
994.6098	2681.4067	1622.4	738.35
994.7328	2682.6501	1621.8	734.7
994.8558	2683.8928	1615.25	730.65
994.9788	2685.1348	1616.6	733
995.1017	2686.3761	1610.55	725.95
995.2245	2687.6168	1610.2	724.45
995.3474	2688.8568	1602.65	718.7
995.4702	2690.0961	1596.65	713.6
995.5929	2691.3348	1594.3	708
995.7156	2692.5727	1591.05	704.95
995.8383	2693.81	1590.2	705.35
995.961	2695.0466	1588.1	705.85
996.0836	2696.2826	1584.25	698.05
996.2062	2697.5178	1606.2	701.45
996.3287	2698.7524	1582.7	697.1
996.4512	2699.9863	1588.3	700.8
996.5737	2701.2195	1582.05	698.25
996.6961	2702.452	1591.95	706.4
996.8185	2703.6839	1591.85	707.4
996.9408	2704.9151	1596.85	712.7
997.0631	2706.1456	1597.25	711.8
997.1854	2707.3755	1603.35	717.15
997.3077	2708.6046	1614.9	727.2
997.4299	2709.8331	1605.7	720.1
997.552	2711.0609	1622.15	736.45
997.6742	2712.2881	1631	746.8
997.7963	2713.5145	1650.4	764.55
997.9183	2714.7403	1637.6	753.15
998.0403	2715.9654	1644.3	757.75
998.1623	2717.1899	1673.75	775
998.2842	2718.4136	1671.7	789.05
998.4062	2719.6367	1679.7	795.4
998.528	2720.8591	1693.35	803.3
998.6498	2722.0809	1706.3	821.95
998.7716	2723.3019	1707.95	819.5
998.8934	2724.5223	1722.7	839.05
999.0151	2725.7421	1719.5	832.95
999.1368	2726.9611	1725.55	838.8
999.2584	2728.1795	1726.1	837.75
999.38	2729.3972	1716	832.85
999.5016	2730.6142	1719.9	827.25
999.6231	2731.8306	1687.55	805.45
999.7446	2733.0462	1673	788.65
999.8661	2734.2612	1659.7	770.45
999.9875	2735.4756	1640.4	753
1000.1089	2736.6892	1630.3	746.1
1000.2302	2737.9022	1600.15	717.05
1000.3515	2739.1145	1596.7	712.5
1000.4728	2740.3262	1590.15	697.45
1000.594	2741.5372	1581.15	697.65
1000.7152	2742.7475	1564.6	682.3
1000.8363	2743.9571	1556	669.15
1000.9575	2745.1661	1548.35	660.8
1001.0785	2746.3744	1538.65	656.65
1001.1996	2747.582	1523.65	641.75
1001.3206	2748.7889	1523.3	638.8
1001.4415	2749.9952	1517	632.05
1001.5625	2751.2008	1505.6	618.45
1001.6833	2752.4057	1502.3	615.85
1001.8042	2753.61	1496.5	612.6
1001.925	2754.8136	1495	608.7
1002.0458	2756.0165	1494.4	611.05
1002.1665	2757.2188	1489.3	607.1
1002.2872	2758.4204	1493.3	609.8
1002.4078	2759.6213	1489.55	603.95
1002.5285	2760.8215	1495.05	608.95
1002.649	2762.0211	1494.75	610.25
1002.7696	2763.22	1490.15	605.9
1002.8901	2764.4182	1483.45	598.45
1003.0106	2765.6158	1474.5	592.95
1003.131	2766.8127	1487.05	602.3
1003.2514	2768.009	1472.9	589.35
1003.3717	2769.2045	1465.2	581.55
1003.492	2770.3994	1471.25	586.65
1003.6123	2771.5936	1467.15	583.15
1003.7325	2772.7872	1461.05	580.55
1003.8527	2773.9801	1457.95	574.7
1003.9729	2775.1723	1470.7	571.3
1004.093	2776.3639	1455.3	574.25
1004.2131	2777.5548	1457.85	573.95
1004.3331	2778.745	1455.45	571.8
1004.4531	2779.9346	1457.4	576.5
1004.5731	2781.1235	1460.45	576.1
1004.693	2782.3117	1460.6	580.6
1004.8129	2783.4992	1460.8	578.55
1004.9328	2784.6861	1460	577
1005.0526	2785.8723	1472.55	590.05
1005.1723	2787.0579	1469	586.5
1005.2921	2788.2428	1471.4	589.75
1005.4118	2789.427	1483.65	601.45
1005.5314	2790.6106	1491.6	609.15
1005.651	2791.7935	1497.1	615.8
1005.7706	2792.9757	1494.75	612.5
1005.8902	2794.1573	1516.4	632.6
1006.0097	2795.3382	1518.2	637.35
1006.1291	2796.5184	1534	653.4
1006.2485	2797.698	1541.95	658.35
1006.3679	2798.8769	1564.05	681.35
1006.4873	2800.0551	1564.55	681.55
1006.6066	2801.2327	1589.1	705.55
1006.7258	2802.4096	1605.5	723.1
1006.8451	2803.5859	1622.5	740.9
1006.9642	2804.7615	1636.5	755.55
1007.0834	2805.9364	1660.7	780.6
1007.2025	2807.1106	1684.25	802.05
1007.3216	2808.2842	1701.5	819.9
1007.4406	2809.4572	1736.5	855.3
1007.5596	2810.6294	1771.05	887
1007.6785	2811.801	1797.25	917.25
1007.7975	2812.972	1833.35	952.45
1007.9163	2814.1423	1873.25	993.55
1008.0352	2815.3119	1922.1	1040.7
1008.154	2816.4808	1973.2	1092.45
1008.2727	2817.6491	2014.75	1131.9
1008.3914	2818.8167	2063.5	1182.15
1008.5101	2819.9837	2108.05	1220.1
1008.6288	2821.15	2148.85	1267.25
1008.7474	2822.3157	2216.55	1335.65
1008.8659	2823.4807	2254.15	1371.55
1008.9844	2824.645	2300.75	1417.4
1009.1029	2825.8086	2360.45	1479.65
1009.2214	2826.9716	2410.65	1531.05
1009.3398	2828.134	2451.15	1569.7
1009.4581	2829.2957	2494	1613.05
1009.5764	2830.4567	2526.9	1646.95
1009.6947	2831.617	2548.35	1664.8
1009.813	2832.7767	2552.85	1673.25
1009.9312	2833.9358	2553.2	1675.1
1010.0493	2835.0941	2548.3	1665.5
1010.1675	2836.2519	2533.35	1651.85
1010.2855	2837.4089	2529.65	1648.45
1010.4036	2838.5653	2516.65	1635
1010.5216	2839.7211	2510.4	1628.4
1010.6396	2840.8761	2507.7	1624.85
1010.7575	2842.0306	2527.25	1646.75
1010.8754	2843.1843	2548.2	1667.25
1010.9932	2844.3374	2597.8	1716.95
1011.111	2845.4899	2643.2	1761.65
1011.2288	2846.6417	2706.9	1825.95
1011.3465	2847.7928	2760.45	1882.15
1011.4642	2848.9433	2831.1	1950
1011.5818	2850.0931	2921.8	2039.65
1011.6995	2851.2422	2982.7	2099.45
1011.817	2852.3907	3026.65	2145.35
1011.9345	2853.5385	3098.15	2216
1012.052	2854.6857	3146.85	2255.3
1012.1695	2855.8323	3185.7	2306.15
1012.2869	2856.9781	3244.05	2364.55
1012.4042	2858.1233	3291.65	2412.9
1012.5216	2859.2679	3333.95	2451.55
1012.6389	2860.4118	3394.65	2513.6
1012.7561	2861.555	3426.35	2539.1
1012.8733	2862.6976	3471.55	2588.95
1012.9905	2863.8395	3499.75	2621.2
1013.1076	2864.9808	3526.2	2645.55
1013.2247	2866.1214	3535	2655.45
1013.3417	2867.2614	3549.2	2666.6
1013.4587	2868.4007	3563.9	2681.4
1013.5757	2869.5393	3588.8	2707.85
1013.6926	2870.6773	3599.2	2713.1
1013.8095	2871.8146	3613.2	2728.6
1013.9263	2872.9513	3612.65	2729.85
1014.0431	2874.0874	3605.75	2725.45
1014.1599	2875.2227	3592.65	2712.7
1014.2766	2876.3574	3581.85	2700.95
1014.3933	2877.4915	3563.15	2683.85
1014.51	2878.6249	3521.05	2641.05
1014.6266	2879.7577	3506.65	2625.4
1014.7431	2880.8898	3482.3	2592.3
1014.8596	2882.0212	3465.15	2585.65
1014.9761	2883.152	3460.4	2579.55
1015.0925	2884.2821	3442	2563.95
1015.2089	2885.4116	3431.95	2552.85
1015.3253	2886.5405	3429.6	2549.75
1015.4416	2887.6686	3451.25	2568.6
1015.5579	2888.7962	3447.2	2570.95
1015.6741	2889.923	3452.45	2571.3
1015.7903	2891.0493	3475.9	2598.65
1015.9065	2892.1748	3474.4	2593
1016.0226	2893.2997	3500.35	2622.45
1016.1387	2894.424	3506.25	2625.95
1016.2547	2895.5476	3505.2	2625.3
1016.3707	2896.6706	3542.65	2664.7
1016.4866	2897.7929	3558.45	2679.55
1016.6025	2898.9145	3588.55	2707.85
1016.7184	2900.0355	3621.2	2740.85
1016.8342	2901.1559	3647.15	2766.85
1016.95	2902.2756	3678.6	2800.05
1017.0658	2903.3946	3716.95	2838.85
1017.1815	2904.513	3731.15	2847.75
1017.2971	2905.6308	3764.25	2887.25
1017.4127	2906.7479	3772.9	2891.35
1017.5283	2907.8643	3800.05	2919.4
1017.6439	2908.9801	3817.75	2938.85
1017.7594	2910.0953	3820.55	2940.9
1017.8748	2911.2098	3838.1	2957.45
1017.9902	2912.3236	3827.9	2940
1018.1056	2913.4368	3813.25	2932.4
1018.2209	2914.5494	3789.35	2909.7
1018.3362	2915.6613	3761.5	2874.5
1018.4515	2916.7725	3744.9	2862.05
1018.5667	2917.8831	3709.65	2828.05
1018.6819	2918.9931	3663.65	2782
1018.797	2920.1024	3659.7	2780
1018.9121	2921.211	3631.8	2754.75
1019.0271	2922.319	3611	2731.9
1019.1421	2923.4264	3592.25	2713.1
1019.2571	2924.5331	3574.3	2694.95
1019.372	2925.6391	3559.25	2681.05
1019.4869	2926.7445	3567.1	2688.6
1019.6017	2927.8493	3561.35	2681.35
1019.7165	2928.9534	3555.2	2674.85
1019.8313	2930.0569	3559.1	2677.1
1019.946	2931.1597	3572.7	2694.6
1020.0606	2932.2619	3561.65	2682.75
1020.1753	2933.3634	3543.7	2666
1020.2899	2934.4643	3551.45	2664.55
1020.4044	2935.5645	3554.35	2671.2
1020.5189	2936.6641	3513.45	2628.75
1020.6334	2937.763	3481.3	2603.15
1020.7478	2938.8613	3435	2555.25
1020.8622	2939.959	3402.55	2519.7
1020.9765	2941.056	3325.7	2449.15
1021.0908	2942.1523	3239.8	2359.95
1021.2051	2943.248	3171.15	2293.2
1021.3193	2944.3431	3073.7	2193.7
1021.4334	2945.4375	2972.95	2094.9
1021.5476	2946.5313	2873.9	1997.2
1021.6617	2947.6244	2786.8	1907.4
1021.7757	2948.7169	2686.5	1806.1
1021.8897	2949.8087	2597.8	1720.1
1022.0037	2950.8999	2499.3	1621.2
1022.1176	2951.9904	2416.4	1538.25
1022.2315	2953.0803	2353.85	1475.3
1022.3453	2954.1696	2300.15	1421.15
1022.4591	2955.2582	2247.3	1370.35
1022.5728	2956.3462	2194.9	1314.65
1022.6865	2957.4335	2158.05	1278
1022.8002	2958.5202	2121.8	1242
1022.9138	2959.6062	2104.55	1225.95
1023.0274	2960.6916	2079	1201.65
1023.141	2961.7764	2065.35	1186.7
1023.2545	2962.8605	2045.5	1167
1023.3679	2963.9439	2033.4	1156.65
1023.4813	2965.0267	2028.65	1148.65
1023.5947	2966.1089	2028.3	1129.75
1023.708	2967.1905	2004.65	1127.3
1023.8213	2968.2714	2007.7	1130.2
1023.9346	2969.3516	2000.65	1123.6
1024.0478	2970.4312	2017.95	1132.45
1024.1609	2971.5102	2008.7	1130.25
1024.274	2972.5885	1997.55	1120.15
1024.3871	2973.6662	2010.9	1129.4
1024.5002	2974.7432	2013.3	1134.75
1024.6132	2975.8196	1995.55	1117.6
1024.7261	2976.8954	1992.8	1115.15
1024.839	2977.9705	1979.75	1103.3
1024.9519	2979.045	1965.2	1086.3
1025.0647	2980.1188	1963.6	1086.7
1025.1775	2981.192	1945.7	1066.85
1025.2902	2982.2645	1920.1	1042.85
1025.4029	2983.3364	1892.85	1014.15
1025.5156	2984.4077	1872.1	995.1
1025.6282	2985.4783	1846.05	962
1025.7407	2986.5483	1805.5	928.5
1025.8532	2987.6177	1778.05	900
1025.9657	2988.6864	1754.35	876.9
1026.0782	2989.7545	1720	842.2
1026.1906	2990.8219	1679.05	804.1
1026.3029	2991.8887	1649.25	769.6
1026.4152	2992.9548	1619	740.55
1026.5275	2994.0204	1590.95	715.5
1026.6397	2995.0852	1560.2	684.2
1026.7519	2996.1495	1531.8	653.35
1026.864	2997.2131	1514.2	636.8
1026.9761	2998.276	1489.1	611.15
1027.0882	2999.3383	1479.7	601.85
1027.2002	3000.4	1457.55	578.25
1027.3122	3001.4611	1436.2	560
1027.4241	3002.5215	1412.75	538.05
1027.536	3003.5812	1405.05	527.85
1027.6478	3004.6404	1393.15	515.05
1027.7596	3005.6989	1382.4	501.05
1027.8714	3006.7567	1373.3	497.3
1027.9831	3007.8139	1391	486.9
1028.0947	3008.8705	1352.65	474.45
1028.2064	3009.9264	1365.35	472.35
1028.3179	3010.9818	1338.6	463.3
1028.4295	3012.0364	1334	454.05
1028.541	3013.0905	1332.15	454
1028.6524	3014.1439	1326.2	447.1
1028.7638	3015.1966	1314.6	437.8
1028.8752	3016.2487	1315.1	438.65
1028.9865	3017.3002	1326.45	442.95
1029.0978	3018.3511	1310.7	432.85
1029.209	3019.4013	1319.8	442.3
1029.3202	3020.4509	1310.25	431.6
1029.4314	3021.4998	1311.45	433.45
1029.5425	3022.5481	1312.8	436.6
1029.6535	3023.5958	1314.65	437.95
1029.7645	3024.6428	1311.2	434.2
1029.8755	3025.6892	1300.6	424.35
1029.9864	3026.735	1312.2	432.5
1030.0973	3027.7802	1311.55	436.25
1030.2082	3028.8247	1303.95	428.05
1030.319	3029.8685	1309.85	429.8
1030.4297	3030.9118	1318.9	442.35
1030.5404	3031.9544	1315.9	441.8
1030.6511	3032.9963	1318.05	440.55
1030.7617	3034.0376	1325.8	447.85
1030.8723	3035.0783	1326.1	445.95
1030.9829	3036.1184	1331.75	455.55
1031.0934	3037.1578	1328.25	452.8
1031.2038	3038.1966	1331.85	453.3
1031.3142	3039.2348	1332.05	456.65
1031.4246	3040.2723	1343.25	455.95
1031.5349	3041.3092	1329.4	454.6
1031.6452	3042.3455	1327.85	449.45
1031.7554	3043.3811	1329.85	451.7
1031.8656	3044.4161	1328.7	450.45
1031.9758	3045.4505	1320	441.7
1032.0859	3046.4842	1317.95	442
1032.1959	3047.5173	1314.45	437.9
1032.3059	3048.5498	1313.7	437.65
1032.4159	3049.5816	1303.95	428.75
1032.5258	3050.6128	1302.75	425.15
1032.6357	3051.6434	1297.45	418.85
1032.7455	3052.6734	1296.15	416.75
1032.8553	3053.7027	1280.25	402.75
1032.9651	3054.7314	1275.85	400.2
1033.0748	3055.7594	1283.1	408.45
1033.1845	3056.7868	1274.5	396.5
1033.2941	3057.8136	1277.3	401.05
1033.4037	3058.8398	1263.6	387.75
1033.5132	3059.8653	1266.55	391.6
1033.6227	3060.8902	1261.55	385.65
1033.7321	3061.9145	1255.05	377.8
1033.8415	3062.9381	1252.55	376.25
1033.9509	3063.9612	1268.35	377.25
1034.0602	3064.9835	1241.35	367.55
1034.1694	3066.0053	1240.6	362.05
1034.2787	3067.0264	1236.6	361.3
1034.3878	3068.0469	1234.45	355.45
1034.497	3069.0668	1220.75	342
1034.6061	3070.086	1215.5	341.6
1034.7151	3071.1046	1210.4	335
1034.8241	3072.1226	1208.2	329.9
1034.9331	3073.1399	1202.95	327.8
1035.042	3074.1567	1184.85	308.7
1035.1508	3075.1727	1181.1	303
1035.2597	3076.1882	1177.5	302.5
1035.3684	3077.203	1169.85	293.85
1035.4772	3078.2173	1164.15	287.7
1035.5859	3079.2308	1155.15	277.05
1035.6945	3080.2438	1150.8	274.9
1035.8031	3081.2561	1138.9	261.65
1035.9117	3082.2678	1133.85	258.1
1036.0202	3083.2789	1119.2	243.5
1036.1286	3084.2893	1118.1	243.45
1036.2371	3085.2991	1111.45	233
1036.3454	3086.3083	1119.3	239.3
1036.4538	3087.3169	1107.55	230.35
1036.562	3088.3248	1103	225.75
1036.6703	3089.3321	1094.7	217.75
1036.7785	3090.3388	1096.6	221.6
1036.8866	3091.3449	1089.55	214.45
1036.9948	3092.3503	1088.7	210.2
1037.1028	3093.3551	1083.05	208.85
1037.2108	3094.3593	1079.95	205.4
1037.3188	3095.3629	1077.1	200.95
1037.4267	3096.3658	1075.95	198.65
1037.5346	3097.3681	1073.35	197.05
1037.6425	3098.3698	1075.55	196.7
1037.7503	3099.3708	1073.05	190.05
1037.858	3100.3713	1062.15	185.85
1037.9657	3101.3711	1061.15	185.6
1038.0734	3102.3702	1193.2	178
1038.181	3103.3688	1057.85	180.9
1038.2886	3104.3667	1054.75	178.65
1038.3961	3105.364	1052.35	176.45
1038.5036	3106.3607	1052.8	175.45
1038.611	3107.3568	1048.7	170.2
1038.7184	3108.3522	1047	171.85
1038.8257	3109.347	1045.9	171.3
1038.933	3110.3412	1047.2	166.75
1039.0403	3111.3348	1043.75	168.35
1039.1475	3112.3277	1039.45	164.55
1039.2547	3113.32	1039.9	165.4
1039.3618	3114.3117	1037	161.4
1039.4689	3115.3028	1037.85	163.6
1039.5759	3116.2932	1036.4	160
1039.6829	3117.2831	1037.6	156.5
1039.7898	3118.2723	1031.05	156.35
1039.8967	3119.2608	1029.4	153.7
1040.0035	3120.2488	1025.6	150.4
1040.1103	3121.2361	1023.1	147.3
1040.2171	3122.2229	1026.85	151.2
1040.3238	3123.209	1025.1	149.65
1040.4305	3124.1944	1020.4	145.75
1040.5371	3125.1793	1023.1	146.5
1040.6437	3126.1635	1016.8	141.65
1040.7502	3127.1471	1018.85	146.35
1040.8567	3128.1301	1016.4	142.45
1040.9631	3129.1125	1017.55	142.9
1041.0695	3130.0942	1018.95	140.95
1041.1759	3131.0753	1024.9	141.6
1041.2822	3132.0558	1015.95	138
1041.3884	3133.0357	1011.35	134.65
1041.4946	3134.015	1010.8	134.15
1041.6008	3134.9936	1009.1	130.55
1041.7069	3135.9716	1024.9	128.85
1041.813	3136.949	1008.55	134.45
1041.919	3137.9258	1026.2	132.7
1042.025	3138.902	1009.9	130.3
1042.1309	3139.8775	1007.75	133.05
1042.2368	3140.8524	1003.15	128.65
1042.3427	3141.8267	1002.35	126.3
1042.4485	3142.8004	999.7	124.65
1042.5542	3143.7735	1005.75	125.3
1042.6599	3144.7459	1000.4	124.9
1042.7656	3145.7178	998	123.05
1042.8712	3146.689	993.6	121.2
1042.9768	3147.6596	995.65	117.1
1043.0823	3148.6295	990.95	115.35
1043.1878	3149.5989	991	115.65
1043.2932	3150.5676	992.9	119.4
1043.3986	3151.5357	994	120.4
1043.5039	3152.5032	989.75	116.15
1043.6092	3153.4701	988.9	116.4
1043.7145	3154.4364	992.15	115.25
1043.8197	3155.402	988.3	115.65
1043.9248	3156.367	991.05	114.65
1044.03	3157.3315	1018.15	113.4
1044.135	3158.2952	985.7	110.6
1044.24	3159.2584	985.5	112.35
1044.345	3160.221	977.75	101.8
1044.4499	3161.1829	982.1	107.15
1044.5548	3162.1442	983	107.25
1044.6596	3163.105	981.55	107.6
1044.7644	3164.065	976.5	100.85
1044.8692	3165.0245	983.95	105.35
1044.9739	3165.9834	979.5	106.45
1045.0785	3166.9416	975.95	101.55
1045.1831	3167.8993	979.6	103.15
1045.2877	3168.8563	977.8	101.2
1045.3922	3169.8127	975.8	101.15
1045.4966	3170.7684	975.65	102.05
1045.6011	3171.7236	974.65	98.85
1045.7054	3172.6782	972.2	97.7
1045.8098	3173.6321	973.55	98.25
1045.914	3174.5854	980.1	101
1046.0183	3175.5381	974.2	100.75
1046.1224	3176.4902	972.1	97.45
1046.2266	3177.4417	971	95.85
1046.3307	3178.3926	972	96.05
1046.4347	3179.3428	969.45	95.4
1046.5387	3180.2924	968.9	93.8
1046.6427	3181.2415	968.6	92.9
1046.7466	3182.1899	969.2	90.15
1046.8504	3183.1377	971.15	95.7
1046.9542	3184.0848	971.25	93.8
1047.058	3185.0314	966.85	92.55
1047.1617	3185.9773	966.4	92.3
1047.2654	3186.9227	967.65	91.4
1047.369	3187.8674	963.65	89.7
1047.4726	3188.8115	968.35	89.5
1047.5761	3189.755	967.45	93.4
1047.6796	3190.6979	964.4	91.8
1047.783	3191.6402	961.4	88.25
1047.8864	3192.5818	960.25	85
1047.9898	3193.5229	982.65	92.05
1048.0931	3194.4633	966.5	93.75
1048.1963	3195.4031	962.3	87.25
1048.2995	3196.3423	960.55	84.65
1048.4027	3197.2809	962	86.75
1048.5058	3198.2189	957.95	82.95
1048.6089	3199.1563	963.35	83.5
1048.7119	3200.0931	959.15	84.45
1048.8148	3201.0292	955.05	82.15
1048.9178	3201.9648	956.5	82.9
1049.0206	3202.8997	957.5	80
1049.1235	3203.834	958.65	84.75
1049.2262	3204.7677	955.55	81.2
1049.329	3205.7008	955.75	81
1049.4317	3206.6333	952.25	77.7
1049.5343	3207.5652	954.75	79.95
1049.6369	3208.4964	951.05	76.35
1049.7394	3209.4271	955.95	81.45
1049.8419	3210.3571	954.25	82.15
1049.9444	3211.2865	952.45	78.35
1050.0468	3212.2154	953.65	78.75
1050.1491	3213.1436	953.2	76.05
1050.2514	3214.0712	958.7	76.2
1050.3537	3214.9982	949.15	75.05
1050.4559	3215.9246	948.25	72.15
1050.5581	3216.8503	948.1	75.3
1050.6602	3217.7755	948.15	74.1
1050.7623	3218.7001	947.35	74.9
1050.8643	3219.624	946.75	74.05
1050.9663	3220.5473	949.75	74.95
1051.0682	3221.4701	950.2	74.85
1051.1701	3222.3922	950.6	74.9
1051.2719	3223.3137	948.55	74.05
1051.3737	3224.2346	946.35	72.3
1051.4754	3225.1549	943.55	69.45
1051.5771	3226.0746	945.1	70.9
1051.6788	3226.9937	948.25	71.95
1051.7804	3227.9121	945.7	72.25
1051.8819	3228.83	942.7	67.7
1051.9834	3229.7473	944.6	70.9
1052.0849	3230.6639	944.35	70.15
1052.1863	3231.5799	945.1	69.3
1052.2876	3232.4954	942.15	65.9
1052.3889	3233.4102	943.1	69.35
1052.4902	3234.3244	940.6	66.1
1052.5914	3235.238	939.65	67.65
1052.6926	3236.151	962.8	66
1052.7937	3237.0634	942.75	71.85
1052.8948	3237.9752	937.65	63.55
1052.9958	3238.8864	938.55	62.3
1053.0968	3239.797	939.65	65.2
1053.1977	3240.7069	942.1	66.25
1053.2986	3241.6163	936.55	62.65
1053.3994	3242.5251	936.45	61.7
1053.5002	3243.4332	936.8	62.45
1053.6009	3244.3408	939.2	65.55
1053.7016	3245.2477	936.2	62.1
1053.8022	3246.154	934.15	57.7
1053.9028	3247.0598	937.15	62.3
1054.0034	3247.9649	934.7	61.45
1054.1039	3248.8694	935.05	60.55
1054.2043	3249.7733	935	61.35
1054.3047	3250.6766	933.65	58.75
1054.4051	3251.5793	931.7	55.05
1054.5054	3252.4814	933.6	61.5
1054.6056	3253.3829	932	59.95
1054.7058	3254.2838	932	59
1054.806	3255.1841	930.1	56.1
1054.9061	3256.0838	930.75	56.6
1055.0061	3256.9829	928.3	56.1
1055.1062	3257.8814	932.95	56.45
1055.2061	3258.7792	931.85	56.7
1055.306	3259.6765	931.5	57.2
1055.4059	3260.5731	925.75	51.65
1055.5057	3261.4692	929.1	55.75
1055.6055	3262.3647	926.55	52.65
1055.7052	3263.2595	926.05	51.3
1055.8049	3264.1538	925.35	53.15
1055.9045	3265.0474	925.1	52.3
1056.0041	3265.9404	924.15	51.25
1056.1036	3266.8329	920.3	45.6
1056.2031	3267.7247	930.75	47.9
1056.3025	3268.616	918.95	46.5
1056.4019	3269.5066	914.25	40.15
1056.5013	3270.3966	918.25	42.4
1056.6005	3271.286	914.85	42.35
