Software Version:	3.9.2.0
Unit SN:	10000200
Spectrometer SN:	6960
Date:	3/8/2024 11:50:52 AM
Data Line Index:	25
Spectral Points:	2048
Integration time (ms):	125
Averages:	20
Delay (ms):	30000
Sequence Number:	1
Processing:	dark subtract
Laser Power (mW):	305
Laser Current (mA):	823
Laser Diode Temp (C):	25.1
Laser Case Temp (C):	25.4
System Temp (C):	25.4
Spectrometer Temp (C):	23.2
CCD Temp (C):	0.005
Secondary Temp (C):	20.004
Heatsink Temp (C):	19.818
CCDPCB Temp (C):	34.995
SecondaryPCB Temp (C):	28.226

Wavelength	RamanShift	Raw Counts	Dark Subtracted
787.061	30.1047	414.25	3.5
787.2016	32.3739	412.6	5.15
787.3422	34.6426	412.85	4.2
787.4828	36.9109	416.2	5.75
787.6235	39.1787	420	7.45
787.7642	41.4461	425.5	8.5
787.9049	43.7131	429.85	6.45
788.0456	45.9796	432.45	8.8
788.1863	48.2456	438.8	10.65
788.3271	50.5112	440.9	11.7
788.4679	52.7764	446.45	11.3
788.6087	55.0411	448.75	8.75
788.7496	57.3054	455.15	9.5
788.8904	59.5692	458.85	12.6
789.0313	61.8326	463.2	13.9
789.1722	64.0955	467.65	14.95
789.3132	66.3579	475.15	19
789.4541	68.6199	481.9	20.75
789.5951	70.8815	493.5	27.35
789.7361	73.1426	509.1	38.25
789.8771	75.4032	539.6	66.15
790.0181	77.6634	610.6	133.7
790.1592	79.9231	772.05	290.25
790.3003	82.1824	1108.4	617.05
790.4414	84.4412	1663.25	1155.35
790.5825	86.6995	2369.3	1840.55
790.7237	88.9574	3024.5	2477.45
790.8648	91.2148	3471.95	2918.45
791.006	93.4717	3663.9	3100
791.1472	95.7282	3679.3	3111.95
791.2885	97.9842	3672.15	3106.65
791.4297	100.2398	3602.2	3026.15
791.571	102.4949	3564	2988.95
791.7123	104.7495	3522.6	2945.95
791.8536	107.0036	3474.95	2895.7
791.9949	109.2573	3390.05	2810.65
792.1363	111.5105	3297.15	2713.95
792.2777	113.7632	3187.35	2603.85
792.4191	116.0154	3115.5	2522.25
792.5605	118.2672	2993.3	2404.15
792.7019	120.5185	2894.85	2305.05
792.8434	122.7693	2812	2219.25
792.9849	125.0197	2748.4	2152.75
793.1264	127.2696	2655.6	2055.9
793.2679	129.519	2626.25	2019.1
793.4094	131.7679	2593.15	1983.8
793.551	134.0163	2570.75	1959.65
793.6926	136.2642	2564.65	1951.55
793.8342	138.5117	2554.7	1932.7
793.9758	140.7587	2524.1	1906.35
794.1175	143.0052	2482.1	1860.9
794.2591	145.2512	2436	1816.4
794.4008	147.4967	2371.15	1749.55
794.5425	149.7417	2342.5	1717.75
794.6842	151.9863	2315.85	1685.9
794.826	154.2304	2310.85	1675.85
794.9677	156.4739	2300.4	1661.7
795.1095	158.717	2313	1671.4
795.2513	160.9596	2329.45	1686.8
795.3931	163.2017	2360.1	1716
795.535	165.4433	2369.3	1722.05
795.6768	167.6844	2359	1709.6
795.8187	169.925	2325.95	1675.05
795.9606	172.1651	2267	1609.95
796.1025	174.4047	2229.85	1568.4
796.2445	176.6439	2188.5	1526.65
796.3864	178.8825	2173.05	1508.4
796.5284	181.1206	2148.8	1477.95
796.6704	183.3582	2145.05	1473.75
796.8124	185.5954	2144.25	1469.05
796.9544	187.832	2144.8	1468.2
797.0965	190.0681	2146.95	1468.8
797.2386	192.3037	2146.95	1467.05
797.3806	194.5388	2165.1	1483.5
797.5228	196.7734	2160.65	1475.3
797.6649	199.0075	2184.6	1495.55
797.807	201.2411	2196.3	1506.55
797.9492	203.4742	2227	1534.95
798.0914	205.7068	2242.5	1548.9
798.2336	207.9389	2268.8	1571.6
798.3758	210.1704	2275	1585
798.518	212.4015	2265.7	1588.75
798.6603	214.632	2265.75	1589.7
798.8025	216.862	2273.8	1598.45
798.9448	219.0915	2282.45	1606.55
799.0871	221.3205	2291	1609.95
799.2294	223.549	2297.4	1622.15
799.3718	225.777	2288.9	1614.7
799.5141	228.0044	2281.95	1600.2
799.6565	230.2314	2291.15	1606.2
799.7989	232.4578	2275.6	1586.25
799.9413	234.6837	2264.05	1568.25
800.0837	236.909	2253.25	1554.25
800.2262	239.1339	2269.25	1547.1
800.3687	241.3582	2247.35	1536.7
800.5111	243.582	2272.85	1537.6
800.6536	245.8053	2269.35	1545.15
800.7961	248.0281	2279.1	1559.5
800.9387	250.2503	2280.6	1557.3
801.0812	252.472	2287.95	1562.15
801.2238	254.6932	2302.4	1583.6
801.3664	256.9139	2301.75	1574.4
801.509	259.134	2327.65	1600.25
801.6516	261.3536	2343.9	1617.6
801.7942	263.5727	2381.2	1650.65
801.9369	265.7912	2427.1	1699.15
802.0795	268.0092	2488.25	1759.85
802.2222	270.2267	2541.05	1812.8
802.3649	272.4436	2582.25	1852.05
802.5076	274.6601	2621.95	1878.35
802.6504	276.8759	2642.25	1903.5
802.7931	279.0913	2657.7	1916.85
802.9359	281.3061	2675.2	1933.55
803.0787	283.5204	2684.6	1939.35
803.2215	285.7341	2714.65	1966.1
803.3643	287.9473	2740.95	1992.4
803.5071	290.16	2726.6	1973.75
803.6499	292.3721	2695.65	1951.75
803.7928	294.5837	2662.55	1917.3
803.9357	296.7947	2640.35	1894.95
804.0786	299.0052	2635.5	1890.6
804.2215	301.2152	2628.9	1881.9
804.3644	303.4246	2593.95	1847.4
804.5074	305.6334	2582.45	1838.1
804.6503	307.8418	2564.9	1815.95
804.7933	310.0495	2548.7	1798.05
804.9363	312.2568	2504.75	1752.35
805.0793	314.4635	2448.1	1694.1
805.2223	316.6696	2408.8	1651.5
805.3653	318.8752	2371.35	1603.8
805.5084	321.0802	2351.25	1592.25
805.6514	323.2847	2339.3	1577.35
805.7945	325.4887	2343.5	1583.2
805.9376	327.692	2361	1597.8
806.0807	329.8949	2414.9	1651.85
806.2238	332.0972	2437.05	1672.85
806.367	334.2989	2457.8	1688.15
806.5101	336.5001	2443.85	1674.95
806.6533	338.7007	2427.35	1656.7
806.7965	340.9008	2384.75	1612.9
806.9397	343.1003	2326.55	1556.5
807.0829	345.2992	2285.4	1514.4
807.2261	347.4976	2252.65	1479.05
807.3693	349.6955	2215.25	1440.75
807.5126	351.8927	2200.45	1420.2
807.6559	354.0895	2196.15	1403.55
807.7991	356.2856	2177.9	1396.85
807.9424	358.4812	2181.75	1400.8
808.0857	360.6763	2158.25	1374.95
808.2291	362.8707	2152.95	1368.3
808.3724	365.0646	2171.3	1382.5
808.5158	367.258	2184.85	1396.15
808.6591	369.4508	2189.2	1398.9
808.8025	371.643	2228.75	1436.4
808.9459	373.8346	2248.65	1454.3
809.0893	376.0257	2284.55	1485.35
809.2327	378.2162	2309.1	1509.75
809.3762	380.4062	2306.7	1511.3
809.5196	382.5956	2281.85	1482.7
809.6631	384.7844	2240.15	1448.9
809.8066	386.9726	2207.25	1418.85
809.9501	389.1603	2179.6	1396.65
810.0936	391.3474	2194.8	1375.75
810.2371	393.5339	2177	1387.05
810.3806	395.7199	2185.9	1398
810.5241	397.9052	2212.3	1421.45
810.6677	400.09	2263.1	1474.95
810.8113	402.2743	2284.5	1493.15
810.9548	404.4579	2322.3	1531
811.0984	406.641	2367.6	1573.9
811.2421	408.8235	2412	1618.35
811.3857	411.0054	2453.45	1653.35
811.5293	413.1868	2505.45	1704.4
811.673	415.3675	2561.1	1757.7
811.8166	417.5477	2568.85	1764.55
811.9603	419.7273	2504.35	1697.05
812.104	421.9064	2432.6	1618.9
812.2477	424.0848	2358.55	1549.15
812.3914	426.2627	2311.25	1502.25
812.5351	428.4399	2250.5	1444
812.6788	430.6166	2207	1392.85
812.8226	432.7928	2165	1350.2
812.9663	434.9683	2119.05	1305.65
813.1101	437.1432	2097.7	1282.35
813.2539	439.3176	2068.3	1256.15
813.3977	441.4914	2058.5	1246.9
813.5415	443.6645	2061.1	1247.05
813.6853	445.8371	2061.55	1245.2
813.8291	448.0091	2057.6	1241.3
813.973	450.1806	2066.8	1251.55
814.1168	452.3514	2044	1228.05
814.2607	454.5216	2060.5	1236.55
814.4046	456.6913	2059.05	1240.25
814.5485	458.8603	2051.05	1236.25
814.6924	461.0288	2064.6	1250.85
814.8363	463.1967	2058.75	1244.4
814.9802	465.3639	2059.65	1243.9
815.1241	467.5306	2045.45	1227.45
815.2681	469.6967	2045.5	1227.55
815.412	471.8622	2029.55	1212.8
815.556	474.0271	2029.45	1210.4
815.7	476.1914	2029.7	1208.25
815.844	478.3551	2033.9	1212.7
815.988	480.5182	2029.6	1208
816.132	482.6807	2038.45	1220.65
816.276	484.8426	2051.75	1236.75
816.4201	487.0039	2092.5	1274
816.5641	489.1647	2137.2	1313.8
816.7082	491.3248	2190.2	1367.45
816.8522	493.4843	2202.75	1381.5
816.9963	495.6432	2202.55	1380.15
817.1404	497.8015	2167.85	1338
817.2845	499.9592	2134.2	1304.3
817.4286	502.1163	2078	1248.15
817.5727	504.2728	2035.4	1208.35
817.7168	506.4287	2011.45	1190.4
817.861	508.5839	1995.45	1171.15
818.0051	510.7386	1980.8	1153.75
818.1493	512.8927	2006.05	1170.6
818.2935	515.0461	2003.55	1171.15
818.4377	517.199	2013.65	1182.4
818.5818	519.3512	2068.2	1235.5
818.726	521.5029	2126.85	1290.95
818.8703	523.6539	2179.75	1347.3
819.0145	525.8043	2188.65	1354.7
819.1587	527.9541	2137.65	1302.4
819.303	530.1033	2085.05	1250.65
819.4472	532.2519	2033.85	1198.6
819.5915	534.3999	2007	1171.05
819.7357	536.5472	2004.35	1169.75
819.88	538.694	2008.7	1172.7
820.0243	540.8401	2015.3	1175.75
820.1686	542.9856	2032.9	1191.55
820.3129	545.1305	2051.2	1207.95
820.4572	547.2748	2064.15	1220.1
820.6016	549.4185	2068.1	1224.3
820.7459	551.5615	2067.3	1224.35
820.8902	553.704	2098.95	1254.15
821.0346	555.8458	2102.7	1260.6
821.1789	557.987	2123.65	1281.1
821.3233	560.1276	2142.6	1296.9
821.4677	562.2675	2205.8	1363.8
821.6121	564.4069	2257.1	1410.9
821.7565	566.5456	2292.35	1451.75
821.9009	568.6837	2285	1443.1
822.0453	570.8212	2213.7	1370.65
822.1897	572.958	2144.35	1299.45
822.3342	575.0942	2103.5	1263.5
822.4786	577.2299	2057.65	1216.1
822.6231	579.3648	2024.25	1188.75
822.7675	581.4992	2008.9	1175.95
822.912	583.6329	2019.6	1185.2
823.0565	585.766	2053.3	1217.65
823.201	587.8985	2088.65	1250.9
823.3454	590.0304	2148.25	1293.4
823.4899	592.1616	2176.05	1324.35
823.6345	594.2922	2164.3	1314
823.779	596.4222	2115.2	1266.4
823.9235	598.5515	2074.35	1224.1
824.068	600.6802	2015.15	1165.15
824.2126	602.8083	1975.5	1125.9
824.3571	604.9358	1971.85	1122.95
824.5017	607.0626	1977.35	1126.45
824.6462	609.1888	1989.35	1136.1
824.7908	611.3144	2009.15	1151
824.9354	613.4393	2047.55	1193.35
825.08	615.5636	2093.75	1235.25
825.2246	617.6873	2144.8	1290.65
825.3692	619.8103	2161.2	1304.9
825.5138	621.9327	2160.9	1302.8
825.6584	624.0544	2132.9	1282
825.803	626.1756	2072.8	1221.95
825.9477	628.2961	2028.25	1172.55
826.0923	630.4159	2014.05	1158.65
826.237	632.5351	2007.1	1150.25
826.3816	634.6537	1992.3	1135.7
826.5263	636.7716	1991.2	1129.3
826.6709	638.8889	1982.9	1122.6
826.8156	641.0056	1984.25	1123.95
826.9603	643.1216	1991.3	1131.2
827.105	645.237	1993.85	1132.85
827.2497	647.3518	1970.8	1113.4
827.3944	649.4659	1947.4	1093.2
827.5391	651.5793	1934.15	1080.3
827.6838	653.6922	1918.45	1062.3
827.8285	655.8043	1911.25	1054.85
827.9733	657.9159	1898.75	1041.35
828.118	660.0268	1896.55	1036.8
828.2627	662.137	1898.35	1038.35
828.4075	664.2466	1889.4	1023.75
828.5522	666.3556	1893.6	1032.65
828.697	668.4639	1881.9	1020.75
828.8418	670.5716	1874.3	1015.4
828.9865	672.6786	1876.3	1013.25
829.1313	674.785	1873.35	1006.7
829.2761	676.8907	1866.5	1001.45
829.4209	678.9958	1865.9	1007.35
829.5657	681.1002	1864.95	998.75
829.7105	683.204	1863.8	995.15
829.8553	685.3072	1860.3	992.3
830.0001	687.4097	1856.7	993.3
830.1449	689.5115	1863.15	995
830.2898	691.6127	1857.9	994
830.4346	693.7132	1854.5	988.3
830.5794	695.8131	1870.65	988.05
830.7243	697.9123	1864.25	995.4
830.8691	700.0109	1865	998.1
831.014	702.1089	1879.2	1013.4
831.1588	704.2061	1890.75	1024.2
831.3037	706.3028	1915.05	1045.65
831.4486	708.3987	1937.5	1066.7
831.5935	710.4941	1947.9	1081.4
831.7383	712.5887	1950.2	1083
831.8832	714.6827	1944.7	1071.4
832.0281	716.7761	1936.8	1066.65
832.173	718.8688	1929.8	1058.6
832.3179	720.9608	1947.45	1072.55
832.4628	723.0522	1969.3	1094.5
832.6077	725.1429	1977.95	1106.4
832.7527	727.233	2017.7	1143.35
832.8976	729.3224	2075.85	1205.35
833.0425	731.4112	2124.1	1254.05
833.1874	733.4993	2132.3	1256.75
833.3324	735.5867	2073.75	1202
833.4773	737.6735	2008.1	1133.6
833.6222	739.7596	1957.8	1085
833.7672	741.845	1941.5	1065.95
833.9122	743.9298	1930.9	1056.9
834.0571	746.014	1942.55	1068.1
834.2021	748.0974	1956.55	1083.1
834.347	750.1802	1961.5	1085.6
834.492	752.2624	1943.85	1068.35
834.637	754.3439	1933.55	1056.25
834.782	756.4247	1927.25	1040.5
834.9269	758.5048	1929.8	1053.35
835.0719	760.5843	1939.4	1061.65
835.2169	762.6631	1978.2	1100.15
835.3619	764.7413	2020.75	1145.6
835.5069	766.8188	2115.2	1236.6
835.6519	768.8956	2192.05	1312.2
835.7969	770.9718	2231.7	1354.4
835.9419	773.0473	2238.3	1358.9
836.0869	775.1221	2209.35	1329.1
836.232	777.1962	2190.2	1312.9
836.377	779.2697	2254.4	1375.3
836.522	781.3426	2364	1467.3
836.667	783.4147	2394.2	1514.6
836.8121	785.4862	2382	1503.7
836.9571	787.557	2286.15	1406
837.1021	789.6271	2181.05	1301.1
837.2472	791.6966	2049.55	1173.05
837.3922	793.7654	1970.7	1091.05
837.5373	795.8335	1918.2	1039.9
837.6823	797.901	1892.2	1011.1
837.8274	799.9678	1879.15	1000.2
837.9724	802.0339	1879.85	1000.1
838.1175	804.0993	1891.3	999.4
838.2626	806.1641	1874.9	994.2
838.4076	808.2282	1860	979.6
838.5527	810.2916	1845.55	961.2
838.6978	812.3544	1829.65	949.5
838.8428	814.4164	1825.25	946.4
838.9879	816.4778	1834.05	951
839.133	818.5385	1846.85	963.6
839.2781	820.5986	1871.1	987.8
839.4232	822.658	1910.4	1026.15
839.5682	824.7166	1970.4	1089.7
839.7133	826.7747	2065.65	1183.75
839.8584	828.832	2132.1	1248.55
840.0035	830.8886	2191.65	1305.5
840.1486	832.9446	2212.55	1329.9
840.2937	834.9999	2175.2	1294.25
840.4388	837.0545	2112.6	1224.9
840.5839	839.1085	2037.15	1151.4
840.729	841.1618	1970.85	1082.45
840.8741	843.2143	1930.75	1046.35
841.0192	845.2662	1887.4	1001.9
841.1643	847.3175	1872.15	987.1
841.3095	849.368	1865.4	980.65
841.4546	851.4179	1862.35	980.15
841.5997	853.467	1854.15	969.6
841.7448	855.5155	1862.5	977.2
841.8899	857.5633	1862	975.55
842.0351	859.6105	1860.1	974.1
842.1802	861.6569	1838.55	951
842.3253	863.7027	1835.75	948.45
842.4704	865.7478	1826.35	940.7
842.6156	867.7922	1815.4	927.25
842.7607	869.8359	1804.2	915.15
842.9058	871.8789	1798.8	911.05
843.0509	873.9212	1842.55	925.4
843.1961	875.9629	1809.5	921.6
843.3412	878.0039	1821.6	933.05
843.4863	880.0441	1834.45	952.4
843.6315	882.0837	1851.15	964.85
843.7766	884.1226	1874.85	987.4
843.9218	886.1609	1912.05	1024.35
844.0669	888.1984	1952	1064.85
844.212	890.2352	1995.9	1106.65
844.3572	892.2714	2007.9	1115.45
844.5023	894.3069	1990	1101.05
844.6475	896.3416	1930	1041.45
844.7926	898.3757	1898.5	1008.25
844.9377	900.4091	1879.15	989.3
845.0829	902.4418	1887.45	993.25
845.228	904.4739	1891.35	1000.85
845.3732	906.5052	1904.2	1014.2
845.5183	908.5358	1897.8	1009.95
845.6635	910.5658	1880.3	988.9
845.8086	912.595	1838.45	947.65
845.9538	914.6236	1805.95	916.25
846.0989	916.6515	1783.65	895.15
846.2441	918.6786	1772.3	882.3
846.3892	920.7051	1757.05	864.95
846.5344	922.7309	1769.8	878.65
846.6795	924.756	1757.7	865.7
846.8246	926.7804	1769.2	879.2
846.9698	928.8041	1781.35	889.95
847.1149	930.8272	1790.6	897.9
847.2601	932.8495	1799.9	906.85
847.4052	934.8711	1810.9	917.35
847.5504	936.892	1808.6	916.9
847.6955	938.9123	1839.4	947.3
847.8407	940.9318	1851.05	960.65
847.9858	942.9506	1864.95	973.4
848.131	944.9688	1860.45	968.95
848.2761	946.9862	1838.2	946.9
848.4213	949.003	1799.75	904.55
848.5664	951.019	1774.9	882.9
848.7115	953.0344	1762.05	870.95
848.8567	955.0491	1752.35	856.05
849.0018	957.063	1746.5	856.45
849.147	959.0763	1747.2	854.55
849.2921	961.0888	1747.7	853.6
849.4373	963.1007	1745.5	854.55
849.5824	965.1119	1739.95	852.95
849.7275	967.1223	1719	831.8
849.8727	969.1321	1718.05	831.25
850.0178	971.1412	1716.4	827
850.1629	973.1495	1717	825.15
850.3081	975.1572	1744.45	817.5
850.4532	977.1641	1715.4	825.2
850.5983	979.1704	1717.55	825.45
850.7435	981.1759	1724.2	827.1
850.8886	983.1808	1714.1	817.85
851.0337	985.1849	1707.8	803.55
851.1788	987.1884	1709	815.9
851.324	989.1911	1709.7	815.25
851.4691	991.1932	1711.4	816.45
851.6142	993.1945	1714.05	819.4
851.7593	995.1951	1715.5	822.1
851.9045	997.1951	1718.2	821.05
852.0496	999.1943	1705.55	812
852.1947	1001.1928	1716.05	820.8
852.3398	1003.1906	1715.65	819.75
852.4849	1005.1877	1741.05	846.9
852.63	1007.1841	1771.3	876.55
852.7751	1009.1798	1769.5	878
852.9202	1011.1748	1774.9	881.9
853.0653	1013.1691	1748.05	851.9
853.2104	1015.1627	1707.4	814.05
853.3555	1017.1556	1685.3	793.75
853.5006	1019.1477	1669.05	774.45
853.6457	1021.1392	1650.4	759.6
853.7908	1023.1299	1639.9	748.75
853.9359	1025.12	1645.5	756.15
854.081	1027.1093	1651.2	766.7
854.2261	1029.0979	1675.95	794.6
854.3712	1031.0859	1676.35	790.1
854.5163	1033.0731	1697.15	807.35
854.6613	1035.0596	1703.1	813.05
854.8064	1037.0454	1697.15	805.85
854.9515	1039.0304	1685.55	791.2
855.0965	1041.0148	1657.05	764.5
855.2416	1042.9985	1644.05	749.65
855.3867	1044.9814	1633.7	741.45
855.5317	1046.9636	1639.65	743.4
855.6768	1048.9452	1639.3	746.4
855.8219	1050.926	1651.15	757.5
855.9669	1052.9061	1665.75	771.75
856.112	1054.8855	1670.75	778.5
856.257	1056.8642	1664.25	768.55
856.4021	1058.8421	1665.25	766.2
856.5471	1060.8194	1672.75	775.3
856.6921	1062.7959	1663.2	769.65
856.8372	1064.7717	1660.7	764.6
856.9822	1066.7469	1675.55	779.65
857.1272	1068.7213	1671.95	773
857.2723	1070.695	1688.8	792.1
857.4173	1072.6679	1705.55	809.5
857.5623	1074.6402	1716.45	821.2
857.7073	1076.6117	1730.7	829.7
857.8523	1078.5826	1704.25	807.8
857.9973	1080.5527	1684.1	786.15
858.1423	1082.5221	1639.1	741.5
858.2873	1084.4908	1620.45	722.45
858.4323	1086.4587	1601.8	704
858.5773	1088.426	1603.7	703.6
858.7223	1090.3925	1603.15	701.7
858.8673	1092.3584	1607.25	711.95
859.0123	1094.3235	1606.2	710.7
859.1573	1096.2879	1629.85	736.05
859.3022	1098.2515	1652.75	756
859.4472	1100.2145	1681.35	785.7
859.5922	1102.1767	1710.75	815.6
859.7371	1104.1382	1758.8	862.1
859.8821	1106.099	1803.9	906
860.027	1108.0591	1830.9	933.8
860.172	1110.0185	1875.45	975.15
860.3169	1111.9771	1913	1017.1
860.4619	1113.9351	1956.85	1060.75
860.6068	1115.8923	2006.7	1109.6
860.7517	1117.8488	2023.85	1124.45
860.8967	1119.8045	1968.5	1075.7
861.0416	1121.7596	1887.65	990.95
861.1865	1123.7139	1797.4	900.85
861.3314	1125.6675	1750.15	854.8
861.4763	1127.6204	1755.25	859.3
861.6212	1129.5726	1784	886.5
861.7661	1131.524	1765.4	870.65
861.911	1133.4748	1738.2	842.7
862.0559	1135.4248	1676.95	778.05
862.2008	1137.3741	1636.3	740.3
862.3457	1139.3226	1616.1	719.65
862.4905	1141.2705	1616.8	719.55
862.6354	1143.2176	1627.3	724.05
862.7803	1145.164	1632.15	731.6
862.9251	1147.1097	1626.5	729.5
863.07	1149.0546	1605.45	705.95
863.2148	1150.9989	1584.2	685.95
863.3597	1152.9424	1565	666.25
863.5045	1154.8852	1553.65	654.7
863.6493	1156.8272	1549.35	652.35
863.7942	1158.7686	1559.9	654.5
863.939	1160.7092	1558.45	660
864.0838	1162.6491	1560.85	661.2
864.2286	1164.5883	1564	665.55
864.3734	1166.5267	1582.65	684.05
864.5182	1168.4644	1610.8	713.5
864.663	1170.4014	1635.85	734.15
864.8078	1172.3377	1668.3	773.15
864.9526	1174.2732	1716.8	817.6
865.0974	1176.2081	1802.35	907.15
865.2421	1178.1421	1921.4	1018.9
865.3869	1180.0755	2023.1	1125.9
865.5317	1182.0082	2072.1	1175.7
865.6764	1183.9401	2035.9	1137.85
865.8212	1185.8713	1940.45	1046.55
865.9659	1187.8017	1826.9	934.4
866.1106	1189.7315	1738.2	850.85
866.2554	1191.6605	1691	773.45
866.4001	1193.5888	1635.75	744.25
866.5448	1195.5163	1610.6	718.25
866.6895	1197.4432	1595.25	700.55
866.8342	1199.3693	1572.45	676.65
866.9789	1201.2947	1558.7	661.05
867.1236	1203.2193	1554.55	656.9
867.2683	1205.1432	1550.25	654.4
867.413	1207.0664	1552.8	658.45
867.5576	1208.9889	1556.9	656.65
867.7023	1210.9106	1551.95	655.75
867.847	1212.8316	1551.4	655.35
867.9916	1214.7519	1567.1	662.05
868.1363	1216.6715	1577.45	680.65
868.2809	1218.5903	1592.25	697.9
868.4255	1220.5084	1611.75	716.65
868.5701	1222.4257	1625.5	725.65
868.7148	1224.3424	1622.35	728.4
868.8594	1226.2583	1655.05	753.75
869.004	1228.1735	1676.9	777.85
869.1486	1230.0879	1715.65	817.1
869.2932	1232.0016	1742.9	845.9
869.4377	1233.9146	1770.95	874.55
869.5823	1235.8269	1797.55	899.95
869.7269	1237.7384	1813.85	917
869.8715	1239.6492	1808.8	914.95
870.016	1241.5592	1830.9	930.05
870.1606	1243.4686	1875.7	977.3
870.3051	1245.3772	1943.5	1045.4
870.4496	1247.285	2019	1120.35
870.5941	1249.1922	2091.8	1194.5
870.7387	1251.0986	2157.55	1261.5
870.8832	1253.0042	2216.3	1318.3
871.0277	1254.9092	2297.3	1400.25
871.1722	1256.8134	2360.3	1464.3
871.3167	1258.7169	2408.85	1510
871.4611	1260.6196	2450	1555.3
871.6056	1262.5216	2455.2	1555.2
871.7501	1264.4229	2430.95	1534.75
871.8945	1266.3234	2400.25	1502.7
872.039	1268.2232	2366.7	1470.05
872.1834	1270.1223	2328.25	1429.05
872.3278	1272.0207	2291.95	1392.95
872.4723	1273.9183	2273.95	1371.1
872.6167	1275.8151	2269.8	1370.55
872.7611	1277.7113	2317.05	1420.95
872.9055	1279.6067	2393.7	1497.6
873.0499	1281.5014	2522.85	1622.15
873.1943	1283.3953	2674.8	1773.95
873.3386	1285.2885	2834.8	1935.35
873.483	1287.181	2944.05	2046.7
873.6274	1289.0727	2977.25	2081.45
873.7717	1290.9637	2930.35	2031.85
873.9161	1292.854	2857.5	1959.8
874.0604	1294.7435	2775.3	1879.1
874.2047	1296.6323	2683.6	1786.25
874.349	1298.5204	2610.8	1710.8
874.4933	1300.4077	2547.95	1650.25
874.6376	1302.2943	2499.6	1600.7
874.7819	1304.1802	2474.75	1578.15
874.9262	1306.0653	2437.9	1538.25
875.0705	1307.9497	2405.05	1510.1
875.2147	1309.8333	2361.6	1464.7
875.359	1311.7162	2322.05	1423.7
875.5032	1313.5984	2297.35	1395.5
875.6475	1315.4798	2282.9	1376.5
875.7917	1317.3605	2265.05	1360.65
875.9359	1319.2405	2263.75	1364.85
876.0801	1321.1197	2233.1	1333.4
876.2243	1322.9982	2172.8	1270.6
876.3685	1324.876	2107.25	1211.55
876.5127	1326.753	2028.15	1129.3
876.6569	1328.6293	1950.6	1051.65
876.801	1330.5048	1888.25	987.85
876.9452	1332.3796	1815.9	918.85
877.0893	1334.2537	1797	872.3
877.2335	1336.127	1740.35	844.6
877.3776	1337.9996	1722.05	826.1
877.5217	1339.8714	1694	795.65
877.6658	1341.7426	1725.85	782.8
877.8099	1343.6129	1680.1	780.6
877.954	1345.4826	1659.6	760.4
878.0981	1347.3515	1651.9	750.45
878.2422	1349.2196	1641.15	741.4
878.3862	1351.087	1633.9	736.1
878.5303	1352.9537	1625.5	728.9
878.6743	1354.8197	1631.6	731.5
878.8184	1356.6849	1643.45	745.65
878.9624	1358.5493	1654.95	753.95
879.1064	1360.4131	1678.5	781.35
879.2504	1362.276	1711.45	812.85
879.3944	1364.1383	1739	840.15
879.5384	1365.9998	1751.75	848.45
879.6823	1367.8606	1743.15	844.1
879.8263	1369.7206	1730	831.75
879.9702	1371.5799	1727.25	828.55
880.1142	1373.4384	1721.25	821.2
880.2581	1375.2962	1699.05	799.05
880.402	1377.1533	1646.95	747.55
880.5459	1379.0096	1604.5	707.45
880.6898	1380.8652	1570.4	673.25
880.8337	1382.7201	1548.05	650.6
880.9776	1384.5742	1528.75	630
881.1215	1386.4275	1517	617.45
881.2653	1388.2802	1488.2	591.5
881.4092	1390.132	1484.2	583.75
881.553	1391.9832	1476.55	578.65
881.6968	1393.8336	1458.05	559
881.8406	1395.6832	1458.25	558.9
881.9844	1397.5322	1448.5	552.2
882.1282	1399.3803	1451.8	548.9
882.272	1401.2278	1434.85	536.3
882.4158	1403.0745	1428.95	533.3
882.5595	1404.9204	1417.15	520.9
882.7033	1406.7656	1414.15	515.8
882.847	1408.6101	1414.05	513.9
882.9908	1410.4538	1411.8	512.8
883.1345	1412.2968	1416.45	516.7
883.2782	1414.139	1417.1	517.35
883.4219	1415.9805	1433.25	537.7
883.5656	1417.8213	1439.9	536.65
883.7092	1419.6613	1446.95	549.3
883.8529	1421.5006	1475.75	577.5
883.9965	1423.3391	1508.4	609.5
884.1402	1425.1769	1545.5	645.45
884.2838	1427.0139	1617.1	718.45
884.4274	1428.8502	1682	783.9
884.571	1430.6858	1753.7	856.45
884.7146	1432.5206	1772.6	875.35
884.8582	1434.3547	1771.3	872.5
885.0018	1436.188	1748.7	849.45
885.1453	1438.0206	1736.35	838.7
885.2889	1439.8524	1726.15	826.95
885.4324	1441.6835	1724.1	825
885.5759	1443.5139	1735.05	833.45
885.7194	1445.3435	1731.5	833.8
885.8629	1447.1724	1724.2	824.3
886.0064	1449.0005	1718.55	820.3
886.1499	1450.8279	1717.85	818.45
886.2933	1452.6545	1711.5	812.05
886.4368	1454.4804	1714.45	819.5
886.5802	1456.3056	1711.4	808.8
886.7237	1458.13	1694.15	799
886.8671	1459.9536	1666.05	768.55
887.0105	1461.7766	1636.55	739.95
887.1539	1463.5987	1606.4	708.4
887.2972	1465.4202	1568.75	669.6
887.4406	1467.2409	1534.05	635.9
887.584	1469.0608	1500.15	604.7
887.7273	1470.88	1479.45	581.2
887.8706	1472.6984	1456.15	560.25
888.0139	1474.5161	1437.5	536.1
888.1572	1476.3331	1425.8	528.45
888.3005	1478.1493	1416.2	518
888.4438	1479.9648	1413.65	516.85
888.5871	1481.7795	1409.65	511.15
888.7303	1483.5935	1409.5	512.75
888.8736	1485.4067	1408.4	508.4
889.0168	1487.2192	1415.7	521.75
889.16	1489.031	1410.9	510.05
889.3032	1490.842	1404.95	508.05
889.4464	1492.6522	1398.9	502.55
889.5896	1494.4618	1397.9	499.9
889.7327	1496.2705	1399.3	500.6
889.8759	1498.0785	1392.35	494.25
890.019	1499.8858	1392.8	494.55
890.1622	1501.6924	1383.2	489.8
890.3053	1503.4981	1375.1	476.95
890.4484	1505.3032	1368.25	471
890.5914	1507.1075	1364.65	466.55
890.7345	1508.911	1351.4	453.95
890.8776	1510.7138	1351.9	453.2
891.0206	1512.5159	1351.1	453.9
891.1637	1514.3172	1336.6	439.85
891.3067	1516.1178	1332.6	436.2
891.4497	1517.9176	1333.9	434.25
891.5927	1519.7166	1330.35	431.7
891.7357	1521.515	1328	425.8
891.8786	1523.3126	1321.9	422.2
892.0216	1525.1094	1314.4	415.35
892.1645	1526.9055	1314	418.35
892.3074	1528.7008	1303.35	405.8
892.4503	1530.4954	1309.6	409.35
892.5932	1532.2893	1298.8	403.8
892.7361	1534.0824	1303.6	404.6
892.879	1535.8747	1300.2	405.8
893.0218	1537.6663	1295.3	400.4
893.1647	1539.4572	1298.7	401.75
893.3075	1541.2473	1300.55	404.1
893.4503	1543.0367	1299.8	406.2
893.5931	1544.8253	1299.05	398.35
893.7359	1546.6132	1307.65	410.65
893.8787	1548.4003	1314.2	410.55
894.0214	1550.1867	1323.2	420.45
894.1642	1551.9723	1327.9	426.95
894.3069	1553.7572	1340.75	445
894.4496	1555.5414	1349.75	455.6
894.5923	1557.3247	1375	483.8
894.735	1559.1074	1411.05	518.55
894.8777	1560.8893	1438.05	543.75
895.0204	1562.6705	1474.15	581.1
895.163	1564.4509	1488.2	599.6
895.3056	1566.2305	1499.2	608.7
895.4482	1568.0094	1494.85	604.25
895.5908	1569.7876	1496	603.25
895.7334	1571.565	1487.15	594.3
895.876	1573.3417	1489.6	598.5
896.0186	1575.1176	1492.1	600.8
896.1611	1576.8928	1504.05	611.35
896.3036	1578.6672	1516.7	626.7
896.4461	1580.4409	1541.05	652.8
896.5886	1582.2138	1572.15	679.75
896.7311	1583.986	1599.9	709.65
896.8736	1585.7575	1624.95	734.5
897.0161	1587.5282	1655.2	767.05
897.1585	1589.2981	1674	786.1
897.3009	1591.0673	1683.65	795.65
897.4433	1592.8358	1698.6	808.6
897.5857	1594.6035	1706.6	812.5
897.7281	1596.3704	1690.55	797
897.8705	1598.1366	1673.65	785.7
898.0128	1599.9021	1655.5	765.2
898.1551	1601.6668	1638.7	745.25
898.2975	1603.4308	1631	739.5
898.4398	1605.194	1643.55	744.65
898.5821	1606.9564	1667.1	778.8
898.7243	1608.7182	1715.3	825.55
898.8666	1610.4791	1780.9	896.5
899.0088	1612.2394	1848.65	962.25
899.1511	1613.9988	1933.8	1046.55
899.2933	1615.7576	1990.05	1101.9
899.4355	1617.5156	2011.8	1116.15
899.5776	1619.2728	1973.35	1083.3
899.7198	1621.0293	1901	1011.25
899.862	1622.785	1805.3	909.3
900.0041	1624.54	1709.8	818.4
900.1462	1626.2942	1612.6	721.2
900.2883	1628.0477	1532.25	641.15
900.4304	1629.8005	1468.7	575.45
900.5725	1631.5525	1415.95	526.8
900.7145	1633.3037	1378.6	489.5
900.8566	1635.0542	1344.1	455.3
900.9986	1636.804	1313.25	424.2
901.1406	1638.553	1402.95	405.15
901.2826	1640.3013	1279.9	391
901.4245	1642.0488	1258.2	368.1
901.5665	1643.7955	1249.45	364.3
901.7085	1645.5416	1238.05	350.25
901.8504	1647.2868	1237.45	351.4
901.9923	1649.0313	1226.7	336.85
902.1342	1650.7751	1228.55	336.75
902.2761	1652.5181	1222.45	332.85
902.4179	1654.2604	1220.35	330.4
902.5598	1656.0019	1222	336.75
902.7016	1657.7427	1241.8	350.95
902.8434	1659.4828	1255.8	367.6
902.9852	1661.222	1277.65	385.3
903.127	1662.9606	1308.15	418.55
903.2687	1664.6984	1328.4	437.35
903.4105	1666.4354	1328.7	438.2
903.5522	1668.1717	1302.45	409.75
903.6939	1669.9072	1263.35	372.8
903.8356	1671.642	1242.45	348.45
903.9773	1673.3761	1199.3	309.4
904.119	1675.1094	1184.4	293.55
904.2606	1676.8419	1168.65	277.15
904.4022	1678.5737	1159.2	268.65
904.5439	1680.3048	1155.65	265.35
904.6855	1682.0351	1139.8	249.25
904.827	1683.7646	1140.1	246
904.9686	1685.4934	1133.35	243.65
905.1101	1687.2215	1130.1	241.9
905.2517	1688.9488	1126.15	236.2
905.3932	1690.6754	1124.35	236.95
905.5347	1692.4012	1117.55	226.6
905.6761	1694.1263	1122.35	233.95
905.8176	1695.8506	1117.65	228.75
905.9591	1697.5742	1115.8	227.35
906.1005	1699.297	1110.45	223.95
906.2419	1701.0191	1101.5	214.4
906.3833	1702.7404	1106.6	219.65
906.5246	1704.461	1102.8	212.9
906.666	1706.1808	1106.65	215.95
906.8073	1707.8999	1102.5	213.75
906.9487	1709.6182	1098.15	209.4
907.09	1711.3358	1095.6	210.75
907.2313	1713.0527	1092.8	207.3
907.3725	1714.7688	1100.5	207.75
907.5138	1716.4841	1098.45	208.25
907.655	1718.1987	1101	207.7
907.7962	1719.9126	1088	199.6
907.9374	1721.6257	1092.2	203.4
908.0786	1723.338	1092.85	207.15
908.2198	1725.0496	1090.9	201.75
908.3609	1726.7605	1092.15	204.05
908.502	1728.4706	1087.5	195.4
908.6431	1730.18	1083.4	195.85
908.7842	1731.8886	1085.05	199.9
908.9253	1733.5964	1102.7	197.5
909.0664	1735.3036	1087.6	199.55
909.2074	1737.0099	1088.7	200.35
909.3484	1738.7156	1080.1	194.45
909.4894	1740.4204	1085.2	194.7
909.6304	1742.1246	1078.7	189.4
909.7714	1743.8279	1082.4	195
909.9123	1745.5306	1085.3	196.75
910.0532	1747.2325	1084.15	199.75
910.1941	1748.9336	1080.1	193.2
910.335	1750.634	1081.6	191.15
910.4759	1752.3336	1075.95	185.9
910.6168	1754.0325	1076.2	189.65
910.7576	1755.7307	1079.45	196.95
910.8984	1757.4281	1075.6	186.7
911.0392	1759.1247	1083.8	187.85
911.18	1760.8206	1081.5	187.3
911.3208	1762.5158	1082	189.2
911.4615	1764.2102	1072.9	183.65
911.6022	1765.9039	1072.4	184.55
911.7429	1767.5968	1074.9	187
911.8836	1769.289	1072.05	185.75
912.0243	1770.9804	1072	182.95
912.1649	1772.6711	1072.9	182.85
912.3056	1774.361	1073.6	181.85
912.4462	1776.0502	1077.8	187.15
912.5868	1777.7386	1071.85	181.6
912.7274	1779.4263	1071.85	185.7
912.8679	1781.1132	1068	181.15
913.0084	1782.7994	1070	180.5
913.149	1784.4849	1065.05	182.05
913.2895	1786.1696	1081.2	175
913.4299	1787.8535	1063.55	178.4
913.5704	1789.5367	1065.35	181.6
913.7108	1791.2192	1066.6	183.2
913.8513	1792.9009	1091.1	180.55
913.9917	1794.5818	1067.3	180.35
914.132	1796.2621	1065.3	179.4
914.2724	1797.9415	1065.5	175.85
914.4128	1799.6202	1061.1	173.2
914.5531	1801.2982	1057.35	168.85
914.6934	1802.9755	1062.5	172.85
914.8337	1804.6519	1068.8	179.3
914.9739	1806.3277	1058	173.9
915.1142	1808.0027	1058.4	171.45
915.2544	1809.6769	1056.9	174.15
915.3946	1811.3504	1055.2	169.05
915.5348	1813.0231	1059.3	172.85
915.675	1814.6951	1057.35	172.7
915.8151	1816.3664	1059	169.05
915.9553	1818.0369	1056.3	166.5
916.0954	1819.7067	1051.8	163.55
916.2355	1821.3757	1061.05	171.95
916.3755	1823.044	1057.1	169.65
916.5156	1824.7115	1054.4	166.45
916.6556	1826.3783	1054.5	170.4
916.7956	1828.0443	1055.55	171.4
916.9356	1829.7096	1058.45	169.75
917.0756	1831.3741	1058.45	167.1
917.2155	1833.0379	1050.55	162.85
917.3555	1834.701	1053.7	166.05
917.4954	1836.3633	1048.35	161.6
917.6353	1838.0248	1049.65	161.3
917.7751	1839.6856	1051.9	163.55
917.915	1841.3457	1049.1	163.1
918.0548	1843.005	1051.95	164.25
918.1946	1844.6636	1052.35	165.4
918.3344	1846.3214	1049.7	161.75
918.4742	1847.9785	1048.55	161.7
918.6139	1849.6349	1051.6	161.7
918.7537	1851.2904	1061.35	162.95
918.8934	1852.9453	1049.6	160.3
919.0331	1854.5994	1051.15	162.35
919.1727	1856.2528	1058.15	165.7
919.3124	1857.9054	1048	160.6
919.452	1859.5572	1043.35	158.05
919.5916	1861.2083	1049.8	161.4
919.7312	1862.8587	1046.45	159.25
919.8708	1864.5084	1047.65	157.55
920.0103	1866.1572	1043.8	155.15
920.1498	1867.8054	1046	155.35
920.2893	1869.4528	1044.5	153.9
920.4288	1871.0994	1044.65	157.75
920.5683	1872.7453	1043.8	154.75
920.7077	1874.3905	1046.8	151.9
920.8471	1876.0349	1044.75	154.1
920.9865	1877.6786	1045.3	155.15
921.1259	1879.3215	1040.65	153.15
921.2653	1880.9637	1043.25	153.35
921.4046	1882.6051	1036.45	152.7
921.5439	1884.2458	1039.9	152.25
921.6832	1885.8858	1041.4	151.9
921.8225	1887.525	1041.05	154.8
921.9617	1889.1634	1038.85	151.25
922.101	1890.8011	1037.55	150.1
922.2402	1892.4381	1040.05	152.9
922.3794	1894.0743	1037.3	150
922.5185	1895.7098	1036.75	150.2
922.6577	1897.3446	1039.5	151.6
922.7968	1898.9786	1044.95	153.15
922.9359	1900.6118	1033.2	147.25
923.075	1902.2443	1032.85	144.9
923.214	1903.8761	1037.6	149.65
923.3531	1905.5071	1034.95	148.75
923.4921	1907.1374	1033.15	146.2
923.6311	1908.7669	1028.15	141.9
923.77	1910.3957	1030.9	146.1
923.909	1912.0237	1031.85	143.4
924.0479	1913.651	1030.1	139.9
924.1868	1915.2776	1034.45	149.2
924.3257	1916.9034	1030.3	143.5
924.4646	1918.5285	1028.65	143.55
924.6034	1920.1528	1032.15	143.65
924.7422	1921.7764	1028.35	141.4
924.881	1923.3992	1025.45	137.7
925.0198	1925.0213	1022.1	135.1
925.1586	1926.6427	1018.35	133.5
925.2973	1928.2633	1232.1	132.25
925.436	1929.8832	1032.7	141.55
925.5747	1931.5023	1023.8	136.65
925.7134	1933.1207	1029.4	142.9
925.852	1934.7383	1024.3	136.7
925.9906	1936.3552	1023.5	136.8
926.1292	1937.9714	1023.7	133.45
926.2678	1939.5868	1027.25	137.95
926.4064	1941.2015	1025	137.7
926.5449	1942.8154	1022.25	136.25
926.6834	1944.4286	1024.9	136.35
926.8219	1946.041	1045.65	135.25
926.9604	1947.6528	1030.25	137.45
927.0988	1949.2637	1019.45	134.2
927.2372	1950.8739	1022.95	133.95
927.3756	1952.4834	1019.25	132.3
927.514	1954.0921	1020.85	134.55
927.6523	1955.7001	1026.35	137.75
927.7907	1957.3074	1017.65	133.2
927.929	1958.9139	1016.4	133.55
928.0673	1960.5197	1020.05	134.45
928.2055	1962.1247	1017	130.65
928.3438	1963.729	1018.35	134.05
928.482	1965.3325	1017.7	128.05
928.6202	1966.9353	1015.8	133.2
928.7584	1968.5374	1019.9	136.45
928.8965	1970.1387	1018.8	132.7
929.0346	1971.7393	1017.3	128.6
929.1727	1973.3392	1012.6	127.75
929.3108	1974.9383	1015.15	133.05
929.4489	1976.5366	1012.05	129.9
929.5869	1978.1342	1011	128.15
929.7249	1979.7311	1012.35	128.2
929.8629	1981.3273	1017.25	136
930.0009	1982.9227	1012.15	129.65
930.1388	1984.5173	1014.65	132.3
930.2767	1986.1112	1011.15	127.8
930.4146	1987.7044	1009.3	125.6
930.5525	1989.2968	1008.15	125.95
930.6904	1990.8885	1014.35	128
930.8282	1992.4795	1013.35	130.4
930.966	1994.0697	1006.7	125.8
931.1038	1995.6592	1007.75	125.05
931.2415	1997.2479	1006.85	126.65
931.3793	1998.8359	1004.7	123.6
931.517	2000.4232	1007.25	128
931.6547	2002.0097	1002.4	123.85
931.7923	2003.5955	1005.6	122.75
931.93	2005.1805	1008.45	125.65
932.0676	2006.7648	1003.65	122.5
932.2052	2008.3484	1006.2	125.4
932.3427	2009.9312	1006.25	122.2
932.4803	2011.5133	1003.05	124.55
932.6178	2013.0946	999.65	120.4
932.7553	2014.6752	1005.2	126.9
932.8928	2016.2551	1004.35	123.05
933.0302	2017.8342	1005	123.75
933.1676	2019.4126	1000.2	121.3
933.305	2020.9902	1000.4	122.45
933.4424	2022.5672	996.65	116
933.5798	2024.1433	1006.55	120.8
933.7171	2025.7188	999.5	121.7
933.8544	2027.2935	1002.2	122.75
933.9917	2028.8674	999.55	120.35
934.129	2030.4406	998.15	120.7
934.2662	2032.0131	997.2	120.4
934.4034	2033.5849	1005.3	121.6
934.5406	2035.1559	996.85	120.55
934.6778	2036.7261	998	117.55
934.8149	2038.2957	1002.3	123.2
934.952	2039.8645	1004.1	119.35
935.0891	2041.4325	1002.05	118.1
935.2262	2042.9998	1000.4	121.1
935.3632	2044.5664	1000.25	119.8
935.5002	2046.1323	999.2	120.45
935.6372	2047.6974	997.8	120.25
935.7742	2049.2617	995.65	118.05
935.9111	2050.8254	1005.55	119.4
936.048	2052.3883	1004.15	123.9
936.1849	2053.9504	1000.9	117.45
936.3218	2055.5118	998.45	116.35
936.4586	2057.0725	1001.8	117.9
936.5955	2058.6325	996.55	117.75
936.7323	2060.1917	996.05	117.25
936.869	2061.7502	996.95	115.55
937.0058	2063.3079	996.95	118.8
937.1425	2064.8649	998.85	117.75
937.2792	2066.4212	994.15	114.4
937.4159	2067.9767	997.9	116.2
937.5525	2069.5315	1000.3	120.5
937.6891	2071.0856	998.7	117.55
937.8257	2072.6389	1000.6	120.3
937.9623	2074.1915	992.25	113.45
938.0989	2075.7433	995.2	116.05
938.2354	2077.2945	998.15	120.85
938.3719	2078.8448	997.5	118.25
938.5084	2080.3945	993.8	111.5
938.6448	2081.9434	998.45	118.45
938.7812	2083.4916	1000.05	116.55
938.9176	2085.039	999.3	114.2
939.054	2086.5857	1001.5	115.75
939.1903	2088.1317	1002.5	117.9
939.3267	2089.677	1000.8	116.85
939.463	2091.2215	1001.25	117.3
939.5992	2092.7652	1000.85	115.3
939.7355	2094.3083	1000.4	114.4
939.8717	2095.8506	997.65	116.7
940.0079	2097.3921	998.05	115.7
940.1441	2098.933	996.7	116.5
940.2802	2100.4731	995.8	113.55
940.4163	2102.0124	1014.45	113.05
940.5524	2103.5511	998.9	117.35
940.6885	2105.089	999.75	117.25
940.8245	2106.6261	995.05	111.4
940.9606	2108.1626	1003.7	123.15
941.0965	2109.6983	1021.9	112.6
941.2325	2111.2332	999.25	117.3
941.3684	2112.7675	998.2	115.65
941.5044	2114.301	998.25	113.75
941.6403	2115.8337	997.4	114.6
941.7761	2117.3657	995.1	114.35
941.912	2118.897	997.7	115.05
942.0478	2120.4276	1005.2	117.2
942.1835	2121.9575	996.5	112.2
942.3193	2123.4866	999.4	114.7
942.455	2125.0149	999.3	115.3
942.5907	2126.5426	995.3	113.7
942.7264	2128.0695	996.45	113.5
942.8621	2129.5956	988.65	111.8
942.9977	2131.1211	995.2	111.15
943.1333	2132.6458	994.25	113.4
943.2689	2134.1698	996	113.6
943.4044	2135.693	998.95	114.85
943.54	2137.2155	996.8	110.1
943.6755	2138.7373	995.35	116.1
943.8109	2140.2584	991	111.05
943.9464	2141.7787	994.8	110.2
944.0818	2143.2983	987.9	111.1
944.2172	2144.8171	985.7	108
944.3526	2146.3353	992.3	111.55
944.4879	2147.8527	993.9	114.55
944.6232	2149.3693	996	114
944.7585	2150.8853	993.95	112.15
944.8938	2152.4005	996.4	114.6
945.029	2153.9149	992.45	110
945.1642	2155.4287	994.45	113.2
945.2994	2156.9417	991.65	106.7
945.4346	2158.454	993.25	109.65
945.5697	2159.9655	990.75	111
945.7048	2161.4764	988.35	106.9
945.8399	2162.9865	990.55	110.75
945.9749	2164.4958	991.05	108.6
946.1099	2166.0045	993.5	112.85
946.2449	2167.5124	990.65	109.3
946.3799	2169.0195	988.25	105.9
946.5148	2170.526	993.6	112.1
946.6498	2172.0317	993.6	111.75
946.7846	2173.5367	991.95	111.4
946.9195	2175.0409	989.15	107.55
947.0543	2176.5445	988.65	107.8
947.1891	2178.0473	988.65	105.9
947.3239	2179.5494	992.8	108.15
947.4587	2181.0507	989.45	108.15
947.5934	2182.5513	990.25	110.05
947.7281	2184.0512	993.4	111.65
947.8628	2185.5504	988.6	107.8
947.9974	2187.0488	985.55	106.1
948.132	2188.5465	984.95	104.05
948.2666	2190.0435	988.3	106
948.4012	2191.5397	987.7	108.65
948.5357	2193.0353	986.35	105.5
948.6702	2194.5301	991.05	106.95
948.8047	2196.0241	989.3	104.95
948.9392	2197.5175	989.9	105.8
949.0736	2199.0101	993.45	105.35
949.208	2200.502	985.85	106.4
949.3424	2201.9931	985.3	103.95
949.4767	2203.4835	985.2	104.65
949.611	2204.9733	1000	101.9
949.7453	2206.4622	982.75	103.6
949.8796	2207.9505	988.3	106.85
950.0138	2209.438	982.35	104.3
950.148	2210.9248	986.7	106.6
950.2822	2212.4109	985	104.95
950.4164	2213.8962	989.95	102.7
950.5505	2215.3809	987.3	102.85
950.6846	2216.8648	985	100.2
950.8186	2218.3479	990.2	103
950.9527	2219.8304	986	97.8
951.0867	2221.3121	988.25	102.8
951.2207	2222.7931	983.8	103.8
951.3546	2224.2733	981.75	100.5
951.4886	2225.7529	980.25	98.55
951.6225	2227.2317	985.1	103.15
951.7563	2228.7098	978.6	99.1
951.8902	2230.1872	978.6	99.7
952.024	2231.6638	979.05	99.1
952.1578	2233.1397	989.15	103.6
952.2916	2234.6149	979.25	100.6
952.4253	2236.0894	979.7	98.2
952.559	2237.5632	988.5	98.55
952.6927	2239.0362	978.3	98.35
952.8263	2240.5085	980	98.8
952.9599	2241.9801	978.55	95.05
953.0935	2243.4509	979.6	98.8
953.2271	2244.921	979.2	97.05
953.3606	2246.3904	983.15	100.3
953.4941	2247.8591	978.7	95.4
953.6276	2249.3271	978.15	96.6
953.7611	2250.7943	979.05	95.6
953.8945	2252.2608	977.65	95.5
954.0279	2253.7266	976.9	96
954.1612	2255.1917	978.15	94.75
954.2946	2256.656	979	99.2
954.4279	2258.1197	974.8	95.05
954.5612	2259.5826	978.45	96.7
954.6944	2261.0447	973.4	89.35
954.8276	2262.5062	979.25	94.5
954.9608	2263.9669	979	95.55
955.094	2265.4269	974.6	92.65
955.2271	2266.8862	975	94.65
955.3602	2268.3448	972.5	90.75
955.4933	2269.8026	973.15	92.5
955.6264	2271.2598	975.4	96.4
955.7594	2272.7162	975.15	95.9
955.8924	2274.1719	974.1	92
956.0253	2275.6268	973.55	91.15
956.1583	2277.0811	976.05	94.1
956.2912	2278.5346	974.25	93.25
956.4241	2279.9874	974.1	93.85
956.5569	2281.4395	972.8	92.05
956.6897	2282.8908	975.55	90.4
956.8225	2284.3414	977.45	94.7
956.9553	2285.7914	976.85	94.8
957.088	2287.2406	976.85	90.55
957.2207	2288.689	973.8	91.45
957.3534	2290.1368	974.9	90.45
957.486	2291.5838	975.95	92.65
957.6186	2293.0302	979.3	95.05
957.7512	2294.4758	972.6	89.3
957.8838	2295.9206	973.9	90.45
958.0163	2297.3648	974.75	94.35
958.1488	2298.8082	970.7	87.95
958.2813	2300.251	971.6	91.25
958.4137	2301.693	973.6	89.25
958.5461	2303.1343	972.45	88.65
958.6785	2304.5748	971.1	91.05
958.8108	2306.0147	969.1	88.85
958.9432	2307.4538	973.6	92.25
959.0754	2308.8922	967.6	89.45
959.2077	2310.3299	969.15	89.15
959.3399	2311.7669	968.15	90.05
959.4721	2313.2031	969.2	87.2
959.6043	2314.6387	969.2	86.2
959.7365	2316.0735	970	87.35
959.8686	2317.5076	969.4	87.75
960.0006	2318.941	971.4	89.4
960.1327	2320.3737	973.4	88.25
960.2647	2321.8056	975.25	90.75
960.3967	2323.2369	969.6	85.75
960.5287	2324.6674	976.25	92.8
960.6606	2326.0972	973.85	91.95
960.7925	2327.5263	977.45	97.35
960.9244	2328.9547	978.7	95.4
961.0562	2330.3823	979.35	98
961.1881	2331.8092	979.75	93.05
961.3198	2333.2355	967.6	87.9
961.4516	2334.661	966.55	82.65
961.5833	2336.0858	968	83.6
961.715	2337.5098	964	83.4
961.8467	2338.9332	968.45	85.05
961.9783	2340.3558	968.1	84.15
962.1099	2341.7778	964.8	83
962.2415	2343.199	966.45	82.65
962.373	2344.6195	964.55	85.45
962.5045	2346.0393	962.85	81.25
962.636	2347.4583	966.25	84.85
962.7675	2348.8767	965.2	82.8
962.8989	2350.2943	964.75	82.05
963.0303	2351.7113	966.75	83.25
963.1617	2353.1275	967.9	83.55
963.293	2354.543	990	81.75
963.4243	2355.9578	967.75	84.2
963.5556	2357.3718	967.9	86.7
963.6868	2358.7852	965.95	83.35
963.818	2360.1978	963.95	82.2
963.9492	2361.6098	961.3	79.35
964.0803	2363.021	965.15	77.1
964.2114	2364.4315	966.4	82.6
964.3425	2365.8413	969	79.55
964.4736	2367.2504	963.8	83.45
964.6046	2368.6587	964.9	82.4
964.7356	2370.0664	960.25	76.5
964.8666	2371.4733	961.4	77.45
964.9975	2372.8795	960.35	78
965.1284	2374.285	963.65	80.7
965.2593	2375.6899	962.1	79.3
965.3901	2377.0939	959.4	78.65
965.5209	2378.4973	962.75	79.2
965.6517	2379.9	964.65	80.85
965.7825	2381.3019	960.8	76.35
965.9132	2382.7032	961.7	77.95
966.0439	2384.1037	958.65	77.65
966.1745	2385.5035	956.85	73.95
966.3051	2386.9027	957.5	76.35
966.4357	2388.3011	960.1	74.55
966.5663	2389.6987	958.45	75.6
966.6968	2391.0957	957.15	74.6
966.8273	2392.492	959.15	79.35
966.9578	2393.8876	958.2	74.75
967.0882	2395.2824	957.65	73.7
967.2186	2396.6765	958	73.4
967.349	2398.07	960.25	76.9
967.4793	2399.4627	958.3	72.15
967.6097	2400.8547	961.9	78.7
967.7399	2402.246	964.55	74.4
967.8702	2403.6366	958.8	75.15
968.0004	2405.0265	956.85	73.45
968.1306	2406.4156	961.8	74.2
968.2607	2407.8041	961.35	75.25
968.3909	2409.1918	958.85	71.2
968.521	2410.5789	956.35	71.9
968.651	2411.9652	960	71.65
968.781	2413.3508	957.7	71.45
968.911	2414.7358	958.7	73.35
969.041	2416.12	957.25	72.8
969.1709	2417.5035	960.2	75.35
969.3008	2418.8863	960.4	75.25
969.4307	2420.2684	955.9	70.55
969.5606	2421.6497	958.9	74.7
969.6904	2423.0304	955.6	73.35
969.8201	2424.4104	956.5	72.35
969.9499	2425.7896	960.1	69.3
970.0796	2427.1682	954.9	72.15
970.2093	2428.546	954.4	69.75
970.3389	2429.9232	957.85	70.9
970.4685	2431.2996	952.45	69.85
970.5981	2432.6753	956.7	72.95
970.7277	2434.0503	954.25	70.8
970.8572	2435.4246	952.3	66.85
970.9867	2436.7982	955.85	71.05
971.1161	2438.1711	954.95	73.2
971.2456	2439.5433	956.1	72.2
971.375	2440.9148	952.95	67.1
971.5043	2442.2856	951.8	68.25
971.6336	2443.6557	953.25	69.5
971.7629	2445.025	952.1	67.85
971.8922	2446.3937	953.8	68.35
972.0214	2447.7617	949.15	65.5
972.1506	2449.1289	950.7	66.9
972.2798	2450.4955	953.35	67.5
972.4089	2451.8613	948.8	64.2
972.538	2453.2265	948.8	65.2
972.6671	2454.5909	951.3	65.7
972.7961	2455.9546	947.85	64.5
972.9251	2457.3177	948.7	65.95
973.0541	2458.68	950.55	65.4
973.1831	2460.0416	950.9	69
973.312	2461.4025	951.5	65.95
973.4408	2462.7627	961.4	67.1
973.5697	2464.1222	949.7	69.1
973.6985	2465.4811	947.8	64
973.8273	2466.8392	948.4	63.95
973.956	2468.1966	951.25	64.1
974.0847	2469.5533	951.9	65.75
974.2134	2470.9093	946.95	62.05
974.3421	2472.2645	946.8	62.15
974.4707	2473.6191	947.85	65.65
974.5993	2474.973	948.2	64.85
974.7278	2476.3262	950.55	64.9
974.8563	2477.6787	949.15	66.75
974.9848	2479.0305	945.1	63.85
975.1132	2480.3816	951.2	66.25
975.2417	2481.7319	946.4	65.4
975.37	2483.0816	948.1	64.4
975.4984	2484.4306	952.6	69
975.6267	2485.7789	947.15	65.35
975.755	2487.1264	950.2	66.35
975.8833	2488.4733	947.05	65.55
976.0115	2489.8195	952.05	63.35
976.1397	2491.165	947.9	64.6
976.2678	2492.5097	946.3	59.85
976.3959	2493.8538	941.95	60.8
976.524	2495.1972	946	63.05
976.6521	2496.5398	948.35	64.25
976.7801	2497.8818	949.45	63.65
976.9081	2499.2231	946.45	62.7
977.036	2500.5637	948.2	63.55
977.164	2501.9035	946.9	63.45
977.2918	2503.2427	946.95	58.75
977.4197	2504.5812	944.65	63.3
977.5475	2505.919	946.65	63.55
977.6753	2507.256	944.35	60.65
977.8031	2508.5924	944.5	60.7
977.9308	2509.9281	949.6	59.8
978.0585	2511.2631	944.25	60.3
978.1861	2512.5974	943.2	61.3
978.3137	2513.9309	944.6	62.6
978.4413	2515.2638	971.5	61.3
978.5689	2516.596	941.3	57.8
978.6964	2517.9275	943.45	61.95
978.8239	2519.2583	943.6	60.8
978.9513	2520.5884	944.75	58.65
979.0788	2521.9178	940.85	57.35
979.2062	2523.2465	937.4	56
979.3335	2524.5745	945.45	63.1
979.4608	2525.9018	941.55	58.05
979.5881	2527.2284	939.6	57.8
979.7154	2528.5543	941.95	62.35
979.8426	2529.8796	940.2	54.65
979.9698	2531.2041	941.9	60.7
980.0969	2532.5279	942.25	63.55
980.224	2533.851	939.4	55.9
980.3511	2535.1735	938.5	55.6
980.4781	2536.4952	939.3	57.15
980.6052	2537.8163	941.15	58
980.7321	2539.1366	941.15	58.6
980.8591	2540.4562	939.4	55.65
980.986	2541.7752	941.6	59.2
981.1129	2543.0935	941.55	58.6
981.2397	2544.411	945.7	61.6
981.3665	2545.7279	938.7	54.4
981.4933	2547.0441	936.65	52.6
981.62	2548.3596	942.45	57.25
981.7467	2549.6744	941.85	57.9
981.8734	2550.9885	947.65	56.25
982.0001	2552.3019	939.65	56.8
982.1267	2553.6146	941.35	57.5
982.2532	2554.9266	939.8	57.1
982.3798	2556.2379	939.85	55.4
982.5063	2557.5485	935.75	56.25
982.6327	2558.8585	947.15	56.9
982.7592	2560.1677	944.5	57.9
982.8856	2561.4762	937.25	53.55
983.0119	2562.7841	941.9	57.55
983.1383	2564.0913	935	54.25
983.2646	2565.3977	937.9	57.35
983.3908	2566.7035	938.7	56.85
983.517	2568.0086	938.05	54.3
983.6432	2569.313	939.6	56.4
983.7694	2570.6167	941.25	56.25
983.8955	2571.9197	937.1	54.15
984.0216	2573.222	944.4	57.85
984.1476	2574.5236	937.5	58.25
984.2737	2575.8246	939.35	55.05
984.3996	2577.1248	939.5	55
984.5256	2578.4244	938	55.9
984.6515	2579.7232	937.1	54.35
984.7774	2581.0214	966.05	58.25
984.9032	2582.3189	937.85	55.3
985.029	2583.6157	942.2	56.5
985.1548	2584.9118	936	52
985.2806	2586.2072	938.4	55.85
985.4063	2587.5019	934.95	52.35
985.5319	2588.7959	940.1	55.65
985.6576	2590.0893	944.05	61.55
985.7832	2591.3819	934.35	54.45
985.9087	2592.6739	937.45	55.85
986.0343	2593.9652	939.1	54.7
986.1597	2595.2557	935.5	53.75
986.2852	2596.5456	938.9	53.25
986.4106	2597.8348	938.2	56.95
986.536	2599.1234	937.95	56.9
986.6614	2600.4112	936.25	54.15
986.7867	2601.6983	942.55	56.9
986.912	2602.9848	940.15	56.7
987.0372	2604.2705	943.25	53.3
987.1624	2605.5556	937.35	53.85
987.2876	2606.84	936.25	55.45
987.4128	2608.1237	934.8	51.55
987.5379	2609.4067	933.1	49
987.6629	2610.689	941.05	53.25
987.788	2611.9707	938.4	52.15
987.913	2613.2516	939.2	51.45
988.0379	2614.5319	933.9	53.45
988.1629	2615.8115	933.35	50.7
988.2878	2617.0903	934.75	52.1
988.4126	2618.3685	932.6	49.9
988.5375	2619.6461	931.25	48
988.6622	2620.9229	932.9	48.75
988.787	2622.199	931.65	48.05
988.9117	2623.4745	933.15	51.5
989.0364	2624.7493	930.85	49.5
989.161	2626.0234	930.85	49.4
989.2857	2627.2968	931.3	48.9
989.4102	2628.5695	933.35	49.5
989.5348	2629.8415	931.45	49.6
989.6593	2631.1128	933.45	50.4
989.7837	2632.3835	932.55	49.4
989.9082	2633.6535	930.5	48.85
990.0326	2634.9228	930.3	46.35
990.1569	2636.1914	932.15	48.95
990.2812	2637.4593	935.75	50.05
990.4055	2638.7265	932.3	49.2
990.5298	2639.9931	931.45	50.05
990.654	2641.259	932.35	47.65
990.7782	2642.5242	930.3	49.3
990.9023	2643.7887	930.4	49.5
991.0264	2645.0525	929.05	46.95
991.1505	2646.3156	928.35	42.7
991.2745	2647.5781	927.05	46
991.3985	2648.8398	927.3	46.65
991.5225	2650.1009	937.9	46.2
991.6464	2651.3613	928.65	45.25
991.7703	2652.6211	927.7	46
991.8942	2653.8801	924.65	43.2
992.018	2655.1385	932.8	49.8
992.1418	2656.3961	925.8	44.1
992.2655	2657.6531	927.05	46.65
992.3892	2658.9094	928.55	46.25
992.5129	2660.1651	927.6	47.75
992.6366	2661.42	926.25	43.1
992.7602	2662.6743	928.05	46.1
992.8837	2663.9279	926.4	44.55
993.0073	2665.1808	926.6	44.2
993.1307	2666.433	929.6	47.15
993.2542	2667.6846	930.2	48.25
993.3776	2668.9354	932	49.75
993.501	2670.1856	930.25	47.05
993.6244	2671.4351	927.8	45.5
993.7477	2672.6839	930.7	46.9
993.8709	2673.9321	929.9	48.4
993.9942	2675.1795	930.05	48.9
994.1174	2676.4263	927.8	46.05
994.2405	2677.6724	927.75	45.9
994.3637	2678.9179	926.5	44.5
994.4868	2680.1626	926.25	46.85
994.6098	2681.4067	928.3	47.1
994.7328	2682.6501	928.6	48.75
994.8558	2683.8928	929.1	47.25
994.9788	2685.1348	926.85	46.6
995.1017	2686.3761	926.8	46.4
995.2245	2687.6168	925.05	43.55
995.3474	2688.8568	926.45	43.4
995.4702	2690.0961	925.25	44.15
995.5929	2691.3348	926.6	44.95
995.7156	2692.5727	924.7	42
995.8383	2693.81	924.3	43.25
995.961	2695.0466	922.8	41.6
996.0836	2696.2826	930.35	48.7
996.2062	2697.5178	925.8	41.2
996.3287	2698.7524	926.85	44.05
996.4512	2699.9863	927.4	42.65
996.5737	2701.2195	925.55	45.65
996.6961	2702.452	926.85	44.75
996.8185	2703.6839	925.3	44.2
996.9408	2704.9151	924.3	42.85
997.0631	2706.1456	924.65	43
997.1854	2707.3755	927.35	44.4
997.3077	2708.6046	928.55	47.2
997.4299	2709.8331	927.6	47.8
997.552	2711.0609	926.6	45.6
997.6742	2712.2881	927.1	45.2
997.7963	2713.5145	927.5	43.45
997.9183	2714.7403	926.45	46.05
998.0403	2715.9654	925.9	44.05
998.1623	2717.1899	945.75	49
998.2842	2718.4136	930.95	50.2
998.4062	2719.6367	929.85	47.65
998.528	2720.8591	938.7	51.9
998.6498	2722.0809	933.5	52.5
998.7716	2723.3019	933.85	48.7
998.8934	2724.5223	935.7	53.35
999.0151	2725.7421	934.5	49.85
999.1368	2726.9611	938.15	56
999.2584	2728.1795	935.15	49.35
999.38	2729.3972	928.75	49.15
999.5016	2730.6142	937.45	50.1
999.6231	2731.8306	928.35	44.75
999.7446	2733.0462	932.65	50.05
999.8661	2734.2612	930.35	44.8
999.9875	2735.4756	925.35	44.95
1000.1089	2736.6892	925.15	43.5
1000.2302	2737.9022	922.3	43.6
1000.3515	2739.1145	923.7	40.65
1000.4728	2740.3262	934.35	43.75
1000.594	2741.5372	923.45	43.4
1000.7152	2742.7475	924.8	44.15
1000.8363	2743.9571	924	42.75
1000.9575	2745.1661	926.45	40.05
1001.0785	2746.3744	921.2	40.05
1001.1996	2747.582	920.55	40.25
1001.3206	2748.7889	918.95	36.65
1001.4415	2749.9952	921.55	41.95
1001.5625	2751.2008	921.4	40.6
1001.6833	2752.4057	923.15	41.9
1001.8042	2753.61	917.1	35.85
1001.925	2754.8136	919.15	34.55
1002.0458	2756.0165	917.75	38.95
1002.1665	2757.2188	914.7	36.4
1002.2872	2758.4204	916.4	35.1
1002.4078	2759.6213	919.4	35.8
1002.5285	2760.8215	922.45	35.9
1002.649	2762.0211	921.25	38.25
1002.7696	2763.22	918.6	33.6
1002.8901	2764.4182	918.45	37.75
1003.0106	2765.6158	919.05	37.75
1003.131	2766.8127	918.55	38.55
1003.2514	2768.009	916.05	35.35
1003.3717	2769.2045	915.75	35.35
1003.492	2770.3994	918.1	36
1003.6123	2771.5936	913.45	32.3
1003.7325	2772.7872	912.1	33.4
1003.8527	2773.9801	913.1	32.2
1003.9729	2775.1723	932.5	35.8
1004.093	2776.3639	915.05	37
1004.2131	2777.5548	916.3	33.65
1004.3331	2778.745	916	34
1004.4531	2779.9346	914.1	34.8
1004.5731	2781.1235	916.05	32.45
1004.693	2782.3117	913.15	33.35
1004.8129	2783.4992	911	33.4
1004.9328	2784.6861	913.8	33.85
1005.0526	2785.8723	912.35	30.55
1005.1723	2787.0579	914.3	33.25
1005.2921	2788.2428	914.55	36.3
1005.4118	2789.427	915.75	35.5
1005.5314	2790.6106	914.2	33.7
1005.651	2791.7935	916.4	35.8
1005.7706	2792.9757	911.45	32.1
1005.8902	2794.1573	918.2	35.05
1006.0097	2795.3382	914.25	33.55
1006.1291	2796.5184	912.65	33.3
1006.2485	2797.698	916.8	34.8
1006.3679	2798.8769	914.1	31.9
1006.4873	2800.0551	917.05	36.4
1006.6066	2801.2327	917.8	36.55
1006.7258	2802.4096	915.8	35.1
1006.8451	2803.5859	918.15	39
1006.9642	2804.7615	919.5	40.1
1007.0834	2805.9364	918.1	38.85
1007.2025	2807.1106	919.6	42.2
1007.3216	2808.2842	920.35	40.85
1007.4406	2809.4572	920.6	40.8
1007.5596	2810.6294	922.05	40.3
1007.6785	2811.801	919.95	41.2
1007.7975	2812.972	923.8	45.35
1007.9163	2814.1423	925.65	45.6
1008.0352	2815.3119	926.05	46.75
1008.154	2816.4808	929.5	51.2
1008.2727	2817.6491	931.2	50.85
1008.3914	2818.8167	934.1	55.8
1008.5101	2819.9837	942.45	55.8
1008.6288	2821.15	940.6	61.95
1008.7474	2822.3157	944.55	66.35
1008.8659	2823.4807	952	71.15
1008.9844	2824.645	958.65	77.7
1009.1029	2825.8086	963.3	81.8
1009.2214	2826.9716	970.35	91.7
1009.3398	2828.134	975.65	98.7
1009.4581	2829.2957	981.45	100.8
1009.5764	2830.4567	987.05	110.15
1009.6947	2831.617	991.9	112.25
1009.813	2832.7767	991.75	112.6
1009.9312	2833.9358	990.9	113.2
1010.0493	2835.0941	992	109.45
1010.1675	2836.2519	986.9	105.4
1010.2855	2837.4089	985.45	102.2
1010.4036	2838.5653	982.25	103.55
1010.5216	2839.7211	980.2	100.9
1010.6396	2840.8761	976.65	94.15
1010.7575	2842.0306	973.65	97.25
1010.8754	2843.1843	975.35	97.35
1010.9932	2844.3374	974.2	96.5
1011.111	2845.4899	980.05	101.65
1011.2288	2846.6417	976.9	97.8
1011.3465	2847.7928	980.15	102.25
1011.4642	2848.9433	981.2	100.45
1011.5818	2850.0931	983.35	102.4
1011.6995	2851.2422	983.7	102.65
1011.817	2852.3907	987.7	108.25
1011.9345	2853.5385	990.15	110.3
1012.052	2854.6857	1011	105.95
1012.1695	2855.8323	990.2	111.05
1012.2869	2856.9781	992	113.6
1012.4042	2858.1233	993.45	112.8
1012.5216	2859.2679	997.65	119.05
1012.6389	2860.4118	1000.5	120.35
1012.7561	2861.555	1006.15	121.2
1012.8733	2862.6976	1007.75	126.05
1012.9905	2863.8395	1005.45	127
1013.1076	2864.9808	1004.85	124.45
1013.2247	2866.1214	1007.1	129.55
1013.3417	2867.2614	1009.4	129.95
1013.4587	2868.4007	1009.6	129.95
1013.5757	2869.5393	1010.05	129.2
1013.6926	2870.6773	1016.95	133.55
1013.8095	2871.8146	1018.3	135.9
1013.9263	2872.9513	1018.35	134.9
1014.0431	2874.0874	1017.75	139.95
1014.1599	2875.2227	1023.15	141.65
1014.2766	2876.3574	1022	140.65
1014.3933	2877.4915	1021.25	143.3
1014.51	2878.6249	1022.95	145.5
1014.6266	2879.7577	1025.65	145.8
1014.7431	2880.8898	1039.65	149.45
1014.8596	2882.0212	1027.1	148.85
1014.9761	2883.152	1029.4	151.25
1015.0925	2884.2821	1028.3	149.65
1015.2089	2885.4116	1034.6	156.45
1015.3253	2886.5405	1034.1	154.45
1015.4416	2887.6686	1040.4	158.95
1015.5579	2888.7962	1031.75	155.6
1015.6741	2889.923	1035.15	156.9
1015.7903	2891.0493	1034.15	156.3
1015.9065	2892.1748	1034.5	156.05
1016.0226	2893.2997	1032.95	153.4
1016.1387	2894.424	1033.35	157.05
1016.2547	2895.5476	1034.3	155.3
1016.3707	2896.6706	1035.65	157.9
1016.4866	2897.7929	1034.75	153.05
1016.6025	2898.9145	1032.55	153.3
1016.7184	2900.0355	1041	160.8
1016.8342	2901.1559	1040.85	162.2
1016.95	2902.2756	1036.6	151.95
1017.0658	2903.3946	1035.05	157.85
1017.1815	2904.513	1036.9	155.7
1017.2971	2905.6308	1035.7	157.9
1017.4127	2906.7479	1036.5	158.4
1017.5283	2907.8643	1035.45	156.25
1017.6439	2908.9801	1034.9	156.35
1017.7594	2910.0953	1034.35	156.35
1017.8748	2911.2098	1032.75	151.85
1017.9902	2912.3236	1040.4	152.9
1018.1056	2913.4368	1037.35	157.2
1018.2209	2914.5494	1030.4	149.45
1018.3362	2915.6613	1038.65	154.5
1018.4515	2916.7725	1029.25	148.8
1018.5667	2917.8831	1027.2	145.85
1018.6819	2918.9931	1026.05	144.1
1018.797	2920.1024	1019.4	140.6
1018.9121	2921.211	1025.3	145.95
1019.0271	2922.319	1015.65	137.7
1019.1421	2923.4264	1019.2	141.6
1019.2571	2924.5331	1012.8	135.05
1019.372	2925.6391	1016.2	138.4
1019.4869	2926.7445	1016.1	135.35
1019.6017	2927.8493	1018.6	139
1019.7165	2928.9534	1017.55	138.6
1019.8313	2930.0569	1023.25	141.9
1019.946	2931.1597	1022.3	143.55
1020.0606	2932.2619	1019.75	141.05
1020.1753	2933.3634	1020.8	141.9
1020.2899	2934.4643	1029.4	144.85
1020.4044	2935.5645	1025.35	140.15
1020.5189	2936.6641	1029.1	147.1
1020.6334	2937.763	1023.85	145.35
1020.7478	2938.8613	1026.1	148.4
1020.8622	2939.959	1029.75	146.9
1020.9765	2941.056	1019.8	142.85
1021.0908	2942.1523	1016.65	136.95
1021.2051	2943.248	1010.3	132.95
1021.3193	2944.3431	1000.7	122.55
1021.4334	2945.4375	998.05	118.6
1021.5476	2946.5313	988.45	110.65
1021.6617	2947.6244	982.15	103.9
1021.7757	2948.7169	980.45	99.7
1021.8897	2949.8087	974.75	96.7
1022.0037	2950.8999	966.8	87.2
1022.1176	2951.9904	960.95	82.1
1022.2315	2953.0803	957.6	78.8
1022.3453	2954.1696	956.5	78
1022.4591	2955.2582	954.25	77.35
1022.5728	2956.3462	949.85	71.1
1022.6865	2957.4335	952.8	72
1022.8002	2958.5202	951.95	71.6
1022.9138	2959.6062	946.6	67.4
1023.0274	2960.6916	948.95	71.9
1023.141	2961.7764	949.8	69.6
1023.2545	2962.8605	946.75	64.85
1023.3679	2963.9439	947.35	69.7
1023.4813	2965.0267	951	72.2
1023.5947	2966.1089	968.8	69.55
1023.708	2967.1905	944.7	65.55
1023.8213	2968.2714	942	67
1023.9346	2969.3516	945	66.9
1024.0478	2970.4312	951.95	66.1
1024.1609	2971.5102	945.2	68.3
1024.274	2972.5885	946.75	68.05
1024.3871	2973.6662	950.8	65.75
1024.5002	2974.7432	946.2	67.75
1024.6132	2975.8196	944.9	67
1024.7261	2976.8954	945.5	67.8
1024.839	2977.9705	946.8	70.95
1024.9519	2979.045	944.15	66.35
1025.0647	2980.1188	946.25	69
1025.1775	2981.192	943.85	65.35
1025.2902	2982.2645	946.95	67.85
1025.4029	2983.3364	941.95	64.25
1025.5156	2984.4077	940.35	62.8
1025.6282	2985.4783	944.85	59.8
1025.7407	2986.5483	937	61.5
1025.8532	2987.6177	934.85	56.35
1025.9657	2988.6864	935.1	58.2
1026.0782	2989.7545	934.2	53.9
1026.1906	2990.8219	930.85	53.4
1026.3029	2991.8887	926.9	48
1026.4152	2992.9548	925.7	48.75
1026.5275	2994.0204	921	42.3
1026.6397	2995.0852	919.45	43.7
1026.7519	2996.1495	917.55	37.95
1026.864	2997.2131	916.4	39.4
1026.9761	2998.276	915.25	35.55
1027.0882	2999.3383	914.95	36.1
1027.2002	3000.4	913.05	34.85
1027.3122	3001.4611	909.55	32.55
1027.4241	3002.5215	906.9	28.9
1027.536	3003.5812	907.1	31.1
1027.6478	3004.6404	906.15	29
1027.7596	3005.6989	907.2	26.1
1027.8714	3006.7567	905.3	27.1
1027.9831	3007.8139	938.4	31.7
1028.0947	3008.8705	903.55	26.15
1028.2064	3009.9264	908.1	25.8
1028.3179	3010.9818	902.95	22.7
1028.4295	3012.0364	902.6	22.6
1028.541	3013.0905	901.8	23.15
1028.6524	3014.1439	902.75	26.8
1028.7638	3015.1966	900.25	23.25
1028.8752	3016.2487	901.9	23.85
1028.9865	3017.3002	905.9	25.3
1029.0978	3018.3511	899.65	24.4
1029.209	3019.4013	900.65	23.25
1029.3202	3020.4509	899.35	20.9
1029.4314	3021.4998	900.75	24.55
1029.5425	3022.5481	901.6	23.25
1029.6535	3023.5958	899.1	21.4
1029.7645	3024.6428	901	22.6
1029.8755	3025.6892	899.85	23.35
1029.9864	3026.735	898.85	20.4
1030.0973	3027.7802	898.7	21.9
1030.2082	3028.8247	898.9	19.75
1030.319	3029.8685	899.85	21.3
1030.4297	3030.9118	901.4	22.05
1030.5404	3031.9544	900.05	23.3
1030.6511	3032.9963	900.65	24.9
1030.7617	3034.0376	900.1	24.8
1030.8723	3035.0783	903.05	24.15
1030.9829	3036.1184	900.05	20.45
1031.0934	3037.1578	897.3	21.3
1031.2038	3038.1966	900.65	20.6
1031.3142	3039.2348	899.3	24.4
1031.4246	3040.2723	906.3	21.35
1031.5349	3041.3092	898.2	23.45
1031.6452	3042.3455	899.85	21.35
1031.7554	3043.3811	898.85	19.85
1031.8656	3044.4161	898.95	20.85
1031.9758	3045.4505	899.1	22.3
1032.0859	3046.4842	901	24.15
1032.1959	3047.5173	898.45	21.25
1032.3059	3048.5498	898.65	20.8
1032.4159	3049.5816	900.55	24.3
1032.5258	3050.6128	902.45	21.35
1032.6357	3051.6434	900.55	23.55
1032.7455	3052.6734	900.35	19.35
1032.8553	3053.7027	900.15	22.35
1032.9651	3054.7314	898.9	20.95
1033.0748	3055.7594	900.95	23.45
1033.1845	3056.7868	900.75	23.2
1033.2941	3057.8136	901.4	22.45
1033.4037	3058.8398	897.15	20.9
1033.5132	3059.8653	901	24.85
1033.6227	3060.8902	901.6	25.75
1033.7321	3061.9145	900.4	21.65
1033.8415	3062.9381	900.55	23.7
1033.9509	3063.9612	917.05	24.95
1034.0602	3064.9835	901	24.6
1034.1694	3066.0053	904.95	23.9
1034.2787	3067.0264	899.55	23.25
1034.3878	3068.0469	902.5	24
1034.497	3069.0668	905.45	25.45
1034.6061	3070.086	901.8	27.1
1034.7151	3071.1046	900.45	22.3
1034.8241	3072.1226	899.25	20.65
1034.9331	3073.1399	898.5	22.55
1035.042	3074.1567	901.7	22.65
1035.1508	3075.1727	900.15	23.05
1035.2597	3076.1882	897.45	20.25
1035.3684	3077.203	897.9	21.8
1035.4772	3078.2173	898.65	19.8
1035.5859	3079.2308	902.4	21.55
1035.6945	3080.2438	899.6	21.35
1035.8031	3081.2561	896.9	19.05
1035.9117	3082.2678	894.45	15.7
1036.0202	3083.2789	897.35	21.15
1036.1286	3084.2893	894.15	19.1
1036.2371	3085.2991	895.35	19.05
1036.3454	3086.3083	899.5	17.85
1036.4538	3087.3169	895.05	16.5
1036.562	3088.3248	896.4	19.75
1036.6703	3089.3321	895.7	16.15
1036.7785	3090.3388	893.6	17.95
1036.8866	3091.3449	895.4	17.8
1036.9948	3092.3503	896.2	15.8
1037.1028	3093.3551	892.95	19.8
1037.2108	3094.3593	889.9	15.5
1037.3188	3095.3629	892.95	17.45
1037.4267	3096.3658	893.15	13.1
1037.5346	3097.3681	891.85	13.15
1037.6425	3098.3698	895.35	17.65
1037.7503	3099.3708	891.6	15.4
1037.858	3100.3713	891.4	14.85
1037.9657	3101.3711	892.8	14.85
1038.0734	3102.3702	1028.25	15.25
1038.181	3103.3688	892.65	12.65
1038.2886	3104.3667	890.05	13.25
1038.3961	3105.364	889.6	12.2
1038.5036	3106.3607	890.45	10.9
1038.611	3107.3568	892.7	14.9
1038.7184	3108.3522	889.4	14.85
1038.8257	3109.347	892.25	14.65
1038.933	3110.3412	895.45	14.95
1039.0403	3111.3348	890.2	12.85
1039.1475	3112.3277	889.8	13
1039.2547	3113.32	887.35	10.9
1039.3618	3114.3117	891.2	12.2
1039.4689	3115.3028	889.3	10.3
1039.5759	3116.2932	889.85	12
1039.6829	3117.2831	893.6	13.6
1039.7898	3118.2723	888.4	13.05
1039.8967	3119.2608	887.55	10.55
1040.0035	3120.2488	888.5	11.55
1040.1103	3121.2361	888	8.35
1040.2171	3122.2229	888	8.15
1040.3238	3123.209	888.7	10.7
1040.4305	3124.1944	888.15	10.9
1040.5371	3125.1793	889.15	12.3
1040.6437	3126.1635	886.7	11.25
1040.7502	3127.1471	886.9	10.4
1040.8567	3128.1301	886.7	11.5
1040.9631	3129.1125	886.75	11.7
1041.0695	3130.0942	885.15	8.65
1041.1759	3131.0753	896.15	10.7
1041.2822	3132.0558	889.6	8.45
1041.3884	3133.0357	887.95	9.85
1041.4946	3134.015	886.65	6.75
1041.6008	3134.9936	888.55	9.15
1041.7069	3135.9716	908.35	9.5
1041.813	3136.949	886.3	9.4
1041.919	3137.9258	903.9	9.45
1042.025	3138.902	893.7	12.75
1042.1309	3139.8775	885.9	8.1
1042.2368	3140.8524	884.4	7.75
1042.3427	3141.8267	886.4	5.85
1042.4485	3142.8004	888	12.45
1042.5542	3143.7735	892.25	9.55
1042.6599	3144.7459	890.15	10.9
1042.7656	3145.7178	885.4	7.95
1042.8712	3146.689	883.45	7
1042.9768	3147.6596	887.1	8
1043.0823	3148.6295	887.05	10
1043.1878	3149.5989	885.9	7.25
1043.2932	3150.5676	884.9	10.5
1043.3986	3151.5357	883.45	6.55
1043.5039	3152.5032	884.65	6.2
1043.6092	3153.4701	886.3	8.05
1043.7145	3154.4364	887.55	8.1
1043.8197	3155.402	885.9	10.55
1043.9248	3156.367	886.6	8.8
1044.03	3157.3315	930.1	9.1
1044.135	3158.2952	883.45	7.85
1044.24	3159.2584	885.95	7.45
1044.345	3160.221	885.55	8.3
1044.4499	3161.1829	886.3	8.15
1044.5548	3162.1442	882.05	5.35
1044.6596	3163.105	886.5	9.75
1044.7644	3164.065	886.05	8.75
1044.8692	3165.0245	888.6	9.85
1044.9739	3165.9834	882.45	6.8
1045.0785	3166.9416	883.95	8.25
1045.1831	3167.8993	884.35	7.6
1045.2877	3168.8563	885.7	7.8
1045.3922	3169.8127	885	6.95
1045.4966	3170.7684	885.6	9.65
1045.6011	3171.7236	885.35	7.35
1045.7054	3172.6782	886.05	9.5
1045.8098	3173.6321	885.05	8.55
1045.914	3174.5854	890.15	8.35
1046.0183	3175.5381	884	8.05
1046.1224	3176.4902	884.05	7.7
1046.2266	3177.4417	882.55	8.05
1046.3307	3178.3926	883.4	6.45
1046.4347	3179.3428	882.5	9.25
1046.5387	3180.2924	882.3	5.5
1046.6427	3181.2415	883.7	7.55
1046.7466	3182.1899	884.25	8.2
1046.8504	3183.1377	882.75	5.2
1046.9542	3184.0848	885.8	6
1047.058	3185.0314	883.5	5.55
1047.1617	3185.9773	884	7.5
1047.2654	3186.9227	885.1	7.8
1047.369	3187.8674	883.2	7.85
1047.4726	3188.8115	887.2	5.9
1047.5761	3189.755	882.55	6.55
1047.6796	3190.6979	882.95	6.5
1047.783	3191.6402	881.1	5.5
1047.8864	3192.5818	882.8	6.55
1047.9898	3193.5229	893.5	4.45
1048.0931	3194.4633	884.7	7.45
1048.1963	3195.4031	883.05	7.35
1048.2995	3196.3423	883.65	6.45
1048.4027	3197.2809	883.2	5.6
1048.5058	3198.2189	884.05	8.65
1048.6089	3199.1563	888.05	5.7
1048.7119	3200.0931	881.2	6.85
1048.8148	3201.0292	881.3	5
1048.9178	3201.9648	883.4	8.6
1049.0206	3202.8997	887.45	8.2
1049.1235	3203.834	882.5	6.65
1049.2262	3204.7677	883.2	6.75
1049.329	3205.7008	886.05	8.7
1049.4317	3206.6333	882.5	6.75
1049.5343	3207.5652	885	7.1
1049.6369	3208.4964	884.1	8.15
1049.7394	3209.4271	881.85	6.45
1049.8419	3210.3571	882.55	6.7
1049.9444	3211.2865	885.15	6
1050.0468	3212.2154	884.55	6.15
1050.1491	3213.1436	885.5	4.75
1050.2514	3214.0712	888.7	6
1050.3537	3214.9982	881.9	6.9
1050.4559	3215.9246	884.4	8.8
1050.5581	3216.8503	882.1	6.4
1050.6602	3217.7755	883.4	7.4
1050.7623	3218.7001	882.75	6.8
1050.8643	3219.624	883.8	5.2
1050.9663	3220.5473	881.45	4.65
1051.0682	3221.4701	881.4	3.8
1051.1701	3222.3922	884.6	7.25
1051.2719	3223.3137	881.4	3.2
1051.3737	3224.2346	880.8	5.7
1051.4754	3225.1549	883.05	8.05
1051.5771	3226.0746	883.45	7.2
1051.6788	3226.9937	883.35	6.55
1051.7804	3227.9121	882.05	6.9
1051.8819	3228.83	881.65	6.75
1051.9834	3229.7473	883.25	5.5
1052.0849	3230.6639	884.2	6
1052.1863	3231.5799	882.15	7.55
1052.2876	3232.4954	880.85	4.85
1052.3889	3233.4102	880.95	3.6
1052.4902	3234.3244	880.8	3.35
1052.5914	3235.238	880.3	3.4
1052.6926	3236.151	905.6	4.6
1052.7937	3237.0634	879.9	4.45
1052.8948	3237.9752	881.9	5.5
1052.9958	3238.8864	881.3	4.05
1053.0968	3239.797	882.5	4.6
1053.1977	3240.7069	882.3	4.6
1053.2986	3241.6163	883	5.3
1053.3994	3242.5251	880.05	6.75
1053.5002	3243.4332	880.2	5.7
1053.6009	3244.3408	882.75	5.35
1053.7016	3245.2477	881.05	6.95
1053.8022	3246.154	882.7	5.5
1053.9028	3247.0598	883.05	5.95
1054.0034	3247.9649	880.3	3.85
1054.1039	3248.8694	882.25	4.95
1054.2043	3249.7733	881.4	6.4
1054.3047	3250.6766	881.2	6.1
1054.4051	3251.5793	883.75	6.15
1054.5054	3252.4814	879.6	5.95
1054.6056	3253.3829	880.55	2.65
1054.7058	3254.2838	882.1	5.5
1054.806	3255.1841	880.8	5.7
1054.9061	3256.0838	881.85	3.5
1055.0061	3256.9829	881	3.85
1055.1062	3257.8814	880.1	1.7
1055.2061	3258.7792	881.35	4.8
1055.306	3259.6765	880.7	3.3
1055.4059	3260.5731	878.95	0.95
1055.5057	3261.4692	881	5.2
1055.6055	3262.3647	881.05	3.35
1055.7052	3263.2595	881.95	6
1055.8049	3264.1538	878.75	2.6
1055.9045	3265.0474	879.9	1.7
1056.0041	3265.9404	880.5	5.1
1056.1036	3266.8329	879.4	1.95
1056.2031	3267.7247	891.15	4.2
1056.3025	3268.616	877.5	1.4
1056.4019	3269.5066	880.8	3.45
1056.5013	3270.3966	881	2.25
1056.6005	3271.286	876.9	1.4
