Software Version:	3.9.2.0
Unit SN:	10000200
Spectrometer SN:	6960
Date:	3/8/2024 12:59:42 PM
Data Line Index:	25
Spectral Points:	2048
Integration time (ms):	125
Averages:	20
Delay (ms):	30000
Sequence Number:	1
Processing:	dark subtract
Laser Power (mW):	305
Laser Current (mA):	822
Laser Diode Temp (C):	25
Laser Case Temp (C):	26.1
System Temp (C):	26
Spectrometer Temp (C):	24
CCD Temp (C):	0.008
Secondary Temp (C):	20.013
Heatsink Temp (C):	20.595
CCDPCB Temp (C):	36.018
SecondaryPCB Temp (C):	29.182

Wavelength	RamanShift	Raw Counts	Dark Subtracted
787.061	30.1047	455.8	48.25
787.2016	32.3739	456	51.1
787.3422	34.6426	458.1	48.05
787.4828	36.9109	467.6	58.65
787.6235	39.1787	473	59.35
787.7642	41.4461	487.15	69.2
787.9049	43.7131	489.1	67.95
788.0456	45.9796	501.25	78.15
788.1863	48.2456	508.45	79.85
788.3271	50.5112	520.6	88.35
788.4679	52.7764	527.55	91.25
788.6087	55.0411	538.75	96.55
788.7496	57.3054	545.95	99.65
788.8904	59.5692	552.95	106.35
789.0313	61.8326	570.4	121.7
789.1722	64.0955	577.2	124.7
789.3132	66.3579	595.8	137.35
789.4541	68.6199	615.4	153.6
789.5951	70.8815	652.35	185.95
789.7361	73.1426	731.2	260.3
789.8771	75.4032	944.35	470.6
790.0181	77.6634	1458.7	979.65
790.1592	79.9231	2661.25	2170.85
790.3003	82.1824	5253.8	4744.1
790.4414	84.4412	9907.1	9366.95
790.5825	86.6995	16231.2	15645.4
790.7237	88.9574	22332.2	21711.3
790.8648	91.2148	26496.85	25848.6
791.006	93.4717	28352.9	27689.6
791.1472	95.7282	28624	27953.25
791.2885	97.9842	28306.6	27635
791.4297	100.2398	27619.85	26940.35
791.571	102.4949	26810.3	26128.35
791.7123	104.7495	25889.05	25209.25
791.8536	107.0036	25005.4	24322.5
791.9949	109.2573	24178.45	23496.2
792.1363	111.5105	23451.15	22766
792.2777	113.7632	22719.65	22034.8
792.4191	116.0154	22135.55	21433.85
792.5605	118.2672	21706.75	21012.55
792.7019	120.5185	21279	20585
792.8434	122.7693	20917.85	20220
792.9849	125.0197	20628.2	19926.8
793.1264	127.2696	20324.55	19619.15
793.2679	129.519	20201.05	19489.75
793.4094	131.7679	19917	19206.4
793.551	134.0163	19649.55	18933.55
793.6926	136.2642	19303.7	18585.15
793.8342	138.5117	19015.75	18290.05
793.9758	140.7587	18693.9	17970.7
794.1175	143.0052	18383.75	17655.6
794.2591	145.2512	18098.65	17374.45
794.4008	147.4967	17765.1	17045.05
794.5425	149.7417	17569.95	16845.15
794.6842	151.9863	17416	16683.7
794.826	154.2304	17327.95	16589.05
794.9677	156.4739	17152.4	16408.5
795.1095	158.717	17027.2	16282.45
795.2513	160.9596	16879.9	16129.95
795.3931	163.2017	16586.2	15839.05
795.535	165.4433	16325.65	15576.8
795.6768	167.6844	15987.7	15238.05
795.8187	169.925	15654.85	14896.65
795.9606	172.1651	15295.2	14541.8
796.1025	174.4047	15020.3	14260.25
796.2445	176.6439	14770.3	14007.35
796.3864	178.8825	14559.05	13795.6
796.5284	181.1206	14420.85	13650.3
796.6704	183.3582	14272.15	13499.2
796.8124	185.5954	14167.6	13389.75
796.9544	187.832	14079.05	13299.3
797.0965	190.0681	14027.85	13248.5
797.2386	192.3037	14043.3	13257.6
797.3806	194.5388	14027.95	13238.35
797.5228	196.7734	14077.1	13283.65
797.6649	199.0075	14138.4	13344.5
797.807	201.2411	14257.55	13467.6
797.9492	203.4742	14332	13534.9
798.0914	205.7068	14499.85	13698
798.2336	207.9389	14611.25	13809.85
798.3758	210.1704	14790.35	14000.45
798.518	212.4015	14890.65	14108.5
798.6603	214.632	15045.65	14268.4
798.8025	216.862	15197.45	14420.4
798.9448	219.0915	15314.45	14539.1
799.0871	221.3205	15475.75	14691.25
799.2294	223.549	15623.3	14848.65
799.3718	225.777	15767.05	14987.6
799.5141	228.0044	15950.35	15168.1
799.6565	230.2314	16221.7	15434.6
799.7989	232.4578	16442.45	15654.75
799.9413	234.6837	16686.1	15892.6
800.0837	236.909	16813.25	16012.65
800.2262	239.1339	16782	15960.2
800.3687	241.3582	16683.1	15869.2
800.5111	243.582	16466.3	15623.1
800.6536	245.8053	16312.8	15487.15
800.7961	248.0281	16149.3	15331.8
800.9387	250.2503	16084.55	15260.8
801.0812	252.472	16055.85	15229.85
801.2238	254.6932	16135.25	15312.3
801.3664	256.9139	16192.1	15365.65
801.509	259.134	16324.1	15491.85
801.6516	261.3536	16483.05	15653.5
801.7942	263.5727	16745.75	15913.05
801.9369	265.7912	16916.6	16087.75
802.0795	268.0092	17103.4	16276.6
802.2222	270.2267	17224.4	16391.55
802.3649	272.4436	17289.75	16460.5
802.5076	274.6601	17293.45	16450.85
802.6504	276.8759	17174.95	16338.25
802.7931	279.0913	17096.15	16260.05
802.9359	281.3061	16990.05	16146.6
803.0787	283.5204	16945.5	16103.5
803.2215	285.7341	16974.1	16130
803.3643	287.9473	17046	16188.45
803.5071	290.16	17158.9	16311.9
803.6499	292.3721	17319.95	16477.95
803.7928	294.5837	17596	16744.65
803.9357	296.7947	17890.35	17044.95
804.0786	299.0052	18055.65	17209.5
804.2215	301.2152	18008.85	17159.45
804.3644	303.4246	17771.75	16929
804.5074	305.6334	17329.4	16487.85
804.6503	307.8418	16905.4	16058.75
804.7933	310.0495	16465.8	15612.05
804.9363	312.2568	16084.05	15232.45
805.0793	314.4635	15758.75	14903.4
805.2223	316.6696	15508.9	14652.85
805.3653	318.8752	15372.1	14505.85
805.5084	321.0802	15312.95	14455.15
805.6514	323.2847	15392.95	14537.75
805.7945	325.4887	15423.35	14565.5
805.9376	327.692	15391.35	14527.45
806.0807	329.8949	15321.8	14463.35
806.2238	332.0972	15094.85	14228.4
806.367	334.2989	14876.8	14006.05
806.5101	336.5001	14632.8	13764.85
806.6533	338.7007	14403.1	13533.1
806.7965	340.9008	14270.95	13404
806.9397	343.1003	14148.4	13281.9
807.0829	345.2992	14014.95	13147.2
807.2261	347.4976	13956.55	13082.65
807.3693	349.6955	13949.9	13070.35
807.5126	351.8927	13950.75	13076.55
807.6559	354.0895	13877.8	12991.65
807.7991	356.2856	13895.15	13017.15
807.9424	358.4812	13836.65	12954.35
808.0857	360.6763	13833.2	12953.15
808.2291	362.8707	13844.25	12959.15
808.3724	365.0646	13887.6	13003.65
808.5158	367.258	13935	13057.6
808.6591	369.4508	13994.95	13103.45
808.8025	371.643	14145.2	13256.4
808.9459	373.8346	14162.95	13271.15
809.0893	376.0257	14217.25	13326.65
809.2327	378.2162	14184.25	13296.1
809.3762	380.4062	14165.5	13278.5
809.5196	382.5956	14024.95	13139.55
809.6631	384.7844	13895.85	13013.1
809.8066	386.9726	13813.8	12932.15
809.9501	389.1603	13723.6	12845.7
810.0936	391.3474	13676.45	12770.05
810.2371	393.5339	13663.2	12775.35
810.3806	395.7199	13585.45	12701.15
810.5241	397.9052	13652.15	12768
810.6677	400.09	13719.85	12839.5
810.8113	402.2743	13831.1	12948.75
810.9548	404.4579	13992.2	13107.95
811.0984	406.641	14193	13308.45
811.2421	408.8235	14367.95	13481.55
811.3857	411.0054	14575.1	13681.6
811.5293	413.1868	14844.85	13950.6
811.673	415.3675	14993.4	14094.3
811.8166	417.5477	15084.6	14188.25
811.9603	419.7273	15076.45	14178.85
812.104	421.9064	14998.95	14095.9
812.2477	424.0848	14896.6	13999.55
812.3914	426.2627	14730.75	13833.1
812.5351	428.4399	14506.8	13607.2
812.6788	430.6166	14152.8	13250.2
812.8226	432.7928	13787.2	12884.35
812.9663	434.9683	13504.35	12605.75
813.1101	437.1432	13273.65	12379.65
813.2539	439.3176	13089.45	12197.7
813.3977	441.4914	12979.2	12088.6
813.5415	443.6645	12966.9	12075.95
813.6853	445.8371	12892.65	11998.1
813.8291	448.0091	12845.65	11949.6
813.973	450.1806	12835.25	11941.7
814.1168	452.3514	12821.3	11927.15
814.2607	454.5216	12831.1	11925.3
814.4046	456.6913	12799.9	11899.25
814.5485	458.8603	12854.5	11962.25
814.6924	461.0288	12931.4	12038.8
814.8363	463.1967	12929.75	12040.8
814.9802	465.3639	12967.75	12077.2
815.1241	467.5306	13010.4	12113.6
815.2681	469.6967	13031.9	12139.25
815.412	471.8622	13096.8	12208.6
815.556	474.0271	13205.65	12310.65
815.7	476.1914	13242.1	12341.75
815.844	478.3551	13242.95	12345.8
815.988	480.5182	13270.5	12375.9
816.132	482.6807	13352.45	12466.3
816.276	484.8426	13511.95	12632.65
816.4201	487.0039	13835.25	12950.1
816.5641	489.1647	14236.35	13339.9
816.7082	491.3248	14602.65	13704.6
816.8522	493.4843	14721.7	13827.25
816.9963	495.6432	14690.5	13794.95
817.1404	497.8015	14588.9	13685.35
817.2845	499.9592	14501.8	13590.35
817.4286	502.1163	14370.5	13464.5
817.5727	504.2728	14078.2	13176.55
817.7168	506.4287	13775	12884.2
817.861	508.5839	13425.85	12534.1
818.0051	510.7386	13191.7	12296
818.1493	512.8927	13052.8	12143.75
818.2935	515.0461	13008.8	12100
818.4377	517.199	13053.2	12145
818.5818	519.3512	13196	12283.8
818.726	521.5029	13383.75	12471.6
818.8703	523.6539	13573.6	12669.3
819.0145	525.8043	13656.75	12745.4
819.1587	527.9541	13612.55	12697.6
819.303	530.1033	13508.8	12599.15
819.4472	532.2519	13409.25	12502.9
819.5915	534.3999	13406.35	12496.25
819.7357	536.5472	13550.8	12641.85
819.88	538.694	13802.95	12897.9
820.0243	540.8401	14246.05	13335
820.1686	542.9856	14548.8	13629.2
820.3129	545.1305	14636.55	13715.45
820.4572	547.2748	14541.5	13611.95
820.6016	549.4185	14309.8	13381.5
820.7459	551.5615	14072.45	13144.35
820.8902	553.704	14038.75	13115.95
821.0346	555.8458	14051.05	13133.65
821.1789	557.987	14195.55	13275
821.3233	560.1276	14369.75	13450.85
821.4677	562.2675	14632	13713.05
821.6121	564.4069	15055.5	14132.6
821.7565	566.5456	15292.85	14375.85
821.9009	568.6837	15388.65	14472.15
822.0453	570.8212	15011.95	14093.3
822.1897	572.958	14446.95	13528.95
822.3342	575.0942	13909.65	12996.75
822.4786	577.2299	13552.85	12643.25
822.6231	579.3648	13358.65	12460.4
822.7675	581.4992	13380.4	12491.35
822.912	583.6329	13514.75	12628.8
823.0565	585.766	13718.2	12828.1
823.201	587.8985	13829.65	12928.95
823.3454	590.0304	13887.7	12953.4
823.4899	592.1616	13831.05	12906.35
823.6345	594.2922	13703	12781.3
823.779	596.4222	13513.95	12586.35
823.9235	598.5515	13337.75	12411.45
824.068	600.6802	13173.65	12251.35
824.2126	602.8083	13002.4	12084.4
824.3571	604.9358	12950.15	12024.2
824.5017	607.0626	12992.75	12071.55
824.6462	609.1888	13052.95	12124.45
824.7908	611.3144	13138.85	12206.6
824.9354	613.4393	13159.8	12230.1
825.08	615.5636	13209.5	12274.4
825.2246	617.6873	13206.55	12275
825.3692	619.8103	13147.35	12218.8
825.5138	621.9327	12998.15	12070.5
825.6584	624.0544	12826.85	11904.4
825.803	626.1756	12694.3	11773.65
825.9477	628.2961	12581.7	11654.55
826.0923	630.4159	12503.45	11573.15
826.237	632.5351	12492.5	11563.8
826.3816	634.6537	12459.35	11525.35
826.5263	636.7716	12446.4	11509.8
826.6709	638.8889	12455.5	11516.25
826.8156	641.0056	12473.05	11534.85
826.9603	643.1216	12478.8	11539.65
827.105	645.237	12470.25	11537.35
827.2497	647.3518	12394.55	11474.6
827.3944	649.4659	12367.85	11446.9
827.5391	651.5793	12318.35	11402.75
827.6838	653.6922	12287.6	11361.8
827.8285	655.8043	12270.05	11342.1
827.9733	657.9159	12271.4	11343.45
828.118	660.0268	12236.6	11310.65
828.2627	662.137	12212.45	11280.3
828.4075	664.2466	12234.05	11297.2
828.5522	666.3556	12252.25	11315.9
828.697	668.4639	12189.7	11257
828.8418	670.5716	12171.25	11246.6
828.9865	672.6786	12193.2	11256.95
829.1313	674.785	12160	11223.65
829.2761	676.8907	12156.85	11227.8
829.4209	678.9958	12183.25	11256.2
829.5657	681.1002	12170.55	11234
829.7105	683.204	12201.95	11261.35
829.8553	685.3072	12151.85	11213.75
830.0001	687.4097	12125.55	11190.9
830.1449	689.5115	12082.45	11148.95
830.2898	691.6127	12059.6	11122.65
830.4346	693.7132	12040	11109
830.5794	695.8131	12056.75	11113.75
830.7243	697.9123	12080.3	11141.85
830.8691	700.0109	12059.5	11117.75
831.014	702.1089	12105.5	11165.85
831.1588	704.2061	12109.5	11176.25
831.3037	706.3028	12170.7	11230.7
831.4486	708.3987	12222.35	11280.1
831.5935	710.4941	12270.6	11331.55
831.7383	712.5887	12356.4	11417.8
831.8832	714.6827	12496.5	11557.6
832.0281	716.7761	12675.85	11740.3
832.173	718.8688	12961.4	12026.6
832.3179	720.9608	13104.35	12158.25
832.4628	723.0522	13194.3	12244
832.6077	725.1429	13209.05	12266.9
832.7527	727.233	13157.75	12216.2
832.8976	729.3224	13165.8	12223.05
833.0425	731.4112	13017	12076.5
833.1874	733.4993	12819.9	11883.45
833.3324	735.5867	12642.55	11701.6
833.4773	737.6735	12429.25	11486.9
833.6222	739.7596	12299.15	11357.6
833.7672	741.845	12204.8	11265.75
833.9122	743.9298	12169.1	11229.7
834.0571	746.014	12134	11191.75
834.2021	748.0974	12110.25	11165.25
834.347	750.1802	12069.2	11121.35
834.492	752.2624	12105.6	11157.6
834.637	754.3439	12184.2	11237.4
834.782	756.4247	12289	11333
834.9269	758.5048	12422.25	11474.7
835.0719	760.5843	12701.55	11752.9
835.2169	762.6631	13085.25	12136.05
835.3619	764.7413	13652.55	12707.7
835.5069	766.8188	14317.7	13372.85
835.6519	768.8956	14862.55	13912.55
835.7969	770.9718	15208.5	14261.3
835.9419	773.0473	15123.55	14179.25
836.0869	775.1221	14839.7	13896.05
836.232	777.1962	14526.95	13578.75
836.377	779.2697	14398.05	13452.55
836.522	781.3426	14429.85	13470.1
836.667	783.4147	14564.5	13618.05
836.8121	785.4862	14745.25	13795.25
836.9571	787.557	14609.4	13658.4
837.1021	789.6271	14184.65	13233.8
837.2472	791.6966	13636.35	12685.7
837.3922	793.7654	13032.4	12084
837.5373	795.8335	12629.3	11685.8
837.6823	797.901	12370.3	11421.65
837.8274	799.9678	12254.35	11299.55
837.9724	802.0339	12169.8	11218.7
838.1175	804.0993	12152.25	11191.55
838.2626	806.1641	12102.6	11152.2
838.4076	808.2282	12082.05	11134.9
838.5527	810.2916	12001.05	11048.7
838.6978	812.3544	11889.5	10943.5
838.8428	814.4164	11862.5	10916.15
838.9879	816.4778	11893.75	10940.05
839.133	818.5385	11880.95	10928.85
839.2781	820.5986	12025	11076.05
839.4232	822.658	12234.5	11279.5
839.5682	824.7166	12478.6	11528.05
839.7133	826.7747	12931.9	11977.75
839.8584	828.832	13351.45	12402.35
840.0035	830.8886	13662.2	12708.25
840.1486	832.9446	13816.55	12860.55
840.2937	834.9999	13743.85	12791.05
840.4388	837.0545	13564.4	12606.55
840.5839	839.1085	13310.35	12354.4
840.729	841.1618	13068.85	12110.7
840.8741	843.2143	12909.3	11954.45
841.0192	845.2662	12711.05	11758.7
841.1643	847.3175	12614.6	11661.95
841.3095	849.368	12496.85	11540.3
841.4546	851.4179	12402.85	11448.85
841.5997	853.467	12290.45	11339.3
841.7448	855.5155	12197.9	11244.8
841.8899	857.5633	12127.65	11173.55
842.0351	859.6105	12028.1	11072.45
842.1802	861.6569	11961.35	11003.9
842.3253	863.7027	11917.85	10960.05
842.4704	865.7478	11876.75	10923.85
842.6156	867.7922	11828.6	10871.35
842.7607	869.8359	11863.75	10907.15
842.9058	871.8789	11916.55	10958.85
843.0509	873.9212	12040.95	11051.5
843.1961	875.9629	12121.35	11163.8
843.3412	878.0039	12264.2	11308.2
843.4863	880.0441	12368.1	11415.6
843.6315	882.0837	12407.1	11452.2
843.7766	884.1226	12375.4	11417.7
843.9218	886.1609	12396.3	11443.5
844.0669	888.1984	12443.2	11483.75
844.212	890.2352	12530.95	11574.75
844.3572	892.2714	12542.55	11580.05
844.5023	894.3069	12489.3	11531.85
844.6475	896.3416	12356.4	11399.4
844.7926	898.3757	12254.5	11296.7
844.9377	900.4091	12197.2	11237.15
845.0829	902.4418	12165.95	11204.5
845.228	904.4739	12219.6	11255.85
845.3732	906.5052	12260.1	11297.1
845.5183	908.5358	12178.85	11217.3
845.6635	910.5658	12030.15	11070
845.8086	912.595	11849.35	10893.65
845.9538	914.6236	11665.85	10705.85
846.0989	916.6515	11544.3	10585.8
846.2441	918.6786	11480.05	10519.35
846.3892	920.7051	11470.75	10513.25
846.5344	922.7309	11562.3	10603.2
846.6795	924.756	11599.55	10641.4
846.8246	926.7804	11682.1	10722.5
846.9698	928.8041	11678.4	10721.8
847.1149	930.8272	11760	10800.3
847.2601	932.8495	11697.75	10736.2
847.4052	934.8711	11704.75	10743.9
847.5504	936.892	11592.3	10633
847.6955	938.9123	11522.15	10563.3
847.8407	940.9318	11538.85	10582.35
847.9858	942.9506	11494.15	10530.8
848.131	944.9688	11413.55	10455.95
848.2761	946.9862	11332.3	10372.6
848.4213	949.003	11196.35	10236.05
848.5664	951.019	11153.05	10195.4
848.7115	953.0344	11128.15	10168.2
848.8567	955.0491	11115.15	10157.6
849.0018	957.063	11169.05	10209.25
849.147	959.0763	11278.75	10319.55
849.2921	961.0888	11301.45	10341.15
849.4373	963.1007	11367.55	10414.85
849.5824	965.1119	11392.4	10446
849.7275	967.1223	11403.15	10461.8
849.8727	969.1321	11398.45	10457.7
850.0178	971.1412	11397.55	10445.5
850.1629	973.1495	11392.8	10439.1
850.3081	975.1572	11447.9	10445.5
850.4532	977.1641	11445.3	10484.35
850.5983	979.1704	11429.45	10469.25
850.7435	981.1759	11423.55	10462.25
850.8886	983.1808	11424.25	10465
851.0337	985.1849	11480.7	10512.6
851.1788	987.1884	11555.85	10596.3
851.324	989.1911	11669.95	10710.2
851.4691	991.1932	11773.25	10814.15
851.6142	993.1945	11781.8	10826
851.7593	995.1951	11749.8	10792.15
851.9045	997.1951	11754.05	10787.3
852.0496	999.1943	11669.9	10714.2
852.1947	1001.1928	11671.55	10714.7
852.3398	1003.1906	11704.15	10746.2
852.4849	1005.1877	11798.35	10838.1
852.63	1007.1841	11861.8	10904.1
852.7751	1009.1798	11856.05	10900.45
852.9202	1011.1748	11734.85	10778.75
853.0653	1013.1691	11581.7	10624.75
853.2104	1015.1627	11368.15	10415.45
853.3555	1017.1556	11166.3	10212.1
853.5006	1019.1477	11042.75	10092.5
853.6457	1021.1392	10924.55	9976.1
853.7908	1023.1299	10901.45	9957.6
853.9359	1025.12	10898.4	9960.65
854.081	1027.1093	10956.6	10029.7
854.2261	1029.0979	11083.85	10161.85
854.3712	1031.0859	11183.1	10252.2
854.5163	1033.0731	11203.6	10264.6
854.6613	1035.0596	11168.75	10221.3
854.8064	1037.0454	11018.2	10067.9
854.9515	1039.0304	10922.2	9970.75
855.0965	1041.0148	10783.15	9829.15
855.2416	1042.9985	10726.95	9771.45
855.3867	1044.9814	10677.65	9722
855.5317	1046.9636	10610.5	9654.85
855.6768	1048.9452	10588.1	9634.7
855.8219	1050.926	10617.45	9663.3
855.9669	1052.9061	10642.95	9687.85
856.112	1054.8855	10681.4	9726.6
856.257	1056.8642	10716.45	9760.8
856.4021	1058.8421	10765.95	9803.95
856.5471	1060.8194	10801.75	9845.05
856.6921	1062.7959	10831.95	9877.55
856.8372	1064.7717	10885.95	9928.6
856.9822	1066.7469	10950.1	9993.75
857.1272	1068.7213	11002.9	10045.4
857.2723	1070.695	11054.4	10101.05
857.4173	1072.6679	11044.75	10090.75
857.5623	1074.6402	11034.9	10078.3
857.7073	1076.6117	10992.7	10033.35
857.8523	1078.5826	10932	9973.6
857.9973	1080.5527	10854	9891.95
858.1423	1082.5221	10804.35	9848.25
858.2873	1084.4908	10856	9900.1
858.4323	1086.4587	10930.65	9977.2
858.5773	1088.426	11022	10064.75
858.7223	1090.3925	11024.8	10061.5
858.8673	1092.3584	11031	10076
859.0123	1094.3235	10983.1	10030.95
859.1573	1096.2879	11065.85	10111.35
859.3022	1098.2515	11113.95	10162.5
859.4472	1100.2145	11241.2	10286.05
859.5922	1102.1767	11390.25	10431.65
859.7371	1104.1382	11637.95	10685.8
859.8821	1106.099	11864.5	10907.85
860.027	1108.0591	12062.8	11109.7
860.172	1110.0185	12229.05	11270.55
860.3169	1111.9771	12288.6	11334.6
860.4619	1113.9351	12181.25	11229.8
860.6068	1115.8923	12008.5	11053.9
860.7517	1117.8488	11786.4	10831.3
860.8967	1119.8045	11578.95	10623.6
861.0416	1121.7596	11443.8	10489.2
861.1865	1123.7139	11334.95	10382.85
861.3314	1125.6675	11305.45	10351.1
861.4763	1127.6204	11359.15	10407
861.6212	1129.5726	11304.35	10348.75
861.7661	1131.524	11248.6	10298.85
861.911	1133.4748	11142.2	10188.85
862.0559	1135.4248	10989.9	10033.65
862.2008	1137.3741	10894.05	9940.05
862.3457	1139.3226	10801.5	9846.4
862.4905	1141.2705	10747.65	9793
862.6354	1143.2176	10647.15	9687.15
862.7803	1145.164	10639.3	9682.05
862.9251	1147.1097	10583.55	9629.2
863.07	1149.0546	10519.15	9563.7
863.2148	1150.9989	10427.95	9474.85
863.3597	1152.9424	10324.6	9369.6
863.5045	1154.8852	10216.75	9262.15
863.6493	1156.8272	10160.75	9204.15
863.7942	1158.7686	10160.6	9197.7
863.939	1160.7092	10176.05	9219.25
864.0838	1162.6491	10167.75	9214.2
864.2286	1164.5883	10279.15	9326.7
864.3734	1166.5267	10374.15	9418.9
864.5182	1168.4644	10559.85	9606.9
864.663	1170.4014	10709.75	9754.75
864.8078	1172.3377	10976.45	10025.5
864.9526	1174.2732	11263.05	10313.1
865.0974	1176.2081	11648.05	10698.15
865.2421	1178.1421	12060.35	11105.45
865.3869	1180.0755	12497.6	11547.05
865.5317	1182.0082	12808.5	11856.9
865.6764	1183.9401	12944.8	11996.7
865.8212	1185.8713	12839.3	11895.3
865.9659	1187.8017	12509.45	11572.75
866.1106	1189.7315	12161.75	11233.5
866.2554	1191.6605	11766.9	10836.4
866.4001	1193.5888	11523.2	10589.8
866.5448	1195.5163	11370.25	10431.25
866.6895	1197.4432	11302.45	10353.25
866.8342	1199.3693	11233.8	10286.7
866.9789	1201.2947	11234.5	10279.55
867.1236	1203.2193	11212.55	10262.25
867.2683	1205.1432	11196.35	10246.4
867.413	1207.0664	11207.1	10262.05
867.5576	1208.9889	11180.2	10231.8
867.7023	1210.9106	11176.35	10229.05
867.847	1212.8316	11166.9	10222.3
867.9916	1214.7519	11246.15	10288.25
868.1363	1216.6715	11248.4	10300
868.2809	1218.5903	11296.9	10348.1
868.4255	1220.5084	11364.35	10416.9
868.5701	1222.4257	11395.1	10448.45
868.7148	1224.3424	11428.95	10487.4
868.8594	1226.2583	11543.4	10593.7
869.004	1228.1735	11657.05	10709.35
869.1486	1230.0879	11782.3	10833.15
869.2932	1232.0016	11932.2	10983.8
869.4377	1233.9146	12020.65	11072.85
869.5823	1235.8269	12037	11093.15
869.7269	1237.7384	11973.7	11025.1
869.8715	1239.6492	11799.95	10854.55
870.016	1241.5592	11750.95	10800.75
870.1606	1243.4686	11770	10822.05
870.3051	1245.3772	11864.8	10918.75
870.4496	1247.285	12004.75	11056.8
870.5941	1249.1922	12127.55	11179
870.7387	1251.0986	12224.95	11281.05
870.8832	1253.0042	12241.55	11296.25
871.0277	1254.9092	12342.3	11394.85
871.1722	1256.8134	12441.4	11499.4
871.3167	1258.7169	12595.95	11648.3
871.4611	1260.6196	12725.05	11778.5
871.6056	1262.5216	12983.35	12037.2
871.7501	1264.4229	13169.95	12225.3
871.8945	1266.3234	13352.8	12409.45
872.039	1268.2232	13478.15	12532.2
872.1834	1270.1223	13528.5	12580.95
872.3278	1272.0207	13562.55	12614.6
872.4723	1273.9183	13570.75	12616
872.6167	1275.8151	13484	12537.25
872.7611	1277.7113	13436.05	12490.3
872.9055	1279.6067	13440.05	12498.25
873.0499	1281.5014	13601.4	12658.8
873.1943	1283.3953	13842.65	12894.65
873.3386	1285.2885	14176.75	13232.75
873.483	1287.181	14571.1	13628.35
873.6274	1289.0727	14918.4	13977.25
873.7717	1290.9637	15181.45	14237.95
873.9161	1292.854	15375.6	14432.55
874.0604	1294.7435	15386.7	14443.75
874.2047	1296.6323	15364	14419.2
874.349	1298.5204	15310.05	14361.85
874.4933	1300.4077	15233.9	14287.85
874.6376	1302.2943	15168.35	14222.35
874.7819	1304.1802	14934.7	13989.2
874.9262	1306.0653	14558.25	13611.5
875.0705	1307.9497	14194.6	13249.95
875.2147	1309.8333	13845.75	12906.1
875.359	1311.7162	13595.35	12654.65
875.5032	1313.5984	13460.2	12513.4
875.6475	1315.4798	13388.5	12427.3
875.7917	1317.3605	13314.2	12353.55
875.9359	1319.2405	13230.8	12284
876.0801	1321.1197	13062.35	12115
876.2243	1322.9982	12790.45	11842.45
876.3685	1324.876	12573.7	11627.3
876.5127	1326.753	12350.85	11404.15
876.6569	1328.6293	12179.25	11232.05
876.801	1330.5048	12083.85	11137.2
876.9452	1332.3796	11987.25	11042.6
877.0893	1334.2537	11907.15	10940
877.2335	1336.127	11823.05	10881.15
877.3776	1337.9996	11785.75	10838.8
877.5217	1339.8714	11774.15	10829.45
877.6658	1341.7426	11826.1	10837.55
877.8099	1343.6129	11820.35	10872.95
877.954	1345.4826	11753.3	10805.35
878.0981	1347.3515	11786.95	10842.55
878.2422	1349.2196	11774.55	10830.1
878.3862	1351.087	11802.5	10857.65
878.5303	1352.9537	11829.6	10881.1
878.6743	1354.8197	11964.55	11020.1
878.8184	1356.6849	12107.7	11160.35
878.9624	1358.5493	12233.35	11286.7
879.1064	1360.4131	12383.95	11442.45
879.2504	1362.276	12512.35	11568.7
879.3944	1364.1383	12462.05	11520.15
879.5384	1365.9998	12241.85	11292.6
879.6823	1367.8606	11911.8	10966.5
879.8263	1369.7206	11543.4	10594.45
879.9702	1371.5799	11219.35	10269.6
880.1142	1373.4384	10972.3	10027.6
880.2581	1375.2962	10752.4	9807.95
880.402	1377.1533	10444.6	9502.55
880.5459	1379.0096	10102.7	9163.75
880.6898	1380.8652	9775	8836.95
880.8337	1382.7201	9504.5	8563.95
880.9776	1384.5742	9229.05	8288.6
881.1215	1386.4275	9071.85	8127.8
881.2653	1388.2802	8921.85	7979.6
881.4092	1390.132	8801.65	7859.35
881.553	1391.9832	8753.25	7810.3
881.6968	1393.8336	8647.3	7706.3
881.8406	1395.6832	8599	7654.6
881.9844	1397.5322	8564.9	7619.95
882.1282	1399.3803	8544.55	7594.2
882.272	1401.2278	8494.55	7553.75
882.4158	1403.0745	8508.75	7568.45
882.5595	1404.9204	8479.1	7540.4
882.7033	1406.7656	8520.15	7579.55
882.847	1408.6101	8509.15	7565.5
882.9908	1410.4538	8568.1	7628.05
883.1345	1412.2968	8598.8	7654.7
883.2782	1414.139	8640.35	7699.7
883.4219	1415.9805	8725.8	7785.75
883.5656	1417.8213	8806.75	7859.45
883.7092	1419.6613	8905.05	7965.85
883.8529	1421.5006	9051.05	8111.65
883.9965	1423.3391	9257.2	8319.15
884.1402	1425.1769	9537	8593.05
884.2838	1427.0139	9982.9	9040
884.4274	1428.8502	10524.55	9582.95
884.571	1430.6858	11081.45	10144.7
884.7146	1432.5206	11503	10562.1
884.8582	1434.3547	11721.7	10779.65
885.0018	1436.188	11724.05	10786.15
885.1453	1438.0206	11643.45	10703
885.2889	1439.8524	11491.05	10550.9
885.4324	1441.6835	11363.2	10422.4
885.5759	1443.5139	11250.2	10308.35
885.7194	1445.3435	11186.15	10245.7
885.8629	1447.1724	11173.05	10238.45
886.0064	1449.0005	11095	10154.45
886.1499	1450.8279	11020.75	10080.15
886.2933	1452.6545	10990.95	10054.9
886.4368	1454.4804	11055.25	10118.65
886.5802	1456.3056	11010.25	10068.9
886.7237	1458.13	10945.75	10006.2
886.8671	1459.9536	10783.2	9847.3
887.0105	1461.7766	10490	9550.45
887.1539	1463.5987	10130.65	9190.65
887.2972	1465.4202	9795.55	8856.8
887.4406	1467.2409	9451	8512.45
887.584	1469.0608	9162.7	8225.6
887.7273	1470.88	8904.2	7967.45
887.8706	1472.6984	8679.55	7744.95
888.0139	1474.5161	8457.6	7515
888.1572	1476.3331	8308.35	7371.6
888.3005	1478.1493	8190.65	7251.75
888.4438	1479.9648	8113.95	7177.6
888.5871	1481.7795	8014.9	7076.7
888.7303	1483.5935	7934.25	6999.65
888.8736	1485.4067	7875.8	6937.75
889.0168	1487.2192	7849.2	6912.5
889.16	1489.031	7828.4	6887.9
889.3032	1490.842	7750.35	6814.85
889.4464	1492.6522	7728.75	6790.4
889.5896	1494.4618	7686.2	6745.95
889.7327	1496.2705	7665.5	6731.65
889.8759	1498.0785	7597.3	6662.5
890.019	1499.8858	7572.5	6633.4
890.1622	1501.6924	7545.8	6609.3
890.3053	1503.4981	7505.3	6568.55
890.4484	1505.3032	7473.4	6537.1
890.5914	1507.1075	7422.45	6486.65
890.7345	1508.911	7384.1	6448.15
890.8776	1510.7138	7352.35	6416.8
891.0206	1512.5159	7292.45	6358.3
891.1637	1514.3172	7251.05	6318.35
891.3067	1516.1178	7206.8	6271.65
891.4497	1517.9176	7185.5	6247.95
891.5927	1519.7166	7129.85	6196.05
891.7357	1521.515	7104.6	6164.35
891.8786	1523.3126	7098.15	6162.75
892.0216	1525.1094	7065.85	6132.9
892.1645	1526.9055	7036.5	6106.05
892.3074	1528.7008	6983.4	6051.65
892.4503	1530.4954	6956.5	6025.15
892.5932	1532.2893	6939.95	6009
892.7361	1534.0824	6928.75	5995.15
892.879	1535.8747	6921.45	5992.9
893.0218	1537.6663	6911.2	5980.95
893.1647	1539.4572	6922.05	5992.45
893.3075	1541.2473	6917	5985.8
893.4503	1543.0367	6902.85	5974.55
893.5931	1544.8253	6895.9	5958.9
893.7359	1546.6132	6950.25	6018.2
893.8787	1548.4003	6954.15	6015.4
894.0214	1550.1867	6988.25	6052.05
894.1642	1551.9723	7049.4	6120.5
894.3069	1553.7572	7122.45	6194.25
894.4496	1555.5414	7216.55	6289.3
894.5923	1557.3247	7340.05	6417.95
894.735	1559.1074	7471.6	6548.9
894.8777	1560.8893	7607.25	6684.8
895.0204	1562.6705	7728.3	6805.1
895.163	1564.4509	7820.4	6898.6
895.3056	1566.2305	7902.45	6984.5
895.4482	1568.0094	7945.65	7029.15
895.5908	1569.7876	7969.8	7047.2
895.7334	1571.565	7952.35	7029.85
895.876	1573.3417	7969.95	7044.7
896.0186	1575.1176	7920.5	7000.65
896.1611	1576.8928	7908	6990.95
896.3036	1578.6672	7870.35	6955.9
896.4461	1580.4409	7843.25	6933.4
896.5886	1582.2138	7832.1	6916.55
896.7311	1583.986	7845.95	6931.2
896.8736	1585.7575	7896.85	6980.85
897.0161	1587.5282	7895.25	6980.05
897.1585	1589.2981	7967.25	7056.55
897.3009	1591.0673	8029.05	7119.15
897.4433	1592.8358	8106.85	7193.65
897.5857	1594.6035	8200.25	7283.75
897.7281	1596.3704	8270.3	7351.75
897.8705	1598.1366	8380.5	7467.25
898.0128	1599.9021	8433.7	7518.15
898.1551	1601.6668	8512.55	7599.2
898.2975	1603.4308	8657.9	7738.5
898.4398	1605.194	8837.85	7921.1
898.5821	1606.9564	8993.85	8088.2
898.7243	1608.7182	9235.25	8329.05
898.8666	1610.4791	9490	8587.95
899.0088	1612.2394	9744.15	8845.75
899.1511	1613.9988	10027	9123.75
899.2933	1615.7576	10296.75	9388.3
899.4355	1617.5156	10493	9570.35
899.5776	1619.2728	10578.05	9658.65
899.7198	1621.0293	10567.15	9654.3
899.862	1622.785	10416.6	9503.5
900.0041	1624.54	10156.6	9243.65
900.1462	1626.2942	9865.85	8960
900.2883	1628.0477	9497.25	8587
900.4304	1629.8005	9183.75	8270.05
900.5725	1631.5525	8900.7	7992.3
900.7145	1633.3037	8656.9	7749.3
900.8566	1635.0542	8478.05	7569.15
900.9986	1636.804	8321	7413.25
901.1406	1638.553	8294.55	7298.3
901.2826	1640.3013	8199.75	7291.3
901.4245	1642.0488	8126.5	7216.4
901.5665	1643.7955	8150.75	7247.9
901.7085	1645.5416	8239.65	7333.1
901.8504	1647.2868	8334.65	7429.4
901.9923	1649.0313	8444.15	7533.05
902.1342	1650.7751	8603.1	7695.05
902.2761	1652.5181	8753.65	7847.6
902.4179	1654.2604	8916.35	8011.2
902.5598	1656.0019	9172.05	8268
902.7016	1657.7427	9398.1	8493
902.8434	1659.4828	9668.85	8759.1
902.9852	1661.222	9854	8944.85
903.127	1662.9606	9816.05	8908.65
903.2687	1664.6984	9572.25	8659.45
903.4105	1666.4354	9150.45	8237.3
903.5522	1668.1717	8592.15	7679.05
903.6939	1669.9072	8055.3	7142.15
903.8356	1671.642	7572.6	6658.8
903.9773	1673.3761	7153.55	6243.75
904.119	1675.1094	6854.85	5949.85
904.2606	1676.8419	6606.8	5698.55
904.4022	1678.5737	6416.8	5506.55
904.5439	1680.3048	6265.75	5353.9
904.6855	1682.0351	6125.65	5214.9
904.827	1683.7646	5994.55	5081.4
904.9686	1685.4934	5945	5034.8
905.1101	1687.2215	5850.1	4942.6
905.2517	1688.9488	5772.35	4868.25
905.3932	1690.6754	5715.25	4809.25
905.5347	1692.4012	5680.2	4772.25
905.6761	1694.1263	5621.05	4708.95
905.8176	1695.8506	5585.45	4676.85
905.9591	1697.5742	5549.3	4645.95
906.1005	1699.297	5503.4	4603.8
906.2419	1701.0191	5456.7	4555.45
906.3833	1702.7404	5403.05	4502.45
906.5246	1704.461	5380.75	4476.15
906.666	1706.1808	5355.9	4449.75
906.8073	1707.8999	5326.9	4423.7
906.9487	1709.6182	5291.2	4394.55
907.09	1711.3358	5260	4362.45
907.2313	1713.0527	5245.55	4348.25
907.3725	1714.7688	5217.9	4310.65
907.5138	1716.4841	5193.45	4288
907.655	1718.1987	5174.3	4263.85
907.7962	1719.9126	5161.1	4261.15
907.9374	1721.6257	5115.4	4215.15
908.0786	1723.338	5120.95	4222.35
908.2198	1725.0496	5092.45	4191.9
908.3609	1726.7605	5082.5	4179.35
908.502	1728.4706	5075	4172.05
908.6431	1730.18	5028.75	4128.6
908.7842	1731.8886	5030	4131.15
908.9253	1733.5964	5030.8	4110.05
909.0664	1735.3036	5005.9	4104.25
909.2074	1737.0099	4970.05	4070.45
909.3484	1738.7156	4953.7	4058.8
909.4894	1740.4204	4935.9	4035.5
909.6304	1742.1246	4899.75	3998.95
909.7714	1743.8279	4882.45	3984.5
909.9123	1745.5306	4864.1	3964.4
910.0532	1747.2325	4833.4	3936.85
910.1941	1748.9336	4839.2	3941.25
910.335	1750.634	4795.15	3893.7
910.4759	1752.3336	4799	3900.35
910.6168	1754.0325	4781.7	3888.6
910.7576	1755.7307	4773	3877.2
910.8984	1757.4281	4760.35	3862.85
911.0392	1759.1247	4744.8	3839.2
911.18	1760.8206	4742.15	3837.85
911.3208	1762.5158	4744.15	3839
911.4615	1764.2102	4707.7	3806.35
911.6022	1765.9039	4695.15	3797.75
911.7429	1767.5968	4683.75	3788.5
911.8836	1769.289	4670.25	3775.2
912.0243	1770.9804	4651.85	3754.35
912.1649	1772.6711	4646.45	3742.2
912.3056	1774.361	4652.2	3748.3
912.4462	1776.0502	4625.3	3723.4
912.5868	1777.7386	4629.1	3724.4
912.7274	1779.4263	4607.15	3708.15
912.8679	1781.1132	4593.15	3699.25
913.0084	1782.7994	4591.75	3697.05
913.149	1784.4849	4565.75	3671.75
913.2895	1786.1696	4572.35	3657.85
913.4299	1787.8535	4565.65	3673.8
913.5704	1789.5367	4548.6	3657
913.7108	1791.2192	4541.4	3645.95
913.8513	1792.9009	4557.2	3637.85
913.9917	1794.5818	4526.6	3624.75
914.132	1796.2621	4507.35	3608.35
914.2724	1797.9415	4489.8	3591.9
914.4128	1799.6202	4477.1	3577.95
914.5531	1801.2982	4477.65	3579.35
914.6934	1802.9755	4459.4	3557.8
914.8337	1804.6519	4464.75	3566.85
914.9739	1806.3277	4446.35	3549.25
915.1142	1808.0027	4440.6	3546.85
915.2544	1809.6769	4419.25	3527.55
915.3946	1811.3504	4411.95	3521.45
915.5348	1813.0231	4398.15	3507.95
915.675	1814.6951	4402.6	3506.7
915.8151	1816.3664	4410.5	3511.35
915.9553	1818.0369	4389.4	3490.5
916.0954	1819.7067	4379.2	3482.6
916.2355	1821.3757	4370.25	3470.15
916.3755	1823.044	4357.45	3458.85
916.5156	1824.7115	4360.7	3460.75
916.6556	1826.3783	4347.2	3449.85
916.7956	1828.0443	4335.8	3440.3
916.9356	1829.7096	4324.15	3427.1
917.0756	1831.3741	4317.25	3418.95
917.2155	1833.0379	4300.9	3407.25
917.3555	1834.701	4292.45	3397
917.4954	1836.3633	4281.05	3387.8
917.6353	1838.0248	4260.85	3366.1
917.7751	1839.6856	4274.1	3378.85
917.915	1841.3457	4265.8	3371.05
918.0548	1843.005	4261.75	3365.15
918.1946	1844.6636	4246.1	3351.3
918.3344	1846.3214	4254.55	3359.55
918.4742	1847.9785	4254.8	3360.65
918.6139	1849.6349	4234.8	3334.1
918.7537	1851.2904	4234.9	3326.6
918.8934	1852.9453	4213.25	3315.25
919.0331	1854.5994	4213.95	3311.2
919.1727	1856.2528	4220.1	3318.75
919.3124	1857.9054	4203.9	3305.5
919.452	1859.5572	4194.25	3302.35
919.5916	1861.2083	4185.1	3287.95
919.7312	1862.8587	4182	3282.35
919.8708	1864.5084	4186.1	3289.05
920.0103	1866.1572	4162.4	3261.95
920.1498	1867.8054	4149	3247.05
920.2893	1869.4528	4140.6	3242.15
920.4288	1871.0994	4136.05	3236.2
920.5683	1872.7453	4126.05	3226.85
920.7077	1874.3905	4126.4	3222.35
920.8471	1876.0349	4106.05	3210.05
920.9865	1877.6786	4097.05	3197.2
921.1259	1879.3215	4098.65	3203.95
921.2653	1880.9637	4085.15	3188.4
921.4046	1882.6051	4092.6	3197.35
921.5439	1884.2458	4087.4	3188.3
921.6832	1885.8858	4068.1	3172.95
921.8225	1887.525	4041.35	3142.65
921.9617	1889.1634	4040.85	3143
922.101	1890.8011	4027.65	3128.6
922.2402	1892.4381	4031.45	3132.7
922.3794	1894.0743	4018.7	3121.55
922.5185	1895.7098	4006.85	3109.6
922.6577	1897.3446	3988.4	3091.05
922.7968	1898.9786	4007.3	3107.65
922.9359	1900.6118	3988.7	3094.75
923.075	1902.2443	3966.05	3072
923.214	1903.8761	3963.25	3066
923.3531	1905.5071	3947.8	3052.35
923.4921	1907.1374	3935.6	3038.9
923.6311	1908.7669	3934.2	3039.8
923.77	1910.3957	3935.8	3039.45
923.909	1912.0237	3917	3023.05
924.0479	1913.651	3908.2	3011.15
924.1868	1915.2776	3899.4	3005.7
924.3257	1916.9034	3878.15	2984.3
924.4646	1918.5285	3846.8	2954.85
924.6034	1920.1528	3865.45	2971.9
924.7422	1921.7764	3850.6	2954.35
924.881	1923.3992	3843.5	2947.8
925.0198	1925.0213	3822.3	2926.6
925.1586	1926.6427	3815.2	2919.4
925.2973	1928.2633	3864.9	2889.55
925.436	1929.8832	3798.5	2900.8
925.5747	1931.5023	3781.95	2888.1
925.7134	1933.1207	3770.7	2873.65
925.852	1934.7383	3766.9	2872.25
925.9906	1936.3552	3750.75	2859.5
926.1292	1937.9714	3745.3	2851.6
926.2678	1939.5868	3743.5	2848.15
926.4064	1941.2015	3729.05	2830.75
926.5449	1942.8154	3713.5	2817.05
926.6834	1944.4286	3706.4	2808.4
926.8219	1946.041	3710.95	2798.5
926.9604	1947.6528	3688.3	2789.4
927.0988	1949.2637	3672	2776.15
927.2372	1950.8739	3656.35	2762.3
927.3756	1952.4834	3656.5	2763.25
927.514	1954.0921	3663.7	2768.5
927.6523	1955.7001	3643.65	2745.15
927.7907	1957.3074	3619.05	2727.85
927.929	1958.9139	3605.9	2717.85
928.0673	1960.5197	3602.3	2711.15
928.2055	1962.1247	3594.25	2703.35
928.3438	1963.729	3590.95	2702.25
928.482	1965.3325	3576.9	2681.7
928.6202	1966.9353	3555.3	2665.3
928.7584	1968.5374	3549.9	2659.15
928.8965	1970.1387	3555.8	2665.55
929.0346	1971.7393	3523.8	2631.45
929.1727	1973.3392	3524.85	2635.15
929.3108	1974.9383	3514.55	2625.35
929.4489	1976.5366	3501.4	2611.6
929.5869	1978.1342	3504.9	2617.35
929.7249	1979.7311	3498.65	2612.05
929.8629	1981.3273	3482.6	2598.7
930.0009	1982.9227	3469.4	2579.5
930.1388	1984.5173	3469.55	2583.5
930.2767	1986.1112	3446.95	2560.65
930.4146	1987.7044	3458.35	2572.15
930.5525	1989.2968	3441.2	2554.5
930.6904	1990.8885	3446.2	2555.9
930.8282	1992.4795	3437.45	2552.5
930.966	1994.0697	3414.95	2531.65
931.1038	1995.6592	3412.75	2525
931.2415	1997.2479	3399.7	2511.7
931.3793	1998.8359	3391.6	2503.65
931.517	2000.4232	3387.65	2506.9
931.6547	2002.0097	3375.8	2497.45
931.7923	2003.5955	3360.35	2476.9
931.93	2005.1805	3380.6	2496.6
932.0676	2006.7648	3364.05	2480.15
932.2052	2008.3484	3347.4	2462.85
932.3427	2009.9312	3349.55	2464.7
932.4803	2011.5133	3327.45	2447.65
932.6178	2013.0946	3332.95	2450.95
932.7553	2014.6752	3323.25	2442.1
932.8928	2016.2551	3306.1	2421.5
933.0302	2017.8342	3306.75	2424.05
933.1676	2019.4126	3304.35	2423.75
933.305	2020.9902	3278.95	2398.8
933.4424	2022.5672	3281.6	2402.25
933.5798	2024.1433	3288.4	2403.15
933.7171	2025.7188	3264.8	2387.6
933.8544	2027.2935	3252.6	2373.95
933.9917	2028.8674	3246	2366.45
934.129	2030.4406	3248.9	2369.25
934.2662	2032.0131	3213.55	2334.35
934.4034	2033.5849	3216.25	2334.65
934.5406	2035.1559	3217.35	2337.7
934.6778	2036.7261	3227.85	2343
934.8149	2038.2957	3213.95	2326.9
934.952	2039.8645	3213.8	2327.25
935.0891	2041.4325	3220.5	2329.45
935.2262	2042.9998	3201.4	2319.15
935.3632	2044.5664	3194.5	2311.75
935.5002	2046.1323	3172.7	2293.1
935.6372	2047.6974	3175.35	2295.85
935.7742	2049.2617	3163	2283.3
935.9111	2050.8254	3191.55	2289.05
936.048	2052.3883	3178.8	2292.85
936.1849	2053.9504	3160.2	2273.65
936.3218	2055.5118	3155.75	2270.1
936.4586	2057.0725	3139.6	2252.4
936.5955	2058.6325	3139.05	2255.9
936.7323	2060.1917	3125.7	2246.25
936.869	2061.7502	3134.2	2251.3
937.0058	2063.3079	3115.4	2237.3
937.1425	2064.8649	3104.95	2222.35
937.2792	2066.4212	3103.35	2221.25
937.4159	2067.9767	3104.9	2221.35
937.5525	2069.5315	3091.45	2206.65
937.6891	2071.0856	3068.1	2184.95
937.8257	2072.6389	3072.8	2189.3
937.9623	2074.1915	3048.95	2170.9
938.0989	2075.7433	3053.55	2170.75
938.2354	2077.2945	3051	2167.8
938.3719	2078.8448	3045.6	2160.8
938.5084	2080.3945	3038.4	2155.45
938.6448	2081.9434	3024.35	2139.35
938.7812	2083.4916	3022.85	2135.15
938.9176	2085.039	3028.15	2136.65
939.054	2086.5857	3008.8	2115.3
939.1903	2088.1317	3025.15	2132.9
939.3267	2089.677	3006.65	2114.1
939.463	2091.2215	2999.95	2108.5
939.5992	2092.7652	2993.55	2098.95
939.7355	2094.3083	2984.1	2091.95
939.8717	2095.8506	2977.05	2090
940.0079	2097.3921	2980.9	2094.95
940.1441	2098.933	2970.6	2084.35
940.2802	2100.4731	2976.85	2086.35
940.4163	2102.0124	2973.1	2077.35
940.5524	2103.5511	2958.05	2069
940.6885	2105.089	2946.65	2058.85
940.8245	2106.6261	2950.4	2061.7
940.9606	2108.1626	2934.4	2048.1
941.0965	2109.6983	2955	2041.95
941.2325	2111.2332	2944.65	2055.9
941.3684	2112.7675	2932.1	2041.15
941.5044	2114.301	2914.15	2024.65
941.6403	2115.8337	2933.7	2044.85
941.7761	2117.3657	2909.45	2022.85
941.912	2118.897	2905.5	2016.8
942.0478	2120.4276	2895.6	2000.9
942.1835	2121.9575	2883.35	1996.1
942.3193	2123.4866	2894.7	2003.6
942.455	2125.0149	2880.4	1991
942.5907	2126.5426	2868.95	1984.3
942.7264	2128.0695	2870.75	1983.5
942.8621	2129.5956	2844.4	1964.4
942.9977	2131.1211	2853.5	1965.35
943.1333	2132.6458	2854	1968.45
943.2689	2134.1698	2850.85	1961.4
943.4044	2135.693	2850.9	1956.35
943.54	2137.2155	2832.5	1940.85
943.6755	2138.7373	2835.8	1946.55
943.8109	2140.2584	2818.7	1934
943.9464	2141.7787	2811.15	1924.15
944.0818	2143.2983	2800.75	1921.15
944.2172	2144.8171	2796.7	1918.4
944.3526	2146.3353	2785.05	1900.8
944.4879	2147.8527	2781.1	1895.95
944.6232	2149.3693	2802.4	1915.85
944.7585	2150.8853	2795.6	1907.35
944.8938	2152.4005	2781.9	1891.95
945.029	2153.9149	2772.65	1881.55
945.1642	2155.4287	2777.1	1885.85
945.2994	2156.9417	2775.9	1883.95
945.4346	2158.454	2758.5	1871.5
945.5697	2159.9655	2734.7	1851.4
945.7048	2161.4764	2749.9	1864.8
945.8399	2162.9865	2736.4	1849.7
945.9749	2164.4958	2726.5	1842.8
946.1099	2166.0045	2728.65	1842.2
946.2449	2167.5124	2715.6	1831.15
946.3799	2169.0195	2731.35	1845.05
946.5148	2170.526	2721.55	1831.05
946.6498	2172.0317	2711.35	1821.3
946.7846	2173.5367	2708.75	1820.55
946.9195	2175.0409	2700.75	1814.3
947.0543	2176.5445	2703.4	1816.9
947.1891	2178.0473	2685.65	1795.55
947.3239	2179.5494	2689.05	1797.9
947.4587	2181.0507	2675.35	1785.9
947.5934	2182.5513	2691.55	1803.05
947.7281	2184.0512	2668.35	1779.6
947.8628	2185.5504	2670.75	1781.8
947.9974	2187.0488	2645.1	1759.5
948.132	2188.5465	2658.6	1774.95
948.2666	2190.0435	2644.8	1758.3
948.4012	2191.5397	2652.3	1762.5
948.5357	2193.0353	2647.75	1757.1
948.6702	2194.5301	2633.8	1742.45
948.8047	2196.0241	2635.95	1742.55
948.9392	2197.5175	2630.3	1734.45
949.0736	2199.0101	2633.35	1738.25
949.208	2200.502	2608.35	1719.75
949.3424	2201.9931	2606.85	1723.45
949.4767	2203.4835	2591.25	1706.05
949.611	2204.9733	2597.85	1707.95
949.7453	2206.4622	2581.95	1697.75
949.8796	2207.9505	2583.15	1696.15
950.0138	2209.438	2569.95	1687.85
950.148	2210.9248	2566.2	1683.05
950.2822	2212.4109	2562.5	1677.15
950.4164	2213.8962	2567.35	1677.45
950.5505	2215.3809	2564	1670.4
950.6846	2216.8648	2552.15	1658.1
950.8186	2218.3479	2548.1	1649.7
950.9527	2219.8304	2541.55	1643.1
951.0867	2221.3121	2535.7	1639.9
951.2207	2222.7931	2528.9	1636.9
951.3546	2224.2733	2530.05	1637.8
951.4886	2225.7529	2511	1620.8
951.6225	2227.2317	2514.2	1624.85
951.7563	2228.7098	2503.8	1617.45
951.8902	2230.1872	2490.85	1603.45
952.024	2231.6638	2503.3	1621.25
952.1578	2233.1397	2482.05	1593.5
952.2916	2234.6149	2482.15	1596.85
952.4253	2236.0894	2480.9	1596.05
952.559	2237.5632	2483.2	1583.45
952.6927	2239.0362	2471.9	1584.85
952.8263	2240.5085	2465.3	1578.8
952.9599	2241.9801	2456.1	1566.75
953.0935	2243.4509	2460.6	1569.85
953.2271	2244.921	2453.4	1561.5
953.3606	2246.3904	2455.95	1560.35
953.4941	2247.8591	2434	1544.85
953.6276	2249.3271	2438.15	1546.6
953.7611	2250.7943	2430.25	1538.8
953.8945	2252.2608	2423.75	1534.8
954.0279	2253.7266	2417.15	1527.25
954.1612	2255.1917	2414.7	1528.25
954.2946	2256.656	2404.25	1515.25
954.4279	2258.1197	2402.55	1516.45
954.5612	2259.5826	2394.9	1506.3
954.6944	2261.0447	2395.35	1507.15
954.8276	2262.5062	2390.15	1498.05
954.9608	2263.9669	2385.4	1493.05
955.094	2265.4269	2392.7	1503.5
955.2271	2266.8862	2378.1	1491.4
955.3602	2268.3448	2370.9	1485.25
955.4933	2269.8026	2367.75	1482.25
955.6264	2271.2598	2363.4	1476.8
955.7594	2272.7162	2365.1	1480.1
955.8924	2274.1719	2363.2	1472.25
956.0253	2275.6268	2354.35	1463.7
956.1583	2277.0811	2356.25	1465
956.2912	2278.5346	2342.6	1455.3
956.4241	2279.9874	2354.15	1468.25
956.5569	2281.4395	2329.8	1445.9
956.6897	2282.8908	2343.9	1452.45
956.8225	2284.3414	2334.35	1440.55
956.9553	2285.7914	2328.6	1442.2
957.088	2287.2406	2326.65	1434.25
957.2207	2288.689	2328.55	1436.7
957.3534	2290.1368	2326.3	1431.4
957.486	2291.5838	2322.5	1428.1
957.6186	2293.0302	2310	1413.8
957.7512	2294.4758	2298.95	1405.15
957.8838	2295.9206	2305.55	1413.75
958.0163	2297.3648	2307.8	1422.15
958.1488	2298.8082	2298.55	1408.3
958.2813	2300.251	2288.85	1397.95
958.4137	2301.693	2286.3	1391.5
958.5461	2303.1343	2300.4	1408.85
958.6785	2304.5748	2288.7	1399.35
958.8108	2306.0147	2278.1	1389.45
958.9432	2307.4538	2277.65	1388.2
959.0754	2308.8922	2266.15	1382.7
959.2077	2310.3299	2274.1	1388.1
959.3399	2311.7669	2254.95	1369.5
959.4721	2313.2031	2255.55	1366.8
959.6043	2314.6387	2255.65	1366.4
959.7365	2316.0735	2246.75	1355.85
959.8686	2317.5076	2251.8	1362.5
960.0006	2318.941	2241	1350.5
960.1327	2320.3737	2234.1	1338.9
960.2647	2321.8056	2234.9	1342.15
960.3967	2323.2369	2223.1	1331.15
960.5287	2324.6674	2236.35	1344.95
960.6606	2326.0972	2224.35	1331.25
960.7925	2327.5263	2224.35	1333.55
960.9244	2328.9547	2219.4	1328.75
961.0562	2330.3823	2210.45	1317.85
961.1881	2331.8092	2214.1	1317
961.3198	2333.2355	2198.3	1305.7
961.4516	2334.661	2198.65	1304.3
961.5833	2336.0858	2195.5	1301.35
961.715	2337.5098	2188.45	1297.9
961.8467	2338.9332	2186.2	1294.85
961.9783	2340.3558	2190.5	1298.5
962.1099	2341.7778	2174.95	1286.45
962.2415	2343.199	2181.4	1292.8
962.373	2344.6195	2175.45	1287.3
962.5045	2346.0393	2173.6	1285.45
962.636	2347.4583	2178.7	1287.65
962.7675	2348.8767	2173.35	1280.5
962.8989	2350.2943	2165.3	1272.9
963.0303	2351.7113	2171.95	1276.35
963.1617	2353.1275	2167.65	1274.15
963.293	2354.543	2165.45	1265.85
963.4243	2355.9578	2147.1	1256.9
963.5556	2357.3718	2137.2	1249.2
963.6868	2358.7852	2145.85	1257.55
963.818	2360.1978	2137.7	1248.4
963.9492	2361.6098	2122.25	1235.2
964.0803	2363.021	2141.3	1245.85
964.2114	2364.4315	2131.55	1240.95
964.3425	2365.8413	2123.2	1234.4
964.4736	2367.2504	2120.35	1233.6
964.6046	2368.6587	2113.05	1226.25
964.7356	2370.0664	2118.85	1230.75
964.8666	2371.4733	2106.6	1216.7
964.9975	2372.8795	2100.3	1212.2
965.1284	2374.285	2103.65	1215.1
965.2593	2375.6899	2095.5	1205.4
965.3901	2377.0939	2092.55	1205.1
965.5209	2378.4973	2094	1206
965.6517	2379.9	2087.35	1197.65
965.7825	2381.3019	2084.15	1196.4
965.9132	2382.7032	2074.1	1186.25
966.0439	2384.1037	2066.5	1180.75
966.1745	2385.5035	2061.15	1176.45
966.3051	2386.9027	2057.85	1171.65
966.4357	2388.3011	2065.5	1177.45
966.5663	2389.6987	2069.25	1183.5
966.6968	2391.0957	2052.6	1164.65
966.8273	2392.492	2045.25	1159.45
966.9578	2393.8876	2035.05	1145.55
967.0882	2395.2824	2033.85	1145.25
967.2186	2396.6765	2019.35	1131.25
967.349	2398.07	2024.85	1138.25
967.4793	2399.4627	2027.95	1137.6
967.6097	2400.8547	2026.7	1136.15
967.7399	2402.246	2025.95	1131.25
967.8702	2403.6366	2018.95	1130.6
968.0004	2405.0265	1999.9	1113.95
968.1306	2406.4156	2005.8	1114.85
968.2607	2407.8041	2005.1	1113.15
968.3909	2409.1918	1999.85	1109.9
968.521	2410.5789	1997.4	1108.5
968.651	2411.9652	1999.45	1105.3
968.781	2413.3508	1993.85	1105.9
968.911	2414.7358	1987.5	1098.4
969.041	2416.12	1979.15	1091.85
969.1709	2417.5035	1975.7	1086
969.3008	2418.8863	1976	1086.95
969.4307	2420.2684	1978.05	1089
969.5606	2421.6497	1967.7	1078.25
969.6904	2423.0304	1964.65	1077.85
969.8201	2424.4104	1964.65	1075.8
969.9499	2425.7896	1963.7	1075
970.0796	2427.1682	1958.3	1070.5
970.2093	2428.546	1952.8	1064.55
970.3389	2429.9232	1948.75	1056.45
970.4685	2431.2996	1941.15	1051.9
970.5981	2432.6753	1945	1055.65
970.7277	2434.0503	1943	1051.8
970.8572	2435.4246	1942.2	1055.15
970.9867	2436.7982	1940.25	1048.8
971.1161	2438.1711	1930.65	1041.25
971.2456	2439.5433	1929.95	1039.1
971.375	2440.9148	1921.7	1027.8
971.5043	2442.2856	1914.15	1026.55
971.6336	2443.6557	1915.55	1027.45
971.7629	2445.025	1915.45	1027.25
971.8922	2446.3937	1912.9	1022.5
972.0214	2447.7617	1909.8	1018.8
972.1506	2449.1289	1901.35	1012.75
972.2798	2450.4955	1904.75	1011.95
972.4089	2451.8613	1899.75	1012.95
972.538	2453.2265	1899.55	1010.9
972.6671	2454.5909	1898.1	1009.75
972.7961	2455.9546	1894.5	1005.3
972.9251	2457.3177	1883.75	993.75
973.0541	2458.68	1876.85	986.95
973.1831	2460.0416	1878.9	988.65
973.312	2461.4025	1888.6	999
973.4408	2462.7627	1892.15	994.5
973.5697	2464.1222	1879.75	991.75
973.6985	2465.4811	1868.15	980.85
973.8273	2466.8392	1874.15	987.05
973.956	2468.1966	1866.15	977.15
974.0847	2469.5533	1871.95	981.55
974.2134	2470.9093	1873.9	985.5
974.3421	2472.2645	1860.2	970.55
974.4707	2473.6191	1859.8	970.9
974.5993	2474.973	1854.75	965.75
974.7278	2476.3262	1854.9	963.9
974.8563	2477.6787	1845.5	960.2
974.9848	2479.0305	1837.4	949.9
975.1132	2480.3816	1850.8	961.35
975.2417	2481.7319	1844.65	956.8
975.37	2483.0816	1843.6	954.65
975.4984	2484.4306	1829.8	942.15
975.6267	2485.7789	1829.85	942.45
975.755	2487.1264	1825.25	938
975.8833	2488.4733	1826.75	938.05
976.0115	2489.8195	1835.05	941.3
976.1397	2491.165	1819.65	929.7
976.2678	2492.5097	1818.85	931
976.3959	2493.8538	1809.65	924.2
976.524	2495.1972	1811.95	925.7
976.6521	2496.5398	1801.65	912.75
976.7801	2497.8818	1804.75	914.8
976.9081	2499.2231	1799.25	910.25
977.036	2500.5637	1798.2	904.3
977.164	2501.9035	1800.65	912
977.2918	2503.2427	1788.7	895.6
977.4197	2504.5812	1792.35	904.55
977.5475	2505.919	1791.85	900.9
977.6753	2507.256	1782.75	892.35
977.8031	2508.5924	1778.45	890.4
977.9308	2509.9281	1783.05	891.6
978.0585	2511.2631	1778.75	893.4
978.1861	2512.5974	1777.35	889.3
978.3137	2513.9309	1771.8	883.15
978.4413	2515.2638	1793.7	877.25
978.5689	2516.596	1774.6	884.45
978.6964	2517.9275	1759.35	869.3
978.8239	2519.2583	1760.1	870.15
978.9513	2520.5884	1762.25	874.35
979.0788	2521.9178	1751.3	860.8
979.2062	2523.2465	1756.55	870.8
979.3335	2524.5745	1749.45	863.95
979.4608	2525.9018	1746.95	859.65
979.5881	2527.2284	1755.05	867.05
979.7154	2528.5543	1748.55	861.8
979.8426	2529.8796	1743.15	855.35
979.9698	2531.2041	1736.8	848.5
980.0969	2532.5279	1739.45	854
980.224	2533.851	1736.5	848.3
980.3511	2535.1735	1733.65	846.8
980.4781	2536.4952	1736.85	850.1
980.6052	2537.8163	1742.05	852.45
980.7321	2539.1366	1726.3	838.8
980.8591	2540.4562	1732.8	841.2
980.986	2541.7752	1739.35	848.9
981.1129	2543.0935	1731.35	841.15
981.2397	2544.411	1725.25	832.5
981.3665	2545.7279	1716.9	827.8
981.4933	2547.0441	1720.95	831.75
981.62	2548.3596	1729.55	837.6
981.7467	2549.6744	1723.85	835.85
981.8734	2550.9885	1713.3	822.2
982.0001	2552.3019	1716.2	826.35
982.1267	2553.6146	1710.35	821.75
982.2532	2554.9266	1711.45	821.5
982.3798	2556.2379	1696.25	806.15
982.5063	2557.5485	1701.55	813.8
982.6327	2558.8585	1704.6	810.8
982.7592	2560.1677	1706.05	813.65
982.8856	2561.4762	1703.05	813.6
983.0119	2562.7841	1704.05	812.25
983.1383	2564.0913	1694.15	806.1
983.2646	2565.3977	1692.95	806.6
983.3908	2566.7035	1691.55	801.8
983.517	2568.0086	1704.9	814.3
983.6432	2569.313	1690.15	799.5
983.7694	2570.6167	1688.2	794.95
983.8955	2571.9197	1693.05	803.65
984.0216	2573.222	1691.75	799.25
984.1476	2574.5236	1680.45	789.55
984.2737	2575.8246	1682.5	790.2
984.3996	2577.1248	1691.55	799.5
984.5256	2578.4244	1690	801.05
984.6515	2579.7232	1674.45	785.5
984.7774	2581.0214	1701.25	787.7
984.9032	2582.3189	1678.4	789.4
985.029	2583.6157	1689.75	797.05
985.1548	2584.9118	1683.55	795.05
985.2806	2586.2072	1677.05	787.15
985.4063	2587.5019	1676.7	787.75
985.5319	2588.7959	1678.3	788.35
985.6576	2590.0893	1682.05	794.1
985.7832	2591.3819	1670.3	780.9
985.9087	2592.6739	1674.7	786.05
986.0343	2593.9652	1681.9	790.5
986.1597	2595.2557	1680.9	789.3
986.2852	2596.5456	1678.1	788
986.4106	2597.8348	1674.25	786.05
986.536	2599.1234	1672.45	784.7
986.6614	2600.4112	1680.25	791.75
986.7867	2601.6983	1670.8	780.05
986.912	2602.9848	1665.35	775.75
987.0372	2604.2705	1667.35	773.85
987.1624	2605.5556	1670.65	782.25
987.2876	2606.84	1666.9	779.2
987.4128	2608.1237	1663.9	772.95
987.5379	2609.4067	1650.65	763.5
987.6629	2610.689	1659.8	763.55
987.788	2611.9707	1662.65	770.6
987.913	2613.2516	1644.85	753.55
988.0379	2614.5319	1645.1	758.65
988.1629	2615.8115	1643.7	754.6
988.2878	2617.0903	1636.2	748.1
988.4126	2618.3685	1637.6	749.2
988.5375	2619.6461	1634.85	747.55
988.6622	2620.9229	1637.35	749.85
988.787	2622.199	1628.75	739.25
988.9117	2623.4745	1627.6	740.95
989.0364	2624.7493	1635.55	749.05
989.161	2626.0234	1622.6	737.45
989.2857	2627.2968	1624.25	735.8
989.4102	2628.5695	1618.25	729.65
989.5348	2629.8415	1631.2	744.75
989.6593	2631.1128	1624.9	735.85
989.7837	2632.3835	1621.65	734.05
989.9082	2633.6535	1614.6	730.05
990.0326	2634.9228	1611.5	724.55
990.1569	2636.1914	1602.5	716.55
990.2812	2637.4593	1615.15	727.95
990.4055	2638.7265	1604.25	715.7
990.5298	2639.9931	1603.45	715.7
990.654	2641.259	1609.9	720.75
990.7782	2642.5242	1603.85	717.95
990.9023	2643.7887	1603.55	716.85
991.0264	2645.0525	1602.55	715.25
991.1505	2646.3156	1598.45	710.8
991.2745	2647.5781	1594.05	709.05
991.3985	2648.8398	1583.55	696.7
991.5225	2650.1009	1627.9	705.65
991.6464	2651.3613	1587.75	699.95
991.7703	2652.6211	1588.35	700.35
991.8942	2653.8801	1586.55	702.85
992.018	2655.1385	1586.35	698.1
992.1418	2656.3961	1581.8	695.35
992.2655	2657.6531	1589.85	702.7
992.3892	2658.9094	1573.7	686.5
992.5129	2660.1651	1573.65	688.55
992.6366	2661.42	1578.35	692.1
992.7602	2662.6743	1586.1	700.75
992.8837	2663.9279	1580.25	693.4
993.0073	2665.1808	1589.2	701.7
993.1307	2666.433	1587.45	700.35
993.2542	2667.6846	1582.8	695.95
993.3776	2668.9354	1588.15	698.7
993.501	2670.1856	1587.65	699.95
993.6244	2671.4351	1595	709.4
993.7477	2672.6839	1600.45	712.6
993.8709	2673.9321	1591.2	703.45
993.9942	2675.1795	1598.15	712.85
994.1174	2676.4263	1592.6	704.1
994.2405	2677.6724	1592	708.1
994.3637	2678.9179	1595.65	708.25
994.4868	2680.1626	1594.6	709.95
994.6098	2681.4067	1585.95	699.4
994.7328	2682.6501	1594	707.5
994.8558	2683.8928	1586.35	697.85
994.9788	2685.1348	1580.75	696.15
995.1017	2686.3761	1582.2	697.45
995.2245	2687.6168	1575.95	691.15
995.3474	2688.8568	1568.2	680.5
995.4702	2690.0961	1567.75	684.85
995.5929	2691.3348	1555.45	668.5
995.7156	2692.5727	1563.4	677.75
995.8383	2693.81	1553.6	668
995.961	2695.0466	1555.1	668.2
996.0836	2696.2826	1554.8	667.25
996.2062	2697.5178	1578.4	674.05
996.3287	2698.7524	1563.5	678.5
996.4512	2699.9863	1567.25	677.4
996.5737	2701.2195	1561.8	678.4
996.6961	2702.452	1562.6	678.5
996.8185	2703.6839	1568.25	681.05
996.9408	2704.9151	1570.45	686.75
997.0631	2706.1456	1579.15	691.55
997.1854	2707.3755	1577.7	690.45
997.3077	2708.6046	1588.35	699.85
997.4299	2709.8331	1594.45	706.45
997.552	2711.0609	1598.65	713.75
997.6742	2712.2881	1607.35	721.05
997.7963	2713.5145	1615.9	729.45
997.9183	2714.7403	1615.05	731.2
998.0403	2715.9654	1617.15	731.95
998.1623	2717.1899	1646.7	747.2
998.2842	2718.4136	1642.3	756.45
998.4062	2719.6367	1659.35	774.25
998.528	2720.8591	1669.5	775.55
998.6498	2722.0809	1679.5	793.6
998.7716	2723.3019	1695.25	807.75
998.8934	2724.5223	1701.35	813.7
999.0151	2725.7421	1694.55	808.05
999.1368	2726.9611	1708.6	822
999.2584	2728.1795	1701.3	809.7
999.38	2729.3972	1689.5	803.25
999.5016	2730.6142	1693.9	796.7
999.6231	2731.8306	1656.35	770.7
999.7446	2733.0462	1653.15	765.25
999.8661	2734.2612	1641.8	752.25
999.9875	2735.4756	1615	728.55
1000.1089	2736.6892	1605.95	718.35
1000.2302	2737.9022	1587.35	704.9
1000.3515	2739.1145	1577.05	691.1
1000.4728	2740.3262	1577.55	683.45
1000.594	2741.5372	1552.05	667.6
1000.7152	2742.7475	1540.8	656.2
1000.8363	2743.9571	1535.95	648.95
1000.9575	2745.1661	1526.65	637.75
1001.0785	2746.3744	1518.05	632.65
1001.1996	2747.582	1503.65	619.45
1001.3206	2748.7889	1494.3	607.45
1001.4415	2749.9952	1495.15	610.15
1001.5625	2751.2008	1482.6	597.95
1001.6833	2752.4057	1478.9	592.85
1001.8042	2753.61	1482.3	597.4
1001.925	2754.8136	1481.85	596.1
1002.0458	2756.0165	1463.75	579.45
1002.1665	2757.2188	1464.95	583.6
1002.2872	2758.4204	1481.15	594.75
1002.4078	2759.6213	1470.05	583.85
1002.5285	2760.8215	1473.3	584.6
1002.649	2762.0211	1463.3	576.4
1002.7696	2763.22	1470.8	584.7
1002.8901	2764.4182	1470.6	585.95
1003.0106	2765.6158	1467	582.8
1003.131	2766.8127	1453.75	569.25
1003.2514	2768.009	1456.3	571.9
1003.3717	2769.2045	1453.3	568.4
1003.492	2770.3994	1448.05	562.35
1003.6123	2771.5936	1454.7	568.5
1003.7325	2772.7872	1442.75	557.7
1003.8527	2773.9801	1434.4	547.25
1003.9729	2775.1723	1456.35	555.2
1004.093	2776.3639	1434.65	553.3
1004.2131	2777.5548	1435.95	550.25
1004.3331	2778.745	1435.2	550.05
1004.4531	2779.9346	1438.75	555.15
1004.5731	2781.1235	1439.65	555
1004.693	2782.3117	1447.45	563.35
1004.8129	2783.4992	1443.6	561.05
1004.9328	2784.6861	1442.95	559.75
1005.0526	2785.8723	1443.6	559.65
1005.1723	2787.0579	1452.7	569.65
1005.2921	2788.2428	1446.75	563
1005.4118	2789.427	1459.6	577.1
1005.5314	2790.6106	1471.2	588.7
1005.651	2791.7935	1477.15	592.35
1005.7706	2792.9757	1484.45	603.7
1005.8902	2794.1573	1483.3	596.15
1006.0097	2795.3382	1503.35	619.25
1006.1291	2796.5184	1501.75	619.05
1006.2485	2797.698	1518.05	632.6
1006.3679	2798.8769	1532.45	649.65
1006.4873	2800.0551	1543.05	660.15
1006.6066	2801.2327	1550.85	667.05
1006.7258	2802.4096	1565.45	684.4
1006.8451	2803.5859	1585.6	702.55
1006.9642	2804.7615	1597.1	713.2
1007.0834	2805.9364	1619.2	736.3
1007.2025	2807.1106	1640.15	756.85
1007.3216	2808.2842	1663.5	779.4
1007.4406	2809.4572	1699.5	816.4
1007.5596	2810.6294	1722.6	837.45
1007.6785	2811.801	1761.5	880
1007.7975	2812.972	1798.15	915.85
1007.9163	2814.1423	1837.6	952.3
1008.0352	2815.3119	1879.95	998.8
1008.154	2816.4808	1921.2	1038.15
1008.2727	2817.6491	1976.8	1094.25
1008.3914	2818.8167	2015.95	1133.85
1008.5101	2819.9837	2078.1	1190.7
1008.6288	2821.15	2125.45	1244
1008.7474	2822.3157	2182.35	1299.8
1008.8659	2823.4807	2227.65	1343.7
1008.9844	2824.645	2294.55	1412.95
1009.1029	2825.8086	2325.7	1445
1009.2214	2826.9716	2390.35	1508.15
1009.3398	2828.134	2443.95	1564.75
1009.4581	2829.2957	2491.2	1608.5
1009.5764	2830.4567	2518.55	1636.6
1009.6947	2831.617	2542.15	1659.15
1009.813	2832.7767	2570.8	1687.45
1009.9312	2833.9358	2542.6	1660.25
1010.0493	2835.0941	2556.4	1675.05
1010.1675	2836.2519	2540.7	1658.9
1010.2855	2837.4089	2526.7	1642.15
1010.4036	2838.5653	2505.95	1625.65
1010.5216	2839.7211	2496.35	1615.65
1010.6396	2840.8761	2501.45	1616.85
1010.7575	2842.0306	2512.1	1630.7
1010.8754	2843.1843	2530.05	1647.6
1010.9932	2844.3374	2570.25	1689.4
1011.111	2845.4899	2614.45	1731.7
1011.2288	2846.6417	2667.75	1785.25
1011.3465	2847.7928	2729.3	1849.7
1011.4642	2848.9433	2802.3	1922.4
1011.5818	2850.0931	2870.1	1989.4
1011.6995	2851.2422	2923.1	2040.6
1011.817	2852.3907	2996.75	2111.9
1011.9345	2853.5385	3044.55	2159.2
1012.052	2854.6857	3091.7	2199.1
1012.1695	2855.8323	3141.05	2260.6
1012.2869	2856.9781	3191.05	2310.35
1012.4042	2858.1233	3250	2367.5
1012.5216	2859.2679	3288.4	2407.25
1012.6389	2860.4118	3343.55	2461.75
1012.7561	2861.555	3395.85	2508.65
1012.8733	2862.6976	3423.1	2540.15
1012.9905	2863.8395	3456.65	2575.5
1013.1076	2864.9808	3497.45	2616
1013.2247	2866.1214	3507.4	2627.1
1013.3417	2867.2614	3537.45	2654.9
1013.4587	2868.4007	3534.35	2653.05
1013.5757	2869.5393	3547.75	2664.3
1013.6926	2870.6773	3564	2681.25
1013.8095	2871.8146	3590.8	2705.7
1013.9263	2872.9513	3580.25	2694.6
1014.0431	2874.0874	3576.55	2693.2
1014.1599	2875.2227	3566.7	2683.9
1014.2766	2876.3574	3539.45	2657.9
1014.3933	2877.4915	3526.45	2646.65
1014.51	2878.6249	3482.45	2600.15
1014.6266	2879.7577	3468.5	2587.3
1014.7431	2880.8898	3461.55	2567.7
1014.8596	2882.0212	3445.1	2566.1
1014.9761	2883.152	3419.25	2537.5
1015.0925	2884.2821	3398.65	2517.95
1015.2089	2885.4116	3400.65	2520.9
1015.3253	2886.5405	3400.7	2518.65
1015.4416	2887.6686	3408.9	2525
1015.5579	2888.7962	3416.85	2536.5
1015.6741	2889.923	3420.75	2542.95
1015.7903	2891.0493	3440.8	2560
1015.9065	2892.1748	3438.2	2557.05
1016.0226	2893.2997	3466.7	2585.95
1016.1387	2894.424	3476	2594.9
1016.2547	2895.5476	3483.95	2604.35
1016.3707	2896.6706	3509.65	2630.8
1016.4866	2897.7929	3531.4	2650.55
1016.6025	2898.9145	3558.65	2677.2
1016.7184	2900.0355	3589.1	2706.45
1016.8342	2901.1559	3616.4	2732.6
1016.95	2902.2756	3647.35	2762.6
1017.0658	2903.3946	3674.9	2792.55
1017.1815	2904.513	3697.2	2813.65
1017.2971	2905.6308	3733.8	2854.05
1017.4127	2906.7479	3745	2862.95
1017.5283	2907.8643	3765	2882.9
1017.6439	2908.9801	3773.05	2893.9
1017.7594	2910.0953	3781.6	2901.3
1017.8748	2911.2098	3791.2	2908.05
1017.9902	2912.3236	3790.3	2903.35
1018.1056	2913.4368	3775	2892
1018.2209	2914.5494	3762.95	2881.7
1018.3362	2915.6613	3727.65	2840.65
1018.4515	2916.7725	3689.9	2807.1
1018.5667	2917.8831	3673.55	2791.7
1018.6819	2918.9931	3640.25	2755.9
1018.797	2920.1024	3614.8	2732.3
1018.9121	2921.211	3587.4	2707.2
1019.0271	2922.319	3586.6	2705.75
1019.1421	2923.4264	3555.2	2675.9
1019.2571	2924.5331	3545.4	2667.2
1019.372	2925.6391	3549.7	2670.1
1019.4869	2926.7445	3546.95	2666.8
1019.6017	2927.8493	3546.25	2666.7
1019.7165	2928.9534	3544.4	2665.6
1019.8313	2930.0569	3540.9	2657.85
1019.946	2931.1597	3545.5	2664.1
1020.0606	2932.2619	3523.5	2642.85
1020.1753	2933.3634	3537.7	2659.55
1020.2899	2934.4643	3535.8	2648.8
1020.4044	2935.5645	3524.75	2639.3
1020.5189	2936.6641	3507.85	2622.4
1020.6334	2937.763	3471.8	2592.8
1020.7478	2938.8613	3425.75	2546.3
1020.8622	2939.959	3388.75	2505.65
1020.9765	2941.056	3311.55	2432.65
1021.0908	2942.1523	3250.5	2372.6
1021.2051	2943.248	3164.45	2282.5
1021.3193	2944.3431	3083.6	2203.7
1021.4334	2945.4375	2986.25	2105.8
1021.5476	2946.5313	2882.2	2004.6
1021.6617	2947.6244	2775.45	1895.35
1021.7757	2948.7169	2680.65	1800.6
1021.8897	2949.8087	2601.4	1721.15
1022.0037	2950.8999	2512.5	1633.65
1022.1176	2951.9904	2422.95	1542.9
1022.2315	2953.0803	2354.45	1472.85
1022.3453	2954.1696	2286.9	1405.45
1022.4591	2955.2582	2248.45	1370.45
1022.5728	2956.3462	2210.6	1330.55
1022.6865	2957.4335	2167.65	1288.9
1022.8002	2958.5202	2128.95	1248.55
1022.9138	2959.6062	2099.45	1221.35
1023.0274	2960.6916	2086.45	1206.35
1023.141	2961.7764	2057.6	1177.8
1023.2545	2962.8605	2046.15	1164.7
1023.3679	2963.9439	2038.5	1161.1
1023.4813	2965.0267	2018.95	1140.4
1023.5947	2966.1089	2030.95	1129.25
1023.708	2967.1905	1996.3	1119.65
1023.8213	2968.2714	1999.65	1121.75
1023.9346	2969.3516	2007.1	1126.35
1024.0478	2970.4312	2013.55	1124.5
1024.1609	2971.5102	1996.95	1117.85
1024.274	2972.5885	1999.35	1120.75
1024.3871	2973.6662	2001.2	1117.3
1024.5002	2974.7432	2006.85	1127.95
1024.6132	2975.8196	1997.15	1117.65
1024.7261	2976.8954	1989.55	1112.9
1024.839	2977.9705	1990.2	1112.15
1024.9519	2979.045	1986.85	1109.5
1025.0647	2980.1188	1966.05	1088.35
1025.1775	2981.192	1935.3	1057.4
1025.2902	2982.2645	1924.6	1044.4
1025.4029	2983.3364	1896	1017.65
1025.5156	2984.4077	1883.65	1005.55
1025.6282	2985.4783	1853.5	969.8
1025.7407	2986.5483	1818.8	938.8
1025.8532	2987.6177	1785.55	907
1025.9657	2988.6864	1754.9	874.95
1026.0782	2989.7545	1725.8	845.15
1026.1906	2990.8219	1682.4	805.95
1026.3029	2991.8887	1653	774.75
1026.4152	2992.9548	1630.55	748.15
1026.5275	2994.0204	1595.2	717.7
1026.6397	2995.0852	1565.75	688.5
1026.7519	2996.1495	1543.2	662.4
1026.864	2997.2131	1513.85	636.9
1026.9761	2998.276	1489.45	608.85
1027.0882	2999.3383	1472.9	592.5
1027.2002	3000.4	1453.8	575.1
1027.3122	3001.4611	1434.4	553.95
1027.4241	3002.5215	1417.9	538.55
1027.536	3003.5812	1395.1	516
1027.6478	3004.6404	1386.75	508.75
1027.7596	3005.6989	1380.6	499.95
1027.8714	3006.7567	1374.9	496.75
1027.9831	3007.8139	1378.7	469.55
1028.0947	3008.8705	1344.95	466.1
1028.2064	3009.9264	1338.8	455.45
1028.3179	3010.9818	1328.75	450.35
1028.4295	3012.0364	1321.95	442.55
1028.541	3013.0905	1318.65	440.65
1028.6524	3014.1439	1318.4	438.5
1028.7638	3015.1966	1308.85	431.65
1028.8752	3016.2487	1303.75	424.5
1028.9865	3017.3002	1308	426.75
1029.0978	3018.3511	1304.65	427.6
1029.209	3019.4013	1301.75	424.7
1029.3202	3020.4509	1296.05	419.2
1029.4314	3021.4998	1293.2	414.45
1029.5425	3022.5481	1291.35	412.75
1029.6535	3023.5958	1292.4	413.5
1029.7645	3024.6428	1294.8	414.15
1029.8755	3025.6892	1289.45	413.65
1029.9864	3026.735	1292.3	413.75
1030.0973	3027.7802	1294.95	416.65
1030.2082	3028.8247	1291.55	413.35
1030.319	3029.8685	1296	414.95
1030.4297	3030.9118	1299.05	419.45
1030.5404	3031.9544	1291.05	415.05
1030.6511	3032.9963	1304.65	426.25
1030.7617	3034.0376	1302.8	425.35
1030.8723	3035.0783	1313.05	431.6
1030.9829	3036.1184	1311.3	430.1
1031.0934	3037.1578	1308.1	431.5
1031.2038	3038.1966	1308	427.3
1031.3142	3039.2348	1312.65	435.95
1031.4246	3040.2723	1321.75	435.85
1031.5349	3041.3092	1312.9	437.95
1031.6452	3042.3455	1316.15	437.3
1031.7554	3043.3811	1308.75	432.25
1031.8656	3044.4161	1310.1	431.15
1031.9758	3045.4505	1304	429.6
1032.0859	3046.4842	1296.75	417.85
1032.1959	3047.5173	1298.45	424.15
1032.3059	3048.5498	1292.25	413.75
1032.4159	3049.5816	1291.75	413.5
1032.5258	3050.6128	1289.25	410.7
1032.6357	3051.6434	1288.4	409.65
1032.7455	3052.6734	1284.85	406.3
1032.8553	3053.7027	1282.65	406.85
1032.9651	3054.7314	1275.1	399.4
1033.0748	3055.7594	1268	389.85
1033.1845	3056.7868	1268.25	387.5
1033.2941	3057.8136	1265.25	389.1
1033.4037	3058.8398	1257	378.5
1033.5132	3059.8653	1248.05	371.6
1033.6227	3060.8902	1251.25	372.2
1033.7321	3061.9145	1251.8	372.9
1033.8415	3062.9381	1250.1	372.3
1033.9509	3063.9612	1259.3	366.1
1034.0602	3064.9835	1242.2	364.15
1034.1694	3066.0053	1246.35	366.45
1034.2787	3067.0264	1237.7	361.1
1034.3878	3068.0469	1227.6	350.15
1034.497	3069.0668	1221.75	340.3
1034.6061	3070.086	1212.65	337.8
1034.7151	3071.1046	1210.05	331.05
1034.8241	3072.1226	1201.1	322.7
1034.9331	3073.1399	1197.25	320.5
1035.042	3074.1567	1191	311.9
1035.1508	3075.1727	1185.25	304.8
1035.2597	3076.1882	1169.2	291.45
1035.3684	3077.203	1165.9	288.1
1035.4772	3078.2173	1163.4	285.35
1035.5859	3079.2308	1157.9	276.05
1035.6945	3080.2438	1149.35	272.3
1035.8031	3081.2561	1143.25	266.45
1035.9117	3082.2678	1132.7	256.1
1036.0202	3083.2789	1123.75	247.65
1036.1286	3084.2893	1126.45	249.95
1036.2371	3085.2991	1119.65	241.25
1036.3454	3086.3083	1125.1	243.75
1036.4538	3087.3169	1108.05	229.05
1036.562	3088.3248	1101.95	223.95
1036.6703	3089.3321	1098.55	221.05
1036.7785	3090.3388	1097.05	221.1
1036.8866	3091.3449	1088.9	210.25
1036.9948	3092.3503	1094.1	214.25
1037.1028	3093.3551	1085.6	211.5
1037.2108	3094.3593	1083.45	206.7
1037.3188	3095.3629	1076.35	199.35
1037.4267	3096.3658	1080.2	201.85
1037.5346	3097.3681	1075.8	198.95
1037.6425	3098.3698	1069.2	189.9
1037.7503	3099.3708	1074.65	191.55
1037.858	3100.3713	1062.4	184.9
1037.9657	3101.3711	1059.45	182
1038.0734	3102.3702	1171.25	177.9
1038.181	3103.3688	1058.35	178.65
1038.2886	3104.3667	1057.2	181.55
1038.3961	3105.364	1051.65	175.25
1038.5036	3106.3607	1053.75	176.95
1038.611	3107.3568	1050.15	172.35
1038.7184	3108.3522	1045.95	172.75
1038.8257	3109.347	1050.15	172.85
1038.933	3110.3412	1047.5	165.35
1039.0403	3111.3348	1041.75	166.05
1039.1475	3112.3277	1041.8	165.65
1039.2547	3113.32	1036.75	162.1
1039.3618	3114.3117	1037.8	159.5
1039.4689	3115.3028	1038.25	163
1039.5759	3116.2932	1031.75	153.7
1039.6829	3117.2831	1037.9	155.9
1039.7898	3118.2723	1032	157.3
1039.8967	3119.2608	1027.9	153.05
1040.0035	3120.2488	1029.55	152.55
1040.1103	3121.2361	1027	149.25
1040.2171	3122.2229	1023.2	148.8
1040.3238	3123.209	1024.25	147.1
1040.4305	3124.1944	1022.95	147.7
1040.5371	3125.1793	1018.4	140.4
1040.6437	3126.1635	1016.75	141.55
1040.7502	3127.1471	1018.55	142.7
1040.8567	3128.1301	1014.25	138.7
1040.9631	3129.1125	1011.85	135.5
1041.0695	3130.0942	1013.65	138.15
1041.1759	3131.0753	1020.2	134.7
1041.2822	3132.0558	1016.25	137.1
1041.3884	3133.0357	1009.4	133.85
1041.4946	3134.015	1011.05	133.2
1041.6008	3134.9936	1006.5	128
1041.7069	3135.9716	1032.45	135.5
1041.813	3136.949	1007.4	130.85
1041.919	3137.9258	1020.95	126.85
1042.025	3138.902	1007.1	125.4
1042.1309	3139.8775	1002.95	127.2
1042.2368	3140.8524	999.85	124.15
1042.3427	3141.8267	1001.95	124.35
1042.4485	3142.8004	1002.55	125.35
1042.5542	3143.7735	1005.05	123.6
1042.6599	3144.7459	998.75	121.5
1042.7656	3145.7178	998.4	121.8
1042.8712	3146.689	996	122.7
1042.9768	3147.6596	997.9	122.6
1043.0823	3148.6295	997.1	119.7
1043.1878	3149.5989	994.95	116.7
1043.2932	3150.5676	990.5	114.8
1043.3986	3151.5357	991.25	118.15
1043.5039	3152.5032	992.05	116.6
1043.6092	3153.4701	989.7	112.1
1043.7145	3154.4364	991.85	114.15
1043.8197	3155.402	991.7	116.85
1043.9248	3156.367	987.4	110.55
1044.03	3157.3315	1022.4	110.35
1044.135	3158.2952	984.65	108.8
1044.24	3159.2584	984	107.45
1044.345	3160.221	981.7	105.1
1044.4499	3161.1829	982.7	107.35
1044.5548	3162.1442	983.9	107.55
1044.6596	3163.105	979.95	106.4
1044.7644	3164.065	980.75	104.05
1044.8692	3165.0245	979.95	101.3
1044.9739	3165.9834	980.5	104.05
1045.0785	3166.9416	978.05	101.8
1045.1831	3167.8993	980.1	101.6
1045.2877	3168.8563	977.15	99.25
1045.3922	3169.8127	975.95	100.05
1045.4966	3170.7684	976.25	100.55
1045.6011	3171.7236	976.6	98.7
1045.7054	3172.6782	975.15	98.25
1045.8098	3173.6321	972.9	96.55
1045.914	3174.5854	977.65	99.45
1046.0183	3175.5381	974.2	97.95
1046.1224	3176.4902	970.5	94.95
1046.2266	3177.4417	971.85	95.25
1046.3307	3178.3926	973.55	97.6
1046.4347	3179.3428	971.1	97.05
1046.5387	3180.2924	970.55	94.4
1046.6427	3181.2415	968	91.9
1046.7466	3182.1899	966.65	88.55
1046.8504	3183.1377	970.05	93.35
1046.9542	3184.0848	970.4	92.9
1047.058	3185.0314	966.9	92
1047.1617	3185.9773	967.75	89.95
1047.2654	3186.9227	968.6	91.3
1047.369	3187.8674	964.05	89.4
1047.4726	3188.8115	965.7	85.1
1047.5761	3189.755	962.2	89.15
1047.6796	3190.6979	961.1	86.65
1047.783	3191.6402	962.1	85.95
1047.8864	3192.5818	963.9	86.05
1047.9898	3193.5229	968.95	88.35
1048.0931	3194.4633	958.75	80.7
1048.1963	3195.4031	962.45	86.75
1048.2995	3196.3423	960.2	85.45
1048.4027	3197.2809	959.3	81.35
1048.5058	3198.2189	960.6	85.8
1048.6089	3199.1563	968	86.8
1048.7119	3200.0931	957.05	82.3
1048.8148	3201.0292	955.75	79.65
1048.9178	3201.9648	955.2	78.5
1049.0206	3202.8997	962.05	83.9
1049.1235	3203.834	957.6	81.65
1049.2262	3204.7677	954.15	79.15
1049.329	3205.7008	959	81.15
1049.4317	3206.6333	952.8	79.5
1049.5343	3207.5652	954.5	76.3
1049.6369	3208.4964	949.7	73.1
1049.7394	3209.4271	952.35	79.1
1049.8419	3210.3571	951.85	76.65
1049.9444	3211.2865	951.25	73.95
1050.0468	3212.2154	953.45	75.45
1050.1491	3213.1436	953.25	76
1050.2514	3214.0712	960.75	77.8
1050.3537	3214.9982	951.85	75.3
1050.4559	3215.9246	952.9	75.2
1050.5581	3216.8503	949	73.7
1050.6602	3217.7755	946.7	71.95
1050.7623	3218.7001	946.7	72
1050.8643	3219.624	949.05	74
1050.9663	3220.5473	949	72.2
1051.0682	3221.4701	949.85	74.1
1051.1701	3222.3922	947.95	70.35
1051.2719	3223.3137	946.1	70.35
1051.3737	3224.2346	944.65	70.1
1051.4754	3225.1549	946.6	71.45
1051.5771	3226.0746	943.6	68.15
1051.6788	3226.9937	944.5	68.65
1051.7804	3227.9121	945.35	71.95
1051.8819	3228.83	944.3	69.15
1051.9834	3229.7473	943.45	68.2
1052.0849	3230.6639	944.45	69.55
1052.1863	3231.5799	939.25	63.1
1052.2876	3232.4954	941.35	65.9
1052.3889	3233.4102	942.15	67.1
1052.4902	3234.3244	945.05	70.75
1052.5914	3235.238	942.8	68.65
1052.6926	3236.151	963.8	66
1052.7937	3237.0634	941.4	68
1052.8948	3237.9752	938.45	63.7
1052.9958	3238.8864	939.2	63.1
1053.0968	3239.797	939.9	65.65
1053.1977	3240.7069	936.9	61.15
1053.2986	3241.6163	940.8	63.3
1053.3994	3242.5251	936.75	63.05
1053.5002	3243.4332	934.75	63.4
1053.6009	3244.3408	936.6	61.55
1053.7016	3245.2477	936.85	62.8
1053.8022	3246.154	938.1	60.9
1053.9028	3247.0598	938.8	61.85
1054.0034	3247.9649	933.65	59.05
1054.1039	3248.8694	933.95	58.5
1054.2043	3249.7733	935.1	62.05
1054.3047	3250.6766	932.3	57.75
1054.4051	3251.5793	935.85	59.55
1054.5054	3252.4814	929.9	54.25
1054.6056	3253.3829	933.45	58.5
1054.7058	3254.2838	930.1	54.4
1054.806	3255.1841	929.3	54.95
1054.9061	3256.0838	932.4	57.85
1055.0061	3256.9829	929.5	55.45
1055.1062	3257.8814	932.45	54.45
1055.2061	3258.7792	929.85	53.9
1055.306	3259.6765	926.55	51.4
1055.4059	3260.5731	929.6	54.45
1055.5057	3261.4692	926.75	52.05
1055.6055	3262.3647	926.05	52.25
1055.7052	3263.2595	927	52.75
1055.8049	3264.1538	924.3	49.65
1055.9045	3265.0474	923.85	47.8
1056.0041	3265.9404	919.05	46.65
1056.1036	3266.8329	922.3	48.1
1056.2031	3267.7247	930.9	46.55
1056.3025	3268.616	919.15	46.25
1056.4019	3269.5066	917.1	43.7
1056.5013	3270.3966	918.35	42.6
1056.6005	3271.286	913.5	40.2
