Software Version:	3.9.2.0
Unit SN:	10000200
Spectrometer SN:	6960
Date:	3/8/2024 12:21:08 PM
Data Line Index:	25
Spectral Points:	2048
Integration time (ms):	125
Averages:	20
Delay (ms):	30000
Sequence Number:	1
Processing:	dark subtract
Laser Power (mW):	295
Laser Current (mA):	823
Laser Diode Temp (C):	25
Laser Case Temp (C):	25.8
System Temp (C):	25.7
Spectrometer Temp (C):	23.5
CCD Temp (C):	0.004
Secondary Temp (C):	20.014
Heatsink Temp (C):	20.863
CCDPCB Temp (C):	35.829
SecondaryPCB Temp (C):	28.648

Wavelength	RamanShift	Raw Counts	Dark Subtracted
787.061	30.1047	426.2	17.45
787.2016	32.3739	425.25	18.3
787.3422	34.6426	431.2	23.65
787.4828	36.9109	432.3	22.3
787.6235	39.1787	437.45	21.7
787.7642	41.4461	443.05	24.7
787.9049	43.7131	448.25	26.05
788.0456	45.9796	452.7	27.1
788.1863	48.2456	458.4	29.5
788.3271	50.5112	462.9	29.85
788.4679	52.7764	469.1	34.15
788.6087	55.0411	477.15	37.1
788.7496	57.3054	485.05	40.65
788.8904	59.5692	489.3	44.1
789.0313	61.8326	499.05	48.1
789.1722	64.0955	501.3	49
789.3132	66.3579	513.2	54.8
789.4541	68.6199	525.35	63.65
789.5951	70.8815	545.6	78.3
789.7361	73.1426	582.75	111.7
789.8771	75.4032	682.9	207.15
790.0181	77.6634	918.7	441.9
790.1592	79.9231	1487.5	1004.55
790.3003	82.1824	2660.5	2164.35
790.4414	84.4412	4658.6	4138.4
790.5825	86.6995	7320.2	6771.95
790.7237	88.9574	9854.4	9284.1
790.8648	91.2148	11547.4	10957.95
791.006	93.4717	12276.15	11680.65
791.1472	95.7282	12333.45	11733.25
791.2885	97.9842	12120.4	11513.05
791.4297	100.2398	11740.2	11134.15
791.571	102.4949	11307.85	10694.85
791.7123	104.7495	10837.2	10226.65
791.8536	107.0036	10376.45	9762.55
791.9949	109.2573	9962.6	9348.65
792.1363	111.5105	9602.9	8984.25
792.2777	113.7632	9285.3	8665.25
792.4191	116.0154	9018.8	8388.85
792.5605	118.2672	8809	8185.6
792.7019	120.5185	8642.85	8016.9
792.8434	122.7693	8505.3	7876.95
792.9849	125.0197	8391.35	7760
793.1264	127.2696	8229.3	7596.9
793.2679	129.519	8135.25	7496
793.4094	131.7679	7997.5	7354
793.551	134.0163	7854.4	7209.95
793.6926	136.2642	7676.5	7028.85
793.8342	138.5117	7510.5	6852.7
793.9758	140.7587	7286.9	6632.65
794.1175	143.0052	7128.15	6469.7
794.2591	145.2512	6943.35	6289.7
794.4008	147.4967	6793.75	6139.45
794.5425	149.7417	6680.65	6024.95
794.6842	151.9863	6593.5	5928.9
794.826	154.2304	6547.4	5881.9
794.9677	156.4739	6466.15	5795.2
795.1095	158.717	6424.7	5748.45
795.2513	160.9596	6339.95	5660.05
795.3931	163.2017	6210.35	5531.05
795.535	165.4433	6084.4	5399.2
795.6768	167.6844	5936.2	5254.15
795.8187	169.925	5798.2	5109.3
795.9606	172.1651	5656.1	4966.65
796.1025	174.4047	5536.7	4846.95
796.2445	176.6439	5434.5	4742.8
796.3864	178.8825	5340.65	4644.6
796.5284	181.1206	5261.95	4561.45
796.6704	183.3582	5214.6	4509.85
796.8124	185.5954	5166.3	4457.85
796.9544	187.832	5136.75	4425.6
797.0965	190.0681	5106.8	4391.4
797.2386	192.3037	5118.65	4401.95
797.3806	194.5388	5109.6	4389.15
797.5228	196.7734	5132.45	4411.25
797.6649	199.0075	5149.6	4426.85
797.807	201.2411	5202.95	4476.95
797.9492	203.4742	5227.1	4504.05
798.0914	205.7068	5300.3	4567.7
798.2336	207.9389	5337.6	4605.65
798.3758	210.1704	5410.5	4684.1
798.518	212.4015	5452.55	4733.7
798.6603	214.632	5493.1	4783.35
798.8025	216.862	5549.5	4843.85
798.9448	219.0915	5582.75	4871
799.0871	221.3205	5629.9	4917.45
799.2294	223.549	5648.05	4940.15
799.3718	225.777	5654.25	4944.8
799.5141	228.0044	5703.65	4985.45
799.6565	230.2314	5732.5	5014.3
799.7989	232.4578	5739.5	5023
799.9413	234.6837	5776.8	5050.35
800.0837	236.909	5799.5	5070
800.2262	239.1339	5800.05	5047
800.3687	241.3582	5787.35	5046.95
800.5111	243.582	5767.85	4997.8
800.6536	245.8053	5740.2	4981.05
800.7961	248.0281	5727.05	4974.4
800.9387	250.2503	5740.35	4983
801.0812	252.472	5770.3	5008.4
801.2238	254.6932	5864.65	5104.9
801.3664	256.9139	5904	5145.4
801.509	259.134	6023	5259.45
801.6516	261.3536	6150.6	5388.8
801.7942	263.5727	6302.5	5543.25
801.9369	265.7912	6436.45	5675.1
802.0795	268.0092	6614.8	5853
802.2222	270.2267	6699.6	5937.55
802.3649	272.4436	6779.05	6016
802.5076	274.6601	6814.2	6039.3
802.6504	276.8759	6766.55	5995.95
802.7931	279.0913	6737.4	5962.25
802.9359	281.3061	6671.75	5896.55
803.0787	283.5204	6650.05	5873.15
803.2215	285.7341	6618.65	5839.9
803.3643	287.9473	6641.6	5862.25
803.5071	290.16	6630.95	5843.8
803.6499	292.3721	6657.1	5879.65
803.7928	294.5837	6688.6	5910.3
803.9357	296.7947	6764.75	5986.45
804.0786	299.0052	6836.45	6059.85
804.2215	301.2152	6821	6038.15
804.3644	303.4246	6771.5	5990.7
804.5074	305.6334	6654.25	5877.05
804.6503	307.8418	6503.45	5718.4
804.7933	310.0495	6335.5	5552.25
804.9363	312.2568	6132.3	5347.35
805.0793	314.4635	5959.25	5169.8
805.2223	316.6696	5790.9	5000.3
805.3653	318.8752	5685.7	4889.8
805.5084	321.0802	5641.35	4847.55
805.6514	323.2847	5635.65	4840
805.7945	325.4887	5641.6	4851.7
805.9376	327.692	5658.7	4863.9
806.0807	329.8949	5659.5	4865.65
806.2238	332.0972	5599.6	4801.15
806.367	334.2989	5510.3	4709.05
806.5101	336.5001	5397.05	4597
806.6533	338.7007	5300.85	4500.6
806.7965	340.9008	5236.55	4434.95
806.9397	343.1003	5149.4	4344.5
807.0829	345.2992	5079.7	4275.55
807.2261	347.4976	5028.3	4220.3
807.3693	349.6955	4996.1	4184.7
807.5126	351.8927	4968.9	4157.3
807.6559	354.0895	4932.65	4107.35
807.7991	356.2856	4912.85	4099.85
807.9424	358.4812	4876.2	4063.6
808.0857	360.6763	4883.25	4068.2
808.2291	362.8707	4844.9	4029.2
808.3724	365.0646	4884.95	4066.4
808.5158	367.258	4899.7	4078.15
808.6591	369.4508	4942.5	4116.6
808.8025	371.643	5007	4179.9
808.9459	373.8346	5046.65	4218.9
809.0893	376.0257	5114.35	4286.15
809.2327	378.2162	5133.4	4305.1
809.3762	380.4062	5134.9	4305.65
809.5196	382.5956	5111.1	4282.8
809.6631	384.7844	5022.05	4198.7
809.8066	386.9726	4975.5	4154.85
809.9501	389.1603	4934.05	4110.3
810.0936	391.3474	4928.55	4078.8
810.2371	393.5339	4905.4	4080.05
810.3806	395.7199	4900.45	4079.15
810.5241	397.9052	4904.7	4082.8
810.6677	400.09	4967.85	4147.45
810.8113	402.2743	5052.15	4230.95
810.9548	404.4579	5132.05	4308.35
811.0984	406.641	5238.65	4413
811.2421	408.8235	5288.4	4460.2
811.3857	411.0054	5370.2	4540.3
811.5293	413.1868	5478.45	4644.1
811.673	415.3675	5499.55	4660.95
811.8166	417.5477	5486.55	4653.6
811.9603	419.7273	5391.55	4551.15
812.104	421.9064	5346.15	4500.1
812.2477	424.0848	5292.9	4458.2
812.3914	426.2627	5259.4	4419.75
812.5351	428.4399	5159.15	4321.25
812.6788	430.6166	5012.45	4169.05
812.8226	432.7928	4873.05	4028.5
812.9663	434.9683	4736.45	3896.45
813.1101	437.1432	4637.35	3794.05
813.2539	439.3176	4556.35	3716
813.3977	441.4914	4505.35	3666.95
813.5415	443.6645	4488.15	3645.7
813.6853	445.8371	4487.8	3647.6
813.8291	448.0091	4464.15	3619
813.973	450.1806	4473.45	3628.75
814.1168	452.3514	4465	3621.85
814.2607	454.5216	4484.9	3633.2
814.4046	456.6913	4486.1	3643.2
814.5485	458.8603	4507.15	3663.75
814.6924	461.0288	4518.2	3675.9
814.8363	463.1967	4520.6	3685.05
814.9802	465.3639	4520.1	3676.3
815.1241	467.5306	4506.75	3664.05
815.2681	469.6967	4483.3	3641.7
815.412	471.8622	4489.35	3647.6
815.556	474.0271	4502.35	3658.85
815.7	476.1914	4514.5	3661.55
815.844	478.3551	4516.15	3669.2
815.988	480.5182	4550.45	3704.2
816.132	482.6807	4577.85	3737.4
816.276	484.8426	4687.7	3851.35
816.4201	487.0039	4823.65	3980.6
816.5641	489.1647	4999.05	4152.2
816.7082	491.3248	5146.55	4300.15
816.8522	493.4843	5173.4	4325.3
816.9963	495.6432	5145.2	4297.1
817.1404	497.8015	5086.35	4228.3
817.2845	499.9592	5015.35	4156.35
817.4286	502.1163	4910.7	4054.15
817.5727	504.2728	4774.25	3921.15
817.7168	506.4287	4641.6	3796.55
817.861	508.5839	4526.8	3680.8
818.0051	510.7386	4448.95	3597.75
818.1493	512.8927	4426.75	3569.95
818.2935	515.0461	4430.5	3577.05
818.4377	517.199	4484.75	3626.05
818.5818	519.3512	4571.25	3709.95
818.726	521.5029	4713.05	3850.45
818.8703	523.6539	4832.65	3973.25
819.0145	525.8043	4893.05	4032.95
819.1587	527.9541	4850.2	3988.65
819.303	530.1033	4754.85	3888.85
819.4472	532.2519	4662.15	3804.55
819.5915	534.3999	4616.2	3750.9
819.7357	536.5472	4626.2	3763.35
819.88	538.694	4693.65	3837
820.0243	540.8401	4778.6	3916.45
820.1686	542.9856	4851.3	3983.65
820.3129	545.1305	4859.2	3987.35
820.4572	547.2748	4820.85	3946.25
820.6016	549.4185	4751.8	3875.75
820.7459	551.5615	4734.8	3861.9
820.8902	553.704	4746.4	3873.8
821.0346	555.8458	4798.25	3925.65
821.1789	557.987	4886.45	4015.25
821.3233	560.1276	5013.4	4143.35
821.4677	562.2675	5211.25	4340.55
821.6121	564.4069	5484.05	4610.6
821.7565	566.5456	5700.1	4831.3
821.9009	568.6837	5796.35	4925.3
822.0453	570.8212	5601	4731.4
822.1897	572.958	5298.3	4427.95
822.3342	575.0942	4986.15	4116.65
822.4786	577.2299	4764.05	3902.7
822.6231	579.3648	4658.1	3798
822.7675	581.4992	4619.25	3765.4
822.912	583.6329	4646.95	3795.4
823.0565	585.766	4715.55	3861.45
823.201	587.8985	4782.65	3921.8
823.3454	590.0304	4833.35	3943.4
823.4899	592.1616	4811.15	3937.05
823.6345	594.2922	4774.15	3901.65
823.779	596.4222	4705	3827.65
823.9235	598.5515	4601.25	3726.5
824.068	600.6802	4519.7	3643.6
824.2126	602.8083	4454.1	3580.9
824.3571	604.9358	4445.25	3569.85
824.5017	607.0626	4470.45	3593.85
824.6462	609.1888	4531	3649.6
824.7908	611.3144	4614.3	3728.65
824.9354	613.4393	4696.05	3814.75
825.08	615.5636	4767.3	3885.4
825.2246	617.6873	4807.5	3927.1
825.3692	619.8103	4761.95	3879.75
825.5138	621.9327	4660.1	3777.6
825.6584	624.0544	4557.7	3680.15
825.803	626.1756	4449.9	3575.25
825.9477	628.2961	4405.25	3525.2
826.0923	630.4159	4367.5	3484.15
826.237	632.5351	4374.6	3493.25
826.3816	634.6537	4358.45	3477.45
826.5263	636.7716	4346.35	3461.55
826.6709	638.8889	4355.6	3468.2
826.8156	641.0056	4368.8	3481.55
826.9603	643.1216	4367.85	3480
827.105	645.237	4348.3	3459.95
827.2497	647.3518	4306.55	3424.85
827.3944	649.4659	4259.75	3379.7
827.5391	651.5793	4228.35	3346.3
827.6838	653.6922	4217.1	3338.55
827.8285	655.8043	4209.45	3328.6
827.9733	657.9159	4207	3324.65
828.118	660.0268	4208.65	3325.85
828.2627	662.137	4216.55	3331.4
828.4075	664.2466	4219.6	3331.7
828.5522	666.3556	4206	3318.05
828.697	668.4639	4183.75	3293.65
828.8418	670.5716	4180.65	3298.4
828.9865	672.6786	4136.15	3249.4
829.1313	674.785	4126.3	3236.7
829.2761	676.8907	4096.8	3208.05
829.4209	678.9958	4097.9	3216.05
829.5657	681.1002	4065.45	3178.3
829.7105	683.204	4089.1	3192.8
829.8553	685.3072	4081.5	3190.75
830.0001	687.4097	4079.7	3190.05
830.1449	689.5115	4097.8	3201.4
830.2898	691.6127	4077.65	3188.3
830.4346	693.7132	4064.65	3175.55
830.5794	695.8131	4117.95	3211.15
830.7243	697.9123	4107.75	3212.9
830.8691	700.0109	4129.25	3233
831.014	702.1089	4155.9	3265.1
831.1588	704.2061	4186.55	3292.4
831.3037	706.3028	4205.8	3309.6
831.4486	708.3987	4247.05	3348.9
831.5935	710.4941	4227.2	3335.2
831.7383	712.5887	4244.65	3352.6
831.8832	714.6827	4279.7	3383.55
832.0281	716.7761	4301.1	3412.75
832.173	718.8688	4354.15	3459.65
832.3179	720.9608	4412.15	3510.95
832.4628	723.0522	4477.3	3573.65
832.6077	725.1429	4537.65	3636.85
832.7527	727.233	4601.1	3704.7
832.8976	729.3224	4651.2	3755.9
833.0425	731.4112	4662.7	3765.55
833.1874	733.4993	4576.75	3676.15
833.3324	735.5867	4484.8	3585.8
833.4773	737.6735	4389.15	3489.9
833.6222	739.7596	4273.75	3371.65
833.7672	741.845	4232.85	3334.55
833.9122	743.9298	4203.8	3306.55
834.0571	746.014	4191.95	3294.55
834.2021	748.0974	4190.6	3287.1
834.347	750.1802	4186.2	3282.4
834.492	752.2624	4181.45	3283.45
834.637	754.3439	4185.2	3281.55
834.782	756.4247	4254.8	3343.7
834.9269	758.5048	4321.1	3419
835.0719	760.5843	4430.65	3525.85
835.2169	762.6631	4614.2	3709.1
835.3619	764.7413	4892.2	3988
835.5069	766.8188	5196.85	4294.3
835.6519	768.8956	5456.25	4550.95
835.7969	770.9718	5660.85	4757.45
835.9419	773.0473	5653.4	4753
836.0869	775.1221	5561.95	4659.6
836.232	777.1962	5449.2	4544.2
836.377	779.2697	5441.5	4532.25
836.522	781.3426	5497.55	4576.55
836.667	783.4147	5530.8	4623.05
836.8121	785.4862	5523.45	4619.35
836.9571	787.557	5423.75	4513.95
837.1021	789.6271	5187.7	4281
837.2472	791.6966	4894.7	3990.75
837.3922	793.7654	4608.2	3703.25
837.5373	795.8335	4427.45	3523
837.6823	797.901	4295.5	3392.35
837.8274	799.9678	4214.85	3306.6
837.9724	802.0339	4171.25	3264.65
838.1175	804.0993	4161.95	3246.4
838.2626	806.1641	4130.1	3223.15
838.4076	808.2282	4082.55	3177.4
838.5527	810.2916	4059.15	3151.05
838.6978	812.3544	4035.3	3130.15
838.8428	814.4164	3999.25	3096.25
838.9879	816.4778	4021.8	3112.6
839.133	818.5385	4050.55	3141.2
839.2781	820.5986	4106	3196.9
839.4232	822.658	4213.85	3301.6
839.5682	824.7166	4393.15	3482.3
839.7133	826.7747	4651.75	3742.5
839.8584	828.832	4911.6	4003.8
840.0035	830.8886	5119.75	4211.55
840.1486	832.9446	5212.6	4300.6
840.2937	834.9999	5118.5	4207.3
840.4388	837.0545	4950.8	4040.6
840.5839	839.1085	4772.7	3860.35
840.729	841.1618	4616.9	3703.7
840.8741	843.2143	4497.55	3586.65
841.0192	845.2662	4401.55	3491.5
841.1643	847.3175	4325.15	3412.9
841.3095	849.368	4277.65	3362.7
841.4546	851.4179	4234.55	3322.05
841.5997	853.467	4209.95	3301.2
841.7448	855.5155	4167.2	3256.05
841.8899	857.5633	4168.55	3258.15
842.0351	859.6105	4106.4	3193.8
842.1802	861.6569	4085.85	3174.05
842.3253	863.7027	4055.95	3142
842.4704	865.7478	4032.15	3114.8
842.6156	867.7922	4013.7	3100.85
842.7607	869.8359	3990.8	3075.85
842.9058	871.8789	4013.15	3100
843.0509	873.9212	4050.25	3103.5
843.1961	875.9629	4042.95	3130.8
843.3412	878.0039	4094	3182.4
843.4863	880.0441	4128.05	3218.45
843.6315	882.0837	4158.8	3243.6
843.7766	884.1226	4179.45	3266.2
843.9218	886.1609	4229.4	3316.45
844.0669	888.1984	4314.8	3405.35
844.212	890.2352	4378.45	3466.1
844.3572	892.2714	4404.05	3485.45
844.5023	894.3069	4368.5	3452.4
844.6475	896.3416	4302.15	3388.95
844.7926	898.3757	4210.9	3298.4
844.9377	900.4091	4184.5	3270.8
845.0829	902.4418	4152	3232.45
845.228	904.4739	4163.9	3245.3
845.3732	906.5052	4211.05	3294.55
845.5183	908.5358	4193.4	3278.3
845.6635	910.5658	4135.85	3221.3
845.8086	912.595	4039.65	3126.6
845.9538	914.6236	3946.9	3032.65
846.0989	916.6515	3878.1	2960.15
846.2441	918.6786	3844.9	2929.25
846.3892	920.7051	3825.3	2907.8
846.5344	922.7309	3831.85	2914.9
846.6795	924.756	3848.4	2929.9
846.8246	926.7804	3859.9	2941.15
846.9698	928.8041	3884.45	2967.85
847.1149	930.8272	3916.75	2998.35
847.2601	932.8495	3916.7	2997.5
847.4052	934.8711	3925.15	3007.65
847.5504	936.892	3912.4	2994.8
847.6955	938.9123	3933.05	3015.15
847.8407	940.9318	3942.15	3027.1
847.9858	942.9506	3979.15	3062
848.131	944.9688	3948.2	3029.65
848.2761	946.9862	3905.25	2989.55
848.4213	949.003	3810.75	2893.7
848.5664	951.019	3774.7	2855.1
848.7115	953.0344	3737.7	2819.7
848.8567	955.0491	3728.15	2807.65
849.0018	957.063	3735.55	2816.35
849.147	959.0763	3767.6	2851.45
849.2921	961.0888	3782.3	2864.1
849.4373	963.1007	3803.85	2886.1
849.5824	965.1119	3802.3	2889.5
849.7275	967.1223	3787.1	2877.7
849.8727	969.1321	3777.2	2872.5
850.0178	971.1412	3770.8	2858.5
850.1629	973.1495	3779.6	2863.45
850.3081	975.1572	3809.1	2857.7
850.4532	977.1641	3782.75	2866
850.5983	979.1704	3772.9	2855.3
850.7435	981.1759	3761.9	2839.9
850.8886	983.1808	3753.15	2838.05
851.0337	985.1849	3768.9	2840.05
851.1788	987.1884	3766.55	2846.55
851.324	989.1911	3812.85	2891.65
851.4691	991.1932	3840.1	2922.7
851.6142	993.1945	3858.1	2939.8
851.7593	995.1951	3839.35	2919.05
851.9045	997.1951	3830.25	2905.85
852.0496	999.1943	3814.35	2895.35
852.1947	1001.1928	3821.65	2901.15
852.3398	1003.1906	3854.95	2939.45
852.4849	1005.1877	3925.55	3008.1
852.63	1007.1841	3964.15	3045.8
852.7751	1009.1798	3975.75	3057.85
852.9202	1011.1748	3960.05	3042.8
853.0653	1013.1691	3894.65	2975.55
853.2104	1015.1627	3817.5	2898.9
853.3555	1017.1556	3723.4	2806.7
853.5006	1019.1477	3682.05	2768.25
853.6457	1021.1392	3621.3	2710.9
853.7908	1023.1299	3599.7	2686.3
853.9359	1025.12	3617.75	2712.45
854.081	1027.1093	3638.6	2738.4
854.2261	1029.0979	3696.3	2794.85
854.3712	1031.0859	3751.85	2848.7
854.5163	1033.0731	3786.35	2875.1
854.6613	1035.0596	3773.55	2861.25
854.8064	1037.0454	3716.9	2802.9
854.9515	1039.0304	3672.75	2757.3
855.0965	1041.0148	3631.2	2718.85
855.2416	1042.9985	3589.55	2672.4
855.3867	1044.9814	3572.2	2657.15
855.5317	1046.9636	3546.75	2629.55
855.6768	1048.9452	3549.05	2634.75
855.8219	1050.926	3571.2	2657.95
855.9669	1052.9061	3589.45	2674.85
856.112	1054.8855	3605.05	2686.4
856.257	1056.8642	3613.15	2694.75
856.4021	1058.8421	3644.1	2725.8
856.5471	1060.8194	3652.4	2734.55
856.6921	1062.7959	3677.5	2759
856.8372	1064.7717	3704.85	2786.3
856.9822	1066.7469	3741.85	2825.1
857.1272	1068.7213	3782.75	2859.15
857.2723	1070.695	3817.05	2898.1
857.4173	1072.6679	3846.5	2929.25
857.5623	1074.6402	3876.6	2963.4
857.7073	1076.6117	3860.15	2939
857.8523	1078.5826	3801.45	2883.8
857.9973	1080.5527	3714	2792.9
858.1423	1082.5221	3673.15	2752.6
858.2873	1084.4908	3642	2725.95
858.4323	1086.4587	3623.65	2706.7
858.5773	1088.426	3634.05	2714.5
858.7223	1090.3925	3646.8	2723.2
858.8673	1092.3584	3662.95	2744.5
859.0123	1094.3235	3688.3	2769.75
859.1573	1096.2879	3739.5	2823.15
859.3022	1098.2515	3795.25	2877.65
859.4472	1100.2145	3885.55	2967.65
859.5922	1102.1767	3989.3	3068.45
859.7371	1104.1382	4103.95	3186.75
859.8821	1106.099	4205.35	3287.75
860.027	1108.0591	4303.65	3388.35
860.172	1110.0185	4380.9	3462.1
860.3169	1111.9771	4403.45	3488.45
860.4619	1113.9351	4397.85	3479.05
860.6068	1115.8923	4350.2	3429.5
860.7517	1117.8488	4313.55	3393.75
860.8967	1119.8045	4256	3338.35
861.0416	1121.7596	4180.8	3266.65
861.1865	1123.7139	4101.25	3185.6
861.3314	1125.6675	4088.3	3171.8
861.4763	1127.6204	4104.4	3190
861.6212	1129.5726	4073.1	3152.3
861.7661	1131.524	4047.05	3130.3
861.911	1133.4748	3960.25	3041.35
862.0559	1135.4248	3858.55	2938.15
862.2008	1137.3741	3799.65	2881.9
862.3457	1139.3226	3720.35	2803.7
862.4905	1141.2705	3692	2775.5
862.6354	1143.2176	3675.9	2755.45
862.7803	1145.164	3639.2	2721.15
862.9251	1147.1097	3618.55	2699.55
863.07	1149.0546	3554.8	2633.45
863.2148	1150.9989	3504.7	2587.15
863.3597	1152.9424	3473.25	2555.55
863.5045	1154.8852	3457	2538.5
863.6493	1156.8272	3434.85	2517.15
863.7942	1158.7686	3451.3	2529.35
863.939	1160.7092	3449.1	2530.9
864.0838	1162.6491	3481.3	2561.55
864.2286	1164.5883	3545.95	2628.65
864.3734	1166.5267	3592.2	2675.45
864.5182	1168.4644	3661.5	2742.15
864.663	1170.4014	3744	2821.65
864.8078	1172.3377	3877.05	2962.3
864.9526	1174.2732	4012.05	3097.2
865.0974	1176.2081	4201.85	3284.85
865.2421	1178.1421	4459.95	3537.35
865.3869	1180.0755	4714.95	3798.95
865.5317	1182.0082	4924	4007.55
865.6764	1183.9401	4992.3	4075.2
865.8212	1185.8713	4906.25	3996.4
865.9659	1187.8017	4729.55	3820.3
866.1106	1189.7315	4548	3643.05
866.2554	1191.6605	4350.15	3446.7
866.4001	1193.5888	4205.5	3297.95
866.5448	1195.5163	4126.7	3216.2
866.6895	1197.4432	4089.75	3172.3
866.8342	1199.3693	4067.7	3150.9
866.9789	1201.2947	4052.05	3135.05
867.1236	1203.2193	4026.6	3111.15
867.2683	1205.1432	4025.5	3109.75
867.413	1207.0664	3997.8	3083.2
867.5576	1208.9889	3997.45	3078.65
867.7023	1210.9106	3986.1	3069.4
867.847	1212.8316	3985.55	3072.35
867.9916	1214.7519	4005.4	3081
868.1363	1216.6715	4031.1	3118.2
868.2809	1218.5903	4075.8	3161.75
868.4255	1220.5084	4105.35	3190.2
868.5701	1222.4257	4179.05	3263.9
868.7148	1224.3424	4215.9	3304.45
868.8594	1226.2583	4284.05	3364.35
869.004	1228.1735	4341.4	3425.25
869.1486	1230.0879	4432.05	3518.2
869.2932	1232.0016	4536.05	3621.1
869.4377	1233.9146	4616.8	3699.95
869.5823	1235.8269	4646.75	3732.4
869.7269	1237.7384	4641.6	3727.85
869.8715	1239.6492	4606.1	3695
870.016	1241.5592	4620.55	3704.7
870.1606	1243.4686	4662.55	3749.05
870.3051	1245.3772	4777.4	3863.45
870.4496	1247.285	4895.65	3980.15
870.5941	1249.1922	5022.8	4107.5
870.7387	1251.0986	5141.2	4230.35
870.8832	1253.0042	5197.3	4284.25
871.0277	1254.9092	5277.35	4365.35
871.1722	1256.8134	5327.3	4414.9
871.3167	1258.7169	5382.25	4467.55
871.4611	1260.6196	5427.95	4512.8
871.6056	1262.5216	5536.7	4622.4
871.7501	1264.4229	5615.35	4703.2
871.8945	1266.3234	5706.95	4795.2
872.039	1268.2232	5756.6	4839.8
872.1834	1270.1223	5807.3	4891.1
872.3278	1272.0207	5805.55	4887.35
872.4723	1273.9183	5807.1	4885.05
872.6167	1275.8151	5799.55	4884.05
872.7611	1277.7113	5814.85	4900.15
872.9055	1279.6067	5864.1	4952.95
873.0499	1281.5014	6025.4	5107.7
873.1943	1283.3953	6272	5358.1
873.3386	1285.2885	6580.4	5667.55
873.483	1287.181	6918.6	6003.8
873.6274	1289.0727	7179.75	6268.25
873.7717	1290.9637	7382.7	6470.6
873.9161	1292.854	7492.45	6579.2
874.0604	1294.7435	7460.85	6545.45
874.2047	1296.6323	7378.15	6464.95
874.349	1298.5204	7248.45	6331.45
874.4933	1300.4077	7097.25	6184.9
874.6376	1302.2943	6914	5999.9
874.7819	1304.1802	6719.45	5805.8
874.9262	1306.0653	6440.05	5523.8
875.0705	1307.9497	6192.25	5276.85
875.2147	1309.8333	5965.3	5052.55
875.359	1311.7162	5797.3	4883.15
875.5032	1313.5984	5681.7	4763.95
875.6475	1315.4798	5603.2	4688.85
875.7917	1317.3605	5550.35	4619.8
875.9359	1319.2405	5466.7	4551.4
876.0801	1321.1197	5340.35	4424.85
876.2243	1322.9982	5183.9	4264.8
876.3685	1324.876	4997.45	4081.9
876.5127	1326.753	4834.5	3918.8
876.6569	1328.6293	4720.8	3803.95
876.801	1330.5048	4627.4	3709.55
876.9452	1332.3796	4508.15	3596
877.0893	1334.2537	4478.55	3537.75
877.2335	1336.127	4408.1	3494.15
877.3776	1337.9996	4382.2	3468.8
877.5217	1339.8714	4370.55	3453.45
877.6658	1341.7426	4437.85	3479.75
877.8099	1343.6129	4389.8	3472.95
877.954	1345.4826	4386.95	3470.75
878.0981	1347.3515	4374.45	3453.85
878.2422	1349.2196	4368.75	3452.4
878.3862	1351.087	4383.1	3470.1
878.5303	1352.9537	4408.4	3493.5
878.6743	1354.8197	4455.5	3538.65
878.8184	1356.6849	4506.2	3593.1
878.9624	1358.5493	4586.15	3669.75
879.1064	1360.4131	4685.7	3772.45
879.2504	1362.276	4770.4	3859
879.3944	1364.1383	4789.3	3876.2
879.5384	1365.9998	4754.9	3833
879.6823	1367.8606	4605.7	3690.1
879.8263	1369.7206	4437.4	3522
879.9702	1371.5799	4311.8	3391.95
880.1142	1373.4384	4209.4	3293.7
880.2581	1375.2962	4093.9	3178.45
880.402	1377.1533	3939.95	3026.7
880.5459	1379.0096	3773.55	2858.75
880.6898	1380.8652	3633.05	2722.5
880.8337	1382.7201	3490.95	2578.3
880.9776	1384.5742	3389.1	2474.15
881.1215	1386.4275	3319.25	2403.45
881.2653	1388.2802	3272.25	2359
881.4092	1390.132	3215.05	2301.45
881.553	1391.9832	3193.95	2276.1
881.6968	1393.8336	3144.8	2229
881.8406	1395.6832	3142.5	2230.35
881.9844	1397.5322	3126.05	2212.25
882.1282	1399.3803	3111.7	2194
882.272	1401.2278	3094.5	2182.3
882.4158	1403.0745	3080.45	2167.6
882.5595	1404.9204	3070.8	2156.6
882.7033	1406.7656	3088.35	2174.25
882.847	1408.6101	3083.3	2169.8
882.9908	1410.4538	3104.05	2188.1
883.1345	1412.2968	3128.4	2214.3
883.2782	1414.139	3141.3	2227.05
883.4219	1415.9805	3166.6	2255.15
883.5656	1417.8213	3206.35	2288.55
883.7092	1419.6613	3251.65	2339.8
883.8529	1421.5006	3331.3	2417.75
883.9965	1423.3391	3420	2505.4
884.1402	1425.1769	3524.75	2611.55
884.2838	1427.0139	3720	2807.05
884.4274	1428.8502	3936.2	3023.85
884.571	1430.6858	4169.6	3255.35
884.7146	1432.5206	4327.65	3418.25
884.8582	1434.3547	4426.2	3513.5
885.0018	1436.188	4441.75	3529.5
885.1453	1438.0206	4404.3	3492.1
885.2889	1439.8524	4338.5	3426.85
885.4324	1441.6835	4269.1	3355
885.5759	1443.5139	4245.3	3332.45
885.7194	1445.3435	4216.9	3303.65
885.8629	1447.1724	4210.05	3302.2
886.0064	1449.0005	4197.6	3286.95
886.1499	1450.8279	4170	3258
886.2933	1452.6545	4159.05	3247.3
886.4368	1454.4804	4173.8	3264.85
886.5802	1456.3056	4186.5	3271.05
886.7237	1458.13	4159.8	3247
886.8671	1459.9536	4084.85	3176.2
887.0105	1461.7766	3988.4	3075.3
887.1539	1463.5987	3857.7	2945.8
887.2972	1465.4202	3712.75	2802.1
887.4406	1467.2409	3574.55	2661.75
887.584	1469.0608	3460.8	2550.55
887.7273	1470.88	3323.4	2410.4
887.8706	1472.6984	3239.55	2326.8
888.0139	1474.5161	3156.95	2241.95
888.1572	1476.3331	3088.45	2178.9
888.3005	1478.1493	3042.4	2131.25
888.4438	1479.9648	3009.9	2098.85
888.5871	1481.7795	2978.3	2067.85
888.7303	1483.5935	2975.95	2065.05
888.8736	1485.4067	2949	2035.5
889.0168	1487.2192	2928.75	2019.05
889.16	1489.031	2915.15	2003.9
889.3032	1490.842	2903.5	1996.7
889.4464	1492.6522	2895.05	1986.8
889.5896	1494.4618	2875.3	1965.15
889.7327	1496.2705	2865.2	1955.75
889.8759	1498.0785	2864.75	1953.65
890.019	1499.8858	2829.55	1919
890.1622	1501.6924	2807.35	1899
890.3053	1503.4981	2797.5	1887.9
890.4484	1505.3032	2786.15	1875.35
890.5914	1507.1075	2757.75	1847.1
890.7345	1508.911	2743.5	1832.75
890.8776	1510.7138	2720.75	1808.4
891.0206	1512.5159	2693.85	1784.15
891.1637	1514.3172	2684.15	1777.3
891.3067	1516.1178	2664.75	1756.35
891.4497	1517.9176	2653.95	1742.4
891.5927	1519.7166	2631.35	1723.2
891.7357	1521.515	2631.3	1715.5
891.8786	1523.3126	2615.3	1708
892.0216	1525.1094	2595.1	1686.25
892.1645	1526.9055	2597.35	1689.3
892.3074	1528.7008	2596.75	1690.5
892.4503	1530.4954	2579.65	1672.1
892.5932	1532.2893	2572.15	1667
892.7361	1534.0824	2563.55	1654.45
892.879	1535.8747	2575.1	1671.05
893.0218	1537.6663	2568.3	1662.8
893.1647	1539.4572	2563.85	1656.5
893.3075	1541.2473	2566.6	1659.65
893.4503	1543.0367	2586.55	1682.9
893.5931	1544.8253	2600.8	1690.5
893.7359	1546.6132	2612.1	1703.4
893.8787	1548.4003	2615.8	1699.6
894.0214	1550.1867	2661.8	1749.25
894.1642	1551.9723	2685.75	1778.15
894.3069	1553.7572	2733.75	1828.85
894.4496	1555.5414	2792.05	1887.15
894.5923	1557.3247	2866.25	1963.45
894.735	1559.1074	2962.25	2060.3
894.8777	1560.8893	3037.3	2137
895.0204	1562.6705	3123.8	2223.95
895.163	1564.4509	3171.5	2269.8
895.3056	1566.2305	3221.55	2321.45
895.4482	1568.0094	3240.6	2340.1
895.5908	1569.7876	3248.05	2349
895.7334	1571.565	3226.3	2323.5
895.876	1573.3417	3220.5	2317.2
896.0186	1575.1176	3224.6	2323
896.1611	1576.8928	3228.8	2328.35
896.3036	1578.6672	3248.4	2353.3
896.4461	1580.4409	3278.5	2383.2
896.5886	1582.2138	3310.45	2410.6
896.7311	1583.986	3368.05	2466.85
896.8736	1585.7575	3428	2527.85
897.0161	1587.5282	3489.1	2595.35
897.1585	1589.2981	3551.4	2654.45
897.3009	1591.0673	3608.2	2713.2
897.4433	1592.8358	3674.15	2777.95
897.5857	1594.6035	3722.35	2822
897.7281	1596.3704	3745	2844.4
897.8705	1598.1366	3799.4	2900.85
898.0128	1599.9021	3855.5	2957.15
898.1551	1601.6668	3910.2	3010.3
898.2975	1603.4308	3971.5	3073.15
898.4398	1605.194	4034.6	3132.3
898.5821	1606.9564	4142.6	3247.45
898.7243	1608.7182	4262.7	3367.4
898.8666	1610.4791	4413.3	3524.35
899.0088	1612.2394	4568.8	3680.15
899.1511	1613.9988	4771.05	3880.1
899.2933	1615.7576	4898.3	4004.5
899.4355	1617.5156	5011.55	4107.6
899.5776	1619.2728	5021	4119.85
899.7198	1621.0293	4941.35	4045.15
899.862	1622.785	4806.45	3907.4
900.0041	1624.54	4605.3	3707.45
900.1462	1626.2942	4397.45	3504.35
900.2883	1628.0477	4171.35	3273.4
900.4304	1629.8005	3975.5	3076.3
900.5725	1631.5525	3789.45	2897.6
900.7145	1633.3037	3654.85	2762.65
900.8566	1635.0542	3534.9	2643.55
900.9986	1636.804	3428.75	2534.95
901.1406	1638.553	3433.75	2459.05
901.2826	1640.3013	3323.1	2427.95
901.4245	1642.0488	3285.85	2391.8
901.5665	1643.7955	3280.3	2388.6
901.7085	1645.5416	3306.35	2413.6
901.8504	1647.2868	3337.75	2443.75
901.9923	1649.0313	3373.2	2480.4
902.1342	1650.7751	3432.55	2534.8
902.2761	1652.5181	3503.2	2610.05
902.4179	1654.2604	3563.35	2673.65
902.5598	1656.0019	3642.35	2750.55
902.7016	1657.7427	3762.15	2870.8
902.8434	1659.4828	3873.5	2976.45
902.9852	1661.222	3936.45	3038.95
903.127	1662.9606	3927.75	3036.45
903.2687	1664.6984	3843.55	2947.75
903.4105	1666.4354	3652.75	2758.75
903.5522	1668.1717	3429.65	2536.55
903.6939	1669.9072	3204	2308.45
903.8356	1671.642	3003.8	2105.55
903.9773	1673.3761	2829.05	1934.75
904.119	1675.1094	2701.8	1807.95
904.2606	1676.8419	2598.8	1704.3
904.4022	1678.5737	2528.3	1634.85
904.5439	1680.3048	2450.45	1555.9
904.6855	1682.0351	2394.4	1500.05
904.827	1683.7646	2359.45	1462.65
904.9686	1685.4934	2321.85	1428.5
905.1101	1687.2215	2275.95	1380.35
905.2517	1688.9488	2249.85	1357.2
905.3932	1690.6754	2212.85	1319.35
905.5347	1692.4012	2212.15	1319.1
905.6761	1694.1263	2184.2	1291.25
905.8176	1695.8506	2169.1	1276.9
905.9591	1697.5742	2152.75	1262.7
906.1005	1699.297	2132.4	1242.7
906.2419	1701.0191	2111.4	1224.55
906.3833	1702.7404	2094.5	1202.95
906.5246	1704.461	2089.85	1195.85
906.666	1706.1808	2083.3	1189.6
906.8073	1707.8999	2076.75	1185
906.9487	1709.6182	2060.15	1168.1
907.09	1711.3358	2049.3	1160.8
907.2313	1713.0527	2029.9	1140.8
907.3725	1714.7688	2031.25	1137.15
907.5138	1716.4841	2012.35	1120.4
907.655	1718.1987	2017.2	1122.4
907.7962	1719.9126	2007.8	1118.2
907.9374	1721.6257	1991.7	1099.8
908.0786	1723.338	1986.5	1098
908.2198	1725.0496	1983.45	1094.25
908.3609	1726.7605	1989.45	1098
908.502	1728.4706	1985.6	1095.25
908.6431	1730.18	1972.85	1080
908.7842	1731.8886	1963.4	1074.45
908.9253	1733.5964	1978.25	1068.1
909.0664	1735.3036	1968.65	1074
909.2074	1737.0099	1947.1	1057.4
909.3484	1738.7156	1936.25	1049.05
909.4894	1740.4204	1930.8	1043.55
909.6304	1742.1246	1923.4	1032.05
909.7714	1743.8279	1917.3	1028.3
909.9123	1745.5306	1916.8	1025.6
910.0532	1747.2325	1897.85	1010.25
910.1941	1748.9336	1888.55	1000.15
910.335	1750.634	1895.05	1003.15
910.4759	1752.3336	1884.35	993.6
910.6168	1754.0325	1882.95	995.85
910.7576	1755.7307	1877.65	992.65
910.8984	1757.4281	1880.6	992.6
911.0392	1759.1247	1883.35	983.55
911.18	1760.8206	1878.95	982.9
911.3208	1762.5158	1866	974
911.4615	1764.2102	1866.85	978.05
911.6022	1765.9039	1855.5	966.65
911.7429	1767.5968	1857.45	968.65
911.8836	1769.289	1851.9	962.1
912.0243	1770.9804	1845.05	954.95
912.1649	1772.6711	1843.75	953.4
912.3056	1774.361	1845.3	954.8
912.4462	1776.0502	1843.3	952.5
912.5868	1777.7386	1839.3	946.5
912.7274	1779.4263	1835.95	948.25
912.8679	1781.1132	1837.7	950.25
913.0084	1782.7994	1826.4	937.05
913.149	1784.4849	1821.55	934.45
913.2895	1786.1696	1844.8	938.3
913.4299	1787.8535	1812.55	924.5
913.5704	1789.5367	1813.45	927.4
913.7108	1791.2192	1818.75	932.05
913.8513	1792.9009	1835.1	920.7
913.9917	1794.5818	1812.55	921.15
914.132	1796.2621	1803.55	914.45
914.2724	1797.9415	1807.6	916.8
914.4128	1799.6202	1796.95	906.9
914.5531	1801.2982	1801.2	910
914.6934	1802.9755	1794.1	902.45
914.8337	1804.6519	1797.75	908.5
914.9739	1806.3277	1782	893
915.1142	1808.0027	1784.05	897.55
915.2544	1809.6769	1775.55	889.75
915.3946	1811.3504	1776.5	888.5
915.5348	1813.0231	1779.2	890.5
915.675	1814.6951	1774.35	885.9
915.8151	1816.3664	1785.15	892.4
915.9553	1818.0369	1778.4	888.7
916.0954	1819.7067	1767	878.95
916.2355	1821.3757	1772.55	884
916.3755	1823.044	1769	880
916.5156	1824.7115	1772.45	883.7
916.6556	1826.3783	1765.85	877.85
916.7956	1828.0443	1756.1	868
916.9356	1829.7096	1760.65	871.35
917.0756	1831.3741	1764.3	872.4
917.2155	1833.0379	1754.65	867.15
917.3555	1834.701	1752.35	863.85
917.4954	1836.3633	1749.85	863.65
917.6353	1838.0248	1749.45	862
917.7751	1839.6856	1748.65	859.75
917.915	1841.3457	1738.05	850.6
918.0548	1843.005	1738.35	850.15
918.1946	1844.6636	1741.45	853.8
918.3344	1846.3214	1741.35	851.4
918.4742	1847.9785	1746	859.05
918.6139	1849.6349	1742.75	851.5
918.7537	1851.2904	1745.25	845.9
918.8934	1852.9453	1740.1	849
919.0331	1854.5994	1730.4	840.75
919.1727	1856.2528	1737.35	844.1
919.3124	1857.9054	1730.6	841.5
919.452	1859.5572	1735.35	847
919.5916	1861.2083	1730	840.9
919.7312	1862.8587	1720.15	831.85
919.8708	1864.5084	1724.7	835.45
920.0103	1866.1572	1716.5	827.25
920.1498	1867.8054	1716.9	827.55
920.2893	1869.4528	1717.1	825.95
920.4288	1871.0994	1709.7	821.65
920.5683	1872.7453	1700.65	811.7
920.7077	1874.3905	1714.15	818.45
920.8471	1876.0349	1714.8	825.55
920.9865	1877.6786	1711.1	820
921.1259	1879.3215	1706.3	818
921.2653	1880.9637	1700.1	810.6
921.4046	1882.6051	1702.45	816.5
921.5439	1884.2458	1699.7	810.5
921.6832	1885.8858	1700.85	813.1
921.8225	1887.525	1699.75	813.05
921.9617	1889.1634	1687.85	800.85
922.101	1890.8011	1686.1	796.8
922.2402	1892.4381	1673.6	785.1
922.3794	1894.0743	1679.95	790.25
922.5185	1895.7098	1685.05	796.5
922.6577	1897.3446	1671.3	782.35
922.7968	1898.9786	1686.2	791.75
922.9359	1900.6118	1679.8	791.35
923.075	1902.2443	1668.95	779.85
923.214	1903.8761	1676.35	789.1
923.3531	1905.5071	1663.35	775.05
923.4921	1907.1374	1663.3	775.25
923.6311	1908.7669	1662.55	775.2
923.77	1910.3957	1659.5	770.1
923.909	1912.0237	1657.55	768.6
924.0479	1913.651	1645.35	755.7
924.1868	1915.2776	1650.95	765.15
924.3257	1916.9034	1650.45	764.3
924.4646	1918.5285	1653.05	769.3
924.6034	1920.1528	1639.45	749.5
924.7422	1921.7764	1637.65	749.3
924.881	1923.3992	1643.7	756.25
925.0198	1925.0213	1626.15	737.8
925.1586	1926.6427	1629.45	744.5
925.2973	1928.2633	1708.1	735.85
925.436	1929.8832	1631.55	740.1
925.5747	1931.5023	1626.05	737.9
925.7134	1933.1207	1622.2	733.6
925.852	1934.7383	1619.75	732.05
925.9906	1936.3552	1608.8	719.95
926.1292	1937.9714	1609.55	719.45
926.2678	1939.5868	1607.35	716.35
926.4064	1941.2015	1613.65	723.7
926.5449	1942.8154	1613.7	724.75
926.6834	1944.4286	1602.35	713.65
926.8219	1946.041	1620.2	711.35
926.9604	1947.6528	1606.9	713.35
927.0988	1949.2637	1597.75	711.4
927.2372	1950.8739	1599.35	712
927.3756	1952.4834	1600.1	714.6
927.514	1954.0921	1590.05	704.9
927.6523	1955.7001	1594.75	704.65
927.7907	1957.3074	1590	705.25
927.929	1958.9139	1575.7	688.55
928.0673	1960.5197	1584.05	695
928.2055	1962.1247	1576.15	691
928.3438	1963.729	1571.5	687.5
928.482	1965.3325	1572.35	679.35
928.6202	1966.9353	1566.15	683.3
928.7584	1968.5374	1571.5	684
928.8965	1970.1387	1561.45	675.65
929.0346	1971.7393	1563.55	676.3
929.1727	1973.3392	1557.45	668.85
929.3108	1974.9383	1552.15	667.35
929.4489	1976.5366	1553.65	668.8
929.5869	1978.1342	1551.35	665.05
929.7249	1979.7311	1547.9	662.15
929.8629	1981.3273	1547.05	662.5
930.0009	1982.9227	1544.95	656.45
930.1388	1984.5173	1542.9	659.35
930.2767	1986.1112	1536.4	653.6
930.4146	1987.7044	1535.85	651.9
930.5525	1989.2968	1538.2	651.4
930.6904	1990.8885	1539	652.05
930.8282	1992.4795	1534.95	649.7
930.966	1994.0697	1526.95	643.35
931.1038	1995.6592	1528.55	644.95
931.2415	1997.2479	1526.1	642.4
931.3793	1998.8359	1525.3	642
931.517	2000.4232	1523.6	642.55
931.6547	2002.0097	1520.85	638.95
931.7923	2003.5955	1523.45	640.05
931.93	2005.1805	1516.6	632.85
932.0676	2006.7648	1514.05	630.4
932.2052	2008.3484	1511.1	626.9
932.3427	2009.9312	1511.1	627
932.4803	2011.5133	1508.75	628.8
932.6178	2013.0946	1505	623.1
932.7553	2014.6752	1510.05	628.85
932.8928	2016.2551	1507.05	624.85
933.0302	2017.8342	1505.2	620.95
933.1676	2019.4126	1499.75	616.05
933.305	2020.9902	1490.5	610.65
933.4424	2022.5672	1495.4	611.65
933.5798	2024.1433	1497.65	611.3
933.7171	2025.7188	1498.2	617.6
933.8544	2027.2935	1497.7	615.1
933.9917	2028.8674	1489.6	609
934.129	2030.4406	1487.95	609.1
934.2662	2032.0131	1481.8	602.8
934.4034	2033.5849	1480.75	591.95
934.5406	2035.1559	1480.1	599.25
934.6778	2036.7261	1479	598
934.8149	2038.2957	1476.7	591.8
934.952	2039.8645	1481.1	598.45
935.0891	2041.4325	1474.2	587.55
935.2262	2042.9998	1469.6	587.15
935.3632	2044.5664	1473.2	588.8
935.5002	2046.1323	1471.1	589.95
935.6372	2047.6974	1472.95	592.15
935.7742	2049.2617	1472.8	591.95
935.9111	2050.8254	1472.15	584.85
936.048	2052.3883	1472.55	588.7
936.1849	2053.9504	1461.45	577
936.3218	2055.5118	1464.45	581
936.4586	2057.0725	1460.15	574.4
936.5955	2058.6325	1462.3	578.35
936.7323	2060.1917	1455.25	574.2
936.869	2061.7502	1467.35	583.85
937.0058	2063.3079	1453.45	571.4
937.1425	2064.8649	1463.05	578.45
937.2792	2066.4212	1447.7	565.45
937.4159	2067.9767	1452.05	569.25
937.5525	2069.5315	1456.1	573.65
937.6891	2071.0856	1443.4	562.25
937.8257	2072.6389	1447.75	561.65
937.9623	2074.1915	1441.45	562.65
938.0989	2075.7433	1442.95	559.25
938.2354	2077.2945	1437.7	556.85
938.3719	2078.8448	1431.7	548.15
938.5084	2080.3945	1433.05	549.3
938.6448	2081.9434	1440.65	556.65
938.7812	2083.4916	1438.95	555.4
938.9176	2085.039	1432.5	544.5
939.054	2086.5857	1435.95	549.3
939.1903	2088.1317	1432.1	546.2
939.3267	2089.677	1434.6	546.55
939.463	2091.2215	1432.5	544.05
939.5992	2092.7652	1436.35	546.9
939.7355	2094.3083	1432.1	547.15
939.8717	2095.8506	1419.15	533.75
940.0079	2097.3921	1425.2	540.4
940.1441	2098.933	1423.65	538.75
940.2802	2100.4731	1421.75	538.55
940.4163	2102.0124	1441.75	540.25
940.5524	2103.5511	1422.5	535.9
940.6885	2105.089	1415.95	530.15
940.8245	2106.6261	1417.4	532.9
940.9606	2108.1626	1416.95	532.15
941.0965	2109.6983	1445.35	531.2
941.2325	2111.2332	1415.75	528.9
941.3684	2112.7675	1414.35	528.7
941.5044	2114.301	1413.65	525.35
941.6403	2115.8337	1409.45	524.15
941.7761	2117.3657	1410.5	525
941.912	2118.897	1409	525.1
942.0478	2120.4276	1410.85	518.45
942.1835	2121.9575	1401	514.85
942.3193	2123.4866	1403.25	512.5
942.455	2125.0149	1402.55	514.4
942.5907	2126.5426	1395.35	511.45
942.7264	2128.0695	1401.5	515.85
942.8621	2129.5956	1388.05	505.45
942.9977	2131.1211	1394.45	507
943.1333	2132.6458	1394.8	510.75
943.2689	2134.1698	1393.4	504.5
943.4044	2135.693	1397.2	507.75
943.54	2137.2155	1392.5	502.95
943.6755	2138.7373	1398.4	513.85
943.8109	2140.2584	1382.2	500.35
943.9464	2141.7787	1388.5	501.05
944.0818	2143.2983	1381.7	501.75
944.2172	2144.8171	1378.05	496.7
944.3526	2146.3353	1379.5	493.35
944.4879	2147.8527	1376.15	493.2
944.6232	2149.3693	1382.75	499.15
944.7585	2150.8853	1382.3	495.55
944.8938	2152.4005	1368.6	482
945.029	2153.9149	1377.8	490.7
945.1642	2155.4287	1374.3	487.9
945.2994	2156.9417	1374.7	487.35
945.4346	2158.454	1377.35	490.05
945.5697	2159.9655	1362.4	478.6
945.7048	2161.4764	1372.2	488
945.8399	2162.9865	1361.6	475.95
945.9749	2164.4958	1362	477.7
946.1099	2166.0045	1361.35	475.15
946.2449	2167.5124	1361.25	475.55
946.3799	2169.0195	1367.5	480.95
946.5148	2170.526	1358.35	471.95
946.6498	2172.0317	1352.05	465.9
946.7846	2173.5367	1358.85	474.15
946.9195	2175.0409	1358.55	473.75
947.0543	2176.5445	1358.75	472.35
947.1891	2178.0473	1356.6	470.3
947.3239	2179.5494	1355.5	465.05
947.4587	2181.0507	1357.9	474.7
947.5934	2182.5513	1354.9	469.9
947.7281	2184.0512	1356.05	470.45
947.8628	2185.5504	1348.25	462
947.9974	2187.0488	1346	461.9
948.132	2188.5465	1354.3	470.6
948.2666	2190.0435	1339.4	455.7
948.4012	2191.5397	1341.9	453.95
948.5357	2193.0353	1343.7	456.65
948.6702	2194.5301	1345.15	456.45
948.8047	2196.0241	1338.55	450.55
948.9392	2197.5175	1345.1	457.55
949.0736	2199.0101	1341.8	450.75
949.208	2200.502	1335.05	449.4
949.3424	2201.9931	1331.1	447.5
949.4767	2203.4835	1331.05	445.65
949.611	2204.9733	1349.45	450
949.7453	2206.4622	1331.6	449.15
949.8796	2207.9505	1331.2	444.55
950.0138	2209.438	1324.4	440.95
950.148	2210.9248	1323.55	437.85
950.2822	2212.4109	1324.9	439.85
950.4164	2213.8962	1328.15	437.4
950.5505	2215.3809	1327.15	438.3
950.6846	2216.8648	1327.75	439.2
950.8186	2218.3479	1331.9	440.1
950.9527	2219.8304	1323.4	431.85
951.0867	2221.3121	1325.15	435.25
951.2207	2222.7931	1317.95	430.2
951.3546	2224.2733	1316	432
951.4886	2225.7529	1310.15	423.1
951.6225	2227.2317	1314.3	424.45
951.7563	2228.7098	1310.05	425.8
951.8902	2230.1872	1313.05	428.6
952.024	2231.6638	1306.85	422.45
952.1578	2233.1397	1306.75	417.55
952.2916	2234.6149	1304.05	419.85
952.4253	2236.0894	1304.75	420.1
952.559	2237.5632	1312.75	417.6
952.6927	2239.0362	1306.25	421.05
952.8263	2240.5085	1303.3	417.35
952.9599	2241.9801	1295.6	409
953.0935	2243.4509	1294	404.35
953.2271	2244.921	1292.05	403.45
953.3606	2246.3904	1299.95	411.4
953.4941	2247.8591	1283.95	397.7
953.6276	2249.3271	1290.1	401.45
953.7611	2250.7943	1293.75	406.05
953.8945	2252.2608	1285.6	399.3
954.0279	2253.7266	1289.6	401.05
954.1612	2255.1917	1285.3	401.25
954.2946	2256.656	1281.2	395.4
954.4279	2258.1197	1282.25	397.65
954.5612	2259.5826	1282.35	395.95
954.6944	2261.0447	1280.05	393.85
954.8276	2262.5062	1286.35	399.35
954.9608	2263.9669	1285.35	394.95
955.094	2265.4269	1274.8	388.55
955.2271	2266.8862	1272.4	384.9
955.3602	2268.3448	1276.15	389.3
955.4933	2269.8026	1278.9	394.9
955.6264	2271.2598	1276.8	391.75
955.7594	2272.7162	1272.95	388.1
955.8924	2274.1719	1269.8	383.15
956.0253	2275.6268	1273.2	384.95
956.1583	2277.0811	1278.95	391.9
956.2912	2278.5346	1276.1	389.6
956.4241	2279.9874	1265.7	379.3
956.5569	2281.4395	1270.95	388.35
956.6897	2282.8908	1273.05	382.5
956.8225	2284.3414	1269.9	381.85
956.9553	2285.7914	1269.85	383.3
957.088	2287.2406	1272.15	383.65
957.2207	2288.689	1264.35	377.2
957.3534	2290.1368	1274.65	384.7
957.486	2291.5838	1271.75	380.45
957.6186	2293.0302	1266.65	377.1
957.7512	2294.4758	1272.8	385.35
957.8838	2295.9206	1261.5	370.35
958.0163	2297.3648	1260.6	373.4
958.1488	2298.8082	1259.6	372.75
958.2813	2300.251	1262.15	373.6
958.4137	2301.693	1265.2	375.55
958.5461	2303.1343	1253.8	365.55
958.6785	2304.5748	1256.75	370.95
958.8108	2306.0147	1257.3	370.8
958.9432	2307.4538	1257.75	369.25
959.0754	2308.8922	1253.8	370.75
959.2077	2310.3299	1249.5	364.35
959.3399	2311.7669	1256.35	369.85
959.4721	2313.2031	1251.25	365.55
959.6043	2314.6387	1250.4	365.6
959.7365	2316.0735	1244.45	357.4
959.8686	2317.5076	1250.2	363.85
960.0006	2318.941	1247.5	358.75
960.1327	2320.3737	1244.25	356.85
960.2647	2321.8056	1250.1	359.95
960.3967	2323.2369	1243.75	354
960.5287	2324.6674	1244.8	356.35
960.6606	2326.0972	1244.75	357
960.7925	2327.5263	1241.05	353.95
960.9244	2328.9547	1239.75	351.2
961.0562	2330.3823	1246.75	356.45
961.1881	2331.8092	1246.55	355.15
961.3198	2333.2355	1245.15	355.45
961.4516	2334.661	1242.15	355.15
961.5833	2336.0858	1233.95	342.9
961.715	2337.5098	1238.05	350.4
961.8467	2338.9332	1235.85	347.75
961.9783	2340.3558	1232.65	342.15
962.1099	2341.7778	1233.9	347.7
962.2415	2343.199	1229.45	340.65
962.373	2344.6195	1228.35	342.1
962.5045	2346.0393	1224.1	338.8
962.636	2347.4583	1227.35	340.85
962.7675	2348.8767	1233	345.35
962.8989	2350.2943	1232.75	341.95
963.0303	2351.7113	1230.35	341.6
963.1617	2353.1275	1231.1	340.8
963.293	2354.543	1241.8	344.25
963.4243	2355.9578	1234.55	346.3
963.5556	2357.3718	1228.25	342.2
963.6868	2358.7852	1227.6	339.25
963.818	2360.1978	1223.4	335.6
963.9492	2361.6098	1220.9	336.2
964.0803	2363.021	1229.25	339
964.2114	2364.4315	1223.05	334.1
964.3425	2365.8413	1223.6	335.8
964.4736	2367.2504	1218.9	333.7
964.6046	2368.6587	1215.35	329.8
964.7356	2370.0664	1218.15	330.75
964.8666	2371.4733	1211.7	323.15
964.9975	2372.8795	1213.9	327.15
965.1284	2374.285	1214.45	329.2
965.2593	2375.6899	1214.35	327.45
965.3901	2377.0939	1216.7	327.35
965.5209	2378.4973	1212.45	326.6
965.6517	2379.9	1210.9	322.9
965.7825	2381.3019	1213.8	326.95
965.9132	2382.7032	1212.1	327.1
966.0439	2384.1037	1208.5	323.4
966.1745	2385.5035	1202.1	316.85
966.3051	2386.9027	1203.9	318.4
966.4357	2388.3011	1210.7	322.85
966.5663	2389.6987	1202.95	318.95
966.6968	2391.0957	1202.1	316.5
966.8273	2392.492	1198.85	313.05
966.9578	2393.8876	1196.8	310.45
967.0882	2395.2824	1200.45	312.95
967.2186	2396.6765	1198.2	312.75
967.349	2398.07	1197.7	308.7
967.4793	2399.4627	1199.35	308.4
967.6097	2400.8547	1201.05	312.1
967.7399	2402.246	1205.15	314.1
967.8702	2403.6366	1193.6	304.45
968.0004	2405.0265	1193.6	307.5
968.1306	2406.4156	1194.9	304.8
968.2607	2407.8041	1191.95	300.85
968.3909	2409.1918	1198	307.85
968.521	2410.5789	1183.9	295.35
968.651	2411.9652	1186.85	297.6
968.781	2413.3508	1187.15	297.15
968.911	2414.7358	1186.5	297.9
969.041	2416.12	1181.3	293.4
969.1709	2417.5035	1181.35	293.85
969.3008	2418.8863	1185.15	297.05
969.4307	2420.2684	1184.4	296.15
969.5606	2421.6497	1189.65	301.7
969.6904	2423.0304	1179.75	292.95
969.8201	2424.4104	1179.45	290.5
969.9499	2425.7896	1183.4	288.85
970.0796	2427.1682	1177.85	291.7
970.2093	2428.546	1180.25	292.55
970.3389	2429.9232	1177.7	290
970.4685	2431.2996	1180.1	291.35
970.5981	2432.6753	1175	287.8
970.7277	2434.0503	1187.25	300.05
970.8572	2435.4246	1174.25	287.6
970.9867	2436.7982	1177.5	287.05
971.1161	2438.1711	1172.65	285.4
971.2456	2439.5433	1176.25	287.4
971.375	2440.9148	1182.55	290.2
971.5043	2442.2856	1172.05	287.2
971.6336	2443.6557	1171.7	282.95
971.7629	2445.025	1169.35	281.8
971.8922	2446.3937	1170.85	284.2
972.0214	2447.7617	1167.85	277.05
972.1506	2449.1289	1164.9	275.8
972.2798	2450.4955	1172.1	280.7
972.4089	2451.8613	1163.3	279
972.538	2453.2265	1167.25	280.4
972.6671	2454.5909	1165.8	276.7
972.7961	2455.9546	1162.7	276.9
972.9251	2457.3177	1156.3	270.4
973.0541	2458.68	1159.15	269.75
973.1831	2460.0416	1158.25	270.8
973.312	2461.4025	1165.6	274.3
973.4408	2462.7627	1172.2	272.8
973.5697	2464.1222	1157.45	273.75
973.6985	2465.4811	1157.65	270.1
973.8273	2466.8392	1156.55	270.85
973.956	2468.1966	1162.75	275.3
974.0847	2469.5533	1167.55	278.55
974.2134	2470.9093	1161.7	274.75
974.3421	2472.2645	1157.55	270.5
974.4707	2473.6191	1162.4	275.8
974.5993	2474.973	1157.05	272.5
974.7278	2476.3262	1158.7	269.25
974.8563	2477.6787	1149.9	265
974.9848	2479.0305	1149.4	263.9
975.1132	2480.3816	1152.5	262.15
975.2417	2481.7319	1151.8	263.15
975.37	2483.0816	1157.8	267.75
975.4984	2484.4306	1152.5	264
975.6267	2485.7789	1149.05	261.9
975.755	2487.1264	1150.3	264.55
975.8833	2488.4733	1152.2	267.8
976.0115	2489.8195	1166.15	262.85
976.1397	2491.165	1143.15	253.8
976.2678	2492.5097	1142.45	254.15
976.3959	2493.8538	1146.4	257.85
976.524	2495.1972	1150.6	263.75
976.6521	2496.5398	1143.95	257.15
976.7801	2497.8818	1147.35	260.3
976.9081	2499.2231	1143.1	256.5
977.036	2500.5637	1149.3	260.65
977.164	2501.9035	1143.45	255.1
977.2918	2503.2427	1144.75	254.6
977.4197	2504.5812	1137.1	249.15
977.5475	2505.919	1144.1	254.4
977.6753	2507.256	1141.95	254.8
977.8031	2508.5924	1139.8	252.1
977.9308	2509.9281	1140.15	247.9
978.0585	2511.2631	1137.95	251.6
978.1861	2512.5974	1135.1	249.85
978.3137	2513.9309	1135.45	248.35
978.4413	2515.2638	1168.45	251.75
978.5689	2516.596	1131.55	244.2
978.6964	2517.9275	1134.85	245.7
978.8239	2519.2583	1135.85	249.7
978.9513	2520.5884	1134.8	246.55
979.0788	2521.9178	1130	242.9
979.2062	2523.2465	1135.55	248.3
979.3335	2524.5745	1132.3	246.75
979.4608	2525.9018	1132.1	245.7
979.5881	2527.2284	1130.7	244.95
979.7154	2528.5543	1129.45	243.4
979.8426	2529.8796	1128.15	239.95
979.9698	2531.2041	1131.9	246.1
980.0969	2532.5279	1124.25	237.75
980.224	2533.851	1129.75	242.35
980.3511	2535.1735	1131.1	242.6
980.4781	2536.4952	1125.7	238.8
980.6052	2537.8163	1126.15	239
980.7321	2539.1366	1127.3	240.25
980.8591	2540.4562	1131.85	244.25
980.986	2541.7752	1127.8	240.95
981.1129	2543.0935	1129.1	241.85
981.2397	2544.411	1126.1	239.3
981.3665	2545.7279	1126.05	240.2
981.4933	2547.0441	1127.15	240.7
981.62	2548.3596	1129	238.6
981.7467	2549.6744	1124.1	235.3
981.8734	2550.9885	1135.6	239.7
982.0001	2552.3019	1124.75	238.65
982.1267	2553.6146	1124.05	237.4
982.2532	2554.9266	1118.55	232.2
982.3798	2556.2379	1124.2	238.05
982.5063	2557.5485	1119.25	231.75
982.6327	2558.8585	1126.5	233.1
982.7592	2560.1677	1125.4	235.1
982.8856	2561.4762	1116.1	230.25
983.0119	2562.7841	1124.05	233.7
983.1383	2564.0913	1120.65	234.45
983.2646	2565.3977	1120.3	234.6
983.3908	2566.7035	1121.95	237.7
983.517	2568.0086	1117.8	227.85
983.6432	2569.313	1115.95	228.9
983.7694	2570.6167	1125.45	233.3
983.8955	2571.9197	1116.7	230.85
984.0216	2573.222	1116.45	226.15
984.1476	2574.5236	1120.35	234.35
984.2737	2575.8246	1118.85	228.2
984.3996	2577.1248	1120.45	230.95
984.5256	2578.4244	1115.85	229.95
984.6515	2579.7232	1120.05	233.2
984.7774	2581.0214	1148.95	229.7
984.9032	2582.3189	1110.5	224.9
985.029	2583.6157	1116.95	226.5
985.1548	2584.9118	1115.7	227.9
985.2806	2586.2072	1113.7	227.25
985.4063	2587.5019	1118.55	232.9
985.5319	2588.7959	1115.15	228.1
985.6576	2590.0893	1121.8	234.75
985.7832	2591.3819	1116.15	229.9
985.9087	2592.6739	1112.55	228.2
986.0343	2593.9652	1113.2	224.9
986.1597	2595.2557	1117.8	230.45
986.2852	2596.5456	1116.6	229.65
986.4106	2597.8348	1117.95	232.05
986.536	2599.1234	1116.3	231.35
986.6614	2600.4112	1118.2	232.15
986.7867	2601.6983	1120.95	232.4
986.912	2602.9848	1116.8	229.9
987.0372	2604.2705	1126.15	233.75
987.1624	2605.5556	1117.1	231.7
987.2876	2606.84	1113.4	228.1
987.4128	2608.1237	1118.35	230.65
987.5379	2609.4067	1108.9	222.65
987.6629	2610.689	1119.25	225.5
987.788	2611.9707	1118	228.45
987.913	2613.2516	1117.85	226.15
988.0379	2614.5319	1109.85	224.2
988.1629	2615.8115	1107.3	222.75
988.2878	2617.0903	1108.15	222.1
988.4126	2618.3685	1109.05	223.95
988.5375	2619.6461	1102.7	215.35
988.6622	2620.9229	1104.35	219.8
988.787	2622.199	1109.4	225.65
988.9117	2623.4745	1101.65	216
989.0364	2624.7493	1103.55	219.6
989.161	2626.0234	1105.45	222.1
989.2857	2627.2968	1101.4	217.9
989.4102	2628.5695	1105.05	217.85
989.5348	2629.8415	1100.85	218.05
989.6593	2631.1128	1100.35	213.4
989.7837	2632.3835	1103.05	217.8
989.9082	2633.6535	1099.55	214.25
990.0326	2634.9228	1099.85	216.35
990.1569	2636.1914	1101.8	216.7
990.2812	2637.4593	1103.25	218.35
990.4055	2638.7265	1098.3	212.5
990.5298	2639.9931	1095.9	213.3
990.654	2641.259	1096.4	211.55
990.7782	2642.5242	1097.1	212.7
990.9023	2643.7887	1098.05	212.85
991.0264	2645.0525	1097.7	211.85
991.1505	2646.3156	1096.05	210.05
991.2745	2647.5781	1091.8	207.95
991.3985	2648.8398	1090.45	208.15
991.5225	2650.1009	1128	206.5
991.6464	2651.3613	1087.1	202.75
991.7703	2652.6211	1094.8	209.8
991.8942	2653.8801	1090.55	208.05
992.018	2655.1385	1098.9	212.7
992.1418	2656.3961	1093.2	208.45
992.2655	2657.6531	1093.85	206.25
992.3892	2658.9094	1090.85	206.3
992.5129	2660.1651	1088.8	204.75
992.6366	2661.42	1090.7	206.15
992.7602	2662.6743	1091.6	206.1
992.8837	2663.9279	1095.75	212.45
993.0073	2665.1808	1096.25	211.8
993.1307	2666.433	1094.7	210.4
993.2542	2667.6846	1096.2	212.05
993.3776	2668.9354	1100.25	210.5
993.501	2670.1856	1098.4	212.45
993.6244	2671.4351	1101.1	216.95
993.7477	2672.6839	1100.05	211.6
993.8709	2673.9321	1097.45	214.65
993.9942	2675.1795	1100.6	216.5
994.1174	2676.4263	1098.85	215.1
994.2405	2677.6724	1103.65	219.8
994.3637	2678.9179	1094.7	209.45
994.4868	2680.1626	1101	217.15
994.6098	2681.4067	1101.05	215.4
994.7328	2682.6501	1098.4	215.4
994.8558	2683.8928	1097.2	212.55
994.9788	2685.1348	1102.35	217.75
995.1017	2686.3761	1097.3	214.35
995.2245	2687.6168	1097.95	213.5
995.3474	2688.8568	1093.5	209.2
995.4702	2690.0961	1093.85	211
995.5929	2691.3348	1092.9	209
995.7156	2692.5727	1092.8	207.3
995.8383	2693.81	1084.2	200.35
995.961	2695.0466	1088.8	207.15
996.0836	2696.2826	1093.8	207.85
996.2062	2697.5178	1106.55	199.35
996.3287	2698.7524	1093.85	207.7
996.4512	2699.9863	1096.35	208.25
996.5737	2701.2195	1088.6	205.6
996.6961	2702.452	1090.65	206.4
996.8185	2703.6839	1094.4	209.65
996.9408	2704.9151	1096.7	215.5
997.0631	2706.1456	1098.55	211.7
997.1854	2707.3755	1103.8	217.45
997.3077	2708.6046	1105.65	217.2
997.4299	2709.8331	1104.5	218.85
997.552	2711.0609	1105.25	221.05
997.6742	2712.2881	1108.6	224.8
997.7963	2713.5145	1114.3	229.15
997.9183	2714.7403	1117.1	237.1
998.0403	2715.9654	1124.25	238.1
998.1623	2717.1899	1137.7	240.05
998.2842	2718.4136	1125.65	241.35
998.4062	2719.6367	1135.3	251.95
998.528	2720.8591	1143.65	254.35
998.6498	2722.0809	1143.3	258.55
998.7716	2723.3019	1152.85	265.45
998.8934	2724.5223	1153.95	268.25
999.0151	2725.7421	1154.6	269.9
999.1368	2726.9611	1154.75	268.45
999.2584	2728.1795	1154.05	265.7
999.38	2729.3972	1148.9	264.05
999.5016	2730.6142	1145.65	254.95
999.6231	2731.8306	1142.1	256.45
999.7446	2733.0462	1135.25	250.15
999.8661	2734.2612	1132.8	243.85
999.9875	2735.4756	1123.45	237.55
1000.1089	2736.6892	1114.95	229
1000.2302	2737.9022	1109.65	226.7
1000.3515	2739.1145	1105.35	220.05
1000.4728	2740.3262	1109.45	217.4
1000.594	2741.5372	1094.9	211.4
1000.7152	2742.7475	1091.5	207.85
1000.8363	2743.9571	1090.15	205.8
1000.9575	2745.1661	1094.25	204.9
1001.0785	2746.3744	1084	199.45
1001.1996	2747.582	1075.3	192.05
1001.3206	2748.7889	1083.15	196.1
1001.4415	2749.9952	1071.55	188.4
1001.5625	2751.2008	1070.15	185.8
1001.6833	2752.4057	1074.2	189.7
1001.8042	2753.61	1069.35	184.75
1001.925	2754.8136	1070.25	185.45
1002.0458	2756.0165	1065.35	180.65
1002.1665	2757.2188	1065.85	181.25
1002.2872	2758.4204	1065.9	181.8
1002.4078	2759.6213	1068.75	181.4
1002.5285	2760.8215	1070.25	182.2
1002.649	2762.0211	1070.8	184.65
1002.7696	2763.22	1068.6	182.1
1002.8901	2764.4182	1065.05	182.3
1003.0106	2765.6158	1065.4	182.35
1003.131	2766.8127	1065.7	181.55
1003.2514	2768.009	1059.5	176.6
1003.3717	2769.2045	1063.45	179.6
1003.492	2770.3994	1062.85	176.5
1003.6123	2771.5936	1063.35	178.85
1003.7325	2772.7872	1056.6	173.5
1003.8527	2773.9801	1053.85	167.7
1003.9729	2775.1723	1070.6	171.35
1004.093	2776.3639	1054.45	171.1
1004.2131	2777.5548	1058.15	173.6
1004.3331	2778.745	1051.15	165.3
1004.4531	2779.9346	1054.95	173.1
1004.5731	2781.1235	1057.2	171.55
1004.693	2782.3117	1054.9	171.9
1004.8129	2783.4992	1054.65	173.1
1004.9328	2784.6861	1061.4	177.05
1005.0526	2785.8723	1060.3	176.05
1005.1723	2787.0579	1061.35	177.7
1005.2921	2788.2428	1063.05	180.55
1005.4118	2789.427	1063.5	180.5
1005.5314	2790.6106	1064.3	181.5
1005.651	2791.7935	1066.25	185.3
1005.7706	2792.9757	1064.75	184.3
1005.8902	2794.1573	1073.45	187.75
1006.0097	2795.3382	1073.95	190.5
1006.1291	2796.5184	1076.3	195.25
1006.2485	2797.698	1084.1	200.75
1006.3679	2798.8769	1082.2	199.65
1006.4873	2800.0551	1088.4	203
1006.6066	2801.2327	1095.65	212.35
1006.7258	2802.4096	1097.95	216.1
1006.8451	2803.5859	1105.05	220
1006.9642	2804.7615	1110.1	224.4
1007.0834	2805.9364	1118.15	236.85
1007.2025	2807.1106	1125.05	242.35
1007.3216	2808.2842	1131.9	251.7
1007.4406	2809.4572	1145.45	263.6
1007.5596	2810.6294	1153.4	269.65
1007.6785	2811.801	1168.5	286.95
1007.7975	2812.972	1180.9	300.3
1007.9163	2814.1423	1196.9	314
1008.0352	2815.3119	1212.85	329.95
1008.154	2816.4808	1231.7	349.45
1008.2727	2817.6491	1249.75	366.35
1008.3914	2818.8167	1266.6	386.35
1008.5101	2819.9837	1299.1	410.1
1008.6288	2821.15	1314.5	433.15
1008.7474	2822.3157	1337.25	457
1008.8659	2823.4807	1361.3	478.15
1008.9844	2824.645	1394.9	513
1009.1029	2825.8086	1412.05	530.3
1009.2214	2826.9716	1441.75	562.15
1009.3398	2828.134	1462.6	581.55
1009.4581	2829.2957	1476.5	594.3
1009.5764	2830.4567	1486.2	605.6
1009.6947	2831.617	1501.3	620
1009.813	2832.7767	1506.4	625.35
1009.9312	2833.9358	1495.8	616.3
1010.0493	2835.0941	1503.7	620.25
1010.1675	2836.2519	1490.45	607.95
1010.2855	2837.4089	1486	605.15
1010.4036	2838.5653	1473.6	592.05
1010.5216	2839.7211	1475.8	594.85
1010.6396	2840.8761	1472.2	588.25
1010.7575	2842.0306	1472.75	592.55
1010.8754	2843.1843	1483.25	601
1010.9932	2844.3374	1490.2	608.1
1011.111	2845.4899	1509.5	625.6
1011.2288	2846.6417	1521.5	640.55
1011.3465	2847.7928	1550.55	668.9
1011.4642	2848.9433	1565.2	685
1011.5818	2850.0931	1585.95	701.45
1011.6995	2851.2422	1612.05	729.05
1011.817	2852.3907	1632.45	749.35
1011.9345	2853.5385	1656.2	774.15
1012.052	2854.6857	1708.35	800.65
1012.1695	2855.8323	1690.85	809.6
1012.2869	2856.9781	1716.55	835.6
1012.4042	2858.1233	1737.45	856.05
1012.5216	2859.2679	1757.05	877.05
1012.6389	2860.4118	1776.4	894.5
1012.7561	2861.555	1798.5	909.8
1012.8733	2862.6976	1811.5	929
1012.9905	2863.8395	1827.8	945.15
1013.1076	2864.9808	1839.8	957.35
1013.2247	2866.1214	1841.2	963.1
1013.3417	2867.2614	1860.3	977.65
1013.4587	2868.4007	1859.3	976.05
1013.5757	2869.5393	1867	982.45
1013.6926	2870.6773	1872.6	984.85
1013.8095	2871.8146	1873.7	989.65
1013.9263	2872.9513	1880.65	995.4
1014.0431	2874.0874	1876.6	992.5
1014.1599	2875.2227	1874.25	992.45
1014.2766	2876.3574	1865.25	984.45
1014.3933	2877.4915	1853.65	972.65
1014.51	2878.6249	1839.5	958.5
1014.6266	2879.7577	1840.8	958.9
1014.7431	2880.8898	1837.55	945.5
1014.8596	2882.0212	1819.15	938.85
1014.9761	2883.152	1808.2	924.5
1015.0925	2884.2821	1803.15	924.05
1015.2089	2885.4116	1805.2	924
1015.3253	2886.5405	1807.6	927
1015.4416	2887.6686	1811.45	925.95
1015.5579	2888.7962	1817.95	938.7
1015.6741	2889.923	1828.5	948.65
1015.7903	2891.0493	1823.95	944.5
1015.9065	2892.1748	1827.4	945.2
1016.0226	2893.2997	1825.05	942.85
1016.1387	2894.424	1838.5	957.85
1016.2547	2895.5476	1839.45	958.75
1016.3707	2896.6706	1849.2	969.45
1016.4866	2897.7929	1849.1	967.65
1016.6025	2898.9145	1863.1	981.55
1016.7184	2900.0355	1886.35	1006.35
1016.8342	2901.1559	1895.25	1013.55
1016.95	2902.2756	1907.65	1025.75
1017.0658	2903.3946	1912.1	1030.75
1017.1815	2904.513	1928.5	1042.6
1017.2971	2905.6308	1927.65	1048.25
1017.4127	2906.7479	1945.1	1063.45
1017.5283	2907.8643	1946.95	1063.15
1017.6439	2908.9801	1957.8	1075.65
1017.7594	2910.0953	1964.25	1082.95
1017.8748	2911.2098	1958.55	1075
1017.9902	2912.3236	1965.05	1076.85
1018.1056	2913.4368	1954.05	1069.15
1018.2209	2914.5494	1940.1	1059.9
1018.3362	2915.6613	1926.8	1039.1
1018.4515	2916.7725	1916.3	1032.25
1018.5667	2917.8831	1900.4	1019.95
1018.6819	2918.9931	1899.35	1015
1018.797	2920.1024	1883.15	999.5
1018.9121	2921.211	1870.55	991.2
1019.0271	2922.319	1871.65	990.15
1019.1421	2923.4264	1863.5	984.2
1019.2571	2924.5331	1857.7	977.25
1019.372	2925.6391	1856.3	975.5
1019.4869	2926.7445	1858.15	978.8
1019.6017	2927.8493	1867.8	985.7
1019.7165	2928.9534	1870.25	988.9
1019.8313	2930.0569	1878.55	994.2
1019.946	2931.1597	1868.85	986.5
1020.0606	2932.2619	1876.95	998.3
1020.1753	2933.3634	1876.4	994.15
1020.2899	2934.4643	1884.8	997.6
1020.4044	2935.5645	1879.55	990.55
1020.5189	2936.6641	1867.05	981.3
1020.6334	2937.763	1854.75	974.75
1020.7478	2938.8613	1837.55	955.05
1020.8622	2939.959	1827.5	941.75
1020.9765	2941.056	1791.85	912
1021.0908	2942.1523	1777	893.25
1021.2051	2943.248	1745.15	863.75
1021.3193	2944.3431	1713.65	831
1021.4334	2945.4375	1676.15	795.25
1021.5476	2946.5313	1643.35	764.65
1021.6617	2947.6244	1596.1	715
1021.7757	2948.7169	1560.7	681.35
1021.8897	2949.8087	1528.75	646.9
1022.0037	2950.8999	1489.95	611.15
1022.1176	2951.9904	1458.85	577.9
1022.2315	2953.0803	1432.45	551.4
1022.3453	2954.1696	1413.8	533.4
1022.4591	2955.2582	1397.7	515.4
1022.5728	2956.3462	1372.7	493.7
1022.6865	2957.4335	1368.65	486.55
1022.8002	2958.5202	1353.95	468.5
1022.9138	2959.6062	1344.55	463.5
1023.0274	2960.6916	1328.5	445.8
1023.141	2961.7764	1328	446.65
1023.2545	2962.8605	1310.8	430.75
1023.3679	2963.9439	1315.3	435.5
1023.4813	2965.0267	1316.1	433.7
1023.5947	2966.1089	1328.3	425.2
1023.708	2967.1905	1310.45	432.35
1023.8213	2968.2714	1306.1	427.05
1023.9346	2969.3516	1307.1	426.55
1024.0478	2970.4312	1317	429
1024.1609	2971.5102	1313.9	433.85
1024.274	2972.5885	1315.1	434.3
1024.3871	2973.6662	1320.05	433.7
1024.5002	2974.7432	1313.9	433.7
1024.6132	2975.8196	1307.35	426.95
1024.7261	2976.8954	1306	425
1024.839	2977.9705	1306.6	427.4
1024.9519	2979.045	1304.15	425.7
1025.0647	2980.1188	1298.85	419.35
1025.1775	2981.192	1286.5	407.1
1025.2902	2982.2645	1285.75	404.95
1025.4029	2983.3364	1274.75	393.1
1025.5156	2984.4077	1272.15	391.9
1025.6282	2985.4783	1258.95	375.5
1025.7407	2986.5483	1245.35	365.8
1025.8532	2987.6177	1235.3	354.6
1025.9657	2988.6864	1212.2	330.85
1026.0782	2989.7545	1202.45	320.75
1026.1906	2990.8219	1191.7	310.9
1026.3029	2991.8887	1185.9	303.45
1026.4152	2992.9548	1170.1	288.2
1026.5275	2994.0204	1156.55	277.4
1026.6397	2995.0852	1135.3	257.9
1026.7519	2996.1495	1128.25	247.25
1026.864	2997.2131	1115.3	236.25
1026.9761	2998.276	1105.85	226.45
1027.0882	2999.3383	1103.45	221.7
1027.2002	3000.4	1094.25	212.3
1027.3122	3001.4611	1085.35	203.45
1027.4241	3002.5215	1082.3	200.55
1027.536	3003.5812	1068.85	188.45
1027.6478	3004.6404	1069.25	188.65
1027.7596	3005.6989	1056.9	174.75
1027.8714	3006.7567	1054.6	174.95
1027.9831	3007.8139	1084.55	172.1
1028.0947	3008.8705	1048.95	167
1028.2064	3009.9264	1046.35	161.5
1028.3179	3010.9818	1043.65	162.4
1028.4295	3012.0364	1040.7	157.85
1028.541	3013.0905	1034.9	155.5
1028.6524	3014.1439	1032.6	151.65
1028.7638	3015.1966	1032.7	152.4
1028.8752	3016.2487	1032.05	154
1028.9865	3017.3002	1034.2	150.85
1029.0978	3018.3511	1024.6	146.1
1029.209	3019.4013	1024.95	144.15
1029.3202	3020.4509	1026.5	147.1
1029.4314	3021.4998	1023.8	143.15
1029.5425	3022.5481	1022.2	141.9
1029.6535	3023.5958	1018	139.5
1029.7645	3024.6428	1018.7	135.85
1029.8755	3025.6892	1021.75	143.85
1029.9864	3026.735	1019.8	140.5
1030.0973	3027.7802	1018.35	136.5
1030.2082	3028.8247	1016.4	138.75
1030.319	3029.8685	1016	135.5
1030.4297	3030.9118	1018.4	138.95
1030.5404	3031.9544	1015.3	136.15
1030.6511	3032.9963	1017.9	138.55
1030.7617	3034.0376	1020.1	142.15
1030.8723	3035.0783	1022.7	139.65
1030.9829	3036.1184	1021.35	141.65
1031.0934	3037.1578	1022.05	142.6
1031.2038	3038.1966	1022.5	140.15
1031.3142	3039.2348	1019.95	139.95
1031.4246	3040.2723	1029.2	141.7
1031.5349	3041.3092	1021.55	142.45
1031.6452	3042.3455	1024.15	143.45
1031.7554	3043.3811	1022.9	141.35
1031.8656	3044.4161	1025.3	144.25
1031.9758	3045.4505	1020.9	142.6
1032.0859	3046.4842	1022.3	140
1032.1959	3047.5173	1020.2	141.7
1032.3059	3048.5498	1022.05	143.15
1032.4159	3049.5816	1021.6	141.4
1032.5258	3050.6128	1017.85	138.3
1032.6357	3051.6434	1019.05	135.85
1032.7455	3052.6734	1014.35	132.55
1032.8553	3053.7027	1014.55	132.6
1032.9651	3054.7314	1017.45	137
1033.0748	3055.7594	1017.3	139.8
1033.1845	3056.7868	1017.65	136.7
1033.2941	3057.8136	1014.7	135.9
1033.4037	3058.8398	1012.25	133.2
1033.5132	3059.8653	1010.95	131.65
1033.6227	3060.8902	1010	131.25
1033.7321	3061.9145	1007.55	126.95
1033.8415	3062.9381	1010.7	129.75
1033.9509	3063.9612	1028.3	131
1034.0602	3064.9835	1008	129.35
1034.1694	3066.0053	1009.55	127.1
1034.2787	3067.0264	1006.2	125.35
1034.3878	3068.0469	1004.8	122.2
1034.497	3069.0668	1002.3	118.3
1034.6061	3070.086	1000	123.6
1034.7151	3071.1046	999.35	118.1
1034.8241	3072.1226	998.9	117.55
1034.9331	3073.1399	998.75	118.85
1035.042	3074.1567	994.05	114.25
1035.1508	3075.1727	992.35	112.6
1035.2597	3076.1882	990.5	112
1035.3684	3077.203	987.3	106.3
1035.4772	3078.2173	984.45	103.1
1035.5859	3079.2308	985.9	103.75
1035.6945	3080.2438	982.85	99.4
1035.8031	3081.2561	974.35	94.7
1035.9117	3082.2678	976.9	97.75
1036.0202	3083.2789	970.8	90
1036.1286	3084.2893	972.4	93.3
1036.2371	3085.2991	968.8	87.15
1036.3454	3086.3083	972.5	89.8
1036.4538	3087.3169	965.8	85.55
1036.562	3088.3248	966.55	84.4
1036.6703	3089.3321	966	85.6
1036.7785	3090.3388	959.7	79.75
1036.8866	3091.3449	959.95	81.05
1036.9948	3092.3503	961.9	77.25
1037.1028	3093.3551	954.9	77.05
1037.2108	3094.3593	955.45	76.75
1037.3188	3095.3629	954.2	76.65
1037.4267	3096.3658	952.65	71.95
1037.5346	3097.3681	951.55	72.15
1037.6425	3098.3698	951.6	68.9
1037.7503	3099.3708	950.45	67.15
1037.858	3100.3713	950.15	70.7
1037.9657	3101.3711	946.4	64.95
1038.0734	3102.3702	1063.2	69.6
1038.181	3103.3688	947.35	65.2
1038.2886	3104.3667	944.7	66.25
1038.3961	3105.364	941.7	61.45
1038.5036	3106.3607	943.75	61.25
1038.611	3107.3568	943.45	63.05
1038.7184	3108.3522	941.7	61.8
1038.8257	3109.347	942.7	64.15
1038.933	3110.3412	946.2	61.65
1039.0403	3111.3348	939.3	60.8
1039.1475	3112.3277	936.65	56.85
1039.2547	3113.32	934.75	56.9
1039.3618	3114.3117	935.8	55.9
1039.4689	3115.3028	935.5	54.55
1039.5759	3116.2932	937.1	55.5
1039.6829	3117.2831	942.2	56.4
1039.7898	3118.2723	936.2	56.6
1039.8967	3119.2608	932.6	54.65
1040.0035	3120.2488	934.2	53.6
1040.1103	3121.2361	930.15	51.7
1040.2171	3122.2229	931.95	51.55
1040.3238	3123.209	934.35	52.7
1040.4305	3124.1944	928.7	51.75
1040.5371	3125.1793	934.15	49.85
1040.6437	3126.1635	928	47.45
1040.7502	3127.1471	926.75	47.35
1040.8567	3128.1301	930	52.8
1040.9631	3129.1125	928.05	50.4
1041.0695	3130.0942	926.6	45.35
1041.1759	3131.0753	932.6	45.6
1041.2822	3132.0558	928.3	46.3
1041.3884	3133.0357	925.95	45.55
1041.4946	3134.015	926.15	46.5
1041.6008	3134.9936	925.45	44.35
1041.7069	3135.9716	946.1	42.4
1041.813	3136.949	927.7	48.8
1041.919	3137.9258	941.95	42.2
1042.025	3138.902	928.75	44.7
1042.1309	3139.8775	921.75	43.55
1042.2368	3140.8524	923.45	42.9
1042.3427	3141.8267	922.7	43.5
1042.4485	3142.8004	921.45	40.85
1042.5542	3143.7735	928.2	43.1
1042.6599	3144.7459	924.55	44.35
1042.7656	3145.7178	920.75	39.7
1042.8712	3146.689	919	40.7
1042.9768	3147.6596	920.25	39.3
1043.0823	3148.6295	918.85	38.55
1043.1878	3149.5989	920.2	41.1
1043.2932	3150.5676	918.05	40.65
1043.3986	3151.5357	918.25	38.55
1043.5039	3152.5032	921.15	42.3
1043.6092	3153.4701	920.15	41.15
1043.7145	3154.4364	920.35	39.15
1043.8197	3155.402	917.1	38.3
1043.9248	3156.367	919.65	41
1044.03	3157.3315	953.5	40.5
1044.135	3158.2952	918.4	38.25
1044.24	3159.2584	915.5	37
1044.345	3160.221	918.1	36.85
1044.4499	3161.1829	916.3	34.95
1044.5548	3162.1442	914.4	34.2
1044.6596	3163.105	916.85	36.25
1044.7644	3164.065	914.85	36.6
1044.8692	3165.0245	919.25	37.9
1044.9739	3165.9834	912.25	36
1045.0785	3166.9416	914.85	36.95
1045.1831	3167.8993	915	34.45
1045.2877	3168.8563	914.7	34.35
1045.3922	3169.8127	915.4	35.85
1045.4966	3170.7684	911.95	33.85
1045.6011	3171.7236	913.1	33.45
1045.7054	3172.6782	910.05	31.5
1045.8098	3173.6321	912.7	35.4
1045.914	3174.5854	917.95	34.1
1046.0183	3175.5381	914.1	36.3
1046.1224	3176.4902	912.1	35.5
1046.2266	3177.4417	912.05	32.3
1046.3307	3178.3926	910	32.7
1046.4347	3179.3428	910	33
1046.5387	3180.2924	908.6	30.4
1046.6427	3181.2415	912.1	32.7
1046.7466	3182.1899	913.1	32.3
1046.8504	3183.1377	910.65	31.35
1046.9542	3184.0848	914.65	31.5
1047.058	3185.0314	911.2	32.55
1047.1617	3185.9773	908.5	30.85
1047.2654	3186.9227	912.9	32.15
1047.369	3187.8674	908.15	28.9
1047.4726	3188.8115	915.05	32.4
1047.5761	3189.755	909.7	29.15
1047.6796	3190.6979	909.4	32.9
1047.783	3191.6402	906.75	26.4
1047.8864	3192.5818	906.25	26.9
1047.9898	3193.5229	920.1	27.3
1048.0931	3194.4633	909.75	30.3
1048.1963	3195.4031	909.85	30.6
1048.2995	3196.3423	907.15	28.5
1048.4027	3197.2809	909.7	31.5
1048.5058	3198.2189	907.25	26.9
1048.6089	3199.1563	926.5	29.25
1048.7119	3200.0931	906.9	30.85
1048.8148	3201.0292	907.45	28.7
1048.9178	3201.9648	906.85	28.9
1049.0206	3202.8997	909.25	26.95
1049.1235	3203.834	906.65	26.55
1049.2262	3204.7677	906.8	28.8
1049.329	3205.7008	907.95	24.95
1049.4317	3206.6333	905.1	27.25
1049.5343	3207.5652	907.85	26.25
1049.6369	3208.4964	906.3	26.2
1049.7394	3209.4271	903.9	25.9
1049.8419	3210.3571	904.25	25.6
1049.9444	3211.2865	905.65	26.75
1050.0468	3212.2154	906.2	26.1
1050.1491	3213.1436	907.65	25.7
1050.2514	3214.0712	911.55	26.15
1050.3537	3214.9982	904.65	25.6
1050.4559	3215.9246	905.9	26
1050.5581	3216.8503	901.75	23.65
1050.6602	3217.7755	902.3	23.15
1050.7623	3218.7001	903.9	25.5
1050.8643	3219.624	903.3	23.95
1050.9663	3220.5473	904.35	24.45
1051.0682	3221.4701	906.05	24.6
1051.1701	3222.3922	907.45	27.75
1051.2719	3223.3137	901.35	23.55
1051.3737	3224.2346	901.35	21.35
1051.4754	3225.1549	901.4	23.6
1051.5771	3226.0746	900.9	21.05
1051.6788	3226.9937	904.75	24.45
1051.7804	3227.9121	903.4	26.5
1051.8819	3228.83	902.15	21.05
1051.9834	3229.7473	903.45	25.4
1052.0849	3230.6639	901.8	20.8
1052.1863	3231.5799	900.4	22.2
1052.2876	3232.4954	902.3	23.1
1052.3889	3233.4102	901.1	22.7
1052.4902	3234.3244	902.3	21.4
1052.5914	3235.238	900.45	22.25
1052.6926	3236.151	923.7	20.65
1052.7937	3237.0634	900.6	22.5
1052.8948	3237.9752	900.15	22.35
1052.9958	3238.8864	901.65	23
1053.0968	3239.797	900.2	23.5
1053.1977	3240.7069	899.7	20.05
1053.2986	3241.6163	902.7	22.3
1053.3994	3242.5251	898.95	21.85
1053.5002	3243.4332	896.85	18
1053.6009	3244.3408	900.7	22.05
1053.7016	3245.2477	901.25	21.4
1053.8022	3246.154	901.1	21.75
1053.9028	3247.0598	900.1	20.45
1054.0034	3247.9649	900.4	21.85
1054.1039	3248.8694	900.7	21.7
1054.2043	3249.7733	898.3	19.1
1054.3047	3250.6766	898.15	18.85
1054.4051	3251.5793	897.55	18.6
1054.5054	3252.4814	899.65	21.15
1054.6056	3253.3829	898.05	21.25
1054.7058	3254.2838	896.2	17.35
1054.806	3255.1841	896.05	17.7
1054.9061	3256.0838	896.7	18.25
1055.0061	3256.9829	896.7	19.6
1055.1062	3257.8814	898.75	18.6
1055.2061	3258.7792	898.75	17.35
1055.306	3259.6765	896.45	16.45
1055.4059	3260.5731	895.35	17.6
1055.5057	3261.4692	897.55	17.2
1055.6055	3262.3647	897.35	17.5
1055.7052	3263.2595	894	17.7
1055.8049	3264.1538	896.15	16.4
1055.9045	3265.0474	896.25	16.35
1056.0041	3265.9404	896.85	19.95
1056.1036	3266.8329	893.85	14.7
1056.2031	3267.7247	904.3	16.05
1056.3025	3268.616	891.65	15.05
1056.4019	3269.5066	892.9	14.05
1056.5013	3270.3966	892.55	10.95
1056.6005	3271.286	891.65	14.5
