Software Version:	3.9.2.0
Unit SN:	10000200
Spectrometer SN:	6960
Date:	3/8/2024 1:10:44 PM
Data Line Index:	25
Spectral Points:	2048
Integration time (ms):	125
Averages:	20
Delay (ms):	30000
Sequence Number:	1
Processing:	dark subtract
Laser Power (mW):	300
Laser Current (mA):	823
Laser Diode Temp (C):	25
Laser Case Temp (C):	26.2
System Temp (C):	26.2
Spectrometer Temp (C):	24.1
CCD Temp (C):	0.004
Secondary Temp (C):	20.007
Heatsink Temp (C):	20.633
CCDPCB Temp (C):	35.94
SecondaryPCB Temp (C):	29.815

Wavelength	RamanShift	Raw Counts	Dark Subtracted
787.061	30.1047	455.25	45.9
787.2016	32.3739	455.55	49
787.3422	34.6426	458.55	50.75
787.4828	36.9109	466.2	57.9
787.6235	39.1787	475.25	62
787.7642	41.4461	483.5	64.8
787.9049	43.7131	494.6	74
788.0456	45.9796	497.75	74.05
788.1863	48.2456	505.95	77.65
788.3271	50.5112	520.5	89.3
788.4679	52.7764	526.65	91.75
788.6087	55.0411	541.1	101.05
788.7496	57.3054	549.1	103.05
788.8904	59.5692	559.8	112.25
789.0313	61.8326	570.55	121.1
789.1722	64.0955	581.25	129.7
789.3132	66.3579	596.05	136.5
789.4541	68.6199	611.25	148.25
789.5951	70.8815	648.9	180.6
789.7361	73.1426	730.65	260.1
789.8771	75.4032	929.55	454.05
790.0181	77.6634	1427.7	947.45
790.1592	79.9231	2590.15	2100.15
790.3003	82.1824	5089.8	4582.7
790.4414	84.4412	9620.65	9080.4
790.5825	86.6995	15844.4	15259.45
790.7237	88.9574	21928.6	21309.55
790.8648	91.2148	26082.55	25439.05
791.006	93.4717	27981.15	27321.6
791.1472	95.7282	28290.4	27621.95
791.2885	97.9842	28076.4	27409.05
791.4297	100.2398	27459.6	26784.35
791.571	102.4949	26772.6	26093.55
791.7123	104.7495	25912.45	25230.4
791.8536	107.0036	25070.35	24391.7
791.9949	109.2573	24280.4	23601.8
792.1363	111.5105	23557.35	22871.65
792.2777	113.7632	22845.65	22158.2
792.4191	116.0154	22273	21571.75
792.5605	118.2672	21886.2	21195.3
792.7019	120.5185	21424.2	20733.2
792.8434	122.7693	21101.2	20407.1
792.9849	125.0197	20828.25	20130.5
793.1264	127.2696	20501	19799.9
793.2679	129.519	20352.55	19647.95
793.4094	131.7679	20109.15	19400.5
793.551	134.0163	19904.25	19190.25
793.6926	136.2642	19638.15	18925.25
793.8342	138.5117	19352	18628.35
793.9758	140.7587	19018.95	18297.35
794.1175	143.0052	18771.7	18044
794.2591	145.2512	18453.85	17732.2
794.4008	147.4967	18220.85	17495.2
794.5425	149.7417	18036.85	17311.9
794.6842	151.9863	17882.65	17148.75
794.826	154.2304	17796.95	17064.7
794.9677	156.4739	17671.75	16932.85
795.1095	158.717	17568.05	16824.45
795.2513	160.9596	17398.95	16654.35
795.3931	163.2017	17185.35	16440.15
795.535	165.4433	16877.2	16133.45
795.6768	167.6844	16552.2	15798.95
795.8187	169.925	16233.85	15478.6
795.9606	172.1651	15867.25	15114.25
796.1025	174.4047	15580.8	14824.45
796.2445	176.6439	15363.1	14605.15
796.3864	178.8825	15154.1	14391.65
796.5284	181.1206	15015.3	14245.85
796.6704	183.3582	14854.45	14084.55
796.8124	185.5954	14759.6	13985.6
796.9544	187.832	14671.65	13896.6
797.0965	190.0681	14645.35	13864.45
797.2386	192.3037	14650.2	13866.05
797.3806	194.5388	14639.2	13852.25
797.5228	196.7734	14665.3	13871.65
797.6649	199.0075	14763.55	13971.4
797.807	201.2411	14870.05	14077.15
797.9492	203.4742	14962.3	14165.85
798.0914	205.7068	15125	14320.1
798.2336	207.9389	15225.1	14421.75
798.3758	210.1704	15402.7	14610.8
798.518	212.4015	15502.05	14720.75
798.6603	214.632	15656.55	14877.6
798.8025	216.862	15817.6	15043.1
798.9448	219.0915	15964.6	15186.25
799.0871	221.3205	16087.65	15303.7
799.2294	223.549	16272.5	15499.9
799.3718	225.777	16476.4	15703
799.5141	228.0044	16738	15955.7
799.6565	230.2314	17012.7	16228.75
799.7989	232.4578	17309.95	16521.95
799.9413	234.6837	17603.45	16811.45
800.0837	236.909	17739.6	16941.15
800.2262	239.1339	17768.45	16945.55
800.3687	241.3582	17590.7	16784.2
800.5111	243.582	17388.45	16548.95
800.6536	245.8053	17187.9	16363.7
800.7961	248.0281	16967	16148.75
800.9387	250.2503	16816.85	15993.15
801.0812	252.472	16795.15	15972.4
801.2238	254.6932	16803.75	15982.5
801.3664	256.9139	16831.7	16008.4
801.509	259.134	16951.45	16117.95
801.6516	261.3536	17057.45	16228.55
801.7942	263.5727	17242.85	16409.1
801.9369	265.7912	17343.6	16514.45
802.0795	268.0092	17536.35	16706.75
802.2222	270.2267	17599.65	16769.75
802.3649	272.4436	17587.25	16754.95
802.5076	274.6601	17596.1	16754.3
802.6504	276.8759	17499.4	16666.55
802.7931	279.0913	17398.9	16565.5
802.9359	281.3061	17349.85	16513.4
803.0787	283.5204	17289.75	16443
803.2215	285.7341	17350.55	16503
803.3643	287.9473	17456.6	16595.2
803.5071	290.16	17587.15	16742.4
803.6499	292.3721	17798.8	16957.55
803.7928	294.5837	18115.5	17271.7
803.9357	296.7947	18437.6	17594.45
804.0786	299.0052	18610.5	17765.55
804.2215	301.2152	18496.7	17648.05
804.3644	303.4246	18268.5	17426.55
804.5074	305.6334	17813.3	16971.05
804.6503	307.8418	17364.75	16521.75
804.7933	310.0495	16950.25	16102.85
804.9363	312.2568	16597.65	15745.25
805.0793	314.4635	16319.9	15463.85
805.2223	316.6696	16146.45	15287.1
805.3653	318.8752	16008.55	15144.25
805.5084	321.0802	15996.25	15137.65
805.6514	323.2847	16049	15190.55
805.7945	325.4887	16114.15	15254.3
805.9376	327.692	16108.05	15251.55
806.0807	329.8949	15986.4	15121
806.2238	332.0972	15741.35	14878.2
806.367	334.2989	15517.8	14650.35
806.5101	336.5001	15260.75	14395.2
806.6533	338.7007	15087.95	14222.35
806.7965	340.9008	14930.8	14065.85
806.9397	343.1003	14827.15	13955.95
807.0829	345.2992	14767.6	13900.25
807.2261	347.4976	14681.5	13811.65
807.3693	349.6955	14670.25	13796.35
807.5126	351.8927	14699.85	13822.15
807.6559	354.0895	14675.05	13783.4
807.7991	356.2856	14671.05	13795.7
807.9424	358.4812	14638.45	13759.1
808.0857	360.6763	14696.9	13819.1
808.2291	362.8707	14656.25	13770.65
808.3724	365.0646	14713.2	13830.4
808.5158	367.258	14726.9	13845.65
808.6591	369.4508	14770.4	13886.8
808.8025	371.643	14899.2	14007.05
808.9459	373.8346	14914.25	14021.25
809.0893	376.0257	14933.9	14042.3
809.2327	378.2162	14925.8	14036.15
809.3762	380.4062	14907.4	14017.8
809.5196	382.5956	14752.9	13869.8
809.6631	384.7844	14640.35	13761.85
809.8066	386.9726	14533.65	13655.3
809.9501	389.1603	14474.2	13598.05
810.0936	391.3474	14454.4	13542.6
810.2371	393.5339	14404.5	13517
810.3806	395.7199	14330.45	13448.65
810.5241	397.9052	14397.55	13519.35
810.6677	400.09	14421.85	13542.1
810.8113	402.2743	14548	13668.15
810.9548	404.4579	14648.9	13768.1
811.0984	406.641	14848.2	13960.85
811.2421	408.8235	15048.55	14165.95
811.3857	411.0054	15285.55	14396.15
811.5293	413.1868	15599.35	14703.65
811.673	415.3675	15802.05	14902.35
811.8166	417.5477	15909.3	15012.8
811.9603	419.7273	15949.7	15054.6
812.104	421.9064	15854.45	14950.55
812.2477	424.0848	15738.85	14843.4
812.3914	426.2627	15566.1	14669.4
812.5351	428.4399	15333.7	14435
812.6788	430.6166	14958.95	14054.85
812.8226	432.7928	14633.7	13731.6
812.9663	434.9683	14332.5	13433.15
813.1101	437.1432	14116.15	13216
813.2539	439.3176	13956.9	13066.6
813.3977	441.4914	13834.45	12947.8
813.5415	443.6645	13789.8	12897.35
813.6853	445.8371	13747.95	12845.85
813.8291	448.0091	13701.55	12807.1
813.973	450.1806	13705.8	12810.3
814.1168	452.3514	13642.9	12752.2
814.2607	454.5216	13663.15	12760.3
814.4046	456.6913	13646.4	12746.35
814.5485	458.8603	13697.55	12803.3
814.6924	461.0288	13773.2	12882.75
814.8363	463.1967	13739.3	12854.4
814.9802	465.3639	13835.75	12946.2
815.1241	467.5306	13875.8	12982.2
815.2681	469.6967	13963.4	13071.5
815.412	471.8622	14040.8	13154
815.556	474.0271	14171	13277.1
815.7	476.1914	14207.7	13309.3
815.844	478.3551	14233.25	13335.9
815.988	480.5182	14215	13328.1
816.132	482.6807	14273.1	13388.9
816.276	484.8426	14429.25	13550.85
816.4201	487.0039	14709.45	13823.5
816.5641	489.1647	15087.85	14192
816.7082	491.3248	15502.65	14606.25
816.8522	493.4843	15652.45	14759.8
816.9963	495.6432	15608.65	14719.4
817.1404	497.8015	15501.25	14599.1
817.2845	499.9592	15498.8	14590.4
817.4286	502.1163	15339.2	14430.25
817.5727	504.2728	15067.75	14164.1
817.7168	506.4287	14818.8	13929.4
817.861	508.5839	14428.8	13541.35
818.0051	510.7386	14175.5	13279.75
818.1493	512.8927	14030.1	13119.7
818.2935	515.0461	14008.7	13103.4
818.4377	517.199	14011.15	13104.3
818.5818	519.3512	14097.25	13190.4
818.726	521.5029	14260.45	13349.2
818.8703	523.6539	14407.1	13499.05
819.0145	525.8043	14465.45	13555.4
819.1587	527.9541	14446.2	13535.05
819.303	530.1033	14394.1	13486.75
819.4472	532.2519	14320.1	13410.7
819.5915	534.3999	14355.5	13444.9
819.7357	536.5472	14539.25	13633.55
819.88	538.694	14872.05	13964.15
820.0243	540.8401	15289.8	14381
820.1686	542.9856	15670.05	14749.7
820.3129	545.1305	15756.05	14827.55
820.4572	547.2748	15673.8	14742.1
820.6016	549.4185	15419.95	14491.35
820.7459	551.5615	15158.6	14234.6
820.8902	553.704	15085.9	14163.1
821.0346	555.8458	15066.65	14142.3
821.1789	557.987	15182.25	14260.7
821.3233	560.1276	15311.55	14387.95
821.4677	562.2675	15527.2	14609.9
821.6121	564.4069	15765.65	14841.45
821.7565	566.5456	16011.35	15096.2
821.9009	568.6837	16018.15	15101.85
822.0453	570.8212	15673.3	14756.5
822.1897	572.958	15176.75	14260.45
822.3342	575.0942	14721.5	13805.95
822.4786	577.2299	14418.85	13507.05
822.6231	579.3648	14304.2	13408.1
822.7675	581.4992	14329.55	13441.25
822.912	583.6329	14452.75	13571.35
823.0565	585.766	14668	13772.85
823.201	587.8985	14806	13905.05
823.3454	590.0304	14839.85	13906.1
823.4899	592.1616	14783.15	13861.35
823.6345	594.2922	14710.2	13784.55
823.779	596.4222	14496.95	13572.45
823.9235	598.5515	14345.7	13419.2
824.068	600.6802	14169.75	13247
824.2126	602.8083	14010.55	13092.5
824.3571	604.9358	13992.2	13072.7
824.5017	607.0626	13976.8	13050.4
824.6462	609.1888	14008.55	13078.65
824.7908	611.3144	14055.85	13123.35
824.9354	613.4393	14030.25	13096.8
825.08	615.5636	14047.05	13113.9
825.2246	617.6873	14002.65	13074
825.3692	619.8103	13996.15	13062.85
825.5138	621.9327	13830	12902.1
825.6584	624.0544	13717.65	12795.15
825.803	626.1756	13601.65	12679.05
825.9477	628.2961	13516.45	12586.9
826.0923	630.4159	13469.85	12541.7
826.237	632.5351	13413.55	12483.9
826.3816	634.6537	13391.25	12458.1
826.5263	636.7716	13406.4	12469.8
826.6709	638.8889	13410.6	12471.6
826.8156	641.0056	13458	12521.35
826.9603	643.1216	13435.6	12494.55
827.105	645.237	13433.65	12499.9
827.2497	647.3518	13361.25	12438.45
827.3944	649.4659	13372.5	12451.45
827.5391	651.5793	13358.5	12437.9
827.6838	653.6922	13337.75	12412.25
827.8285	655.8043	13287.45	12357
827.9733	657.9159	13285.35	12356.15
828.118	660.0268	13245.95	12318.05
828.2627	662.137	13202.4	12271.4
828.4075	664.2466	13224.25	12285.15
828.5522	666.3556	13214.25	12278.8
828.697	668.4639	13191.8	12260
828.8418	670.5716	13214.9	12290.9
828.9865	672.6786	13231.2	12302.05
829.1313	674.785	13213.1	12276.4
829.2761	676.8907	13244.1	12308.45
829.4209	678.9958	13329.95	12400.45
829.5657	681.1002	13277.65	12344.7
829.7105	683.204	13295.2	12351.15
829.8553	685.3072	13276.65	12339.75
830.0001	687.4097	13229.45	12294.3
830.1449	689.5115	13195	12257.05
830.2898	691.6127	13162.4	12231.55
830.4346	693.7132	13107.7	12176.2
830.5794	695.8131	13115.3	12169.75
830.7243	697.9123	13134.15	12191.85
830.8691	700.0109	13119.45	12177.4
831.014	702.1089	13143.6	12203
831.1588	704.2061	13165.45	12229.35
831.3037	706.3028	13222.2	12280.65
831.4486	708.3987	13253.6	12312
831.5935	710.4941	13276.25	12338.55
831.7383	712.5887	13407.15	12468.15
831.8832	714.6827	13615.75	12678.25
832.0281	716.7761	13861.45	12926.35
832.173	718.8688	14123.2	13189.7
832.3179	720.9608	14259.6	13312.75
832.4628	723.0522	14422.75	13474.95
832.6077	725.1429	14347.95	13400.45
832.7527	727.233	14227.9	13284.95
832.8976	729.3224	14144.7	13201.2
833.0425	731.4112	13956.35	13012.65
833.1874	733.4993	13802.95	12860.2
833.3324	735.5867	13623.3	12681.8
833.4773	737.6735	13450.2	12507.75
833.6222	739.7596	13329.65	12385.25
833.7672	741.845	13256.6	12315.25
833.9122	743.9298	13193.8	12250.9
834.0571	746.014	13165.6	12223.6
834.2021	748.0974	13207.05	12257.35
834.347	750.1802	13177.5	12229.1
834.492	752.2624	13190.2	12241.8
834.637	754.3439	13255.65	12304.4
834.782	756.4247	13353.45	12399.75
834.9269	758.5048	13503.8	12557.05
835.0719	760.5843	13756.25	12807.45
835.2169	762.6631	14088.8	13136.55
835.3619	764.7413	14618.1	13667.85
835.5069	766.8188	15248.8	14300.7
835.6519	768.8956	15728.5	14778.3
835.7969	770.9718	16043.4	15095.2
835.9419	773.0473	15969.15	15019.55
836.0869	775.1221	15703.1	14760.05
836.232	777.1962	15378.05	14429.1
836.377	779.2697	15205.25	14250.05
836.522	781.3426	15273.75	14310.3
836.667	783.4147	15422.85	14475.2
836.8121	785.4862	15636.1	14690.7
836.9571	787.557	15556.25	14602.9
837.1021	789.6271	15159.65	14204.9
837.2472	791.6966	14627.95	13675.55
837.3922	793.7654	14042.75	13089.85
837.5373	795.8335	13694.2	12745.9
837.6823	797.901	13463.8	12516.15
837.8274	799.9678	13351.35	12394.95
837.9724	802.0339	13318.05	12366.7
838.1175	804.0993	13340.75	12377.1
838.2626	806.1641	13286.1	12329.65
838.4076	808.2282	13250.65	12303.7
838.5527	810.2916	13175.7	12222.2
838.6978	812.3544	13097.35	12152.7
838.8428	814.4164	13035.05	12084.4
838.9879	816.4778	13028.8	12073.35
839.133	818.5385	13062.4	12106.5
839.2781	820.5986	13179.65	12220.65
839.4232	822.658	13339	12383.5
839.5682	824.7166	13552.4	12596
839.7133	826.7747	13950	12998.45
839.8584	828.832	14297.75	13343.85
840.0035	830.8886	14512.4	13555.95
840.1486	832.9446	14677.05	13719.4
840.2937	834.9999	14592.3	13638.6
840.4388	837.0545	14502.35	13544.05
840.5839	839.1085	14320.1	13362.2
840.729	841.1618	14136.1	13176.65
840.8741	843.2143	13982.25	13026.95
841.0192	845.2662	13857	12899.1
841.1643	847.3175	13804.55	12847.85
841.3095	849.368	13670.15	12714.45
841.4546	851.4179	13578.05	12623.85
841.5997	853.467	13468.5	12515.6
841.7448	855.5155	13414.95	12457.05
841.8899	857.5633	13335	12379.35
842.0351	859.6105	13223.1	12266.7
842.1802	861.6569	13151.05	12190.5
842.3253	863.7027	13103.75	12146.55
842.4704	865.7478	13071.75	12112.05
842.6156	867.7922	13066.05	12108.6
842.7607	869.8359	13094.1	12137.9
842.9058	871.8789	13144.3	12185.15
843.0509	873.9212	13293.55	12300.65
843.1961	875.9629	13394.15	12435.75
843.3412	878.0039	13492.1	12532.4
843.4863	880.0441	13607.9	12655.95
843.6315	882.0837	13678.8	12721.25
843.7766	884.1226	13663.45	12703.6
843.9218	886.1609	13623.6	12667.4
844.0669	888.1984	13645.05	12688.5
844.212	890.2352	13713.25	12753.8
844.3572	892.2714	13654.45	12689.35
844.5023	894.3069	13635.85	12677.35
844.6475	896.3416	13511.5	12551.7
844.7926	898.3757	13445.4	12483.45
844.9377	900.4091	13385.8	12426.35
845.0829	902.4418	13406.85	12444.3
845.228	904.4739	13470.25	12507.25
845.3732	906.5052	13476.35	12507.3
845.5183	908.5358	13401.75	12440.7
845.6635	910.5658	13244.7	12277.2
845.8086	912.595	13081.35	12120.3
845.9538	914.6236	12923.65	11963
846.0989	916.6515	12807.6	11850.1
846.2441	918.6786	12769.05	11807.3
846.3892	920.7051	12802.05	11837.7
846.5344	922.7309	12907.2	11947.25
846.6795	924.756	12926.1	11963.25
846.8246	926.7804	13019.45	12057.45
846.9698	928.8041	12991.95	12033.05
847.1149	930.8272	13053.5	12092.55
847.2601	932.8495	12990.85	12028.1
847.4052	934.8711	13004.75	12045.1
847.5504	936.892	12879.15	11918.25
847.6955	938.9123	12798.8	11837.1
847.8407	940.9318	12747.95	11787.95
847.9858	942.9506	12699.65	11738.25
848.131	944.9688	12608.6	11651.3
848.2761	946.9862	12563.2	11601.8
848.4213	949.003	12441.65	11478.25
848.5664	951.019	12405.3	11445.9
848.7115	953.0344	12405.25	11444.6
848.8567	955.0491	12399.15	11434.4
849.0018	957.063	12463.55	11501
849.147	959.0763	12565.3	11603.6
849.2921	961.0888	12591.35	11631.7
849.4373	963.1007	12641.95	11685.65
849.5824	965.1119	12691.45	11739.8
849.7275	967.1223	12711.6	11768.2
849.8727	969.1321	12695.7	11752.9
850.0178	971.1412	12735.75	11787.15
850.1629	973.1495	12746.85	11789.35
850.3081	975.1572	12790.2	11786.8
850.4532	977.1641	12762.55	11802.6
850.5983	979.1704	12771.25	11808.7
850.7435	981.1759	12741.85	11778.6
850.8886	983.1808	12781.3	11817.35
851.0337	985.1849	12829.1	11854.35
851.1788	987.1884	12928.2	11966.4
851.324	989.1911	13075.4	12114.7
851.4691	991.1932	13169.1	12212
851.6142	993.1945	13204.35	12247.6
851.7593	995.1951	13167.25	12207
851.9045	997.1951	13150.35	12179.05
852.0496	999.1943	13095.7	12133.75
852.1947	1001.1928	13062.45	12099.95
852.3398	1003.1906	13069.45	12109
852.4849	1005.1877	13145.95	12186.2
852.63	1007.1841	13208.5	12247.3
852.7751	1009.1798	13161.75	12204.05
852.9202	1011.1748	13035.55	12075.75
853.0653	1013.1691	12871	11910.85
853.2104	1015.1627	12663.3	11703.75
853.3555	1017.1556	12472.9	11517
853.5006	1019.1477	12355.05	11399.6
853.6457	1021.1392	12228.7	11279.85
853.7908	1023.1299	12225.85	11276.05
853.9359	1025.12	12247.8	11307.15
854.081	1027.1093	12293.95	11365.15
854.2261	1029.0979	12414.15	11488.35
854.3712	1031.0859	12473.55	11542.05
854.5163	1033.0731	12499.7	11554.45
854.6613	1035.0596	12431.2	11481.3
854.8064	1037.0454	12290.5	11338.05
854.9515	1039.0304	12223.9	11267.4
855.0965	1041.0148	12115.1	11156.95
855.2416	1042.9985	12009.65	11050.45
855.3867	1044.9814	11946.1	10989.75
855.5317	1046.9636	11893.5	10937.2
855.6768	1048.9452	11886.55	10934.4
855.8219	1050.926	11905.5	10952.15
855.9669	1052.9061	11915.9	10957.45
856.112	1054.8855	11942.65	10984.25
856.257	1056.8642	11960.6	11003.55
856.4021	1058.8421	12038.9	11072.9
856.5471	1060.8194	12066.1	11106.9
856.6921	1062.7959	12124.75	11166.4
856.8372	1064.7717	12144.05	11186
856.9822	1066.7469	12208.5	11251.55
857.1272	1068.7213	12233.15	11273.95
857.2723	1070.695	12290.55	11332.4
857.4173	1072.6679	12237	11277.15
857.5623	1074.6402	12230.35	11273.1
857.7073	1076.6117	12215.65	11253.2
857.8523	1078.5826	12146.05	11189.05
857.9973	1080.5527	12101.35	11140.95
858.1423	1082.5221	12084.25	11123.2
858.2873	1084.4908	12183.2	11222.85
858.4323	1086.4587	12293.5	11333.45
858.5773	1088.426	12381.15	11424.25
858.7223	1090.3925	12388.8	11425.35
858.8673	1092.3584	12362.05	11401
859.0123	1094.3235	12307.7	11352.1
859.1573	1096.2879	12314.4	11355.85
859.3022	1098.2515	12372.5	11416.95
859.4472	1100.2145	12494.3	11538.7
859.5922	1102.1767	12630.7	11671.3
859.7371	1104.1382	12798.55	11844.9
859.8821	1106.099	13038.7	12081.15
860.027	1108.0591	13260.1	12306.2
860.172	1110.0185	13407.95	12450.5
860.3169	1111.9771	13422.6	12466.15
860.4619	1113.9351	13304.35	12345.8
860.6068	1115.8923	13086.6	12132.65
860.7517	1117.8488	12855.25	11895.7
860.8967	1119.8045	12649.1	11689.4
861.0416	1121.7596	12524.1	11567.85
861.1865	1123.7139	12445.65	11493.5
861.3314	1125.6675	12422.5	11467.8
861.4763	1127.6204	12446.55	11489.9
861.6212	1129.5726	12444.35	11486.65
861.7661	1131.524	12393.35	11439.3
861.911	1133.4748	12305.65	11350.45
862.0559	1135.4248	12161.95	11202.85
862.2008	1137.3741	12105.95	11152.55
862.3457	1139.3226	12048.75	11093.55
862.4905	1141.2705	12007.1	11052.25
862.6354	1143.2176	11899.9	10938.65
862.7803	1145.164	11877.7	10921.8
862.9251	1147.1097	11851.7	10895.95
863.07	1149.0546	11802.85	10847.2
863.2148	1150.9989	11725.35	10769.3
863.3597	1152.9424	11613.25	10653.85
863.5045	1154.8852	11502.2	10549.05
863.6493	1156.8272	11448.15	10489
863.7942	1158.7686	11415	10457.2
863.939	1160.7092	11412.1	10454.85
864.0838	1162.6491	11418.7	10458.95
864.2286	1164.5883	11508.95	10555.85
864.3734	1166.5267	11606.65	10650.8
864.5182	1168.4644	11753.7	10797.45
864.663	1170.4014	11941.3	10988.55
864.8078	1172.3377	12207.75	11257.3
864.9526	1174.2732	12421.65	11468.15
865.0974	1176.2081	12780.9	11827.75
865.2421	1178.1421	13148.2	12187.6
865.3869	1180.0755	13469.05	12519.15
865.5317	1182.0082	13692.05	12742.7
865.6764	1183.9401	13804.55	12854.2
865.8212	1185.8713	13679.5	12734.35
865.9659	1187.8017	13405.65	12467.5
866.1106	1189.7315	13129.6	12198.5
866.2554	1191.6605	12779.7	11849.6
866.4001	1193.5888	12540.3	11604.4
866.5448	1195.5163	12429	11485.3
866.6895	1197.4432	12337.5	11386.95
866.8342	1199.3693	12292.65	11342.05
866.9789	1201.2947	12244	11288.6
867.1236	1203.2193	12239	11289.65
867.2683	1205.1432	12236.7	11287.05
867.413	1207.0664	12229.65	11278.25
867.5576	1208.9889	12230.35	11275.15
867.7023	1210.9106	12224.25	11273
867.847	1212.8316	12233.15	11282.55
867.9916	1214.7519	12309.05	11349.55
868.1363	1216.6715	12310.55	11361.4
868.2809	1218.5903	12357.35	11410.1
868.4255	1220.5084	12388.5	11433.55
868.5701	1222.4257	12442.75	11491.15
868.7148	1224.3424	12439.8	11493.5
868.8594	1226.2583	12493.5	11544.85
869.004	1228.1735	12602.85	11656.45
869.1486	1230.0879	12725.85	11774.8
869.2932	1232.0016	12823.9	11875.25
869.4377	1233.9146	12919.8	11967.55
869.5823	1235.8269	12850.7	11901.5
869.7269	1237.7384	12811.9	11862.4
869.8715	1239.6492	12645.95	11697.3
870.016	1241.5592	12589.4	11638.6
870.1606	1243.4686	12533.8	11585.95
870.3051	1245.3772	12616.95	11668.95
870.4496	1247.285	12684.65	11736.05
870.5941	1249.1922	12748	11796.35
870.7387	1251.0986	12797.25	11850.8
870.8832	1253.0042	12818.95	11874.85
871.0277	1254.9092	12905.3	11960.75
871.1722	1256.8134	12998.15	12054.6
871.3167	1258.7169	13132.9	12181.75
871.4611	1260.6196	13291.4	12345.5
871.6056	1262.5216	13518.5	12568.1
871.7501	1264.4229	13691.8	12745.3
871.8945	1266.3234	13860	12912.75
872.039	1268.2232	13979.55	13032.15
872.1834	1270.1223	14018.1	13068.9
872.3278	1272.0207	14030.35	13082.65
872.4723	1273.9183	14011.3	13057.55
872.6167	1275.8151	13929.35	12984.6
872.7611	1277.7113	13889.8	12943.85
872.9055	1279.6067	13848.8	12901.1
873.0499	1281.5014	13906.5	12958
873.1943	1283.3953	14074.85	13128.6
873.3386	1285.2885	14314.65	13368.1
873.483	1287.181	14537.6	13591.15
873.6274	1289.0727	14832.6	13889.75
873.7717	1290.9637	15028.65	14085.2
873.9161	1292.854	15176.5	14230.7
874.0604	1294.7435	15249.55	14303.5
874.2047	1296.6323	15291.05	14348
874.349	1298.5204	15316.3	14367.25
874.4933	1300.4077	15344.35	14396.9
874.6376	1302.2943	15292.15	14344.75
874.7819	1304.1802	15159.65	14215.2
874.9262	1306.0653	14888.15	13944.2
875.0705	1307.9497	14556.85	13610.2
875.2147	1309.8333	14279.85	13334.65
875.359	1311.7162	14099.55	13153.55
875.5032	1313.5984	13984.75	13034.9
875.6475	1315.4798	13934.1	12978.4
875.7917	1317.3605	13966.85	13003.75
875.9359	1319.2405	13908.2	12957
876.0801	1321.1197	13744.7	12796.75
876.2243	1322.9982	13555.15	12606.8
876.3685	1324.876	13403.65	12459.05
876.5127	1326.753	13175.25	12228.15
876.6569	1328.6293	13110.5	12160.75
876.801	1330.5048	13021.5	12074.65
876.9452	1332.3796	12935.85	11988.35
877.0893	1334.2537	12890.55	11918.05
877.2335	1336.127	12801	11855.65
877.3776	1337.9996	12782.7	11837.05
877.5217	1339.8714	12791.8	11846.05
877.6658	1341.7426	12808.65	11815.95
877.8099	1343.6129	12771.7	11825.4
877.954	1345.4826	12735.05	11789.85
878.0981	1347.3515	12737.85	11787.6
878.2422	1349.2196	12715.5	11768
878.3862	1351.087	12732.4	11781.6
878.5303	1352.9537	12759.8	11811.45
878.6743	1354.8197	12878.7	11927.25
878.8184	1356.6849	13075.45	12126.65
878.9624	1358.5493	13153.7	12207.65
879.1064	1360.4131	13280.1	12335.8
879.2504	1362.276	13330.4	12388.25
879.3944	1364.1383	13248.25	12304.2
879.5384	1365.9998	13033.65	12080.15
879.6823	1367.8606	12705.95	11759.8
879.8263	1369.7206	12382.45	11434.3
879.9702	1371.5799	12058.35	11107.7
880.1142	1373.4384	11846.4	10898.25
880.2581	1375.2962	11659.25	10712.1
880.402	1377.1533	11391.05	10446.1
880.5459	1379.0096	11066.3	10124.7
880.6898	1380.8652	10744.95	9801.6
880.8337	1382.7201	10469	9529.95
880.9776	1384.5742	10223.25	9276.35
881.1215	1386.4275	10055.2	9108.9
881.2653	1388.2802	9910.1	8963.55
881.4092	1390.132	9780.25	8837.15
881.553	1391.9832	9725.35	8778.35
881.6968	1393.8336	9624.4	8677.5
881.8406	1395.6832	9602.2	8652.95
881.9844	1397.5322	9556.05	8607.75
882.1282	1399.3803	9534	8585.1
882.272	1401.2278	9489.9	8547.5
882.4158	1403.0745	9502.85	8559.25
882.5595	1404.9204	9459.6	8519.7
882.7033	1406.7656	9497.85	8554.9
882.847	1408.6101	9523.45	8578
882.9908	1410.4538	9515.85	8573.6
883.1345	1412.2968	9562.4	8621.2
883.2782	1414.139	9583.95	8641.5
883.4219	1415.9805	9684.45	8741.15
883.5656	1417.8213	9744.05	8795.95
883.7092	1419.6613	9864.25	8923.45
883.8529	1421.5006	10010.45	9068.25
883.9965	1423.3391	10235.95	9291.65
884.1402	1425.1769	10516.7	9573.35
884.2838	1427.0139	10931.6	9989.75
884.4274	1428.8502	11501	10555.9
884.571	1430.6858	12015.75	11074.4
884.7146	1432.5206	12383.2	11441.65
884.8582	1434.3547	12622.45	11680.15
885.0018	1436.188	12670.4	11730.25
885.1453	1438.0206	12544.35	11600.3
885.2889	1439.8524	12394.4	11454.45
885.4324	1441.6835	12297.85	11353.8
885.5759	1443.5139	12199	11253.5
885.7194	1445.3435	12101.8	11160.45
885.8629	1447.1724	12085.65	11149.7
886.0064	1449.0005	12025.6	11086.7
886.1499	1450.8279	11928.75	10989.65
886.2933	1452.6545	11914.35	10973.25
886.4368	1454.4804	11928.35	10991.85
886.5802	1456.3056	11959.45	11014.5
886.7237	1458.13	11845.8	10908.3
886.8671	1459.9536	11674	10735
887.0105	1461.7766	11384.6	10444.1
887.1539	1463.5987	11022.95	10080.6
887.2972	1465.4202	10648.05	9706.5
887.4406	1467.2409	10313.55	9370.7
887.584	1469.0608	10051.05	9113.1
887.7273	1470.88	9774.45	8834.15
887.8706	1472.6984	9554.35	8618.25
888.0139	1474.5161	9345.4	8403.9
888.1572	1476.3331	9183.9	8243.55
888.3005	1478.1493	9081.35	8141.1
888.4438	1479.9648	8986.65	8046.85
888.5871	1481.7795	8895.8	7953.8
888.7303	1483.5935	8855.3	7918.6
888.8736	1485.4067	8767.7	7828.45
889.0168	1487.2192	8730.75	7792.65
889.16	1489.031	8677.9	7736.8
889.3032	1490.842	8649.9	7710.5
889.4464	1492.6522	8600.15	7663.35
889.5896	1494.4618	8586	7644.8
889.7327	1496.2705	8552.8	7614.1
889.8759	1498.0785	8499.65	7561.95
890.019	1499.8858	8445.6	7507.35
890.1622	1501.6924	8407.2	7469.1
890.3053	1503.4981	8380.15	7442.05
890.4484	1505.3032	8358.1	7418.55
890.5914	1507.1075	8322.85	7385.7
890.7345	1508.911	8252.15	7312.25
890.8776	1510.7138	8232.55	7296.1
891.0206	1512.5159	8191.6	7253.85
891.1637	1514.3172	8121.6	7186.8
891.3067	1516.1178	8068.55	7132
891.4497	1517.9176	8075.1	7134.5
891.5927	1519.7166	8013.75	7075.9
891.7357	1521.515	7981.95	7039.65
891.8786	1523.3126	7970	7032.7
892.0216	1525.1094	7928.3	6990.25
892.1645	1526.9055	7911.05	6977.45
892.3074	1528.7008	7886	6951.4
892.4503	1530.4954	7835	6900.35
892.5932	1532.2893	7842.05	6914.55
892.7361	1534.0824	7803.75	6870.75
892.879	1535.8747	7802.4	6873.65
893.0218	1537.6663	7777.1	6845.4
893.1647	1539.4572	7775.8	6844.2
893.3075	1541.2473	7753	6821.1
893.4503	1543.0367	7749.8	6817.6
893.5931	1544.8253	7740.25	6802.65
893.7359	1546.6132	7767.3	6835.2
893.8787	1548.4003	7779.55	6836.4
894.0214	1550.1867	7810.55	6873.35
894.1642	1551.9723	7851.2	6918.05
894.3069	1553.7572	7908.2	6980.4
894.4496	1555.5414	7985.85	7059.95
894.5923	1557.3247	8079.15	7153.7
894.735	1559.1074	8186.3	7263.55
894.8777	1560.8893	8296.7	7372.95
895.0204	1562.6705	8392.1	7467.6
895.163	1564.4509	8507.05	7583.9
895.3056	1566.2305	8561.75	7643.25
895.4482	1568.0094	8597.85	7676.7
895.5908	1569.7876	8622.05	7701.7
895.7334	1571.565	8595.35	7670.5
895.876	1573.3417	8604.85	7677.25
896.0186	1575.1176	8588.2	7669.9
896.1611	1576.8928	8564.1	7646.65
896.3036	1578.6672	8528.65	7613.5
896.4461	1580.4409	8437.85	7526.65
896.5886	1582.2138	8391.95	7475.25
896.7311	1583.986	8369.35	7450.1
896.8736	1585.7575	8379.55	7461.45
897.0161	1587.5282	8368.95	7455.05
897.1585	1589.2981	8426	7513.85
897.3009	1591.0673	8426.35	7514.35
897.4433	1592.8358	8480.65	7569.95
897.5857	1594.6035	8559.2	7639.6
897.7281	1596.3704	8626.85	7710.1
897.8705	1598.1366	8682.55	7764.25
898.0128	1599.9021	8745.95	7831.9
898.1551	1601.6668	8849.6	7932.25
898.2975	1603.4308	8939.35	8014.45
898.4398	1605.194	9053.25	8133.45
898.5821	1606.9564	9222.3	8312.9
898.7243	1608.7182	9400.4	8491.5
898.8666	1610.4791	9626.6	8725.95
899.0088	1612.2394	9868.25	8964.55
899.1511	1613.9988	10093.65	9190.85
899.2933	1615.7576	10349.8	9443.35
899.4355	1617.5156	10528.2	9605.95
899.5776	1619.2728	10635.75	9717.45
899.7198	1621.0293	10677.05	9761.35
899.862	1622.785	10580.95	9668.85
900.0041	1624.54	10373.6	9462.05
900.1462	1626.2942	10133.1	9226.4
900.2883	1628.0477	9816	8908.45
900.4304	1629.8005	9572.35	8659.1
900.5725	1631.5525	9295.6	8387.7
900.7145	1633.3037	9095.55	8186.35
900.8566	1635.0542	8905.7	7997.05
900.9986	1636.804	8798.45	7890.8
901.1406	1638.553	8787.85	7790.5
901.2826	1640.3013	8666.2	7758.65
901.4245	1642.0488	8676.05	7765.85
901.5665	1643.7955	8693.1	7785.6
901.7085	1645.5416	8738.45	7830.7
901.8504	1647.2868	8828.55	7919.4
901.9923	1649.0313	8943.8	8032.3
902.1342	1650.7751	9101.05	8189.45
902.2761	1652.5181	9245.7	8341.3
902.4179	1654.2604	9416.75	8510.45
902.5598	1656.0019	9619.15	8711.75
902.7016	1657.7427	9901.75	8993.4
902.8434	1659.4828	10173.45	9264.05
902.9852	1661.222	10318.65	9407.8
903.127	1662.9606	10268.2	9358.9
903.2687	1664.6984	10057.45	9144.7
903.4105	1666.4354	9643.15	8728.75
903.5522	1668.1717	9126	8212.65
903.6939	1669.9072	8578.05	7664.25
903.8356	1671.642	8124.95	7209.85
903.9773	1673.3761	7765.25	6853.7
904.119	1675.1094	7453.7	6542.65
904.2606	1676.8419	7227.85	6320.15
904.4022	1678.5737	7019.15	6108.95
904.5439	1680.3048	6880.05	5969.45
904.6855	1682.0351	6767.55	5859.55
904.827	1683.7646	6636.95	5724.6
904.9686	1685.4934	6546	5638.55
905.1101	1687.2215	6501.4	5590.9
905.2517	1688.9488	6414	5507.9
905.3932	1690.6754	6353.95	5445.9
905.5347	1692.4012	6314.35	5404.3
905.6761	1694.1263	6275.85	5366.75
905.8176	1695.8506	6237.7	5326.6
905.9591	1697.5742	6208.95	5303.35
906.1005	1699.297	6179.25	5275.8
906.2419	1701.0191	6107.5	5206.1
906.3833	1702.7404	6091.05	5189.2
906.5246	1704.461	6023	5115.6
906.666	1706.1808	5996.6	5088.6
906.8073	1707.8999	5975.65	5073.4
906.9487	1709.6182	5952.05	5052.05
907.09	1711.3358	5908.9	5010.2
907.2313	1713.0527	5899.4	5000.25
907.3725	1714.7688	5859.35	4954.1
907.5138	1716.4841	5833.65	4931.25
907.655	1718.1987	5837.4	4927.05
907.7962	1719.9126	5800.75	4900.9
907.9374	1721.6257	5773.85	4875.1
908.0786	1723.338	5759.2	4861.1
908.2198	1725.0496	5726	4826.4
908.3609	1726.7605	5728.5	4824.85
908.502	1728.4706	5708.7	4808.7
908.6431	1730.18	5665.55	4767.1
908.7842	1731.8886	5659.55	4761.45
908.9253	1733.5964	5664.45	4744.15
909.0664	1735.3036	5634.7	4734.4
909.2074	1737.0099	5590.6	4688.55
909.3484	1738.7156	5597.15	4698.5
909.4894	1740.4204	5552.75	4650.1
909.6304	1742.1246	5534.45	4632.05
909.7714	1743.8279	5509.2	4606.7
909.9123	1745.5306	5493.65	4595.35
910.0532	1747.2325	5466.9	4570.95
910.1941	1748.9336	5442.45	4543.5
910.335	1750.634	5428.5	4524.45
910.4759	1752.3336	5411.75	4513
910.6168	1754.0325	5394.05	4500.15
910.7576	1755.7307	5388	4491.55
910.8984	1757.4281	5380.9	4480.15
911.0392	1759.1247	5384.75	4475.8
911.18	1760.8206	5354.8	4446.05
911.3208	1762.5158	5349.35	4439.05
911.4615	1764.2102	5317.5	4417.15
911.6022	1765.9039	5288.95	4391.2
911.7429	1767.5968	5285.3	4391.2
911.8836	1769.289	5267.95	4373.8
912.0243	1770.9804	5261.65	4363.8
912.1649	1772.6711	5263.4	4360.8
912.3056	1774.361	5233.35	4329.8
912.4462	1776.0502	5222.7	4319.8
912.5868	1777.7386	5242.85	4337.2
912.7274	1779.4263	5191.95	4293.95
912.8679	1781.1132	5195.05	4298.7
913.0084	1782.7994	5171.5	4277.05
913.149	1784.4849	5177.45	4282.65
913.2895	1786.1696	5161.6	4261.8
913.4299	1787.8535	5141.2	4248
913.5704	1789.5367	5140.95	4248.25
913.7108	1791.2192	5132.7	4238.25
913.8513	1792.9009	5128.25	4206.05
913.9917	1794.5818	5102.95	4201.25
914.132	1796.2621	5075.75	4176.7
914.2724	1797.9415	5053.55	4153.95
914.4128	1799.6202	5069.8	4170.35
914.5531	1801.2982	5064	4164.5
914.6934	1802.9755	5041.6	4141.9
914.8337	1804.6519	5040.15	4141.8
914.9739	1806.3277	5028.55	4132.9
915.1142	1808.0027	4997.45	4106.15
915.2544	1809.6769	4982.2	4088.05
915.3946	1811.3504	4960.9	4067.95
915.5348	1813.0231	4962.4	4068.05
915.675	1814.6951	4969.75	4075.05
915.8151	1816.3664	4968.3	4072.85
915.9553	1818.0369	4952.65	4054.2
916.0954	1819.7067	4932.7	4037.5
916.2355	1821.3757	4924.9	4026.9
916.3755	1823.044	4925.1	4025.85
916.5156	1824.7115	4913.85	4012.55
916.6556	1826.3783	4892.7	3994.3
916.7956	1828.0443	4883.4	3985
916.9356	1829.7096	4871.85	3973.8
917.0756	1831.3741	4865	3966.25
917.2155	1833.0379	4853.65	3959.15
917.3555	1834.701	4831.65	3937.35
917.4954	1836.3633	4819.15	3927.75
917.6353	1838.0248	4814.05	3916.1
917.7751	1839.6856	4814.55	3917.9
917.915	1841.3457	4812.25	3914.25
918.0548	1843.005	4795.05	3896.65
918.1946	1844.6636	4793.7	3895.95
918.3344	1846.3214	4767.8	3870.35
918.4742	1847.9785	4772.15	3878.2
918.6139	1849.6349	4781.3	3883.25
918.7537	1851.2904	4762.55	3856.5
918.8934	1852.9453	4744.7	3843.5
919.0331	1854.5994	4722.2	3821.6
919.1727	1856.2528	4738.05	3835.2
919.3124	1857.9054	4736.9	3838.55
919.452	1859.5572	4724	3828.1
919.5916	1861.2083	4702.3	3805.3
919.7312	1862.8587	4702.1	3804.6
919.8708	1864.5084	4689.75	3789.55
920.0103	1866.1572	4674.95	3776.2
920.1498	1867.8054	4659.65	3758.15
920.2893	1869.4528	4654.6	3752.7
920.4288	1871.0994	4644.7	3745.35
920.5683	1872.7453	4642.9	3743.2
920.7077	1874.3905	4642.2	3726.45
920.8471	1876.0349	4611.5	3711.7
920.9865	1877.6786	4621.75	3722.3
921.1259	1879.3215	4607.55	3711.15
921.2653	1880.9637	4595.8	3699
921.4046	1882.6051	4567.85	3672.25
921.5439	1884.2458	4574.75	3678.6
921.6832	1885.8858	4571.2	3676.75
921.8225	1887.525	4547.7	3648.85
921.9617	1889.1634	4528.85	3629.45
922.101	1890.8011	4529.75	3630.85
922.2402	1892.4381	4509.5	3609.1
922.3794	1894.0743	4508.65	3612.25
922.5185	1895.7098	4506.2	3611.2
922.6577	1897.3446	4489.35	3592.55
922.7968	1898.9786	4482.2	3582.35
922.9359	1900.6118	4478.35	3581.45
923.075	1902.2443	4445.85	3549.2
923.214	1903.8761	4448.65	3551.05
923.3531	1905.5071	4427.8	3531
923.4921	1907.1374	4424.3	3527.95
923.6311	1908.7669	4394.7	3498.05
923.77	1910.3957	4397.7	3503.05
923.909	1912.0237	4375.3	3480.15
924.0479	1913.651	4381.7	3484.15
924.1868	1915.2776	4359.2	3463.3
924.3257	1916.9034	4347.25	3450.85
924.4646	1918.5285	4321	3426.25
924.6034	1920.1528	4314	3419.25
924.7422	1921.7764	4311.15	3414.95
924.881	1923.3992	4312.25	3416.9
925.0198	1925.0213	4274.2	3379.5
925.1586	1926.6427	4274.75	3379.05
925.2973	1928.2633	4427.7	3320.55
925.436	1929.8832	4293	3391.95
925.5747	1931.5023	4245.7	3352.35
925.7134	1933.1207	4212.15	3317.45
925.852	1934.7383	4222.55	3328.65
925.9906	1936.3552	4204	3310.25
926.1292	1937.9714	4197.55	3303.05
926.2678	1939.5868	4186.65	3287.4
926.4064	1941.2015	4163.35	3265.25
926.5449	1942.8154	4158.2	3259.2
926.6834	1944.4286	4144.85	3249.45
926.8219	1946.041	4137.1	3223.7
926.9604	1947.6528	4115.35	3215.1
927.0988	1949.2637	4101.9	3205.85
927.2372	1950.8739	4094.8	3200.35
927.3756	1952.4834	4089.75	3194.95
927.514	1954.0921	4088.85	3195.9
927.6523	1955.7001	4071.5	3171.95
927.7907	1957.3074	4050.45	3158
927.929	1958.9139	4025.45	3137
928.0673	1960.5197	4025	3134.05
928.2055	1962.1247	4005.4	3113.95
928.3438	1963.729	3994.75	3105.9
928.482	1965.3325	3984.25	3088.8
928.6202	1966.9353	3964.85	3077.05
928.7584	1968.5374	3971.9	3080
928.8965	1970.1387	3956.2	3064.5
929.0346	1971.7393	3934.3	3043
929.1727	1973.3392	3928.15	3036.35
929.3108	1974.9383	3929.7	3039.7
929.4489	1976.5366	3915.6	3028.35
929.5869	1978.1342	3900.45	3010.05
929.7249	1979.7311	3889.95	3001.9
929.8629	1981.3273	3871.85	2983.55
930.0009	1982.9227	3875.35	2984.8
930.1388	1984.5173	3877.75	2990.95
930.2767	1986.1112	3860.65	2974.7
930.4146	1987.7044	3847.65	2960.55
930.5525	1989.2968	3832	2943.8
930.6904	1990.8885	3831.7	2939.45
930.8282	1992.4795	3816.75	2931.2
930.966	1994.0697	3805.55	2922.2
931.1038	1995.6592	3810.8	2925.45
931.2415	1997.2479	3763.65	2875.35
931.3793	1998.8359	3786.8	2902.4
931.517	2000.4232	3763.35	2881.15
931.6547	2002.0097	3756.6	2877.2
931.7923	2003.5955	3738.6	2855.45
931.93	2005.1805	3741.8	2856.7
932.0676	2006.7648	3724.7	2839.7
932.2052	2008.3484	3724.3	2839.2
932.3427	2009.9312	3724.9	2841.9
932.4803	2011.5133	3696.5	2815.35
932.6178	2013.0946	3702.05	2819.7
932.7553	2014.6752	3683.7	2801.9
932.8928	2016.2551	3690.95	2805.55
933.0302	2017.8342	3651.45	2770.25
933.1676	2019.4126	3663.65	2780.95
933.305	2020.9902	3638.7	2758.55
933.4424	2022.5672	3643.9	2761.9
933.5798	2024.1433	3635.85	2748.05
933.7171	2025.7188	3628.5	2749.2
933.8544	2027.2935	3607.25	2726.7
933.9917	2028.8674	3602.25	2723.15
934.129	2030.4406	3592.25	2714
934.2662	2032.0131	3590.7	2712.4
934.4034	2033.5849	3569.4	2685.25
934.5406	2035.1559	3577.45	2698.55
934.6778	2036.7261	3556.1	2673.1
934.8149	2038.2957	3582.35	2694.75
934.952	2039.8645	3557.65	2671.3
935.0891	2041.4325	3556.1	2666.7
935.2262	2042.9998	3528.95	2645.85
935.3632	2044.5664	3541.6	2657
935.5002	2046.1323	3521.9	2645.15
935.6372	2047.6974	3527.1	2645.95
935.7742	2049.2617	3511.15	2632.3
935.9111	2050.8254	3532.6	2626.75
936.048	2052.3883	3505	2620.25
936.1849	2053.9504	3504.2	2617.8
936.3218	2055.5118	3482.8	2597.25
936.4586	2057.0725	3473.75	2585.3
936.5955	2058.6325	3474.05	2589.4
936.7323	2060.1917	3455.25	2573.4
936.869	2061.7502	3454.45	2570.5
937.0058	2063.3079	3433.2	2551.9
937.1425	2064.8649	3431	2547.9
937.2792	2066.4212	3438.8	2555.95
937.4159	2067.9767	3415.6	2528.75
937.5525	2069.5315	3407.75	2522.85
937.6891	2071.0856	3404.6	2522.25
937.8257	2072.6389	3404.7	2523.15
937.9623	2074.1915	3387.9	2508.1
938.0989	2075.7433	3381.2	2498.2
938.2354	2077.2945	3366.1	2482.95
938.3719	2078.8448	3348.6	2463.4
938.5084	2080.3945	3338.85	2453.4
938.6448	2081.9434	3334.3	2448.4
938.7812	2083.4916	3324.95	2436.75
938.9176	2085.039	3330.7	2439.15
939.054	2086.5857	3332.05	2435.3
939.1903	2088.1317	3323.15	2430.4
939.3267	2089.677	3312.8	2418.05
939.463	2091.2215	3305.1	2412.2
939.5992	2092.7652	3286.3	2391.9
939.7355	2094.3083	3307.85	2414.1
939.8717	2095.8506	3278	2385.2
940.0079	2097.3921	3274.6	2385.8
940.1441	2098.933	3276.95	2387.6
940.2802	2100.4731	3275.6	2388.4
940.4163	2102.0124	3270.1	2373.1
940.5524	2103.5511	3263.4	2371.75
940.6885	2105.089	3264.15	2373.85
940.8245	2106.6261	3244.9	2357.2
940.9606	2108.1626	3249.8	2360.6
941.0965	2109.6983	3278.7	2364.5
941.2325	2111.2332	3234.35	2343.2
941.3684	2112.7675	3228.1	2335.5
941.5044	2114.301	3202.2	2310.05
941.6403	2115.8337	3213.95	2325.45
941.7761	2117.3657	3221.25	2332.9
941.912	2118.897	3216.15	2325.2
942.0478	2120.4276	3183.85	2287.4
942.1835	2121.9575	3170.7	2281.05
942.3193	2123.4866	3188.8	2296.85
942.455	2125.0149	3170.9	2279.95
942.5907	2126.5426	3166.95	2283.1
942.7264	2128.0695	3149.5	2263.25
942.8621	2129.5956	3147	2266.05
942.9977	2131.1211	3156.2	2267.8
943.1333	2132.6458	3127.75	2240.6
943.2689	2134.1698	3141.25	2247.7
943.4044	2135.693	3130.65	2238.1
943.54	2137.2155	3130.85	2238.35
943.6755	2138.7373	3122.95	2233.9
943.8109	2140.2584	3102.05	2219
943.9464	2141.7787	3111.1	2224.25
944.0818	2143.2983	3083.15	2205.55
944.2172	2144.8171	3069.8	2190.2
944.3526	2146.3353	3075.75	2189.95
944.4879	2147.8527	3072.6	2188.1
944.6232	2149.3693	3059.5	2171.95
944.7585	2150.8853	3065.6	2172.1
944.8938	2152.4005	3044.2	2151.4
945.029	2153.9149	3036.2	2143.95
945.1642	2155.4287	3033.7	2142.15
945.2994	2156.9417	3034.9	2143.1
945.4346	2158.454	3036.75	2149.6
945.5697	2159.9655	3013.85	2131.6
945.7048	2161.4764	3024.75	2138.65
945.8399	2162.9865	3014.6	2129.75
945.9749	2164.4958	2995.4	2109.75
946.1099	2166.0045	2991	2103.75
946.2449	2167.5124	2998.2	2111.1
946.3799	2169.0195	2988.65	2100.8
946.5148	2170.526	2988.45	2099.6
946.6498	2172.0317	2978	2089.4
946.7846	2173.5367	2966.85	2079.7
946.9195	2175.0409	2959.25	2071.25
947.0543	2176.5445	2979	2090.45
947.1891	2178.0473	2955.25	2063.25
947.3239	2179.5494	2960.05	2063.9
947.4587	2181.0507	2956.75	2068.25
947.5934	2182.5513	2931.85	2044
947.7281	2184.0512	2929.8	2040.05
947.8628	2185.5504	2930.3	2044.25
947.9974	2187.0488	2908.45	2022.55
948.132	2188.5465	2902.75	2018.75
948.2666	2190.0435	2901.9	2014.85
948.4012	2191.5397	2890.4	2000.7
948.5357	2193.0353	2885.4	1994.1
948.6702	2194.5301	2879.35	1985.35
948.8047	2196.0241	2871.75	1980.45
948.9392	2197.5175	2872.8	1977.3
949.0736	2199.0101	2868.7	1970.6
949.208	2200.502	2848.3	1958.5
949.3424	2201.9931	2833.85	1948.55
949.4767	2203.4835	2832.15	1947.1
949.611	2204.9733	2839.6	1948.9
949.7453	2206.4622	2831.25	1946.15
949.8796	2207.9505	2818.55	1933.65
950.0138	2209.438	2800.15	1918
950.148	2210.9248	2805.15	1917.5
950.2822	2212.4109	2798.65	1911.35
950.4164	2213.8962	2791.65	1896.8
950.5505	2215.3809	2815.6	1922.1
950.6846	2216.8648	2801.8	1904.55
950.8186	2218.3479	2785.05	1883.65
950.9527	2219.8304	2768.95	1867.7
951.0867	2221.3121	2762.95	1863.75
951.2207	2222.7931	2760.8	1867.5
951.3546	2224.2733	2756.1	1865.3
951.4886	2225.7529	2743.85	1854.2
951.6225	2227.2317	2734.6	1843.1
951.7563	2228.7098	2732.1	1846.65
951.8902	2230.1872	2725.95	1841.8
952.024	2231.6638	2726.65	1840.5
952.1578	2233.1397	2716.4	1827
952.2916	2234.6149	2712.55	1825.45
952.4253	2236.0894	2700.6	1813.1
952.559	2237.5632	2709.05	1810.2
952.6927	2239.0362	2689.9	1800.25
952.8263	2240.5085	2697.65	1811.5
952.9599	2241.9801	2676.35	1788.35
953.0935	2243.4509	2672.5	1782.4
953.2271	2244.921	2673.65	1782
953.3606	2246.3904	2662.05	1767.6
953.4941	2247.8591	2665.2	1772.85
953.6276	2249.3271	2653.05	1761.65
953.7611	2250.7943	2644.05	1749.2
953.8945	2252.2608	2627.85	1736.8
954.0279	2253.7266	2635.2	1743.55
954.1612	2255.1917	2636.7	1746.85
954.2946	2256.656	2627.95	1739.1
954.4279	2258.1197	2618.7	1734.25
954.5612	2259.5826	2613	1725
954.6944	2261.0447	2593.1	1701.7
954.8276	2262.5062	2589.85	1695.85
954.9608	2263.9669	2595	1700.55
955.094	2265.4269	2593.95	1702.1
955.2271	2266.8862	2576.5	1687.25
955.3602	2268.3448	2585.9	1697.1
955.4933	2269.8026	2584.45	1697.6
955.6264	2271.2598	2564.3	1677.85
955.7594	2272.7162	2563.65	1675.85
955.8924	2274.1719	2570.3	1677.9
956.0253	2275.6268	2575	1681.35
956.1583	2277.0811	2570.45	1677.5
956.2912	2278.5346	2550.15	1660.9
956.4241	2279.9874	2557.2	1670.2
956.5569	2281.4395	2542.85	1659.4
956.6897	2282.8908	2543.6	1650.95
956.8225	2284.3414	2541.5	1653
956.9553	2285.7914	2528.9	1640.8
957.088	2287.2406	2520.05	1626.25
957.2207	2288.689	2535.05	1640.65
957.3534	2290.1368	2519.6	1624.5
957.486	2291.5838	2517.6	1615.7
957.6186	2293.0302	2511.75	1613.9
957.7512	2294.4758	2512.1	1619.1
957.8838	2295.9206	2512.9	1619.25
958.0163	2297.3648	2495.55	1605.8
958.1488	2298.8082	2482.9	1593.6
958.2813	2300.251	2482.7	1593.15
958.4137	2301.693	2477.55	1582.8
958.5461	2303.1343	2492.55	1598.2
958.6785	2304.5748	2461.4	1570.6
958.8108	2306.0147	2464.8	1576.15
958.9432	2307.4538	2471.25	1583.25
959.0754	2308.8922	2444.2	1560.2
959.2077	2310.3299	2434.15	1548.75
959.3399	2311.7669	2451.05	1564.85
959.4721	2313.2031	2438.25	1549.85
959.6043	2314.6387	2432.65	1540.8
959.7365	2316.0735	2432.6	1543.1
959.8686	2317.5076	2432.6	1542.25
960.0006	2318.941	2422.1	1530.45
960.1327	2320.3737	2416.25	1520.8
960.2647	2321.8056	2422.35	1529.5
960.3967	2323.2369	2403.7	1510.75
960.5287	2324.6674	2421.7	1530.35
960.6606	2326.0972	2404.65	1514.35
960.7925	2327.5263	2405.1	1515.4
960.9244	2328.9547	2394.05	1502.6
961.0562	2330.3823	2390.35	1496.3
961.1881	2331.8092	2391.65	1494.05
961.3198	2333.2355	2383	1488.85
961.4516	2334.661	2382.9	1488.25
961.5833	2336.0858	2374.65	1478.95
961.715	2337.5098	2364.15	1472.7
961.8467	2338.9332	2367.2	1474
961.9783	2340.3558	2361	1469
962.1099	2341.7778	2355.1	1466.9
962.2415	2343.199	2343.35	1454.3
962.373	2344.6195	2342.15	1454.8
962.5045	2346.0393	2341.55	1452.7
962.636	2347.4583	2344.05	1452.2
962.7675	2348.8767	2331.05	1436.95
962.8989	2350.2943	2350.35	1455.8
963.0303	2351.7113	2340.35	1444.65
963.1617	2353.1275	2333.25	1435.85
963.293	2354.543	2325.85	1422.1
963.4243	2355.9578	2330.25	1437.45
963.5556	2357.3718	2317.05	1429.2
963.6868	2358.7852	2305.1	1416.4
963.818	2360.1978	2299	1409.55
963.9492	2361.6098	2293.95	1405.65
964.0803	2363.021	2296.55	1400.1
964.2114	2364.4315	2290.15	1398.5
964.3425	2365.8413	2283.85	1394.45
964.4736	2367.2504	2284.9	1396.35
964.6046	2368.6587	2274.5	1385.3
964.7356	2370.0664	2262.55	1375.5
964.8666	2371.4733	2262.3	1373.1
964.9975	2372.8795	2266	1375.3
965.1284	2374.285	2264.25	1373.95
965.2593	2375.6899	2249.75	1362.55
965.3901	2377.0939	2238.45	1348.35
965.5209	2378.4973	2249.1	1362.2
965.6517	2379.9	2231	1342.45
965.7825	2381.3019	2243.8	1355
965.9132	2382.7032	2223.5	1339.85
966.0439	2384.1037	2219.25	1336.8
966.1745	2385.5035	2217.1	1333.2
966.3051	2386.9027	2217.05	1333.4
966.4357	2388.3011	2204.2	1315.85
966.5663	2389.6987	2214.4	1327.7
966.6968	2391.0957	2196.05	1308.8
966.8273	2392.492	2188.65	1299.9
966.9578	2393.8876	2183.3	1296
967.0882	2395.2824	2181.75	1295.85
967.2186	2396.6765	2182.5	1296.55
967.349	2398.07	2168.55	1281.3
967.4793	2399.4627	2164.45	1274.65
967.6097	2400.8547	2166.3	1277.55
967.7399	2402.246	2164.25	1271.95
967.8702	2403.6366	2152.4	1262.8
968.0004	2405.0265	2151.3	1265.95
968.1306	2406.4156	2154.95	1264.55
968.2607	2407.8041	2154.15	1264.6
968.3909	2409.1918	2139.9	1250.3
968.521	2410.5789	2137.7	1249.55
968.651	2411.9652	2140.65	1250.1
968.781	2413.3508	2137	1250.05
968.911	2414.7358	2112.8	1223.95
969.041	2416.12	2115.65	1229.25
969.1709	2417.5035	2112.9	1224.9
969.3008	2418.8863	2119.6	1229
969.4307	2420.2684	2107.25	1220
969.5606	2421.6497	2097.7	1208.8
969.6904	2423.0304	2088	1201.15
969.8201	2424.4104	2094.65	1205.7
969.9499	2425.7896	2094.8	1204.4
970.0796	2427.1682	2081.45	1194.65
970.2093	2428.546	2081.35	1194.8
970.3389	2429.9232	2083.65	1192.2
970.4685	2431.2996	2082.9	1194.25
970.5981	2432.6753	2071.45	1182.15
970.7277	2434.0503	2065.55	1177.1
970.8572	2435.4246	2071.75	1183.05
970.9867	2436.7982	2059.4	1169.6
971.1161	2438.1711	2058.3	1168.6
971.2456	2439.5433	2058.8	1167.75
971.375	2440.9148	2052.9	1158.55
971.5043	2442.2856	2038.7	1151.7
971.6336	2443.6557	2046.25	1157.75
971.7629	2445.025	2036	1146.15
971.8922	2446.3937	2033.7	1144.1
972.0214	2447.7617	2020.9	1131.6
972.1506	2449.1289	2036.75	1149.25
972.2798	2450.4955	2019.85	1128.75
972.4089	2451.8613	2023.95	1136.5
972.538	2453.2265	2024.65	1136
972.6671	2454.5909	2018.25	1127.85
972.7961	2455.9546	2012.55	1125.65
972.9251	2457.3177	2014.25	1126.5
973.0541	2458.68	2006.65	1117.25
973.1831	2460.0416	2012.8	1125.85
973.312	2461.4025	2009.8	1119.9
973.4408	2462.7627	2005.6	1106.9
973.5697	2464.1222	1997.4	1111.9
973.6985	2465.4811	1997.6	1110.15
973.8273	2466.8392	1993.15	1105.5
973.956	2468.1966	1986.6	1097.2
974.0847	2469.5533	1987.65	1096.95
974.2134	2470.9093	1985.25	1098.9
974.3421	2472.2645	1984.95	1095.5
974.4707	2473.6191	1975	1089.15
974.5993	2474.973	1977.15	1089.3
974.7278	2476.3262	1976.55	1087.45
974.8563	2477.6787	1973.25	1086.65
974.9848	2479.0305	1957.3	1071.05
975.1132	2480.3816	1966.35	1077.85
975.2417	2481.7319	1955.8	1067.65
975.37	2483.0816	1960.35	1068.4
975.4984	2484.4306	1942.9	1054.7
975.6267	2485.7789	1934.55	1047.05
975.755	2487.1264	1938.1	1050.1
975.8833	2488.4733	1943.2	1058.55
976.0115	2489.8195	1945.45	1049.4
976.1397	2491.165	1929.55	1040.25
976.2678	2492.5097	1922.4	1032.75
976.3959	2493.8538	1920	1033
976.524	2495.1972	1915.9	1028.2
976.6521	2496.5398	1916.55	1023.85
976.7801	2497.8818	1915.3	1024.55
976.9081	2499.2231	1908.15	1018.55
977.036	2500.5637	1906.7	1014.2
977.164	2501.9035	1907.65	1017.4
977.2918	2503.2427	1905.3	1010.55
977.4197	2504.5812	1898.4	1010.85
977.5475	2505.919	1905.65	1016.55
977.6753	2507.256	1888.35	998.9
977.8031	2508.5924	1889.15	1000.85
977.9308	2509.9281	1892.15	997.55
978.0585	2511.2631	1872.45	984.05
978.1861	2512.5974	1878.9	991.3
978.3137	2513.9309	1877.15	988.6
978.4413	2515.2638	1894.35	980.3
978.5689	2516.596	1875.55	988.65
978.6964	2517.9275	1864.5	975.35
978.8239	2519.2583	1867.55	976.7
978.9513	2520.5884	1860.85	969.5
979.0788	2521.9178	1853.25	965.95
979.2062	2523.2465	1850.9	964.45
979.3335	2524.5745	1853.1	968.25
979.4608	2525.9018	1850.85	963.4
979.5881	2527.2284	1846.65	960.25
979.7154	2528.5543	1841.3	952.3
979.8426	2529.8796	1839.55	950.7
979.9698	2531.2041	1845.65	958
980.0969	2532.5279	1844.6	957.3
980.224	2533.851	1838.05	949.45
980.3511	2535.1735	1833.1	944.3
980.4781	2536.4952	1832.85	943.9
980.6052	2537.8163	1823.85	934.1
980.7321	2539.1366	1830.3	940.9
980.8591	2540.4562	1833.25	942.8
980.986	2541.7752	1824.45	937.3
981.1129	2543.0935	1822.45	930.85
981.2397	2544.411	1825.2	936.55
981.3665	2545.7279	1821.95	933.7
981.4933	2547.0441	1826.05	938.15
981.62	2548.3596	1816.65	923.6
981.7467	2549.6744	1810.6	920.65
981.8734	2550.9885	1814.95	922.35
982.0001	2552.3019	1803.15	913.9
982.1267	2553.6146	1801.8	911.55
982.2532	2554.9266	1807.75	918.55
982.3798	2556.2379	1801.6	908.4
982.5063	2557.5485	1799.05	911.7
982.6327	2558.8585	1793.9	899.4
982.7592	2560.1677	1799	905.4
982.8856	2561.4762	1801.4	911.05
983.0119	2562.7841	1798.65	907.25
983.1383	2564.0913	1782.3	895.25
983.2646	2565.3977	1784.25	896.35
983.3908	2566.7035	1781.75	893.05
983.517	2568.0086	1779.75	890.65
983.6432	2569.313	1785.1	893.35
983.7694	2570.6167	1776.8	882.25
983.8955	2571.9197	1783.8	893.8
984.0216	2573.222	1774.65	880.6
984.1476	2574.5236	1779.35	889
984.2737	2575.8246	1772.3	880.1
984.3996	2577.1248	1778.25	886.15
984.5256	2578.4244	1768.3	879.5
984.6515	2579.7232	1777.2	887.3
984.7774	2581.0214	1790	873
984.9032	2582.3189	1773.35	886
985.029	2583.6157	1777.75	883.55
985.1548	2584.9118	1777.8	888.7
985.2806	2586.2072	1766.05	877.7
985.4063	2587.5019	1767.3	877.1
985.5319	2588.7959	1763.4	874.95
985.6576	2590.0893	1769.6	877.55
985.7832	2591.3819	1762.95	875.55
985.9087	2592.6739	1760.65	870.65
986.0343	2593.9652	1756.8	865.4
986.1597	2595.2557	1759.1	872.4
986.2852	2596.5456	1763.7	871.95
986.4106	2597.8348	1751.6	864.55
986.536	2599.1234	1752.5	866.15
986.6614	2600.4112	1754.8	865.65
986.7867	2601.6983	1751	859.65
986.912	2602.9848	1751.1	860.45
987.0372	2604.2705	1752.6	857.6
987.1624	2605.5556	1755.4	867.35
987.2876	2606.84	1748.35	861.7
987.4128	2608.1237	1733.2	843.9
987.5379	2609.4067	1729.95	839.6
987.6629	2610.689	1749.8	851.5
987.788	2611.9707	1733	840.65
987.913	2613.2516	1721.75	829.1
988.0379	2614.5319	1723.5	837.45
988.1629	2615.8115	1719.9	833
988.2878	2617.0903	1724.75	836.85
988.4126	2618.3685	1715.3	826.15
988.5375	2619.6461	1712.25	822.7
988.6622	2620.9229	1710.25	823.15
988.787	2622.199	1708.65	819.4
988.9117	2623.4745	1712.55	824.6
989.0364	2624.7493	1705.25	819.35
989.161	2626.0234	1701.7	813.75
989.2857	2627.2968	1703.25	816.2
989.4102	2628.5695	1707.5	819.75
989.5348	2629.8415	1698.35	810.95
989.6593	2631.1128	1692.15	805.9
989.7837	2632.3835	1690.75	802.35
989.9082	2633.6535	1682.75	795.6
990.0326	2634.9228	1685.7	797.75
990.1569	2636.1914	1691.05	807.4
990.2812	2637.4593	1687	797.25
990.4055	2638.7265	1677.4	788.75
990.5298	2639.9931	1684.2	798.9
990.654	2641.259	1681.5	794.2
990.7782	2642.5242	1680.65	794.8
990.9023	2643.7887	1676.45	788.9
991.0264	2645.0525	1668.9	780.25
991.1505	2646.3156	1676.2	787.05
991.2745	2647.5781	1674.3	787.2
991.3985	2648.8398	1658.55	773.85
991.5225	2650.1009	1689.8	764.35
991.6464	2651.3613	1664.4	777.3
991.7703	2652.6211	1654.45	768.25
991.8942	2653.8801	1655	771.15
992.018	2655.1385	1658.85	770.6
992.1418	2656.3961	1652.6	768
992.2655	2657.6531	1652.85	763.5
992.3892	2658.9094	1650.85	765.4
992.5129	2660.1651	1655.65	769.05
992.6366	2661.42	1649.3	760.4
992.7602	2662.6743	1659.35	771.3
992.8837	2663.9279	1655.9	768.95
993.0073	2665.1808	1651.1	766.3
993.1307	2666.433	1654.45	766.5
993.2542	2667.6846	1655.55	769.3
993.3776	2668.9354	1660.05	768.25
993.501	2670.1856	1660.1	771.05
993.6244	2671.4351	1649.9	764.55
993.7477	2672.6839	1653.55	763.85
993.8709	2673.9321	1664.55	776.9
993.9942	2675.1795	1664.2	778.05
994.1174	2676.4263	1663.8	777.55
994.2405	2677.6724	1664.4	776.75
994.3637	2678.9179	1661.75	774.55
994.4868	2680.1626	1659.55	774.5
994.6098	2681.4067	1660.85	774.85
994.7328	2682.6501	1658.4	772.15
994.8558	2683.8928	1651.5	765.9
994.9788	2685.1348	1653.15	767.5
995.1017	2686.3761	1646.85	759.45
995.2245	2687.6168	1639.6	753.1
995.3474	2688.8568	1643.4	755.45
995.4702	2690.0961	1622.05	736.8
995.5929	2691.3348	1626.1	740.4
995.7156	2692.5727	1630.35	742.45
995.8383	2693.81	1622.9	737.9
995.961	2695.0466	1613.05	727.85
996.0836	2696.2826	1634.05	745.45
996.2062	2697.5178	1649.5	744.2
996.3287	2698.7524	1620.2	733.85
996.4512	2699.9863	1622.85	733.8
996.5737	2701.2195	1617.6	732.85
996.6961	2702.452	1630.2	742.7
996.8185	2703.6839	1627.6	740.25
996.9408	2704.9151	1625.5	738
997.0631	2706.1456	1633.3	747.4
997.1854	2707.3755	1639.2	750
997.3077	2708.6046	1648.3	759.35
997.4299	2709.8331	1650.1	763.55
997.552	2711.0609	1651.8	762.75
997.6742	2712.2881	1664.15	777.85
997.7963	2713.5145	1671.2	784.2
997.9183	2714.7403	1674.15	786.95
998.0403	2715.9654	1686.25	800.4
998.1623	2717.1899	1709.8	808.6
998.2842	2718.4136	1698.6	810.85
998.4062	2719.6367	1721.7	834.1
998.528	2720.8591	1724.3	829.9
998.6498	2722.0809	1732.4	845.75
998.7716	2723.3019	1741.35	850.7
998.8934	2724.5223	1749.45	862.35
999.0151	2725.7421	1755.25	868.8
999.1368	2726.9611	1759.25	871
999.2584	2728.1795	1752.3	861.5
999.38	2729.3972	1742.25	854.9
999.5016	2730.6142	1742.45	846.9
999.6231	2731.8306	1720.9	832.95
999.7446	2733.0462	1703.75	817.65
999.8661	2734.2612	1694.6	804.8
999.9875	2735.4756	1664.95	778.75
1000.1089	2736.6892	1648.45	762.7
1000.2302	2737.9022	1635.9	751.45
1000.3515	2739.1145	1627.85	742.5
1000.4728	2740.3262	1636.1	744.95
1000.594	2741.5372	1607.1	720.6
1000.7152	2742.7475	1585.85	698.7
1000.8363	2743.9571	1575.55	688.6
1000.9575	2745.1661	1571.8	680.75
1001.0785	2746.3744	1559.5	673.4
1001.1996	2747.582	1564.15	678.65
1001.3206	2748.7889	1544.75	656.85
1001.4415	2749.9952	1539.05	652.9
1001.5625	2751.2008	1542.55	654.25
1001.6833	2752.4057	1533	644.9
1001.8042	2753.61	1521.55	635.1
1001.925	2754.8136	1524.15	637.8
1002.0458	2756.0165	1526.3	642.2
1002.1665	2757.2188	1519.75	635.55
1002.2872	2758.4204	1519.85	633.65
1002.4078	2759.6213	1523	635.65
1002.5285	2760.8215	1527	639.7
1002.649	2762.0211	1513.9	627.15
1002.7696	2763.22	1524.95	637.45
1002.8901	2764.4182	1511.4	623.85
1003.0106	2765.6158	1507.15	622.95
1003.131	2766.8127	1502	616.35
1003.2514	2768.009	1496.1	610.6
1003.3717	2769.2045	1504.5	617.45
1003.492	2770.3994	1497.85	611.5
1003.6123	2771.5936	1495.3	608.8
1003.7325	2772.7872	1488.15	604.65
1003.8527	2773.9801	1488.25	602.85
1003.9729	2775.1723	1500.5	602.4
1004.093	2776.3639	1484.5	600.7
1004.2131	2777.5548	1480.5	593.75
1004.3331	2778.745	1484.3	598.9
1004.4531	2779.9346	1483.05	599.5
1004.5731	2781.1235	1486.95	601.65
1004.693	2782.3117	1485.65	605.3
1004.8129	2783.4992	1483.45	597.8
1004.9328	2784.6861	1490.55	609.5
1005.0526	2785.8723	1497.8	612.4
1005.1723	2787.0579	1504	619.05
1005.2921	2788.2428	1509.15	627.05
1005.4118	2789.427	1506.55	622.85
1005.5314	2790.6106	1505.9	621.25
1005.651	2791.7935	1518.75	633.8
1005.7706	2792.9757	1523.35	641.15
1005.8902	2794.1573	1537.2	650.55
1006.0097	2795.3382	1543.85	661.15
1006.1291	2796.5184	1563.1	680.35
1006.2485	2797.698	1575.35	690.85
1006.3679	2798.8769	1575.6	693.8
1006.4873	2800.0551	1595.2	709.25
1006.6066	2801.2327	1605.9	720.35
1006.7258	2802.4096	1615.85	730.7
1006.8451	2803.5859	1634.8	752.35
1006.9642	2804.7615	1646	760.75
1007.0834	2805.9364	1674.4	790.6
1007.2025	2807.1106	1699.95	817.2
1007.3216	2808.2842	1721.25	836.3
1007.4406	2809.4572	1752.85	869.05
1007.5596	2810.6294	1778.1	894.65
1007.6785	2811.801	1811.9	929.3
1007.7975	2812.972	1852.1	969.25
1007.9163	2814.1423	1889.85	1005.15
1008.0352	2815.3119	1936.85	1053.8
1008.154	2816.4808	1964.85	1084.85
1008.2727	2817.6491	2029.5	1143.35
1008.3914	2818.8167	2076.65	1196.55
1008.5101	2819.9837	2128	1239.1
1008.6288	2821.15	2163.7	1280
1008.7474	2822.3157	2215.9	1336.3
1008.8659	2823.4807	2269.7	1384.45
1008.9844	2824.645	2321.95	1438.2
1009.1029	2825.8086	2365.6	1482.1
1009.2214	2826.9716	2412.75	1529.2
1009.3398	2828.134	2459.7	1577.3
1009.4581	2829.2957	2504.95	1624.45
1009.5764	2830.4567	2538.1	1655.35
1009.6947	2831.617	2563.1	1679.05
1009.813	2832.7767	2563.4	1680.1
1009.9312	2833.9358	2571.5	1687.8
1010.0493	2835.0941	2567.95	1683.45
1010.1675	2836.2519	2556.25	1675.2
1010.2855	2837.4089	2533.15	1648.95
1010.4036	2838.5653	2529.45	1645.5
1010.5216	2839.7211	2519.9	1637.8
1010.6396	2840.8761	2516.1	1630.95
1010.7575	2842.0306	2538.4	1658.05
1010.8754	2843.1843	2555.75	1674.9
1010.9932	2844.3374	2606.7	1724.05
1011.111	2845.4899	2649.7	1766.6
1011.2288	2846.6417	2698.65	1818.5
1011.3465	2847.7928	2777.5	1896.95
1011.4642	2848.9433	2835.25	1955.25
1011.5818	2850.0931	2907.6	2024.8
1011.6995	2851.2422	2970.85	2085.7
1011.817	2852.3907	3031.35	2147.5
1011.9345	2853.5385	3088.25	2201.95
1012.052	2854.6857	3146.3	2253.05
1012.1695	2855.8323	3179.5	2296.05
1012.2869	2856.9781	3224.55	2342.8
1012.4042	2858.1233	3277.65	2396.3
1012.5216	2859.2679	3330.1	2448.85
1012.6389	2860.4118	3379.1	2497.35
1012.7561	2861.555	3429.3	2543.5
1012.8733	2862.6976	3463.25	2578.85
1012.9905	2863.8395	3504.6	2622.5
1013.1076	2864.9808	3508.65	2627.25
1013.2247	2866.1214	3538	2656.85
1013.3417	2867.2614	3551.6	2667.5
1013.4587	2868.4007	3555.65	2672
1013.5757	2869.5393	3563.2	2678.25
1013.6926	2870.6773	3592.1	2708.3
1013.8095	2871.8146	3611.2	2724.4
1013.9263	2872.9513	3605.35	2719.25
1014.0431	2874.0874	3590.55	2708.3
1014.1599	2875.2227	3594.95	2711.4
1014.2766	2876.3574	3561.75	2679.5
1014.3933	2877.4915	3533.1	2651.7
1014.51	2878.6249	3520.7	2640.1
1014.6266	2879.7577	3479	2594.35
1014.7431	2880.8898	3478.15	2585.8
1014.8596	2882.0212	3452.05	2570.25
1014.9761	2883.152	3442.9	2561
1015.0925	2884.2821	3436	2553.35
1015.2089	2885.4116	3420.05	2538.8
1015.3253	2886.5405	3423.35	2541.35
1015.4416	2887.6686	3435.7	2552.9
1015.5579	2888.7962	3430.75	2550.95
1015.6741	2889.923	3452.75	2572.25
1015.7903	2891.0493	3446.15	2565.7
1015.9065	2892.1748	3465.95	2583.4
1016.0226	2893.2997	3489.35	2605.45
1016.1387	2894.424	3488.7	2606.9
1016.2547	2895.5476	3503.3	2621.6
1016.3707	2896.6706	3534.6	2657
1016.4866	2897.7929	3562.1	2681.1
1016.6025	2898.9145	3577.15	2696.45
1016.7184	2900.0355	3623	2741.35
1016.8342	2901.1559	3630.95	2747.4
1016.95	2902.2756	3666.5	2784.2
1017.0658	2903.3946	3707.7	2827.4
1017.1815	2904.513	3729.9	2845.9
1017.2971	2905.6308	3759.3	2879.55
1017.4127	2906.7479	3758.75	2878.6
1017.5283	2907.8643	3787.15	2905.8
1017.6439	2908.9801	3818.85	2936.5
1017.7594	2910.0953	3812.55	2931.5
1017.8748	2911.2098	3819	2933.8
1017.9902	2912.3236	3799.25	2910.6
1018.1056	2913.4368	3803.15	2917.95
1018.2209	2914.5494	3785	2903.45
1018.3362	2915.6613	3745.1	2855.6
1018.4515	2916.7725	3712.55	2826.15
1018.5667	2917.8831	3690.4	2808.6
1018.6819	2918.9931	3674.85	2791.1
1018.797	2920.1024	3637.2	2756.45
1018.9121	2921.211	3614.05	2732.85
1019.0271	2922.319	3589.2	2708.9
1019.1421	2923.4264	3561.75	2679.6
1019.2571	2924.5331	3559.05	2679.95
1019.372	2925.6391	3567	2686.8
1019.4869	2926.7445	3544.9	2665.6
1019.6017	2927.8493	3556.3	2673.6
1019.7165	2928.9534	3550.5	2668.9
1019.8313	2930.0569	3542.95	2658
1019.946	2931.1597	3563.6	2683.2
1020.0606	2932.2619	3559.7	2679.9
1020.1753	2933.3634	3552.15	2670.9
1020.2899	2934.4643	3548.35	2661
1020.4044	2935.5645	3539.05	2650.95
1020.5189	2936.6641	3504.7	2620.1
1020.6334	2937.763	3470.95	2590.8
1020.7478	2938.8613	3430.45	2549.6
1020.8622	2939.959	3391.05	2505.3
1020.9765	2941.056	3306.35	2426.25
1021.0908	2942.1523	3227.95	2346.55
1021.2051	2943.248	3160.5	2279.7
1021.3193	2944.3431	3074.25	2192.65
1021.4334	2945.4375	2965.55	2084.45
1021.5476	2946.5313	2877.25	1995.7
1021.6617	2947.6244	2779.25	1900
1021.7757	2948.7169	2690.7	1809.5
1021.8897	2949.8087	2595.1	1715.8
1022.0037	2950.8999	2505.35	1623.8
1022.1176	2951.9904	2423.35	1543.2
1022.2315	2953.0803	2356.15	1474.85
1022.3453	2954.1696	2300.5	1421.75
1022.4591	2955.2582	2252.9	1371.2
1022.5728	2956.3462	2214.35	1333.95
1022.6865	2957.4335	2170	1287.25
1022.8002	2958.5202	2139.2	1257.55
1022.9138	2959.6062	2110.65	1230.25
1023.0274	2960.6916	2087.9	1209.85
1023.141	2961.7764	2075.3	1195.15
1023.2545	2962.8605	2053.35	1172.4
1023.3679	2963.9439	2040.05	1159.9
1023.4813	2965.0267	2029.8	1148.6
1023.5947	2966.1089	2047.9	1146.75
1023.708	2967.1905	2016.45	1135.85
1023.8213	2968.2714	2010.4	1130.1
1023.9346	2969.3516	2009.3	1130.45
1024.0478	2970.4312	2014.15	1126.9
1024.1609	2971.5102	2014.85	1134.75
1024.274	2972.5885	2015	1136.1
1024.3871	2973.6662	2009.55	1123.9
1024.5002	2974.7432	2010	1129.75
1024.6132	2975.8196	2008.35	1130.3
1024.7261	2976.8954	1999.85	1119.25
1024.839	2977.9705	1986.75	1106.4
1024.9519	2979.045	1978.45	1098.65
1025.0647	2980.1188	1965.15	1086.25
1025.1775	2981.192	1943.6	1063.85
1025.2902	2982.2645	1925.1	1041.8
1025.4029	2983.3364	1907.85	1028.1
1025.5156	2984.4077	1883.75	1003.3
1025.6282	2985.4783	1866.4	978.35
1025.7407	2986.5483	1823.95	945
1025.8532	2987.6177	1796.8	916.8
1025.9657	2988.6864	1759.15	877.7
1026.0782	2989.7545	1722.7	842.2
1026.1906	2990.8219	1686.1	807.1
1026.3029	2991.8887	1666.35	785.75
1026.4152	2992.9548	1627.95	747
1026.5275	2994.0204	1602.4	724.9
1026.6397	2995.0852	1568.2	688.8
1026.7519	2996.1495	1553.25	673.2
1026.864	2997.2131	1526	647.5
1026.9761	2998.276	1493.15	614.05
1027.0882	2999.3383	1480.9	602.5
1027.2002	3000.4	1466.05	585.15
1027.3122	3001.4611	1441.4	561.9
1027.4241	3002.5215	1439.35	558.65
1027.536	3003.5812	1416.65	537.5
1027.6478	3004.6404	1399.95	517.65
1027.7596	3005.6989	1395.35	514.75
1027.8714	3006.7567	1382.85	503.25
1027.9831	3007.8139	1394.95	488.8
1028.0947	3008.8705	1362.15	483.3
1028.2064	3009.9264	1354.05	472.45
1028.3179	3010.9818	1347.85	469.4
1028.4295	3012.0364	1341	460.8
1028.541	3013.0905	1342.1	465
1028.6524	3014.1439	1337.8	458.95
1028.7638	3015.1966	1328.5	448.65
1028.8752	3016.2487	1327.55	447.9
1028.9865	3017.3002	1333.75	448.2
1029.0978	3018.3511	1326.5	448.35
1029.209	3019.4013	1322.6	441.3
1029.3202	3020.4509	1319.65	440.6
1029.4314	3021.4998	1317.3	438.25
1029.5425	3022.5481	1319.9	440.4
1029.6535	3023.5958	1322.5	442.9
1029.7645	3024.6428	1314.6	434.3
1029.8755	3025.6892	1312.55	434.25
1029.9864	3026.735	1311.9	432.4
1030.0973	3027.7802	1316.7	436.1
1030.2082	3028.8247	1313.75	435.2
1030.319	3029.8685	1317.05	439.1
1030.4297	3030.9118	1316.55	436.35
1030.5404	3031.9544	1319.7	441.4
1030.6511	3032.9963	1325.2	446.15
1030.7617	3034.0376	1326.05	449
1030.8723	3035.0783	1332	450.4
1030.9829	3036.1184	1333.95	455.95
1031.0934	3037.1578	1327.75	448.95
1031.2038	3038.1966	1338.05	458.65
1031.3142	3039.2348	1336.85	459.85
1031.4246	3040.2723	1349.05	461.6
1031.5349	3041.3092	1334.1	458.15
1031.6452	3042.3455	1333.7	454.25
1031.7554	3043.3811	1335.5	455.65
1031.8656	3044.4161	1326.25	447.35
1031.9758	3045.4505	1329.8	453
1032.0859	3046.4842	1327.55	448.5
1032.1959	3047.5173	1319.75	442.7
1032.3059	3048.5498	1313.3	436.25
1032.4159	3049.5816	1310.9	432.05
1032.5258	3050.6128	1308.65	428.95
1032.6357	3051.6434	1307.1	427.05
1032.7455	3052.6734	1299.35	419.1
1032.8553	3053.7027	1296.9	418.25
1032.9651	3054.7314	1289.4	411.4
1033.0748	3055.7594	1283.65	406.45
1033.1845	3056.7868	1283.4	405.7
1033.2941	3057.8136	1275.55	394.8
1033.4037	3058.8398	1276.9	399.4
1033.5132	3059.8653	1273.8	395.95
1033.6227	3060.8902	1273.85	397.2
1033.7321	3061.9145	1260.8	381.8
1033.8415	3062.9381	1261.6	384.3
1033.9509	3063.9612	1265.6	371.65
1034.0602	3064.9835	1250.45	374.35
1034.1694	3066.0053	1247.6	369.45
1034.2787	3067.0264	1240.35	363.5
1034.3878	3068.0469	1242.65	364.55
1034.497	3069.0668	1234.3	354.05
1034.6061	3070.086	1228.9	351.6
1034.7151	3071.1046	1221.05	342.4
1034.8241	3072.1226	1216.75	337.8
1034.9331	3073.1399	1207.5	329.25
1035.042	3074.1567	1199.25	322.6
1035.1508	3075.1727	1195.75	314.45
1035.2597	3076.1882	1181.6	300.9
1035.3684	3077.203	1174.1	296.9
1035.4772	3078.2173	1168.7	289.2
1035.5859	3079.2308	1170.95	290.3
1035.6945	3080.2438	1162.05	283.6
1035.8031	3081.2561	1149.7	270.5
1035.9117	3082.2678	1140.3	263.2
1036.0202	3083.2789	1137.5	260.9
1036.1286	3084.2893	1133.1	255.7
1036.2371	3085.2991	1126.6	250.55
1036.3454	3086.3083	1124.8	241.75
1036.4538	3087.3169	1114.4	236.9
1036.562	3088.3248	1111	233.5
1036.6703	3089.3321	1111.55	231.4
1036.7785	3090.3388	1103.55	226.8
1036.8866	3091.3449	1097.6	218
1036.9948	3092.3503	1102.45	222.5
1037.1028	3093.3551	1091.45	211.7
1037.2108	3094.3593	1085.85	208.95
1037.3188	3095.3629	1084.9	207.9
1037.4267	3096.3658	1080.6	201
1037.5346	3097.3681	1077.5	199.3
1037.6425	3098.3698	1082	203.2
1037.7503	3099.3708	1084.35	199.25
1037.858	3100.3713	1075.55	199.8
1037.9657	3101.3711	1070.5	192
1038.0734	3102.3702	1203.1	184.9
1038.181	3103.3688	1070.15	190.3
1038.2886	3104.3667	1059.45	183.8
1038.3961	3105.364	1063.6	186.3
1038.5036	3106.3607	1059.15	179.55
1038.611	3107.3568	1056.85	177.05
1038.7184	3108.3522	1054.05	177.6
1038.8257	3109.347	1047.75	167.7
1038.933	3110.3412	1058.3	174.5
1039.0403	3111.3348	1050	171.6
1039.1475	3112.3277	1049.65	172.5
1039.2547	3113.32	1048.9	170.55
1039.3618	3114.3117	1048.85	171.05
1039.4689	3115.3028	1039.55	162.95
1039.5759	3116.2932	1042.85	165.15
1039.6829	3117.2831	1045.05	162.65
1039.7898	3118.2723	1035.85	160
1039.8967	3119.2608	1037.05	159.45
1040.0035	3120.2488	1037.4	159.85
1040.1103	3121.2361	1036.55	158.85
1040.2171	3122.2229	1033.4	156
1040.3238	3123.209	1027.75	149.85
1040.4305	3124.1944	1031.15	154.2
1040.5371	3125.1793	1031.3	153.25
1040.6437	3126.1635	1027.5	151.75
1040.7502	3127.1471	1025.8	148.45
1040.8567	3128.1301	1021.85	143.85
1040.9631	3129.1125	1020.95	144.95
1041.0695	3130.0942	1022.75	144.3
1041.1759	3131.0753	1026.55	141.45
1041.2822	3132.0558	1020.55	138.9
1041.3884	3133.0357	1018.9	141.15
1041.4946	3134.015	1023.8	144.5
1041.6008	3134.9936	1017.8	140.4
1041.7069	3135.9716	1037.15	136
1041.813	3136.949	1015.05	141.8
1041.919	3137.9258	1031	136.3
1042.025	3138.902	1018.65	137.2
1042.1309	3139.8775	1009.4	131.75
1042.2368	3140.8524	1006.5	129.7
1042.3427	3141.8267	1007.85	128.1
1042.4485	3142.8004	1005.95	131.3
1042.5542	3143.7735	1009.3	126
1042.6599	3144.7459	1008.45	129.35
1042.7656	3145.7178	1007.9	132.05
1042.8712	3146.689	1000.1	123.6
1042.9768	3147.6596	1003.45	125
1043.0823	3148.6295	1001.5	124.25
1043.1878	3149.5989	1004.85	127.9
1043.2932	3150.5676	996.4	121.15
1043.3986	3151.5357	997.25	121
1043.5039	3152.5032	996.15	120.65
1043.6092	3153.4701	999.3	122.6
1043.7145	3154.4364	998.7	118.9
1043.8197	3155.402	989.3	112.85
1043.9248	3156.367	995.75	118.2
1044.03	3157.3315	1026.35	120.2
1044.135	3158.2952	992.45	116.05
1044.24	3159.2584	990	114.05
1044.345	3160.221	991.6	115.55
1044.4499	3161.1829	992.05	114.7
1044.5548	3162.1442	988.5	111.25
1044.6596	3163.105	985.3	107.5
1044.7644	3164.065	989.15	114.65
1044.8692	3165.0245	989.8	110.85
1044.9739	3165.9834	982.85	109
1045.0785	3166.9416	987.2	109.3
1045.1831	3167.8993	986.5	108.75
1045.2877	3168.8563	982.95	102.35
1045.3922	3169.8127	981.8	105.7
1045.4966	3170.7684	980.9	103.3
1045.6011	3171.7236	978.55	98.2
1045.7054	3172.6782	980.1	104.1
1045.8098	3173.6321	979.75	101.9
1045.914	3174.5854	983.5	102.7
1046.0183	3175.5381	978.35	103.7
1046.1224	3176.4902	977.95	100.7
1046.2266	3177.4417	976.1	99.95
1046.3307	3178.3926	977.5	101.9
1046.4347	3179.3428	978.25	102.8
1046.5387	3180.2924	973.05	98.25
1046.6427	3181.2415	977.55	101.6
1046.7466	3182.1899	976.15	100.4
1046.8504	3183.1377	973.8	97.65
1046.9542	3184.0848	975.7	97.3
1047.058	3185.0314	970	93.7
1047.1617	3185.9773	972.4	92.85
1047.2654	3186.9227	971.1	94.25
1047.369	3187.8674	969.95	92.15
1047.4726	3188.8115	972	91.05
1047.5761	3189.755	969.6	94.35
1047.6796	3190.6979	968.95	92.3
1047.783	3191.6402	964.2	91.35
1047.8864	3192.5818	965.1	88.1
1047.9898	3193.5229	985.65	90.65
1048.0931	3194.4633	964.65	90.8
1048.1963	3195.4031	964.45	88.7
1048.2995	3196.3423	964.5	87.35
1048.4027	3197.2809	964	85.6
1048.5058	3198.2189	967.05	90.3
1048.6089	3199.1563	969.6	88.45
1048.7119	3200.0931	965.75	90.45
1048.8148	3201.0292	962.55	88.1
1048.9178	3201.9648	962.95	86
1049.0206	3202.8997	964.15	84.35
1049.1235	3203.834	963.15	88.2
1049.2262	3204.7677	955.25	78.75
1049.329	3205.7008	956.85	78.45
1049.4317	3206.6333	958.5	84.75
1049.5343	3207.5652	957.65	79
1049.6369	3208.4964	959.35	85.5
1049.7394	3209.4271	963.4	87.45
1049.8419	3210.3571	959.2	85.05
1049.9444	3211.2865	958.9	83.95
1050.0468	3212.2154	954.35	77.35
1050.1491	3213.1436	961.95	82
1050.2514	3214.0712	961.3	78.65
1050.3537	3214.9982	957.2	81.1
1050.4559	3215.9246	953.8	78.15
1050.5581	3216.8503	951.85	76.45
1050.6602	3217.7755	958.5	83.1
1050.7623	3218.7001	956.9	80.45
1050.8643	3219.624	953.05	76.25
1050.9663	3220.5473	955.7	80.8
1051.0682	3221.4701	955.95	79.15
1051.1701	3222.3922	955.6	77.65
1051.2719	3223.3137	953.9	77.4
1051.3737	3224.2346	948.7	73.05
1051.4754	3225.1549	949.65	75.6
1051.5771	3226.0746	947.95	73.5
1051.6788	3226.9937	947.8	71.85
1051.7804	3227.9121	947.1	73.5
1051.8819	3228.83	950.45	74.65
1051.9834	3229.7473	950	73.8
1052.0849	3230.6639	949.05	71.55
1052.1863	3231.5799	946.15	69.3
1052.2876	3232.4954	947.6	72.05
1052.3889	3233.4102	948.8	72.65
1052.4902	3234.3244	946.2	71.8
1052.5914	3235.238	946.15	69.6
1052.6926	3236.151	970.75	72.05
1052.7937	3237.0634	943.8	69.25
1052.8948	3237.9752	945.75	69
1052.9958	3238.8864	947.1	71.1
1053.0968	3239.797	943.5	68.85
1053.1977	3240.7069	941.55	65.3
1053.2986	3241.6163	945.65	69.25
1053.3994	3242.5251	942.55	68.9
1053.5002	3243.4332	942.55	67.7
1053.6009	3244.3408	939.9	64
1053.7016	3245.2477	940.15	64.5
1053.8022	3246.154	942.85	64.7
1053.9028	3247.0598	941.75	65.15
1054.0034	3247.9649	936.65	60.1
1054.1039	3248.8694	935.95	60.5
1054.2043	3249.7733	936.5	61.95
1054.3047	3250.6766	938.25	63.25
1054.4051	3251.5793	940.85	65.9
1054.5054	3252.4814	935.5	61.1
1054.6056	3253.3829	935.6	59.45
1054.7058	3254.2838	935.35	59.65
1054.806	3255.1841	934.55	59.3
1054.9061	3256.0838	934.45	59.45
1055.0061	3256.9829	933.95	59.6
1055.1062	3257.8814	938.55	61.25
1055.2061	3258.7792	936.75	59.5
1055.306	3259.6765	932.7	56.4
1055.4059	3260.5731	932.45	58.9
1055.5057	3261.4692	931.25	54.65
1055.6055	3262.3647	928	52.7
1055.7052	3263.2595	928.65	53.9
1055.8049	3264.1538	929.95	55.15
1055.9045	3265.0474	929.8	54
1056.0041	3265.9404	925.4	49.25
1056.1036	3266.8329	926.65	52.3
1056.2031	3267.7247	934.6	49.95
1056.3025	3268.616	923.2	48.5
1056.4019	3269.5066	921.45	47.3
1056.5013	3270.3966	918.65	41.95
1056.6005	3271.286	919.7	46.3
