Software Version:	3.9.2.0
Unit SN:	10000200
Spectrometer SN:	6960
Date:	3/8/2024 1:52:31 PM
Data Line Index:	25
Spectral Points:	2048
Integration time (ms):	125
Averages:	20
Delay (ms):	30000
Sequence Number:	1
Processing:	dark subtract
Laser Power (mW):	300
Laser Current (mA):	823
Laser Diode Temp (C):	25
Laser Case Temp (C):	26.4
System Temp (C):	26.4
Spectrometer Temp (C):	24.2
CCD Temp (C):	0.008
Secondary Temp (C):	20.008
Heatsink Temp (C):	20.739
CCDPCB Temp (C):	36.34
SecondaryPCB Temp (C):	31.005

Wavelength	RamanShift	Raw Counts	Dark Subtracted
787.061	30.1047	471.05	63.4
787.2016	32.3739	474.3	69.95
787.3422	34.6426	480.2	73.45
787.4828	36.9109	486.5	77.1
787.6235	39.1787	493.1	79.5
787.7642	41.4461	506.2	89.75
787.9049	43.7131	515.2	94
788.0456	45.9796	523.35	100.05
788.1863	48.2456	533.05	107.05
788.3271	50.5112	546.05	114.05
788.4679	52.7764	557.2	125.5
788.6087	55.0411	567.95	129.6
788.7496	57.3054	582.05	136.5
788.8904	59.5692	585.25	136.85
789.0313	61.8326	602.55	154.45
789.1722	64.0955	617.25	166.1
789.3132	66.3579	633.4	175.85
789.4541	68.6199	661.55	199.35
789.5951	70.8815	696.85	229.15
789.7361	73.1426	783.9	315.35
789.8771	75.4032	1007.65	532.7
790.0181	77.6634	1552.9	1069.75
790.1592	79.9231	2863.25	2375.75
790.3003	82.1824	5705.6	5203.9
790.4414	84.4412	10878.15	10347.25
790.5825	86.6995	18050.8	17482.2
790.7237	88.9574	24977.7	24373.45
790.8648	91.2148	29820.35	29197.1
791.006	93.4717	32183.75	31549.5
791.1472	95.7282	32745.15	32102.9
791.2885	97.9842	32772.05	32121.75
791.4297	100.2398	32282.2	31632.55
791.571	102.4949	31701.8	31044.25
791.7123	104.7495	31002.85	30345.25
791.8536	107.0036	30312.2	29655.95
791.9949	109.2573	29570.9	28916.4
792.1363	111.5105	28831.05	28171.3
792.2777	113.7632	28138.6	27473.5
792.4191	116.0154	27592.95	26918.5
792.5605	118.2672	27198.2	26530.05
792.7019	120.5185	26785.15	26115.25
792.8434	122.7693	26423.8	25751.5
792.9849	125.0197	26149.75	25470.05
793.1264	127.2696	25876.5	25196.85
793.2679	129.519	25793.3	25105.5
793.4094	131.7679	25637.75	24949.45
793.551	134.0163	25496.75	24806.8
793.6926	136.2642	25330.25	24641.75
793.8342	138.5117	25145.8	24447.9
793.9758	140.7587	24961.3	24263.25
794.1175	143.0052	24764.4	24062.4
794.2591	145.2512	24530	23828.85
794.4008	147.4967	24314.8	23612.55
794.5425	149.7417	24188.45	23482.7
794.6842	151.9863	24079.1	23367.9
794.826	154.2304	24058.8	23339
794.9677	156.4739	23950.45	23231.75
795.1095	158.717	23915.55	23198.85
795.2513	160.9596	23714.7	22991.8
795.3931	163.2017	23520.55	22792.5
795.535	165.4433	23237.75	22511.2
795.6768	167.6844	22884.9	22159.05
795.8187	169.925	22651.3	21916.8
795.9606	172.1651	22307.8	21577.85
796.1025	174.4047	22054.35	21319.55
796.2445	176.6439	21775.15	21038.4
796.3864	178.8825	21589.55	20849.6
796.5284	181.1206	21467.4	20721.5
796.6704	183.3582	21300.25	20549.55
796.8124	185.5954	21238	20485.4
796.9544	187.832	21160.6	20402.7
797.0965	190.0681	21167.8	20413.95
797.2386	192.3037	21200.5	20440.2
797.3806	194.5388	21191.5	20427.5
797.5228	196.7734	21311.05	20541.65
797.6649	199.0075	21404.4	20637.45
797.807	201.2411	21587.2	20814.4
797.9492	203.4742	21626.5	20853.55
798.0914	205.7068	21835.85	21061.25
798.2336	207.9389	21988.1	21211.55
798.3758	210.1704	22165.7	21392.3
798.518	212.4015	22283.15	21519.05
798.6603	214.632	22474.5	21719.05
798.8025	216.862	22682.15	21934.3
798.9448	219.0915	22834.55	22081
799.0871	221.3205	23095.35	22337.3
799.2294	223.549	23356.65	22608.45
799.3718	225.777	23697.6	22942.5
799.5141	228.0044	24088.35	23330.5
799.6565	230.2314	24541.7	23781.2
799.7989	232.4578	24955.4	24192.9
799.9413	234.6837	25343.15	24573.5
800.0837	236.909	25566.95	24793.55
800.2262	239.1339	25607.75	24806.9
800.3687	241.3582	25448.7	24662.45
800.5111	243.582	25116.95	24301.45
800.6536	245.8053	24802.2	24001.55
800.7961	248.0281	24519.55	23718.4
800.9387	250.2503	24319.1	23520.25
801.0812	252.472	24200.3	23395.55
801.2238	254.6932	24196.15	23394.3
801.3664	256.9139	24099.85	23297.3
801.509	259.134	24190	23380.2
801.6516	261.3536	24167.5	23361.25
801.7942	263.5727	24295.15	23487.8
801.9369	265.7912	24267.2	23458.05
802.0795	268.0092	24350.1	23541.85
802.2222	270.2267	24325.7	23517.7
802.3649	272.4436	24282.1	23472.7
802.5076	274.6601	24284.6	23469.9
802.6504	276.8759	24218.65	23406.95
802.7931	279.0913	24235.05	23422.35
802.9359	281.3061	24204.8	23386.85
803.0787	283.5204	24262.15	23439.55
803.2215	285.7341	24343.65	23517.45
803.3643	287.9473	24540.25	23707.8
803.5071	290.16	24806.75	23980.4
803.6499	292.3721	25104.1	24287.3
803.7928	294.5837	25527.95	24702.9
803.9357	296.7947	25876.1	25053.55
804.0786	299.0052	26069.8	25250.05
804.2215	301.2152	25971.7	25146.15
804.3644	303.4246	25696.65	24877.1
804.5074	305.6334	25190.05	24368.15
804.6503	307.8418	24704.75	23883.2
804.7933	310.0495	24336.4	23506.1
804.9363	312.2568	24014.25	23183.55
805.0793	314.4635	23784.45	22952.3
805.2223	316.6696	23724.5	22888.1
805.3653	318.8752	23667	22828.95
805.5084	321.0802	23713.65	22878.65
805.6514	323.2847	23834.75	22994.75
805.7945	325.4887	23921.4	23081.6
805.9376	327.692	23877.75	23037.95
806.0807	329.8949	23797	22960
806.2238	332.0972	23540.25	22702
806.367	334.2989	23325.75	22482
806.5101	336.5001	23038.1	22190.1
806.6533	338.7007	22865.05	22020.65
806.7965	340.9008	22805.35	21957.4
806.9397	343.1003	22671	21822.95
807.0829	345.2992	22678.9	21832.75
807.2261	347.4976	22656.7	21806.9
807.3693	349.6955	22678.95	21825.65
807.5126	351.8927	22791.3	21939.05
807.6559	354.0895	22754.95	21888.5
807.7991	356.2856	22856	21999.25
807.9424	358.4812	22848.7	21996
808.0857	360.6763	22911.45	22054.3
808.2291	362.8707	22929.6	22066.6
808.3724	365.0646	22975.5	22111.1
808.5158	367.258	22969.5	22106.05
808.6591	369.4508	22975.35	22103.4
808.8025	371.643	23109.3	22241.1
808.9459	373.8346	23126	22256.9
809.0893	376.0257	23151.05	22275.9
809.2327	378.2162	23042.75	22167.35
809.3762	380.4062	23006.35	22138.3
809.5196	382.5956	22845.3	21978.4
809.6631	384.7844	22762.15	21902.6
809.8066	386.9726	22673	21810.35
809.9501	389.1603	22653.95	21794.15
810.0936	391.3474	22651.75	21761.1
810.2371	393.5339	22662	21798.3
810.3806	395.7199	22537.6	21674.35
810.5241	397.9052	22634.7	21774.55
810.6677	400.09	22657.5	21794
810.8113	402.2743	22782.6	21918.35
810.9548	404.4579	22819.45	21957.7
811.0984	406.641	23084.35	22218.2
811.2421	408.8235	23288	22427.8
811.3857	411.0054	23582.15	22716.2
811.5293	413.1868	24051.85	23176.5
811.673	415.3675	24392.65	23517.8
811.8166	417.5477	24575.2	23699.85
811.9603	419.7273	24625.65	23752.1
812.104	421.9064	24518.1	23636.7
812.2477	424.0848	24445.9	23570.15
812.3914	426.2627	24224.6	23345.35
812.5351	428.4399	23956.65	23080.9
812.6788	430.6166	23607.8	22726.4
812.8226	432.7928	23282.15	22400.8
812.9663	434.9683	22946.15	22065.7
813.1101	437.1432	22751.75	21871.4
813.2539	439.3176	22616.1	21739.5
813.3977	441.4914	22430.1	21557.6
813.5415	443.6645	22457.25	21583.55
813.6853	445.8371	22375.3	21495
813.8291	448.0091	22322.6	21444.4
813.973	450.1806	22308.5	21427.15
814.1168	452.3514	22261.7	21382.95
814.2607	454.5216	22339.5	21448.1
814.4046	456.6913	22219.85	21338.8
814.5485	458.8603	22276.8	21397.2
814.6924	461.0288	22378.35	21507.45
814.8363	463.1967	22373.2	21501.2
814.9802	465.3639	22538.7	21664.25
815.1241	467.5306	22617.95	21740.05
815.2681	469.6967	22771.75	21897.35
815.412	471.8622	22918	22045.1
815.556	474.0271	23104.45	22232.95
815.7	476.1914	23147.9	22265.6
815.844	478.3551	23156.05	22276.8
815.988	480.5182	23167.1	22287.8
816.132	482.6807	23201.3	22330.35
816.276	484.8426	23312.45	22448.85
816.4201	487.0039	23644.15	22772.3
816.5641	489.1647	24029	23150.7
816.7082	491.3248	24514.25	23635.75
816.8522	493.4843	24724.55	23849.6
816.9963	495.6432	24727.95	23851.2
817.1404	497.8015	24655.55	23766.65
817.2845	499.9592	24699.45	23806.55
817.4286	502.1163	24615.25	23723.55
817.5727	504.2728	24413.35	23528.95
817.7168	506.4287	24122.25	23245.45
817.861	508.5839	23722.45	22847.9
818.0051	510.7386	23450.85	22570.7
818.1493	512.8927	23284.3	22396.15
818.2935	515.0461	23216.5	22331.45
818.4377	517.199	23186.9	22296.7
818.5818	519.3512	23200.65	22310.05
818.726	521.5029	23325.15	22433.85
818.8703	523.6539	23418.15	22525.9
819.0145	525.8043	23457.95	22565.1
819.1587	527.9541	23483	22590.4
819.303	530.1033	23473.5	22580.6
819.4472	532.2519	23503.25	22610.85
819.5915	534.3999	23650.25	22757.8
819.7357	536.5472	23927.45	23036.65
819.88	538.694	24402.3	23513.8
820.0243	540.8401	24985.25	24091.25
820.1686	542.9856	25479.4	24575.05
820.3129	545.1305	25652.35	24743.9
820.4572	547.2748	25572.7	24663.5
820.6016	549.4185	25239.8	24328.35
820.7459	551.5615	24892.2	23983.85
820.8902	553.704	24790.6	23884
821.0346	555.8458	24729.75	23829.3
821.1789	557.987	24776.6	23877.35
821.3233	560.1276	24749.85	23849.1
821.4677	562.2675	24897	23992.5
821.6121	564.4069	24921.15	24018.45
821.7565	566.5456	24932.1	24028.3
821.9009	568.6837	24921.55	24022.1
822.0453	570.8212	24611.1	23713.75
822.1897	572.958	24306.35	23404.95
822.3342	575.0942	23985.55	23088.25
822.4786	577.2299	23797.6	22906.65
822.6231	579.3648	23761.4	22876.75
822.7675	581.4992	23799.85	22925.25
822.912	583.6329	24017.55	23141.25
823.0565	585.766	24218.35	23338.3
823.201	587.8985	24392.15	23503.2
823.3454	590.0304	24419.7	23513.05
823.4899	592.1616	24361.9	23457.35
823.6345	594.2922	24287.7	23381
823.779	596.4222	24103.8	23195.5
823.9235	598.5515	23970.4	23058.65
824.068	600.6802	23810.2	22900.2
824.2126	602.8083	23629.6	22725
824.3571	604.9358	23592.5	22688.1
824.5017	607.0626	23520.85	22609.6
824.6462	609.1888	23549.45	22635.6
824.7908	611.3144	23525.75	22607.7
824.9354	613.4393	23393.6	22480.15
825.08	615.5636	23387.95	22473.7
825.2246	617.6873	23314.4	22398.45
825.3692	619.8103	23219.95	22308.75
825.5138	621.9327	23138.95	22225.7
825.6584	624.0544	23122	22217.25
825.803	626.1756	23142.95	22237.3
825.9477	628.2961	23093.35	22181.55
826.0923	630.4159	23044.6	22131.8
826.237	632.5351	23045.85	22125.55
826.3816	634.6537	22979.25	22063.35
826.5263	636.7716	22996.7	22075.95
826.6709	638.8889	23057.55	22136.15
826.8156	641.0056	23143.55	22219.7
826.9603	643.1216	23137.95	22215.55
827.105	645.237	23131.35	22215.25
827.2497	647.3518	23125.4	22215.05
827.3944	649.4659	23172.2	22264.4
827.5391	651.5793	23160	22253.1
827.6838	653.6922	23181.55	22274.5
827.8285	655.8043	23193.8	22284.3
827.9733	657.9159	23205	22292.15
828.118	660.0268	23122.4	22212.05
828.2627	662.137	23072.85	22159.25
828.4075	664.2466	23111.25	22189.85
828.5522	666.3556	23110.6	22190.9
828.697	668.4639	23078.85	22162.4
828.8418	670.5716	23176.45	22266.8
828.9865	672.6786	23232.55	22316
829.1313	674.785	23276.55	22354.45
829.2761	676.8907	23327.4	22407.45
829.4209	678.9958	23437.55	22524.9
829.5657	681.1002	23431.25	22513.65
829.7105	683.204	23432.95	22507.15
829.8553	685.3072	23402.85	22477.25
830.0001	687.4097	23346.4	22425.55
830.1449	689.5115	23324.3	22402.3
830.2898	691.6127	23290.55	22371.25
830.4346	693.7132	23243.8	22324.95
830.5794	695.8131	23294.25	22359.75
830.7243	697.9123	23290.95	22365.3
830.8691	700.0109	23252.6	22326.4
831.014	702.1089	23243.1	22317.55
831.1588	704.2061	23252.7	22332.25
831.3037	706.3028	23326.25	22399.65
831.4486	708.3987	23405.55	22479.6
831.5935	710.4941	23486.3	22558.9
831.7383	712.5887	23672	22746.8
831.8832	714.6827	23940.5	23016.85
832.0281	716.7761	24281.7	23359.3
832.173	718.8688	24682.2	23755.85
832.3179	720.9608	24856.7	23927.1
832.4628	723.0522	24983.3	24049.5
832.6077	725.1429	24810.4	23884.15
832.7527	727.233	24550.05	23626
832.8976	729.3224	24389.15	23463.85
833.0425	731.4112	24113.7	23189.7
833.1874	733.4993	23896.25	22971.4
833.3324	735.5867	23751.45	22827.25
833.4773	737.6735	23684.75	22757.7
833.6222	739.7596	23618.3	22686.4
833.7672	741.845	23574.85	22648.9
833.9122	743.9298	23552.85	22625.4
834.0571	746.014	23540.5	22611.45
834.2021	748.0974	23585.2	22652.85
834.347	750.1802	23600.35	22667
834.492	752.2624	23586.75	22655.2
834.637	754.3439	23628.25	22690.15
834.782	756.4247	23693.3	22748.25
834.9269	758.5048	23811.25	22875.9
835.0719	760.5843	24047.2	23112.8
835.2169	762.6631	24352.3	23417.15
835.3619	764.7413	24801.35	23865.55
835.5069	766.8188	25441.4	24508.9
835.6519	768.8956	25880.85	24947.8
835.7969	770.9718	26182.25	25247.3
835.9419	773.0473	26002.85	25067.45
836.0869	775.1221	25709.3	24776.5
836.232	777.1962	25382.95	24451.4
836.377	779.2697	25177.5	24245.6
836.522	781.3426	25257.4	24307.2
836.667	783.4147	25459.85	24526.4
836.8121	785.4862	25756.75	24822.8
836.9571	787.557	25814.6	24877.3
837.1021	789.6271	25485.75	24549.7
837.2472	791.6966	24956.8	24021.1
837.3922	793.7654	24441.7	23504.85
837.5373	795.8335	24134.4	23201.45
837.6823	797.901	23964.65	23029.1
837.8274	799.9678	23916.15	22979.35
837.9724	802.0339	23886.2	22946.9
838.1175	804.0993	23970.05	23023.25
838.2626	806.1641	23969.65	23030.6
838.4076	808.2282	23895.55	22958.9
838.5527	810.2916	23785.2	22847.9
838.6978	812.3544	23785.9	22849.4
838.8428	814.4164	23689	22753.4
838.9879	816.4778	23750.3	22810.3
839.133	818.5385	23733.35	22793.95
839.2781	820.5986	23782.2	22840.85
839.4232	822.658	23960.3	23018.9
839.5682	824.7166	24053.95	23115.2
839.7133	826.7747	24314.35	23376.4
839.8584	828.832	24583.8	23643.8
840.0035	830.8886	24689.85	23748.45
840.1486	832.9446	24847.7	23906
840.2937	834.9999	24871.75	23933.3
840.4388	837.0545	24895.4	23951.2
840.5839	839.1085	24886.05	23945.1
840.729	841.1618	24838.75	23892.2
840.8741	843.2143	24769.4	23830.5
841.0192	845.2662	24691.25	23750.2
841.1643	847.3175	24639.1	23700.15
841.3095	849.368	24545.75	23603.25
841.4546	851.4179	24447.35	23506.05
841.5997	853.467	24300.05	23358.95
841.7448	855.5155	24238.7	23296.65
841.8899	857.5633	24143.2	23200.45
842.0351	859.6105	24050.2	23108.15
842.1802	861.6569	23954.1	23009.95
842.3253	863.7027	23969.9	23028.3
842.4704	865.7478	23986.45	23041
842.6156	867.7922	24028.2	23086.1
842.7607	869.8359	24014.4	23066.15
842.9058	871.8789	24179.05	23234.45
843.0509	873.9212	24356.45	23380.65
843.1961	875.9629	24471.2	23528.3
843.3412	878.0039	24699.85	23752.15
843.4863	880.0441	24840.3	23898.8
843.6315	882.0837	24847.85	23905.75
843.7766	884.1226	24779.95	23840.9
843.9218	886.1609	24693.85	23746.85
844.0669	888.1984	24615.7	23672.75
844.212	890.2352	24687.2	23743.7
844.3572	892.2714	24651.4	23703.8
844.5023	894.3069	24648.25	23702.95
844.6475	896.3416	24562	23617.5
844.7926	898.3757	24534.45	23587.45
844.9377	900.4091	24525.35	23576.65
845.0829	902.4418	24586.3	23636.1
845.228	904.4739	24586.55	23638.9
845.3732	906.5052	24613.75	23667
845.5183	908.5358	24559.05	23611.8
845.6635	910.5658	24398.1	23445.85
845.8086	912.595	24171.4	23222.75
845.9538	914.6236	24047.55	23101.25
846.0989	916.6515	24054.85	23105.65
846.2441	918.6786	24018.8	23073.1
846.3892	920.7051	24100.8	23152.9
846.5344	922.7309	24273.6	23328.1
846.6795	924.756	24289.05	23344.85
846.8246	926.7804	24423.8	23474.75
846.9698	928.8041	24316.1	23371.65
847.1149	930.8272	24418.35	23469.5
847.2601	932.8495	24307.8	23356.95
847.4052	934.8711	24259	23308.75
847.5504	936.892	24075.05	23127.25
847.6955	938.9123	23955.5	23009.05
847.8407	940.9318	23869.35	22923.15
847.9858	942.9506	23751.9	22802
848.131	944.9688	23683.9	22738.7
848.2761	946.9862	23623.85	22677.65
848.4213	949.003	23498.05	22545.95
848.5664	951.019	23490	22541.45
848.7115	953.0344	23516.75	22568.95
848.8567	955.0491	23559.8	22612
849.0018	957.063	23674.3	22727.4
849.147	959.0763	23798.5	22848.85
849.2921	961.0888	23818.75	22872.25
849.4373	963.1007	23972.9	23029.95
849.5824	965.1119	23992.9	23054.45
849.7275	967.1223	24016.3	23085.9
849.8727	969.1321	24043.45	23108.65
850.0178	971.1412	24088.55	23151.05
850.1629	973.1495	24094.25	23151.75
850.3081	975.1572	24200	23204
850.4532	977.1641	24213.1	23264.75
850.5983	979.1704	24169.45	23220.25
850.7435	981.1759	24161.5	23210.3
850.8886	983.1808	24224.85	23274.3
851.0337	985.1849	24294.2	23337.6
851.1788	987.1884	24425.7	23476.5
851.324	989.1911	24614.35	23667.2
851.4691	991.1932	24756.15	23811.15
851.6142	993.1945	24809.75	23862.95
851.7593	995.1951	24684.05	23738.05
851.9045	997.1951	24661.25	23708.8
852.0496	999.1943	24622	23676
852.1947	1001.1928	24563.9	23616.55
852.3398	1003.1906	24524.4	23578.35
852.4849	1005.1877	24593.05	23646.65
852.63	1007.1841	24541.4	23596.15
852.7751	1009.1798	24465.85	23520.35
852.9202	1011.1748	24274.4	23325.25
853.0653	1013.1691	24060.25	23114.95
853.2104	1015.1627	23829.2	22883.35
853.3555	1017.1556	23583.25	22642.55
853.5006	1019.1477	23495.6	22554.5
853.6457	1021.1392	23374.75	22437.95
853.7908	1023.1299	23338.65	22402.35
853.9359	1025.12	23330.2	22401.2
854.081	1027.1093	23406.55	22485.25
854.2261	1029.0979	23491.2	22572.9
854.3712	1031.0859	23540.9	22621.05
854.5163	1033.0731	23570.2	22638.9
854.6613	1035.0596	23457.6	22523.65
854.8064	1037.0454	23307	22364.9
854.9515	1039.0304	23200.45	22254.65
855.0965	1041.0148	23027.75	22084.2
855.2416	1042.9985	22916.45	21970.05
855.3867	1044.9814	22931.3	21991.25
855.5317	1046.9636	22805.4	21858.5
855.6768	1048.9452	22809.2	21866.7
855.8219	1050.926	22883.5	21939.45
855.9669	1052.9061	22795.65	21855
856.112	1054.8855	22818.25	21872.9
856.257	1056.8642	22879.7	21933.9
856.4021	1058.8421	22952.85	22001.2
856.5471	1060.8194	22965.4	22020.2
856.6921	1062.7959	22976.3	22033.55
856.8372	1064.7717	23046.6	22101.7
856.9822	1066.7469	23040.5	22096
857.1272	1068.7213	23024.55	22075.65
857.2723	1070.695	23051.45	22105.55
857.4173	1072.6679	22927.5	21977.25
857.5623	1074.6402	22935.45	21990.9
857.7073	1076.6117	22932.6	21979.15
857.8523	1078.5826	22929.6	21982.3
857.9973	1080.5527	22930.9	21981.1
858.1423	1082.5221	22997.2	22053.55
858.2873	1084.4908	23189.5	22245.6
858.4323	1086.4587	23309.6	22365.05
858.5773	1088.426	23429.3	22483.7
858.7223	1090.3925	23414	22464.1
858.8673	1092.3584	23396.55	22449.15
859.0123	1094.3235	23229.9	22288.25
859.1573	1096.2879	23167.85	22221.95
859.3022	1098.2515	23183.75	22237.4
859.4472	1100.2145	23283.4	22341.85
859.5922	1102.1767	23333.7	22386.2
859.7371	1104.1382	23469.95	22527.95
859.8821	1106.099	23678.85	22732.6
860.027	1108.0591	23860.05	22915.95
860.172	1110.0185	24034.8	23089.25
860.3169	1111.9771	24077.4	23131.95
860.4619	1113.9351	23820.65	22878.65
860.6068	1115.8923	23540.05	22598.7
860.7517	1117.8488	23284.5	22337.75
860.8967	1119.8045	22953.05	22011.65
861.0416	1121.7596	22856.7	21910.2
861.1865	1123.7139	22756	21815.6
861.3314	1125.6675	22746.65	21806.6
861.4763	1127.6204	22829.1	21886.55
861.6212	1129.5726	22782.2	21836.05
861.7661	1131.524	22806.05	21862.45
861.911	1133.4748	22805.75	21864
862.0559	1135.4248	22711.2	21768
862.2008	1137.3741	22697.95	21757.4
862.3457	1139.3226	22654.25	21710.75
862.4905	1141.2705	22682.5	21739.9
862.6354	1143.2176	22548.75	21599.2
862.7803	1145.164	22548.1	21603.7
862.9251	1147.1097	22554.45	21610.7
863.07	1149.0546	22550.35	21604.25
863.2148	1150.9989	22467.9	21525.25
863.3597	1152.9424	22322.05	21378.45
863.5045	1154.8852	22163.15	21217.1
863.6493	1156.8272	22045.9	21101.7
863.7942	1158.7686	22025.05	21076
863.939	1160.7092	21982.65	21034.8
864.0838	1162.6491	21963.85	21020.1
864.2286	1164.5883	22031.65	21092.75
864.3734	1166.5267	22075.3	21130.8
864.5182	1168.4644	22260.85	21319.8
864.663	1170.4014	22453.15	21508.5
864.8078	1172.3377	22711.35	21771.75
864.9526	1174.2732	22931.8	21991.3
865.0974	1176.2081	23213.55	22270.35
865.2421	1178.1421	23462.2	22516.75
865.3869	1180.0755	23674.25	22730.75
865.5317	1182.0082	23789.45	22847.95
865.6764	1183.9401	23775.2	22836.65
865.8212	1185.8713	23600.4	22662.6
865.9659	1187.8017	23380.3	22451.1
866.1106	1189.7315	23131.6	22212.15
866.2554	1191.6605	22776	21854.95
866.4001	1193.5888	22546.05	21616.8
866.5448	1195.5163	22441.8	21507.65
866.6895	1197.4432	22326.15	21387.55
866.8342	1199.3693	22303.45	21367.25
866.9789	1201.2947	22257.1	21312.7
867.1236	1203.2193	22191.4	21253.15
867.2683	1205.1432	22205.4	21266.5
867.413	1207.0664	22199.1	21258.5
867.5576	1208.9889	22236	21293.2
867.7023	1210.9106	22258.45	21319.8
867.847	1212.8316	22213.25	21277.3
867.9916	1214.7519	22305.8	21356.05
868.1363	1216.6715	22277.4	21341.65
868.2809	1218.5903	22305.2	21366.1
868.4255	1220.5084	22268.35	21328.45
868.5701	1222.4257	22266.95	21328.35
868.7148	1224.3424	22205.65	21269.45
868.8594	1226.2583	22249.5	21309.8
869.004	1228.1735	22318.5	21380.15
869.1486	1230.0879	22363.3	21425
869.2932	1232.0016	22466.3	21527.95
869.4377	1233.9146	22502.75	21563.65
869.5823	1235.8269	22389.35	21448.65
869.7269	1237.7384	22307.4	21367.1
869.8715	1239.6492	22127.35	21191.4
870.016	1241.5592	21967.3	21025.15
870.1606	1243.4686	21912	20974.6
870.3051	1245.3772	21870.45	20928.85
870.4496	1247.285	21848.5	20911.65
870.5941	1249.1922	21777.55	20838.45
870.7387	1251.0986	21829.75	20894
870.8832	1253.0042	21786.15	20851.8
871.0277	1254.9092	21796.9	20859.9
871.1722	1256.8134	21909.95	20975.75
871.3167	1258.7169	22049	21108.45
871.4611	1260.6196	22146.35	21210.45
871.6056	1262.5216	22354.5	21415.25
871.7501	1264.4229	22535.75	21600.75
871.8945	1266.3234	22727.65	21793.4
872.039	1268.2232	22761.4	21820.75
872.1834	1270.1223	22719.55	21782.5
872.3278	1272.0207	22728.05	21790.65
872.4723	1273.9183	22669.35	21723
872.6167	1275.8151	22589.75	21656.5
872.7611	1277.7113	22516.55	21579.95
872.9055	1279.6067	22346.85	21410.65
873.0499	1281.5014	22289.4	21349.6
873.1943	1283.3953	22227.95	21292.85
873.3386	1285.2885	22270.35	21334.35
873.483	1287.181	22329.2	21393.2
873.6274	1289.0727	22466.05	21534.4
873.7717	1290.9637	22539.65	21606.1
873.9161	1292.854	22682.2	21743.9
874.0604	1294.7435	22754.75	21819.25
874.2047	1296.6323	22906.85	21969.35
874.349	1298.5204	23128.45	22187.8
874.4933	1300.4077	23324.9	22386.2
874.6376	1302.2943	23392.1	22456.5
874.7819	1304.1802	23431.75	22496.35
874.9262	1306.0653	23256.95	22322.35
875.0705	1307.9497	23036	22101.3
875.2147	1309.8333	22944.1	22011.9
875.359	1311.7162	22783.75	21849.85
875.5032	1313.5984	22785.1	21843.95
875.6475	1315.4798	22786.55	21839.05
875.7917	1317.3605	22843.25	21889.85
875.9359	1319.2405	22899.95	21962.95
876.0801	1321.1197	22813.7	21875.15
876.2243	1322.9982	22657.3	21718.5
876.3685	1324.876	22622.6	21687.95
876.5127	1326.753	22447.05	21510.95
876.6569	1328.6293	22437.65	21497.7
876.801	1330.5048	22446.75	21506.35
876.9452	1332.3796	22320.45	21384
877.0893	1334.2537	22326	21368.3
877.2335	1336.127	22260.4	21321.8
877.3776	1337.9996	22187.35	21251.65
877.5217	1339.8714	22188.9	21253.8
877.6658	1341.7426	22157.75	21177.75
877.8099	1343.6129	22108.05	21174.55
877.954	1345.4826	22037.15	21100.5
878.0981	1347.3515	22034.05	21093.3
878.2422	1349.2196	21949.15	21012.1
878.3862	1351.087	21967.15	21029.6
878.5303	1352.9537	21981.3	21043.7
878.6743	1354.8197	22109.9	21170.15
878.8184	1356.6849	22265.95	21327.15
878.9624	1358.5493	22315.7	21379.4
879.1064	1360.4131	22373.35	21436.7
879.2504	1362.276	22311.2	21378.5
879.3944	1364.1383	22151.35	21212.4
879.5384	1365.9998	21946	21004.5
879.6823	1367.8606	21591.3	20654
879.8263	1369.7206	21302.2	20366
879.9702	1371.5799	21027.2	20088.4
880.1142	1373.4384	20828.6	19892.85
880.2581	1375.2962	20688.5	19752.45
880.402	1377.1533	20365.7	19433.85
880.5459	1379.0096	20000.2	19068.15
880.6898	1380.8652	19739.65	18811.05
880.8337	1382.7201	19483.05	18550.1
880.9776	1384.5742	19188.65	18254.75
881.1215	1386.4275	19012.35	18076.1
881.2653	1388.2802	18842.95	17906.85
881.4092	1390.132	18703.35	17770.15
881.553	1391.9832	18644.15	17706.25
881.6968	1393.8336	18501.9	17564.1
881.8406	1395.6832	18467.75	17529.7
881.9844	1397.5322	18377.1	17442.1
882.1282	1399.3803	18370.55	17433.35
882.272	1401.2278	18258.1	17324.35
882.4158	1403.0745	18233.9	17299.1
882.5595	1404.9204	18166.55	17232.4
882.7033	1406.7656	18185.1	17250.55
882.847	1408.6101	18179.35	17245.45
882.9908	1410.4538	18150.8	17218.1
883.1345	1412.2968	18153.7	17219.7
883.2782	1414.139	18116.85	17186
883.4219	1415.9805	18258.1	17324.75
883.5656	1417.8213	18317.05	17376.3
883.7092	1419.6613	18378.95	17447.1
883.8529	1421.5006	18513.5	17580.45
883.9965	1423.3391	18742.7	17810.65
884.1402	1425.1769	19031.85	18096.85
884.2838	1427.0139	19502.4	18569
884.4274	1428.8502	20022	19087.8
884.571	1430.6858	20568.6	19634.85
884.7146	1432.5206	20930.25	19996.85
884.8582	1434.3547	21156.75	20222.75
885.0018	1436.188	21148.05	20215.85
885.1453	1438.0206	21095.3	20164
885.2889	1439.8524	20900.6	19969
885.4324	1441.6835	20808.25	19875.2
885.5759	1443.5139	20706.55	19770.75
885.7194	1445.3435	20578.1	19645.25
885.8629	1447.1724	20520.95	19587.8
886.0064	1449.0005	20448.05	19519.65
886.1499	1450.8279	20361	19429.8
886.2933	1452.6545	20309.2	19378.5
886.4368	1454.4804	20288.7	19358.65
886.5802	1456.3056	20291.8	19355.05
886.7237	1458.13	20191.65	19261.8
886.8671	1459.9536	19991.25	19061.35
887.0105	1461.7766	19634.3	18702.35
887.1539	1463.5987	19205.45	18272.1
887.2972	1465.4202	18812	17884.05
887.4406	1467.2409	18409.35	17479.85
887.584	1469.0608	18189.7	17261.15
887.7273	1470.88	17889	16958.45
887.8706	1472.6984	17638.25	16708.95
888.0139	1474.5161	17411.2	16477.15
888.1572	1476.3331	17265.9	16338.25
888.3005	1478.1493	17115.35	16181.9
888.4438	1479.9648	17025.85	16096.8
888.5871	1481.7795	16914.4	15983.1
888.7303	1483.5935	16827.35	15897.65
888.8736	1485.4067	16731.8	15800.5
889.0168	1487.2192	16681.2	15750.1
889.16	1489.031	16646.9	15713.6
889.3032	1490.842	16562.95	15636.1
889.4464	1492.6522	16521.95	15589.2
889.5896	1494.4618	16477.75	15544.6
889.7327	1496.2705	16423.45	15492.65
889.8759	1498.0785	16369.85	15444.55
890.019	1499.8858	16321.8	15390.55
890.1622	1501.6924	16273.65	15344.45
890.3053	1503.4981	16248.95	15318.75
890.4484	1505.3032	16228.2	15299.05
890.5914	1507.1075	16136	15206.65
890.7345	1508.911	16102.6	15174.5
890.8776	1510.7138	16055	15125.6
891.0206	1512.5159	15952.9	15022.75
891.1637	1514.3172	15901.8	14974
891.3067	1516.1178	15835.5	14906.9
891.4497	1517.9176	15770	14838.9
891.5927	1519.7166	15715.95	14789.45
891.7357	1521.515	15687.85	14754.35
891.8786	1523.3126	15632.8	14703
892.0216	1525.1094	15605.6	14675.2
892.1645	1526.9055	15524.1	14596.7
892.3074	1528.7008	15470.5	14541.45
892.4503	1530.4954	15383.1	14456
892.5932	1532.2893	15359.55	14437.3
892.7361	1534.0824	15306.6	14379.45
892.879	1535.8747	15309.75	14386.2
893.0218	1537.6663	15246.15	14326.3
893.1647	1539.4572	15210	14288.25
893.3075	1541.2473	15185	14263.6
893.4503	1543.0367	15161.8	14240.2
893.5931	1544.8253	15117.35	14187.85
893.7359	1546.6132	15101.9	14175
893.8787	1548.4003	15075.85	14142.35
894.0214	1550.1867	15078.2	14147.6
894.1642	1551.9723	15107.7	14182.25
894.3069	1553.7572	15150.45	14228.5
894.4496	1555.5414	15137.35	14215.4
894.5923	1557.3247	15173	14253.3
894.735	1559.1074	15192	14275.65
894.8777	1560.8893	15244.8	14326.55
895.0204	1562.6705	15299.25	14383.25
895.163	1564.4509	15365.65	14452.35
895.3056	1566.2305	15357.1	14444.3
895.4482	1568.0094	15471.35	14558.95
895.5908	1569.7876	15461.6	14547.5
895.7334	1571.565	15480	14565.5
895.876	1573.3417	15482.85	14566.25
896.0186	1575.1176	15471.6	14555.35
896.1611	1576.8928	15388.45	14478.35
896.3036	1578.6672	15252.25	14345.6
896.4461	1580.4409	15208.2	14303.35
896.5886	1582.2138	15064.5	14153.65
896.7311	1583.986	14938.1	14024.1
896.8736	1585.7575	14856.6	13941.45
897.0161	1587.5282	14761.15	13851.5
897.1585	1589.2981	14745.25	13838.8
897.3009	1591.0673	14675	13770.2
897.4433	1592.8358	14689	13779.35
897.5857	1594.6035	14713	13799.05
897.7281	1596.3704	14686.25	13773.55
897.8705	1598.1366	14664.65	13753.05
898.0128	1599.9021	14712.7	13805.3
898.1551	1601.6668	14738.85	13830.45
898.2975	1603.4308	14798.5	13882.7
898.4398	1605.194	14892.35	13978.4
898.5821	1606.9564	14984.15	14080.75
898.7243	1608.7182	15097.05	14196.65
898.8666	1610.4791	15226.3	14328.45
899.0088	1612.2394	15374.7	14478.4
899.1511	1613.9988	15529.35	14628.4
899.2933	1615.7576	15784.85	14879.65
899.4355	1617.5156	15987.4	15072.6
899.5776	1619.2728	16162	15249.45
899.7198	1621.0293	16235.2	15326.9
899.862	1622.785	16209.35	15300.65
900.0041	1624.54	16068.7	15162.75
900.1462	1626.2942	15915.35	15012.1
900.2883	1628.0477	15606.1	14699.95
900.4304	1629.8005	15356.3	14447.3
900.5725	1631.5525	15140.5	14237.15
900.7145	1633.3037	14939.85	14034.45
900.8566	1635.0542	14763.75	13861.6
900.9986	1636.804	14674.5	13771.9
901.1406	1638.553	14677.1	13703.85
901.2826	1640.3013	14542.5	13637.05
901.4245	1642.0488	14487.2	13584.1
901.5665	1643.7955	14500.35	13601.35
901.7085	1645.5416	14522.6	13620.4
901.8504	1647.2868	14603.7	13700.8
901.9923	1649.0313	14695.35	13792.2
902.1342	1650.7751	14809.4	13902.25
902.2761	1652.5181	14946.35	14044.45
902.4179	1654.2604	15115.4	14214.1
902.5598	1656.0019	15373.45	14470.1
902.7016	1657.7427	15656.1	14755.5
902.8434	1659.4828	15942.7	15039.3
902.9852	1661.222	16105	15200.55
903.127	1662.9606	16064.25	15161.85
903.2687	1664.6984	15873.3	14964.65
903.4105	1666.4354	15462.35	14551.8
903.5522	1668.1717	14930.5	14024.55
903.6939	1669.9072	14386.75	13479.05
903.8356	1671.642	13941	13033.65
903.9773	1673.3761	13611.65	12705.25
904.119	1675.1094	13303.3	12402.65
904.2606	1676.8419	13058.7	12155.4
904.4022	1678.5737	12853.4	11948.1
904.5439	1680.3048	12707.3	11803.8
904.6855	1682.0351	12568.3	11662.1
904.827	1683.7646	12422.45	11511.85
904.9686	1685.4934	12374.85	11471.8
905.1101	1687.2215	12263.6	11358.75
905.2517	1688.9488	12188.15	11286.6
905.3932	1690.6754	12114.1	11211.9
905.5347	1692.4012	12063.9	11159.35
905.6761	1694.1263	12007.35	11104.25
905.8176	1695.8506	11947.55	11044.15
905.9591	1697.5742	11883.75	10985.1
906.1005	1699.297	11812.65	10915.8
906.2419	1701.0191	11764.45	10868.95
906.3833	1702.7404	11728.6	10831.35
906.5246	1704.461	11655.35	10751.55
906.666	1706.1808	11600.65	10700.3
906.8073	1707.8999	11563.8	10663.9
906.9487	1709.6182	11507.6	10612.6
907.09	1711.3358	11449.95	10555.05
907.2313	1713.0527	11444.75	10550.9
907.3725	1714.7688	11401.55	10499.15
907.5138	1716.4841	11326.3	10427.4
907.655	1718.1987	11304.25	10400.5
907.7962	1719.9126	11250.55	10355.95
907.9374	1721.6257	11185.45	10290.55
908.0786	1723.338	11183.6	10289.95
908.2198	1725.0496	11121.95	10226.2
908.3609	1726.7605	11104.4	10202.45
908.502	1728.4706	11068.65	10172.3
908.6431	1730.18	11001.2	10106.8
908.7842	1731.8886	10972.7	10078.95
908.9253	1733.5964	10967.1	10051.2
909.0664	1735.3036	10930.3	10032.95
909.2074	1737.0099	10885.75	9989.2
909.3484	1738.7156	10863.3	9968.9
909.4894	1740.4204	10802.3	9901.85
909.6304	1742.1246	10793.9	9897.6
909.7714	1743.8279	10747.55	9853.4
909.9123	1745.5306	10712.9	9819.45
910.0532	1747.2325	10648.3	9753.35
910.1941	1748.9336	10627.85	9731.35
910.335	1750.634	10587.15	9688.8
910.4759	1752.3336	10565.6	9670.7
910.6168	1754.0325	10551.6	9661.2
910.7576	1755.7307	10521.05	9628.95
910.8984	1757.4281	10504.1	9608.4
911.0392	1759.1247	10487.75	9580.75
911.18	1760.8206	10458.25	9553.5
911.3208	1762.5158	10473.35	9570.75
911.4615	1764.2102	10390.85	9493.8
911.6022	1765.9039	10338	9443.55
911.7429	1767.5968	10329.55	9438.35
911.8836	1769.289	10320.1	9430.05
912.0243	1770.9804	10286.5	9393.85
912.1649	1772.6711	10269.9	9372.2
912.3056	1774.361	10234.75	9337.65
912.4462	1776.0502	10224.8	9327.35
912.5868	1777.7386	10211.8	9312.8
912.7274	1779.4263	10161.05	9265.4
912.8679	1781.1132	10158.6	9265.4
913.0084	1782.7994	10106.45	9216.3
913.149	1784.4849	10087.4	9196.3
913.2895	1786.1696	10061.4	9162.35
913.4299	1787.8535	10035.6	9146.25
913.5704	1789.5367	9997.65	9108.5
913.7108	1791.2192	9980.7	9089.6
913.8513	1792.9009	9948.95	9028.85
913.9917	1794.5818	9938.25	9040.55
914.132	1796.2621	9924.3	9031.4
914.2724	1797.9415	9877.75	8984.4
914.4128	1799.6202	9870.7	8978.9
914.5531	1801.2982	9828.1	8932.2
914.6934	1802.9755	9804.1	8907.15
914.8337	1804.6519	9791.5	8896
914.9739	1806.3277	9729.35	8836.5
915.1142	1808.0027	9718.35	8829.85
915.2544	1809.6769	9699.9	8810.6
915.3946	1811.3504	9659.25	8768.75
915.5348	1813.0231	9655.1	8763.4
915.675	1814.6951	9634.4	8744.95
915.8151	1816.3664	9636.15	8741.2
915.9553	1818.0369	9632.7	8737.25
916.0954	1819.7067	9573.45	8680.8
916.2355	1821.3757	9534.8	8638
916.3755	1823.044	9529.95	8635.35
916.5156	1824.7115	9512.15	8617.5
916.6556	1826.3783	9467.65	8575.7
916.7956	1828.0443	9436.8	8544.4
916.9356	1829.7096	9422.85	8528.55
917.0756	1831.3741	9410.65	8515.55
917.2155	1833.0379	9387.95	8495.5
917.3555	1834.701	9344.3	8454.3
917.4954	1836.3633	9321.65	8431.55
917.6353	1838.0248	9312.15	8421.4
917.7751	1839.6856	9285.5	8395.45
917.915	1841.3457	9286.05	8393.35
918.0548	1843.005	9239.15	8346.7
918.1946	1844.6636	9256.85	8364.8
918.3344	1846.3214	9205.4	8311.4
918.4742	1847.9785	9210.3	8316.7
918.6139	1849.6349	9165.5	8269.1
918.7537	1851.2904	9165	8261.45
918.8934	1852.9453	9134.1	8238.6
919.0331	1854.5994	9126.7	8230.25
919.1727	1856.2528	9120.4	8221.5
919.3124	1857.9054	9089.05	8194.25
919.452	1859.5572	9079.5	8190.25
919.5916	1861.2083	9068.2	8173.05
919.7312	1862.8587	9069.2	8176.8
919.8708	1864.5084	9017.5	8122.9
920.0103	1866.1572	8985.6	8090.05
920.1498	1867.8054	8945.2	8047.95
920.2893	1869.4528	8955.1	8059
920.4288	1871.0994	8924.9	8027.6
920.5683	1872.7453	8882.2	7987.7
920.7077	1874.3905	8884.1	7972.9
920.8471	1876.0349	8850.15	7955.15
920.9865	1877.6786	8846.95	7954.4
921.1259	1879.3215	8834.9	7941.65
921.2653	1880.9637	8795	7901.85
921.4046	1882.6051	8776.45	7884.3
921.5439	1884.2458	8749.15	7854.65
921.6832	1885.8858	8705.6	7813.5
921.8225	1887.525	8722.9	7826.55
921.9617	1889.1634	8683.5	7788.55
922.101	1890.8011	8641.1	7746.8
922.2402	1892.4381	8624.5	7731.3
922.3794	1894.0743	8638.2	7746.55
922.5185	1895.7098	8598.4	7704.45
922.6577	1897.3446	8586.15	7696.25
922.7968	1898.9786	8564.5	7668.75
922.9359	1900.6118	8559	7666.85
923.075	1902.2443	8493.4	7601.7
923.214	1903.8761	8493.8	7602.2
923.3531	1905.5071	8444.35	7551.7
923.4921	1907.1374	8445.6	7554.1
923.6311	1908.7669	8391.35	7499.65
923.77	1910.3957	8391.1	7500.25
923.909	1912.0237	8323.25	7431.15
924.0479	1913.651	8329	7436.2
924.1868	1915.2776	8296.8	7407.25
924.3257	1916.9034	8265.65	7375.65
924.4646	1918.5285	8246.65	7358
924.6034	1920.1528	8185.3	7292.8
924.7422	1921.7764	8202.65	7309.5
924.881	1923.3992	8145.55	7250.85
925.0198	1925.0213	8115.65	7224.9
925.1586	1926.6427	8074.65	7186.5
925.2973	1928.2633	8138.65	7155.25
925.436	1929.8832	8068.55	7173.15
925.5747	1931.5023	8027.4	7135.75
925.7134	1933.1207	8003.6	7111.15
925.852	1934.7383	7997.9	7106.95
925.9906	1936.3552	7975.55	7085.35
926.1292	1937.9714	7932.25	7045.1
926.2678	1939.5868	7884.75	6992.2
926.4064	1941.2015	7845.55	6953.3
926.5449	1942.8154	7817.8	6925.2
926.6834	1944.4286	7798.55	6904.3
926.8219	1946.041	7789.2	6874.35
926.9604	1947.6528	7733.95	6837.2
927.0988	1949.2637	7725.55	6834.45
927.2372	1950.8739	7703.5	6813.45
927.3756	1952.4834	7681.05	6789.15
927.514	1954.0921	7668.65	6777.75
927.6523	1955.7001	7632.85	6737.8
927.7907	1957.3074	7600.45	6712.05
927.929	1958.9139	7569	6680.85
928.0673	1960.5197	7563.6	6675.75
928.2055	1962.1247	7511.75	6621.65
928.3438	1963.729	7503.1	6618.05
928.482	1965.3325	7477.8	6583.85
928.6202	1966.9353	7456.35	6569.4
928.7584	1968.5374	7424	6535.25
928.8965	1970.1387	7415.1	6527.4
929.0346	1971.7393	7369.9	6484.85
929.1727	1973.3392	7356.4	6469.1
929.3108	1974.9383	7315.9	6429.4
929.4489	1976.5366	7286.7	6400.25
929.5869	1978.1342	7288.15	6401.65
929.7249	1979.7311	7265.1	6378.5
929.8629	1981.3273	7261.15	6373.7
930.0009	1982.9227	7228.9	6340.4
930.1388	1984.5173	7176.6	6293.15
930.2767	1986.1112	7152.45	6269.5
930.4146	1987.7044	7142.6	6260
930.5525	1989.2968	7127.55	6239
930.6904	1990.8885	7112.05	6223.9
930.8282	1992.4795	7090.05	6205.95
930.966	1994.0697	7052.4	6168.65
931.1038	1995.6592	7044.45	6159.5
931.2415	1997.2479	7033.15	6145.65
931.3793	1998.8359	7025.2	6142.95
931.517	2000.4232	6978.55	6098.75
931.6547	2002.0097	6964.75	6087.7
931.7923	2003.5955	6923.1	6040.75
931.93	2005.1805	6890.9	6007.05
932.0676	2006.7648	6902.25	6019
932.2052	2008.3484	6874.6	5991.1
932.3427	2009.9312	6872.9	5989.05
932.4803	2011.5133	6850.85	5972.25
932.6178	2013.0946	6829.65	5948.85
932.7553	2014.6752	6812.75	5934.2
932.8928	2016.2551	6799.95	5916.65
933.0302	2017.8342	6778.75	5898.15
933.1676	2019.4126	6754.25	5873.55
933.305	2020.9902	6719.4	5838.3
933.4424	2022.5672	6732.4	5850.5
933.5798	2024.1433	6724.25	5840.9
933.7171	2025.7188	6679.75	5802.65
933.8544	2027.2935	6663.55	5781.4
933.9917	2028.8674	6645.3	5766.8
934.129	2030.4406	6604.3	5725.85
934.2662	2032.0131	6602.8	5726.9
934.4034	2033.5849	6594.55	5715.2
934.5406	2035.1559	6569.75	5693.75
934.6778	2036.7261	6553.45	5672.95
934.8149	2038.2957	6545.15	5661.7
934.952	2039.8645	6523.05	5638.2
935.0891	2041.4325	6534.95	5649.4
935.2262	2042.9998	6506.55	5623.45
935.3632	2044.5664	6479.45	5599.1
935.5002	2046.1323	6442.95	5563.65
935.6372	2047.6974	6436.45	5556.25
935.7742	2049.2617	6423.2	5545.4
935.9111	2050.8254	6415.55	5514.5
936.048	2052.3883	6405.55	5523.5
936.1849	2053.9504	6364.1	5482.4
936.3218	2055.5118	6356.95	5473
936.4586	2057.0725	6328.4	5442.8
936.5955	2058.6325	6323.65	5440.75
936.7323	2060.1917	6315.7	5435.2
936.869	2061.7502	6307.5	5426.4
937.0058	2063.3079	6259.2	5381.75
937.1425	2064.8649	6249.45	5367.5
937.2792	2066.4212	6235.6	5354.2
937.4159	2067.9767	6234.5	5354.55
937.5525	2069.5315	6215.3	5335.45
937.6891	2071.0856	6172.9	5291.85
937.8257	2072.6389	6129.1	5248.7
937.9623	2074.1915	6118.9	5240.75
938.0989	2075.7433	6101.65	5219.55
938.2354	2077.2945	6085.3	5205.7
938.3719	2078.8448	6076.65	5192.95
938.5084	2080.3945	6048.8	5165.4
938.6448	2081.9434	6048.95	5165.5
938.7812	2083.4916	6015.9	5131.6
938.9176	2085.039	6007.2	5118.55
939.054	2086.5857	6010.35	5120.2
939.1903	2088.1317	5994.15	5104.3
939.3267	2089.677	5964.85	5075.5
939.463	2091.2215	5959.45	5069.95
939.5992	2092.7652	5927.45	5036.3
939.7355	2094.3083	5928.5	5038.2
939.8717	2095.8506	5909.65	5022.95
940.0079	2097.3921	5901.85	5016.75
940.1441	2098.933	5894.85	5010.1
940.2802	2100.4731	5879.75	4993.6
940.4163	2102.0124	5863.75	4970.25
940.5524	2103.5511	5854.65	4969
940.6885	2105.089	5851.2	4961.5
940.8245	2106.6261	5826.05	4938.8
940.9606	2108.1626	5806.45	4919.8
941.0965	2109.6983	5814.65	4901.15
941.2325	2111.2332	5796.65	4910
941.3684	2112.7675	5760.9	4872.75
941.5044	2114.301	5762.9	4873.7
941.6403	2115.8337	5738.65	4851.75
941.7761	2117.3657	5717.65	4832.4
941.912	2118.897	5712.35	4824.85
942.0478	2120.4276	5711.1	4818.8
942.1835	2121.9575	5685.95	4796.75
942.3193	2123.4866	5679.05	4778.65
942.455	2125.0149	5663.4	4775.15
942.5907	2126.5426	5613.8	4728.6
942.7264	2128.0695	5599.85	4716.3
942.8621	2129.5956	5594.65	4714.8
942.9977	2131.1211	5581.6	4694.8
943.1333	2132.6458	5559.8	4675.7
943.2689	2134.1698	5580.45	4695.25
943.4044	2135.693	5569.75	4678.45
943.54	2137.2155	5561.6	4671.6
943.6755	2138.7373	5540.7	4655.4
943.8109	2140.2584	5517.45	4637.1
943.9464	2141.7787	5495.25	4607.1
944.0818	2143.2983	5461.85	4583.8
944.2172	2144.8171	5431.9	4552.8
944.3526	2146.3353	5443.35	4561.65
944.4879	2147.8527	5423.35	4541.25
944.6232	2149.3693	5411.65	4525.5
944.7585	2150.8853	5404.1	4516.7
944.8938	2152.4005	5383.6	4496.45
945.029	2153.9149	5388.45	4498.45
945.1642	2155.4287	5366.3	4479.1
945.2994	2156.9417	5353.95	4465.55
945.4346	2158.454	5326.55	4440.4
945.5697	2159.9655	5315.85	4434.3
945.7048	2161.4764	5312.3	4429.4
945.8399	2162.9865	5291.25	4406.05
945.9749	2164.4958	5289.6	4407.6
946.1099	2166.0045	5261.7	4373.05
946.2449	2167.5124	5250.4	4366.45
946.3799	2169.0195	5250.3	4363.75
946.5148	2170.526	5248	4362.1
946.6498	2172.0317	5220.15	4333.25
946.7846	2173.5367	5196.25	4308.95
946.9195	2175.0409	5193.9	4310.1
947.0543	2176.5445	5188.85	4302.45
947.1891	2178.0473	5168	4278.3
947.3239	2179.5494	5174.3	4281.5
947.4587	2181.0507	5152.6	4266.15
947.5934	2182.5513	5132.7	4246.15
947.7281	2184.0512	5136.2	4248.55
947.8628	2185.5504	5091.3	4203.2
947.9974	2187.0488	5067.95	4184.15
948.132	2188.5465	5061.3	4178.35
948.2666	2190.0435	5056.2	4171.05
948.4012	2191.5397	5027.3	4140.2
948.5357	2193.0353	5022.55	4135.3
948.6702	2194.5301	4998.6	4107
948.8047	2196.0241	4980	4087.6
948.9392	2197.5175	4975.4	4084.1
949.0736	2199.0101	4973.3	4079.9
949.208	2200.502	4939.95	4056
949.3424	2201.9931	4915.8	4031.2
949.4767	2203.4835	4907.65	4022.85
949.611	2204.9733	4881.1	3991.6
949.7453	2206.4622	4893.65	4011.15
949.8796	2207.9505	4875.3	3992.7
950.0138	2209.438	4840	3960.55
950.148	2210.9248	4833.55	3950.85
950.2822	2212.4109	4841.75	3959.85
950.4164	2213.8962	4822	3932.4
950.5505	2215.3809	4811.55	3920.2
950.6846	2216.8648	4806.85	3915.65
950.8186	2218.3479	4791.75	3893.55
950.9527	2219.8304	4786.05	3888.2
951.0867	2221.3121	4754.7	3860.1
951.2207	2222.7931	4730.95	3841.1
951.3546	2224.2733	4717.1	3828.45
951.4886	2225.7529	4713.7	3826
951.6225	2227.2317	4713	3828.75
951.7563	2228.7098	4677.3	3797.8
951.8902	2230.1872	4655.6	3771.8
952.024	2231.6638	4657.95	3776.15
952.1578	2233.1397	4645.85	3758.05
952.2916	2234.6149	4625.5	3740.75
952.4253	2236.0894	4633.1	3749.1
952.559	2237.5632	4618.3	3725.2
952.6927	2239.0362	4606.1	3720.4
952.8263	2240.5085	4571	3687.45
952.9599	2241.9801	4549.75	3662.05
953.0935	2243.4509	4556.8	3669.55
953.2271	2244.921	4535.45	3646.15
953.3606	2246.3904	4538.15	3645.35
953.4941	2247.8591	4510.65	3622.6
953.6276	2249.3271	4505.5	3617.95
953.7611	2250.7943	4485.65	3597.05
953.8945	2252.2608	4475.2	3585.5
954.0279	2253.7266	4466.7	3579.3
954.1612	2255.1917	4463.7	3577.45
954.2946	2256.656	4439.9	3556.65
954.4279	2258.1197	4424.05	3541.4
954.5612	2259.5826	4413.6	3527.35
954.6944	2261.0447	4420.1	3533.65
954.8276	2262.5062	4405.3	3516.8
954.9608	2263.9669	4396.8	3506.35
955.094	2265.4269	4382.7	3494.7
955.2271	2266.8862	4359.5	3472.75
955.3602	2268.3448	4360.35	3476.3
955.4933	2269.8026	4360.7	3476.65
955.6264	2271.2598	4337.5	3452.7
955.7594	2272.7162	4332.75	3447.3
955.8924	2274.1719	4317.55	3430.6
956.0253	2275.6268	4320.45	3429.4
956.1583	2277.0811	4317.4	3430.3
956.2912	2278.5346	4274.8	3387.8
956.4241	2279.9874	4287.2	3403.1
956.5569	2281.4395	4300.3	3416.4
956.6897	2282.8908	4256.6	3367.4
956.8225	2284.3414	4255.55	3371.3
956.9553	2285.7914	4246.2	3360.65
957.088	2287.2406	4223.5	3334.85
957.2207	2288.689	4232.6	3341.4
957.3534	2290.1368	4187.5	3293.45
957.486	2291.5838	4203.05	3308.55
957.6186	2293.0302	4184.6	3288.8
957.7512	2294.4758	4176.1	3287.1
957.8838	2295.9206	4169.8	3279
958.0163	2297.3648	4148.05	3259.85
958.1488	2298.8082	4156.35	3270
958.2813	2300.251	4142.25	3253.45
958.4137	2301.693	4119.4	3226.2
958.5461	2303.1343	4120.6	3231.7
958.6785	2304.5748	4111.1	3223.7
958.8108	2306.0147	4092.65	3207.5
958.9432	2307.4538	4086.95	3201.8
959.0754	2308.8922	4057.05	3173.6
959.2077	2310.3299	4059.95	3175.1
959.3399	2311.7669	4051.65	3165.85
959.4721	2313.2031	4030.2	3143.8
959.6043	2314.6387	4020.7	3134.1
959.7365	2316.0735	4010.8	3121.4
959.8686	2317.5076	4003.6	3115
960.0006	2318.941	3998.75	3108
960.1327	2320.3737	3996.15	3106.9
960.2647	2321.8056	3993.35	3103.3
960.3967	2323.2369	3945.1	3055.95
960.5287	2324.6674	3962.15	3074.7
960.6606	2326.0972	3951.9	3061.9
960.7925	2327.5263	3937.85	3050.1
960.9244	2328.9547	3939.55	3050.1
961.0562	2330.3823	3926.6	3033.05
961.1881	2331.8092	3924.1	3029.55
961.3198	2333.2355	3910.4	3019.3
961.4516	2334.661	3903.05	3013.75
961.5833	2336.0858	3894.5	3004.75
961.715	2337.5098	3877.35	2987.45
961.8467	2338.9332	3870.5	2980.8
961.9783	2340.3558	3867.85	2978.95
962.1099	2341.7778	3846.35	2960
962.2415	2343.199	3827.9	2939.15
962.373	2344.6195	3834	2947.9
962.5045	2346.0393	3830.15	2945.75
962.636	2347.4583	3829.25	2942.5
962.7675	2348.8767	3815.25	2926.35
962.8989	2350.2943	3810.55	2920.2
963.0303	2351.7113	3809.45	2917.55
963.1617	2353.1275	3799.1	2908.25
963.293	2354.543	3787.1	2888.5
963.4243	2355.9578	3765.3	2876.1
963.5556	2357.3718	3736.1	2848.85
963.6868	2358.7852	3743	2854.05
963.818	2360.1978	3718.5	2832.7
963.9492	2361.6098	3722.8	2838.65
964.0803	2363.021	3704.85	2815.8
964.2114	2364.4315	3705.6	2819.05
964.3425	2365.8413	3702.35	2815.2
964.4736	2367.2504	3673.8	2788.85
964.6046	2368.6587	3645.65	2761.3
964.7356	2370.0664	3665.3	2780.55
964.8666	2371.4733	3651.85	2765.4
964.9975	2372.8795	3634.4	2749.05
965.1284	2374.285	3621.35	2735.3
965.2593	2375.6899	3619.75	2736.7
965.3901	2377.0939	3596.75	2710.8
965.5209	2378.4973	3595.35	2712.85
965.6517	2379.9	3582.95	2700.55
965.7825	2381.3019	3574.05	2690.35
965.9132	2382.7032	3559.1	2679.05
966.0439	2384.1037	3551.4	2670.2
966.1745	2385.5035	3549.85	2670.15
966.3051	2386.9027	3539.9	2658.7
966.4357	2388.3011	3534.1	2648.95
966.5663	2389.6987	3524.4	2641.65
966.6968	2391.0957	3506.2	2622.95
966.8273	2392.492	3493.7	2610.8
966.9578	2393.8876	3471.85	2587.3
967.0882	2395.2824	3474.85	2592.75
967.2186	2396.6765	3460.1	2579.25
967.349	2398.07	3436.7	2552.85
967.4793	2399.4627	3433.8	2553.1
967.6097	2400.8547	3442.4	2558.55
967.7399	2402.246	3433.6	2544.2
967.8702	2403.6366	3405.4	2521.85
968.0004	2405.0265	3392.8	2512.85
968.1306	2406.4156	3384.5	2500.65
968.2607	2407.8041	3393.3	2506.6
968.3909	2409.1918	3379.25	2495.45
968.521	2410.5789	3354.6	2471.4
968.651	2411.9652	3358.2	2470
968.781	2413.3508	3353.5	2469
968.911	2414.7358	3330.7	2445.85
969.041	2416.12	3332.2	2449.3
969.1709	2417.5035	3330.45	2447.2
969.3008	2418.8863	3318.4	2433
969.4307	2420.2684	3314.4	2432.9
969.5606	2421.6497	3297.15	2413.05
969.6904	2423.0304	3268.1	2384.45
969.8201	2424.4104	3267.65	2384.8
969.9499	2425.7896	3274.1	2389.4
970.0796	2427.1682	3263.85	2379.8
970.2093	2428.546	3260	2376.25
970.3389	2429.9232	3254.75	2369.65
970.4685	2431.2996	3232.85	2349.65
970.5981	2432.6753	3237.9	2354.9
970.7277	2434.0503	3221.3	2336.75
970.8572	2435.4246	3215.7	2330.95
970.9867	2436.7982	3205.75	2318.85
971.1161	2438.1711	3196.85	2311.45
971.2456	2439.5433	3195.7	2311.3
971.375	2440.9148	3176.55	2286.75
971.5043	2442.2856	3162.05	2280.4
971.6336	2443.6557	3164.85	2279.75
971.7629	2445.025	3150.15	2266.8
971.8922	2446.3937	3149.35	2264
972.0214	2447.7617	3135.95	2248.95
972.1506	2449.1289	3129.35	2246.4
972.2798	2450.4955	3134	2247.15
972.4089	2451.8613	3110.15	2228.1
972.538	2453.2265	3109.05	2225.4
972.6671	2454.5909	3111.2	2224.25
972.7961	2455.9546	3102.1	2219.65
972.9251	2457.3177	3100.05	2217.6
973.0541	2458.68	3086.55	2202.2
973.1831	2460.0416	3088.85	2203.8
973.312	2461.4025	3079.3	2194.25
973.4408	2462.7627	3083.8	2190.15
973.5697	2464.1222	3065	2182.1
973.6985	2465.4811	3052.75	2169.25
973.8273	2466.8392	3038.65	2154
973.956	2468.1966	3042.4	2155.6
974.0847	2469.5533	3048.8	2162.8
974.2134	2470.9093	3043.65	2160.4
974.3421	2472.2645	3023.95	2137.8
974.4707	2473.6191	3024.4	2142.5
974.5993	2474.973	3028.55	2146.8
974.7278	2476.3262	3011.65	2125.8
974.8563	2477.6787	2993.5	2109.75
974.9848	2479.0305	2993.6	2109.55
975.1132	2480.3816	2975.65	2088.25
975.2417	2481.7319	2979.05	2095.7
975.37	2483.0816	2957.45	2072
975.4984	2484.4306	2945.75	2062.9
975.6267	2485.7789	2956.3	2075.85
975.755	2487.1264	2931.65	2044.4
975.8833	2488.4733	2923.95	2040.75
976.0115	2489.8195	2923.9	2032.4
976.1397	2491.165	2911.55	2024.8
976.2678	2492.5097	2911.3	2026.95
976.3959	2493.8538	2893.55	2008.6
976.524	2495.1972	2895.05	2011.45
976.6521	2496.5398	2875.1	1987.55
976.7801	2497.8818	2884.05	1997.4
976.9081	2499.2231	2886.7	2001.8
977.036	2500.5637	2864.85	1976.65
977.164	2501.9035	2853.2	1966.3
977.2918	2503.2427	2851.1	1962.5
977.4197	2504.5812	2835.4	1950.5
977.5475	2505.919	2828.15	1942.65
977.6753	2507.256	2844.05	1959.95
977.8031	2508.5924	2835.05	1950.5
977.9308	2509.9281	2818.75	1927.55
978.0585	2511.2631	2801.1	1918.15
978.1861	2512.5974	2806.25	1923.2
978.3137	2513.9309	2793.25	1910.3
978.4413	2515.2638	2804.35	1892.85
978.5689	2516.596	2782.95	1897.55
978.6964	2517.9275	2774.35	1888.85
978.8239	2519.2583	2763.7	1879.85
978.9513	2520.5884	2756.4	1869.45
979.0788	2521.9178	2769	1883.05
979.2062	2523.2465	2752.55	1869.2
979.3335	2524.5745	2735.2	1853.05
979.4608	2525.9018	2744.15	1858.5
979.5881	2527.2284	2730.45	1846.65
979.7154	2528.5543	2722.15	1839.3
979.8426	2529.8796	2716.65	1831.35
979.9698	2531.2041	2711.45	1826.55
980.0969	2532.5279	2716.35	1833.7
980.224	2533.851	2723.45	1838.5
980.3511	2535.1735	2707.7	1823.15
980.4781	2536.4952	2685	1800.3
980.6052	2537.8163	2688.2	1801.7
980.7321	2539.1366	2682.9	1799.05
980.8591	2540.4562	2682.2	1797.25
980.986	2541.7752	2674.85	1789.85
981.1129	2543.0935	2677.85	1792.1
981.2397	2544.411	2665.55	1780.15
981.3665	2545.7279	2669.85	1783.7
981.4933	2547.0441	2667	1781.25
981.62	2548.3596	2656.5	1769.45
981.7467	2549.6744	2643.85	1759.2
981.8734	2550.9885	2652.55	1758.3
982.0001	2552.3019	2642.4	1757
982.1267	2553.6146	2640.6	1752.25
982.2532	2554.9266	2618.15	1729.25
982.3798	2556.2379	2613.15	1725.5
982.5063	2557.5485	2615.5	1734.5
982.6327	2558.8585	2619.45	1725.45
982.7592	2560.1677	2614.5	1726.3
982.8856	2561.4762	2608.15	1722.35
983.0119	2562.7841	2598.9	1712
983.1383	2564.0913	2597.25	1711.35
983.2646	2565.3977	2588.95	1705.3
983.3908	2566.7035	2586.55	1701.75
983.517	2568.0086	2580.75	1692.6
983.6432	2569.313	2572.15	1683.85
983.7694	2570.6167	2573.5	1684.35
983.8955	2571.9197	2571.1	1684.25
984.0216	2573.222	2561.75	1672.95
984.1476	2574.5236	2563.1	1678.5
984.2737	2575.8246	2565.05	1675.15
984.3996	2577.1248	2556.9	1669.35
984.5256	2578.4244	2558.45	1675.8
984.6515	2579.7232	2564.7	1678.85
984.7774	2581.0214	2579.1	1662.4
984.9032	2582.3189	2534.6	1649.65
985.029	2583.6157	2539.6	1649.45
985.1548	2584.9118	2535.1	1650.8
985.2806	2586.2072	2534.65	1649.4
985.4063	2587.5019	2523.7	1638.05
985.5319	2588.7959	2525.55	1638.65
985.6576	2590.0893	2531	1643.2
985.7832	2591.3819	2522.35	1638.3
985.9087	2592.6739	2522.65	1640.4
986.0343	2593.9652	2512.4	1624.9
986.1597	2595.2557	2513.55	1628.85
986.2852	2596.5456	2511.5	1622.95
986.4106	2597.8348	2503.95	1619.4
986.536	2599.1234	2493.05	1608.6
986.6614	2600.4112	2505.55	1619.05
986.7867	2601.6983	2486.95	1600.35
986.912	2602.9848	2484.2	1598.35
987.0372	2604.2705	2479.05	1587.15
987.1624	2605.5556	2486.55	1600.6
987.2876	2606.84	2466.1	1581
987.4128	2608.1237	2463.15	1577.05
987.5379	2609.4067	2457.35	1571.85
987.6629	2610.689	2452.7	1556.3
987.788	2611.9707	2455.45	1567.95
987.913	2613.2516	2440.2	1550.75
988.0379	2614.5319	2434.3	1549.7
988.1629	2615.8115	2421.6	1534.8
988.2878	2617.0903	2424.8	1537.25
988.4126	2618.3685	2417	1532.15
988.5375	2619.6461	2407.2	1521.65
988.6622	2620.9229	2405.2	1522.55
988.787	2622.199	2401.8	1516.8
988.9117	2623.4745	2404.2	1518.7
989.0364	2624.7493	2390.3	1506.35
989.161	2626.0234	2392.4	1509.8
989.2857	2627.2968	2390.4	1504.8
989.4102	2628.5695	2372.2	1486.75
989.5348	2629.8415	2375.8	1493.95
989.6593	2631.1128	2362.5	1476.95
989.7837	2632.3835	2361.6	1477.25
989.9082	2633.6535	2350.4	1464.75
990.0326	2634.9228	2360.85	1476.5
990.1569	2636.1914	2350.65	1467.9
990.2812	2637.4593	2350.6	1464.6
990.4055	2638.7265	2343.6	1459.35
990.5298	2639.9931	2333.35	1446.75
990.654	2641.259	2332.95	1445.6
990.7782	2642.5242	2327.3	1442.25
990.9023	2643.7887	2318.55	1433.3
991.0264	2645.0525	2324.1	1439.3
991.1505	2646.3156	2307.65	1422.5
991.2745	2647.5781	2306.6	1422.75
991.3985	2648.8398	2289.15	1405.6
991.5225	2650.1009	2297.3	1405
991.6464	2651.3613	2293.25	1408.15
991.7703	2652.6211	2284.75	1400.05
991.8942	2653.8801	2274.65	1391.75
992.018	2655.1385	2281.25	1393.5
992.1418	2656.3961	2276.55	1392.2
992.2655	2657.6531	2269.05	1384.95
992.3892	2658.9094	2266.65	1380.5
992.5129	2660.1651	2266.95	1383.7
992.6366	2661.42	2274.85	1391.95
992.7602	2662.6743	2275.75	1389.75
992.8837	2663.9279	2264.85	1377.95
993.0073	2665.1808	2254.8	1370.35
993.1307	2666.433	2273.25	1388.3
993.2542	2667.6846	2258.3	1374.9
993.3776	2668.9354	2265.4	1377.15
993.501	2670.1856	2256.85	1370.65
993.6244	2671.4351	2261.9	1379.15
993.7477	2672.6839	2257.45	1371.8
993.8709	2673.9321	2261.5	1375.3
993.9942	2675.1795	2254.7	1371.25
994.1174	2676.4263	2251.65	1369.6
994.2405	2677.6724	2246.65	1362.55
994.3637	2678.9179	2240.7	1357.55
994.4868	2680.1626	2241.4	1359.1
994.6098	2681.4067	2239.7	1355.05
994.7328	2682.6501	2237.6	1351.85
994.8558	2683.8928	2236.25	1352.95
994.9788	2685.1348	2235.05	1350.95
995.1017	2686.3761	2210.5	1326.55
995.2245	2687.6168	2203	1320.45
995.3474	2688.8568	2201.1	1316.8
995.4702	2690.0961	2198.65	1314.2
995.5929	2691.3348	2196.4	1311
995.7156	2692.5727	2180.9	1297.55
995.8383	2693.81	2172.7	1289.15
995.961	2695.0466	2176.05	1293.65
996.0836	2696.2826	2169.1	1281.8
996.2062	2697.5178	2201.05	1295.55
996.3287	2698.7524	2173.7	1287.55
996.4512	2699.9863	2173.6	1284.95
996.5737	2701.2195	2174.95	1290.9
996.6961	2702.452	2171	1287.2
996.8185	2703.6839	2170.25	1286.35
996.9408	2704.9151	2161.8	1278.5
997.0631	2706.1456	2162.5	1276.85
997.1854	2707.3755	2166.45	1282
997.3077	2708.6046	2167.8	1279.3
997.4299	2709.8331	2178.25	1295
997.552	2711.0609	2181	1297.1
997.6742	2712.2881	2184	1300
997.7963	2713.5145	2187.05	1301.2
997.9183	2714.7403	2202.7	1320.6
998.0403	2715.9654	2207.35	1322.85
998.1623	2717.1899	2223.25	1324.45
998.2842	2718.4136	2214.95	1328.8
998.4062	2719.6367	2231.2	1347.2
998.528	2720.8591	2240.45	1350.55
998.6498	2722.0809	2232.7	1347.95
998.7716	2723.3019	2249.8	1363.85
998.8934	2724.5223	2253.1	1368.75
999.0151	2725.7421	2264.4	1380.75
999.1368	2726.9611	2256.8	1370.8
999.2584	2728.1795	2265.2	1377.25
999.38	2729.3972	2237.9	1353.05
999.5016	2730.6142	2231.15	1333.6
999.6231	2731.8306	2212.7	1327.3
999.7446	2733.0462	2200.75	1316.15
999.8661	2734.2612	2174.8	1286
999.9875	2735.4756	2156.05	1271.85
1000.1089	2736.6892	2138.35	1256.8
1000.2302	2737.9022	2111.95	1227.7
1000.3515	2739.1145	2099.55	1216.95
1000.4728	2740.3262	2097.4	1206.15
1000.594	2741.5372	2076.9	1195.35
1000.7152	2742.7475	2056.8	1174.25
1000.8363	2743.9571	2046.15	1162.2
1000.9575	2745.1661	2051.15	1162.75
1001.0785	2746.3744	2027.2	1143.75
1001.1996	2747.582	2016.8	1132.65
1001.3206	2748.7889	1993.95	1109.3
1001.4415	2749.9952	1991.25	1108.35
1001.5625	2751.2008	1994.25	1109.15
1001.6833	2752.4057	1978.95	1093.85
1001.8042	2753.61	1970.85	1087.6
1001.925	2754.8136	1972.25	1087.7
1002.0458	2756.0165	1957.85	1073.9
1002.1665	2757.2188	1963.05	1079.65
1002.2872	2758.4204	1959.15	1076.2
1002.4078	2759.6213	1951.05	1065.7
1002.5285	2760.8215	1960.3	1075.8
1002.649	2762.0211	1948.85	1064.85
1002.7696	2763.22	1950.15	1064.55
1002.8901	2764.4182	1938.65	1055.2
1003.0106	2765.6158	1931.8	1049.15
1003.131	2766.8127	1933.75	1051
1003.2514	2768.009	1925.4	1043.6
1003.3717	2769.2045	1928.45	1043.55
1003.492	2770.3994	1926.9	1043.7
1003.6123	2771.5936	1906.95	1024.1
1003.7325	2772.7872	1909.4	1031.55
1003.8527	2773.9801	1906.65	1022.65
1003.9729	2775.1723	1922.55	1023.65
1004.093	2776.3639	1889.45	1009.25
1004.2131	2777.5548	1897.75	1013.35
1004.3331	2778.745	1891.6	1007.2
1004.4531	2779.9346	1902	1020.85
1004.5731	2781.1235	1898.55	1015.7
1004.693	2782.3117	1902.15	1021.65
1004.8129	2783.4992	1894.6	1013.85
1004.9328	2784.6861	1902.2	1018.85
1005.0526	2785.8723	1905.5	1022.4
1005.1723	2787.0579	1908.3	1026.55
1005.2921	2788.2428	1910.95	1028.8
1005.4118	2789.427	1915	1034.7
1005.5314	2790.6106	1910.3	1027.35
1005.651	2791.7935	1915.55	1032.25
1005.7706	2792.9757	1933.9	1053.55
1005.8902	2794.1573	1938.1	1055
1006.0097	2795.3382	1944.3	1062.45
1006.1291	2796.5184	1964.45	1085.2
1006.2485	2797.698	1970.65	1086.05
1006.3679	2798.8769	1983.6	1100.65
1006.4873	2800.0551	2003.4	1120.45
1006.6066	2801.2327	2008.8	1125
1006.7258	2802.4096	2025.35	1142.15
1006.8451	2803.5859	2045.75	1164.65
1006.9642	2804.7615	2059.35	1178.3
1007.0834	2805.9364	2083.85	1203.65
1007.2025	2807.1106	2094.95	1212.55
1007.3216	2808.2842	2129.05	1246.4
1007.4406	2809.4572	2157.35	1274.65
1007.5596	2810.6294	2194.2	1310.8
1007.6785	2811.801	2235.85	1354.7
1007.7975	2812.972	2272.55	1390.75
1007.9163	2814.1423	2310.2	1428.85
1008.0352	2815.3119	2352.75	1471.35
1008.154	2816.4808	2398.55	1517.3
1008.2727	2817.6491	2445.8	1562.65
1008.3914	2818.8167	2483.15	1602.85
1008.5101	2819.9837	2535.2	1650.3
1008.6288	2821.15	2574.7	1693.95
1008.7474	2822.3157	2620.55	1739.9
1008.8659	2823.4807	2686.5	1805.6
1008.9844	2824.645	2728.1	1846.4
1009.1029	2825.8086	2769.85	1889.7
1009.2214	2826.9716	2822.3	1941.1
1009.3398	2828.134	2848.75	1968.2
1009.4581	2829.2957	2887.55	2006.6
1009.5764	2830.4567	2927.05	2044.75
1009.6947	2831.617	2943.55	2062.15
1009.813	2832.7767	2944.9	2065.3
1009.9312	2833.9358	2952.1	2073.25
1010.0493	2835.0941	2945.1	2064.05
1010.1675	2836.2519	2927.95	2048.85
1010.2855	2837.4089	2907.95	2025.95
1010.4036	2838.5653	2915	2035.55
1010.5216	2839.7211	2905.85	2025.2
1010.6396	2840.8761	2915.75	2034.05
1010.7575	2842.0306	2936.55	2055.05
1010.8754	2843.1843	2970.25	2090.5
1010.9932	2844.3374	3011	2129.15
1011.111	2845.4899	3059.3	2178.6
1011.2288	2846.6417	3131.65	2249.9
1011.3465	2847.7928	3193.55	2314.45
1011.4642	2848.9433	3273.25	2393.05
1011.5818	2850.0931	3344.4	2465.85
1011.6995	2851.2422	3416.6	2533.65
1011.817	2852.3907	3484.75	2601.45
1011.9345	2853.5385	3548	2665.55
1012.052	2854.6857	3621.65	2713.2
1012.1695	2855.8323	3658.1	2779
1012.2869	2856.9781	3704.45	2824.75
1012.4042	2858.1233	3742.95	2860.75
1012.5216	2859.2679	3793.4	2912.3
1012.6389	2860.4118	3833	2952.9
1012.7561	2861.555	3880.65	2995.3
1012.8733	2862.6976	3910.45	3028.45
1012.9905	2863.8395	3924.05	3042.55
1013.1076	2864.9808	3953.7	3072.95
1013.2247	2866.1214	3965.55	3086.05
1013.3417	2867.2614	3968.25	3085.2
1013.4587	2868.4007	3995.75	3114.65
1013.5757	2869.5393	4003.95	3121.9
1013.6926	2870.6773	4030.6	3148
1013.8095	2871.8146	4036.45	3151.25
1013.9263	2872.9513	4046.65	3164.15
1014.0431	2874.0874	4033.65	3152.2
1014.1599	2875.2227	4036.7	3154.7
1014.2766	2876.3574	4003.35	3121.3
1014.3933	2877.4915	3978.3	3098.35
1014.51	2878.6249	3936.35	3055.15
1014.6266	2879.7577	3923.65	3041.6
1014.7431	2880.8898	3903.05	3013.05
1014.8596	2882.0212	3874.8	2997.6
1014.9761	2883.152	3871.75	2988.05
1015.0925	2884.2821	3849.35	2970.55
1015.2089	2885.4116	3845.1	2965
1015.3253	2886.5405	3840	2961.3
1015.4416	2887.6686	3838.85	2954.7
1015.5579	2888.7962	3854.75	2975.4
1015.6741	2889.923	3857.5	2978.6
1015.7903	2891.0493	3870.4	2989.5
1015.9065	2892.1748	3883.9	3007.6
1016.0226	2893.2997	3891.6	3010.45
1016.1387	2894.424	3907.45	3029.9
1016.2547	2895.5476	3911.25	3030.95
1016.3707	2896.6706	3930.4	3051.8
1016.4866	2897.7929	3979.95	3097.05
1016.6025	2898.9145	3986	3105
1016.7184	2900.0355	4014.1	3131.9
1016.8342	2901.1559	4048.7	3166.05
1016.95	2902.2756	4088.15	3207.25
1017.0658	2903.3946	4111.8	3233.35
1017.1815	2904.513	4134.5	3250.95
1017.2971	2905.6308	4169.4	3292.5
1017.4127	2906.7479	4198.55	3317
1017.5283	2907.8643	4200.4	3320.35
1017.6439	2908.9801	4222.85	3344.8
1017.7594	2910.0953	4235.2	3357.05
1017.8748	2911.2098	4236.7	3355.5
1017.9902	2912.3236	4236.75	3348.85
1018.1056	2913.4368	4221.3	3337.75
1018.2209	2914.5494	4198.4	3316.65
1018.3362	2915.6613	4160.1	3273.95
1018.4515	2916.7725	4124.2	3242.35
1018.5667	2917.8831	4107.6	3227.25
1018.6819	2918.9931	4050	3170.55
1018.797	2920.1024	4034.6	3155.5
1018.9121	2921.211	4024.45	3145.05
1019.0271	2922.319	3994.2	3114.05
1019.1421	2923.4264	3975.4	3094.85
1019.2571	2924.5331	3961.8	3083.5
1019.372	2925.6391	3944.8	3066.15
1019.4869	2926.7445	3954.15	3078.15
1019.6017	2927.8493	3947.75	3068.15
1019.7165	2928.9534	3936.5	3058.55
1019.8313	2930.0569	3937.95	3053.4
1019.946	2931.1597	3928.05	3048.75
1020.0606	2932.2619	3916.15	3035.9
1020.1753	2933.3634	3919.75	3041.6
1020.2899	2934.4643	3894.05	3008.2
1020.4044	2935.5645	3882.4	2995.25
1020.5189	2936.6641	3842.75	2959.05
1020.6334	2937.763	3808	2929.05
1020.7478	2938.8613	3755.65	2878.15
1020.8622	2939.959	3694.3	2810.75
1020.9765	2941.056	3616.45	2739.65
1021.0908	2942.1523	3555.8	2674.55
1021.2051	2943.248	3474.3	2595.05
1021.3193	2944.3431	3369.35	2491.2
1021.4334	2945.4375	3257.2	2379.15
1021.5476	2946.5313	3161.55	2283.55
1021.6617	2947.6244	3054.75	2175.45
1021.7757	2948.7169	2953	2072.5
1021.8897	2949.8087	2856.7	1977.6
1022.0037	2950.8999	2766.15	1886.85
1022.1176	2951.9904	2670.55	1793.6
1022.2315	2953.0803	2624.8	1743.45
1022.3453	2954.1696	2549.05	1670.3
1022.4591	2955.2582	2503	1624.3
1022.5728	2956.3462	2447.75	1570.3
1022.6865	2957.4335	2395.15	1515.25
1022.8002	2958.5202	2372.35	1490.2
1022.9138	2959.6062	2345.8	1466.25
1023.0274	2960.6916	2322.9	1444.7
1023.141	2961.7764	2302.5	1422.7
1023.2545	2962.8605	2273.65	1393.55
1023.3679	2963.9439	2270.1	1392.25
1023.4813	2965.0267	2257.8	1378.25
1023.5947	2966.1089	2270.1	1368
1023.708	2967.1905	2227.5	1350.35
1023.8213	2968.2714	2234.25	1356.65
1023.9346	2969.3516	2242.45	1363.85
1024.0478	2970.4312	2246.6	1361.75
1024.1609	2971.5102	2229.6	1351.75
1024.274	2972.5885	2236.05	1358.95
1024.3871	2973.6662	2231.6	1346.35
1024.5002	2974.7432	2219.15	1340.65
1024.6132	2975.8196	2216.85	1337.45
1024.7261	2976.8954	2211.55	1333.45
1024.839	2977.9705	2189.7	1310.9
1024.9519	2979.045	2179	1300.9
1025.0647	2980.1188	2174.45	1296.7
1025.1775	2981.192	2148.7	1271.95
1025.2902	2982.2645	2125.2	1246.7
1025.4029	2983.3364	2096.05	1216.45
1025.5156	2984.4077	2066.1	1186.35
1025.6282	2985.4783	2052.1	1169.6
1025.7407	2986.5483	2010.15	1131.4
1025.8532	2987.6177	1983.7	1106.65
1025.9657	2988.6864	1937.75	1058.75
1026.0782	2989.7545	1904.1	1023.45
1026.1906	2990.8219	1870.45	993.85
1026.3029	2991.8887	1836.15	955.55
1026.4152	2992.9548	1803.6	925.5
1026.5275	2994.0204	1770.95	893.15
1026.6397	2995.0852	1737.6	862.35
1026.7519	2996.1495	1723.5	842.6
1026.864	2997.2131	1682.95	803.8
1026.9761	2998.276	1670.4	792
1027.0882	2999.3383	1649.3	769.15
1027.2002	3000.4	1636	756.8
1027.3122	3001.4611	1614.35	735.55
1027.4241	3002.5215	1597.7	719.6
1027.536	3003.5812	1578.75	700.6
1027.6478	3004.6404	1574.65	696.1
1027.7596	3005.6989	1557.5	677.8
1027.8714	3006.7567	1543.55	665.45
1027.9831	3007.8139	1568.45	660.35
1028.0947	3008.8705	1531.7	654.55
1028.2064	3009.9264	1525.7	644.5
1028.3179	3010.9818	1513.65	636.55
1028.4295	3012.0364	1515.25	637.75
1028.541	3013.0905	1507.45	628.3
1028.6524	3014.1439	1504.7	628.2
1028.7638	3015.1966	1502.3	624
1028.8752	3016.2487	1492.3	614.75
1028.9865	3017.3002	1491.35	609.15
1029.0978	3018.3511	1497.35	621.85
1029.209	3019.4013	1485.7	607.45
1029.3202	3020.4509	1490.9	615.1
1029.4314	3021.4998	1499.5	621.9
1029.5425	3022.5481	1483.9	606.75
1029.6535	3023.5958	1490.3	611.7
1029.7645	3024.6428	1481.85	604.05
1029.8755	3025.6892	1485.35	606.85
1029.9864	3026.735	1485.2	608.5
1030.0973	3027.7802	1494.6	617.45
1030.2082	3028.8247	1485.35	609.3
1030.319	3029.8685	1490.55	612.4
1030.4297	3030.9118	1490.2	611.7
1030.5404	3031.9544	1496.75	619.3
1030.6511	3032.9963	1494.95	618.15
1030.7617	3034.0376	1507.55	631.35
1030.8723	3035.0783	1502.5	622.3
1030.9829	3036.1184	1504.1	625.3
1031.0934	3037.1578	1501.55	623.55
1031.2038	3038.1966	1510	632
1031.3142	3039.2348	1513.4	636.2
1031.4246	3040.2723	1516.3	630.85
1031.5349	3041.3092	1503.25	624.15
1031.6452	3042.3455	1500.4	622
1031.7554	3043.3811	1505.5	628.35
1031.8656	3044.4161	1495.3	617
1031.9758	3045.4505	1493.05	618.25
1032.0859	3046.4842	1483.25	606.65
1032.1959	3047.5173	1474.95	599.65
1032.3059	3048.5498	1479.1	600.7
1032.4159	3049.5816	1471.25	594.15
1032.5258	3050.6128	1468.3	590.55
1032.6357	3051.6434	1456.9	580.05
1032.7455	3052.6734	1452.5	572.6
1032.8553	3053.7027	1445.95	567.05
1032.9651	3054.7314	1432.1	556.95
1033.0748	3055.7594	1434.05	557.15
1033.1845	3056.7868	1423.85	546.5
1033.2941	3057.8136	1426.85	549.1
1033.4037	3058.8398	1416.5	539.9
1033.5132	3059.8653	1415.7	538.95
1033.6227	3060.8902	1406.8	528.25
1033.7321	3061.9145	1404.65	527.45
1033.8415	3062.9381	1392.55	514.45
1033.9509	3063.9612	1406.3	514.85
1034.0602	3064.9835	1382.7	505.5
1034.1694	3066.0053	1377.5	497.7
1034.2787	3067.0264	1370.4	493.6
1034.3878	3068.0469	1364.4	486.55
1034.497	3069.0668	1361.55	481.15
1034.6061	3070.086	1345.8	468
1034.7151	3071.1046	1340.7	463.05
1034.8241	3072.1226	1341.75	463.3
1034.9331	3073.1399	1325.7	450.4
1035.042	3074.1567	1317.45	440.1
1035.1508	3075.1727	1302.15	423.2
1035.2597	3076.1882	1301.25	422.7
1035.3684	3077.203	1291.15	413
1035.4772	3078.2173	1283.2	405.3
1035.5859	3079.2308	1282.1	401.65
1035.6945	3080.2438	1264.7	385.25
1035.8031	3081.2561	1256.8	379.75
1035.9117	3082.2678	1250.65	375.95
1036.0202	3083.2789	1239.55	362.5
1036.1286	3084.2893	1236.05	358.95
1036.2371	3085.2991	1223.55	346.6
1036.3454	3086.3083	1228.7	348.95
1036.4538	3087.3169	1219.25	342.8
1036.562	3088.3248	1214.6	337.15
1036.6703	3089.3321	1212.05	333.2
1036.7785	3090.3388	1209.2	334.25
1036.8866	3091.3449	1196.1	320.1
1036.9948	3092.3503	1197.65	317.6
1037.1028	3093.3551	1187.55	311.45
1037.2108	3094.3593	1186.25	309.15
1037.3188	3095.3629	1181.8	306.35
1037.4267	3096.3658	1184.7	310.3
1037.5346	3097.3681	1179.35	301.6
1037.6425	3098.3698	1178.45	300.8
1037.7503	3099.3708	1176.4	293.1
1037.858	3100.3713	1164.25	288.75
1037.9657	3101.3711	1162.55	284.3
1038.0734	3102.3702	1304.75	290.55
1038.181	3103.3688	1163.75	287.15
1038.2886	3104.3667	1160.7	285.35
1038.3961	3105.364	1150.35	272.4
1038.5036	3106.3607	1149.9	271.25
1038.611	3107.3568	1152.1	273.2
1038.7184	3108.3522	1142.45	267.45
1038.8257	3109.347	1140.15	260.55
1038.933	3110.3412	1145.2	263.9
1039.0403	3111.3348	1134.9	258.05
1039.1475	3112.3277	1128.75	253.85
1039.2547	3113.32	1137.55	260.45
1039.3618	3114.3117	1133.6	256.55
1039.4689	3115.3028	1133.1	256.6
1039.5759	3116.2932	1132.7	254.8
1039.6829	3117.2831	1139.15	256.9
1039.7898	3118.2723	1117.85	242.1
1039.8967	3119.2608	1121.8	245.75
1040.0035	3120.2488	1120.65	246.35
1040.1103	3121.2361	1118.75	239.9
1040.2171	3122.2229	1119.45	241.95
1040.3238	3123.209	1119	241.5
1040.4305	3124.1944	1107.7	232.25
1040.5371	3125.1793	1108.1	229.75
1040.6437	3126.1635	1111.85	236.15
1040.7502	3127.1471	1108.7	231.35
1040.8567	3128.1301	1105.55	230.25
1040.9631	3129.1125	1107.55	232.5
1041.0695	3130.0942	1106.5	227.85
1041.1759	3131.0753	1110.2	226.85
1041.2822	3132.0558	1107.9	229.45
1041.3884	3133.0357	1099.2	223.05
1041.4946	3134.015	1097.75	220.5
1041.6008	3134.9936	1097.15	219.05
1041.7069	3135.9716	1113.35	218.5
1041.813	3136.949	1091.95	216.2
1041.919	3137.9258	1108.95	213.35
1042.025	3138.902	1094.85	213.7
1042.1309	3139.8775	1091.1	214.2
1042.2368	3140.8524	1082.35	206.7
1042.3427	3141.8267	1085.2	207.25
1042.4485	3142.8004	1081.25	203.05
1042.5542	3143.7735	1085.45	202.5
1042.6599	3144.7459	1084.9	208
1042.7656	3145.7178	1081.15	205.35
1042.8712	3146.689	1077.35	201.7
1042.9768	3147.6596	1074.35	194.8
1043.0823	3148.6295	1077.05	200.85
1043.1878	3149.5989	1074.7	199.65
1043.2932	3150.5676	1071.9	198.05
1043.3986	3151.5357	1072.15	197.6
1043.5039	3152.5032	1069.95	195.2
1043.6092	3153.4701	1062.6	187.6
1043.7145	3154.4364	1073.6	195.35
1043.8197	3155.402	1061.4	186.45
1043.9248	3156.367	1062.9	184.85
1044.03	3157.3315	1089.9	184.3
1044.135	3158.2952	1062.65	187.3
1044.24	3159.2584	1058.65	182.55
1044.345	3160.221	1058.9	183.2
1044.4499	3161.1829	1053.95	179.2
1044.5548	3162.1442	1053.25	175.8
1044.6596	3163.105	1051.75	176
1044.7644	3164.065	1053.55	177.6
1044.8692	3165.0245	1057.55	178.5
1044.9739	3165.9834	1049.65	175.9
1045.0785	3166.9416	1048.25	173.6
1045.1831	3167.8993	1047.8	172.8
1045.2877	3168.8563	1052.25	175.65
1045.3922	3169.8127	1046.95	170.35
1045.4966	3170.7684	1046.65	173.05
1045.6011	3171.7236	1041.4	164.3
1045.7054	3172.6782	1045.15	169.7
1045.8098	3173.6321	1042.55	166.45
1045.914	3174.5854	1047.7	167.7
1046.0183	3175.5381	1041.8	166.45
1046.1224	3176.4902	1037.25	162.2
1046.2266	3177.4417	1039.25	163.75
1046.3307	3178.3926	1035.85	161.75
1046.4347	3179.3428	1034.85	159.95
1046.5387	3180.2924	1032.55	158.35
1046.6427	3181.2415	1036.3	160.55
1046.7466	3182.1899	1035.25	160.25
1046.8504	3183.1377	1033.65	159.1
1046.9542	3184.0848	1034	154.4
1047.058	3185.0314	1032.3	157.4
1047.1617	3185.9773	1029.9	152.9
1047.2654	3186.9227	1028.1	153.3
1047.369	3187.8674	1027.2	152.15
1047.4726	3188.8115	1031.7	153.65
1047.5761	3189.755	1026.3	152.7
1047.6796	3190.6979	1025.25	149.85
1047.783	3191.6402	1026.1	152.75
1047.8864	3192.5818	1025.9	150.75
1047.9898	3193.5229	1025.3	142.2
1048.0931	3194.4633	1021.25	147.05
1048.1963	3195.4031	1021.3	146.25
1048.2995	3196.3423	1018.65	143.5
1048.4027	3197.2809	1022.25	148.7
1048.5058	3198.2189	1016.45	139.05
1048.6089	3199.1563	1038.4	149.25
1048.7119	3200.0931	1017.15	141.6
1048.8148	3201.0292	1014	138.35
1048.9178	3201.9648	1017	141.35
1049.0206	3202.8997	1015.2	135.8
1049.1235	3203.834	1016.8	142.3
1049.2262	3204.7677	1013.65	139.5
1049.329	3205.7008	1012.95	134.5
1049.4317	3206.6333	1009.05	134.9
1049.5343	3207.5652	1009.85	133.35
1049.6369	3208.4964	1010.2	132.45
1049.7394	3209.4271	1012.05	138.75
1049.8419	3210.3571	1008.45	133.35
1049.9444	3211.2865	1009.8	136.6
1050.0468	3212.2154	1009.3	131.85
1050.1491	3213.1436	1007.4	130.15
1050.2514	3214.0712	1011.5	130.75
1050.3537	3214.9982	1005.4	129.5
1050.4559	3215.9246	1008.5	132.25
1050.5581	3216.8503	1001.95	126.65
1050.6602	3217.7755	1004.55	128.75
1050.7623	3218.7001	1001.75	125.8
1050.8643	3219.624	1001.75	127.75
1050.9663	3220.5473	998.45	125.15
1051.0682	3221.4701	1002.55	128.2
1051.1701	3222.3922	1000.5	122.55
1051.2719	3223.3137	996.9	120.4
1051.3737	3224.2346	998.95	123.45
1051.4754	3225.1549	996.85	121.65
1051.5771	3226.0746	997.45	124.25
1051.6788	3226.9937	993.65	119.4
1051.7804	3227.9121	995.8	122.45
1051.8819	3228.83	993.6	117.6
1051.9834	3229.7473	994.5	119.1
1052.0849	3230.6639	994.85	120.55
1052.1863	3231.5799	990	114.05
1052.2876	3232.4954	992.2	116.6
1052.3889	3233.4102	988.55	113.6
1052.4902	3234.3244	987.5	111.85
1052.5914	3235.238	989.95	115.25
1052.6926	3236.151	1015.25	116
1052.7937	3237.0634	989.7	116.35
1052.8948	3237.9752	988.5	112.7
1052.9958	3238.8864	987.9	111.9
1053.0968	3239.797	987.6	112
1053.1977	3240.7069	984.95	108.6
1053.2986	3241.6163	984.95	107.6
1053.3994	3242.5251	981.7	109.25
1053.5002	3243.4332	982.7	108.65
1053.6009	3244.3408	983.6	108.1
1053.7016	3245.2477	983.1	107.45
1053.8022	3246.154	979.25	103.7
1053.9028	3247.0598	979.6	103
1054.0034	3247.9649	978.3	101.9
1054.1039	3248.8694	977.5	101.6
1054.2043	3249.7733	975.1	102.5
1054.3047	3250.6766	974.65	101.5
1054.4051	3251.5793	974.2	98.65
1054.5054	3252.4814	972.7	99
1054.6056	3253.3829	971.4	97.9
1054.7058	3254.2838	971.2	95.95
1054.806	3255.1841	974.55	101.35
1054.9061	3256.0838	971.9	96.05
1055.0061	3256.9829	966.95	94.1
1055.1062	3257.8814	973.85	96.5
1055.2061	3258.7792	970.4	94.2
1055.306	3259.6765	968.6	91.7
1055.4059	3260.5731	967.45	94.45
1055.5057	3261.4692	962.3	87.4
1055.6055	3262.3647	964.85	89.25
1055.7052	3263.2595	961.7	88.25
1055.8049	3264.1538	963.9	89.65
1055.9045	3265.0474	962.1	86.6
1056.0041	3265.9404	956.4	81.15
1056.1036	3266.8329	955.9	84.3
1056.2031	3267.7247	966.9	84.65
1056.3025	3268.616	954.6	81.9
1056.4019	3269.5066	953.15	77.7
1056.5013	3270.3966	954.05	77.85
1056.6005	3271.286	947.7	73.55
