Software Version:	3.9.2.0
Unit SN:	10000200
Spectrometer SN:	6960
Date:	3/8/2024 2:10:42 PM
Data Line Index:	25
Spectral Points:	2048
Integration time (ms):	125
Averages:	20
Delay (ms):	30000
Sequence Number:	1
Processing:	dark subtract
Laser Power (mW):	305
Laser Current (mA):	824
Laser Diode Temp (C):	25.1
Laser Case Temp (C):	26.3
System Temp (C):	26.3
Spectrometer Temp (C):	24.1
CCD Temp (C):	0.005
Secondary Temp (C):	20.011
Heatsink Temp (C):	21.365
CCDPCB Temp (C):	36.429
SecondaryPCB Temp (C):	30.482

Wavelength	RamanShift	Raw Counts	Dark Subtracted
787.061	30.1047	467.15	58.55
787.2016	32.3739	466.4	60.9
787.3422	34.6426	472.2	65.5
787.4828	36.9109	481.45	73
787.6235	39.1787	490.85	76.7
787.7642	41.4461	498.4	80.55
787.9049	43.7131	508.75	90.15
788.0456	45.9796	516.25	94.25
788.1863	48.2456	527.1	100.3
788.3271	50.5112	535.7	104.05
788.4679	52.7764	548.1	112.9
788.6087	55.0411	561.15	122.2
788.7496	57.3054	573.2	126.6
788.8904	59.5692	579.95	133.05
789.0313	61.8326	587.4	138.75
789.1722	64.0955	604.15	152.05
789.3132	66.3579	625	167.1
789.4541	68.6199	645.7	184.45
789.5951	70.8815	683.6	217.1
789.7361	73.1426	770.8	298.55
789.8771	75.4032	982.2	509
790.0181	77.6634	1526.2	1047.8
790.1592	79.9231	2785.75	2298.95
790.3003	82.1824	5526.75	5020.45
790.4414	84.4412	10459.3	9922.7
790.5825	86.6995	17253.4	16673.95
790.7237	88.9574	23898.45	23286.45
790.8648	91.2148	28495.8	27860.4
791.006	93.4717	30633.25	29983.3
791.1472	95.7282	31130.45	30471.35
791.2885	97.9842	31160.15	30500.1
791.4297	100.2398	30676.1	30012.3
791.571	102.4949	30136.75	29472.05
791.7123	104.7495	29390.45	28720
791.8536	107.0036	28637.85	27969.3
791.9949	109.2573	27901.2	27231.45
792.1363	111.5105	27224.1	26549.8
792.2777	113.7632	26495.05	25820.55
792.4191	116.0154	25914	25227.7
792.5605	118.2672	25494.5	24810.95
792.7019	120.5185	24994.9	24309.3
792.8434	122.7693	24649.5	23965.1
792.9849	125.0197	24407.35	23720.7
793.1264	127.2696	24099.1	23404.55
793.2679	129.519	23972.45	23274.9
793.4094	131.7679	23815.05	23113
793.551	134.0163	23703.75	22995.95
793.6926	136.2642	23487.95	22784.05
793.8342	138.5117	23349.1	22635.45
793.9758	140.7587	23155.45	22442.8
794.1175	143.0052	22985.75	22268.75
794.2591	145.2512	22769.5	22055.85
794.4008	147.4967	22562.05	21845.2
794.5425	149.7417	22388.45	21670.9
794.6842	151.9863	22306.8	21583.7
794.826	154.2304	22255.15	21529.55
794.9677	156.4739	22149.25	21418.7
795.1095	158.717	22081.35	21347
795.2513	160.9596	21967.3	21232.6
795.3931	163.2017	21717.25	20978.2
795.535	165.4433	21501.35	20759.55
795.6768	167.6844	21179.65	20437.25
795.8187	169.925	20846.15	20103.3
795.9606	172.1651	20462.4	19714.95
796.1025	174.4047	20216.9	19470.95
796.2445	176.6439	19990	19240.7
796.3864	178.8825	19759.2	19006.25
796.5284	181.1206	19601.25	18839.7
796.6704	183.3582	19451.1	18680.1
796.8124	185.5954	19363.2	18595.05
796.9544	187.832	19300.95	18529.4
797.0965	190.0681	19252.45	18475.8
797.2386	192.3037	19288.3	18513
797.3806	194.5388	19286.15	18505.45
797.5228	196.7734	19318.15	18538.1
797.6649	199.0075	19429.7	18646.2
797.807	201.2411	19604.7	18817.4
797.9492	203.4742	19703.85	18913.7
798.0914	205.7068	19886.55	19092.25
798.2336	207.9389	19954.4	19163.9
798.3758	210.1704	20169.4	19385.55
798.518	212.4015	20290.35	19516.3
798.6603	214.632	20465.85	19697.2
798.8025	216.862	20692.6	19927.95
798.9448	219.0915	20861.1	20089.9
799.0871	221.3205	21130.65	20354.65
799.2294	223.549	21395.85	20623.65
799.3718	225.777	21726.2	20959.25
799.5141	228.0044	22094.85	21315.4
799.6565	230.2314	22576.35	21802.9
799.7989	232.4578	23056	22274.65
799.9413	234.6837	23404.2	22617.3
800.0837	236.909	23656.35	22867.5
800.2262	239.1339	23664.85	22846.25
800.3687	241.3582	23445.6	22639.8
800.5111	243.582	23137.45	22306.35
800.6536	245.8053	22811.4	21995.7
800.7961	248.0281	22482.9	21670.15
800.9387	250.2503	22262.15	21441.45
801.0812	252.472	22079.9	21268.5
801.2238	254.6932	22061.45	21244.85
801.3664	256.9139	21965.45	21148.05
801.509	259.134	21975.05	21149.5
801.6516	261.3536	21961.9	21141.9
801.7942	263.5727	22025.45	21198.55
801.9369	265.7912	21943.3	21120.9
802.0795	268.0092	21987.7	21168.4
802.2222	270.2267	21972.4	21150.8
802.3649	272.4436	21976.95	21153.55
802.5076	274.6601	21927.05	21096.3
802.6504	276.8759	21821.9	20992.05
802.7931	279.0913	21830.9	21002.3
802.9359	281.3061	21810.95	20976.45
803.0787	283.5204	21874.45	21035.45
803.2215	285.7341	22018	21179.4
803.3643	287.9473	22225.8	21376.35
803.5071	290.16	22442.3	21601.55
803.6499	292.3721	22783.7	21947.7
803.7928	294.5837	23220.85	22384.55
803.9357	296.7947	23605.9	22762.6
804.0786	299.0052	23818	22978.45
804.2215	301.2152	23710.5	22871
804.3644	303.4246	23357.8	22525.55
804.5074	305.6334	22835.05	22002.45
804.6503	307.8418	22333.3	21498.65
804.7933	310.0495	21927.75	21088
804.9363	312.2568	21663.3	20817.05
805.0793	314.4635	21453.2	20612.6
805.2223	316.6696	21353.2	20503.75
805.3653	318.8752	21317.05	20460.3
805.5084	321.0802	21396.1	20544.2
805.6514	323.2847	21534.4	20680.8
805.7945	325.4887	21584.55	20729.5
805.9376	327.692	21543.85	20690.2
806.0807	329.8949	21440.15	20585.5
806.2238	332.0972	21213.9	20355.45
806.367	334.2989	20950.2	20089.6
806.5101	336.5001	20660.4	19799.6
806.6533	338.7007	20490.7	19626.95
806.7965	340.9008	20375.55	19511.7
806.9397	343.1003	20269.35	19407.55
807.0829	345.2992	20284.7	19420.7
807.2261	347.4976	20251.5	19388.15
807.3693	349.6955	20252.75	19381.4
807.5126	351.8927	20336.05	19464.9
807.6559	354.0895	20314.05	19432.5
807.7991	356.2856	20400.8	19528.75
807.9424	358.4812	20405.85	19532.8
808.0857	360.6763	20451.45	19576.05
808.2291	362.8707	20447.55	19568.2
808.3724	365.0646	20540.65	19661.9
808.5158	367.258	20506.7	19629.8
808.6591	369.4508	20541.15	19658.65
808.8025	371.643	20657.65	19772.6
808.9459	373.8346	20634	19754.9
809.0893	376.0257	20634	19746.7
809.2327	378.2162	20562.4	19682.45
809.3762	380.4062	20451.65	19569.6
809.5196	382.5956	20356.6	19477.8
809.6631	384.7844	20254.55	19380.65
809.8066	386.9726	20128.95	19255.9
809.9501	389.1603	20110.5	19238.3
810.0936	391.3474	20098.4	19201.8
810.2371	393.5339	20091.55	19213
810.3806	395.7199	20064.3	19186.35
810.5241	397.9052	20089.3	19214
810.6677	400.09	20086.45	19210.3
810.8113	402.2743	20184.9	19309.7
810.9548	404.4579	20275.35	19402.5
811.0984	406.641	20458.7	19582.85
811.2421	408.8235	20711.15	19833.75
811.3857	411.0054	20977.9	20097.85
811.5293	413.1868	21517.35	20627.45
811.673	415.3675	21880.95	20989.3
811.8166	417.5477	22039.65	21151.35
811.9603	419.7273	22131.05	21237.55
812.104	421.9064	22010.65	21114.65
812.2477	424.0848	21871.1	20980.1
812.3914	426.2627	21654.3	20761.9
812.5351	428.4399	21380.8	20487
812.6788	430.6166	21037.75	20137.85
812.8226	432.7928	20708.5	19814.2
812.9663	434.9683	20392.55	19499.2
813.1101	437.1432	20191.35	19296.9
813.2539	439.3176	19983.6	19099.45
813.3977	441.4914	19867.4	18986
813.5415	443.6645	19896	19011.7
813.6853	445.8371	19806.3	18916.95
813.8291	448.0091	19753.55	18862.6
813.973	450.1806	19732.05	18845.3
814.1168	452.3514	19647.65	18764.65
814.2607	454.5216	19668	18773.25
814.4046	456.6913	19629.05	18738.9
814.5485	458.8603	19665.95	18774.95
814.6924	461.0288	19760.95	18876.5
814.8363	463.1967	19790.15	18908.65
814.9802	465.3639	19953.95	19063.6
815.1241	467.5306	20027.2	19137.35
815.2681	469.6967	20193.25	19309.05
815.412	471.8622	20362.05	19478.65
815.556	474.0271	20532.7	19648.9
815.7	476.1914	20629.8	19733.5
815.844	478.3551	20628.4	19732.6
815.988	480.5182	20585.45	19696.45
816.132	482.6807	20643.25	19766.2
816.276	484.8426	20747.9	19873.55
816.4201	487.0039	21017.1	20139.7
816.5641	489.1647	21435.75	20542.65
816.7082	491.3248	21901.4	21008.85
816.8522	493.4843	22111.2	21226.2
816.9963	495.6432	22116.15	21231.45
817.1404	497.8015	22025.9	21125.25
817.2845	499.9592	22056.95	21147.05
817.4286	502.1163	22046.25	21139.1
817.5727	504.2728	21801.7	20907.15
817.7168	506.4287	21536.7	20653.3
817.861	508.5839	21105.25	20220.25
818.0051	510.7386	20784	19893.8
818.1493	512.8927	20620.4	19721.85
818.2935	515.0461	20538.1	19640.45
818.4377	517.199	20459.3	19556.55
818.5818	519.3512	20474.5	19569.95
818.726	521.5029	20568.35	19662.75
818.8703	523.6539	20632.25	19731.65
819.0145	525.8043	20661.95	19758.55
819.1587	527.9541	20703.95	19798.85
819.303	530.1033	20733.95	19830.8
819.4472	532.2519	20771	19864.85
819.5915	534.3999	20932.25	20027.45
819.7357	536.5472	21245.1	20344.85
819.88	538.694	21693.25	20791.6
820.0243	540.8401	22317.95	21414.85
820.1686	542.9856	22847.1	21933.65
820.3129	545.1305	23031.05	22113.15
820.4572	547.2748	22934.95	22009.85
820.6016	549.4185	22579.95	21654.45
820.7459	551.5615	22212.2	21288.95
820.8902	553.704	22074.85	21156.6
821.0346	555.8458	22030.15	21110.9
821.1789	557.987	22057.9	21143.2
821.3233	560.1276	22058.5	21144.3
821.4677	562.2675	22082.4	21167.5
821.6121	564.4069	22089.15	21168.7
821.7565	566.5456	22078.55	21162.8
821.9009	568.6837	22009.9	21098
822.0453	570.8212	21734.55	20824.85
822.1897	572.958	21409.95	20499.55
822.3342	575.0942	21193.45	20284.8
822.4786	577.2299	21040.05	20135.05
822.6231	579.3648	20963.45	20069.1
822.7675	581.4992	21000.6	20119.6
822.912	583.6329	21239.85	20362.55
823.0565	585.766	21474.9	20589.7
823.201	587.8985	21608.85	20713.15
823.3454	590.0304	21597.2	20676.55
823.4899	592.1616	21589.85	20669.9
823.6345	594.2922	21524.2	20607.05
823.779	596.4222	21359.3	20440.55
823.9235	598.5515	21213.9	20290
824.068	600.6802	21072	20149.35
824.2126	602.8083	20850.25	19936.65
824.3571	604.9358	20843.15	19920.4
824.5017	607.0626	20767.5	19843.95
824.6462	609.1888	20776.5	19847.55
824.7908	611.3144	20749.35	19819.5
824.9354	613.4393	20616.8	19688.6
825.08	615.5636	20526.85	19598.75
825.2246	617.6873	20439.4	19512.8
825.3692	619.8103	20417.6	19488.5
825.5138	621.9327	20329.2	19406.15
825.6584	624.0544	20305.2	19386
825.803	626.1756	20295.7	19375.15
825.9477	628.2961	20294.75	19369.7
826.0923	630.4159	20210.8	19286.3
826.237	632.5351	20219.75	19292.5
826.3816	634.6537	20173.05	19245.55
826.5263	636.7716	20138.45	19205.35
826.6709	638.8889	20169	19229.6
826.8156	641.0056	20235.3	19297.5
826.9603	643.1216	20264.3	19332
827.105	645.237	20312.3	19383.3
827.2497	647.3518	20312.35	19388.35
827.3944	649.4659	20341.55	19423.45
827.5391	651.5793	20329.9	19410.75
827.6838	653.6922	20330.95	19409.7
827.8285	655.8043	20335.05	19412.75
827.9733	657.9159	20339.15	19415.75
828.118	660.0268	20268.85	19343.9
828.2627	662.137	20231.9	19305.8
828.4075	664.2466	20258.65	19325.55
828.5522	666.3556	20243.45	19310.95
828.697	668.4639	20230.05	19301.4
828.8418	670.5716	20286.6	19362.35
828.9865	672.6786	20367.35	19434.5
829.1313	674.785	20410.8	19475.6
829.2761	676.8907	20472.75	19544.8
829.4209	678.9958	20603.05	19680.8
829.5657	681.1002	20541.4	19611.75
829.7105	683.204	20578.05	19636.4
829.8553	685.3072	20558.55	19618.6
830.0001	687.4097	20494.55	19560.55
830.1449	689.5115	20450.8	19513.45
830.2898	691.6127	20451	19519.6
830.4346	693.7132	20364	19434.85
830.5794	695.8131	20387.45	19436.25
830.7243	697.9123	20358.05	19420.35
830.8691	700.0109	20323.1	19384.8
831.014	702.1089	20332.65	19398.95
831.1588	704.2061	20381.95	19446.9
831.3037	706.3028	20414.25	19473.05
831.4486	708.3987	20463	19525.65
831.5935	710.4941	20607	19667.4
831.7383	712.5887	20778.7	19844.7
831.8832	714.6827	21079.4	20141.95
832.0281	716.7761	21442.9	20513.15
832.173	718.8688	21789.05	20855.15
832.3179	720.9608	22002.65	21059.85
832.4628	723.0522	22143.75	21194.6
832.6077	725.1429	21927.25	20983.65
832.7527	727.233	21672.25	20731.45
832.8976	729.3224	21428.7	20487.6
833.0425	731.4112	21178.5	20234.6
833.1874	733.4993	20936.25	19994.9
833.3324	735.5867	20769.1	19831.9
833.4773	737.6735	20702.65	19763.05
833.6222	739.7596	20682.4	19737.6
833.7672	741.845	20632.8	19692.4
833.9122	743.9298	20572	19631.5
834.0571	746.014	20612.75	19673.4
834.2021	748.0974	20618.6	19666.75
834.347	750.1802	20629.4	19680.85
834.492	752.2624	20661.9	19716.3
834.637	754.3439	20690	19745.1
834.782	756.4247	20727.9	19774.9
834.9269	758.5048	20878.7	19933.2
835.0719	760.5843	21094.05	20148.05
835.2169	762.6631	21367.3	20415.85
835.3619	764.7413	21822	20873.55
835.5069	766.8188	22389.3	21442.4
835.6519	768.8956	22840.95	21891.1
835.7969	770.9718	23170.7	22221.15
835.9419	773.0473	23056.3	22109.75
836.0869	775.1221	22759.2	21817
836.232	777.1962	22373.75	21427.2
836.377	779.2697	22153.9	21206.6
836.522	781.3426	22232.4	21266.15
836.667	783.4147	22461.75	21511.6
836.8121	785.4862	22846.05	21899.2
836.9571	787.557	22904.35	21955.95
837.1021	789.6271	22534.9	21583.45
837.2472	791.6966	22023.25	21074.4
837.3922	793.7654	21456.75	20505.45
837.5373	795.8335	21189.9	20244
837.6823	797.901	21019.5	20072.7
837.8274	799.9678	20984.25	20030.7
837.9724	802.0339	20999.7	20049.05
838.1175	804.0993	21023.4	20061.65
838.2626	806.1641	21039.95	20088.9
838.4076	808.2282	20992.8	20045
838.5527	810.2916	20947.1	19997.25
838.6978	812.3544	20853.7	19907.75
838.8428	814.4164	20770.85	19820.7
838.9879	816.4778	20858.55	19904.3
839.133	818.5385	20831.55	19877.05
839.2781	820.5986	20905.3	19953.8
839.4232	822.658	21008.3	20053.75
839.5682	824.7166	21125.45	20171.2
839.7133	826.7747	21329.35	20372.45
839.8584	828.832	21556.35	20601.1
840.0035	830.8886	21683.6	20728.5
840.1486	832.9446	21817.95	20864.5
840.2937	834.9999	21852.25	20895.85
840.4388	837.0545	21947.25	20988
840.5839	839.1085	21908.45	20954.1
840.729	841.1618	21907	20951.3
840.8741	843.2143	21852	20894.6
841.0192	845.2662	21771.2	20813.65
841.1643	847.3175	21775.05	20819.05
841.3095	849.368	21671.8	20718.35
841.4546	851.4179	21566.5	20610.4
841.5997	853.467	21389.5	20438.15
841.7448	855.5155	21307.25	20349.65
841.8899	857.5633	21192.3	20234.1
842.0351	859.6105	21125.55	20167.9
842.1802	861.6569	21083.6	20121.9
842.3253	863.7027	21051.5	20088.9
842.4704	865.7478	21036.4	20077.95
842.6156	867.7922	21083.35	20128
842.7607	869.8359	21116.9	20162.8
842.9058	871.8789	21227.9	20271.95
843.0509	873.9212	21452.65	20463.2
843.1961	875.9629	21577.55	20617.3
843.3412	878.0039	21812.8	20854.25
843.4863	880.0441	21927.85	20973.45
843.6315	882.0837	21920.4	20965.8
843.7766	884.1226	21834.35	20878.65
843.9218	886.1609	21750.7	20794.6
844.0669	888.1984	21683.9	20725.7
844.212	890.2352	21719.8	20760.05
844.3572	892.2714	21652.5	20690.5
844.5023	894.3069	21692.85	20731.6
844.6475	896.3416	21622.4	20665.75
844.7926	898.3757	21617.2	20655.25
844.9377	900.4091	21589.25	20628.95
845.0829	902.4418	21609.15	20641.25
845.228	904.4739	21616.05	20654.7
845.3732	906.5052	21668.85	20703.7
845.5183	908.5358	21542.4	20579.7
845.6635	910.5658	21442.15	20479.75
845.8086	912.595	21271.5	20311.05
845.9538	914.6236	21118.45	20159.9
846.0989	916.6515	21082.25	20119.7
846.2441	918.6786	21077.5	20112.1
846.3892	920.7051	21172.5	20208.1
846.5344	922.7309	21306.55	20342.8
846.6795	924.756	21360.7	20400.35
846.8246	926.7804	21462	20498.25
846.9698	928.8041	21389.55	20430.1
847.1149	930.8272	21452.35	20490.15
847.2601	932.8495	21395.1	20432.8
847.4052	934.8711	21287	20322.55
847.5504	936.892	21157.25	20193.4
847.6955	938.9123	21031.75	20066.95
847.8407	940.9318	20935.65	19970.75
847.9858	942.9506	20837.15	19871.9
848.131	944.9688	20739.9	19778.05
848.2761	946.9862	20652.6	19690.65
848.4213	949.003	20577.65	19617.2
848.5664	951.019	20591.4	19626.3
848.7115	953.0344	20600.55	19642.65
848.8567	955.0491	20621.65	19657.95
849.0018	957.063	20765.85	19804.9
849.147	959.0763	20954.35	19992.6
849.2921	961.0888	20943.3	19981.3
849.4373	963.1007	21089.9	20131.3
849.5824	965.1119	21090.8	20142.45
849.7275	967.1223	21103.6	20158.45
849.8727	969.1321	21102.65	20158.45
850.0178	971.1412	21215.55	20268.2
850.1629	973.1495	21199.05	20242.6
850.3081	975.1572	21311.4	20302.8
850.4532	977.1641	21343.2	20382.75
850.5983	979.1704	21328.85	20368
850.7435	981.1759	21276.95	20309.45
850.8886	983.1808	21392.75	20426.45
851.0337	985.1849	21483.5	20513.85
851.1788	987.1884	21593.6	20628.75
851.324	989.1911	21782.4	20822
851.4691	991.1932	21879	20917.25
851.6142	993.1945	21930.85	20970.75
851.7593	995.1951	21859.65	20900.2
851.9045	997.1951	21854.65	20886.9
852.0496	999.1943	21774.15	20813.25
852.1947	1001.1928	21694.6	20730.45
852.3398	1003.1906	21705.95	20743.15
852.4849	1005.1877	21758.35	20796.6
852.63	1007.1841	21704.6	20747.05
852.7751	1009.1798	21627.95	20667.45
852.9202	1011.1748	21451.55	20493.85
853.0653	1013.1691	21242.7	20283.55
853.2104	1015.1627	21057.25	20099.5
853.3555	1017.1556	20819.25	19860.5
853.5006	1019.1477	20718.45	19761.45
853.6457	1021.1392	20607.7	19656.8
853.7908	1023.1299	20600.6	19653.05
853.9359	1025.12	20587.25	19645.9
854.081	1027.1093	20600.45	19669.85
854.2261	1029.0979	20703.35	19779.6
854.3712	1031.0859	20766.4	19836.8
854.5163	1033.0731	20760.9	19814.9
854.6613	1035.0596	20667.85	19718.95
854.8064	1037.0454	20463.95	19510.3
854.9515	1039.0304	20421.6	19463.7
855.0965	1041.0148	20280.2	19326.15
855.2416	1042.9985	20192.7	19232.55
855.3867	1044.9814	20160.6	19204.75
855.5317	1046.9636	20112.3	19153.05
855.6768	1048.9452	20090.9	19134.95
855.8219	1050.926	20112.35	19157.7
855.9669	1052.9061	20097.1	19138.4
856.112	1054.8855	20085.45	19128
856.257	1056.8642	20119.8	19162.45
856.4021	1058.8421	20211.75	19248.4
856.5471	1060.8194	20251.6	19290.85
856.6921	1062.7959	20260.95	19302.9
856.8372	1064.7717	20272.8	19313.75
856.9822	1066.7469	20257.5	19300
857.1272	1068.7213	20298.1	19336.6
857.2723	1070.695	20272.35	19313.3
857.4173	1072.6679	20172.7	19214.15
857.5623	1074.6402	20165.95	19207
857.7073	1076.6117	20164.1	19198.25
857.8523	1078.5826	20172	19210.3
857.9973	1080.5527	20200.6	19237.85
858.1423	1082.5221	20280.4	19322.45
858.2873	1084.4908	20429.15	19473.7
858.4323	1086.4587	20627	19669.4
858.5773	1088.426	20763.9	19807.05
858.7223	1090.3925	20782.85	19818
858.8673	1092.3584	20724.25	19762.15
859.0123	1094.3235	20536.45	19580.05
859.1573	1096.2879	20479.6	19525.25
859.3022	1098.2515	20455.25	19498.5
859.4472	1100.2145	20560.05	19606.25
859.5922	1102.1767	20631.35	19671.15
859.7371	1104.1382	20766.5	19810.7
859.8821	1106.099	20982.95	20023.35
860.027	1108.0591	21173.55	20213.35
860.172	1110.0185	21284.95	20325.1
860.3169	1111.9771	21353.4	20394.8
860.4619	1113.9351	21121.8	20167
860.6068	1115.8923	20822.95	19861.5
860.7517	1117.8488	20511.4	19552.8
860.8967	1119.8045	20228.45	19274.7
861.0416	1121.7596	20136.55	19180.55
861.1865	1123.7139	20044.15	19086.9
861.3314	1125.6675	20051.45	19095.15
861.4763	1127.6204	20138.5	19181.3
861.6212	1129.5726	20095.55	19136.6
861.7661	1131.524	20072.4	19117.2
861.911	1133.4748	20098.1	19141.35
862.0559	1135.4248	20091.8	19133.7
862.2008	1137.3741	20072.85	19119.75
862.3457	1139.3226	20023.6	19065.3
862.4905	1141.2705	19994.7	19037.2
862.6354	1143.2176	19858.1	18892.6
862.7803	1145.164	19888.75	18931.25
862.9251	1147.1097	19908.8	18947.7
863.07	1149.0546	19920.7	18963.3
863.2148	1150.9989	19861.9	18908.75
863.3597	1152.9424	19719.5	18761.7
863.5045	1154.8852	19530.7	18574
863.6493	1156.8272	19474.55	18514.25
863.7942	1158.7686	19444	18478
863.939	1160.7092	19350.25	18393.1
864.0838	1162.6491	19308.85	18352.35
864.2286	1164.5883	19407.5	18449.7
864.3734	1166.5267	19483.35	18527.5
864.5182	1168.4644	19598.35	18640.95
864.663	1170.4014	19810.75	18855.25
864.8078	1172.3377	20052.9	19100.6
864.9526	1174.2732	20253.55	19302.15
865.0974	1176.2081	20485.15	19533.65
865.2421	1178.1421	20711.7	19758.35
865.3869	1180.0755	20951.75	19994.6
865.5317	1182.0082	21012.35	20059.9
865.6764	1183.9401	21027.5	20076.6
865.8212	1185.8713	20824.7	19876.9
865.9659	1187.8017	20625.5	19687.65
866.1106	1189.7315	20348	19418.7
866.2554	1191.6605	20045.3	19112.7
866.4001	1193.5888	19813.9	18877.65
866.5448	1195.5163	19703.15	18759.9
866.6895	1197.4432	19613.55	18660.55
866.8342	1199.3693	19568.05	18615.85
866.9789	1201.2947	19498.85	18542.1
867.1236	1203.2193	19454.4	18503.75
867.2683	1205.1432	19476.7	18522.9
867.413	1207.0664	19476.05	18519.5
867.5576	1208.9889	19522.3	18570.15
867.7023	1210.9106	19559.55	18607.75
867.847	1212.8316	19578.5	18629
867.9916	1214.7519	19653.95	18692.9
868.1363	1216.6715	19653.15	18703.55
868.2809	1218.5903	19633.15	18678.8
868.4255	1220.5084	19585.5	18633.2
868.5701	1222.4257	19614.75	18665.35
868.7148	1224.3424	19525.65	18577
868.8594	1226.2583	19540.75	18587
869.004	1228.1735	19652.85	18702.35
869.1486	1230.0879	19749.85	18799
869.2932	1232.0016	19813.75	18860.55
869.4377	1233.9146	19849.5	18895.3
869.5823	1235.8269	19767.7	18815
869.7269	1237.7384	19638.9	18687.25
869.8715	1239.6492	19416.3	18467.7
870.016	1241.5592	19334.7	18383.85
870.1606	1243.4686	19242.05	18293.95
870.3051	1245.3772	19205.05	18256
870.4496	1247.285	19146.25	18195.95
870.5941	1249.1922	19155.1	18204.35
870.7387	1251.0986	19146.45	18196.2
870.8832	1253.0042	19158.7	18209.6
871.0277	1254.9092	19152.4	18206.55
871.1722	1256.8134	19188.1	18245.05
871.3167	1258.7169	19355.5	18406.95
871.4611	1260.6196	19511.4	18562.85
871.6056	1262.5216	19732.15	18781.55
871.7501	1264.4229	19828.05	18881.5
871.8945	1266.3234	20002.5	19053.6
872.039	1268.2232	20058.15	19105.35
872.1834	1270.1223	20041.9	19090.05
872.3278	1272.0207	20033.4	19083.85
872.4723	1273.9183	19999.9	19045.2
872.6167	1275.8151	19903	18957.25
872.7611	1277.7113	19820.55	18872.65
872.9055	1279.6067	19695.35	18750.25
873.0499	1281.5014	19587.05	18637.95
873.1943	1283.3953	19541.1	18586.1
873.3386	1285.2885	19506.35	18561.05
873.483	1287.181	19536.95	18590.95
873.6274	1289.0727	19622.75	18679.15
873.7717	1290.9637	19665.25	18720.95
873.9161	1292.854	19836.75	18890.25
874.0604	1294.7435	19918.85	18969.55
874.2047	1296.6323	20122.85	19176.2
874.349	1298.5204	20366.65	19412.6
874.4933	1300.4077	20538.85	19591.7
874.6376	1302.2943	20743.2	19796.05
874.7819	1304.1802	20800.2	19851.6
874.9262	1306.0653	20631.15	19681.45
875.0705	1307.9497	20428	19479.95
875.2147	1309.8333	20292.5	19347.15
875.359	1311.7162	20221.4	19276.35
875.5032	1313.5984	20215.55	19267.7
875.6475	1315.4798	20281.85	19319.35
875.7917	1317.3605	20323.65	19360.45
875.9359	1319.2405	20389.9	19440.5
876.0801	1321.1197	20316.85	19367.3
876.2243	1322.9982	20223.5	19268.95
876.3685	1324.876	20140.95	19194.25
876.5127	1326.753	20035.5	19087
876.6569	1328.6293	20024.75	19077.65
876.801	1330.5048	20027.55	19076.55
876.9452	1332.3796	19988.2	19042.8
877.0893	1334.2537	19921	18950.1
877.2335	1336.127	19869.25	18923.95
877.3776	1337.9996	19825.95	18879.4
877.5217	1339.8714	19779.75	18832.6
877.6658	1341.7426	19740.35	18747.5
877.8099	1343.6129	19686.9	18734.3
877.954	1345.4826	19619.7	18670.2
878.0981	1347.3515	19651.3	18700.5
878.2422	1349.2196	19555.4	18604.65
878.3862	1351.087	19512.5	18562.85
878.5303	1352.9537	19597.1	18646.7
878.6743	1354.8197	19678.8	18729.8
878.8184	1356.6849	19840.85	18889.6
878.9624	1358.5493	19937.7	18991.5
879.1064	1360.4131	19966.5	19019.95
879.2504	1362.276	19861.95	18918.4
879.3944	1364.1383	19725.7	18781.4
879.5384	1365.9998	19491.1	18535.8
879.6823	1367.8606	19147.9	18200.6
879.8263	1369.7206	18858.8	17908.3
879.9702	1371.5799	18628.6	17679.1
880.1142	1373.4384	18456.05	17507.25
880.2581	1375.2962	18326.85	17374.65
880.402	1377.1533	18022.05	17078.75
880.5459	1379.0096	17684.2	16743.6
880.6898	1380.8652	17391.5	16451.1
880.8337	1382.7201	17138.35	16196.05
880.9776	1384.5742	16890.5	15945.15
881.1215	1386.4275	16710.65	15762.95
881.2653	1388.2802	16549	15602.4
881.4092	1390.132	16433.85	15488.7
881.553	1391.9832	16366.8	15421.35
881.6968	1393.8336	16292.85	15345
881.8406	1395.6832	16213.9	15266.1
881.9844	1397.5322	16108.15	15162.7
882.1282	1399.3803	16097.8	15149.05
882.272	1401.2278	16035.25	15092
882.4158	1403.0745	15991.55	15048.65
882.5595	1404.9204	15947.2	15008.1
882.7033	1406.7656	15978.75	15032.55
882.847	1408.6101	15953.55	15008.1
882.9908	1410.4538	15937.6	14989.65
883.1345	1412.2968	15955.05	15010.7
883.2782	1414.139	15982	15038.55
883.4219	1415.9805	16041.75	15099.3
883.5656	1417.8213	16085.05	15130.4
883.7092	1419.6613	16190.15	15247.9
883.8529	1421.5006	16353.55	15411.45
883.9965	1423.3391	16593	15646.35
884.1402	1425.1769	16876.15	15932.2
884.2838	1427.0139	17336.65	16391.4
884.4274	1428.8502	17927.1	16987.1
884.571	1430.6858	18490.15	17547
884.7146	1432.5206	18859.65	17916.05
884.8582	1434.3547	19094.3	18152.1
885.0018	1436.188	19087.75	18145.1
885.1453	1438.0206	19047	18104.35
885.2889	1439.8524	18873.75	17931.65
885.4324	1441.6835	18742.05	17797.05
885.5759	1443.5139	18638.4	17696.05
885.7194	1445.3435	18555.65	17613.2
885.8629	1447.1724	18501.55	17559.45
886.0064	1449.0005	18451	17511.05
886.1499	1450.8279	18275.95	17334.05
886.2933	1452.6545	18288.25	17344.95
886.4368	1454.4804	18275.3	17336.5
886.5802	1456.3056	18266.45	17319.9
886.7237	1458.13	18122.4	17185.65
886.8671	1459.9536	17964.05	17023.2
887.0105	1461.7766	17571.15	16628.95
887.1539	1463.5987	17182.25	16237.05
887.2972	1465.4202	16800.35	15856.6
887.4406	1467.2409	16399.15	15457.5
887.584	1469.0608	16122.25	15180
887.7273	1470.88	15834.8	14890.55
887.8706	1472.6984	15618	14679.55
888.0139	1474.5161	15375.15	14431.55
888.1572	1476.3331	15229.6	14289.55
888.3005	1478.1493	15056.5	14112.75
888.4438	1479.9648	14964.65	14024.65
888.5871	1481.7795	14836.1	13891.3
888.7303	1483.5935	14792.1	13849.25
888.8736	1485.4067	14723.6	13785.8
889.0168	1487.2192	14641.35	13699.6
889.16	1489.031	14631	13688.5
889.3032	1490.842	14546.4	13606.55
889.4464	1492.6522	14520.05	13580.55
889.5896	1494.4618	14445	13503.2
889.7327	1496.2705	14437.45	13497.6
889.8759	1498.0785	14379.45	13437.3
890.019	1499.8858	14331.1	13389.6
890.1622	1501.6924	14302.7	13364.6
890.3053	1503.4981	14260.05	13318.8
890.4484	1505.3032	14218.65	13281.1
890.5914	1507.1075	14159.3	13219.45
890.7345	1508.911	14140.8	13201.2
890.8776	1510.7138	14077.1	13135.9
891.0206	1512.5159	13998.9	13064.55
891.1637	1514.3172	13942.55	13005.2
891.3067	1516.1178	13896.3	12959.75
891.4497	1517.9176	13874.35	12933.15
891.5927	1519.7166	13776.5	12838.9
891.7357	1521.515	13770.7	12824.9
891.8786	1523.3126	13751.65	12814.35
892.0216	1525.1094	13704.5	12766.9
892.1645	1526.9055	13653.5	12720.6
892.3074	1528.7008	13569.25	12632.3
892.4503	1530.4954	13495.05	12559.65
892.5932	1532.2893	13474.25	12543.35
892.7361	1534.0824	13444.8	12509.4
892.879	1535.8747	13422.15	12493.15
893.0218	1537.6663	13349.05	12416.2
893.1647	1539.4572	13333.4	12399.7
893.3075	1541.2473	13346.05	12417.55
893.4503	1543.0367	13283.45	12352.5
893.5931	1544.8253	13263.2	12326.15
893.7359	1546.6132	13258.3	12321.95
893.8787	1548.4003	13228.35	12283.8
894.0214	1550.1867	13225.4	12285.05
894.1642	1551.9723	13221.9	12289.25
894.3069	1553.7572	13252.65	12323.45
894.4496	1555.5414	13288.2	12360.6
894.5923	1557.3247	13323.95	12395.8
894.735	1559.1074	13342.25	12418.6
894.8777	1560.8893	13411.75	12486.8
895.0204	1562.6705	13461.6	12536.15
895.163	1564.4509	13488.05	12567
895.3056	1566.2305	13530.3	12609.05
895.4482	1568.0094	13622.2	12702.55
895.5908	1569.7876	13648.35	12729.65
895.7334	1571.565	13660.55	12736.55
895.876	1573.3417	13662.85	12738
896.0186	1575.1176	13636	12714.15
896.1611	1576.8928	13590.15	12669.95
896.3036	1578.6672	13484.35	12571.9
896.4461	1580.4409	13357.95	12446.05
896.5886	1582.2138	13244.5	12327
896.7311	1583.986	13127.95	12209.85
896.8736	1585.7575	13031.2	12114.75
897.0161	1587.5282	12948.15	12031.3
897.1585	1589.2981	12923.1	12010.55
897.3009	1591.0673	12835	11921.95
897.4433	1592.8358	12868.95	11956.45
897.5857	1594.6035	12860.9	11941.15
897.7281	1596.3704	12837.05	11916.8
897.8705	1598.1366	12841.2	11921.8
898.0128	1599.9021	12902.8	11985.75
898.1551	1601.6668	12912.9	11994.7
898.2975	1603.4308	12956	12032.8
898.4398	1605.194	13043.45	12120.75
898.5821	1606.9564	13112.9	12203.85
898.7243	1608.7182	13274.8	12367.35
898.8666	1610.4791	13377.95	12479.8
899.0088	1612.2394	13514.55	12617.75
899.1511	1613.9988	13661.6	12758.6
899.2933	1615.7576	13885.1	12977.55
899.4355	1617.5156	14110.35	13189
899.5776	1619.2728	14272.05	13352.55
899.7198	1621.0293	14402.85	13485.2
899.862	1622.785	14379.95	13466.7
900.0041	1624.54	14278.05	13368.95
900.1462	1626.2942	14134.6	13226.85
900.2883	1628.0477	13889.35	12980.55
900.4304	1629.8005	13638.05	12725.7
900.5725	1631.5525	13392	12484.75
900.7145	1633.3037	13200.05	12293.9
900.8566	1635.0542	13063.85	12156
900.9986	1636.804	12917.8	12012.15
901.1406	1638.553	12912.65	11920.35
901.2826	1640.3013	12822.65	11910.85
901.4245	1642.0488	12776.35	11867
901.5665	1643.7955	12777.9	11871.95
901.7085	1645.5416	12818.35	11912.7
901.8504	1647.2868	12861.2	11952.85
901.9923	1649.0313	12955.65	12045.25
902.1342	1650.7751	13067.75	12156.35
902.2761	1652.5181	13201.2	12297.15
902.4179	1654.2604	13387.75	12480.6
902.5598	1656.0019	13639.3	12734.55
902.7016	1657.7427	13942.5	13035.25
902.8434	1659.4828	14239.45	13331.4
902.9852	1661.222	14410.3	13497.4
903.127	1662.9606	14400.6	13494
903.2687	1664.6984	14198.3	13286.2
903.4105	1666.4354	13812.5	12897.35
903.5522	1668.1717	13305.25	12392.15
903.6939	1669.9072	12792	11877.1
903.8356	1671.642	12369.25	11451.4
903.9773	1673.3761	12044.55	11134.45
904.119	1675.1094	11724.15	10814.65
904.2606	1676.8419	11509.6	10600.85
904.4022	1678.5737	11330.3	10420.95
904.5439	1680.3048	11168.2	10257.2
904.6855	1682.0351	11020.25	10110.85
904.827	1683.7646	10917.95	10004.55
904.9686	1685.4934	10835.65	9925.65
905.1101	1687.2215	10758.35	9850
905.2517	1688.9488	10689.85	9784.6
905.3932	1690.6754	10598.75	9690.2
905.5347	1692.4012	10552.9	9642.55
905.6761	1694.1263	10507.45	9599.75
905.8176	1695.8506	10495.05	9585.85
905.9591	1697.5742	10422.95	9518.65
906.1005	1699.297	10378.5	9477
906.2419	1701.0191	10306.85	9405.9
906.3833	1702.7404	10264.15	9360.95
906.5246	1704.461	10208.05	9301.3
906.666	1706.1808	10170.65	9262.25
906.8073	1707.8999	10158.15	9256.55
906.9487	1709.6182	10091	9191.25
907.09	1711.3358	10037.2	9137.75
907.2313	1713.0527	10009.75	9113.1
907.3725	1714.7688	9969.2	9064.25
907.5138	1716.4841	9934.85	9033.1
907.655	1718.1987	9935.35	9026.5
907.7962	1719.9126	9859	8960
907.9374	1721.6257	9841.9	8940.85
908.0786	1723.338	9810.35	8913.05
908.2198	1725.0496	9764.1	8862.5
908.3609	1726.7605	9724.65	8818.75
908.502	1728.4706	9703.75	8802.55
908.6431	1730.18	9639.2	8738.55
908.7842	1731.8886	9640.8	8743.65
908.9253	1733.5964	9622.2	8719
909.0664	1735.3036	9566.65	8664.05
909.2074	1737.0099	9564.75	8666.85
909.3484	1738.7156	9525.95	8630.65
909.4894	1740.4204	9468.35	8562.7
909.6304	1742.1246	9459.75	8558.55
909.7714	1743.8279	9427.3	8528.25
909.9123	1745.5306	9406.45	8508.85
910.0532	1747.2325	9370.9	8475.65
910.1941	1748.9336	9335.35	8435.65
910.335	1750.634	9298.05	8393.75
910.4759	1752.3336	9257.15	8359.15
910.6168	1754.0325	9267.1	8372.25
910.7576	1755.7307	9226	8331.4
910.8984	1757.4281	9224.8	8326.4
911.0392	1759.1247	9240.5	8329.9
911.18	1760.8206	9190.75	8281.15
911.3208	1762.5158	9174.65	8266.95
911.4615	1764.2102	9111.55	8211.3
911.6022	1765.9039	9107.25	8208.2
911.7429	1767.5968	9065.3	8173.25
911.8836	1769.289	9033.35	8139.3
912.0243	1770.9804	9018.2	8117.05
912.1649	1772.6711	9019.35	8114.3
912.3056	1774.361	8973.15	8067.7
912.4462	1776.0502	8970.85	8067
912.5868	1777.7386	8925.7	8022.2
912.7274	1779.4263	8923.75	8025.35
912.8679	1781.1132	8914.2	8019.75
913.0084	1782.7994	8885.15	7991.25
913.149	1784.4849	8841.3	7948.65
913.2895	1786.1696	8822.55	7920.95
913.4299	1787.8535	8798.45	7903.55
913.5704	1789.5367	8775.55	7883.65
913.7108	1791.2192	8789.9	7896.25
913.8513	1792.9009	8740.1	7814.95
913.9917	1794.5818	8727.4	7826.35
914.132	1796.2621	8709.4	7812.65
914.2724	1797.9415	8674.55	7776.25
914.4128	1799.6202	8641.25	7743.25
914.5531	1801.2982	8623.65	7723.9
914.6934	1802.9755	8605.65	7703.4
914.8337	1804.6519	8599.35	7699.45
914.9739	1806.3277	8571.95	7676.85
915.1142	1808.0027	8519.45	7628.7
915.2544	1809.6769	8531.3	7639.3
915.3946	1811.3504	8499.75	7607.75
915.5348	1813.0231	8470.95	7578.5
915.675	1814.6951	8457.6	7563.15
915.8151	1816.3664	8451.65	7554.5
915.9553	1818.0369	8429.1	7530.75
916.0954	1819.7067	8386.35	7489.45
916.2355	1821.3757	8375.65	7476.45
916.3755	1823.044	8378.6	7479.1
916.5156	1824.7115	8366.7	7467.9
916.6556	1826.3783	8321.7	7424.15
916.7956	1828.0443	8283.3	7387.75
916.9356	1829.7096	8262.15	7364.05
917.0756	1831.3741	8280.65	7382.1
917.2155	1833.0379	8242.2	7350.25
917.3555	1834.701	8237.3	7343.45
917.4954	1836.3633	8214.75	7321.85
917.6353	1838.0248	8192.8	7298.25
917.7751	1839.6856	8152.75	7256.75
917.915	1841.3457	8153.1	7255.15
918.0548	1843.005	8136.05	7239.1
918.1946	1844.6636	8115.95	7219.3
918.3344	1846.3214	8088.3	7192.3
918.4742	1847.9785	8085.95	7191.35
918.6139	1849.6349	8072.6	7174.5
918.7537	1851.2904	8066.6	7156.5
918.8934	1852.9453	8033	7132.9
919.0331	1854.5994	8013.9	7111.45
919.1727	1856.2528	8021.4	7119.9
919.3124	1857.9054	7971.85	7075.6
919.452	1859.5572	7982.8	7087
919.5916	1861.2083	7951.35	7054.2
919.7312	1862.8587	7960	7061.85
919.8708	1864.5084	7934.8	7034.95
920.0103	1866.1572	7892.15	6993.05
920.1498	1867.8054	7867.65	6964.8
920.2893	1869.4528	7864.75	6966.55
920.4288	1871.0994	7846.35	6945.85
920.5683	1872.7453	7833.95	6936.05
920.7077	1874.3905	7820.9	6904.9
920.8471	1876.0349	7787.8	6887.5
920.9865	1877.6786	7794.75	6894
921.1259	1879.3215	7760.25	6863.1
921.2653	1880.9637	7722	6822.65
921.4046	1882.6051	7716.65	6821.45
921.5439	1884.2458	7709.5	6813.25
921.6832	1885.8858	7672	6773.05
921.8225	1887.525	7653.15	6755.65
921.9617	1889.1634	7612.25	6715.35
922.101	1890.8011	7597.95	6697.7
922.2402	1892.4381	7598.15	6701.85
922.3794	1894.0743	7582.1	6684.75
922.5185	1895.7098	7564.6	6666.9
922.6577	1897.3446	7552.15	6655.5
922.7968	1898.9786	7514.7	6616.5
922.9359	1900.6118	7499.7	6604.3
923.075	1902.2443	7477	6581.3
923.214	1903.8761	7464.75	6569.05
923.3531	1905.5071	7427.5	6530.7
923.4921	1907.1374	7396.6	6500.8
923.6311	1908.7669	7395.75	6502.15
923.77	1910.3957	7370.5	6474
923.909	1912.0237	7339.5	6443.1
924.0479	1913.651	7333.8	6435.55
924.1868	1915.2776	7329.15	6434.75
924.3257	1916.9034	7286.45	6390.9
924.4646	1918.5285	7250.15	6356.3
924.6034	1920.1528	7218.75	6322.7
924.7422	1921.7764	7217.45	6322.6
924.881	1923.3992	7190.7	6293.9
925.0198	1925.0213	7144.7	6248.4
925.1586	1926.6427	7116.8	6219.95
925.2973	1928.2633	7184.6	6189.25
925.436	1929.8832	7096.45	6197.75
925.5747	1931.5023	7072.15	6177.5
925.7134	1933.1207	7056.3	6160.75
925.852	1934.7383	7029.65	6133.15
925.9906	1936.3552	6988.65	6093.65
926.1292	1937.9714	6981.5	6086.4
926.2678	1939.5868	6970.45	6072
926.4064	1941.2015	6932.2	6036.6
926.5449	1942.8154	6896.4	5998.4
926.6834	1944.4286	6883.25	5983.45
926.8219	1946.041	6871.75	5952.2
926.9604	1947.6528	6824.65	5925.75
927.0988	1949.2637	6802.6	5906.85
927.2372	1950.8739	6771.55	5877.6
927.3756	1952.4834	6762.35	5867.15
927.514	1954.0921	6766.25	5873.35
927.6523	1955.7001	6735.2	5838.65
927.7907	1957.3074	6716	5825.6
927.929	1958.9139	6685.5	5795.6
928.0673	1960.5197	6665.9	5773.1
928.2055	1962.1247	6641.45	5750.05
928.3438	1963.729	6597	5707.85
928.482	1965.3325	6573.45	5679.3
928.6202	1966.9353	6565.95	5678.8
928.7584	1968.5374	6563	5671.9
928.8965	1970.1387	6529.45	5637.95
929.0346	1971.7393	6505.65	5615.5
929.1727	1973.3392	6472.35	5581.35
929.3108	1974.9383	6438.9	5550.15
929.4489	1976.5366	6442.8	5555.6
929.5869	1978.1342	6425.55	5538.1
929.7249	1979.7311	6401.3	5511.45
929.8629	1981.3273	6391.15	5502.55
930.0009	1982.9227	6358.1	5470
930.1388	1984.5173	6345.55	5459.1
930.2767	1986.1112	6322.4	5436.05
930.4146	1987.7044	6302.35	5414.45
930.5525	1989.2968	6287.05	5399.2
930.6904	1990.8885	6286.4	5397.45
930.8282	1992.4795	6260.65	5375.2
930.966	1994.0697	6240.55	5358.2
931.1038	1995.6592	6223.75	5337.15
931.2415	1997.2479	6209.35	5321.95
931.3793	1998.8359	6197.75	5312.15
931.517	2000.4232	6159.95	5276.7
931.6547	2002.0097	6144.65	5265.45
931.7923	2003.5955	6113.15	5230.75
931.93	2005.1805	6119.3	5236.1
932.0676	2006.7648	6099.75	5215.5
932.2052	2008.3484	6086.3	5202.6
932.3427	2009.9312	6075.25	5193.85
932.4803	2011.5133	6050.3	5172.35
932.6178	2013.0946	6049.05	5168.5
932.7553	2014.6752	6029.1	5146.8
932.8928	2016.2551	6014.95	5130.85
933.0302	2017.8342	5975.15	5091.45
933.1676	2019.4126	5965.1	5083.2
933.305	2020.9902	5940.5	5059.35
933.4424	2022.5672	5915.45	5032.65
933.5798	2024.1433	5927.45	5042.3
933.7171	2025.7188	5910.35	5031.9
933.8544	2027.2935	5878.1	4996.5
933.9917	2028.8674	5857.1	4978.65
934.129	2030.4406	5846.5	4968.05
934.2662	2032.0131	5829.5	4953.85
934.4034	2033.5849	5810.35	4927.45
934.5406	2035.1559	5806.45	4926.75
934.6778	2036.7261	5797.05	4916.75
934.8149	2038.2957	5771.75	4887.25
934.952	2039.8645	5754.85	4867.55
935.0891	2041.4325	5777.2	4890.3
935.2262	2042.9998	5745.75	4863.6
935.3632	2044.5664	5743.4	4862.6
935.5002	2046.1323	5716.45	4833.8
935.6372	2047.6974	5697.85	4819.45
935.7742	2049.2617	5680.35	4801.3
935.9111	2050.8254	5686.45	4800.35
936.048	2052.3883	5656.25	4770.7
936.1849	2053.9504	5647.3	4761.9
936.3218	2055.5118	5636.1	4749.8
936.4586	2057.0725	5621.25	4733.6
936.5955	2058.6325	5594.35	4710.8
936.7323	2060.1917	5570.45	4689.05
936.869	2061.7502	5563.5	4678.2
937.0058	2063.3079	5551.45	4672.55
937.1425	2064.8649	5515.65	4633.4
937.2792	2066.4212	5521.1	4638.9
937.4159	2067.9767	5507.5	4625.2
937.5525	2069.5315	5486.25	4601.75
937.6891	2071.0856	5464.85	4584.5
937.8257	2072.6389	5448.5	4567.05
937.9623	2074.1915	5443.5	4563.9
938.0989	2075.7433	5397.55	4513.2
938.2354	2077.2945	5398.4	4516.4
938.3719	2078.8448	5375.1	4489.4
938.5084	2080.3945	5349.2	4465.7
938.6448	2081.9434	5346.05	4460.85
938.7812	2083.4916	5329.95	4442.65
938.9176	2085.039	5320.1	4425.15
939.054	2086.5857	5309.7	4414.6
939.1903	2088.1317	5302.05	4407.75
939.3267	2089.677	5299.35	4405.15
939.463	2091.2215	5279.65	4386.65
939.5992	2092.7652	5254.85	4361.2
939.7355	2094.3083	5233.75	4339.9
939.8717	2095.8506	5238.45	4350.9
940.0079	2097.3921	5219	4333.45
940.1441	2098.933	5226.7	4337.55
940.2802	2100.4731	5196.8	4307.75
940.4163	2102.0124	5220.95	4312.65
940.5524	2103.5511	5191.1	4302.45
940.6885	2105.089	5178.85	4290.1
940.8245	2106.6261	5151.45	4262.7
940.9606	2108.1626	5158.15	4269.75
941.0965	2109.6983	5161.45	4247.4
941.2325	2111.2332	5130.45	4239.4
941.3684	2112.7675	5121.15	4230.85
941.5044	2114.301	5113.55	4224.1
941.6403	2115.8337	5095.55	4207.3
941.7761	2117.3657	5079.4	4192.7
941.912	2118.897	5074.25	4182.95
942.0478	2120.4276	5074.5	4177.9
942.1835	2121.9575	5052.65	4163.2
942.3193	2123.4866	5061.3	4159.35
942.455	2125.0149	5020	4127.1
942.5907	2126.5426	4988.55	4103.55
942.7264	2128.0695	4992.5	4104.95
942.8621	2129.5956	4987.85	4107.2
942.9977	2131.1211	4970.5	4085.85
943.1333	2132.6458	4965.5	4078.25
943.2689	2134.1698	4938.05	4048.1
943.4044	2135.693	4947.7	4054
943.54	2137.2155	4935.9	4040.05
943.6755	2138.7373	4916.75	4028.4
943.8109	2140.2584	4889.65	4005.25
943.9464	2141.7787	4888.15	4000.1
944.0818	2143.2983	4870.1	3988.1
944.2172	2144.8171	4833.55	3952.85
944.3526	2146.3353	4835.1	3949.45
944.4879	2147.8527	4825.1	3942.35
944.6232	2149.3693	4822.9	3934.35
944.7585	2150.8853	4800.7	3910.2
944.8938	2152.4005	4789.05	3897.1
945.029	2153.9149	4783.9	3890
945.1642	2155.4287	4786.35	3896.1
945.2994	2156.9417	4773	3883.55
945.4346	2158.454	4763.45	3877
945.5697	2159.9655	4723.55	3837.4
945.7048	2161.4764	4725.1	3839.4
945.8399	2162.9865	4715.65	3830.65
945.9749	2164.4958	4718.5	3833
946.1099	2166.0045	4696.25	3807.3
946.2449	2167.5124	4675.15	3788.65
946.3799	2169.0195	4665.05	3777.4
946.5148	2170.526	4670.7	3780.75
946.6498	2172.0317	4654.15	3768.6
946.7846	2173.5367	4636.4	3749.1
946.9195	2175.0409	4626.25	3738.9
947.0543	2176.5445	4629.5	3741.3
947.1891	2178.0473	4621.85	3728.4
947.3239	2179.5494	4577.75	3685.5
947.4587	2181.0507	4581.05	3692.3
947.5934	2182.5513	4563.85	3676.4
947.7281	2184.0512	4554.4	3663.45
947.8628	2185.5504	4537.5	3651
947.9974	2187.0488	4517.95	3633.1
948.132	2188.5465	4504.85	3620.35
948.2666	2190.0435	4496.05	3607.7
948.4012	2191.5397	4487.95	3596.75
948.5357	2193.0353	4470.25	3577.75
948.6702	2194.5301	4464.8	3571.3
948.8047	2196.0241	4441.5	3544.55
948.9392	2197.5175	4447.55	3551.75
949.0736	2199.0101	4425.35	3528.25
949.208	2200.502	4403.75	3515.05
949.3424	2201.9931	4378.25	3491.95
949.4767	2203.4835	4369.4	3483.35
949.611	2204.9733	4377.4	3486.5
949.7453	2206.4622	4357.25	3471.8
949.8796	2207.9505	4342.95	3454.85
950.0138	2209.438	4326.5	3444.6
950.148	2210.9248	4311.05	3428.5
950.2822	2212.4109	4308.55	3420.55
950.4164	2213.8962	4280.6	3389.9
950.5505	2215.3809	4278.95	3384
950.6846	2216.8648	4273.3	3379
950.8186	2218.3479	4267.75	3367.15
950.9527	2219.8304	4262.75	3363.85
951.0867	2221.3121	4244.6	3346.1
951.2207	2222.7931	4231.9	3340.9
951.3546	2224.2733	4211.05	3318.4
951.4886	2225.7529	4214.05	3324.85
951.6225	2227.2317	4184	3292.1
951.7563	2228.7098	4192.2	3306.3
951.8902	2230.1872	4162.1	3276.1
952.024	2231.6638	4174.55	3290.2
952.1578	2233.1397	4144.7	3255.75
952.2916	2234.6149	4137.85	3253.85
952.4253	2236.0894	4115.95	3229.7
952.559	2237.5632	4127.75	3231.9
952.6927	2239.0362	4104.25	3216.45
952.8263	2240.5085	4092.8	3206.05
952.9599	2241.9801	4071.1	3179.2
953.0935	2243.4509	4085.55	3194.1
953.2271	2244.921	4074.15	3179.4
953.3606	2246.3904	4040.75	3146.55
953.4941	2247.8591	4030.7	3139.65
953.6276	2249.3271	4017.95	3126.3
953.7611	2250.7943	4018.05	3125.9
953.8945	2252.2608	4003.95	3110.8
954.0279	2253.7266	3991.2	3100.15
954.1612	2255.1917	3980.6	3091
954.2946	2256.656	3979	3089.55
954.4279	2258.1197	3964.75	3079.25
954.5612	2259.5826	3952.15	3064.05
954.6944	2261.0447	3947.15	3056.6
954.8276	2262.5062	3938.3	3045.9
954.9608	2263.9669	3931.2	3036.75
955.094	2265.4269	3917.9	3028.7
955.2271	2266.8862	3918.2	3026.15
955.3602	2268.3448	3907.75	3018.1
955.4933	2269.8026	3915.95	3030.1
955.6264	2271.2598	3885.1	2999.3
955.7594	2272.7162	3852	2965.35
955.8924	2274.1719	3864.15	2970.35
956.0253	2275.6268	3859.4	2966.4
956.1583	2277.0811	3857.8	2963.55
956.2912	2278.5346	3835.9	2946.05
956.4241	2279.9874	3825.2	2941.2
956.5569	2281.4395	3822.5	2935.8
956.6897	2282.8908	3817.85	2926.65
956.8225	2284.3414	3804.8	2915.7
956.9553	2285.7914	3804.2	2914.35
957.088	2287.2406	3788.3	2893.5
957.2207	2288.689	3788.5	2894.6
957.3534	2290.1368	3790.15	2890.9
957.486	2291.5838	3768.15	2868.35
957.6186	2293.0302	3773.95	2876.85
957.7512	2294.4758	3744.8	2848.8
957.8838	2295.9206	3741	2848.7
958.0163	2297.3648	3722.85	2832.95
958.1488	2298.8082	3709.35	2818.15
958.2813	2300.251	3706.5	2815.6
958.4137	2301.693	3700.4	2804.1
958.5461	2303.1343	3709.85	2816.1
958.6785	2304.5748	3685.9	2798.2
958.8108	2306.0147	3679.9	2791.3
958.9432	2307.4538	3660.9	2773
959.0754	2308.8922	3644.05	2761.75
959.2077	2310.3299	3643.05	2756.1
959.3399	2311.7669	3632.7	2746
959.4721	2313.2031	3615.2	2725.25
959.6043	2314.6387	3602.2	2713.35
959.7365	2316.0735	3599.25	2712.55
959.8686	2317.5076	3594.35	2703.25
960.0006	2318.941	3584.1	2690.5
960.1327	2320.3737	3592.45	2696.05
960.2647	2321.8056	3574.9	2679.1
960.3967	2323.2369	3557	2663.95
960.5287	2324.6674	3542.65	2650.4
960.6606	2326.0972	3538	2645.7
960.7925	2327.5263	3540.05	2651.25
960.9244	2328.9547	3537.95	2646.4
961.0562	2330.3823	3531.05	2637.85
961.1881	2331.8092	3534.05	2635.9
961.3198	2333.2355	3520.8	2625.55
961.4516	2334.661	3505.75	2612.8
961.5833	2336.0858	3503.8	2607.9
961.715	2337.5098	3493.95	2601.6
961.8467	2338.9332	3490.35	2598.75
961.9783	2340.3558	3478.55	2587.25
962.1099	2341.7778	3474.35	2588.7
962.2415	2343.199	3457.1	2566.75
962.373	2344.6195	3450.4	2560.9
962.5045	2346.0393	3441.4	2552.9
962.636	2347.4583	3447.8	2556.6
962.7675	2348.8767	3431.1	2538.95
962.8989	2350.2943	3433.4	2539.25
963.0303	2351.7113	3420.35	2526.2
963.1617	2353.1275	3406.75	2514.4
963.293	2354.543	3401	2498.4
963.4243	2355.9578	3383	2489.95
963.5556	2357.3718	3366.9	2478.6
963.6868	2358.7852	3360.7	2473.6
963.818	2360.1978	3356.3	2469.5
963.9492	2361.6098	3359.4	2470.55
964.0803	2363.021	3351	2458.4
964.2114	2364.4315	3345.25	2454
964.3425	2365.8413	3329.8	2439.4
964.4736	2367.2504	3316.5	2429.9
964.6046	2368.6587	3312.75	2427.15
964.7356	2370.0664	3298.85	2409.1
964.8666	2371.4733	3280.55	2394.25
964.9975	2372.8795	3281.75	2394.45
965.1284	2374.285	3263.2	2373.9
965.2593	2375.6899	3264.15	2378.2
965.3901	2377.0939	3247.55	2362.3
965.5209	2378.4973	3232.35	2347.3
965.6517	2379.9	3237.3	2348.9
965.7825	2381.3019	3229.05	2342.7
965.9132	2382.7032	3202.35	2319
966.0439	2384.1037	3210.95	2328.6
966.1745	2385.5035	3191.9	2306.65
966.3051	2386.9027	3178.65	2294.4
966.4357	2388.3011	3187.05	2299.1
966.5663	2389.6987	3185.5	2302.5
966.6968	2391.0957	3181	2297.4
966.8273	2392.492	3160.9	2277.6
966.9578	2393.8876	3142.3	2257.9
967.0882	2395.2824	3128.4	2243.95
967.2186	2396.6765	3133.75	2248.75
967.349	2398.07	3110.9	2226.35
967.4793	2399.4627	3113.7	2226.4
967.6097	2400.8547	3111.9	2224.05
967.7399	2402.246	3101.25	2209.3
967.8702	2403.6366	3074.25	2187.8
968.0004	2405.0265	3073.05	2187.45
968.1306	2406.4156	3074.45	2186.85
968.2607	2407.8041	3068.6	2182.85
968.3909	2409.1918	3045.6	2159.55
968.521	2410.5789	3045.95	2160.95
968.651	2411.9652	3040.5	2151
968.781	2413.3508	3031.7	2146.6
968.911	2414.7358	3021.3	2136.5
969.041	2416.12	3011.05	2125.25
969.1709	2417.5035	3018.5	2134.05
969.3008	2418.8863	3003.45	2117.3
969.4307	2420.2684	2982.7	2100.1
969.5606	2421.6497	2973.25	2086.6
969.6904	2423.0304	2975.75	2090.95
969.8201	2424.4104	2962.85	2074.7
969.9499	2425.7896	2957.4	2068.85
970.0796	2427.1682	2962.5	2075.5
970.2093	2428.546	2946.5	2060.85
970.3389	2429.9232	2932.7	2045.6
970.4685	2431.2996	2939.3	2054.35
970.5981	2432.6753	2931.7	2045.1
970.7277	2434.0503	2933.25	2045.9
970.8572	2435.4246	2907.35	2020.95
970.9867	2436.7982	2897.2	2008.5
971.1161	2438.1711	2889.05	2003.15
971.2456	2439.5433	2882.7	1994.6
971.375	2440.9148	2894.4	2000.1
971.5043	2442.2856	2882.95	1997.3
971.6336	2443.6557	2863.4	1975.65
971.7629	2445.025	2853	1966.95
971.8922	2446.3937	2856	1967.45
972.0214	2447.7617	2848.65	1958.15
972.1506	2449.1289	2859.85	1973.75
972.2798	2450.4955	2841.15	1951.85
972.4089	2451.8613	2838.6	1951.25
972.538	2453.2265	2831.6	1944.65
972.6671	2454.5909	2824.5	1934.4
972.7961	2455.9546	2828.45	1940.55
972.9251	2457.3177	2812.2	1926
973.0541	2458.68	2807.9	1920.95
973.1831	2460.0416	2806.3	1917.85
973.312	2461.4025	2794.1	1908.05
973.4408	2462.7627	2806.15	1907.8
973.5697	2464.1222	2794.35	1912.5
973.6985	2465.4811	2771.35	1885.55
973.8273	2466.8392	2780.85	1895.75
973.956	2468.1966	2767.05	1878.85
974.0847	2469.5533	2776.65	1888.5
974.2134	2470.9093	2759.4	1873.3
974.3421	2472.2645	2753.4	1865.65
974.4707	2473.6191	2742.35	1856.15
974.5993	2474.973	2749.8	1865.15
974.7278	2476.3262	2753.85	1865.7
974.8563	2477.6787	2719	1832.95
974.9848	2479.0305	2720.9	1835.85
975.1132	2480.3816	2717.85	1829.5
975.2417	2481.7319	2712.4	1825.65
975.37	2483.0816	2692.8	1804.35
975.4984	2484.4306	2684.7	1799.95
975.6267	2485.7789	2687.95	1804.1
975.755	2487.1264	2670.8	1783.2
975.8833	2488.4733	2670.05	1785.15
976.0115	2489.8195	2675.75	1774.25
976.1397	2491.165	2647.8	1756.15
976.2678	2492.5097	2661.65	1773.45
976.3959	2493.8538	2648.95	1761.55
976.524	2495.1972	2633.6	1745.8
976.6521	2496.5398	2625.6	1737.8
976.7801	2497.8818	2620.1	1729.15
976.9081	2499.2231	2623.9	1733.2
977.036	2500.5637	2611.1	1719.9
977.164	2501.9035	2607.55	1719.8
977.2918	2503.2427	2607.1	1715.05
977.4197	2504.5812	2591	1700.9
977.5475	2505.919	2602.2	1711.85
977.6753	2507.256	2584.05	1695.3
977.8031	2508.5924	2580.8	1692.8
977.9308	2509.9281	2572.75	1678.65
978.0585	2511.2631	2569.8	1682.25
978.1861	2512.5974	2554	1667.4
978.3137	2513.9309	2561.8	1673.7
978.4413	2515.2638	2580.25	1664.75
978.5689	2516.596	2548.9	1662.45
978.6964	2517.9275	2543.25	1654.1
978.8239	2519.2583	2536.45	1647.45
978.9513	2520.5884	2517.75	1627.35
979.0788	2521.9178	2516.35	1630.55
979.2062	2523.2465	2508.65	1621.65
979.3335	2524.5745	2499.7	1613.15
979.4608	2525.9018	2499.1	1611.45
979.5881	2527.2284	2502.65	1615.55
979.7154	2528.5543	2495.7	1608.7
979.8426	2529.8796	2488.05	1600.05
979.9698	2531.2041	2489.5	1601.25
980.0969	2532.5279	2478.5	1593.85
980.224	2533.851	2473.4	1587.5
980.3511	2535.1735	2477.75	1587.75
980.4781	2536.4952	2461	1571.6
980.6052	2537.8163	2474.2	1584.8
980.7321	2539.1366	2467.35	1580.55
980.8591	2540.4562	2451.9	1562.6
980.986	2541.7752	2452.4	1562.7
981.1129	2543.0935	2452.5	1563.2
981.2397	2544.411	2445.35	1555.1
981.3665	2545.7279	2448.8	1563.1
981.4933	2547.0441	2453.7	1565.15
981.62	2548.3596	2435.5	1544.1
981.7467	2549.6744	2433	1546.3
981.8734	2550.9885	2430.35	1531.3
982.0001	2552.3019	2408.5	1517.95
982.1267	2553.6146	2408.95	1520.3
982.2532	2554.9266	2401.5	1512.6
982.3798	2556.2379	2405.6	1517.85
982.5063	2557.5485	2395.75	1508.6
982.6327	2558.8585	2403.1	1506.15
982.7592	2560.1677	2396	1503.6
982.8856	2561.4762	2397.9	1508.25
983.0119	2562.7841	2385	1491.6
983.1383	2564.0913	2381.3	1493.3
983.2646	2565.3977	2378.55	1490.3
983.3908	2566.7035	2387	1497.3
983.517	2568.0086	2365.2	1473.35
983.6432	2569.313	2377.5	1487.7
983.7694	2570.6167	2381.5	1491.55
983.8955	2571.9197	2364.65	1475.2
984.0216	2573.222	2357.8	1468.15
984.1476	2574.5236	2351.45	1461.95
984.2737	2575.8246	2348.2	1457.2
984.3996	2577.1248	2356.45	1465.9
984.5256	2578.4244	2349.6	1461.2
984.6515	2579.7232	2354.35	1467.15
984.7774	2581.0214	2373.3	1458.05
984.9032	2582.3189	2328.15	1440.4
985.029	2583.6157	2348.9	1457.4
985.1548	2584.9118	2334.6	1445.35
985.2806	2586.2072	2335.4	1444.3
985.4063	2587.5019	2332.85	1443.15
985.5319	2588.7959	2336.25	1446.4
985.6576	2590.0893	2324.55	1433.35
985.7832	2591.3819	2328.1	1438.3
985.9087	2592.6739	2321.9	1432.9
986.0343	2593.9652	2315.65	1426.1
986.1597	2595.2557	2320.4	1432.85
986.2852	2596.5456	2323.8	1432.55
986.4106	2597.8348	2316.45	1425.8
986.536	2599.1234	2305.1	1418.7
986.6614	2600.4112	2309.15	1421
986.7867	2601.6983	2307.8	1416.25
986.912	2602.9848	2280.45	1390.85
987.0372	2604.2705	2295.6	1402.4
987.1624	2605.5556	2294.8	1406.25
987.2876	2606.84	2276.55	1388.85
987.4128	2608.1237	2274.5	1385.5
987.5379	2609.4067	2265.95	1378.1
987.6629	2610.689	2271.3	1372.5
987.788	2611.9707	2267.3	1373.8
987.913	2613.2516	2253.75	1359.7
988.0379	2614.5319	2245.35	1357.55
988.1629	2615.8115	2244.15	1357
988.2878	2617.0903	2237.65	1347.3
988.4126	2618.3685	2234.1	1346.75
988.5375	2619.6461	2218.9	1329.5
988.6622	2620.9229	2223.05	1334.45
988.787	2622.199	2225.85	1335.15
988.9117	2623.4745	2224.6	1334.55
989.0364	2624.7493	2214.95	1327.9
989.161	2626.0234	2215.8	1328.45
989.2857	2627.2968	2201.65	1313.95
989.4102	2628.5695	2191.75	1301.85
989.5348	2629.8415	2198.8	1310.35
989.6593	2631.1128	2197.9	1307.95
989.7837	2632.3835	2197.75	1308.5
989.9082	2633.6535	2185.75	1296.1
990.0326	2634.9228	2186.4	1300.55
990.1569	2636.1914	2171.5	1284.05
990.2812	2637.4593	2171.9	1282.9
990.4055	2638.7265	2175.9	1286
990.5298	2639.9931	2176.45	1287.35
990.654	2641.259	2173.05	1283.5
990.7782	2642.5242	2164.05	1274.1
990.9023	2643.7887	2158	1270.25
991.0264	2645.0525	2148.95	1259.85
991.1505	2646.3156	2136.95	1249
991.2745	2647.5781	2138.25	1250.35
991.3985	2648.8398	2145.25	1257.6
991.5225	2650.1009	2141.8	1245.75
991.6464	2651.3613	2135.4	1247.65
991.7703	2652.6211	2114.1	1224.05
991.8942	2653.8801	2120.8	1235.95
992.018	2655.1385	2127.2	1235.5
992.1418	2656.3961	2121	1231.85
992.2655	2657.6531	2116.7	1228.5
992.3892	2658.9094	2114.7	1227.05
992.5129	2660.1651	2101.6	1216
992.6366	2661.42	2105.6	1218.25
992.7602	2662.6743	2109.55	1221.8
992.8837	2663.9279	2111.55	1224.35
993.0073	2665.1808	2104.75	1216.25
993.1307	2666.433	2113.3	1226.9
993.2542	2667.6846	2106.7	1217.9
993.3776	2668.9354	2106.95	1217.65
993.501	2670.1856	2094.4	1205.35
993.6244	2671.4351	2106.15	1221.65
993.7477	2672.6839	2104.05	1215.35
993.8709	2673.9321	2098.6	1211
993.9942	2675.1795	2089.85	1201.6
994.1174	2676.4263	2092.7	1204.5
994.2405	2677.6724	2096.2	1207.8
994.3637	2678.9179	2091.75	1202.8
994.4868	2680.1626	2088.25	1200
994.6098	2681.4067	2088.85	1199.75
994.7328	2682.6501	2087.5	1201.45
994.8558	2683.8928	2085.2	1197.9
994.9788	2685.1348	2074	1185.2
995.1017	2686.3761	2061.05	1173.6
995.2245	2687.6168	2066	1178.65
995.3474	2688.8568	2059.6	1173.9
995.4702	2690.0961	2053.7	1167.05
995.5929	2691.3348	2052.85	1165.45
995.7156	2692.5727	2044.6	1155.7
995.8383	2693.81	2050.05	1163.4
995.961	2695.0466	2039.7	1153.2
996.0836	2696.2826	2037.15	1148.3
996.2062	2697.5178	2046.7	1152.85
996.3287	2698.7524	2030.5	1144
996.4512	2699.9863	2028.4	1138.1
996.5737	2701.2195	2023.65	1138.2
996.6961	2702.452	2023.7	1133.05
996.8185	2703.6839	2028.4	1142
996.9408	2704.9151	2022.6	1137.4
997.0631	2706.1456	2031.3	1143.15
997.1854	2707.3755	2038.7	1151.75
997.3077	2708.6046	2035.9	1144.45
997.4299	2709.8331	2042.1	1154.3
997.552	2711.0609	2051.4	1164.8
997.6742	2712.2881	2050.6	1161.45
997.7963	2713.5145	2055.55	1165.5
997.9183	2714.7403	2065.4	1178.2
998.0403	2715.9654	2078.25	1190.45
998.1623	2717.1899	2094.95	1193.35
998.2842	2718.4136	2096.75	1211.2
998.4062	2719.6367	2102.6	1215.35
998.528	2720.8591	2115.8	1223.55
998.6498	2722.0809	2117.7	1230.3
998.7716	2723.3019	2118.1	1227.5
998.8934	2724.5223	2140.55	1252.3
999.0151	2725.7421	2130.55	1242.7
999.1368	2726.9611	2134.25	1246.95
999.2584	2728.1795	2137	1246.4
999.38	2729.3972	2115.5	1229.75
999.5016	2730.6142	2111.75	1211.35
999.6231	2731.8306	2088.1	1200.45
999.7446	2733.0462	2073.6	1186.4
999.8661	2734.2612	2055	1163.2
999.9875	2735.4756	2040.55	1154.1
1000.1089	2736.6892	2005.2	1118.05
1000.2302	2737.9022	1987.3	1100.8
1000.3515	2739.1145	1988	1099.85
1000.4728	2740.3262	1969.75	1075.15
1000.594	2741.5372	1951.15	1065.25
1000.7152	2742.7475	1943.95	1056.5
1000.8363	2743.9571	1922.65	1032.85
1000.9575	2745.1661	1924.15	1033.6
1001.0785	2746.3744	1904.45	1016.4
1001.1996	2747.582	1898.2	1011
1001.3206	2748.7889	1894.2	1006.3
1001.4415	2749.9952	1883.9	996.55
1001.5625	2751.2008	1871.25	983.85
1001.6833	2752.4057	1866.75	977.75
1001.8042	2753.61	1864.45	977.65
1001.925	2754.8136	1858.7	969
1002.0458	2756.0165	1848.9	961.25
1002.1665	2757.2188	1848.05	962.65
1002.2872	2758.4204	1848.5	961.45
1002.4078	2759.6213	1843.5	953.9
1002.5285	2760.8215	1850.6	961.8
1002.649	2762.0211	1850.65	961.2
1002.7696	2763.22	1833.15	942.15
1002.8901	2764.4182	1822.2	933.1
1003.0106	2765.6158	1822.7	936.45
1003.131	2766.8127	1818.05	930.95
1003.2514	2768.009	1816.45	932.55
1003.3717	2769.2045	1817.25	930.7
1003.492	2770.3994	1806.9	919.3
1003.6123	2771.5936	1803.8	915.8
1003.7325	2772.7872	1795.95	911.8
1003.8527	2773.9801	1791.3	903.95
1003.9729	2775.1723	1802.85	898.45
1004.093	2776.3639	1793.4	907.9
1004.2131	2777.5548	1796.3	907.9
1004.3331	2778.745	1792	904.45
1004.4531	2779.9346	1788.15	902.55
1004.5731	2781.1235	1791.15	904.3
1004.693	2782.3117	1782.1	897.55
1004.8129	2783.4992	1800.75	915.8
1004.9328	2784.6861	1793.65	908.95
1005.0526	2785.8723	1797.8	910.95
1005.1723	2787.0579	1798.95	912.8
1005.2921	2788.2428	1806.25	923.25
1005.4118	2789.427	1812.65	927.85
1005.5314	2790.6106	1823.4	937.95
1005.651	2791.7935	1830	944.35
1005.7706	2792.9757	1830.65	948.2
1005.8902	2794.1573	1845.3	959.1
1006.0097	2795.3382	1859.7	973.75
1006.1291	2796.5184	1867.35	983.1
1006.2485	2797.698	1881.15	996.05
1006.3679	2798.8769	1897.45	1012.9
1006.4873	2800.0551	1907.3	1024.8
1006.6066	2801.2327	1925.65	1038.95
1006.7258	2802.4096	1933.05	1047.4
1006.8451	2803.5859	1953.5	1068
1006.9642	2804.7615	1971.85	1086.3
1007.0834	2805.9364	1994.55	1111.35
1007.2025	2807.1106	2021.15	1136.3
1007.3216	2808.2842	2046.3	1161.95
1007.4406	2809.4572	2077.4	1190.35
1007.5596	2810.6294	2113.65	1228.15
1007.6785	2811.801	2148.75	1264.55
1007.7975	2812.972	2189	1306.4
1007.9163	2814.1423	2243.3	1358.4
1008.0352	2815.3119	2267.9	1381.4
1008.154	2816.4808	2319.75	1435.45
1008.2727	2817.6491	2380.95	1496
1008.3914	2818.8167	2412.65	1530.25
1008.5101	2819.9837	2460	1572.05
1008.6288	2821.15	2503.1	1619.05
1008.7474	2822.3157	2548.65	1666.25
1008.8659	2823.4807	2602.3	1719.55
1008.9844	2824.645	2643.9	1758.85
1009.1029	2825.8086	2695.1	1812.4
1009.2214	2826.9716	2711.2	1828.45
1009.3398	2828.134	2765.35	1880.25
1009.4581	2829.2957	2807.55	1925.1
1009.5764	2830.4567	2838.5	1954.5
1009.6947	2831.617	2860.45	1976.7
1009.813	2832.7767	2858.6	1976.85
1009.9312	2833.9358	2863.4	1980.25
1010.0493	2835.0941	2866.35	1980.2
1010.1675	2836.2519	2853.2	1968.1
1010.2855	2837.4089	2835.3	1946.8
1010.4036	2838.5653	2835.8	1951.85
1010.5216	2839.7211	2829.65	1944.55
1010.6396	2840.8761	2840.95	1952.85
1010.7575	2842.0306	2849.15	1964.3
1010.8754	2843.1843	2890.4	2007.6
1010.9932	2844.3374	2928.85	2045.2
1011.111	2845.4899	2986.3	2101.9
1011.2288	2846.6417	3059.4	2177.35
1011.3465	2847.7928	3135.8	2250.6
1011.4642	2848.9433	3204.85	2320.7
1011.5818	2850.0931	3274.1	2390.45
1011.6995	2851.2422	3353.25	2468.75
1011.817	2852.3907	3427.3	2543.1
1011.9345	2853.5385	3507.95	2620.35
1012.052	2854.6857	3572.9	2663.3
1012.1695	2855.8323	3587.15	2705.7
1012.2869	2856.9781	3654.75	2773.8
1012.4042	2858.1233	3682.25	2798.25
1012.5216	2859.2679	3737.75	2853.65
1012.6389	2860.4118	3789.15	2906.05
1012.7561	2861.555	3811.8	2925.25
1012.8733	2862.6976	3857.35	2972.5
1012.9905	2863.8395	3876.1	2991.4
1013.1076	2864.9808	3902.8	3019.35
1013.2247	2866.1214	3915.7	3033.3
1013.3417	2867.2614	3914.95	3032.65
1013.4587	2868.4007	3933.35	3048.7
1013.5757	2869.5393	3950.75	3065.85
1013.6926	2870.6773	3963.6	3078.6
1013.8095	2871.8146	3985.5	3098.7
1013.9263	2872.9513	3977.3	3090.8
1014.0431	2874.0874	3965.3	3081.55
1014.1599	2875.2227	3963.25	3079.65
1014.2766	2876.3574	3949.35	3064.1
1014.3933	2877.4915	3908.35	3025.75
1014.51	2878.6249	3891.1	3008.55
1014.6266	2879.7577	3873.2	2987.85
1014.7431	2880.8898	3845.95	2952.85
1014.8596	2882.0212	3840.35	2960.05
1014.9761	2883.152	3825.4	2942.4
1015.0925	2884.2821	3794.25	2915.15
1015.2089	2885.4116	3787.65	2904.55
1015.3253	2886.5405	3791.6	2909.3
1015.4416	2887.6686	3801.25	2915.95
1015.5579	2888.7962	3800.55	2918.5
1015.6741	2889.923	3815.7	2931.9
1015.7903	2891.0493	3828.1	2945.55
1015.9065	2892.1748	3832.55	2949.4
1016.0226	2893.2997	3842.3	2958
1016.1387	2894.424	3851.7	2970.25
1016.2547	2895.5476	3869.75	2990.1
1016.3707	2896.6706	3893	3010.5
1016.4866	2897.7929	3921.05	3038.7
1016.6025	2898.9145	3926.2	3043.8
1016.7184	2900.0355	3977.3	3093.8
1016.8342	2901.1559	4022.4	3140.05
1016.95	2902.2756	4049.1	3162.8
1017.0658	2903.3946	4084.3	3201.05
1017.1815	2904.513	4105.45	3219.65
1017.2971	2905.6308	4124.1	3244.65
1017.4127	2906.7479	4149.7	3266.4
1017.5283	2907.8643	4171.05	3287.25
1017.6439	2908.9801	4172.3	3293.25
1017.7594	2910.0953	4181.05	3298.35
1017.8748	2911.2098	4185.2	3301.15
1017.9902	2912.3236	4182.2	3293.15
1018.1056	2913.4368	4172.05	3288
1018.2209	2914.5494	4138.8	3256.5
1018.3362	2915.6613	4114.6	3226.7
1018.4515	2916.7725	4086.8	3204.5
1018.5667	2917.8831	4045.8	3163.05
1018.6819	2918.9931	4033.3	3148.45
1018.797	2920.1024	4001.85	3119.6
1018.9121	2921.211	3978.15	3094.85
1019.0271	2922.319	3944.7	3061.65
1019.1421	2923.4264	3927.05	3043.45
1019.2571	2924.5331	3912.3	3032.2
1019.372	2925.6391	3900.45	3019
1019.4869	2926.7445	3893	3012.2
1019.6017	2927.8493	3888.45	3004.95
1019.7165	2928.9534	3884.2	3000.85
1019.8313	2930.0569	3899.2	3014.6
1019.946	2931.1597	3877.3	2995.95
1020.0606	2932.2619	3866.1	2984.25
1020.1753	2933.3634	3849.65	2965.9
1020.2899	2934.4643	3860.05	2973.3
1020.4044	2935.5645	3830.8	2944.4
1020.5189	2936.6641	3797.25	2911.15
1020.6334	2937.763	3747.65	2868.8
1020.7478	2938.8613	3711.15	2829.1
1020.8622	2939.959	3649.7	2761.45
1020.9765	2941.056	3579.7	2699.05
1021.0908	2942.1523	3503.3	2619.9
1021.2051	2943.248	3409.75	2529.4
1021.3193	2944.3431	3317.85	2435.9
1021.4334	2945.4375	3203	2319.25
1021.5476	2946.5313	3104.6	2223.45
1021.6617	2947.6244	2996.6	2113.55
1021.7757	2948.7169	2911.1	2029
1021.8897	2949.8087	2801.55	1921.6
1022.0037	2950.8999	2721.85	1839.4
1022.1176	2951.9904	2635.15	1754.55
1022.2315	2953.0803	2564.7	1683.75
1022.3453	2954.1696	2498	1616.05
1022.4591	2955.2582	2435.25	1554.35
1022.5728	2956.3462	2394.45	1514
1022.6865	2957.4335	2367.05	1486.4
1022.8002	2958.5202	2327	1442.95
1022.9138	2959.6062	2292.5	1412.35
1023.0274	2960.6916	2269.9	1388.4
1023.141	2961.7764	2245.75	1365.85
1023.2545	2962.8605	2228.85	1348.7
1023.3679	2963.9439	2218.75	1339.8
1023.4813	2965.0267	2207.5	1326.25
1023.5947	2966.1089	2215.45	1313.7
1023.708	2967.1905	2192.9	1310.95
1023.8213	2968.2714	2182.45	1301.7
1023.9346	2969.3516	2187.55	1304.1
1024.0478	2970.4312	2196.95	1311.75
1024.1609	2971.5102	2193.4	1313.55
1024.274	2972.5885	2185	1306.25
1024.3871	2973.6662	2187.25	1303.95
1024.5002	2974.7432	2176.25	1295.4
1024.6132	2975.8196	2167.8	1287
1024.7261	2976.8954	2161.15	1280.55
1024.839	2977.9705	2160.4	1280.85
1024.9519	2979.045	2137.35	1256
1025.0647	2980.1188	2120.55	1239.75
1025.1775	2981.192	2099.8	1221.7
1025.2902	2982.2645	2070.7	1190.95
1025.4029	2983.3364	2057.55	1176.45
1025.5156	2984.4077	2018.25	1138.75
1025.6282	2985.4783	2001.85	1117.35
1025.7407	2986.5483	1963.75	1082.25
1025.8532	2987.6177	1923.4	1046.05
1025.9657	2988.6864	1881.5	997.4
1026.0782	2989.7545	1862.35	979
1026.1906	2990.8219	1825.85	944.7
1026.3029	2991.8887	1794.2	911.6
1026.4152	2992.9548	1754.65	875.75
1026.5275	2994.0204	1736.25	855.35
1026.6397	2995.0852	1706.25	828.9
1026.7519	2996.1495	1678.2	795.6
1026.864	2997.2131	1647.4	768.6
1026.9761	2998.276	1624.8	745
1027.0882	2999.3383	1607.75	726.85
1027.2002	3000.4	1584.15	702.7
1027.3122	3001.4611	1569.15	688.25
1027.4241	3002.5215	1552.95	670.45
1027.536	3003.5812	1547.6	670.1
1027.6478	3004.6404	1526.1	645.85
1027.7596	3005.6989	1510.95	627.25
1027.8714	3006.7567	1503.9	625.4
1027.9831	3007.8139	1527.3	616.15
1028.0947	3008.8705	1496.15	617.3
1028.2064	3009.9264	1487.3	603.45
1028.3179	3010.9818	1482.45	602.45
1028.4295	3012.0364	1470.7	589.45
1028.541	3013.0905	1467.8	586.85
1028.6524	3014.1439	1467.95	587.85
1028.7638	3015.1966	1464.45	585
1028.8752	3016.2487	1462.1	582.8
1028.9865	3017.3002	1459.7	576.15
1029.0978	3018.3511	1456.15	578.75
1029.209	3019.4013	1459.95	579.7
1029.3202	3020.4509	1453.55	574.65
1029.4314	3021.4998	1452.35	572.15
1029.5425	3022.5481	1455.3	574.9
1029.6535	3023.5958	1457.35	577.65
1029.7645	3024.6428	1452.2	569.05
1029.8755	3025.6892	1452	570.9
1029.9864	3026.735	1460.55	581.05
1030.0973	3027.7802	1459.25	581.6
1030.2082	3028.8247	1459.95	578.95
1030.319	3029.8685	1462.65	582.7
1030.4297	3030.9118	1458.7	578.4
1030.5404	3031.9544	1471.1	592.15
1030.6511	3032.9963	1471.4	591.55
1030.7617	3034.0376	1476.25	597.6
1030.8723	3035.0783	1473.1	592.05
1030.9829	3036.1184	1481.35	602.6
1031.0934	3037.1578	1483.45	606.8
1031.2038	3038.1966	1489.35	607.3
1031.3142	3039.2348	1481.4	604.5
1031.4246	3040.2723	1487.95	600.35
1031.5349	3041.3092	1487.2	608.85
1031.6452	3042.3455	1471.75	592.45
1031.7554	3043.3811	1471.7	590.85
1031.8656	3044.4161	1474.65	594.35
1031.9758	3045.4505	1458.55	579.75
1032.0859	3046.4842	1456.9	575.7
1032.1959	3047.5173	1457.8	579.45
1032.3059	3048.5498	1444.3	565.6
1032.4159	3049.5816	1441.25	561.15
1032.5258	3050.6128	1432	552.3
1032.6357	3051.6434	1415	535.4
1032.7455	3052.6734	1427.3	544.2
1032.8553	3053.7027	1420.55	544.35
1032.9651	3054.7314	1407.25	528.45
1033.0748	3055.7594	1411.25	532.45
1033.1845	3056.7868	1398.85	519.6
1033.2941	3057.8136	1390.85	512.8
1033.4037	3058.8398	1380.6	504
1033.5132	3059.8653	1387.05	508.15
1033.6227	3060.8902	1376.45	497.1
1033.7321	3061.9145	1373.2	492.3
1033.8415	3062.9381	1355.4	475.45
1033.9509	3063.9612	1376.45	482.3
1034.0602	3064.9835	1354.7	476.15
1034.1694	3066.0053	1350.55	470.15
1034.2787	3067.0264	1340.8	464.6
1034.3878	3068.0469	1334.55	452.8
1034.497	3069.0668	1331.5	449.6
1034.6061	3070.086	1320.2	442.2
1034.7151	3071.1046	1311.55	433.4
1034.8241	3072.1226	1307.7	427.85
1034.9331	3073.1399	1292.75	413.85
1035.042	3074.1567	1285.35	406.05
1035.1508	3075.1727	1276.95	397.5
1035.2597	3076.1882	1264.75	384.4
1035.3684	3077.203	1258.75	381.2
1035.4772	3078.2173	1248.1	366.95
1035.5859	3079.2308	1247.85	367.65
1035.6945	3080.2438	1231.7	350.95
1035.8031	3081.2561	1223.65	342.9
1035.9117	3082.2678	1220	341.3
1036.0202	3083.2789	1210.3	330.55
1036.1286	3084.2893	1210.45	331.85
1036.2371	3085.2991	1201.75	321.75
1036.3454	3086.3083	1198.75	316
1036.4538	3087.3169	1189.1	309.3
1036.562	3088.3248	1186.6	306.75
1036.6703	3089.3321	1185.75	305.2
1036.7785	3090.3388	1176.6	299.85
1036.8866	3091.3449	1174.35	295.3
1036.9948	3092.3503	1169.3	289.75
1037.1028	3093.3551	1164.9	288.65
1037.2108	3094.3593	1157.4	282.65
1037.3188	3095.3629	1153.4	277.7
1037.4267	3096.3658	1150.15	270.2
1037.5346	3097.3681	1150.35	273.15
1037.6425	3098.3698	1148.95	267
1037.7503	3099.3708	1144.85	258.3
1037.858	3100.3713	1137.35	260.15
1037.9657	3101.3711	1137.65	257.75
1038.0734	3102.3702	1247.35	251.45
1038.181	3103.3688	1133.15	252.35
1038.2886	3104.3667	1124.4	248.2
1038.3961	3105.364	1124	246.25
1038.5036	3106.3607	1124.3	242.1
1038.611	3107.3568	1120.5	242.05
1038.7184	3108.3522	1118.05	239.95
1038.8257	3109.347	1113.55	234.2
1038.933	3110.3412	1124.25	243.6
1039.0403	3111.3348	1111.85	233.5
1039.1475	3112.3277	1112.5	233.95
1039.2547	3113.32	1107.05	229.95
1039.3618	3114.3117	1105.8	228.55
1039.4689	3115.3028	1105.7	228.95
1039.5759	3116.2932	1110.95	231.2
1039.6829	3117.2831	1110.4	226.05
1039.7898	3118.2723	1094.65	218.2
1039.8967	3119.2608	1098.25	220.9
1040.0035	3120.2488	1096.85	218.05
1040.1103	3121.2361	1098.6	218.9
1040.2171	3122.2229	1094.35	214.85
1040.3238	3123.209	1092.55	212.9
1040.4305	3124.1944	1088.65	212.25
1040.5371	3125.1793	1088.6	210.45
1040.6437	3126.1635	1086.4	209.05
1040.7502	3127.1471	1084.25	210.45
1040.8567	3128.1301	1079.45	200.05
1040.9631	3129.1125	1080.3	204.3
1041.0695	3130.0942	1079.05	200.45
1041.1759	3131.0753	1084.85	198.45
1041.2822	3132.0558	1079.75	197.3
1041.3884	3133.0357	1074.35	195.1
1041.4946	3134.015	1078.55	200.95
1041.6008	3134.9936	1077.15	200.15
1041.7069	3135.9716	1093.6	194.95
1041.813	3136.949	1065.95	189.4
1041.919	3137.9258	1091.5	194.65
1042.025	3138.902	1074.9	191.2
1042.1309	3139.8775	1067.05	189.45
1042.2368	3140.8524	1064.2	185.75
1042.3427	3141.8267	1064.6	184.1
1042.4485	3142.8004	1057.6	180.45
1042.5542	3143.7735	1066.7	182.85
1042.6599	3144.7459	1064.1	185
1042.7656	3145.7178	1057.15	178.45
1042.8712	3146.689	1058.7	181.45
1042.9768	3147.6596	1056.8	179.45
1043.0823	3148.6295	1051.25	173.3
1043.1878	3149.5989	1050.2	172.35
1043.2932	3150.5676	1048.6	171.15
1043.3986	3151.5357	1050.4	176.6
1043.5039	3152.5032	1047.2	169.6
1043.6092	3153.4701	1048.7	170.2
1043.7145	3154.4364	1047.9	167.45
1043.8197	3155.402	1043.9	167.95
1043.9248	3156.367	1042.75	162.95
1044.03	3157.3315	1066.1	161.5
1044.135	3158.2952	1049.25	173
1044.24	3159.2584	1037.3	159.6
1044.345	3160.221	1042.9	165.45
1044.4499	3161.1829	1039.6	161.7
1044.5548	3162.1442	1033.65	156.2
1044.6596	3163.105	1035.85	159.1
1044.7644	3164.065	1031.55	154
1044.8692	3165.0245	1035.65	156.55
1044.9739	3165.9834	1030	152.85
1045.0785	3166.9416	1030.75	152.95
1045.1831	3167.8993	1027.9	151
1045.2877	3168.8563	1027.9	151.15
1045.3922	3169.8127	1026.9	148.85
1045.4966	3170.7684	1029.35	150.5
1045.6011	3171.7236	1024.55	147.25
1045.7054	3172.6782	1026.95	148.85
1045.8098	3173.6321	1026.9	148.45
1045.914	3174.5854	1024.5	145.3
1046.0183	3175.5381	1021.8	144.85
1046.1224	3176.4902	1021.8	147.1
1046.2266	3177.4417	1016.85	139.95
1046.3307	3178.3926	1019.3	142.55
1046.4347	3179.3428	1014.8	140.9
1046.5387	3180.2924	1016.9	141.65
1046.6427	3181.2415	1019.65	143.05
1046.7466	3182.1899	1019.85	140.55
1046.8504	3183.1377	1016	138.3
1046.9542	3184.0848	1019.2	140.45
1047.058	3185.0314	1008.85	131.9
1047.1617	3185.9773	1018.85	142.95
1047.2654	3186.9227	1013.45	135.45
1047.369	3187.8674	1010.9	135.1
1047.4726	3188.8115	1016.25	133.5
1047.5761	3189.755	1011.45	136.05
1047.6796	3190.6979	1004.65	127.25
1047.783	3191.6402	1006.3	130.25
1047.8864	3192.5818	1004.9	127.9
1047.9898	3193.5229	1012.5	129.9
1048.0931	3194.4633	1004.8	129.15
1048.1963	3195.4031	1006.85	129
1048.2995	3196.3423	1002.8	124.35
1048.4027	3197.2809	1002.8	125.9
1048.5058	3198.2189	1002.3	127.65
1048.6089	3199.1563	1012.75	122
1048.7119	3200.0931	999.3	124.95
1048.8148	3201.0292	1003.35	127.65
1048.9178	3201.9648	1000.1	122.65
1049.0206	3202.8997	1002.45	122.25
1049.1235	3203.834	999.9	121.25
1049.2262	3204.7677	997.05	121.6
1049.329	3205.7008	997.05	118.65
1049.4317	3206.6333	993.55	119.55
1049.5343	3207.5652	997.2	116.4
1049.6369	3208.4964	996.05	119.6
1049.7394	3209.4271	990.4	114
1049.8419	3210.3571	993.25	118.4
1049.9444	3211.2865	996.65	117.6
1050.0468	3212.2154	993.5	116.9
1050.1491	3213.1436	994.85	114.5
1050.2514	3214.0712	998.85	114.65
1050.3537	3214.9982	990.65	114.75
1050.4559	3215.9246	987.2	108.95
1050.5581	3216.8503	987.15	111.8
1050.6602	3217.7755	989.15	112.4
1050.7623	3218.7001	986.65	109.5
1050.8643	3219.624	988.15	112.55
1050.9663	3220.5473	986.85	110.65
1051.0682	3221.4701	985.55	106.85
1051.1701	3222.3922	987.25	108.4
1051.2719	3223.3137	983.4	106.5
1051.3737	3224.2346	985.85	108.9
1051.4754	3225.1549	979.75	103.4
1051.5771	3226.0746	982.2	106.6
1051.6788	3226.9937	982.9	107.75
1051.7804	3227.9121	978.8	104.5
1051.8819	3228.83	983.2	107.45
1051.9834	3229.7473	979.95	104
1052.0849	3230.6639	979.9	105.1
1052.1863	3231.5799	977.25	101.4
1052.2876	3232.4954	980.5	102.4
1052.3889	3233.4102	979.75	105.55
1052.4902	3234.3244	981.15	103.9
1052.5914	3235.238	976.35	100.85
1052.6926	3236.151	992.3	102.15
1052.7937	3237.0634	975.35	99.95
1052.8948	3237.9752	973.95	98.35
1052.9958	3238.8864	975.35	99.15
1053.0968	3239.797	973.15	96.65
1053.1977	3240.7069	971.1	95.7
1053.2986	3241.6163	972.8	94.1
1053.3994	3242.5251	972.65	98.55
1053.5002	3243.4332	973.9	97.55
1053.6009	3244.3408	973.15	96.95
1053.7016	3245.2477	971.6	98.8
1053.8022	3246.154	969.6	90.5
1053.9028	3247.0598	966.05	90.25
1054.0034	3247.9649	963.95	88.45
1054.1039	3248.8694	963.6	87.2
1054.2043	3249.7733	964.7	89.75
1054.3047	3250.6766	964.15	87.6
1054.4051	3251.5793	964.4	88.45
1054.5054	3252.4814	960.85	86.75
1054.6056	3253.3829	962.35	88.3
1054.7058	3254.2838	963.2	86.25
1054.806	3255.1841	961.2	87.2
1054.9061	3256.0838	961.85	86.8
1055.0061	3256.9829	958.05	85.25
1055.1062	3257.8814	960.15	81.4
1055.2061	3258.7792	961.9	85.35
1055.306	3259.6765	955.4	76.2
1055.4059	3260.5731	952.75	77.95
1055.5057	3261.4692	949.05	73.9
1055.6055	3262.3647	953.75	79.25
1055.7052	3263.2595	951	75.15
1055.8049	3264.1538	951.15	75.45
1055.9045	3265.0474	955.55	81.85
1056.0041	3265.9404	950.65	76.8
1056.1036	3266.8329	947.4	72.7
1056.2031	3267.7247	955.95	70.75
1056.3025	3268.616	942.2	68.25
1056.4019	3269.5066	944.2	69.85
1056.5013	3270.3966	942.3	65.5
1056.6005	3271.286	936.35	61.85
