Software Version:	3.9.2.0
Unit SN:	10000200
Spectrometer SN:	6960
Date:	3/8/2024 1:24:09 PM
Data Line Index:	25
Spectral Points:	2048
Integration time (ms):	125
Averages:	20
Delay (ms):	30000
Sequence Number:	1
Processing:	dark subtract
Laser Power (mW):	300
Laser Current (mA):	822
Laser Diode Temp (C):	25
Laser Case Temp (C):	26.2
System Temp (C):	26.2
Spectrometer Temp (C):	24
CCD Temp (C):	0.012
Secondary Temp (C):	20.007
Heatsink Temp (C):	21.195
CCDPCB Temp (C):	36.118
SecondaryPCB Temp (C):	31.66

Wavelength	RamanShift	Raw Counts	Dark Subtracted
787.061	30.1047	453.9	46.95
787.2016	32.3739	453.9	46.85
787.3422	34.6426	458.5	50.35
787.4828	36.9109	464.45	56.85
787.6235	39.1787	471	59.05
787.7642	41.4461	483.3	65.5
787.9049	43.7131	492.75	71.6
788.0456	45.9796	499.5	76.45
788.1863	48.2456	506.8	78.8
788.3271	50.5112	512.1	79.95
788.4679	52.7764	525	91.4
788.6087	55.0411	538.8	98.3
788.7496	57.3054	546.25	98.65
788.8904	59.5692	553.8	107.25
789.0313	61.8326	559.5	109
789.1722	64.0955	576.4	125.3
789.3132	66.3579	594.2	135.35
789.4541	68.6199	612.65	151.1
789.5951	70.8815	648.7	182.75
789.7361	73.1426	725.7	254.45
789.8771	75.4032	922.5	446.95
790.0181	77.6634	1412.65	932.7
790.1592	79.9231	2555.9	2067.1
790.3003	82.1824	5016.8	4511.2
790.4414	84.4412	9450.25	8913.75
790.5825	86.6995	15546.95	14970.35
790.7237	88.9574	21480.6	20866.7
790.8648	91.2148	25542	24908.45
791.006	93.4717	27421.4	26772.35
791.1472	95.7282	27727.65	27072.5
791.2885	97.9842	27577.2	26915.6
791.4297	100.2398	26930.35	26265.95
791.571	102.4949	26282.7	25619.75
791.7123	104.7495	25459.75	24787.35
791.8536	107.0036	24573.3	23906.7
791.9949	109.2573	23829.7	23161.2
792.1363	111.5105	23050.55	22378.55
792.2777	113.7632	22316.3	21642.7
792.4191	116.0154	21729.85	21041.2
792.5605	118.2672	21250.2	20567.85
792.7019	120.5185	20792.4	20113.8
792.8434	122.7693	20416.65	19736.6
792.9849	125.0197	20101.2	19415.7
793.1264	127.2696	19821.8	19130
793.2679	129.519	19651.7	18953.15
793.4094	131.7679	19409.7	18709.65
793.551	134.0163	19208.4	18504.85
793.6926	136.2642	18948.3	18245.8
793.8342	138.5117	18692.6	17984.6
793.9758	140.7587	18405.2	17698.65
794.1175	143.0052	18155.25	17441
794.2591	145.2512	17889.25	17177.55
794.4008	147.4967	17609.55	16892.7
794.5425	149.7417	17457.2	16744.65
794.6842	151.9863	17304.65	16585.85
794.826	154.2304	17241.55	16514.6
794.9677	156.4739	17072.25	16339.3
795.1095	158.717	16974.25	16243.6
795.2513	160.9596	16799.25	16064.85
795.3931	163.2017	16569.25	15831.6
795.535	165.4433	16258.85	15521.9
795.6768	167.6844	15920.8	15181.55
795.8187	169.925	15590.9	14848.2
795.9606	172.1651	15240.8	14496.5
796.1025	174.4047	14962.55	14213.65
796.2445	176.6439	14685	13934.15
796.3864	178.8825	14479.2	13727.45
796.5284	181.1206	14300.75	13542.7
796.6704	183.3582	14106.55	13342.75
796.8124	185.5954	14047.9	13286.2
796.9544	187.832	13950.75	13184.9
797.0965	190.0681	13929.85	13157.8
797.2386	192.3037	13899.2	13130.35
797.3806	194.5388	13914.8	13136.35
797.5228	196.7734	13925.65	13145.6
797.6649	199.0075	13984.65	13205.75
797.807	201.2411	14109.9	13324.85
797.9492	203.4742	14160.55	13378.95
798.0914	205.7068	14311.65	13522.6
798.2336	207.9389	14422.65	13634.9
798.3758	210.1704	14572.1	13792.3
798.518	212.4015	14704.5	13930.1
798.6603	214.632	14865.75	14100.05
798.8025	216.862	15031	14266.5
798.9448	219.0915	15159.4	14394.25
799.0871	221.3205	15345.25	14573.8
799.2294	223.549	15570	14805.95
799.3718	225.777	15815.4	15048.75
799.5141	228.0044	16115.85	15343.2
799.6565	230.2314	16431.4	15658.25
799.7989	232.4578	16836.55	16063.35
799.9413	234.6837	17117.75	16333.3
800.0837	236.909	17294	16506.05
800.2262	239.1339	17270.1	16460.35
800.3687	241.3582	17097.35	16297.85
800.5111	243.582	16843.05	16011.9
800.6536	245.8053	16530.8	15719.8
800.7961	248.0281	16294.6	15485.7
800.9387	250.2503	16099.75	15284.85
801.0812	252.472	16012.55	15197.9
801.2238	254.6932	15998.85	15185.2
801.3664	256.9139	15984.6	15167.9
801.509	259.134	16057.65	15236.25
801.6516	261.3536	16137.35	15317.9
801.7942	263.5727	16245.15	15421.95
801.9369	265.7912	16304.95	15487.85
802.0795	268.0092	16396.95	15577.4
802.2222	270.2267	16423.65	15606.25
802.3649	272.4436	16415	15589.75
802.5076	274.6601	16379	15546.7
802.6504	276.8759	16299.65	15474.25
802.7931	279.0913	16254.2	15431.6
802.9359	281.3061	16178.7	15349.6
803.0787	283.5204	16167.3	15334.85
803.2215	285.7341	16165.65	15326.9
803.3643	287.9473	16286.55	15441.05
803.5071	290.16	16499.45	15661.1
803.6499	292.3721	16761.35	15932.25
803.7928	294.5837	17153.7	16317.95
803.9357	296.7947	17462.6	16630.15
804.0786	299.0052	17669.85	16833.2
804.2215	301.2152	17540.3	16700.9
804.3644	303.4246	17224.85	16391.95
804.5074	305.6334	16695.6	15865.15
804.6503	307.8418	16231.55	15395.15
804.7933	310.0495	15801.8	14966.05
804.9363	312.2568	15467.45	14628.2
805.0793	314.4635	15172.55	14332.4
805.2223	316.6696	15041.5	14193.1
805.3653	318.8752	14934.1	14079.25
805.5084	321.0802	14937.2	14087.65
805.6514	323.2847	15042.3	14194.9
805.7945	325.4887	15083.4	14235.7
805.9376	327.692	15065	14215.55
806.0807	329.8949	14960.4	14105.3
806.2238	332.0972	14694.45	13840.2
806.367	334.2989	14438.9	13581.85
806.5101	336.5001	14154	13299.6
806.6533	338.7007	13962	13105.5
806.7965	340.9008	13835.75	12974.95
806.9397	343.1003	13711.3	12853.6
807.0829	345.2992	13646.3	12787.25
807.2261	347.4976	13588.15	12727.75
807.3693	349.6955	13525.45	12661.35
807.5126	351.8927	13581.5	12714
807.6559	354.0895	13577	12701.65
807.7991	356.2856	13579.1	12709.55
807.9424	358.4812	13564.15	12698.45
808.0857	360.6763	13617.15	12751.25
808.2291	362.8707	13582.5	12708.25
808.3724	365.0646	13629.5	12757.35
808.5158	367.258	13666.45	12792.55
808.6591	369.4508	13674.95	12798.9
808.8025	371.643	13770.3	12889.1
808.9459	373.8346	13812.65	12931.9
809.0893	376.0257	13795.55	12911.85
809.2327	378.2162	13758.7	12879.85
809.3762	380.4062	13665.3	12785.55
809.5196	382.5956	13533	12650.85
809.6631	384.7844	13402.8	12532.45
809.8066	386.9726	13305.9	12432.5
809.9501	389.1603	13262.9	12397.55
810.0936	391.3474	13255.05	12346.25
810.2371	393.5339	13201.65	12329.2
810.3806	395.7199	13141.2	12270.4
810.5241	397.9052	13144.05	12269.8
810.6677	400.09	13184.55	12312
810.8113	402.2743	13280.05	12403.95
810.9548	404.4579	13405.8	12531.55
811.0984	406.641	13579.6	12702.7
811.2421	408.8235	13774.3	12900.4
811.3857	411.0054	14038.7	13162.8
811.5293	413.1868	14434.35	13551.1
811.673	415.3675	14681.6	13794.45
811.8166	417.5477	14823.7	13936.9
811.9603	419.7273	14835.7	13945.6
812.104	421.9064	14738.45	13847.65
812.2477	424.0848	14627.55	13740.45
812.3914	426.2627	14408.55	13524
812.5351	428.4399	14171.45	13282.55
812.6788	430.6166	13797.95	12906.8
812.8226	432.7928	13471.8	12576.95
812.9663	434.9683	13124.2	12232.35
813.1101	437.1432	12914.45	12023.05
813.2539	439.3176	12761.3	11879.1
813.3977	441.4914	12615.55	11737.1
813.5415	443.6645	12604.5	11720.6
813.6853	445.8371	12555.75	11667.5
813.8291	448.0091	12490.95	11603
813.973	450.1806	12480.3	11593.85
814.1168	452.3514	12410.9	11521.55
814.2607	454.5216	12437.85	11538.9
814.4046	456.6913	12393.75	11504.65
814.5485	458.8603	12419.6	11534.25
814.6924	461.0288	12476.3	11594
814.8363	463.1967	12475.15	11591.95
814.9802	465.3639	12568.4	11682.1
815.1241	467.5306	12689.4	11801.05
815.2681	469.6967	12761.05	11875.45
815.412	471.8622	12888.55	12007.25
815.556	474.0271	13002.8	12114.2
815.7	476.1914	13062.4	12168.5
815.844	478.3551	13078	12190
815.988	480.5182	13047	12158.85
816.132	482.6807	13081.4	12199.4
816.276	484.8426	13205.7	12333.2
816.4201	487.0039	13495.6	12616.8
816.5641	489.1647	13901.65	13011.6
816.7082	491.3248	14300.3	13408.45
816.8522	493.4843	14458.75	13572.7
816.9963	495.6432	14474.85	13592.85
817.1404	497.8015	14339.6	13442.6
817.2845	499.9592	14340.45	13440.1
817.4286	502.1163	14219.6	13318.7
817.5727	504.2728	13970	13077.2
817.7168	506.4287	13649.3	12765.1
817.861	508.5839	13252.1	12367.75
818.0051	510.7386	12968.35	12075.8
818.1493	512.8927	12811	11909
818.2935	515.0461	12732.1	11835
818.4377	517.199	12688.65	11791
818.5818	519.3512	12774.55	11875.65
818.726	521.5029	12895.45	11992.25
818.8703	523.6539	13017.25	12117.5
819.0145	525.8043	13082	12179
819.1587	527.9541	13054.55	12154.6
819.303	530.1033	13027.65	12127.1
819.4472	532.2519	13003.95	12104.2
819.5915	534.3999	13049.05	12148.05
819.7357	536.5472	13271.95	12368.6
819.88	538.694	13663.35	12764.4
820.0243	540.8401	14161.8	13260.2
820.1686	542.9856	14564.8	13654.85
820.3129	545.1305	14718.75	13799.75
820.4572	547.2748	14593.6	13674.55
820.6016	549.4185	14247.2	13325
820.7459	551.5615	14001.3	13083.15
820.8902	553.704	13889.6	12974.75
821.0346	555.8458	13835.6	12922.8
821.1789	557.987	13906.2	12993.9
821.3233	560.1276	13992.6	13079.95
821.4677	562.2675	14112.3	13195.7
821.6121	564.4069	14312.8	13399
821.7565	566.5456	14450.55	13538.75
821.9009	568.6837	14442.45	13533.25
822.0453	570.8212	14106.7	13200.55
822.1897	572.958	13668	12755.45
822.3342	575.0942	13282	12375.7
822.4786	577.2299	13000.35	12097.75
822.6231	579.3648	12907.7	12020.45
822.7675	581.4992	12936.3	12054.9
822.912	583.6329	13132.1	12255.05
823.0565	585.766	13360.55	12475.15
823.201	587.8985	13504.25	12609.6
823.3454	590.0304	13521.25	12592.75
823.4899	592.1616	13438.15	12523.55
823.6345	594.2922	13315	12399.95
823.779	596.4222	13160.9	12244.05
823.9235	598.5515	12991.8	12070.1
824.068	600.6802	12815.7	11898.6
824.2126	602.8083	12644.3	11729.25
824.3571	604.9358	12611.25	11696.85
824.5017	607.0626	12593.35	11675.05
824.6462	609.1888	12575.65	11647.4
824.7908	611.3144	12607.15	11682.9
824.9354	613.4393	12573.85	11648.35
825.08	615.5636	12525.4	11600.85
825.2246	617.6873	12482.1	11555.85
825.3692	619.8103	12421.7	11498.4
825.5138	621.9327	12283.55	11361.9
825.6584	624.0544	12185.05	11265.4
825.803	626.1756	12102.35	11187.55
825.9477	628.2961	12052.75	11132.55
826.0923	630.4159	11956.2	11034.55
826.237	632.5351	11946	11023.8
826.3816	634.6537	11880.4	10958
826.5263	636.7716	11887.95	10956.75
826.6709	638.8889	11891.25	10959.85
826.8156	641.0056	11935	11003.45
826.9603	643.1216	11891.8	10958.3
827.105	645.237	11904	10977.8
827.2497	647.3518	11884.1	10964.8
827.3944	649.4659	11865.05	10947.75
827.5391	651.5793	11831.1	10913.95
827.6838	653.6922	11814.2	10891.1
827.8285	655.8043	11828.05	10907.55
827.9733	657.9159	11841.8	10923.05
828.118	660.0268	11766.05	10847.5
828.2627	662.137	11742.45	10823.4
828.4075	664.2466	11713.95	10782
828.5522	666.3556	11691	10759.5
828.697	668.4639	11659.6	10732.75
828.8418	670.5716	11676.1	10758.15
828.9865	672.6786	11728.35	10801.95
829.1313	674.785	11758.4	10827.9
829.2761	676.8907	11820.85	10895.8
829.4209	678.9958	11829.85	10907.8
829.5657	681.1002	11830.05	10905.6
829.7105	683.204	11820.45	10881.75
829.8553	685.3072	11801.3	10868.75
830.0001	687.4097	11733.85	10799.95
830.1449	689.5115	11726.55	10790.85
830.2898	691.6127	11695.5	10765.9
830.4346	693.7132	11603.3	10679.65
830.5794	695.8131	11607.6	10668.5
830.7243	697.9123	11604.8	10667.25
830.8691	700.0109	11601.1	10663.75
831.014	702.1089	11583.75	10652.3
831.1588	704.2061	11569.4	10637.4
831.3037	706.3028	11635.65	10699.35
831.4486	708.3987	11678.75	10746.35
831.5935	710.4941	11745.65	10811.9
831.7383	712.5887	11855.5	10922.8
831.8832	714.6827	12085.35	11153.15
832.0281	716.7761	12388.95	11458.95
832.173	718.8688	12712.8	11783.5
832.3179	720.9608	12881.2	11943.3
832.4628	723.0522	12974.05	12027.85
832.6077	725.1429	12847.1	11910.3
832.7527	727.233	12691.45	11756.3
832.8976	729.3224	12510.15	11573.85
833.0425	731.4112	12307.15	11370.75
833.1874	733.4993	12128.2	11192.05
833.3324	735.5867	11975	11035.7
833.4773	737.6735	11825.05	10884.8
833.6222	739.7596	11713.1	10771.5
833.7672	741.845	11633.4	10699.55
833.9122	743.9298	11586.05	10646.3
834.0571	746.014	11577.45	10641.5
834.2021	748.0974	11600	10657.55
834.347	750.1802	11595.5	10652.05
834.492	752.2624	11625.35	10682.35
834.637	754.3439	11659.5	10715.4
834.782	756.4247	11736.05	10787.15
834.9269	758.5048	11898.15	10955.85
835.0719	760.5843	12159.15	11216.3
835.2169	762.6631	12482.2	11536.85
835.3619	764.7413	12979.5	12039.65
835.5069	766.8188	13599	12657.05
835.6519	768.8956	14119.5	13178.8
835.7969	770.9718	14421.55	13480.5
835.9419	773.0473	14297.75	13355.8
836.0869	775.1221	13995.35	13050.45
836.232	777.1962	13640.75	12698.4
836.377	779.2697	13464.7	12521.05
836.522	781.3426	13501.35	12547.85
836.667	783.4147	13738.25	12790.1
836.8121	785.4862	13970.15	13026.7
836.9571	787.557	13968.45	13018.05
837.1021	789.6271	13594.45	12648.5
837.2472	791.6966	13025.15	12082.45
837.3922	793.7654	12443.05	11498.2
837.5373	795.8335	12087.35	11143.45
837.6823	797.901	11877.2	10931.05
837.8274	799.9678	11765.35	10816.3
837.9724	802.0339	11755.5	10809.9
838.1175	804.0993	11786.65	10827.55
838.2626	806.1641	11758.55	10811.3
838.4076	808.2282	11691.2	10746.5
838.5527	810.2916	11595.55	10650.05
838.6978	812.3544	11519.95	10577.55
838.8428	814.4164	11414.35	10470.7
838.9879	816.4778	11478.3	10530.7
839.133	818.5385	11456.2	10506.05
839.2781	820.5986	11579.85	10633.9
839.4232	822.658	11721.85	10768.8
839.5682	824.7166	11884.95	10940.6
839.7133	826.7747	12222.65	11272.3
839.8584	828.832	12523.4	11572.8
840.0035	830.8886	12736.85	11786.3
840.1486	832.9446	12879.2	11925.25
840.2937	834.9999	12868.6	11921.05
840.4388	837.0545	12799.2	11847.15
840.5839	839.1085	12685.4	11731.6
840.729	841.1618	12536	11582.5
840.8741	843.2143	12464.6	11514.2
841.0192	845.2662	12347.55	11399.8
841.1643	847.3175	12241.2	11291.25
841.3095	849.368	12130.25	11180.65
841.4546	851.4179	11995.5	11044.65
841.5997	853.467	11908.95	10960.2
841.7448	855.5155	11836.9	10885.9
841.8899	857.5633	11742.65	10793.75
842.0351	859.6105	11622.85	10672.15
842.1802	861.6569	11554.35	10602.25
842.3253	863.7027	11485.15	10532.75
842.4704	865.7478	11471.1	10517.85
842.6156	867.7922	11473.8	10521
842.7607	869.8359	11502.85	10546.5
842.9058	871.8789	11576.2	10622.4
843.0509	873.9212	11754.55	10770.45
843.1961	875.9629	11867.85	10912.8
843.3412	878.0039	12047.7	11091.9
843.4863	880.0441	12138.5	11187.85
843.6315	882.0837	12134.1	11182.3
843.7766	884.1226	12103.7	11153.15
843.9218	886.1609	12038.3	11085.35
844.0669	888.1984	12015.9	11065.35
844.212	890.2352	12034.4	11081.5
844.3572	892.2714	11989.15	11028.75
844.5023	894.3069	11981.25	11030.15
844.6475	896.3416	11887.5	10934.2
844.7926	898.3757	11827.45	10871.05
844.9377	900.4091	11778.95	10817.2
845.0829	902.4418	11794.6	10833.35
845.228	904.4739	11843.4	10884.7
845.3732	906.5052	11850.95	10893.35
845.5183	908.5358	11759.1	10805.75
845.6635	910.5658	11632.1	10674.7
845.8086	912.595	11429.45	10472.65
845.9538	914.6236	11273.25	10319.4
846.0989	916.6515	11175.85	10220.5
846.2441	918.6786	11176.15	10218.3
846.3892	920.7051	11200.9	10242.25
846.5344	922.7309	11297	10342.85
846.6795	924.756	11339.2	10384.15
846.8246	926.7804	11473.4	10519.45
846.9698	928.8041	11424.45	10466.4
847.1149	930.8272	11480.1	10527.15
847.2601	932.8495	11436.85	10475.8
847.4052	934.8711	11398.55	10439.6
847.5504	936.892	11299.9	10344.9
847.6955	938.9123	11179.45	10221.4
847.8407	940.9318	11120	10164.6
847.9858	942.9506	11050.2	10093.3
848.131	944.9688	10946.8	9989.3
848.2761	946.9862	10898.75	9942.55
848.4213	949.003	10808.3	9853.25
848.5664	951.019	10769.85	9814.75
848.7115	953.0344	10780.45	9823.1
848.8567	955.0491	10789.95	9832.2
849.0018	957.063	10856.1	9898.8
849.147	959.0763	10976.75	10021.3
849.2921	961.0888	11001.8	10049.5
849.4373	963.1007	11076.95	10128.5
849.5824	965.1119	11112.9	10166.45
849.7275	967.1223	11137.35	10200.15
849.8727	969.1321	11129.7	10191.5
850.0178	971.1412	11172.4	10227.45
850.1629	973.1495	11169.15	10218.65
850.3081	975.1572	11238.6	10236.2
850.4532	977.1641	11233	10271.9
850.5983	979.1704	11258.9	10300.25
850.7435	981.1759	11226.55	10264.95
850.8886	983.1808	11294	10332.2
851.0337	985.1849	11344.6	10377.7
851.1788	987.1884	11469.4	10511.65
851.324	989.1911	11619.1	10661.15
851.4691	991.1932	11706.8	10752.45
851.6142	993.1945	11759.1	10801.9
851.7593	995.1951	11731.7	10776.7
851.9045	997.1951	11716.75	10753.1
852.0496	999.1943	11652.85	10698.55
852.1947	1001.1928	11608.2	10649.2
852.3398	1003.1906	11603.75	10647
852.4849	1005.1877	11704.1	10747.15
852.63	1007.1841	11724.65	10768.4
852.7751	1009.1798	11675.05	10723.1
852.9202	1011.1748	11540.7	10586.5
853.0653	1013.1691	11359	10399.1
853.2104	1015.1627	11141.65	10186.15
853.3555	1017.1556	10941.8	9988.4
853.5006	1019.1477	10843.8	9889.3
853.6457	1021.1392	10762.5	9818.7
853.7908	1023.1299	10736.9	9794.05
853.9359	1025.12	10754	9816.1
854.081	1027.1093	10780.65	9856.05
854.2261	1029.0979	10893.2	9972.1
854.3712	1031.0859	10955.45	10026.2
854.5163	1033.0731	11008.85	10070.15
854.6613	1035.0596	10943.25	9996.65
854.8064	1037.0454	10806.7	9859.9
854.9515	1039.0304	10709.3	9760.25
855.0965	1041.0148	10611.9	9663.2
855.2416	1042.9985	10521.35	9569
855.3867	1044.9814	10458.15	9505.85
855.5317	1046.9636	10403.9	9452.3
855.6768	1048.9452	10387.75	9438.4
855.8219	1050.926	10460.3	9507.8
855.9669	1052.9061	10448	9497.85
856.112	1054.8855	10448.05	9493.95
856.257	1056.8642	10468.85	9515.55
856.4021	1058.8421	10553.2	9595.75
856.5471	1060.8194	10587.65	9634.65
856.6921	1062.7959	10630.55	9676.2
856.8372	1064.7717	10655.9	9699.3
856.9822	1066.7469	10697.1	9743.1
857.1272	1068.7213	10717	9762.7
857.2723	1070.695	10732.2	9781.75
857.4173	1072.6679	10685.5	9731.75
857.5623	1074.6402	10694.65	9742.6
857.7073	1076.6117	10656.1	9698.9
857.8523	1078.5826	10619.4	9662.2
857.9973	1080.5527	10577.7	9621.25
858.1423	1082.5221	10615.75	9659.45
858.2873	1084.4908	10745.8	9795.95
858.4323	1086.4587	10915.85	9960.5
858.5773	1088.426	11024.25	10070.55
858.7223	1090.3925	11009	10051.4
858.8673	1092.3584	11008.35	10056.5
859.0123	1094.3235	10885	9933.9
859.1573	1096.2879	10864	9909.6
859.3022	1098.2515	10926.5	9974.4
859.4472	1100.2145	11002.65	10051.45
859.5922	1102.1767	11136.95	10183.55
859.7371	1104.1382	11327.15	10372.35
859.8821	1106.099	11552.75	10598.2
860.027	1108.0591	11769.3	10818
860.172	1110.0185	11909.25	10953.55
860.3169	1111.9771	11983	11032.65
860.4619	1113.9351	11775	10825.15
860.6068	1115.8923	11540.5	10588.9
860.7517	1117.8488	11308.8	10354.55
860.8967	1119.8045	11061.1	10111.75
861.0416	1121.7596	10925.1	9973.4
861.1865	1123.7139	10865.35	9916
861.3314	1125.6675	10844.05	9893.55
861.4763	1127.6204	10894.8	9946.25
861.6212	1129.5726	10898	9940
861.7661	1131.524	10842.45	9893.9
861.911	1133.4748	10775.55	9824.9
862.0559	1135.4248	10710	9757.35
862.2008	1137.3741	10651.05	9698.55
862.3457	1139.3226	10585.4	9634.5
862.4905	1141.2705	10555.05	9603.95
862.6354	1143.2176	10461.65	9503.85
862.7803	1145.164	10460.6	9507.4
862.9251	1147.1097	10443.85	9494.65
863.07	1149.0546	10405.3	9451.5
863.2148	1150.9989	10305.45	9354.1
863.3597	1152.9424	10189.5	9240.9
863.5045	1154.8852	10027.75	9078.6
863.6493	1156.8272	9965	9011.6
863.7942	1158.7686	9941.4	8983.05
863.939	1160.7092	9922.65	8970.55
864.0838	1162.6491	9940.8	8985
864.2286	1164.5883	10029.35	9076
864.3734	1166.5267	10141.35	9189.8
864.5182	1168.4644	10272.65	9320.8
864.663	1170.4014	10443.05	9491.8
864.8078	1172.3377	10699.35	9752.95
864.9526	1174.2732	10936.95	9986.65
865.0974	1176.2081	11242.15	10295.85
865.2421	1178.1421	11590.2	10633.4
865.3869	1180.0755	11921.4	10973.2
865.5317	1182.0082	12106.9	11163.3
865.6764	1183.9401	12177.4	11228.15
865.8212	1185.8713	12030	11086.5
865.9659	1187.8017	11753.9	10818.5
866.1106	1189.7315	11477.6	10552.9
866.2554	1191.6605	11182.05	10252.2
866.4001	1193.5888	10959.9	10025.85
866.5448	1195.5163	10827.75	9888.8
866.6895	1197.4432	10755	9808.55
866.8342	1199.3693	10677.9	9731.3
866.9789	1201.2947	10680.25	9731.3
867.1236	1203.2193	10652.1	9703.2
867.2683	1205.1432	10676.75	9733.05
867.413	1207.0664	10685.15	9737.85
867.5576	1208.9889	10698.9	9752.9
867.7023	1210.9106	10735.5	9789.75
867.847	1212.8316	10761.65	9814.7
867.9916	1214.7519	10800.3	9846.05
868.1363	1216.6715	10824.4	9878.35
868.2809	1218.5903	10862	9913.8
868.4255	1220.5084	10864.1	9915.35
868.5701	1222.4257	10925.55	9980.6
868.7148	1224.3424	10879.65	9936.1
868.8594	1226.2583	10954.45	10006.45
869.004	1228.1735	11051.2	10108.2
869.1486	1230.0879	11164.5	10217.1
869.2932	1232.0016	11285.3	10338.35
869.4377	1233.9146	11379.35	10430.4
869.5823	1235.8269	11294.2	10345.1
869.7269	1237.7384	11175.65	10227.3
869.8715	1239.6492	11035.8	10091.8
870.016	1241.5592	10937.1	9990.4
870.1606	1243.4686	10891.6	9944.95
870.3051	1245.3772	10923.75	9977.6
870.4496	1247.285	10950.9	10002.35
870.5941	1249.1922	11007.45	10060.45
870.7387	1251.0986	11051.05	10105.75
870.8832	1253.0042	11061.05	10118.9
871.0277	1254.9092	11113.35	10169.35
871.1722	1256.8134	11215.15	10276.7
871.3167	1258.7169	11343.7	10399
871.4611	1260.6196	11485.3	10545.8
871.6056	1262.5216	11707.7	10765.05
871.7501	1264.4229	11903.3	10959.7
871.8945	1266.3234	12074.85	11129.25
872.039	1268.2232	12159.45	11215
872.1834	1270.1223	12200.4	11253.15
872.3278	1272.0207	12206.3	11258.6
872.4723	1273.9183	12189.7	11239.05
872.6167	1275.8151	12111.7	11165.25
872.7611	1277.7113	12056.05	11109.75
872.9055	1279.6067	11965.4	11021.6
873.0499	1281.5014	11997.8	11052.6
873.1943	1283.3953	12058.95	11111.85
873.3386	1285.2885	12233.35	11291.1
873.483	1287.181	12399	11453.95
873.6274	1289.0727	12598.2	11656.8
873.7717	1290.9637	12754.15	11810.75
873.9161	1292.854	12905.15	11964.8
874.0604	1294.7435	13000.75	12056.15
874.2047	1296.6323	13088.9	12149.2
874.349	1298.5204	13190.3	12244.2
874.4933	1300.4077	13283.25	12340.1
874.6376	1302.2943	13333.9	12390.75
874.7819	1304.1802	13287.55	12347.4
874.9262	1306.0653	13071.85	12128.5
875.0705	1307.9497	12803.8	11859.9
875.2147	1309.8333	12561.5	11618.55
875.359	1311.7162	12371.35	11427.8
875.5032	1313.5984	12350.45	11405.6
875.6475	1315.4798	12313.9	11368.25
875.7917	1317.3605	12382.3	11423.35
875.9359	1319.2405	12369.75	11422.8
876.0801	1321.1197	12271.5	11325
876.2243	1322.9982	12057	11110.2
876.3685	1324.876	11966.9	11023.3
876.5127	1326.753	11793.05	10850.15
876.6569	1328.6293	11728.7	10781.2
876.801	1330.5048	11672.1	10727.95
876.9452	1332.3796	11583.5	10636
877.0893	1334.2537	11589.15	10620.7
877.2335	1336.127	11501.5	10559.7
877.3776	1337.9996	11497.55	10556.3
877.5217	1339.8714	11448.95	10502.6
877.6658	1341.7426	11472.6	10481.25
877.8099	1343.6129	11435.3	10491.3
877.954	1345.4826	11419.6	10472.85
878.0981	1347.3515	11417.7	10473.75
878.2422	1349.2196	11378.35	10430.9
878.3862	1351.087	11378.2	10433.45
878.5303	1352.9537	11421.5	10474.05
878.6743	1354.8197	11558.85	10614.6
878.8184	1356.6849	11713	10770.2
878.9624	1358.5493	11832.55	10887.65
879.1064	1360.4131	11906.2	10963.1
879.2504	1362.276	11945.15	11007.1
879.3944	1364.1383	11819.95	10877.95
879.5384	1365.9998	11636.8	10690.25
879.6823	1367.8606	11272.5	10328.95
879.8263	1369.7206	10947.75	10001.85
879.9702	1371.5799	10703.6	9756.3
880.1142	1373.4384	10530.95	9585
880.2581	1375.2962	10324.25	9379.55
880.402	1377.1533	10042.8	9103.6
880.5459	1379.0096	9714.05	8776.1
880.6898	1380.8652	9418.4	8484.9
880.8337	1382.7201	9145.75	8208
880.9776	1384.5742	8910.8	7969.95
881.1215	1386.4275	8755.5	7812.35
881.2653	1388.2802	8590.7	7647.1
881.4092	1390.132	8486.95	7544.7
881.553	1391.9832	8447.2	7503.4
881.6968	1393.8336	8371.6	7428.4
881.8406	1395.6832	8314.55	7367.6
881.9844	1397.5322	8274.5	7331.9
882.1282	1399.3803	8277	7331.5
882.272	1401.2278	8223.45	7282.75
882.4158	1403.0745	8257.9	7317.1
882.5595	1404.9204	8229.5	7289.5
882.7033	1406.7656	8245.55	7305.55
882.847	1408.6101	8252.1	7309.8
882.9908	1410.4538	8272.15	7334.2
883.1345	1412.2968	8326	7387.2
883.2782	1414.139	8391.8	7451.8
883.4219	1415.9805	8478.95	7540
883.5656	1417.8213	8533.35	7586.5
883.7092	1419.6613	8670.35	7730.5
883.8529	1421.5006	8851.6	7913.9
883.9965	1423.3391	9065.55	8126.6
884.1402	1425.1769	9395.5	8452.45
884.2838	1427.0139	9844.45	8901.65
884.4274	1428.8502	10413.8	9471.2
884.571	1430.6858	10972.05	10033.4
884.7146	1432.5206	11382.8	10447.45
884.8582	1434.3547	11618.5	10679.5
885.0018	1436.188	11638.45	10699.15
885.1453	1438.0206	11564.55	10627.1
885.2889	1439.8524	11405.9	10464.5
885.4324	1441.6835	11273.65	10333.7
885.5759	1443.5139	11174.65	10232.5
885.7194	1445.3435	11098.45	10157.75
885.8629	1447.1724	11072.3	10134.8
886.0064	1449.0005	11006.7	10073.25
886.1499	1450.8279	10924.75	9986.1
886.2933	1452.6545	10875.25	9942.15
886.4368	1454.4804	10887.45	9948.95
886.5802	1456.3056	10871.4	9926.45
886.7237	1458.13	10818.4	9883.35
886.8671	1459.9536	10619.5	9680.4
887.0105	1461.7766	10286.8	9348.9
887.1539	1463.5987	9934.85	8994.8
887.2972	1465.4202	9561.05	8624.75
887.4406	1467.2409	9195.75	8255.05
887.584	1469.0608	8917.75	7980.6
887.7273	1470.88	8651.45	7711.15
887.8706	1472.6984	8436.5	7501.5
888.0139	1474.5161	8245.15	7305.4
888.1572	1476.3331	8080.6	7144.3
888.3005	1478.1493	7958.75	7021.35
888.4438	1479.9648	7866.85	6933.25
888.5871	1481.7795	7769.6	6831.6
888.7303	1483.5935	7690.3	6753.35
888.8736	1485.4067	7651.95	6714.65
889.0168	1487.2192	7593.85	6654.5
889.16	1489.031	7539.5	6601.35
889.3032	1490.842	7503.5	6565.7
889.4464	1492.6522	7479.2	6540.9
889.5896	1494.4618	7433.65	6495.6
889.7327	1496.2705	7392.2	6457.05
889.8759	1498.0785	7379.45	6445.5
890.019	1499.8858	7342.95	6405.75
890.1622	1501.6924	7308.15	6373.15
890.3053	1503.4981	7273.4	6336.3
890.4484	1505.3032	7245.4	6308.55
890.5914	1507.1075	7227.95	6290.55
890.7345	1508.911	7176.55	6242.2
890.8776	1510.7138	7141.45	6200.95
891.0206	1512.5159	7077.65	6143.75
891.1637	1514.3172	7045.8	6111.25
891.3067	1516.1178	7009.2	6077.7
891.4497	1517.9176	6968.35	6031.45
891.5927	1519.7166	6929.45	5994.55
891.7357	1521.515	6910.55	5972.05
891.8786	1523.3126	6863.85	5933.65
892.0216	1525.1094	6858.2	5923.35
892.1645	1526.9055	6825	5892.25
892.3074	1528.7008	6821.2	5891.2
892.4503	1530.4954	6781.25	5848.4
892.5932	1532.2893	6767.85	5838.65
892.7361	1534.0824	6728.1	5792.35
892.879	1535.8747	6734.2	5806.8
893.0218	1537.6663	6712.6	5783
893.1647	1539.4572	6694.95	5766.85
893.3075	1541.2473	6698.25	5771.6
893.4503	1543.0367	6701.6	5775.1
893.5931	1544.8253	6689.85	5758.4
893.7359	1546.6132	6707.85	5777.25
893.8787	1548.4003	6714.7	5774.9
894.0214	1550.1867	6753.15	5816.15
894.1642	1551.9723	6800.95	5870.85
894.3069	1553.7572	6853.5	5925.95
894.4496	1555.5414	6896.4	5970.6
894.5923	1557.3247	6983.1	6058.45
894.735	1559.1074	7097.8	6178.2
894.8777	1560.8893	7177.9	6254.75
895.0204	1562.6705	7301.65	6378.9
895.163	1564.4509	7395.75	6473.95
895.3056	1566.2305	7434.2	6517.95
895.4482	1568.0094	7503.8	6584.65
895.5908	1569.7876	7530.85	6612.2
895.7334	1571.565	7539.95	6617.1
895.876	1573.3417	7531.95	6610.35
896.0186	1575.1176	7529.5	6607.65
896.1611	1576.8928	7489.75	6572.65
896.3036	1578.6672	7399.4	6484.8
896.4461	1580.4409	7344.25	6430.3
896.5886	1582.2138	7293.1	6377.2
896.7311	1583.986	7230.4	6313.95
896.8736	1585.7575	7219.6	6301.1
897.0161	1587.5282	7190.8	6277.55
897.1585	1589.2981	7197.15	6285.45
897.3009	1591.0673	7204.8	6292.35
897.4433	1592.8358	7240.8	6326.05
897.5857	1594.6035	7283.85	6366.15
897.7281	1596.3704	7334.9	6416.7
897.8705	1598.1366	7380.85	6466.4
898.0128	1599.9021	7440.4	6528.4
898.1551	1601.6668	7517.6	6601.6
898.2975	1603.4308	7637.8	6717.45
898.4398	1605.194	7770.1	6850.9
898.5821	1606.9564	7909	7000.25
898.7243	1608.7182	8093.7	7188.45
898.8666	1610.4791	8281.45	7379.7
899.0088	1612.2394	8476.3	7576.4
899.1511	1613.9988	8720.3	7819.9
899.2933	1615.7576	8952.95	8045.85
899.4355	1617.5156	9153.6	8231.6
899.5776	1619.2728	9309.3	8394.25
899.7198	1621.0293	9363.7	8449
899.862	1622.785	9325.9	8414.3
900.0041	1624.54	9182.35	8271.95
900.1462	1626.2942	8946.95	8038.4
900.2883	1628.0477	8675.3	7765
900.4304	1629.8005	8436.55	7525.6
900.5725	1631.5525	8191.3	7284.9
900.7145	1633.3037	7995.65	7090.15
900.8566	1635.0542	7839.6	6932.45
900.9986	1636.804	7725	6817.5
901.1406	1638.553	7707.4	6741.8
901.2826	1640.3013	7645.6	6736.05
901.4245	1642.0488	7626.05	6717.1
901.5665	1643.7955	7656.4	6752.1
901.7085	1645.5416	7708	6805.05
901.8504	1647.2868	7810.65	6906.6
901.9923	1649.0313	7916.95	7011.4
902.1342	1650.7751	8046	7133.45
902.2761	1652.5181	8223.7	7318.5
902.4179	1654.2604	8417.65	7514.4
902.5598	1656.0019	8660.8	7758.05
902.7016	1657.7427	8951.65	8046.75
902.8434	1659.4828	9237.95	8329.25
902.9852	1661.222	9400.65	8490.3
903.127	1662.9606	9376.3	8467.6
903.2687	1664.6984	9137.8	8228.25
903.4105	1666.4354	8754.75	7842.15
903.5522	1668.1717	8216.65	7304.65
903.6939	1669.9072	7701	6790.1
903.8356	1671.642	7245.45	6330.1
903.9773	1673.3761	6865.85	5958.65
904.119	1675.1094	6556.5	5649.75
904.2606	1676.8419	6324.5	5417.7
904.4022	1678.5737	6161.75	5251.25
904.5439	1680.3048	6001.75	5090.05
904.6855	1682.0351	5897.4	4989.25
904.827	1683.7646	5804.85	4891.7
904.9686	1685.4934	5728.2	4821.55
905.1101	1687.2215	5645.05	4738
905.2517	1688.9488	5595.4	4691.7
905.3932	1690.6754	5539.6	4634.85
905.5347	1692.4012	5511.05	4603.3
905.6761	1694.1263	5467.2	4558.15
905.8176	1695.8506	5429.3	4520.75
905.9591	1697.5742	5391.05	4486
906.1005	1699.297	5340.2	4437.3
906.2419	1701.0191	5323.45	4420.35
906.3833	1702.7404	5289.15	4388.15
906.5246	1704.461	5267.05	4363.15
906.666	1706.1808	5240.5	4332.55
906.8073	1707.8999	5199	4297.35
906.9487	1709.6182	5179.45	4280.9
907.09	1711.3358	5137.45	4238.9
907.2313	1713.0527	5111.85	4214.1
907.3725	1714.7688	5096.3	4191.6
907.5138	1716.4841	5078.05	4173.5
907.655	1718.1987	5077.4	4168
907.7962	1719.9126	5035.65	4136.95
907.9374	1721.6257	5023.1	4124.6
908.0786	1723.338	4998.55	4100.65
908.2198	1725.0496	4979.45	4078.35
908.3609	1726.7605	4958.4	4056.2
908.502	1728.4706	4959.75	4057.7
908.6431	1730.18	4923.65	4022.85
908.7842	1731.8886	4910.6	4011.1
908.9253	1733.5964	4920.9	4003.9
909.0664	1735.3036	4893.9	3992.35
909.2074	1737.0099	4866.1	3968.15
909.3484	1738.7156	4838.45	3941.7
909.4894	1740.4204	4803.35	3903
909.6304	1742.1246	4804.15	3904.85
909.7714	1743.8279	4783.6	3885.25
909.9123	1745.5306	4768.2	3872.15
910.0532	1747.2325	4753.75	3857.85
910.1941	1748.9336	4725.35	3825.1
910.335	1750.634	4699.8	3798.25
910.4759	1752.3336	4704.4	3803.75
910.6168	1754.0325	4692.35	3798.9
910.7576	1755.7307	4678.95	3783
910.8984	1757.4281	4679.4	3778.9
911.0392	1759.1247	4664.35	3755
911.18	1760.8206	4633.85	3727.4
911.3208	1762.5158	4641.75	3735.75
911.4615	1764.2102	4617.1	3718.95
911.6022	1765.9039	4608.45	3710.5
911.7429	1767.5968	4598.4	3703
911.8836	1769.289	4581.85	3685.65
912.0243	1770.9804	4573.85	3672.65
912.1649	1772.6711	4553.1	3652.85
912.3056	1774.361	4557.2	3656.3
912.4462	1776.0502	4546.8	3645.6
912.5868	1777.7386	4538.3	3634.95
912.7274	1779.4263	4510.3	3612.35
912.8679	1781.1132	4520.85	3628.15
913.0084	1782.7994	4492.25	3597.9
913.149	1784.4849	4485.35	3592.75
913.2895	1786.1696	4476	3562.3
913.4299	1787.8535	4462.5	3569.75
913.5704	1789.5367	4463.45	3572.45
913.7108	1791.2192	4453.75	3560.6
913.8513	1792.9009	4445.35	3520.85
913.9917	1794.5818	4434.2	3530.85
914.132	1796.2621	4419.35	3520.8
914.2724	1797.9415	4402.4	3505.4
914.4128	1799.6202	4396.3	3497.45
914.5531	1801.2982	4391.6	3492.2
914.6934	1802.9755	4387.6	3489
914.8337	1804.6519	4394.8	3497.7
914.9739	1806.3277	4372.35	3476.25
915.1142	1808.0027	4342.5	3447
915.2544	1809.6769	4351.55	3460.15
915.3946	1811.3504	4312.2	3420.55
915.5348	1813.0231	4323.5	3429.55
915.675	1814.6951	4308.55	3416.45
915.8151	1816.3664	4321.9	3424.75
915.9553	1818.0369	4312.05	3414.3
916.0954	1819.7067	4294.25	3398.75
916.2355	1821.3757	4297.95	3396.25
916.3755	1823.044	4285.55	3387.45
916.5156	1824.7115	4286.15	3388.55
916.6556	1826.3783	4254.2	3355.7
916.7956	1828.0443	4246.6	3351.75
916.9356	1829.7096	4237.4	3339.6
917.0756	1831.3741	4222.15	3322.55
917.2155	1833.0379	4209.35	3316.3
917.3555	1834.701	4209.95	3315.4
917.4954	1836.3633	4201.85	3310.5
917.6353	1838.0248	4189.95	3295.6
917.7751	1839.6856	4179.1	3283.7
917.915	1841.3457	4182.45	3286.1
918.0548	1843.005	4184.85	3287.55
918.1946	1844.6636	4162.55	3266.8
918.3344	1846.3214	4158.25	3263.05
918.4742	1847.9785	4171.4	3276
918.6139	1849.6349	4160.4	3260.45
918.7537	1851.2904	4159.9	3252.6
918.8934	1852.9453	4134.6	3236.15
919.0331	1854.5994	4133	3231.55
919.1727	1856.2528	4129.15	3224.25
919.3124	1857.9054	4116.05	3218.7
919.452	1859.5572	4124.85	3229.4
919.5916	1861.2083	4102.65	3206.6
919.7312	1862.8587	4088.3	3190.25
919.8708	1864.5084	4104.45	3204.35
920.0103	1866.1572	4091.85	3193.8
920.1498	1867.8054	4060.7	3161.65
920.2893	1869.4528	4051.55	3151.7
920.4288	1871.0994	4045.95	3146.6
920.5683	1872.7453	4039.45	3141.3
920.7077	1874.3905	4043.4	3128.85
920.8471	1876.0349	4032.45	3134.8
920.9865	1877.6786	4021.65	3123.4
921.1259	1879.3215	4006.9	3113.15
921.2653	1880.9637	3997.45	3099.7
921.4046	1882.6051	3980.4	3086.05
921.5439	1884.2458	3994.4	3096.15
921.6832	1885.8858	3978	3081.3
921.8225	1887.525	3956.7	3058.5
921.9617	1889.1634	3952.25	3053.4
922.101	1890.8011	3951.95	3053.8
922.2402	1892.4381	3942.85	3047.2
922.3794	1894.0743	3935	3040.4
922.5185	1895.7098	3932.95	3035.2
922.6577	1897.3446	3917.45	3019.3
922.7968	1898.9786	3910.15	3008.75
922.9359	1900.6118	3902.7	3008.65
923.075	1902.2443	3876.95	2981.9
923.214	1903.8761	3880.65	2983.6
923.3531	1905.5071	3849.9	2953.15
923.4921	1907.1374	3865.35	2967.7
923.6311	1908.7669	3854.9	2959.2
923.77	1910.3957	3840.1	2945.1
923.909	1912.0237	3832.9	2935.55
924.0479	1913.651	3828.15	2932.75
924.1868	1915.2776	3818.5	2924.9
924.3257	1916.9034	3794.45	2901.35
924.4646	1918.5285	3778.15	2884.95
924.6034	1920.1528	3780.2	2886.45
924.7422	1921.7764	3770.1	2874.55
924.881	1923.3992	3760.35	2866.55
925.0198	1925.0213	3739.45	2846.2
925.1586	1926.6427	3740.05	2844.85
925.2973	1928.2633	3890.4	2791.5
925.436	1929.8832	3732	2832.55
925.5747	1931.5023	3708.2	2812.1
925.7134	1933.1207	3697.6	2802.65
925.852	1934.7383	3689.55	2793.95
925.9906	1936.3552	3673.25	2778.55
926.1292	1937.9714	3665.35	2770.8
926.2678	1939.5868	3654.55	2758
926.4064	1941.2015	3636.3	2739.85
926.5449	1942.8154	3650.75	2754.5
926.6834	1944.4286	3619.2	2722.55
926.8219	1946.041	3629.2	2712.75
926.9604	1947.6528	3601.05	2700.9
927.0988	1949.2637	3598.95	2702.95
927.2372	1950.8739	3586.6	2689.8
927.3756	1952.4834	3575.35	2679.15
927.514	1954.0921	3566.7	2675.3
927.6523	1955.7001	3569.6	2673.1
927.7907	1957.3074	3550.5	2659.6
927.929	1958.9139	3535.6	2645.7
928.0673	1960.5197	3530.55	2638.5
928.2055	1962.1247	3524.7	2632.25
928.3438	1963.729	3503.1	2612.2
928.482	1965.3325	3498.8	2604.05
928.6202	1966.9353	3513.45	2624.75
928.7584	1968.5374	3492.3	2602.4
928.8965	1970.1387	3479.65	2589.1
929.0346	1971.7393	3453.95	2563.5
929.1727	1973.3392	3455.6	2563
929.3108	1974.9383	3441.4	2553.3
929.4489	1976.5366	3419.8	2532.4
929.5869	1978.1342	3419.85	2532.05
929.7249	1979.7311	3409.5	2519.8
929.8629	1981.3273	3392.5	2504.55
930.0009	1982.9227	3405.3	2515.4
930.1388	1984.5173	3379.15	2492.15
930.2767	1986.1112	3372.1	2485.8
930.4146	1987.7044	3372.7	2486.1
930.5525	1989.2968	3363.2	2474.1
930.6904	1990.8885	3336.75	2445.9
930.8282	1992.4795	3359.8	2471.9
930.966	1994.0697	3349.2	2464.55
931.1038	1995.6592	3316.75	2430.15
931.2415	1997.2479	3328.3	2440
931.3793	1998.8359	3321.3	2434.65
931.517	2000.4232	3293.75	2411.2
931.6547	2002.0097	3283.95	2403.9
931.7923	2003.5955	3282.1	2396.9
931.93	2005.1805	3288.65	2404.6
932.0676	2006.7648	3268.7	2382.8
932.2052	2008.3484	3276.15	2392.85
932.3427	2009.9312	3269.35	2384.3
932.4803	2011.5133	3261.65	2380.4
932.6178	2013.0946	3247.15	2367.65
932.7553	2014.6752	3246.35	2364.3
932.8928	2016.2551	3237.65	2355.05
933.0302	2017.8342	3229.4	2346.05
933.1676	2019.4126	3210	2329
933.305	2020.9902	3206.6	2324.95
933.4424	2022.5672	3208.55	2326.5
933.5798	2024.1433	3198.7	2312.65
933.7171	2025.7188	3196.5	2317.95
933.8544	2027.2935	3179.75	2297.1
933.9917	2028.8674	3160.65	2280.85
934.129	2030.4406	3173.1	2294.3
934.2662	2032.0131	3160.55	2282.8
934.4034	2033.5849	3159.45	2278.95
934.5406	2035.1559	3140.55	2260.5
934.6778	2036.7261	3145.55	2262.2
934.8149	2038.2957	3145.8	2258.15
934.952	2039.8645	3134.35	2247.9
935.0891	2041.4325	3130.6	2242.75
935.2262	2042.9998	3122.65	2238
935.3632	2044.5664	3115	2230.8
935.5002	2046.1323	3103.4	2221.75
935.6372	2047.6974	3088.05	2207.55
935.7742	2049.2617	3086.15	2206.6
935.9111	2050.8254	3116.1	2199.1
936.048	2052.3883	3093.2	2206.6
936.1849	2053.9504	3096.95	2210.3
936.3218	2055.5118	3078.75	2191.45
936.4586	2057.0725	3064.35	2176.65
936.5955	2058.6325	3066.8	2182.4
936.7323	2060.1917	3047.45	2165.1
936.869	2061.7502	3048.55	2164.2
937.0058	2063.3079	3029.3	2150.2
937.1425	2064.8649	3029.1	2146.15
937.2792	2066.4212	3037.15	2153.8
937.4159	2067.9767	3031.1	2148.8
937.5525	2069.5315	3022.95	2137.95
937.6891	2071.0856	3008.15	2124.35
937.8257	2072.6389	3005.2	2123.8
937.9623	2074.1915	2978	2097.85
938.0989	2075.7433	2966.2	2080.7
938.2354	2077.2945	2968.05	2085.5
938.3719	2078.8448	2980.25	2094.7
938.5084	2080.3945	2966.7	2081.8
938.6448	2081.9434	2967	2081.15
938.7812	2083.4916	2955.75	2069.55
938.9176	2085.039	2951.1	2059
939.054	2086.5857	2944.15	2049.8
939.1903	2088.1317	2940.95	2048.85
939.3267	2089.677	2927.05	2031.55
939.463	2091.2215	2919.45	2027.3
939.5992	2092.7652	2923.9	2027.9
939.7355	2094.3083	2918.8	2028.8
939.8717	2095.8506	2907.75	2021.15
940.0079	2097.3921	2907.1	2017.1
940.1441	2098.933	2893.15	2005.85
940.2802	2100.4731	2884.05	1994.75
940.4163	2102.0124	2893.7	1998.75
940.5524	2103.5511	2882.6	1994.35
940.6885	2105.089	2881.6	1989.85
940.8245	2106.6261	2870.65	1984.05
940.9606	2108.1626	2871.3	1983.2
941.0965	2109.6983	2893.95	1979
941.2325	2111.2332	2862.2	1973.4
941.3684	2112.7675	2852.8	1965.55
941.5044	2114.301	2856.4	1967.15
941.6403	2115.8337	2846.65	1957.5
941.7761	2117.3657	2840	1951.3
941.912	2118.897	2833.05	1943.85
942.0478	2120.4276	2831.3	1932.75
942.1835	2121.9575	2821.1	1930.65
942.3193	2123.4866	2822.05	1931.75
942.455	2125.0149	2819.5	1927.15
942.5907	2126.5426	2793.4	1909.55
942.7264	2128.0695	2782	1895.1
942.8621	2129.5956	2784.85	1904.35
942.9977	2131.1211	2793.5	1904.45
943.1333	2132.6458	2781.55	1894.65
943.2689	2134.1698	2777	1886.6
943.4044	2135.693	2777.55	1883.25
943.54	2137.2155	2785	1892.05
943.6755	2138.7373	2774.85	1885.55
943.8109	2140.2584	2758.3	1874.4
943.9464	2141.7787	2752.4	1863.2
944.0818	2143.2983	2723.55	1841.6
944.2172	2144.8171	2722.2	1842.25
944.3526	2146.3353	2726	1843.1
944.4879	2147.8527	2711.5	1827.25
944.6232	2149.3693	2718.5	1830.65
944.7585	2150.8853	2721	1830.75
944.8938	2152.4005	2711.55	1819.9
945.029	2153.9149	2708.6	1817.4
945.1642	2155.4287	2704.55	1813.3
945.2994	2156.9417	2699.3	1809.1
945.4346	2158.454	2701.55	1813.2
945.5697	2159.9655	2691.35	1806.85
945.7048	2161.4764	2690.55	1804.75
945.8399	2162.9865	2665.7	1779
945.9749	2164.4958	2674.2	1790.25
946.1099	2166.0045	2668.6	1782.35
946.2449	2167.5124	2676.65	1790.95
946.3799	2169.0195	2662.1	1774.25
946.5148	2170.526	2662.2	1771.05
946.6498	2172.0317	2647.3	1758.05
946.7846	2173.5367	2634.7	1745.4
946.9195	2175.0409	2648.4	1761.3
947.0543	2176.5445	2650.35	1763.55
947.1891	2178.0473	2634.75	1744.4
947.3239	2179.5494	2621.6	1729.3
947.4587	2181.0507	2616.95	1730.25
947.5934	2182.5513	2622.1	1735.15
947.7281	2184.0512	2602.45	1712.5
947.8628	2185.5504	2602.6	1714.35
947.9974	2187.0488	2587	1699.55
948.132	2188.5465	2587.7	1703.3
948.2666	2190.0435	2578.1	1691.4
948.4012	2191.5397	2593.6	1703.65
948.5357	2193.0353	2578.3	1689.45
948.6702	2194.5301	2569.25	1673.4
948.8047	2196.0241	2564.7	1671.65
948.9392	2197.5175	2562.9	1668.1
949.0736	2199.0101	2568.85	1669.35
949.208	2200.502	2545.95	1655.25
949.3424	2201.9931	2544.5	1656.25
949.4767	2203.4835	2534.75	1648.55
949.611	2204.9733	2534.8	1643.8
949.7453	2206.4622	2526.4	1642.95
949.8796	2207.9505	2516.9	1631.85
950.0138	2209.438	2507.6	1625.9
950.148	2210.9248	2498.5	1612.65
950.2822	2212.4109	2504.15	1617.85
950.4164	2213.8962	2504.4	1610.55
950.5505	2215.3809	2503.75	1608.35
950.6846	2216.8648	2499.35	1602.6
950.8186	2218.3479	2505.6	1607.45
950.9527	2219.8304	2491	1592.65
951.0867	2221.3121	2480.1	1584.15
951.2207	2222.7931	2469.6	1577.05
951.3546	2224.2733	2457.4	1565.15
951.4886	2225.7529	2458.75	1570.3
951.6225	2227.2317	2441.9	1551.75
951.7563	2228.7098	2450.05	1566.45
951.8902	2230.1872	2429.1	1543.65
952.024	2231.6638	2433.35	1548.9
952.1578	2233.1397	2424.1	1533.4
952.2916	2234.6149	2413.5	1526.15
952.4253	2236.0894	2423.85	1535.65
952.559	2237.5632	2421.9	1525.3
952.6927	2239.0362	2407.8	1518.6
952.8263	2240.5085	2404.85	1517.4
952.9599	2241.9801	2406.9	1517.65
953.0935	2243.4509	2408.7	1516.5
953.2271	2244.921	2388.65	1495.8
953.3606	2246.3904	2385.5	1489.3
953.4941	2247.8591	2371.45	1481.05
953.6276	2249.3271	2369.15	1478.5
953.7611	2250.7943	2366.5	1473.25
953.8945	2252.2608	2371.7	1479.2
954.0279	2253.7266	2371.95	1481.2
954.1612	2255.1917	2364.25	1475.6
954.2946	2256.656	2340.15	1451.8
954.4279	2258.1197	2338.3	1452.3
954.5612	2259.5826	2344.5	1454.3
954.6944	2261.0447	2339.4	1448.5
954.8276	2262.5062	2336.45	1444.55
954.9608	2263.9669	2339.3	1446.25
955.094	2265.4269	2335.85	1446.1
955.2271	2266.8862	2326.5	1436.9
955.3602	2268.3448	2321.3	1433.2
955.4933	2269.8026	2309.65	1421.1
955.6264	2271.2598	2310.4	1422.7
955.7594	2272.7162	2296.9	1410.55
955.8924	2274.1719	2287.05	1393.55
956.0253	2275.6268	2305.55	1413.15
956.1583	2277.0811	2292.3	1399.5
956.2912	2278.5346	2299.25	1410.7
956.4241	2279.9874	2286.7	1398.4
956.5569	2281.4395	2299.45	1416.35
956.6897	2282.8908	2287.15	1395.4
956.8225	2284.3414	2285.35	1395.85
956.9553	2285.7914	2281.9	1392.3
957.088	2287.2406	2274.5	1381.95
957.2207	2288.689	2264.95	1373.55
957.3534	2290.1368	2271.05	1375.9
957.486	2291.5838	2272.4	1375.3
957.6186	2293.0302	2254.15	1356.2
957.7512	2294.4758	2250	1356.85
957.8838	2295.9206	2248.1	1355.4
958.0163	2297.3648	2247.55	1360.85
958.1488	2298.8082	2242.75	1352.1
958.2813	2300.251	2243.25	1352.9
958.4137	2301.693	2234.65	1340
958.5461	2303.1343	2237.95	1345.8
958.6785	2304.5748	2231.1	1340.45
958.8108	2306.0147	2224.6	1335
958.9432	2307.4538	2216.35	1327.35
959.0754	2308.8922	2208.25	1324.45
959.2077	2310.3299	2209.75	1321.7
959.3399	2311.7669	2200.65	1313.6
959.4721	2313.2031	2201.75	1316.2
959.6043	2314.6387	2207.1	1316.9
959.7365	2316.0735	2196.3	1305.2
959.8686	2317.5076	2185.35	1295.7
960.0006	2318.941	2180.35	1287.45
960.1327	2320.3737	2193.4	1300.35
960.2647	2321.8056	2180.85	1285.8
960.3967	2323.2369	2171.75	1281.25
960.5287	2324.6674	2175.4	1283
960.6606	2326.0972	2160.55	1269.1
960.7925	2327.5263	2166.85	1275.65
960.9244	2328.9547	2162.95	1271.25
961.0562	2330.3823	2158.7	1265.2
961.1881	2331.8092	2160.35	1263.55
961.3198	2333.2355	2147.65	1254.65
961.4516	2334.661	2149.35	1255.95
961.5833	2336.0858	2144.9	1249.3
961.715	2337.5098	2137.1	1245.05
961.8467	2338.9332	2136.95	1244.55
961.9783	2340.3558	2127.4	1233.7
962.1099	2341.7778	2128.85	1240.5
962.2415	2343.199	2126.05	1233.95
962.373	2344.6195	2125.8	1236.6
962.5045	2346.0393	2133.05	1243.95
962.636	2347.4583	2116.7	1226.2
962.7675	2348.8767	2105.1	1212.45
962.8989	2350.2943	2121.8	1230.25
963.0303	2351.7113	2117.35	1223.2
963.1617	2353.1275	2101.35	1206.25
963.293	2354.543	2116.25	1214.45
963.4243	2355.9578	2111.25	1218.55
963.5556	2357.3718	2086.6	1198.4
963.6868	2358.7852	2091.05	1201.6
963.818	2360.1978	2085.15	1198.6
963.9492	2361.6098	2080.65	1193
964.0803	2363.021	2095.05	1202.45
964.2114	2364.4315	2086.75	1196.35
964.3425	2365.8413	2080.1	1189.25
964.4736	2367.2504	2068.3	1182.1
964.6046	2368.6587	2062.35	1177.6
964.7356	2370.0664	2054.85	1166.6
964.8666	2371.4733	2062.3	1173.9
964.9975	2372.8795	2055.15	1166.95
965.1284	2374.285	2043.8	1153.7
965.2593	2375.6899	2045.65	1155.85
965.3901	2377.0939	2034	1146.3
965.5209	2378.4973	2030.65	1142.25
965.6517	2379.9	2025.35	1137.05
965.7825	2381.3019	2032	1142.6
965.9132	2382.7032	2026.3	1138.8
966.0439	2384.1037	2024.25	1141.35
966.1745	2385.5035	2008.9	1125
966.3051	2386.9027	1997.55	1113.4
966.4357	2388.3011	2016.25	1127.15
966.5663	2389.6987	2004.2	1118.95
966.6968	2391.0957	1994.55	1110.7
966.8273	2392.492	1998.2	1113.15
966.9578	2393.8876	1982.1	1096.15
967.0882	2395.2824	1975.1	1088.9
967.2186	2396.6765	1981.6	1097.6
967.349	2398.07	1980.9	1093.1
967.4793	2399.4627	1971.3	1081.85
967.6097	2400.8547	1973.65	1084.4
967.7399	2402.246	1974.6	1079.3
967.8702	2403.6366	1968	1080.9
968.0004	2405.0265	1957.8	1072.35
968.1306	2406.4156	1961.9	1071.9
968.2607	2407.8041	1951.8	1062.65
968.3909	2409.1918	1952.15	1062.9
968.521	2410.5789	1946.9	1059.85
968.651	2411.9652	1943.6	1054.05
968.781	2413.3508	1942.95	1055.1
968.911	2414.7358	1936.85	1047.2
969.041	2416.12	1928.85	1043.9
969.1709	2417.5035	1936.2	1051.75
969.3008	2418.8863	1929.6	1042.45
969.4307	2420.2684	1931.95	1044.1
969.5606	2421.6497	1922.1	1032.55
969.6904	2423.0304	1910.85	1025.65
969.8201	2424.4104	1921.85	1035.95
969.9499	2425.7896	1907.95	1020.25
970.0796	2427.1682	1918.35	1030.25
970.2093	2428.546	1904.6	1016.6
970.3389	2429.9232	1904.45	1013.75
970.4685	2431.2996	1903.45	1015.35
970.5981	2432.6753	1894.55	1006.1
970.7277	2434.0503	1899.05	1009
970.8572	2435.4246	1879.95	993.3
970.9867	2436.7982	1887.1	995.85
971.1161	2438.1711	1889.35	1001.5
971.2456	2439.5433	1883.85	993.75
971.375	2440.9148	1879.85	986.85
971.5043	2442.2856	1873.6	985.95
971.6336	2443.6557	1867.8	976.9
971.7629	2445.025	1869.1	981.55
971.8922	2446.3937	1862.15	974.7
972.0214	2447.7617	1861.15	972.95
972.1506	2449.1289	1855.85	968.05
972.2798	2450.4955	1853.9	961.5
972.4089	2451.8613	1845.1	958.85
972.538	2453.2265	1849.55	961.9
972.6671	2454.5909	1857.65	969.35
972.7961	2455.9546	1846.7	957.4
972.9251	2457.3177	1835.5	948.65
973.0541	2458.68	1835.8	946.9
973.1831	2460.0416	1840.45	954
973.312	2461.4025	1843.35	954.65
973.4408	2462.7627	1842.1	943.7
973.5697	2464.1222	1824.65	939
973.6985	2465.4811	1834.65	948.85
973.8273	2466.8392	1824.85	939.2
973.956	2468.1966	1827.15	938.25
974.0847	2469.5533	1834.8	943.15
974.2134	2470.9093	1829.25	940.8
974.3421	2472.2645	1820.45	931.2
974.4707	2473.6191	1824.85	935.7
974.5993	2474.973	1816.75	926.85
974.7278	2476.3262	1817.85	929.1
974.8563	2477.6787	1809.6	924.65
974.9848	2479.0305	1808.85	921.15
975.1132	2480.3816	1800.4	912.7
975.2417	2481.7319	1803.15	914.15
975.37	2483.0816	1798.05	908.45
975.4984	2484.4306	1793.4	905.3
975.6267	2485.7789	1800.7	914.45
975.755	2487.1264	1787.5	900.2
975.8833	2488.4733	1777.85	892.55
976.0115	2489.8195	1787.4	885.15
976.1397	2491.165	1788.15	898.1
976.2678	2492.5097	1775.8	889.3
976.3959	2493.8538	1772.35	886.1
976.524	2495.1972	1765.55	880.05
976.6521	2496.5398	1771.6	882.25
976.7801	2497.8818	1764.6	874.8
976.9081	2499.2231	1763.85	873.85
977.036	2500.5637	1758.3	864.9
977.164	2501.9035	1754.05	865.1
977.2918	2503.2427	1758.9	866.6
977.4197	2504.5812	1760	872.75
977.5475	2505.919	1754.95	866.45
977.6753	2507.256	1757.4	870.2
977.8031	2508.5924	1744.9	857.15
977.9308	2509.9281	1746.35	851.4
978.0585	2511.2631	1734.6	847.85
978.1861	2512.5974	1739.05	850.45
978.3137	2513.9309	1742.25	853.95
978.4413	2515.2638	1758.1	841.45
978.5689	2516.596	1739.65	851.55
978.6964	2517.9275	1730.55	839
978.8239	2519.2583	1723	834.95
978.9513	2520.5884	1726.65	837.15
979.0788	2521.9178	1711.65	823.75
979.2062	2523.2465	1715.15	828.9
979.3335	2524.5745	1713.3	826.3
979.4608	2525.9018	1712.65	824.2
979.5881	2527.2284	1706.15	818.2
979.7154	2528.5543	1701.4	813.8
979.8426	2529.8796	1696.85	808.65
979.9698	2531.2041	1704.85	819.1
980.0969	2532.5279	1703.4	816.6
980.224	2533.851	1709.7	821.8
980.3511	2535.1735	1698.7	807.6
980.4781	2536.4952	1697.85	808.95
980.6052	2537.8163	1707	817.9
980.7321	2539.1366	1697.65	810
980.8591	2540.4562	1688.15	797.7
980.986	2541.7752	1692.5	805.45
981.1129	2543.0935	1693.5	804.4
981.2397	2544.411	1690.85	800.85
981.3665	2545.7279	1684.7	795.9
981.4933	2547.0441	1686.85	797.1
981.62	2548.3596	1683.1	792.75
981.7467	2549.6744	1684	794.65
981.8734	2550.9885	1677.7	787.25
982.0001	2552.3019	1672	784.55
982.1267	2553.6146	1670.9	783.95
982.2532	2554.9266	1673.65	785.8
982.3798	2556.2379	1667.65	778.4
982.5063	2557.5485	1669.7	782.35
982.6327	2558.8585	1667.35	770.4
982.7592	2560.1677	1673.45	781.3
982.8856	2561.4762	1665.4	777
983.0119	2562.7841	1666.85	775.25
983.1383	2564.0913	1661.35	776
983.2646	2565.3977	1653.55	763.8
983.3908	2566.7035	1654.15	765.55
983.517	2568.0086	1658.3	768.8
983.6432	2569.313	1652.1	762.7
983.7694	2570.6167	1658.35	764.6
983.8955	2571.9197	1644.4	757.1
984.0216	2573.222	1649.85	756.35
984.1476	2574.5236	1643.1	752.9
984.2737	2575.8246	1648.35	758.3
984.3996	2577.1248	1641.75	750.55
984.5256	2578.4244	1635.65	748.6
984.6515	2579.7232	1653.15	766.35
984.7774	2581.0214	1675.5	761.55
984.9032	2582.3189	1643.35	755.35
985.029	2583.6157	1644.55	751.55
985.1548	2584.9118	1640	751.25
985.2806	2586.2072	1645.8	757.35
985.4063	2587.5019	1637.75	749.15
985.5319	2588.7959	1643.7	753.4
985.6576	2590.0893	1644.7	755.7
985.7832	2591.3819	1639.3	750.25
985.9087	2592.6739	1637.15	747.65
986.0343	2593.9652	1637.35	747.85
986.1597	2595.2557	1647.1	757.05
986.2852	2596.5456	1642.9	752.05
986.4106	2597.8348	1632.4	743.95
986.536	2599.1234	1637.25	748.85
986.6614	2600.4112	1637.9	750.35
986.7867	2601.6983	1647.2	753.95
986.912	2602.9848	1644.85	755.9
987.0372	2604.2705	1635.2	741.25
987.1624	2605.5556	1633.6	744.05
987.2876	2606.84	1642.75	756
987.4128	2608.1237	1634.05	746.05
987.5379	2609.4067	1630.55	742.15
987.6629	2610.689	1628.85	735.9
987.788	2611.9707	1625.1	732.55
987.913	2613.2516	1627.45	734.55
988.0379	2614.5319	1621.3	732.9
988.1629	2615.8115	1612.1	724.55
988.2878	2617.0903	1605.95	717.9
988.4126	2618.3685	1609.35	719.95
988.5375	2619.6461	1609.65	722.5
988.6622	2620.9229	1602.7	715.7
988.787	2622.199	1597.3	709.1
988.9117	2623.4745	1596.1	706.65
989.0364	2624.7493	1599.4	711.9
989.161	2626.0234	1608.15	719.65
989.2857	2627.2968	1596.5	708.5
989.4102	2628.5695	1590.75	701
989.5348	2629.8415	1592	704.6
989.6593	2631.1128	1592.8	703.3
989.7837	2632.3835	1599.75	713.75
989.9082	2633.6535	1591.5	706.85
990.0326	2634.9228	1589.25	703.1
990.1569	2636.1914	1591.7	704.35
990.2812	2637.4593	1598.2	710
990.4055	2638.7265	1594.35	705.4
990.5298	2639.9931	1580.7	691.5
990.654	2641.259	1589.9	701.15
990.7782	2642.5242	1577.95	691.45
990.9023	2643.7887	1570.65	683.75
991.0264	2645.0525	1579.1	693
991.1505	2646.3156	1573.05	685.25
991.2745	2647.5781	1574.65	687.5
991.3985	2648.8398	1564.5	678.65
991.5225	2650.1009	1606.35	682.55
991.6464	2651.3613	1566.5	679.8
991.7703	2652.6211	1561.4	677.1
991.8942	2653.8801	1555.45	669.35
992.018	2655.1385	1566.95	675.3
992.1418	2656.3961	1556.6	670.05
992.2655	2657.6531	1560.1	672.7
992.3892	2658.9094	1559.35	674.25
992.5129	2660.1651	1556.3	670.6
992.6366	2661.42	1557.9	671.5
992.7602	2662.6743	1559.85	673.25
992.8837	2663.9279	1565.05	677
993.0073	2665.1808	1555.75	668.55
993.1307	2666.433	1564.7	676.95
993.2542	2667.6846	1555.95	670.65
993.3776	2668.9354	1564.85	673.85
993.501	2670.1856	1564.95	677.7
993.6244	2671.4351	1566	677.25
993.7477	2672.6839	1569.9	680.25
993.8709	2673.9321	1567.25	681.5
993.9942	2675.1795	1564.9	677.65
994.1174	2676.4263	1576	688.65
994.2405	2677.6724	1582	696.95
994.3637	2678.9179	1583.35	694.6
994.4868	2680.1626	1575.05	688.35
994.6098	2681.4067	1577.8	689.95
994.7328	2682.6501	1569.9	681
994.8558	2683.8928	1574.7	688.65
994.9788	2685.1348	1562.95	677.2
995.1017	2686.3761	1565.95	680.1
995.2245	2687.6168	1549.3	663.35
995.3474	2688.8568	1553.7	669.3
995.4702	2690.0961	1554.35	670
995.5929	2691.3348	1553.55	665.35
995.7156	2692.5727	1544.3	657.45
995.8383	2693.81	1549.95	662.35
995.961	2695.0466	1536.8	653.25
996.0836	2696.2826	1544.9	655.85
996.2062	2697.5178	1543.05	652.1
996.3287	2698.7524	1531.05	643.4
996.4512	2699.9863	1539.15	651.35
996.5737	2701.2195	1541	656.25
996.6961	2702.452	1537.9	650.15
996.8185	2703.6839	1554.45	666.3
996.9408	2704.9151	1553.8	667.55
997.0631	2706.1456	1554.05	668.5
997.1854	2707.3755	1557.9	668.75
997.3077	2708.6046	1569.85	681.25
997.4299	2709.8331	1575.65	689.8
997.552	2711.0609	1577.1	691.2
997.6742	2712.2881	1584.15	695.3
997.7963	2713.5145	1595.5	707.65
997.9183	2714.7403	1605.9	719.75
998.0403	2715.9654	1615.9	726.55
998.1623	2717.1899	1643.7	739.65
998.2842	2718.4136	1629.45	741.45
998.4062	2719.6367	1644	758.8
998.528	2720.8591	1663.6	769.6
998.6498	2722.0809	1661.9	774.5
998.7716	2723.3019	1674.15	785.4
998.8934	2724.5223	1689.5	802.65
999.0151	2725.7421	1687.25	801.55
999.1368	2726.9611	1685.05	797.3
999.2584	2728.1795	1690.5	800.55
999.38	2729.3972	1680.45	796.2
999.5016	2730.6142	1677.25	776.7
999.6231	2731.8306	1657	770.1
999.7446	2733.0462	1641.9	755.35
999.8661	2734.2612	1623.8	733.7
999.9875	2735.4756	1605.05	719.2
1000.1089	2736.6892	1580.5	694.45
1000.2302	2737.9022	1573.75	691.1
1000.3515	2739.1145	1562.55	676.85
1000.4728	2740.3262	1558.6	663.75
1000.594	2741.5372	1540.4	656.2
1000.7152	2742.7475	1521.2	634.6
1000.8363	2743.9571	1512.55	625.45
1000.9575	2745.1661	1512.65	622.35
1001.0785	2746.3744	1497.95	610.95
1001.1996	2747.582	1492.8	606.55
1001.3206	2748.7889	1483.15	597.1
1001.4415	2749.9952	1468.6	584.55
1001.5625	2751.2008	1465.3	579
1001.6833	2752.4057	1463.45	573.85
1001.8042	2753.61	1461.7	575.5
1001.925	2754.8136	1455.85	568.2
1002.0458	2756.0165	1457.3	570.05
1002.1665	2757.2188	1452.15	567.95
1002.2872	2758.4204	1445.5	559.8
1002.4078	2759.6213	1454.95	568.4
1002.5285	2760.8215	1456.05	567.85
1002.649	2762.0211	1450.05	562.8
1002.7696	2763.22	1456.15	567.8
1002.8901	2764.4182	1441.85	551.95
1003.0106	2765.6158	1445.05	560.05
1003.131	2766.8127	1441.3	556.85
1003.2514	2768.009	1439.85	556
1003.3717	2769.2045	1434.7	548.35
1003.492	2770.3994	1432.05	543.75
1003.6123	2771.5936	1429.25	544.2
1003.7325	2772.7872	1431.45	547.5
1003.8527	2773.9801	1430.55	543.05
1003.9729	2775.1723	1441.55	539.2
1004.093	2776.3639	1425.85	541.7
1004.2131	2777.5548	1423.1	536.45
1004.3331	2778.745	1427	542.2
1004.4531	2779.9346	1427.2	543.55
1004.5731	2781.1235	1425	542.15
1004.693	2782.3117	1433	550.65
1004.8129	2783.4992	1431.15	547.45
1004.9328	2784.6861	1436.3	551.25
1005.0526	2785.8723	1437.9	552.15
1005.1723	2787.0579	1448.4	560.3
1005.2921	2788.2428	1453.5	569.55
1005.4118	2789.427	1455.65	571.35
1005.5314	2790.6106	1462.85	579.4
1005.651	2791.7935	1470.05	585.75
1005.7706	2792.9757	1485	601.75
1005.8902	2794.1573	1493.35	610.55
1006.0097	2795.3382	1506.4	619.3
1006.1291	2796.5184	1509.05	627.65
1006.2485	2797.698	1519.3	633.9
1006.3679	2798.8769	1543.4	661.45
1006.4873	2800.0551	1553.9	668.8
1006.6066	2801.2327	1566.85	680.55
1006.7258	2802.4096	1581.8	699.9
1006.8451	2803.5859	1599.05	713.25
1006.9642	2804.7615	1619.6	735.95
1007.0834	2805.9364	1647.3	764.3
1007.2025	2807.1106	1666.2	781.65
1007.3216	2808.2842	1698.25	811.8
1007.4406	2809.4572	1724.65	839.45
1007.5596	2810.6294	1755.95	870.95
1007.6785	2811.801	1790.7	909.45
1007.7975	2812.972	1829.8	945.45
1007.9163	2814.1423	1872.25	988
1008.0352	2815.3119	1919.2	1036.85
1008.154	2816.4808	1961.3	1078.7
1008.2727	2817.6491	2012.75	1128.65
1008.3914	2818.8167	2056.95	1177.05
1008.5101	2819.9837	2113.6	1227.05
1008.6288	2821.15	2152.65	1267.65
1008.7474	2822.3157	2202.85	1320.4
1008.8659	2823.4807	2258.4	1377.3
1008.9844	2824.645	2318.7	1435.05
1009.1029	2825.8086	2364.35	1481.5
1009.2214	2826.9716	2410.45	1527.15
1009.3398	2828.134	2459.5	1577.95
1009.4581	2829.2957	2485.05	1601.8
1009.5764	2830.4567	2519.1	1635.35
1009.6947	2831.617	2544.85	1661.35
1009.813	2832.7767	2564.85	1681.5
1009.9312	2833.9358	2542.85	1662.75
1010.0493	2835.0941	2554.05	1667.6
1010.1675	2836.2519	2549	1665.05
1010.2855	2837.4089	2539.1	1654.7
1010.4036	2838.5653	2524.05	1642.35
1010.5216	2839.7211	2519	1635.45
1010.6396	2840.8761	2525.25	1640.85
1010.7575	2842.0306	2542.2	1660.4
1010.8754	2843.1843	2572.7	1689.45
1010.9932	2844.3374	2602.15	1717.95
1011.111	2845.4899	2647.95	1764.05
1011.2288	2846.6417	2727.5	1844.3
1011.3465	2847.7928	2801.3	1919.4
1011.4642	2848.9433	2876.95	1994.6
1011.5818	2850.0931	2932.35	2050
1011.6995	2851.2422	3008.2	2124.8
1011.817	2852.3907	3075.4	2192.9
1011.9345	2853.5385	3125.05	2240.6
1012.052	2854.6857	3177.7	2282.55
1012.1695	2855.8323	3239.15	2358.15
1012.2869	2856.9781	3278.6	2394.55
1012.4042	2858.1233	3344.4	2462.65
1012.5216	2859.2679	3381.85	2499.65
1012.6389	2860.4118	3420.95	2538.7
1012.7561	2861.555	3480.25	2593.55
1012.8733	2862.6976	3519.9	2634.7
1012.9905	2863.8395	3536.3	2654.25
1013.1076	2864.9808	3569.15	2685.1
1013.2247	2866.1214	3579.1	2696.6
1013.3417	2867.2614	3581.7	2700.45
1013.4587	2868.4007	3615.1	2731.65
1013.5757	2869.5393	3626.95	2743.4
1013.6926	2870.6773	3630.2	2744.05
1013.8095	2871.8146	3659.45	2771.9
1013.9263	2872.9513	3647.75	2763.15
1014.0431	2874.0874	3644.45	2760.25
1014.1599	2875.2227	3638.55	2755.35
1014.2766	2876.3574	3614.75	2732.45
1014.3933	2877.4915	3592.2	2709.7
1014.51	2878.6249	3571.6	2690.4
1014.6266	2879.7577	3547.4	2662.3
1014.7431	2880.8898	3519.9	2626.75
1014.8596	2882.0212	3501.1	2618.25
1014.9761	2883.152	3488.2	2605.2
1015.0925	2884.2821	3486.3	2606.3
1015.2089	2885.4116	3482.1	2598.5
1015.3253	2886.5405	3482.45	2602.85
1015.4416	2887.6686	3503.25	2617.9
1015.5579	2888.7962	3494.8	2612.05
1015.6741	2889.923	3496	2615.4
1015.7903	2891.0493	3521.5	2639.75
1015.9065	2892.1748	3526.65	2645.3
1016.0226	2893.2997	3551.75	2669.9
1016.1387	2894.424	3546.35	2664.2
1016.2547	2895.5476	3559.1	2678.05
1016.3707	2896.6706	3582.6	2700.65
1016.4866	2897.7929	3616.95	2735.7
1016.6025	2898.9145	3642.4	2761.7
1016.7184	2900.0355	3683.4	2801.2
1016.8342	2901.1559	3695.05	2811.65
1016.95	2902.2756	3743.3	2862.7
1017.0658	2903.3946	3764.4	2881.75
1017.1815	2904.513	3798.75	2917.4
1017.2971	2905.6308	3823.65	2941.1
1017.4127	2906.7479	3845.35	2963.75
1017.5283	2907.8643	3862.75	2982.35
1017.6439	2908.9801	3896.6	3015.65
1017.7594	2910.0953	3897.05	3014.25
1017.8748	2911.2098	3893.75	3006.6
1017.9902	2912.3236	3896.6	3007.85
1018.1056	2913.4368	3873.65	2986.35
1018.2209	2914.5494	3852.5	2969.95
1018.3362	2915.6613	3826.7	2939.15
1018.4515	2916.7725	3796.65	2913.45
1018.5667	2917.8831	3766.25	2883.6
1018.6819	2918.9931	3749.7	2867.75
1018.797	2920.1024	3713.65	2830.3
1018.9121	2921.211	3679.1	2797.15
1019.0271	2922.319	3666.55	2785
1019.1421	2923.4264	3654.8	2774
1019.2571	2924.5331	3644.8	2763.9
1019.372	2925.6391	3631.55	2752.6
1019.4869	2926.7445	3632.4	2751.05
1019.6017	2927.8493	3628.45	2747.05
1019.7165	2928.9534	3620.9	2738.55
1019.8313	2930.0569	3621.35	2737.8
1019.946	2931.1597	3622.6	2738.9
1020.0606	2932.2619	3602.45	2721.15
1020.1753	2933.3634	3601.55	2719.3
1020.2899	2934.4643	3598.65	2710.4
1020.4044	2935.5645	3576.75	2690.15
1020.5189	2936.6641	3551.05	2665.85
1020.6334	2937.763	3513.05	2632.55
1020.7478	2938.8613	3476.6	2594
1020.8622	2939.959	3436.4	2549.25
1020.9765	2941.056	3359.1	2479.1
1021.0908	2942.1523	3278.75	2396.45
1021.2051	2943.248	3211.05	2328.5
1021.3193	2944.3431	3112.9	2231.95
1021.4334	2945.4375	2995.8	2112.5
1021.5476	2946.5313	2913.45	2032.95
1021.6617	2947.6244	2788.55	1906.2
1021.7757	2948.7169	2713.25	1833.4
1021.8897	2949.8087	2610.95	1730.1
1022.0037	2950.8999	2512	1629.55
1022.1176	2951.9904	2437.15	1554.35
1022.2315	2953.0803	2359.05	1478.05
1022.3453	2954.1696	2307.25	1428.4
1022.4591	2955.2582	2259.05	1377.8
1022.5728	2956.3462	2215.7	1333.1
1022.6865	2957.4335	2169.45	1290.1
1022.8002	2958.5202	2140.45	1257.65
1022.9138	2959.6062	2112	1231.45
1023.0274	2960.6916	2086.1	1203.3
1023.141	2961.7764	2068.45	1188.3
1023.2545	2962.8605	2057.1	1175
1023.3679	2963.9439	2038.8	1159.6
1023.4813	2965.0267	2024.15	1143.2
1023.5947	2966.1089	2047.2	1145
1023.708	2967.1905	2023.55	1143.9
1023.8213	2968.2714	2009.75	1129.3
1023.9346	2969.3516	2011.9	1131.25
1024.0478	2970.4312	2017.55	1129.4
1024.1609	2971.5102	2003.65	1124.2
1024.274	2972.5885	2013.85	1133.95
1024.3871	2973.6662	2007.95	1123.9
1024.5002	2974.7432	1994.85	1113.65
1024.6132	2975.8196	2004.05	1123.5
1024.7261	2976.8954	2002.65	1122.55
1024.839	2977.9705	1980.4	1100.35
1024.9519	2979.045	1974.7	1095
1025.0647	2980.1188	1957.05	1079.95
1025.1775	2981.192	1938.15	1057.45
1025.2902	2982.2645	1923.85	1041.65
1025.4029	2983.3364	1896.95	1017.4
1025.5156	2984.4077	1866.15	986.45
1025.6282	2985.4783	1853.2	967.95
1025.7407	2986.5483	1818.7	938.45
1025.8532	2987.6177	1780.15	898.75
1025.9657	2988.6864	1744.45	863.5
1026.0782	2989.7545	1712.8	832
1026.1906	2990.8219	1669.45	788.05
1026.3029	2991.8887	1649.3	768.55
1026.4152	2992.9548	1608.15	728.1
1026.5275	2994.0204	1585.15	706.4
1026.6397	2995.0852	1551.3	671.9
1026.7519	2996.1495	1533.25	650.05
1026.864	2997.2131	1502.95	623.1
1026.9761	2998.276	1483.3	602.85
1027.0882	2999.3383	1464.3	583.95
1027.2002	3000.4	1446.8	566.65
1027.3122	3001.4611	1428.2	548
1027.4241	3002.5215	1413.6	535.55
1027.536	3003.5812	1394.8	512.4
1027.6478	3004.6404	1383.2	503.05
1027.7596	3005.6989	1381.55	500.8
1027.8714	3006.7567	1362.15	481.6
1027.9831	3007.8139	1383.75	472.45
1028.0947	3008.8705	1348.1	467.85
1028.2064	3009.9264	1343.95	460.95
1028.3179	3010.9818	1331.75	452.55
1028.4295	3012.0364	1328.6	448.25
1028.541	3013.0905	1321.55	439.8
1028.6524	3014.1439	1326.15	445.2
1028.7638	3015.1966	1324.35	443.65
1028.8752	3016.2487	1316.1	435.7
1028.9865	3017.3002	1323.7	437.75
1029.0978	3018.3511	1304.85	426.65
1029.209	3019.4013	1312.6	432.35
1029.3202	3020.4509	1306.3	425.9
1029.4314	3021.4998	1300.1	419.5
1029.5425	3022.5481	1307.45	427.95
1029.6535	3023.5958	1304.1	424.95
1029.7645	3024.6428	1302.9	422.85
1029.8755	3025.6892	1308.7	429.45
1029.9864	3026.735	1309.65	432.3
1030.0973	3027.7802	1309.45	430.5
1030.2082	3028.8247	1313.6	435.75
1030.319	3029.8685	1311.75	430.3
1030.4297	3030.9118	1319.3	437.75
1030.5404	3031.9544	1318.7	440.5
1030.6511	3032.9963	1315.9	436.6
1030.7617	3034.0376	1322.65	444.35
1030.8723	3035.0783	1332.35	451.7
1030.9829	3036.1184	1332.8	451.95
1031.0934	3037.1578	1338	460.45
1031.2038	3038.1966	1334.9	454.1
1031.3142	3039.2348	1337.1	460
1031.4246	3040.2723	1350.45	461.45
1031.5349	3041.3092	1340.35	463.15
1031.6452	3042.3455	1335.3	455.95
1031.7554	3043.3811	1333.7	454.2
1031.8656	3044.4161	1325.25	445.85
1031.9758	3045.4505	1324	447
1032.0859	3046.4842	1326.75	447.6
1032.1959	3047.5173	1317.65	440.8
1032.3059	3048.5498	1319.85	440.85
1032.4159	3049.5816	1310.9	431.1
1032.5258	3050.6128	1305.9	426.25
1032.6357	3051.6434	1304.3	421.65
1032.7455	3052.6734	1301.6	421.2
1032.8553	3053.7027	1290.25	409.45
1032.9651	3054.7314	1280.9	403
1033.0748	3055.7594	1272.2	393.75
1033.1845	3056.7868	1281.45	402
1033.2941	3057.8136	1267.45	389.3
1033.4037	3058.8398	1266.1	387
1033.5132	3059.8653	1263.05	383.8
1033.6227	3060.8902	1259.7	379.45
1033.7321	3061.9145	1255.9	376.6
1033.8415	3062.9381	1252.55	373.95
1033.9509	3063.9612	1261.25	368.2
1034.0602	3064.9835	1245.9	365.8
1034.1694	3066.0053	1236.1	354.95
1034.2787	3067.0264	1231.8	353.75
1034.3878	3068.0469	1228.9	350.65
1034.497	3069.0668	1225.6	346.15
1034.6061	3070.086	1213.05	334.6
1034.7151	3071.1046	1208.15	330.05
1034.8241	3072.1226	1201.25	324.5
1034.9331	3073.1399	1189.6	310.6
1035.042	3074.1567	1184.65	306.65
1035.1508	3075.1727	1177.55	296.1
1035.2597	3076.1882	1167.95	288.65
1035.3684	3077.203	1164.9	284.25
1035.4772	3078.2173	1152.5	272
1035.5859	3079.2308	1147.05	264.3
1035.6945	3080.2438	1140.55	259.2
1035.8031	3081.2561	1132.45	252.85
1035.9117	3082.2678	1125.55	246.25
1036.0202	3083.2789	1123.15	243.4
1036.1286	3084.2893	1118.2	240.55
1036.2371	3085.2991	1107.7	230.25
1036.3454	3086.3083	1106.2	223.1
1036.4538	3087.3169	1103.1	224.2
1036.562	3088.3248	1094.4	214.55
1036.6703	3089.3321	1089.8	211.25
1036.7785	3090.3388	1081.65	203.85
1036.8866	3091.3449	1076.75	198.75
1036.9948	3092.3503	1079.35	198.6
1037.1028	3093.3551	1076.2	200.55
1037.2108	3094.3593	1071.15	192.2
1037.3188	3095.3629	1062.85	184.5
1037.4267	3096.3658	1067.8	188.75
1037.5346	3097.3681	1059.1	180.05
1037.6425	3098.3698	1064.5	184.8
1037.7503	3099.3708	1063.3	178.15
1037.858	3100.3713	1060.2	180.65
1037.9657	3101.3711	1053.6	174.5
1038.0734	3102.3702	1185.65	171.95
1038.181	3103.3688	1048.05	166.25
1038.2886	3104.3667	1046.85	169.6
1038.3961	3105.364	1043.8	165.85
1038.5036	3106.3607	1045.4	166.75
1038.611	3107.3568	1043.1	166.3
1038.7184	3108.3522	1037.5	158.55
1038.8257	3109.347	1039.15	160.05
1038.933	3110.3412	1038	155.25
1039.0403	3111.3348	1032.25	153.7
1039.1475	3112.3277	1030.65	151.9
1039.2547	3113.32	1031.4	154.05
1039.3618	3114.3117	1030.9	151.45
1039.4689	3115.3028	1024.4	147.3
1039.5759	3116.2932	1022.4	143.55
1039.6829	3117.2831	1030.3	145.5
1039.7898	3118.2723	1023.9	146.9
1039.8967	3119.2608	1025.1	146.95
1040.0035	3120.2488	1024.5	146.35
1040.1103	3121.2361	1018.05	140.75
1040.2171	3122.2229	1018.25	140.1
1040.3238	3123.209	1017.85	139.85
1040.4305	3124.1944	1013.6	136.85
1040.5371	3125.1793	1013.85	137.05
1040.6437	3126.1635	1010.7	133.1
1040.7502	3127.1471	1012.95	134.35
1040.8567	3128.1301	1009.35	130.4
1040.9631	3129.1125	1007.15	129.5
1041.0695	3130.0942	1005.65	127.1
1041.1759	3131.0753	1019.1	134.95
1041.2822	3132.0558	1010.45	131.8
1041.3884	3133.0357	1005.5	126.9
1041.4946	3134.015	1004.8	125.2
1041.6008	3134.9936	1005.15	124.85
1041.7069	3135.9716	1023.3	125
1041.813	3136.949	1000.15	123.4
1041.919	3137.9258	1016.25	118.05
1042.025	3138.902	1003.75	121.95
1042.1309	3139.8775	997.35	121.1
1042.2368	3140.8524	994.25	117.15
1042.3427	3141.8267	994.2	114.4
1042.4485	3142.8004	997.25	119.55
1042.5542	3143.7735	996.45	111.15
1042.6599	3144.7459	993.7	114.75
1042.7656	3145.7178	990.7	111.8
1042.8712	3146.689	989.8	114.1
1042.9768	3147.6596	991.1	110.6
1043.0823	3148.6295	986.25	107.3
1043.1878	3149.5989	987.75	109.55
1043.2932	3150.5676	986.2	107.95
1043.3986	3151.5357	981.8	107.6
1043.5039	3152.5032	985.85	108.95
1043.6092	3153.4701	982.75	106.2
1043.7145	3154.4364	985.4	107.45
1043.8197	3155.402	979.15	104.3
1043.9248	3156.367	980.95	102.85
1044.03	3157.3315	1010.4	99.6
1044.135	3158.2952	982.15	105.25
1044.24	3159.2584	980.7	103.65
1044.345	3160.221	981.3	101.75
1044.4499	3161.1829	978.75	101.5
1044.5548	3162.1442	974.45	97.9
1044.6596	3163.105	974.9	96.85
1044.7644	3164.065	975.1	97.5
1044.8692	3165.0245	978.6	98.4
1044.9739	3165.9834	970.8	96.85
1045.0785	3166.9416	968.35	91.15
1045.1831	3167.8993	972.4	94
1045.2877	3168.8563	971.95	91.7
1045.3922	3169.8127	969.5	93.65
1045.4966	3170.7684	971	93.8
1045.6011	3171.7236	971.3	91.35
1045.7054	3172.6782	970.45	91.25
1045.8098	3173.6321	968.85	91.3
1045.914	3174.5854	970.75	89.15
1046.0183	3175.5381	970.2	95.5
1046.1224	3176.4902	966.05	87.05
1046.2266	3177.4417	966.05	87.8
1046.3307	3178.3926	964.85	87.55
1046.4347	3179.3428	965.05	88.65
1046.5387	3180.2924	965.5	89.05
1046.6427	3181.2415	963.95	86.8
1046.7466	3182.1899	963.25	85.4
1046.8504	3183.1377	960.65	84.4
1046.9542	3184.0848	963.5	82.95
1047.058	3185.0314	963.1	83.7
1047.1617	3185.9773	963.3	84.35
1047.2654	3186.9227	960.5	81
1047.369	3187.8674	958.95	80.85
1047.4726	3188.8115	961.9	79.15
1047.5761	3189.755	961.3	86.05
1047.6796	3190.6979	958.75	82.5
1047.783	3191.6402	957.65	81.85
1047.8864	3192.5818	956.15	76.65
1047.9898	3193.5229	974.25	76.95
1048.0931	3194.4633	958.85	81.8
1048.1963	3195.4031	957.45	80.35
1048.2995	3196.3423	955.9	79.3
1048.4027	3197.2809	956.6	77.7
1048.5058	3198.2189	956.95	78.4
1048.6089	3199.1563	959.75	77.25
1048.7119	3200.0931	951.35	74.75
1048.8148	3201.0292	955.45	78.9
1048.9178	3201.9648	953.4	78.6
1049.0206	3202.8997	953.1	73.35
1049.1235	3203.834	953.55	78.2
1049.2262	3204.7677	951.35	75.3
1049.329	3205.7008	952.15	72.8
1049.4317	3206.6333	951.05	75.3
1049.5343	3207.5652	952.8	73
1049.6369	3208.4964	950.55	74.3
1049.7394	3209.4271	947.3	70.75
1049.8419	3210.3571	947.25	70.9
1049.9444	3211.2865	950.35	72.85
1050.0468	3212.2154	951.75	73.95
1050.1491	3213.1436	951.8	69.45
1050.2514	3214.0712	954.3	71.95
1050.3537	3214.9982	946.1	69.95
1050.4559	3215.9246	945.6	66.65
1050.5581	3216.8503	944.45	67.75
1050.6602	3217.7755	946.15	68.85
1050.7623	3218.7001	946.25	71.5
1050.8643	3219.624	948.05	70.2
1050.9663	3220.5473	943.05	67.8
1051.0682	3221.4701	945.75	67.6
1051.1701	3222.3922	946.6	67.55
1051.2719	3223.3137	942.5	65.15
1051.3737	3224.2346	943.1	66.8
1051.4754	3225.1549	942.35	68.9
1051.5771	3226.0746	943.25	67.9
1051.6788	3226.9937	938.9	62.75
1051.7804	3227.9121	940.1	62.7
1051.8819	3228.83	942.45	64.9
1051.9834	3229.7473	940.55	64.45
1052.0849	3230.6639	942.85	65.45
1052.1863	3231.5799	940.9	65.05
1052.2876	3232.4954	942.6	67.4
1052.3889	3233.4102	937.2	59.25
1052.4902	3234.3244	940.8	65.05
1052.5914	3235.238	938.4	62.8
1052.6926	3236.151	961.3	60.95
1052.7937	3237.0634	939.35	65.15
1052.8948	3237.9752	937.65	61.7
1052.9958	3238.8864	936.8	59.65
1053.0968	3239.797	937.1	60.45
1053.1977	3240.7069	936.3	58.85
1053.2986	3241.6163	935.8	59.15
1053.3994	3242.5251	936.5	60.5
1053.5002	3243.4332	933.1	58.1
1053.6009	3244.3408	934.65	59.1
1053.7016	3245.2477	933.8	56.7
1053.8022	3246.154	937.75	59.95
1053.9028	3247.0598	935.45	56.3
1054.0034	3247.9649	933.9	58.35
1054.1039	3248.8694	933.3	56.85
1054.2043	3249.7733	932.5	57.05
1054.3047	3250.6766	932.65	56.2
1054.4051	3251.5793	930.3	52
1054.5054	3252.4814	931.1	56.7
1054.6056	3253.3829	929	53.8
1054.7058	3254.2838	928.45	51.95
1054.806	3255.1841	928.8	53.85
1054.9061	3256.0838	927.75	51.45
1055.0061	3256.9829	926.2	50.8
1055.1062	3257.8814	930.3	53
1055.2061	3258.7792	931	52.5
1055.306	3259.6765	928.1	52.85
1055.4059	3260.5731	925.6	50.3
1055.5057	3261.4692	924.05	48.3
1055.6055	3262.3647	923.55	47.95
1055.7052	3263.2595	923.35	48.4
1055.8049	3264.1538	921.9	45.75
1055.9045	3265.0474	922.8	45.8
1056.0041	3265.9404	918.5	42.7
1056.1036	3266.8329	922.05	48.2
1056.2031	3267.7247	928.55	40.25
1056.3025	3268.616	916.4	43.1
1056.4019	3269.5066	917.85	42.7
1056.5013	3270.3966	918.1	39.3
1056.6005	3271.286	915.95	42.9
