Software Version:	3.9.2.0
Unit SN:	10000200
Spectrometer SN:	6960
Date:	3/8/2024 1:53:19 PM
Data Line Index:	25
Spectral Points:	2048
Integration time (ms):	125
Averages:	20
Delay (ms):	30000
Sequence Number:	1
Processing:	dark subtract
Laser Power (mW):	300
Laser Current (mA):	823
Laser Diode Temp (C):	25
Laser Case Temp (C):	26.4
System Temp (C):	26.4
Spectrometer Temp (C):	24.1
CCD Temp (C):	0.008
Secondary Temp (C):	20.01
Heatsink Temp (C):	20.644
CCDPCB Temp (C):	36.329
SecondaryPCB Temp (C):	30.404

Wavelength	RamanShift	Raw Counts	Dark Subtracted
787.061	30.1047	471.95	65.6
787.2016	32.3739	472.9	66.95
787.3422	34.6426	477.55	69.15
787.4828	36.9109	487.8	78.1
787.6235	39.1787	495.85	82.35
787.7642	41.4461	502.6	84.45
787.9049	43.7131	512.9	92.7
788.0456	45.9796	523.25	100.2
788.1863	48.2456	537.35	111.05
788.3271	50.5112	546.4	113.8
788.4679	52.7764	553.4	117.4
788.6087	55.0411	566.1	127.15
788.7496	57.3054	583.1	136.75
788.8904	59.5692	589	142.4
789.0313	61.8326	599.05	152.5
789.1722	64.0955	613.2	161.25
789.3132	66.3579	633.25	175.95
789.4541	68.6199	654	191.95
789.5951	70.8815	691.75	226.1
789.7361	73.1426	784.65	314.8
789.8771	75.4032	1004.5	531.35
790.0181	77.6634	1560.7	1080.95
790.1592	79.9231	2849.6	2363.7
790.3003	82.1824	5696.75	5193.45
790.4414	84.4412	10815.85	10284.7
790.5825	86.6995	17896.3	17326.05
790.7237	88.9574	24866.95	24262.8
790.8648	91.2148	29676.25	29055.6
791.006	93.4717	31997.85	31361.55
791.1472	95.7282	32575.25	31927.35
791.2885	97.9842	32564.2	31912.2
791.4297	100.2398	32041.75	31389.85
791.571	102.4949	31542.05	30884.8
791.7123	104.7495	30815.8	30159.5
791.8536	107.0036	30048.6	29386.7
791.9949	109.2573	29337.65	28682.25
792.1363	111.5105	28653.8	27992.9
792.2777	113.7632	27963	27298.35
792.4191	116.0154	27367.35	26691.45
792.5605	118.2672	26984.15	26313.55
792.7019	120.5185	26514.6	25847.35
792.8434	122.7693	26207.1	25534.85
792.9849	125.0197	25957.5	25281.7
793.1264	127.2696	25707.3	25024.9
793.2679	129.519	25593.55	24909.2
793.4094	131.7679	25447.2	24760.55
793.551	134.0163	25274.9	24581.6
793.6926	136.2642	25096.4	24403.1
793.8342	138.5117	24936.6	24240.9
793.9758	140.7587	24728.65	24031.9
794.1175	143.0052	24504.1	23799.8
794.2591	145.2512	24286.4	23587.7
794.4008	147.4967	24115.05	23415.25
794.5425	149.7417	23960.95	23261.9
794.6842	151.9863	23891	23187.25
794.826	154.2304	23817.8	23101.7
794.9677	156.4739	23696.4	22977.45
795.1095	158.717	23652.3	22931.4
795.2513	160.9596	23521.25	22795.35
795.3931	163.2017	23288.05	22561.6
795.535	165.4433	23008.65	22279.75
795.6768	167.6844	22709.4	21980.4
795.8187	169.925	22413	21681
795.9606	172.1651	22075.3	21340.2
796.1025	174.4047	21821.3	21084.15
796.2445	176.6439	21544.85	20808.6
796.3864	178.8825	21360.7	20620.9
796.5284	181.1206	21277.05	20530.05
796.6704	183.3582	21120.7	20367
796.8124	185.5954	21000.1	20250.4
796.9544	187.832	20973.2	20217.15
797.0965	190.0681	20987.5	20233.35
797.2386	192.3037	20974	20212.05
797.3806	194.5388	21022.5	20257.25
797.5228	196.7734	21101.75	20334.45
797.6649	199.0075	21187.7	20419.45
797.807	201.2411	21366.55	20597.75
797.9492	203.4742	21444.85	20674.15
798.0914	205.7068	21625.4	20844.3
798.2336	207.9389	21727.55	20952.1
798.3758	210.1704	21925	21153.05
798.518	212.4015	22080	21323.55
798.6603	214.632	22220.5	21466.7
798.8025	216.862	22466.2	21713.15
798.9448	219.0915	22617.5	21859.5
799.0871	221.3205	22863.8	22101.65
799.2294	223.549	23148.5	22392
799.3718	225.777	23476.45	22718.45
799.5141	228.0044	23833.6	23067.05
799.6565	230.2314	24335.6	23573.1
799.7989	232.4578	24780.1	24013.3
799.9413	234.6837	25134	24360.1
800.0837	236.909	25392.65	24618.45
800.2262	239.1339	25354	24554.35
800.3687	241.3582	25148.95	24363.7
800.5111	243.582	24881.5	24065.2
800.6536	245.8053	24554.65	23752.05
800.7961	248.0281	24226.4	23426.7
800.9387	250.2503	24005.55	23203.25
801.0812	252.472	23920.2	23118.7
801.2238	254.6932	23925.85	23122.9
801.3664	256.9139	23866.1	23064.6
801.509	259.134	23931.3	23122.8
801.6516	261.3536	23925.8	23119.8
801.7942	263.5727	24021.3	23210.8
801.9369	265.7912	24007.4	23197.2
802.0795	268.0092	24079.7	23270.05
802.2222	270.2267	24020.1	23213.05
802.3649	272.4436	24026	23214.15
802.5076	274.6601	24003.05	23180
802.6504	276.8759	23948.3	23132.55
802.7931	279.0913	23902.1	23089.9
802.9359	281.3061	23915.2	23098.15
803.0787	283.5204	24021.85	23201.85
803.2215	285.7341	24127.7	23303.05
803.3643	287.9473	24292.15	23455.7
803.5071	290.16	24504.65	23675.6
803.6499	292.3721	24870.2	24051.75
803.7928	294.5837	25306.55	24479.95
803.9357	296.7947	25615.65	24792.5
804.0786	299.0052	25846.25	25023
804.2215	301.2152	25741.05	24911.45
804.3644	303.4246	25424.8	24608.2
804.5074	305.6334	24880.9	24059.95
804.6503	307.8418	24405.05	23579.1
804.7933	310.0495	24060.65	23231.3
804.9363	312.2568	23723.25	22894.95
805.0793	314.4635	23505.25	22672.85
805.2223	316.6696	23446.1	22613.75
805.3653	318.8752	23404.65	22562.45
805.5084	321.0802	23468.95	22632.85
805.6514	323.2847	23610.55	22772.3
805.7945	325.4887	23682.8	22846.45
805.9376	327.692	23581.15	22743.85
806.0807	329.8949	23531.25	22690.65
806.2238	332.0972	23256.65	22414.8
806.367	334.2989	23027.55	22184.55
806.5101	336.5001	22756	21912.15
806.6533	338.7007	22614.2	21766.3
806.7965	340.9008	22511.5	21663.4
806.9397	343.1003	22417.85	21565.2
807.0829	345.2992	22358.6	21510.5
807.2261	347.4976	22367.15	21516.95
807.3693	349.6955	22384.35	21527.45
807.5126	351.8927	22480.6	21623.8
807.6559	354.0895	22468.95	21600.2
807.7991	356.2856	22569.3	21709.75
807.9424	358.4812	22575.4	21717.55
808.0857	360.6763	22623.7	21762.35
808.2291	362.8707	22578.05	21718.3
808.3724	365.0646	22668.4	21803.35
808.5158	367.258	22692.3	21828
808.6591	369.4508	22736.5	21871.85
808.8025	371.643	22841.7	21974.8
808.9459	373.8346	22821.8	21948.3
809.0893	376.0257	22829.35	21958.25
809.2327	378.2162	22830.9	21962.45
809.3762	380.4062	22704.5	21835.55
809.5196	382.5956	22574.8	21705.5
809.6631	384.7844	22493.45	21632.7
809.8066	386.9726	22376.05	21513.1
809.9501	389.1603	22365.5	21511.2
810.0936	391.3474	22383.4	21491.15
810.2371	393.5339	22347.7	21483.8
810.3806	395.7199	22285.7	21427.3
810.5241	397.9052	22341.6	21481.6
810.6677	400.09	22370.25	21509.95
810.8113	402.2743	22426.7	21564.1
810.9548	404.4579	22545.4	21679.2
811.0984	406.641	22724.55	21854.4
811.2421	408.8235	22964.4	22098.55
811.3857	411.0054	23296.3	22428.05
811.5293	413.1868	23742.2	22869.85
811.673	415.3675	24064.15	23187.35
811.8166	417.5477	24277	23401.7
811.9603	419.7273	24329.1	23450.3
812.104	421.9064	24253.3	23370.6
812.2477	424.0848	24114.45	23237.3
812.3914	426.2627	23918.4	23040.65
812.5351	428.4399	23653.65	22776.35
812.6788	430.6166	23302.6	22416.15
812.8226	432.7928	22947.1	22064.3
812.9663	434.9683	22658	21776.7
813.1101	437.1432	22418.6	21535.4
813.2539	439.3176	22272.7	21397.65
813.3977	441.4914	22126.85	21255.45
813.5415	443.6645	22155.9	21280.2
813.6853	445.8371	22096.55	21216.75
813.8291	448.0091	22061.6	21183.6
813.973	450.1806	21990.75	21115.55
814.1168	452.3514	21959.35	21079.3
814.2607	454.5216	22005.55	21116.25
814.4046	456.6913	21893.3	21011.7
814.5485	458.8603	21976.85	21095.8
814.6924	461.0288	22084.95	21212.2
814.8363	463.1967	22079.65	21207.45
814.9802	465.3639	22217.1	21338.8
815.1241	467.5306	22314.95	21434.8
815.2681	469.6967	22457.95	21581.75
815.412	471.8622	22612.45	21737.9
815.556	474.0271	22770.1	21894.45
815.7	476.1914	22923.85	22039.85
815.844	478.3551	22852.45	21971.6
815.988	480.5182	22862.95	21984.55
816.132	482.6807	22891.45	22020.15
816.276	484.8426	23031.55	22169.35
816.4201	487.0039	23378.6	22506.8
816.5641	489.1647	23775.55	22893.5
816.7082	491.3248	24197.3	23316.6
816.8522	493.4843	24412.4	23532
816.9963	495.6432	24385.15	23508.2
817.1404	497.8015	24349.25	23461.6
817.2845	499.9592	24384.95	23493.75
817.4286	502.1163	24319.8	23427.7
817.5727	504.2728	24077.1	23190.55
817.7168	506.4287	23827.9	22955.8
817.861	508.5839	23404.5	22529
818.0051	510.7386	23121.95	22239.95
818.1493	512.8927	22929.2	22039.2
818.2935	515.0461	22856.5	21966.85
818.4377	517.199	22858.8	21965.35
818.5818	519.3512	22874.25	21980.55
818.726	521.5029	23005.5	22109.9
818.8703	523.6539	23084	22197.15
819.0145	525.8043	23134.75	22241.55
819.1587	527.9541	23183.7	22286
819.303	530.1033	23179.7	22286.35
819.4472	532.2519	23219.4	22327.25
819.5915	534.3999	23344.75	22451.95
819.7357	536.5472	23593.15	22699.5
819.88	538.694	24092.1	23206.2
820.0243	540.8401	24668.65	23780.2
820.1686	542.9856	25201.15	24299.35
820.3129	545.1305	25356.1	24445.2
820.4572	547.2748	25263.1	24352.6
820.6016	549.4185	24923.2	24011.9
820.7459	551.5615	24566.1	23654.75
820.8902	553.704	24460.65	23554.2
821.0346	555.8458	24386.6	23479.8
821.1789	557.987	24504.9	23599.4
821.3233	560.1276	24503.3	23596.25
821.4677	562.2675	24560.3	23654
821.6121	564.4069	24591.1	23687.3
821.7565	566.5456	24624.55	23723.2
821.9009	568.6837	24588.6	23685.1
822.0453	570.8212	24302.9	23399.75
822.1897	572.958	23991.15	23090.1
822.3342	575.0942	23683.2	22782.55
822.4786	577.2299	23473.95	22579.35
822.6231	579.3648	23485.35	22598.6
822.7675	581.4992	23525.75	22652.7
822.912	583.6329	23732.85	22860.5
823.0565	585.766	23977.85	23097.65
823.201	587.8985	24051.8	23168.2
823.3454	590.0304	24119.65	23211.25
823.4899	592.1616	24023.4	23118.85
823.6345	594.2922	23978.55	23069.5
823.779	596.4222	23803.65	22895.8
823.9235	598.5515	23697.65	22785.45
824.068	600.6802	23487.7	22579.4
824.2126	602.8083	23329.95	22423.35
824.3571	604.9358	23346.2	22439.3
824.5017	607.0626	23223.45	22314.4
824.6462	609.1888	23202.45	22287.35
824.7908	611.3144	23211.3	22295.7
824.9354	613.4393	23079.1	22160.75
825.08	615.5636	23043.05	22124.95
825.2246	617.6873	22955.2	22041.05
825.3692	619.8103	22964.6	22049.5
825.5138	621.9327	22875.35	21965.45
825.6584	624.0544	22813.25	21904.25
825.803	626.1756	22812.65	21905.75
825.9477	628.2961	22810	21898.6
826.0923	630.4159	22747.05	21831.4
826.237	632.5351	22754.8	21840.9
826.3816	634.6537	22690.25	21776.3
826.5263	636.7716	22684.25	21765.25
826.6709	638.8889	22712.25	21791.15
826.8156	641.0056	22802.5	21876.55
826.9603	643.1216	22827.15	21906.2
827.105	645.237	22864.55	21943.9
827.2497	647.3518	22850.45	21938.75
827.3944	649.4659	22888.4	21981.25
827.5391	651.5793	22854	21943.8
827.6838	653.6922	22834.1	21925.25
827.8285	655.8043	22883.25	21969.1
827.9733	657.9159	22862.95	21950.2
828.118	660.0268	22804.25	21889.1
828.2627	662.137	22756.75	21843.1
828.4075	664.2466	22752.55	21828.8
828.5522	666.3556	22754.1	21833.1
828.697	668.4639	22762.75	21849.05
828.8418	670.5716	22823.05	21910.45
828.9865	672.6786	22938.6	22021.1
829.1313	674.785	22974.1	22053.1
829.2761	676.8907	23041.3	22124.55
829.4209	678.9958	23116.65	22200.15
829.5657	681.1002	23154.75	22239.25
829.7105	683.204	23139.65	22214.2
829.8553	685.3072	23080.85	22156.2
830.0001	687.4097	23042.35	22120.8
830.1449	689.5115	23060.3	22136.4
830.2898	691.6127	23014.65	22094.8
830.4346	693.7132	22937.2	22021.25
830.5794	695.8131	22921.8	21986.05
830.7243	697.9123	22967.85	22041.3
830.8691	700.0109	22934.2	22008.55
831.014	702.1089	22919.15	21992.75
831.1588	704.2061	22971.1	22044.55
831.3037	706.3028	23009.15	22080.35
831.4486	708.3987	23068.45	22141.7
831.5935	710.4941	23168.95	22245.85
831.7383	712.5887	23403.2	22480.15
831.8832	714.6827	23653.4	22729.95
832.0281	716.7761	24004.1	23084.7
832.173	718.8688	24358.9	23434.05
832.3179	720.9608	24584.1	23652.9
832.4628	723.0522	24689.4	23755.25
832.6077	725.1429	24512.55	23582.55
832.7527	727.233	24243.9	23315.35
832.8976	729.3224	24062	23138.35
833.0425	731.4112	23792.15	22864.9
833.1874	733.4993	23545.95	22617.85
833.3324	735.5867	23415.65	22489.9
833.4773	737.6735	23373.05	22445.3
833.6222	739.7596	23313.5	22384.75
833.7672	741.845	23268.05	22344.7
833.9122	743.9298	23252.05	22323.15
834.0571	746.014	23258.2	22328.25
834.2021	748.0974	23244.65	22309
834.347	750.1802	23283.8	22352.3
834.492	752.2624	23249.55	22318.15
834.637	754.3439	23330.6	22394.2
834.782	756.4247	23408.85	22470.45
834.9269	758.5048	23489.9	22557.3
835.0719	760.5843	23759.7	22825.8
835.2169	762.6631	24078.95	23144.35
835.3619	764.7413	24511.9	23575.7
835.5069	766.8188	25120.25	24184.3
835.6519	768.8956	25538.75	24602
835.7969	770.9718	25848.55	24914.25
835.9419	773.0473	25688.75	24753.25
836.0869	775.1221	25373.3	24438.95
836.232	777.1962	25019.15	24083.85
836.377	779.2697	24877.75	23941.65
836.522	781.3426	24924.15	23972.4
836.667	783.4147	25154.55	24217.5
836.8121	785.4862	25472.2	24537.7
836.9571	787.557	25494.8	24560.6
837.1021	789.6271	25171.75	24235.1
837.2472	791.6966	24649.3	23715.85
837.3922	793.7654	24107.25	23170.35
837.5373	795.8335	23815.05	22879.15
837.6823	797.901	23614.05	22677.05
837.8274	799.9678	23554.5	22615.75
837.9724	802.0339	23603.35	22659.95
838.1175	804.0993	23657.6	22708.65
838.2626	806.1641	23643.5	22704.15
838.4076	808.2282	23613.1	22674.1
838.5527	810.2916	23500.5	22562.2
838.6978	812.3544	23448.85	22515.9
838.8428	814.4164	23364.2	22429.85
838.9879	816.4778	23463.4	22524.7
839.133	818.5385	23430.5	22488.6
839.2781	820.5986	23519.35	22578.3
839.4232	822.658	23672.2	22732.1
839.5682	824.7166	23772.25	22830.6
839.7133	826.7747	24057.35	23119.85
839.8584	828.832	24257.65	23315.5
840.0035	830.8886	24396.15	23454.35
840.1486	832.9446	24553.3	23609.1
840.2937	834.9999	24586.05	23647.1
840.4388	837.0545	24570.9	23627.2
840.5839	839.1085	24601.85	23659.85
840.729	841.1618	24547.2	23604.4
840.8741	843.2143	24463.55	23523.05
841.0192	845.2662	24369.05	23426.1
841.1643	847.3175	24349.9	23409.5
841.3095	849.368	24252.15	23309.25
841.4546	851.4179	24176.85	23234.3
841.5997	853.467	23996	23054.95
841.7448	855.5155	23910.4	22968.45
841.8899	857.5633	23847.7	22906.35
842.0351	859.6105	23773.4	22830.2
842.1802	861.6569	23677.55	22734.25
842.3253	863.7027	23655	22707.7
842.4704	865.7478	23672.4	22727.35
842.6156	867.7922	23699.35	22751.35
842.7607	869.8359	23741.65	22797.05
842.9058	871.8789	23906.7	22963.2
843.0509	873.9212	24072.3	23097.1
843.1961	875.9629	24207.6	23261.75
843.3412	878.0039	24402.2	23459.15
843.4863	880.0441	24559.6	23617.5
843.6315	882.0837	24523.75	23581.05
843.7766	884.1226	24467.5	23523.35
843.9218	886.1609	24371.9	23428.4
844.0669	888.1984	24337.2	23393.7
844.212	890.2352	24354.3	23411.2
844.3572	892.2714	24313.85	23361.65
844.5023	894.3069	24336.5	23390.35
844.6475	896.3416	24267.25	23323.45
844.7926	898.3757	24290.25	23345.65
844.9377	900.4091	24248.65	23302.85
845.0829	902.4418	24275.25	23321.05
845.228	904.4739	24248.95	23297.55
845.3732	906.5052	24311.25	23362.5
845.5183	908.5358	24210.35	23264.55
845.6635	910.5658	24065.9	23117.3
845.8086	912.595	23927.6	22981.65
845.9538	914.6236	23767	22821.9
846.0989	916.6515	23737.4	22792.45
846.2441	918.6786	23730.95	22781.4
846.3892	920.7051	23809.65	22861.55
846.5344	922.7309	23929.8	22980
846.6795	924.756	23962.55	23015.6
846.8246	926.7804	24116.45	23167
846.9698	928.8041	24046.75	23097.55
847.1149	930.8272	24082.55	23136.25
847.2601	932.8495	23992.85	23043.7
847.4052	934.8711	23957.1	23010.75
847.5504	936.892	23780.8	22834.05
847.6955	938.9123	23653	22704.4
847.8407	940.9318	23554.6	22603.3
847.9858	942.9506	23468.1	22516.9
848.131	944.9688	23377.5	22429.85
848.2761	946.9862	23294.3	22341.8
848.4213	949.003	23229.3	22280.45
848.5664	951.019	23222.35	22273.8
848.7115	953.0344	23206.9	22259.85
848.8567	955.0491	23276.75	22327.3
849.0018	957.063	23382.95	22435.3
849.147	959.0763	23522.9	22576.9
849.2921	961.0888	23528.75	22583.75
849.4373	963.1007	23640.95	22691.3
849.5824	965.1119	23689.4	22753.15
849.7275	967.1223	23733.1	22799.05
849.8727	969.1321	23743.2	22811.25
850.0178	971.1412	23823.95	22885.85
850.1629	973.1495	23783.4	22841.5
850.3081	975.1572	23930.85	22931.05
850.4532	977.1641	23946.8	23000.3
850.5983	979.1704	23870.15	22919.85
850.7435	981.1759	23882.55	22932.15
850.8886	983.1808	23963.4	23013.6
851.0337	985.1849	24017.75	23059
851.1788	987.1884	24208.05	23256.05
851.324	989.1911	24351.85	23402.85
851.4691	991.1932	24444.05	23500.35
851.6142	993.1945	24487.5	23543.85
851.7593	995.1951	24394.55	23449.05
851.9045	997.1951	24413.5	23463.15
852.0496	999.1943	24309.1	23360.45
852.1947	1001.1928	24259.9	23312.5
852.3398	1003.1906	24256.25	23309.95
852.4849	1005.1877	24289.75	23344
852.63	1007.1841	24231.65	23283.75
852.7751	1009.1798	24121.9	23178.9
852.9202	1011.1748	23977.9	23030
853.0653	1013.1691	23808.3	22864.3
853.2104	1015.1627	23582.65	22635.5
853.3555	1017.1556	23338.8	22397.05
853.5006	1019.1477	23268.55	22326.45
853.6457	1021.1392	23133.65	22196.45
853.7908	1023.1299	23148.8	22213.25
853.9359	1025.12	23102.9	22172.85
854.081	1027.1093	23123.25	22204.7
854.2261	1029.0979	23225.6	22307.95
854.3712	1031.0859	23286.45	22361.4
854.5163	1033.0731	23255	22324.05
854.6613	1035.0596	23196.35	22256.7
854.8064	1037.0454	23000.7	22061.35
854.9515	1039.0304	22949.3	22007.6
855.0965	1041.0148	22742.65	21797.15
855.2416	1042.9985	22670.2	21728.4
855.3867	1044.9814	22654.55	21712.6
855.5317	1046.9636	22591.2	21647
855.6768	1048.9452	22545.3	21601.6
855.8219	1050.926	22563.65	21619.9
855.9669	1052.9061	22536.5	21591.2
856.112	1054.8855	22568.95	21620.1
856.257	1056.8642	22614.85	21670.55
856.4021	1058.8421	22702.8	21750.45
856.5471	1060.8194	22648.25	21700.4
856.6921	1062.7959	22722.15	21776.8
856.8372	1064.7717	22769.55	21823.05
856.9822	1066.7469	22793.45	21845.7
857.1272	1068.7213	22731.85	21786.8
857.2723	1070.695	22756.15	21806.7
857.4173	1072.6679	22683	21740.25
857.5623	1074.6402	22681.8	21733.9
857.7073	1076.6117	22706	21753.25
857.8523	1078.5826	22671.7	21728.35
857.9973	1080.5527	22608.6	21660.9
858.1423	1082.5221	22733.8	21787.2
858.2873	1084.4908	22852.05	21906.45
858.4323	1086.4587	23020.95	22073.55
858.5773	1088.426	23185.05	22236.45
858.7223	1090.3925	23140.65	22187.9
858.8673	1092.3584	23113.5	22169.6
859.0123	1094.3235	22967.35	22023.85
859.1573	1096.2879	22891.35	21945.55
859.3022	1098.2515	22919.65	21976.05
859.4472	1100.2145	23006.8	22066.25
859.5922	1102.1767	23073.2	22127
859.7371	1104.1382	23206.75	22263.75
859.8821	1106.099	23428.75	22480.4
860.027	1108.0591	23595.6	22652
860.172	1110.0185	23747.2	22803.45
860.3169	1111.9771	23784.15	22834.85
860.4619	1113.9351	23521.65	22578.75
860.6068	1115.8923	23271.65	22324.85
860.7517	1117.8488	22971.7	22023.9
860.8967	1119.8045	22670.25	21727.2
861.0416	1121.7596	22587.1	21646.05
861.1865	1123.7139	22502	21559.95
861.3314	1125.6675	22476	21533.2
861.4763	1127.6204	22604.35	21662.3
861.6212	1129.5726	22529.05	21585
861.7661	1131.524	22566.9	21623.55
861.911	1133.4748	22551.1	21608.7
862.0559	1135.4248	22472.65	21527.5
862.2008	1137.3741	22466.85	21524.8
862.3457	1139.3226	22428	21484.05
862.4905	1141.2705	22418.65	21474.1
862.6354	1143.2176	22282.2	21333.55
862.7803	1145.164	22325.4	21378.2
862.9251	1147.1097	22272.2	21327.15
863.07	1149.0546	22271.3	21327.05
863.2148	1150.9989	22218.95	21275.35
863.3597	1152.9424	22077.55	21136.9
863.5045	1154.8852	21915.1	20970.8
863.6493	1156.8272	21805.5	20863.9
863.7942	1158.7686	21780.8	20830.2
863.939	1160.7092	21729.1	20780.5
864.0838	1162.6491	21682.3	20734.95
864.2286	1164.5883	21782	20835.85
864.3734	1166.5267	21849	20906.85
864.5182	1168.4644	22030.35	21090.4
864.663	1170.4014	22218.4	21278.75
864.8078	1172.3377	22445.75	21505.05
864.9526	1174.2732	22660.3	21720.45
865.0974	1176.2081	22914.9	21971.5
865.2421	1178.1421	23206.45	22257.1
865.3869	1180.0755	23419.9	22479.25
865.5317	1182.0082	23489.1	22549.35
865.6764	1183.9401	23525.85	22584.9
865.8212	1185.8713	23357	22425.25
865.9659	1187.8017	23106.1	22176.3
866.1106	1189.7315	22879.85	21958.85
866.2554	1191.6605	22532.8	21611.5
866.4001	1193.5888	22313.95	21388.15
866.5448	1195.5163	22198.4	21264.55
866.6895	1197.4432	22067.05	21128.4
866.8342	1199.3693	22023.3	21082.35
866.9789	1201.2947	21969.3	21024.15
867.1236	1203.2193	21915.75	20976.7
867.2683	1205.1432	21930.9	20992.35
867.413	1207.0664	21954.55	21015.95
867.5576	1208.9889	21945.55	21004.8
867.7023	1210.9106	21953.95	21012.65
867.847	1212.8316	21996.7	21059.85
867.9916	1214.7519	22051.6	21102.55
868.1363	1216.6715	22020.35	21080.6
868.2809	1218.5903	22050.25	21111.95
868.4255	1220.5084	22015.2	21076.6
868.5701	1222.4257	22002.9	21061.4
868.7148	1224.3424	21948.15	21011.75
868.8594	1226.2583	21973.65	21033.35
869.004	1228.1735	22042.75	21103.55
869.1486	1230.0879	22139.95	21201.6
869.2932	1232.0016	22218.5	21282.25
869.4377	1233.9146	22241.05	21303.15
869.5823	1235.8269	22135.6	21196.8
869.7269	1237.7384	22085.75	21146.35
869.8715	1239.6492	21851.05	20911.3
870.016	1241.5592	21720.7	20782.15
870.1606	1243.4686	21618.5	20679.45
870.3051	1245.3772	21638	20700.6
870.4496	1247.285	21609.35	20669
870.5941	1249.1922	21579.45	20637.85
870.7387	1251.0986	21593.05	20658.45
870.8832	1253.0042	21562.1	20626.5
871.0277	1254.9092	21580.9	20643.15
871.1722	1256.8134	21637	20704.45
871.3167	1258.7169	21802.8	20866.6
871.4611	1260.6196	21897.3	20959.95
871.6056	1262.5216	22126.25	21184.7
871.7501	1264.4229	22279.9	21341.7
871.8945	1266.3234	22472.8	21535.2
872.039	1268.2232	22493.1	21554.65
872.1834	1270.1223	22464.15	21525.8
872.3278	1272.0207	22455.95	21518.2
872.4723	1273.9183	22398.45	21453.05
872.6167	1275.8151	22305.8	21370.9
872.7611	1277.7113	22254.1	21316.35
872.9055	1279.6067	22113.35	21176.45
873.0499	1281.5014	22054.55	21118.2
873.1943	1283.3953	22010.95	21074.1
873.3386	1285.2885	22046.25	21110.6
873.483	1287.181	22115.85	21181.85
873.6274	1289.0727	22208.35	21274.4
873.7717	1290.9637	22259.5	21325.65
873.9161	1292.854	22428.95	21492.65
874.0604	1294.7435	22528.25	21593.85
874.2047	1296.6323	22702.5	21770.45
874.349	1298.5204	22912.75	21976.55
874.4933	1300.4077	23084.8	22147.45
874.6376	1302.2943	23179.85	22242.85
874.7819	1304.1802	23226.3	22290.75
874.9262	1306.0653	23048.1	22110.45
875.0705	1307.9497	22824.8	21892.4
875.2147	1309.8333	22651	21718.8
875.359	1311.7162	22564.6	21629.7
875.5032	1313.5984	22572.3	21634
875.6475	1315.4798	22577.2	21627.5
875.7917	1317.3605	22604.6	21650.9
875.9359	1319.2405	22656	21716.35
876.0801	1321.1197	22593.85	21655.45
876.2243	1322.9982	22421.5	21480.65
876.3685	1324.876	22379.25	21443
876.5127	1326.753	22228	21288.9
876.6569	1328.6293	22241.05	21304.7
876.801	1330.5048	22212.05	21272.6
876.9452	1332.3796	22100.7	21165
877.0893	1334.2537	22094	21133.05
877.2335	1336.127	22023.6	21085
877.3776	1337.9996	21958.3	21020.95
877.5217	1339.8714	21913.1	20977.25
877.6658	1341.7426	21886.15	20902.55
877.8099	1343.6129	21886.5	20946.25
877.954	1345.4826	21796.25	20858.75
878.0981	1347.3515	21819.3	20878.5
878.2422	1349.2196	21733.45	20797.25
878.3862	1351.087	21770.35	20831.85
878.5303	1352.9537	21810.65	20871.7
878.6743	1354.8197	21870.2	20933.05
878.8184	1356.6849	22017.8	21079.55
878.9624	1358.5493	22140.35	21203.5
879.1064	1360.4131	22156.55	21222.75
879.2504	1362.276	22087.05	21154.9
879.3944	1364.1383	21920.95	20986
879.5384	1365.9998	21679.6	20739.35
879.6823	1367.8606	21331.1	20396.1
879.8263	1369.7206	21041.35	20103.85
879.9702	1371.5799	20829.85	19893.45
880.1142	1373.4384	20613.4	19677.05
880.2581	1375.2962	20479.85	19542.7
880.402	1377.1533	20159.65	19223.85
880.5459	1379.0096	19814.1	18880.55
880.6898	1380.8652	19525.85	18595.25
880.8337	1382.7201	19236.05	18302.65
880.9776	1384.5742	18971.15	18036.2
881.1215	1386.4275	18783.7	17849.4
881.2653	1388.2802	18596.05	17659.05
881.4092	1390.132	18471.1	17534.5
881.553	1391.9832	18440.3	17503.35
881.6968	1393.8336	18317.75	17381.15
881.8406	1395.6832	18269.4	17333.35
881.9844	1397.5322	18216.6	17283.65
882.1282	1399.3803	18124.8	17187.65
882.272	1401.2278	18058.8	17126.1
882.4158	1403.0745	18066.85	17132.4
882.5595	1404.9204	17934.55	17002.2
882.7033	1406.7656	17964.25	17028.45
882.847	1408.6101	17951.45	17014.95
882.9908	1410.4538	17933.45	17001.6
883.1345	1412.2968	17957.6	17022.9
883.2782	1414.139	17984.1	17050
883.4219	1415.9805	18023.15	17090.8
883.5656	1417.8213	18088.3	17148.7
883.7092	1419.6613	18204.1	17273.4
883.8529	1421.5006	18338.5	17405.4
883.9965	1423.3391	18552.85	17618.5
884.1402	1425.1769	18855.25	17920.4
884.2838	1427.0139	19294.4	18359.3
884.4274	1428.8502	19845.9	18912.95
884.571	1430.6858	20404.35	19470.3
884.7146	1432.5206	20741.45	19810.1
884.8582	1434.3547	20995.7	20065.9
885.0018	1436.188	20985.8	20054.1
885.1453	1438.0206	20898	19965.45
885.2889	1439.8524	20711.3	19775.25
885.4324	1441.6835	20604.8	19671.95
885.5759	1443.5139	20474.8	19541.6
885.7194	1445.3435	20397.65	19466.15
885.8629	1447.1724	20354.75	19423.1
886.0064	1449.0005	20253.35	19320.95
886.1499	1450.8279	20131.05	19201.5
886.2933	1452.6545	20091.95	19161.6
886.4368	1454.4804	20088.9	19160.9
886.5802	1456.3056	20107.9	19172
886.7237	1458.13	19973.6	19045.15
886.8671	1459.9536	19775.25	18842.6
887.0105	1461.7766	19453.65	18523.05
887.1539	1463.5987	19000.5	18066.45
887.2972	1465.4202	18641.45	17708.45
887.4406	1467.2409	18216.2	17281.85
887.584	1469.0608	17958.85	17028.6
887.7273	1470.88	17695.95	16766.5
887.8706	1472.6984	17439	16510.2
888.0139	1474.5161	17253.45	16321.85
888.1572	1476.3331	17071.05	16139.35
888.3005	1478.1493	16929.1	15996.7
888.4438	1479.9648	16839.35	15907.55
888.5871	1481.7795	16693.05	15760.4
888.7303	1483.5935	16622.6	15689.05
888.8736	1485.4067	16538.4	15608.6
889.0168	1487.2192	16497.75	15568.6
889.16	1489.031	16469.2	15536.35
889.3032	1490.842	16370.45	15440.6
889.4464	1492.6522	16346.5	15414
889.5896	1494.4618	16277.35	15346.05
889.7327	1496.2705	16260.05	15334.25
889.8759	1498.0785	16181.35	15249.85
890.019	1499.8858	16127.95	15198.15
890.1622	1501.6924	16080.3	15151.05
890.3053	1503.4981	16055.65	15129.45
890.4484	1505.3032	16024.1	15096.65
890.5914	1507.1075	15967.25	15037.35
890.7345	1508.911	15924.45	14994.7
890.8776	1510.7138	15852.75	14921.5
891.0206	1512.5159	15779.5	14851.25
891.1637	1514.3172	15706.2	14778.25
891.3067	1516.1178	15642.9	14715.25
891.4497	1517.9176	15626.8	14695.3
891.5927	1519.7166	15530.35	14602.3
891.7357	1521.515	15505.75	14570.65
891.8786	1523.3126	15482.65	14554.55
892.0216	1525.1094	15424.35	14496.8
892.1645	1526.9055	15354.1	14427.3
892.3074	1528.7008	15300.3	14372
892.4503	1530.4954	15198.75	14270.2
892.5932	1532.2893	15191.8	14267.8
892.7361	1534.0824	15125.45	14197.2
892.879	1535.8747	15130.05	14207.65
893.0218	1537.6663	15091.25	14168.85
893.1647	1539.4572	15041.9	14117.25
893.3075	1541.2473	15020.5	14097.05
893.4503	1543.0367	14999	14078.1
893.5931	1544.8253	14933.4	14004.3
893.7359	1546.6132	14984.1	14056.65
893.8787	1548.4003	14902.75	13971.25
894.0214	1550.1867	14915.15	13982.25
894.1642	1551.9723	14914.5	13990.2
894.3069	1553.7572	14949.1	14027.95
894.4496	1555.5414	14943.85	14024.25
894.5923	1557.3247	15002.3	14083.05
894.735	1559.1074	15051.8	14137.55
894.8777	1560.8893	15101.2	14185.55
895.0204	1562.6705	15148.45	14232.5
895.163	1564.4509	15214.7	14300.8
895.3056	1566.2305	15236.7	14326.1
895.4482	1568.0094	15294.7	14381.95
895.5908	1569.7876	15297.8	14386.25
895.7334	1571.565	15319.1	14400.4
895.876	1573.3417	15318.2	14402.15
896.0186	1575.1176	15285.65	14370.35
896.1611	1576.8928	15227.15	14315.45
896.3036	1578.6672	15123.65	14214.55
896.4461	1580.4409	15021.7	14116.2
896.5886	1582.2138	14861.25	13949.8
896.7311	1583.986	14756.1	13841.65
896.8736	1585.7575	14692.35	13781.05
897.0161	1587.5282	14657.75	13747.7
897.1585	1589.2981	14606.6	13698.6
897.3009	1591.0673	14514.4	13610.4
897.4433	1592.8358	14545.6	13638.9
897.5857	1594.6035	14556.55	13642.1
897.7281	1596.3704	14524.6	13610.3
897.8705	1598.1366	14524.55	13612.4
898.0128	1599.9021	14578.05	13670.6
898.1551	1601.6668	14587.55	13676.45
898.2975	1603.4308	14646.45	13732.8
898.4398	1605.194	14753.7	13840.8
898.5821	1606.9564	14836.2	13934.9
898.7243	1608.7182	14962.8	14059.1
898.8666	1610.4791	15108.15	14210.5
899.0088	1612.2394	15221	14325.1
899.1511	1613.9988	15423.4	14524.3
899.2933	1615.7576	15609.45	14707.65
899.4355	1617.5156	15815.75	14899.2
899.5776	1619.2728	15994.95	15086.3
899.7198	1621.0293	16081.25	15171.25
899.862	1622.785	16045.15	15134.75
900.0041	1624.54	15916.8	15012.95
900.1462	1626.2942	15762.45	14859.95
900.2883	1628.0477	15457.7	14554.25
900.4304	1629.8005	15209.55	14302.45
900.5725	1631.5525	14965.05	14062.5
900.7145	1633.3037	14776.85	13874.55
900.8566	1635.0542	14642.9	13741.1
900.9986	1636.804	14500.3	13597.9
901.1406	1638.553	14482.4	13507.6
901.2826	1640.3013	14380.65	13476.7
901.4245	1642.0488	14319.75	13412.8
901.5665	1643.7955	14358.85	13459.25
901.7085	1645.5416	14416.75	13514.6
901.8504	1647.2868	14454.6	13555.35
901.9923	1649.0313	14545.9	13641.8
902.1342	1650.7751	14665.2	13758.8
902.2761	1652.5181	14790.3	13889.3
902.4179	1654.2604	14966.55	14065.6
902.5598	1656.0019	15214.15	14315.25
902.7016	1657.7427	15516.9	14614.05
902.8434	1659.4828	15807	14904.95
902.9852	1661.222	15939.5	15035.3
903.127	1662.9606	15897.95	14992.35
903.2687	1664.6984	15701.65	14797.8
903.4105	1666.4354	15283.95	14376.1
903.5522	1668.1717	14744.95	13838.2
903.6939	1669.9072	14255.25	13345.35
903.8356	1671.642	13800.8	12892.05
903.9773	1673.3761	13443.35	12538.6
904.119	1675.1094	13137.45	12233.7
904.2606	1676.8419	12894.15	11991.8
904.4022	1678.5737	12704.35	11798
904.5439	1680.3048	12568.65	11664.1
904.6855	1682.0351	12433.1	11527.05
904.827	1683.7646	12284.1	11377.9
904.9686	1685.4934	12225.15	11320.45
905.1101	1687.2215	12115.7	11212.4
905.2517	1688.9488	12033.2	11132.2
905.3932	1690.6754	11966.95	11065.15
905.5347	1692.4012	11908.05	11005.1
905.6761	1694.1263	11847.15	10944.7
905.8176	1695.8506	11827.8	10924.55
905.9591	1697.5742	11785.15	10883.7
906.1005	1699.297	11705.5	10807.15
906.2419	1701.0191	11650.3	10752.85
906.3833	1702.7404	11601.75	10704.9
906.5246	1704.461	11513.15	10611.85
906.666	1706.1808	11471.15	10569.75
906.8073	1707.8999	11440.25	10541.05
906.9487	1709.6182	11402	10504.4
907.09	1711.3358	11344.95	10448.5
907.2313	1713.0527	11275.35	10381.2
907.3725	1714.7688	11239.4	10339.9
907.5138	1716.4841	11181.5	10282.2
907.655	1718.1987	11181.7	10275.7
907.7962	1719.9126	11130.85	10233.8
907.9374	1721.6257	11078	10183.2
908.0786	1723.338	11067.05	10173.75
908.2198	1725.0496	11014.6	10117.5
908.3609	1726.7605	10999.4	10101.25
908.502	1728.4706	10952.55	10055.8
908.6431	1730.18	10875.8	9979.8
908.7842	1731.8886	10862.6	9969.05
908.9253	1733.5964	10869.9	9955.95
909.0664	1735.3036	10825.1	9926.1
909.2074	1737.0099	10766.7	9873.45
909.3484	1738.7156	10755.9	9861.9
909.4894	1740.4204	10679.7	9783.65
909.6304	1742.1246	10656.9	9761.2
909.7714	1743.8279	10613.15	9720
909.9123	1745.5306	10594.85	9700.15
910.0532	1747.2325	10548.35	9652.55
910.1941	1748.9336	10509.85	9615
910.335	1750.634	10478.25	9580.2
910.4759	1752.3336	10431.8	9537
910.6168	1754.0325	10428.9	9538.55
910.7576	1755.7307	10389.75	9499.85
910.8984	1757.4281	10408.25	9513.7
911.0392	1759.1247	10377.7	9473.55
911.18	1760.8206	10358.1	9455.7
911.3208	1762.5158	10358.45	9456.7
911.4615	1764.2102	10290.55	9394.05
911.6022	1765.9039	10248.8	9354.9
911.7429	1767.5968	10217.95	9326.5
911.8836	1769.289	10177.2	9286.05
912.0243	1770.9804	10160.85	9266.5
912.1649	1772.6711	10135.55	9237.3
912.3056	1774.361	10105.4	9205.65
912.4462	1776.0502	10123.35	9227.05
912.5868	1777.7386	10075.85	9176
912.7274	1779.4263	10013.45	9121.6
912.8679	1781.1132	10014.85	9123.65
913.0084	1782.7994	9999.05	9109.1
913.149	1784.4849	9980.85	9091.7
913.2895	1786.1696	9942.05	9043.75
913.4299	1787.8535	9911.6	9019.3
913.5704	1789.5367	9887.75	8999.75
913.7108	1791.2192	9873	8982.2
913.8513	1792.9009	9870.6	8953.1
913.9917	1794.5818	9838.4	8940.4
914.132	1796.2621	9810.15	8915.5
914.2724	1797.9415	9778.95	8882.05
914.4128	1799.6202	9757.7	8862.05
914.5531	1801.2982	9730.7	8834.4
914.6934	1802.9755	9707.05	8810.35
914.8337	1804.6519	9682.35	8788
914.9739	1806.3277	9624.9	8733.25
915.1142	1808.0027	9591.2	8699.9
915.2544	1809.6769	9595.35	8704.9
915.3946	1811.3504	9582.25	8692.3
915.5348	1813.0231	9542.8	8653.65
915.675	1814.6951	9500.45	8608.1
915.8151	1816.3664	9537.3	8642
915.9553	1818.0369	9487.3	8592.7
916.0954	1819.7067	9478.05	8583.9
916.2355	1821.3757	9452.3	8555.4
916.3755	1823.044	9423.85	8530.35
916.5156	1824.7115	9409	8513.5
916.6556	1826.3783	9378.65	8485.35
916.7956	1828.0443	9329	8440.65
916.9356	1829.7096	9314.6	8419.5
917.0756	1831.3741	9322.85	8425.6
917.2155	1833.0379	9292.4	8401.35
917.3555	1834.701	9235.9	8347.5
917.4954	1836.3633	9244.95	8354.25
917.6353	1838.0248	9205.25	8312.65
917.7751	1839.6856	9182.2	8291.55
917.915	1841.3457	9206.45	8316.8
918.0548	1843.005	9166	8273
918.1946	1844.6636	9140.25	8248.75
918.3344	1846.3214	9105.85	8212
918.4742	1847.9785	9087.1	8197.35
918.6139	1849.6349	9096.65	8203.6
918.7537	1851.2904	9069.1	8163.9
918.8934	1852.9453	9036.15	8139.3
919.0331	1854.5994	9015.95	8116.05
919.1727	1856.2528	9022.35	8123.85
919.3124	1857.9054	8994.6	8100.4
919.452	1859.5572	8970.25	8078.55
919.5916	1861.2083	8961.05	8069.25
919.7312	1862.8587	8959.15	8063.4
919.8708	1864.5084	8955.2	8060.55
920.0103	1866.1572	8913.25	8019.7
920.1498	1867.8054	8864.25	7968.05
920.2893	1869.4528	8826.6	7930.9
920.4288	1871.0994	8820.3	7924.25
920.5683	1872.7453	8807.45	7912.4
920.7077	1874.3905	8791.25	7878.3
920.8471	1876.0349	8746.45	7852.15
920.9865	1877.6786	8762.25	7870
921.1259	1879.3215	8744.85	7849.9
921.2653	1880.9637	8737.9	7845.6
921.4046	1882.6051	8714.8	7821.1
921.5439	1884.2458	8685.45	7790.2
921.6832	1885.8858	8629.75	7738.1
921.8225	1887.525	8642.6	7748.55
921.9617	1889.1634	8590.8	7696.8
922.101	1890.8011	8581.45	7686.6
922.2402	1892.4381	8533.8	7640
922.3794	1894.0743	8539	7647.3
922.5185	1895.7098	8498.85	7607.1
922.6577	1897.3446	8486.7	7591.8
922.7968	1898.9786	8477.4	7580.75
922.9359	1900.6118	8459.05	7567.3
923.075	1902.2443	8420.9	7527.55
923.214	1903.8761	8385.1	7494.45
923.3531	1905.5071	8356.4	7462.65
923.4921	1907.1374	8308	7413
923.6311	1908.7669	8294.35	7401.95
923.77	1910.3957	8299.25	7408.9
923.909	1912.0237	8235.3	7342.55
924.0479	1913.651	8255.6	7364.25
924.1868	1915.2776	8238.1	7347.75
924.3257	1916.9034	8190.1	7300.15
924.4646	1918.5285	8130.4	7241.05
924.6034	1920.1528	8134.35	7243
924.7422	1921.7764	8096.45	7205.2
924.881	1923.3992	8090.9	7201.1
925.0198	1925.0213	8006.55	7114.4
925.1586	1926.6427	8010.5	7120.4
925.2973	1928.2633	8064.8	7081.65
925.436	1929.8832	7972.55	7079.7
925.5747	1931.5023	7926.5	7035.3
925.7134	1933.1207	7916.8	7022.05
925.852	1934.7383	7891.3	6999.85
925.9906	1936.3552	7873.75	6985.4
926.1292	1937.9714	7845.8	6955.05
926.2678	1939.5868	7822.95	6929
926.4064	1941.2015	7760.5	6867.4
926.5449	1942.8154	7747.45	6854.75
926.6834	1944.4286	7715.25	6821.45
926.8219	1946.041	7710.3	6793.75
926.9604	1947.6528	7653.85	6758.45
927.0988	1949.2637	7630.2	6738.9
927.2372	1950.8739	7606.75	6718.4
927.3756	1952.4834	7606.55	6715.3
927.514	1954.0921	7594.5	6702.9
927.6523	1955.7001	7573.95	6680.65
927.7907	1957.3074	7532.4	6644.5
927.929	1958.9139	7511.35	6625.5
928.0673	1960.5197	7475.5	6585.6
928.2055	1962.1247	7440.8	6553.1
928.3438	1963.729	7406.95	6520.95
928.482	1965.3325	7416.6	6522.55
928.6202	1966.9353	7382.65	6496
928.7584	1968.5374	7353	6464.45
928.8965	1970.1387	7337.35	6449.5
929.0346	1971.7393	7277.15	6389.55
929.1727	1973.3392	7276.45	6387.85
929.3108	1974.9383	7238.8	6350.8
929.4489	1976.5366	7183.5	6297.25
929.5869	1978.1342	7216.45	6330.65
929.7249	1979.7311	7189.25	6302.15
929.8629	1981.3273	7174.25	6288.1
930.0009	1982.9227	7148.05	6260.25
930.1388	1984.5173	7113.7	6231.3
930.2767	1986.1112	7103.3	6217.6
930.4146	1987.7044	7073.6	6187.9
930.5525	1989.2968	7078.7	6192.3
930.6904	1990.8885	7050.8	6163.1
930.8282	1992.4795	7028.45	6144.2
930.966	1994.0697	7010.95	6127.05
931.1038	1995.6592	6978.7	6095.65
931.2415	1997.2479	6970.3	6084.4
931.3793	1998.8359	6964.3	6079.75
931.517	2000.4232	6922.85	6042.85
931.6547	2002.0097	6892.2	6012
931.7923	2003.5955	6860.7	5980.05
931.93	2005.1805	6861.15	5977.1
932.0676	2006.7648	6819.75	5937.35
932.2052	2008.3484	6833.3	5951.7
932.3427	2009.9312	6816.2	5934.75
932.4803	2011.5133	6774.2	5897.35
932.6178	2013.0946	6777.6	5898.05
932.7553	2014.6752	6756.8	5876.3
932.8928	2016.2551	6755.5	5872.45
933.0302	2017.8342	6706.65	5824.25
933.1676	2019.4126	6693.75	5812.95
933.305	2020.9902	6660.2	5779.6
933.4424	2022.5672	6660.75	5782.55
933.5798	2024.1433	6625.6	5741.4
933.7171	2025.7188	6611.1	5734
933.8544	2027.2935	6612.55	5734.25
933.9917	2028.8674	6575.55	5699.2
934.129	2030.4406	6551.6	5673.2
934.2662	2032.0131	6509.45	5633.25
934.4034	2033.5849	6519	5636.05
934.5406	2035.1559	6492.1	5613.45
934.6778	2036.7261	6502.85	5621.5
934.8149	2038.2957	6480.55	5598.45
934.952	2039.8645	6461.55	5577.2
935.0891	2041.4325	6457.8	5569.8
935.2262	2042.9998	6432.75	5550.3
935.3632	2044.5664	6421.25	5540.1
935.5002	2046.1323	6401.5	5520.8
935.6372	2047.6974	6362.45	5482.55
935.7742	2049.2617	6352.4	5472.5
935.9111	2050.8254	6365.2	5464.05
936.048	2052.3883	6361.7	5479.3
936.1849	2053.9504	6339.9	5456.3
936.3218	2055.5118	6315.45	5434.3
936.4586	2057.0725	6287.95	5399.45
936.5955	2058.6325	6271.75	5391.85
936.7323	2060.1917	6255.35	5375.3
936.869	2061.7502	6228.65	5345.05
937.0058	2063.3079	6211.85	5334.55
937.1425	2064.8649	6211.85	5329.45
937.2792	2066.4212	6189.05	5307.2
937.4159	2067.9767	6174.05	5290.1
937.5525	2069.5315	6128.05	5244.8
937.6891	2071.0856	6116.3	5235.75
937.8257	2072.6389	6092.35	5211.7
937.9623	2074.1915	6054.1	5178.05
938.0989	2075.7433	6043.75	5163.55
938.2354	2077.2945	6027.75	5146.8
938.3719	2078.8448	6015.9	5132.85
938.5084	2080.3945	5983.4	5100.2
938.6448	2081.9434	5988.45	5102.95
938.7812	2083.4916	5959.45	5074.85
938.9176	2085.039	5956.8	5068.6
939.054	2086.5857	5924.85	5034.8
939.1903	2088.1317	5928.1	5038.35
939.3267	2089.677	5899.1	5006.75
939.463	2091.2215	5898.05	5008.15
939.5992	2092.7652	5898.05	5005.45
939.7355	2094.3083	5879.95	4991.85
939.8717	2095.8506	5876.55	4991.05
940.0079	2097.3921	5861.75	4975.95
940.1441	2098.933	5829.25	4944.8
940.2802	2100.4731	5834.95	4947.6
940.4163	2102.0124	5834.75	4940
940.5524	2103.5511	5804.3	4919.5
940.6885	2105.089	5783.45	4894.85
940.8245	2106.6261	5763.05	4878.05
940.9606	2108.1626	5751.75	4866.4
941.0965	2109.6983	5769.45	4857.2
941.2325	2111.2332	5718.25	4831.8
941.3684	2112.7675	5710.7	4822.25
941.5044	2114.301	5706.35	4817.05
941.6403	2115.8337	5699.7	4810
941.7761	2117.3657	5686.45	4797.9
941.912	2118.897	5666.25	4776.35
942.0478	2120.4276	5656.4	4763
942.1835	2121.9575	5613.75	4725.85
942.3193	2123.4866	5629.85	4729.35
942.455	2125.0149	5612.8	4721.75
942.5907	2126.5426	5566.35	4683.55
942.7264	2128.0695	5565.25	4679.55
942.8621	2129.5956	5549.5	4670.9
942.9977	2131.1211	5545.9	4657.45
943.1333	2132.6458	5511	4627.15
943.2689	2134.1698	5511.4	4624.95
943.4044	2135.693	5506.05	4614.15
943.54	2137.2155	5496.2	4605.25
943.6755	2138.7373	5489.7	4604.3
943.8109	2140.2584	5470.25	4587.35
943.9464	2141.7787	5457.05	4567.65
944.0818	2143.2983	5410.7	4532.85
944.2172	2144.8171	5394.05	4516.3
944.3526	2146.3353	5374.05	4492.05
944.4879	2147.8527	5374.1	4493.6
944.6232	2149.3693	5379.65	4496.45
944.7585	2150.8853	5349.65	4460.75
944.8938	2152.4005	5328.35	4439.05
945.029	2153.9149	5337.7	4447.3
945.1642	2155.4287	5311.2	4421.3
945.2994	2156.9417	5297.8	4408.45
945.4346	2158.454	5278.95	4393.8
945.5697	2159.9655	5269.65	4387.25
945.7048	2161.4764	5276.5	4393.55
945.8399	2162.9865	5257.2	4372.65
945.9749	2164.4958	5246.75	4363.05
946.1099	2166.0045	5225.4	4336.8
946.2449	2167.5124	5214.4	4331.25
946.3799	2169.0195	5199.55	4313.25
946.5148	2170.526	5203	4314.25
946.6498	2172.0317	5175.65	4289.2
946.7846	2173.5367	5162.3	4276.5
946.9195	2175.0409	5150	4263.6
947.0543	2176.5445	5147.55	4261.45
947.1891	2178.0473	5125.7	4237
947.3239	2179.5494	5113.05	4221.15
947.4587	2181.0507	5116.3	4230.15
947.5934	2182.5513	5089.9	4203.45
947.7281	2184.0512	5081.8	4195.65
947.8628	2185.5504	5065.25	4179.65
947.9974	2187.0488	5038.9	4155.8
948.132	2188.5465	5014.6	4130.4
948.2666	2190.0435	4998.45	4113.25
948.4012	2191.5397	4983.5	4095.6
948.5357	2193.0353	4966.7	4078.1
948.6702	2194.5301	4951.75	4062.25
948.8047	2196.0241	4959.95	4068.7
948.9392	2197.5175	4963.75	4071.1
949.0736	2199.0101	4940.25	4045.95
949.208	2200.502	4921.65	4035.35
949.3424	2201.9931	4887.1	4003.15
949.4767	2203.4835	4866.65	3981.45
949.611	2204.9733	4866.25	3977.5
949.7453	2206.4622	4861.65	3980.65
949.8796	2207.9505	4842.5	3958.65
950.0138	2209.438	4819.9	3939.75
950.148	2210.9248	4792.45	3907.45
950.2822	2212.4109	4781.4	3897.1
950.4164	2213.8962	4773.25	3883.2
950.5505	2215.3809	4769.65	3876.55
950.6846	2216.8648	4757.85	3866.25
950.8186	2218.3479	4743	3846.05
950.9527	2219.8304	4730.7	3833.65
951.0867	2221.3121	4713	3819.85
951.2207	2222.7931	4693.25	3802.9
951.3546	2224.2733	4696.35	3806.5
951.4886	2225.7529	4667.3	3780.3
951.6225	2227.2317	4658.25	3770.05
951.7563	2228.7098	4649.3	3764.95
951.8902	2230.1872	4632.55	3749.25
952.024	2231.6638	4628.55	3745.1
952.1578	2233.1397	4597.4	3712.05
952.2916	2234.6149	4596.95	3713.45
952.4253	2236.0894	4587.65	3703
952.559	2237.5632	4585.3	3687.95
952.6927	2239.0362	4556.9	3671.35
952.8263	2240.5085	4545.6	3659.65
952.9599	2241.9801	4522.2	3634.65
953.0935	2243.4509	4526.25	3637.25
953.2271	2244.921	4519.55	3629.7
953.3606	2246.3904	4493.6	3602.2
953.4941	2247.8591	4471.45	3583.5
953.6276	2249.3271	4470.4	3579.8
953.7611	2250.7943	4453.3	3564.05
953.8945	2252.2608	4437.4	3547.75
954.0279	2253.7266	4422.7	3533.6
954.1612	2255.1917	4405.6	3517.45
954.2946	2256.656	4403	3515.35
954.4279	2258.1197	4394.05	3510.9
954.5612	2259.5826	4388.75	3504.3
954.6944	2261.0447	4390.6	3505.05
954.8276	2262.5062	4349.4	3459.35
954.9608	2263.9669	4347.2	3456
955.094	2265.4269	4342.25	3453.45
955.2271	2266.8862	4326.3	3438.25
955.3602	2268.3448	4327.9	3440.4
955.4933	2269.8026	4327.5	3442.25
955.6264	2271.2598	4308	3422.85
955.7594	2272.7162	4288.05	3401.75
955.8924	2274.1719	4288.85	3400.45
956.0253	2275.6268	4264.3	3374.95
956.1583	2277.0811	4261.55	3372.65
956.2912	2278.5346	4246.85	3356.95
956.4241	2279.9874	4234.6	3348.9
956.5569	2281.4395	4235.95	3352.75
956.6897	2282.8908	4207.9	3316
956.8225	2284.3414	4219.05	3332.75
956.9553	2285.7914	4200.6	3314.05
957.088	2287.2406	4193.75	3305.05
957.2207	2288.689	4176.95	3286.15
957.3534	2290.1368	4175.9	3284.65
957.486	2291.5838	4170.15	3275.65
957.6186	2293.0302	4142.7	3246.25
957.7512	2294.4758	4151.1	3260.95
957.8838	2295.9206	4140.95	3250.4
958.0163	2297.3648	4119.4	3231.9
958.1488	2298.8082	4113.85	3224.65
958.2813	2300.251	4111.95	3222.1
958.4137	2301.693	4092.8	3199.75
958.5461	2303.1343	4094.75	3202.9
958.6785	2304.5748	4078.6	3189.1
958.8108	2306.0147	4055.2	3169.85
958.9432	2307.4538	4066.95	3180.15
959.0754	2308.8922	4047.95	3165.1
959.2077	2310.3299	4033.5	3149.65
959.3399	2311.7669	4022.65	3138
959.4721	2313.2031	4003.5	3117.2
959.6043	2314.6387	3995.35	3106.7
959.7365	2316.0735	3976	3085.7
959.8686	2317.5076	3964.8	3077.3
960.0006	2318.941	3971.05	3082.1
960.1327	2320.3737	3946.15	3053.45
960.2647	2321.8056	3958.2	3065.4
960.3967	2323.2369	3932	3044.3
960.5287	2324.6674	3946	3055.95
960.6606	2326.0972	3923.15	3034
960.7925	2327.5263	3912.2	3025.05
960.9244	2328.9547	3887.25	2996.6
961.0562	2330.3823	3901.5	3009.75
961.1881	2331.8092	3889.85	2994.6
961.3198	2333.2355	3877.5	2986.9
961.4516	2334.661	3863.1	2972.65
961.5833	2336.0858	3864.1	2972.75
961.715	2337.5098	3851.75	2961.4
961.8467	2338.9332	3848.9	2959.8
961.9783	2340.3558	3835.35	2944.8
962.1099	2341.7778	3831.3	2945.25
962.2415	2343.199	3801.5	2914.9
962.373	2344.6195	3787.4	2900.15
962.5045	2346.0393	3784.1	2899.8
962.636	2347.4583	3791.05	2904
962.7675	2348.8767	3770.15	2881.85
962.8989	2350.2943	3763.7	2874.05
963.0303	2351.7113	3765.1	2873.1
963.1617	2353.1275	3760.6	2868.4
963.293	2354.543	3761.2	2861.85
963.4243	2355.9578	3734.95	2845.2
963.5556	2357.3718	3716.1	2829.5
963.6868	2358.7852	3708.7	2822.65
963.818	2360.1978	3704.5	2816.75
963.9492	2361.6098	3690	2802.55
964.0803	2363.021	3696	2805.55
964.2114	2364.4315	3669.05	2782.2
964.3425	2365.8413	3662.5	2775.55
964.4736	2367.2504	3652.65	2769.7
964.6046	2368.6587	3639.1	2752.65
964.7356	2370.0664	3633.15	2748.55
964.8666	2371.4733	3627.95	2741.2
964.9975	2372.8795	3619.6	2732.8
965.1284	2374.285	3589.85	2704.2
965.2593	2375.6899	3576.3	2691.15
965.3901	2377.0939	3577.1	2691.6
965.5209	2378.4973	3569.85	2685.55
965.6517	2379.9	3560.25	2672.95
965.7825	2381.3019	3556.95	2674.75
965.9132	2382.7032	3546.8	2664.25
966.0439	2384.1037	3537.95	2658.4
966.1745	2385.5035	3521.4	2638.55
966.3051	2386.9027	3498.55	2618.05
966.4357	2388.3011	3514.85	2626.5
966.5663	2389.6987	3496.1	2613.85
966.6968	2391.0957	3484.5	2601.65
966.8273	2392.492	3476.5	2594.1
966.9578	2393.8876	3433.85	2553.1
967.0882	2395.2824	3436	2551.2
967.2186	2396.6765	3430.3	2548.65
967.349	2398.07	3428.45	2542.7
967.4793	2399.4627	3415.35	2528.1
967.6097	2400.8547	3416.7	2529.35
967.7399	2402.246	3398.9	2511.85
967.8702	2403.6366	3392.75	2509.8
968.0004	2405.0265	3362.95	2480.15
968.1306	2406.4156	3376.55	2490.7
968.2607	2407.8041	3359.15	2472.25
968.3909	2409.1918	3343.7	2457.3
968.521	2410.5789	3326.55	2443.4
968.651	2411.9652	3329.35	2441.55
968.781	2413.3508	3313.15	2430.5
968.911	2414.7358	3303.15	2418.45
969.041	2416.12	3292.35	2410.6
969.1709	2417.5035	3306.75	2424.95
969.3008	2418.8863	3290.35	2407.4
969.4307	2420.2684	3288	2402.4
969.5606	2421.6497	3274.1	2388.9
969.6904	2423.0304	3259.6	2376
969.8201	2424.4104	3254.45	2370.8
969.9499	2425.7896	3252.2	2367.1
970.0796	2427.1682	3240.4	2356.75
970.2093	2428.546	3228.75	2344.3
970.3389	2429.9232	3225.75	2341.95
970.4685	2431.2996	3213.05	2327
970.5981	2432.6753	3212.35	2329.45
970.7277	2434.0503	3211.65	2327.9
970.8572	2435.4246	3201.95	2317.85
970.9867	2436.7982	3179.4	2292.35
971.1161	2438.1711	3175.7	2289.8
971.2456	2439.5433	3172.4	2285.8
971.375	2440.9148	3157.95	2267.6
971.5043	2442.2856	3146.35	2262.05
971.6336	2443.6557	3137.85	2252.3
971.7629	2445.025	3134.25	2249.85
971.8922	2446.3937	3125.9	2239.65
972.0214	2447.7617	3119.3	2235.6
972.1506	2449.1289	3112.4	2228
972.2798	2450.4955	3110.95	2225.2
972.4089	2451.8613	3112.25	2228.45
972.538	2453.2265	3090.35	2206.55
972.6671	2454.5909	3083.25	2196.7
972.7961	2455.9546	3075.45	2189.35
972.9251	2457.3177	3070.85	2186.1
973.0541	2458.68	3069.3	2181.6
973.1831	2460.0416	3067.85	2182.8
973.312	2461.4025	3056.9	2171.6
973.4408	2462.7627	3065.25	2168.05
973.5697	2464.1222	3041.65	2159.85
973.6985	2465.4811	3029.95	2145.55
973.8273	2466.8392	3026.25	2144.2
973.956	2468.1966	3027.7	2139.8
974.0847	2469.5533	3025.4	2137.2
974.2134	2470.9093	3017.6	2132.35
974.3421	2472.2645	3019.1	2132.95
974.4707	2473.6191	3009.3	2125.05
974.5993	2474.973	2998.75	2114.9
974.7278	2476.3262	2987.4	2101.65
974.8563	2477.6787	2985.05	2100.8
974.9848	2479.0305	2978.15	2092.15
975.1132	2480.3816	2976.1	2088.65
975.2417	2481.7319	2942.2	2058.65
975.37	2483.0816	2952.45	2066.1
975.4984	2484.4306	2935.4	2050.35
975.6267	2485.7789	2932.55	2049.4
975.755	2487.1264	2919.45	2034.15
975.8833	2488.4733	2906.8	2024.95
976.0115	2489.8195	2905.4	2013.45
976.1397	2491.165	2899.45	2010.75
976.2678	2492.5097	2888.35	2004.45
976.3959	2493.8538	2876.1	1994.45
976.524	2495.1972	2878	1990.8
976.6521	2496.5398	2862.95	1977.9
976.7801	2497.8818	2856.1	1967
976.9081	2499.2231	2865.55	1977.75
977.036	2500.5637	2842.05	1955.05
977.164	2501.9035	2830.55	1941.3
977.2918	2503.2427	2831	1941.4
977.4197	2504.5812	2825.85	1939.75
977.5475	2505.919	2815.65	1928.7
977.6753	2507.256	2821.25	1934.8
977.8031	2508.5924	2801.7	1918
977.9308	2509.9281	2805.8	1913.6
978.0585	2511.2631	2790.15	1905.75
978.1861	2512.5974	2779.75	1896.05
978.3137	2513.9309	2780.45	1895.85
978.4413	2515.2638	2799.3	1889.35
978.5689	2516.596	2769.75	1885.4
978.6964	2517.9275	2756.85	1869.8
978.8239	2519.2583	2743.7	1858.8
978.9513	2520.5884	2734	1844.65
979.0788	2521.9178	2744.95	1859.85
979.2062	2523.2465	2732.9	1851.8
979.3335	2524.5745	2723.55	1838.75
979.4608	2525.9018	2719.8	1835.5
979.5881	2527.2284	2719.95	1836.55
979.7154	2528.5543	2719.4	1836.9
979.8426	2529.8796	2703	1818.85
979.9698	2531.2041	2704.35	1820.45
980.0969	2532.5279	2702.4	1821.1
980.224	2533.851	2691	1807.15
980.3511	2535.1735	2688.55	1804.05
980.4781	2536.4952	2675.1	1791.35
980.6052	2537.8163	2686.55	1798.85
980.7321	2539.1366	2665.6	1778.35
980.8591	2540.4562	2669.95	1782.8
980.986	2541.7752	2654.15	1768.9
981.1129	2543.0935	2656	1769.85
981.2397	2544.411	2646.65	1758.7
981.3665	2545.7279	2650.95	1764.4
981.4933	2547.0441	2648.65	1763
981.62	2548.3596	2645.3	1756.95
981.7467	2549.6744	2637.5	1751.25
981.8734	2550.9885	2627.45	1733.4
982.0001	2552.3019	2628.9	1743.4
982.1267	2553.6146	2626.15	1740.2
982.2532	2554.9266	2623.2	1738.15
982.3798	2556.2379	2599.95	1713.75
982.5063	2557.5485	2604.1	1719.15
982.6327	2558.8585	2600.65	1707.7
982.7592	2560.1677	2604.4	1714.9
982.8856	2561.4762	2584.9	1699.15
983.0119	2562.7841	2587.35	1697.1
983.1383	2564.0913	2573.4	1689.15
983.2646	2565.3977	2572.85	1686.55
983.3908	2566.7035	2574.15	1688.8
983.517	2568.0086	2566.85	1677.75
983.6432	2569.313	2570.6	1683.95
983.7694	2570.6167	2562.1	1671.4
983.8955	2571.9197	2550.6	1665.8
984.0216	2573.222	2550.25	1662.6
984.1476	2574.5236	2549.25	1661.1
984.2737	2575.8246	2553.7	1664.35
984.3996	2577.1248	2531.85	1640.75
984.5256	2578.4244	2535.15	1648.45
984.6515	2579.7232	2533.05	1647.15
984.7774	2581.0214	2564.25	1646.2
984.9032	2582.3189	2538.55	1651.6
985.029	2583.6157	2533.6	1643.85
985.1548	2584.9118	2532.35	1647.5
985.2806	2586.2072	2520.8	1635.5
985.4063	2587.5019	2519.5	1634.45
985.5319	2588.7959	2514.45	1628.6
985.6576	2590.0893	2513.55	1627.3
985.7832	2591.3819	2512.5	1627.35
985.9087	2592.6739	2508.4	1623.25
986.0343	2593.9652	2497.75	1608.2
986.1597	2595.2557	2491.85	1604.45
986.2852	2596.5456	2490.85	1601
986.4106	2597.8348	2498.7	1613.85
986.536	2599.1234	2481.65	1596.6
986.6614	2600.4112	2478.1	1591.7
986.7867	2601.6983	2478.65	1591.1
986.912	2602.9848	2461.8	1575.1
987.0372	2604.2705	2476.25	1582.1
987.1624	2605.5556	2462.3	1574.7
987.2876	2606.84	2450.8	1563.65
987.4128	2608.1237	2461.35	1577.45
987.5379	2609.4067	2451	1565.5
987.6629	2610.689	2454.05	1558.65
987.788	2611.9707	2430.25	1538.8
987.913	2613.2516	2426.45	1534.7
988.0379	2614.5319	2413.85	1527.95
988.1629	2615.8115	2404.35	1517.4
988.2878	2617.0903	2402	1516.5
988.4126	2618.3685	2399.95	1516.6
988.5375	2619.6461	2392.5	1506.25
988.6622	2620.9229	2388.1	1501.4
988.787	2622.199	2391.45	1506
988.9117	2623.4745	2378.1	1492.95
989.0364	2624.7493	2370.65	1486.15
989.161	2626.0234	2374.15	1489.3
989.2857	2627.2968	2375.2	1491.1
989.4102	2628.5695	2359.5	1471.65
989.5348	2629.8415	2364.1	1478.8
989.6593	2631.1128	2359.9	1470.05
989.7837	2632.3835	2356.45	1471.9
989.9082	2633.6535	2343.75	1461.95
990.0326	2634.9228	2340.2	1455.5
990.1569	2636.1914	2344.45	1458.4
990.2812	2637.4593	2325.85	1439.6
990.4055	2638.7265	2330.8	1443.7
990.5298	2639.9931	2325.45	1441.1
990.654	2641.259	2322.95	1436.4
990.7782	2642.5242	2322.85	1437.7
990.9023	2643.7887	2305.55	1419.95
991.0264	2645.0525	2322.4	1436.6
991.1505	2646.3156	2307.15	1421.55
991.2745	2647.5781	2289.4	1405
991.3985	2648.8398	2294.85	1410.5
991.5225	2650.1009	2286.85	1393.25
991.6464	2651.3613	2272.45	1387.15
991.7703	2652.6211	2270.1	1382.85
991.8942	2653.8801	2260.35	1376.7
992.018	2655.1385	2284.25	1397.35
992.1418	2656.3961	2263.65	1376.15
992.2655	2657.6531	2266.15	1378
992.3892	2658.9094	2254.7	1368.55
992.5129	2660.1651	2268.45	1384.45
992.6366	2661.42	2257.5	1372.85
992.7602	2662.6743	2266.1	1378.85
992.8837	2663.9279	2259.35	1375.15
993.0073	2665.1808	2249.2	1362.25
993.1307	2666.433	2251.45	1365.5
993.2542	2667.6846	2244.3	1359.2
993.3776	2668.9354	2243.8	1354.6
993.501	2670.1856	2243.35	1357.35
993.6244	2671.4351	2240.4	1356.6
993.7477	2672.6839	2248.65	1363.55
993.8709	2673.9321	2243.75	1361.65
993.9942	2675.1795	2242.3	1355.5
994.1174	2676.4263	2235.1	1352.95
994.2405	2677.6724	2233.95	1350.7
994.3637	2678.9179	2236.65	1350.8
994.4868	2680.1626	2235.95	1352.55
994.6098	2681.4067	2232.95	1347.95
994.7328	2682.6501	2226.75	1343.8
994.8558	2683.8928	2206.1	1321.05
994.9788	2685.1348	2209.55	1324.8
995.1017	2686.3761	2203.1	1318.95
995.2245	2687.6168	2197.55	1314.35
995.3474	2688.8568	2203.05	1318.6
995.4702	2690.0961	2188.45	1304.55
995.5929	2691.3348	2175.05	1290.8
995.7156	2692.5727	2179.7	1293.95
995.8383	2693.81	2170.45	1285.7
995.961	2695.0466	2164.4	1281
996.0836	2696.2826	2168.35	1281.25
996.2062	2697.5178	2186.75	1282.85
996.3287	2698.7524	2154.6	1269.35
996.4512	2699.9863	2168.1	1282.1
996.5737	2701.2195	2147	1262.8
996.6961	2702.452	2164.85	1278.1
996.8185	2703.6839	2164.6	1280.8
996.9408	2704.9151	2169.9	1286.35
997.0631	2706.1456	2160.1	1273.3
997.1854	2707.3755	2158.75	1272.3
997.3077	2708.6046	2175.1	1289.7
997.4299	2709.8331	2173	1285.9
997.552	2711.0609	2171.95	1286.65
997.6742	2712.2881	2181.85	1297.45
997.7963	2713.5145	2188.05	1300.65
997.9183	2714.7403	2182.45	1299.25
998.0403	2715.9654	2198.65	1313
998.1623	2717.1899	2218.85	1319.4
998.2842	2718.4136	2211.3	1327.4
998.4062	2719.6367	2218.4	1334.15
998.528	2720.8591	2234	1344.8
998.6498	2722.0809	2233.25	1349.85
998.7716	2723.3019	2242.95	1356.1
998.8934	2724.5223	2244.35	1361.1
999.0151	2725.7421	2253.95	1369.85
999.1368	2726.9611	2250	1363.8
999.2584	2728.1795	2237.25	1348.15
999.38	2729.3972	2237.95	1356.05
999.5016	2730.6142	2227.9	1332.05
999.6231	2731.8306	2208.5	1321.8
999.7446	2733.0462	2181.55	1295.5
999.8661	2734.2612	2157.6	1266.7
999.9875	2735.4756	2143.95	1257.05
1000.1089	2736.6892	2133.9	1249.5
1000.2302	2737.9022	2105.15	1223.35
1000.3515	2739.1145	2093.4	1210
1000.4728	2740.3262	2082.65	1189.4
1000.594	2741.5372	2060	1175.9
1000.7152	2742.7475	2045.85	1161.9
1000.8363	2743.9571	2039.9	1155.55
1000.9575	2745.1661	2029.8	1142.45
1001.0785	2746.3744	2016.5	1130
1001.1996	2747.582	2012.95	1128.65
1001.3206	2748.7889	2008.4	1122.6
1001.4415	2749.9952	1986.55	1102.25
1001.5625	2751.2008	1981.75	1096.2
1001.6833	2752.4057	1981.35	1095.5
1001.8042	2753.61	1969.75	1084.8
1001.925	2754.8136	1969.15	1084.05
1002.0458	2756.0165	1965.95	1081.25
1002.1665	2757.2188	1956.85	1075.2
1002.2872	2758.4204	1946.1	1063.1
1002.4078	2759.6213	1948.2	1061.2
1002.5285	2760.8215	1950.5	1062.05
1002.649	2762.0211	1940.35	1055.75
1002.7696	2763.22	1948.2	1061.2
1002.8901	2764.4182	1932.05	1048.6
1003.0106	2765.6158	1927.3	1043.3
1003.131	2766.8127	1931.75	1046.85
1003.2514	2768.009	1915.4	1032.5
1003.3717	2769.2045	1915.8	1032.3
1003.492	2770.3994	1907.9	1022.7
1003.6123	2771.5936	1911.75	1028.55
1003.7325	2772.7872	1895.6	1014.6
1003.8527	2773.9801	1893.15	1010.5
1003.9729	2775.1723	1909.9	1008.25
1004.093	2776.3639	1886.6	1003.2
1004.2131	2777.5548	1896	1010.35
1004.3331	2778.745	1888.5	1004.95
1004.4531	2779.9346	1888.55	1004.95
1004.5731	2781.1235	1896.15	1013.3
1004.693	2782.3117	1891.1	1007.9
1004.8129	2783.4992	1882.8	1000.75
1004.9328	2784.6861	1901.05	1018.25
1005.0526	2785.8723	1903.45	1019.1
1005.1723	2787.0579	1905.7	1020.7
1005.2921	2788.2428	1904.85	1021.55
1005.4118	2789.427	1906.3	1024.2
1005.5314	2790.6106	1912.5	1029.9
1005.651	2791.7935	1919.9	1036.25
1005.7706	2792.9757	1925.1	1044.65
1005.8902	2794.1573	1934.65	1051.15
1006.0097	2795.3382	1953.3	1069.65
1006.1291	2796.5184	1963.7	1085.85
1006.2485	2797.698	1964	1079.35
1006.3679	2798.8769	1973.75	1092.2
1006.4873	2800.0551	1986.75	1103.6
1006.6066	2801.2327	2005.9	1121.45
1006.7258	2802.4096	2021.4	1141.55
1006.8451	2803.5859	2034.8	1151.85
1006.9642	2804.7615	2057.55	1175.25
1007.0834	2805.9364	2072.8	1191.2
1007.2025	2807.1106	2090.5	1209.45
1007.3216	2808.2842	2132.2	1247.75
1007.4406	2809.4572	2164.6	1282.35
1007.5596	2810.6294	2185.35	1300.9
1007.6785	2811.801	2233.7	1353.8
1007.7975	2812.972	2267.55	1384.1
1007.9163	2814.1423	2305.85	1424.45
1008.0352	2815.3119	2349.75	1467.05
1008.154	2816.4808	2385.2	1503.95
1008.2727	2817.6491	2447.65	1564.15
1008.3914	2818.8167	2482	1600.95
1008.5101	2819.9837	2542.45	1656.7
1008.6288	2821.15	2585.25	1703.25
1008.7474	2822.3157	2616	1734.45
1008.8659	2823.4807	2672.7	1790.3
1008.9844	2824.645	2733.35	1850.1
1009.1029	2825.8086	2762.75	1882.55
1009.2214	2826.9716	2813.8	1931.5
1009.3398	2828.134	2851.1	1971.45
1009.4581	2829.2957	2888.75	2005.4
1009.5764	2830.4567	2914.85	2033.55
1009.6947	2831.617	2931.35	2049.9
1009.813	2832.7767	2940.85	2058.35
1009.9312	2833.9358	2937.25	2056.75
1010.0493	2835.0941	2940.8	2057.4
1010.1675	2836.2519	2934.55	2053.75
1010.2855	2837.4089	2914	2033.6
1010.4036	2838.5653	2914.95	2033.15
1010.5216	2839.7211	2905.2	2025.9
1010.6396	2840.8761	2905.35	2022.05
1010.7575	2842.0306	2923.2	2042.7
1010.8754	2843.1843	2953.15	2072.8
1010.9932	2844.3374	3004.4	2123.5
1011.111	2845.4899	3046.75	2164.75
1011.2288	2846.6417	3126.7	2246.15
1011.3465	2847.7928	3200.95	2319.9
1011.4642	2848.9433	3278.75	2398.25
1011.5818	2850.0931	3339.35	2457.35
1011.6995	2851.2422	3416.3	2532.9
1011.817	2852.3907	3485.6	2603.1
1011.9345	2853.5385	3552.7	2670.3
1012.052	2854.6857	3621.2	2709.85
1012.1695	2855.8323	3648.3	2768.75
1012.2869	2856.9781	3701.8	2820.45
1012.4042	2858.1233	3738.7	2859.25
1012.5216	2859.2679	3788.15	2908.25
1012.6389	2860.4118	3836.8	2955.9
1012.7561	2861.555	3878.05	2991.3
1012.8733	2862.6976	3908.65	3025.85
1012.9905	2863.8395	3928.25	3046.4
1013.1076	2864.9808	3950.4	3068.7
1013.2247	2866.1214	3972.2	3091.65
1013.3417	2867.2614	3995.75	3114.3
1013.4587	2868.4007	4000.6	3117.4
1013.5757	2869.5393	3993.5	3111.7
1013.6926	2870.6773	4020.9	3137.3
1013.8095	2871.8146	4029.8	3144.35
1013.9263	2872.9513	4028.25	3142.65
1014.0431	2874.0874	4033.05	3151.25
1014.1599	2875.2227	4021.75	3140.5
1014.2766	2876.3574	3983	3103.35
1014.3933	2877.4915	3967.75	3088.55
1014.51	2878.6249	3946	3066.2
1014.6266	2879.7577	3917.05	3033.35
1014.7431	2880.8898	3901	3011.95
1014.8596	2882.0212	3871.65	2991.3
1014.9761	2883.152	3859.05	2976.9
1015.0925	2884.2821	3860.15	2980.1
1015.2089	2885.4116	3841.55	2963.25
1015.3253	2886.5405	3837.2	2955.35
1015.4416	2887.6686	3853.5	2969.35
1015.5579	2888.7962	3856.05	2976.2
1015.6741	2889.923	3878.55	2999.8
1015.7903	2891.0493	3865.6	2986.15
1015.9065	2892.1748	3875.35	2994.65
1016.0226	2893.2997	3883.3	3003.1
1016.1387	2894.424	3899.25	3019.35
1016.2547	2895.5476	3914.65	3033.8
1016.3707	2896.6706	3941.25	3059.2
1016.4866	2897.7929	3955.9	3075.4
1016.6025	2898.9145	3982.75	3101.8
1016.7184	2900.0355	4022.6	3141.2
1016.8342	2901.1559	4053.8	3173.3
1016.95	2902.2756	4084	3204.55
1017.0658	2903.3946	4112.95	3231.85
1017.1815	2904.513	4157.3	3275.6
1017.2971	2905.6308	4156.4	3276.65
1017.4127	2906.7479	4205.2	3327.25
1017.5283	2907.8643	4213.35	3332.1
1017.6439	2908.9801	4222.45	3342.65
1017.7594	2910.0953	4221.45	3341.2
1017.8748	2911.2098	4211.25	3326.6
1017.9902	2912.3236	4228.65	3339.75
1018.1056	2913.4368	4219.95	3337.05
1018.2209	2914.5494	4184.7	3304
1018.3362	2915.6613	4157.65	3271.35
1018.4515	2916.7725	4127.05	3244.95
1018.5667	2917.8831	4091.5	3210.05
1018.6819	2918.9931	4068.7	3184.45
1018.797	2920.1024	4021.45	3143.45
1018.9121	2921.211	4003.5	3123.2
1019.0271	2922.319	3991.65	3112.55
1019.1421	2923.4264	3972.4	3093.85
1019.2571	2924.5331	3954.1	3076.65
1019.372	2925.6391	3937.45	3059.5
1019.4869	2926.7445	3934.9	3055.9
1019.6017	2927.8493	3937.65	3056.85
1019.7165	2928.9534	3929.1	3048.8
1019.8313	2930.0569	3921.7	3039.45
1019.946	2931.1597	3917.15	3036.25
1020.0606	2932.2619	3906.45	3027.85
1020.1753	2933.3634	3897.25	3018.3
1020.2899	2934.4643	3906.15	3019.35
1020.4044	2935.5645	3874.9	2988.9
1020.5189	2936.6641	3848.05	2964.25
1020.6334	2937.763	3779.15	2899.9
1020.7478	2938.8613	3745.95	2863.2
1020.8622	2939.959	3676.2	2792.45
1020.9765	2941.056	3626.1	2748.6
1021.0908	2942.1523	3537.35	2656.05
1021.2051	2943.248	3451.75	2572.55
1021.3193	2944.3431	3343.15	2461.3
1021.4334	2945.4375	3264	2383.8
1021.5476	2946.5313	3148.6	2269.85
1021.6617	2947.6244	3042.4	2161
1021.7757	2948.7169	2957.2	2077.75
1021.8897	2949.8087	2856.35	1976.45
1022.0037	2950.8999	2761.35	1880
1022.1176	2951.9904	2694.65	1816.9
1022.2315	2953.0803	2600.4	1720.15
1022.3453	2954.1696	2542.7	1662.05
1022.4591	2955.2582	2478.3	1600.1
1022.5728	2956.3462	2445.5	1564.3
1022.6865	2957.4335	2411.05	1531.8
1022.8002	2958.5202	2365.05	1483.4
1022.9138	2959.6062	2338.1	1459.4
1023.0274	2960.6916	2325.8	1449.05
1023.141	2961.7764	2304.25	1425.2
1023.2545	2962.8605	2284.5	1403.95
1023.3679	2963.9439	2264.05	1384.8
1023.4813	2965.0267	2264.1	1384.55
1023.5947	2966.1089	2259.15	1358.7
1023.708	2967.1905	2235.05	1354.9
1023.8213	2968.2714	2239.3	1361.6
1023.9346	2969.3516	2219.9	1341.65
1024.0478	2970.4312	2236.2	1349.85
1024.1609	2971.5102	2232.2	1352.8
1024.274	2972.5885	2234.55	1355.55
1024.3871	2973.6662	2230.15	1346.4
1024.5002	2974.7432	2211.7	1333.45
1024.6132	2975.8196	2218.5	1338.05
1024.7261	2976.8954	2202.15	1325.9
1024.839	2977.9705	2187.85	1308.9
1024.9519	2979.045	2186.7	1309.6
1025.0647	2980.1188	2164.3	1284.25
1025.1775	2981.192	2137.35	1258.6
1025.2902	2982.2645	2118.2	1238.15
1025.4029	2983.3364	2090.9	1213.95
1025.5156	2984.4077	2061.4	1182.5
1025.6282	2985.4783	2044.2	1160.35
1025.7407	2986.5483	1991.6	1114.3
1025.8532	2987.6177	1969.45	1091.7
1025.9657	2988.6864	1927.6	1049.05
1026.0782	2989.7545	1894	1014.25
1026.1906	2990.8219	1871.95	995.35
1026.3029	2991.8887	1841.75	961.35
1026.4152	2992.9548	1804.55	926.15
1026.5275	2994.0204	1773.15	894.2
1026.6397	2995.0852	1732.9	856.15
1026.7519	2996.1495	1718	840.3
1026.864	2997.2131	1685.6	806.8
1026.9761	2998.276	1670.2	790.6
1027.0882	2999.3383	1642.25	763.4
1027.2002	3000.4	1631.15	750.4
1027.3122	3001.4611	1610.5	732.4
1027.4241	3002.5215	1586.65	705.85
1027.536	3003.5812	1580.9	702.3
1027.6478	3004.6404	1566.15	687.5
1027.7596	3005.6989	1557.95	678.2
1027.8714	3006.7567	1551.65	674
1027.9831	3007.8139	1563.65	653.15
1028.0947	3008.8705	1538.6	659.9
1028.2064	3009.9264	1527.4	642.95
1028.3179	3010.9818	1515.4	639.1
1028.4295	3012.0364	1513.55	635.8
1028.541	3013.0905	1503.45	623.8
1028.6524	3014.1439	1496.85	618.25
1028.7638	3015.1966	1496.1	620.3
1028.8752	3016.2487	1501	621.45
1028.9865	3017.3002	1489.4	606.55
1029.0978	3018.3511	1491.9	617.65
1029.209	3019.4013	1489.2	611.5
1029.3202	3020.4509	1492.95	613.3
1029.4314	3021.4998	1486.65	609.7
1029.5425	3022.5481	1483	605.5
1029.6535	3023.5958	1485.85	608.35
1029.7645	3024.6428	1481.9	602.15
1029.8755	3025.6892	1486.85	611.15
1029.9864	3026.735	1490.25	612
1030.0973	3027.7802	1485.6	605.95
1030.2082	3028.8247	1481.6	602.5
1030.319	3029.8685	1491.7	614.75
1030.4297	3030.9118	1491.5	611.75
1030.5404	3031.9544	1494.8	617
1030.6511	3032.9963	1495.55	618.05
1030.7617	3034.0376	1499.85	621.1
1030.8723	3035.0783	1504.55	624.9
1030.9829	3036.1184	1506.25	627.65
1031.0934	3037.1578	1507.1	629.8
1031.2038	3038.1966	1518.65	640.55
1031.3142	3039.2348	1512.65	636.85
1031.4246	3040.2723	1515.95	629.55
1031.5349	3041.3092	1508.65	631.15
1031.6452	3042.3455	1500.25	622.7
1031.7554	3043.3811	1501	620.25
1031.8656	3044.4161	1497.25	619.6
1031.9758	3045.4505	1495.2	618.95
1032.0859	3046.4842	1483.85	605.35
1032.1959	3047.5173	1473.95	597.95
1032.3059	3048.5498	1470.75	593.45
1032.4159	3049.5816	1462.75	584.9
1032.5258	3050.6128	1470.7	592.4
1032.6357	3051.6434	1450.6	568.8
1032.7455	3052.6734	1451.3	571.55
1032.8553	3053.7027	1444.65	567.35
1032.9651	3054.7314	1440.6	564.85
1033.0748	3055.7594	1431.7	552.9
1033.1845	3056.7868	1426.85	548.65
1033.2941	3057.8136	1419.95	541.4
1033.4037	3058.8398	1406	530.7
1033.5132	3059.8653	1409.6	531.7
1033.6227	3060.8902	1396.25	518.9
1033.7321	3061.9145	1393.4	516.6
1033.8415	3062.9381	1388.85	511.05
1033.9509	3063.9612	1407.3	515.65
1034.0602	3064.9835	1379.4	500.6
1034.1694	3066.0053	1382	502.4
1034.2787	3067.0264	1358	480.25
1034.3878	3068.0469	1359.7	481.85
1034.497	3069.0668	1361.05	481.2
1034.6061	3070.086	1347.65	468.7
1034.7151	3071.1046	1339.55	462.75
1034.8241	3072.1226	1327.7	448.45
1034.9331	3073.1399	1320	441.55
1035.042	3074.1567	1310.65	432.2
1035.1508	3075.1727	1300.3	421.25
1035.2597	3076.1882	1290.7	412.85
1035.3684	3077.203	1285.15	408.4
1035.4772	3078.2173	1278.25	398.7
1035.5859	3079.2308	1279	397.9
1035.6945	3080.2438	1265.5	385.35
1035.8031	3081.2561	1253.35	376.4
1035.9117	3082.2678	1247.6	371.85
1036.0202	3083.2789	1243.8	366.5
1036.1286	3084.2893	1238.1	360.1
1036.2371	3085.2991	1229.25	352.6
1036.3454	3086.3083	1226.95	344.5
1036.4538	3087.3169	1219.5	343.7
1036.562	3088.3248	1210.45	331.9
1036.6703	3089.3321	1208.15	330.45
1036.7785	3090.3388	1208.55	331.15
1036.8866	3091.3449	1196.1	318.15
1036.9948	3092.3503	1197.9	317.7
1037.1028	3093.3551	1185.65	308.4
1037.2108	3094.3593	1185.35	309.3
1037.3188	3095.3629	1180.25	303.3
1037.4267	3096.3658	1176.7	295.85
1037.5346	3097.3681	1178.9	302.05
1037.6425	3098.3698	1175.8	297.1
1037.7503	3099.3708	1172.95	288.55
1037.858	3100.3713	1171.95	295.45
1037.9657	3101.3711	1165.45	286.55
1038.0734	3102.3702	1293.95	277.15
1038.181	3103.3688	1154.25	276
1038.2886	3104.3667	1154	279.65
1038.3961	3105.364	1155.45	279.6
1038.5036	3106.3607	1146	266.3
1038.611	3107.3568	1144.5	269
1038.7184	3108.3522	1144.65	266.6
1038.8257	3109.347	1144.9	267
1038.933	3110.3412	1147.95	269.75
1039.0403	3111.3348	1136.5	258.65
1039.1475	3112.3277	1135.4	258.65
1039.2547	3113.32	1136	260.15
1039.3618	3114.3117	1134.05	255.7
1039.4689	3115.3028	1128.85	250.95
1039.5759	3116.2932	1127.75	249.45
1039.6829	3117.2831	1133.2	249.15
1039.7898	3118.2723	1122.9	246.7
1039.8967	3119.2608	1118.75	241.25
1040.0035	3120.2488	1120.55	243.05
1040.1103	3121.2361	1117.65	242.2
1040.2171	3122.2229	1116.9	238.85
1040.3238	3123.209	1116.05	240.3
1040.4305	3124.1944	1111.8	235.3
1040.5371	3125.1793	1113.5	237.35
1040.6437	3126.1635	1108.95	230.15
1040.7502	3127.1471	1105.8	227.75
1040.8567	3128.1301	1107.05	231.05
1040.9631	3129.1125	1097.4	220.7
1041.0695	3130.0942	1102.65	227.6
1041.1759	3131.0753	1107.8	223.35
1041.2822	3132.0558	1103.35	226.5
1041.3884	3133.0357	1096.7	219.95
1041.4946	3134.015	1093.85	215
1041.6008	3134.9936	1095.45	217.05
1041.7069	3135.9716	1108	209.45
1041.813	3136.949	1087	206.65
1041.919	3137.9258	1107	212.25
1042.025	3138.902	1089.45	209.85
1042.1309	3139.8775	1085.75	209.7
1042.2368	3140.8524	1087.9	210.7
1042.3427	3141.8267	1085.8	207.25
1042.4485	3142.8004	1082.4	205.3
1042.5542	3143.7735	1087.3	205.4
1042.6599	3144.7459	1087.35	208.5
1042.7656	3145.7178	1081	202.45
1042.8712	3146.689	1079.6	202.3
1042.9768	3147.6596	1077.15	199.6
1043.0823	3148.6295	1077.25	199.6
1043.1878	3149.5989	1073.2	197.9
1043.2932	3150.5676	1070.7	195.3
1043.3986	3151.5357	1067.25	190.6
1043.5039	3152.5032	1067.45	193
1043.6092	3153.4701	1065.7	190.8
1043.7145	3154.4364	1069.55	189.75
1043.8197	3155.402	1059.45	184.05
1043.9248	3156.367	1066.1	188.85
1044.03	3157.3315	1094.05	189.5
1044.135	3158.2952	1060.65	185.65
1044.24	3159.2584	1061.9	185.45
1044.345	3160.221	1060.4	184.75
1044.4499	3161.1829	1058.1	182
1044.5548	3162.1442	1056	181.45
1044.6596	3163.105	1054.5	178.4
1044.7644	3164.065	1051.05	176.4
1044.8692	3165.0245	1052.5	175.45
1044.9739	3165.9834	1045.7	169.95
1045.0785	3166.9416	1046	171.7
1045.1831	3167.8993	1049.3	172.15
1045.2877	3168.8563	1050.9	175
1045.3922	3169.8127	1042.9	167.6
1045.4966	3170.7684	1041.15	164.55
1045.6011	3171.7236	1048.4	172.85
1045.7054	3172.6782	1041.9	165.15
1045.8098	3173.6321	1045.9	167.2
1045.914	3174.5854	1048.25	166.55
1046.0183	3175.5381	1043.75	169.5
1046.1224	3176.4902	1037.25	161.1
1046.2266	3177.4417	1033.25	158.5
1046.3307	3178.3926	1037.55	160.05
1046.4347	3179.3428	1034.75	160.1
1046.5387	3180.2924	1036.85	159.05
1046.6427	3181.2415	1035	158.95
1046.7466	3182.1899	1037.5	159.95
1046.8504	3183.1377	1028.5	152.05
1046.9542	3184.0848	1036.05	159.4
1047.058	3185.0314	1029.6	155.15
1047.1617	3185.9773	1030.65	153.75
1047.2654	3186.9227	1031.7	155.4
1047.369	3187.8674	1026.75	149.75
1047.4726	3188.8115	1029.55	150.9
1047.5761	3189.755	1024.3	150.35
1047.6796	3190.6979	1019.2	144.2
1047.783	3191.6402	1024.15	148.7
1047.8864	3192.5818	1023.1	146.95
1047.9898	3193.5229	1027.7	145.35
1048.0931	3194.4633	1025.15	148.15
1048.1963	3195.4031	1022.7	145
1048.2995	3196.3423	1023.35	148.3
1048.4027	3197.2809	1020.5	143.1
1048.5058	3198.2189	1020.35	144.3
1048.6089	3199.1563	1031.65	140.7
1048.7119	3200.0931	1013.4	139.25
1048.8148	3201.0292	1013.4	137.05
1048.9178	3201.9648	1014.2	139.6
1049.0206	3202.8997	1018	139.7
1049.1235	3203.834	1010.35	135.85
1049.2262	3204.7677	1006.4	130.5
1049.329	3205.7008	1007.7	130.15
1049.4317	3206.6333	1008.7	134.45
1049.5343	3207.5652	1009.55	133.3
1049.6369	3208.4964	1009.55	132.05
1049.7394	3209.4271	1008.4	134.5
1049.8419	3210.3571	1006.45	133.55
1049.9444	3211.2865	1005.55	128.75
1050.0468	3212.2154	1010.75	134.05
1050.1491	3213.1436	1007.75	130.2
1050.2514	3214.0712	1009.95	129.25
1050.3537	3214.9982	1000.25	124.5
1050.4559	3215.9246	1002.7	126.2
1050.5581	3216.8503	998.9	124.8
1050.6602	3217.7755	1001.5	127.95
1050.7623	3218.7001	997.05	122.15
1050.8643	3219.624	1003.45	130.85
1050.9663	3220.5473	995.6	120.15
1051.0682	3221.4701	1001.8	127.5
1051.1701	3222.3922	1001.3	125.05
1051.2719	3223.3137	998.9	123.05
1051.3737	3224.2346	999.2	124
1051.4754	3225.1549	994.5	119.3
1051.5771	3226.0746	996.75	121.3
1051.6788	3226.9937	995.15	121.75
1051.7804	3227.9121	996.85	122.1
1051.8819	3228.83	993.15	119.1
1051.9834	3229.7473	993.45	117.65
1052.0849	3230.6639	991.55	117.1
1052.1863	3231.5799	992.25	119.8
1052.2876	3232.4954	995.75	120.45
1052.3889	3233.4102	990.9	116.4
1052.4902	3234.3244	990.3	115.2
1052.5914	3235.238	986.4	111.3
1052.6926	3236.151	1012.5	115.6
1052.7937	3237.0634	988.4	113.75
1052.8948	3237.9752	987.45	113.6
1052.9958	3238.8864	985.2	108.95
1053.0968	3239.797	985.95	112.8
1053.1977	3240.7069	990.9	113.4
1053.2986	3241.6163	986.55	110
1053.3994	3242.5251	984.8	110.5
1053.5002	3243.4332	978	104.65
1053.6009	3244.3408	984.1	108.35
1053.7016	3245.2477	980.35	108.15
1053.8022	3246.154	980.25	103.5
1053.9028	3247.0598	975.8	99.25
1054.0034	3247.9649	978.55	105.35
1054.1039	3248.8694	978.15	102.6
1054.2043	3249.7733	977.1	103.2
1054.3047	3250.6766	977.55	102.55
1054.4051	3251.5793	979.2	104.9
1054.5054	3252.4814	974.6	100.6
1054.6056	3253.3829	975.1	101.7
1054.7058	3254.2838	973.65	100.5
1054.806	3255.1841	971.95	97.1
1054.9061	3256.0838	969.05	95
1055.0061	3256.9829	971.3	96.75
1055.1062	3257.8814	968.85	91.6
1055.2061	3258.7792	975.1	100.5
1055.306	3259.6765	967.45	91.2
1055.4059	3260.5731	967.7	94.7
1055.5057	3261.4692	963.8	89.2
1055.6055	3262.3647	964	88.3
1055.7052	3263.2595	959.85	84.8
1055.8049	3264.1538	960.7	86.45
1055.9045	3265.0474	965.4	90.3
1056.0041	3265.9404	954	81.15
1056.1036	3266.8329	952	80.1
1056.2031	3267.7247	964.45	79.4
1056.3025	3268.616	953.8	81.25
1056.4019	3269.5066	951.15	78.55
1056.5013	3270.3966	951.1	75.8
1056.6005	3271.286	945.3	71.25
