Software Version:	3.9.2.0
Unit SN:	10000200
Spectrometer SN:	6960
Date:	3/8/2024 12:23:29 PM
Data Line Index:	25
Spectral Points:	2048
Integration time (ms):	125
Averages:	20
Delay (ms):	30000
Sequence Number:	1
Processing:	dark subtract
Laser Power (mW):	305
Laser Current (mA):	822
Laser Diode Temp (C):	25
Laser Case Temp (C):	25.8
System Temp (C):	25.8
Spectrometer Temp (C):	23.6
CCD Temp (C):	0.005
Secondary Temp (C):	20.008
Heatsink Temp (C):	20.881
CCDPCB Temp (C):	35.94
SecondaryPCB Temp (C):	29.015

Wavelength	RamanShift	Raw Counts	Dark Subtracted
787.061	30.1047	415.65	6
787.2016	32.3739	414.7	7.95
787.3422	34.6426	418.15	7.9
787.4828	36.9109	419.95	6.95
787.6235	39.1787	423.4	8.65
787.7642	41.4461	429.2	10.05
787.9049	43.7131	431.2	10.1
788.0456	45.9796	435.65	11.4
788.1863	48.2456	440.85	11.4
788.3271	50.5112	446.15	11.7
788.4679	52.7764	449.1	13.95
788.6087	55.0411	456.25	15.05
788.7496	57.3054	461.4	15.9
788.8904	59.5692	464.85	16.95
789.0313	61.8326	469.35	22.05
789.1722	64.0955	474.85	21.6
789.3132	66.3579	482.6	24.95
789.4541	68.6199	488.15	26.2
789.5951	70.8815	502.25	37.2
789.7361	73.1426	523.9	53.05
789.8771	75.4032	571.7	95.9
790.0181	77.6634	680.15	204.4
790.1592	79.9231	933.8	447.8
790.3003	82.1824	1457.9	964.95
790.4414	84.4412	2315.1	1797.65
790.5825	86.6995	3425.7	2885.4
790.7237	88.9574	4453.85	3891.05
790.8648	91.2148	5160.95	4586.15
791.006	93.4717	5475.05	4889.55
791.1472	95.7282	5482	4891.7
791.2885	97.9842	5426.5	4832.65
791.4297	100.2398	5317.25	4722.7
791.571	102.4949	5148.85	4549.05
791.7123	104.7495	5022.75	4423.25
791.8536	107.0036	4865.45	4259.95
791.9949	109.2573	4703.65	4102.75
792.1363	111.5105	4549.45	3943.95
792.2777	113.7632	4361.1	3753.8
792.4191	116.0154	4194.15	3578.1
792.5605	118.2672	4032.95	3419.45
792.7019	120.5185	3874.75	3259.25
792.8434	122.7693	3753.2	3135.15
792.9849	125.0197	3647.9	3026.05
793.1264	127.2696	3554.05	2930.5
793.2679	129.519	3494.8	2867.45
793.4094	131.7679	3440.05	2810.75
793.551	134.0163	3388	2752.25
793.6926	136.2642	3339.8	2702.8
793.8342	138.5117	3300.9	2656.85
793.9758	140.7587	3214.25	2576.45
794.1175	143.0052	3147.6	2503.75
794.2591	145.2512	3049.55	2407.25
794.4008	147.4967	2977.9	2333.8
794.5425	149.7417	2925.45	2278.65
794.6842	151.9863	2885.55	2233.9
794.826	154.2304	2858.7	2202.9
794.9677	156.4739	2855.5	2194.75
795.1095	158.717	2864.35	2201.5
795.2513	160.9596	2869.6	2202.9
795.3931	163.2017	2876.2	2206.5
795.535	165.4433	2862.75	2192.55
795.6768	167.6844	2800.05	2132.15
795.8187	169.925	2748.15	2073.55
795.9606	172.1651	2659.15	1984.85
796.1025	174.4047	2588.25	1909.45
796.2445	176.6439	2522.75	1840.75
796.3864	178.8825	2493.05	1806.9
796.5284	181.1206	2466.25	1776.7
796.6704	183.3582	2452.55	1760.2
796.8124	185.5954	2436.8	1742
796.9544	187.832	2416.45	1717.15
797.0965	190.0681	2423.1	1718.1
797.2386	192.3037	2438.3	1732.2
797.3806	194.5388	2438.75	1728.75
797.5228	196.7734	2452.1	1738.15
797.6649	199.0075	2476.7	1764
797.807	201.2411	2504.6	1790.25
797.9492	203.4742	2528.45	1814.25
798.0914	205.7068	2579.05	1860.7
798.2336	207.9389	2598	1875.4
798.3758	210.1704	2622.65	1906.8
798.518	212.4015	2632.5	1923.5
798.6603	214.632	2630.35	1928.35
798.8025	216.862	2653.65	1954.75
798.9448	219.0915	2671	1970.9
799.0871	221.3205	2698.65	1997
799.2294	223.549	2698.4	2000.6
799.3718	225.777	2681.95	1985.35
799.5141	228.0044	2668.1	1964.25
799.6565	230.2314	2661.4	1955.9
799.7989	232.4578	2640.45	1933.2
799.9413	234.6837	2631.35	1913.1
800.0837	236.909	2632.85	1912.9
800.2262	239.1339	2636.65	1893.05
800.3687	241.3582	2612.95	1881.85
800.5111	243.582	2634.4	1872.3
800.6536	245.8053	2634	1886.85
800.7961	248.0281	2640.8	1898.55
800.9387	250.2503	2660.5	1912.95
801.0812	252.472	2672.9	1925.55
801.2238	254.6932	2690.1	1943.2
801.3664	256.9139	2696.9	1953.25
801.509	259.134	2758.35	2003.05
801.6516	261.3536	2813.95	2061.45
801.7942	263.5727	2878.4	2125.95
801.9369	265.7912	2979.1	2227.7
802.0795	268.0092	3067.6	2315.35
802.2222	270.2267	3132.15	2382.1
802.3649	272.4436	3226	2471.6
802.5076	274.6601	3260.65	2494.8
802.6504	276.8759	3281.75	2519.4
802.7931	279.0913	3302.25	2540
802.9359	281.3061	3329	2566.1
803.0787	283.5204	3329.45	2562.65
803.2215	285.7341	3367	2596.15
803.3643	287.9473	3387.2	2615.3
803.5071	290.16	3369.85	2596.25
803.6499	292.3721	3326.25	2560.65
803.7928	294.5837	3322.45	2553.55
803.9357	296.7947	3318.15	2551.7
804.0786	299.0052	3325.6	2553
804.2215	301.2152	3305	2531.75
804.3644	303.4246	3285.2	2515
804.5074	305.6334	3229.35	2462.25
804.6503	307.8418	3187.8	2417.2
804.7933	310.0495	3112.35	2340.3
804.9363	312.2568	3031.95	2258.2
805.0793	314.4635	2938.45	2162.1
805.2223	316.6696	2860.4	2077.3
805.3653	318.8752	2793.75	2006.7
805.5084	321.0802	2737.6	1955.05
805.6514	323.2847	2745.05	1959.55
805.7945	325.4887	2753.65	1972.65
805.9376	327.692	2778.25	1992.5
806.0807	329.8949	2808.15	2025.6
806.2238	332.0972	2842.85	2054.05
806.367	334.2989	2853.5	2063.85
806.5101	336.5001	2807.1	2013.05
806.6533	338.7007	2753.7	1959.6
806.7965	340.9008	2700.55	1903.95
806.9397	343.1003	2636.25	1843.35
807.0829	345.2992	2574	1778.95
807.2261	347.4976	2531.9	1735.4
807.3693	349.6955	2483.6	1681.55
807.5126	351.8927	2470.2	1671
807.6559	354.0895	2453.1	1639.5
807.7991	356.2856	2420.3	1614.5
807.9424	358.4812	2403.95	1597.75
808.0857	360.6763	2404.4	1598.15
808.2291	362.8707	2403.05	1592.55
808.3724	365.0646	2415.9	1604.2
808.5158	367.258	2430.1	1618.45
808.6591	369.4508	2460.9	1642.75
808.8025	371.643	2516.75	1702.05
808.9459	373.8346	2539.85	1722.25
809.0893	376.0257	2598.1	1779.5
809.2327	378.2162	2620.15	1802.4
809.3762	380.4062	2627.75	1808.6
809.5196	382.5956	2596.1	1776.05
809.6631	384.7844	2548.05	1730.85
809.8066	386.9726	2481.85	1667.2
809.9501	389.1603	2460.55	1650.15
810.0936	391.3474	2467.55	1624.65
810.2371	393.5339	2450.05	1634.05
810.3806	395.7199	2462.65	1651.25
810.5241	397.9052	2504.75	1692.8
810.6677	400.09	2552.8	1741.6
810.8113	402.2743	2611	1800.15
810.9548	404.4579	2678	1865.8
811.0984	406.641	2743.2	1928.2
811.2421	408.8235	2803.25	1987.15
811.3857	411.0054	2860.65	2043.7
811.5293	413.1868	2929.25	2107.25
811.673	415.3675	2933.15	2107.4
811.8166	417.5477	2888.25	2063.5
811.9603	419.7273	2831.75	2002.65
812.104	421.9064	2764.65	1931.2
812.2477	424.0848	2713.2	1884.2
812.3914	426.2627	2654.7	1823.25
812.5351	428.4399	2568.95	1738.75
812.6788	430.6166	2494.1	1659
812.8226	432.7928	2411.5	1570.3
812.9663	434.9683	2370.95	1538.7
813.1101	437.1432	2311.05	1474.65
813.2539	439.3176	2286.15	1455.2
813.3977	441.4914	2259.45	1428.65
813.5415	443.6645	2266.1	1433.4
813.6853	445.8371	2260.85	1426.6
813.8291	448.0091	2258.15	1424.4
813.973	450.1806	2258.5	1423.35
814.1168	452.3514	2251.55	1415.95
814.2607	454.5216	2267.9	1424.8
814.4046	456.6913	2262.2	1426.8
814.5485	458.8603	2273.55	1439.55
814.6924	461.0288	2276.6	1441.25
814.8363	463.1967	2279.75	1444.45
814.9802	465.3639	2274.55	1441.55
815.1241	467.5306	2267.25	1428.6
815.2681	469.6967	2253.35	1417.25
815.412	471.8622	2256.45	1420.35
815.556	474.0271	2251.3	1414.5
815.7	476.1914	2245.15	1402.85
815.844	478.3551	2251.1	1409.35
815.988	480.5182	2261.15	1421.4
816.132	482.6807	2256.95	1422.15
816.276	484.8426	2311.95	1482.3
816.4201	487.0039	2377.2	1541.95
816.5641	489.1647	2461.3	1619.3
816.7082	491.3248	2517.85	1673.7
816.8522	493.4843	2548.75	1710.5
816.9963	495.6432	2536.6	1698.95
817.1404	497.8015	2495.1	1649.5
817.2845	499.9592	2446.9	1597.45
817.4286	502.1163	2377	1524.4
817.5727	504.2728	2301.3	1455.85
817.7168	506.4287	2237.7	1398.8
817.861	508.5839	2209.15	1367.35
818.0051	510.7386	2202.6	1358.15
818.1493	512.8927	2211.3	1362.35
818.2935	515.0461	2225.4	1375.15
818.4377	517.199	2244.95	1391.7
818.5818	519.3512	2313.3	1463.2
818.726	521.5029	2410	1553.75
818.8703	523.6539	2487.45	1636.55
819.0145	525.8043	2508.8	1655
819.1587	527.9541	2436.35	1579.25
819.303	530.1033	2356.8	1502.1
819.4472	532.2519	2290.05	1436.35
819.5915	534.3999	2253.45	1399.2
819.7357	536.5472	2250.65	1395.5
819.88	538.694	2255.35	1404.6
820.0243	540.8401	2284.5	1430.1
820.1686	542.9856	2317.7	1455.65
820.3129	545.1305	2333.8	1469.9
820.4572	547.2748	2347.5	1485.1
820.6016	549.4185	2352.45	1486.3
820.7459	551.5615	2366.9	1503.3
820.8902	553.704	2386.1	1521
821.0346	555.8458	2426.75	1563.25
821.1789	557.987	2467.6	1606.4
821.3233	560.1276	2511.75	1648.7
821.4677	562.2675	2598.9	1736.05
821.6121	564.4069	2702.5	1839
821.7565	566.5456	2780.5	1920.2
821.9009	568.6837	2790.15	1929.55
822.0453	570.8212	2687	1827.85
822.1897	572.958	2555.1	1690.55
822.3342	575.0942	2432.25	1571.55
822.4786	577.2299	2363.35	1505.9
822.6231	579.3648	2324.55	1470.15
822.7675	581.4992	2296.4	1450.85
822.912	583.6329	2325.85	1479.7
823.0565	585.766	2383.35	1534.45
823.201	587.8985	2456.6	1602.95
823.3454	590.0304	2532.25	1648.4
823.4899	592.1616	2532.85	1664.05
823.6345	594.2922	2515.05	1651.35
823.779	596.4222	2453.8	1582.6
823.9235	598.5515	2378.5	1509.7
824.068	600.6802	2314.3	1442
824.2126	602.8083	2260.4	1390.6
824.3571	604.9358	2249.7	1381.45
824.5017	607.0626	2258.5	1388.55
824.6462	609.1888	2286.7	1412.15
824.7908	611.3144	2329.65	1454.4
824.9354	613.4393	2390.6	1514.8
825.08	615.5636	2461.25	1587.15
825.2246	617.6873	2510.45	1634.7
825.3692	619.8103	2547.35	1673.5
825.5138	621.9327	2508.8	1635.05
825.6584	624.0544	2446.45	1574.8
825.803	626.1756	2377.8	1508.2
825.9477	628.2961	2311	1436.65
826.0923	630.4159	2304.4	1432.65
826.237	632.5351	2284	1408.85
826.3816	634.6537	2273.85	1398.15
826.5263	636.7716	2270.35	1389.55
826.6709	638.8889	2260.15	1379.75
826.8156	641.0056	2259.3	1376.35
826.9603	643.1216	2270.8	1391.1
827.105	645.237	2263.75	1382.5
827.2497	647.3518	2228.15	1354.65
827.3944	649.4659	2198.15	1323.65
827.5391	651.5793	2179.65	1308.7
827.6838	653.6922	2175.25	1298.25
827.8285	655.8043	2151.6	1275.8
827.9733	657.9159	2147.05	1270.35
828.118	660.0268	2137.5	1260.6
828.2627	662.137	2144.15	1266.9
828.4075	664.2466	2150.1	1266.7
828.5522	666.3556	2137.7	1256
828.697	668.4639	2123.6	1243.85
828.8418	670.5716	2118.45	1242.6
828.9865	672.6786	2112.6	1231.7
829.1313	674.785	2090.4	1202.45
829.2761	676.8907	2088.9	1205.4
829.4209	678.9958	2085	1206.75
829.5657	681.1002	2098.45	1216.5
829.7105	683.204	2090.75	1199.55
829.8553	685.3072	2083.65	1197.35
830.0001	687.4097	2084.25	1198.65
830.1449	689.5115	2084.3	1198.5
830.2898	691.6127	2098.2	1213.8
830.4346	693.7132	2084.8	1199.6
830.5794	695.8131	2114.85	1212.3
830.7243	697.9123	2102.5	1216.4
830.8691	700.0109	2120.65	1229.4
831.014	702.1089	2138	1251.65
831.1588	704.2061	2160.1	1273.7
831.3037	706.3028	2192.6	1305.45
831.4486	708.3987	2204.95	1318.35
831.5935	710.4941	2224.3	1336.1
831.7383	712.5887	2219.35	1329.3
831.8832	714.6827	2232.15	1342.3
832.0281	716.7761	2238.65	1355.4
832.173	718.8688	2237.3	1349.2
832.3179	720.9608	2247.85	1356.3
832.4628	723.0522	2295.5	1400
832.6077	725.1429	2337.05	1445.15
832.7527	727.233	2407.75	1516.3
832.8976	729.3224	2486.05	1595.85
833.0425	731.4112	2535.65	1643.2
833.1874	733.4993	2511.05	1618.1
833.3324	735.5867	2427.8	1536.8
833.4773	737.6735	2329.7	1436.4
833.6222	739.7596	2259.35	1366.25
833.7672	741.845	2216.6	1321.9
833.9122	743.9298	2214.75	1321.25
834.0571	746.014	2202.65	1310.8
834.2021	748.0974	2212.2	1317.2
834.347	750.1802	2205.1	1307.25
834.492	752.2624	2194.05	1299.4
834.637	754.3439	2200.65	1305.9
834.782	756.4247	2224.05	1320.5
834.9269	758.5048	2244.1	1347.2
835.0719	760.5843	2287.25	1388.1
835.2169	762.6631	2356.75	1460.05
835.3619	764.7413	2470.05	1576.55
835.5069	766.8188	2618.05	1720.3
835.6519	768.8956	2759.7	1865.7
835.7969	770.9718	2859.9	1964.75
835.9419	773.0473	2850.35	1949.55
836.0869	775.1221	2805.45	1908.55
836.232	777.1962	2801.05	1907.4
836.377	779.2697	2864.2	1964.95
836.522	781.3426	2978.25	2061
836.667	783.4147	3014.85	2115.8
836.8121	785.4862	2978.65	2081.9
836.9571	787.557	2860.4	1963.7
837.1021	789.6271	2689.1	1788.55
837.2472	791.6966	2502.35	1603.95
837.3922	793.7654	2366.6	1468.95
837.5373	795.8335	2279.1	1381.95
837.6823	797.901	2225.55	1327.4
837.8274	799.9678	2214.85	1314.25
837.9724	802.0339	2197.2	1297.2
838.1175	804.0993	2200.65	1288.4
838.2626	806.1641	2172.8	1271.25
838.4076	808.2282	2142.5	1241.8
838.5527	810.2916	2119.35	1217.3
838.6978	812.3544	2101.05	1200.9
838.8428	814.4164	2097.8	1199.2
838.9879	816.4778	2110.95	1207.1
839.133	818.5385	2132.75	1231.8
839.2781	820.5986	2189.95	1287.45
839.4232	822.658	2276.15	1370.1
839.5682	824.7166	2385.2	1481.2
839.7133	826.7747	2524.35	1623.45
839.8584	828.832	2677.85	1777.55
840.0035	830.8886	2765.15	1859.5
840.1486	832.9446	2792.7	1887
840.2937	834.9999	2732.95	1831
840.4388	837.0545	2616.3	1710.45
840.5839	839.1085	2491	1586.3
840.729	841.1618	2382.45	1472.75
840.8741	843.2143	2313	1409.65
841.0192	845.2662	2253.8	1350.65
841.1643	847.3175	2230	1327.4
841.3095	849.368	2204.45	1301.2
841.4546	851.4179	2194.15	1288.95
841.5997	853.467	2182.85	1280.15
841.7448	855.5155	2195.95	1292.35
841.8899	857.5633	2180.2	1275.8
842.0351	859.6105	2180.2	1274.55
842.1802	861.6569	2151.05	1245.15
842.3253	863.7027	2149.9	1240.7
842.4704	865.7478	2126.2	1219.35
842.6156	867.7922	2114.85	1206.95
842.7607	869.8359	2092.65	1185.55
842.9058	871.8789	2098.7	1192.4
843.0509	873.9212	2134	1195.95
843.1961	875.9629	2136.3	1227.3
843.3412	878.0039	2149.45	1240.45
843.4863	880.0441	2174.15	1268.75
843.6315	882.0837	2204.85	1293.4
843.7766	884.1226	2237.1	1327.6
843.9218	886.1609	2285.65	1379.3
844.0669	888.1984	2356.1	1449.8
844.212	890.2352	2407	1501.15
844.3572	892.2714	2409.55	1499
844.5023	894.3069	2377.65	1469.8
844.6475	896.3416	2302.45	1394.45
844.7926	898.3757	2246.1	1335.45
844.9377	900.4091	2226.6	1315.3
845.0829	902.4418	2231.95	1317.75
845.228	904.4739	2242.1	1331.3
845.3732	906.5052	2255.15	1345.1
845.5183	908.5358	2245.9	1335.35
845.6635	910.5658	2211.7	1298.85
845.8086	912.595	2157.9	1248.3
845.9538	914.6236	2106.75	1200.45
846.0989	916.6515	2052.55	1143.05
846.2441	918.6786	2038.1	1126.95
846.3892	920.7051	2027.75	1116.25
846.5344	922.7309	2039.95	1130.2
846.6795	924.756	2038.45	1130.2
846.8246	926.7804	2062.3	1148.55
846.9698	928.8041	2068.2	1153.2
847.1149	930.8272	2092.5	1183.9
847.2601	932.8495	2113.1	1201
847.4052	934.8711	2111.85	1200.1
847.5504	936.892	2130.25	1218.85
847.6955	938.9123	2147.3	1234.3
847.8407	940.9318	2173.8	1263.55
847.9858	942.9506	2187.35	1276.2
848.131	944.9688	2182.7	1271.9
848.2761	946.9862	2134	1220.9
848.4213	949.003	2099.2	1186.2
848.5664	951.019	2052.9	1138.5
848.7115	953.0344	2036.3	1125.8
848.8567	955.0491	2021.05	1107.1
849.0018	957.063	2024.95	1113.75
849.147	959.0763	2021.15	1107.75
849.2921	961.0888	2025.9	1115.25
849.4373	963.1007	2027.15	1116.3
849.5824	965.1119	2031.3	1123.45
849.7275	967.1223	2015.45	1116.15
849.8727	969.1321	2005.4	1103.35
850.0178	971.1412	2007.35	1101.75
850.1629	973.1495	2001.05	1091.3
850.3081	975.1572	2031.35	1087.5
850.4532	977.1641	2000.65	1088.4
850.5983	979.1704	1997.65	1083.95
850.7435	981.1759	1993.7	1078.3
850.8886	983.1808	1992.05	1079.35
851.0337	985.1849	1995	1071.05
851.1788	987.1884	1991.4	1077.05
851.324	989.1911	1999.8	1086.7
851.4691	991.1932	2015.2	1100.45
851.6142	993.1945	2012.05	1098.85
851.7593	995.1951	2000.4	1087.45
851.9045	997.1951	2019.45	1101.75
852.0496	999.1943	2006.45	1094.55
852.1947	1001.1928	2011.85	1096.4
852.3398	1003.1906	2039.1	1124.95
852.4849	1005.1877	2062.7	1149.4
852.63	1007.1841	2101.35	1187.3
852.7751	1009.1798	2118.8	1208.9
852.9202	1011.1748	2102.1	1191.85
853.0653	1013.1691	2059.85	1145.9
853.2104	1015.1627	2028.8	1115.4
853.3555	1017.1556	1982.45	1070.4
853.5006	1019.1477	1954.75	1041.45
853.6457	1021.1392	1927.95	1021.65
853.7908	1023.1299	1920.45	1014.7
853.9359	1025.12	1938.2	1034.8
854.081	1027.1093	1938.3	1042.85
854.2261	1029.0979	1975.55	1081.6
854.3712	1031.0859	1988.55	1087.85
854.5163	1033.0731	2016.8	1110.5
854.6613	1035.0596	2011.75	1100.95
854.8064	1037.0454	1993.7	1083.25
854.9515	1039.0304	1997.1	1084.75
855.0965	1041.0148	1952.05	1040.1
855.2416	1042.9985	1934	1020.65
855.3867	1044.9814	1921.5	1011.5
855.5317	1046.9636	1911	999.1
855.6768	1048.9452	1927.4	1015.15
855.8219	1050.926	1944.3	1031.45
855.9669	1052.9061	1964.3	1052.95
856.112	1054.8855	1972.3	1061.15
856.257	1056.8642	1979.4	1065.5
856.4021	1058.8421	1972.5	1058.85
856.5471	1060.8194	1988.65	1075.6
856.6921	1062.7959	1976.05	1063.05
856.8372	1064.7717	1989.5	1074.4
856.9822	1066.7469	2006.45	1090.9
857.1272	1068.7213	2020.05	1105.65
857.2723	1070.695	2042.5	1130
857.4173	1072.6679	2073.8	1161.25
857.5623	1074.6402	2088.2	1175.35
857.7073	1076.6117	2085.15	1165.85
857.8523	1078.5826	2045.9	1130.75
857.9973	1080.5527	2002.15	1084.4
858.1423	1082.5221	1953.2	1039.4
858.2873	1084.4908	1928.85	1015.05
858.4323	1086.4587	1919.75	1007.15
858.5773	1088.426	1912.45	998.85
858.7223	1090.3925	1913.95	994.35
858.8673	1092.3584	1934.6	1019.45
859.0123	1094.3235	1941.1	1025.35
859.1573	1096.2879	1977.05	1063.9
859.3022	1098.2515	2016.2	1102.55
859.4472	1100.2145	2076.65	1161.65
859.5922	1102.1767	2140.45	1223.7
859.7371	1104.1382	2206.25	1293.5
859.8821	1106.099	2284.6	1371.35
860.027	1108.0591	2340.55	1427.95
860.172	1110.0185	2406.3	1492.7
860.3169	1111.9771	2453.7	1538.45
860.4619	1113.9351	2512.15	1599.95
860.6068	1115.8923	2569.3	1656.45
860.7517	1117.8488	2554.1	1639.8
860.8967	1119.8045	2473.65	1560.55
861.0416	1121.7596	2362.25	1447.3
861.1865	1123.7139	2252.8	1338.05
861.3314	1125.6675	2204.7	1293
861.4763	1127.6204	2211.95	1301.25
861.6212	1129.5726	2212.6	1299.5
861.7661	1131.524	2202.1	1287.95
861.911	1133.4748	2152.25	1239.7
862.0559	1135.4248	2089	1174.6
862.2008	1137.3741	2016.35	1106.9
862.3457	1139.3226	1978.4	1063.65
862.4905	1141.2705	1965.9	1053.8
862.6354	1143.2176	1987.45	1069.95
862.7803	1145.164	1988	1075.6
862.9251	1147.1097	1976.9	1062.85
863.07	1149.0546	1941.3	1025.65
863.2148	1150.9989	1905.95	989.55
863.3597	1152.9424	1884.9	972.6
863.5045	1154.8852	1875	961.2
863.6493	1156.8272	1863.15	947.5
863.7942	1158.7686	1872.65	953.05
863.939	1160.7092	1869.5	953.5
864.0838	1162.6491	1893	976.8
864.2286	1164.5883	1915.4	1003.15
864.3734	1166.5267	1947.1	1033.55
864.5182	1168.4644	1987.3	1073.75
864.663	1170.4014	2050.1	1132
864.8078	1172.3377	2121.75	1208.85
864.9526	1174.2732	2213.1	1301.4
865.0974	1176.2081	2365.65	1451.35
865.2421	1178.1421	2549.2	1632.8
865.3869	1180.0755	2696.15	1784.2
865.5317	1182.0082	2753.55	1844.75
865.6764	1183.9401	2712.55	1801.55
865.8212	1185.8713	2569.2	1662.15
865.9659	1187.8017	2415.1	1509.55
866.1106	1189.7315	2278.05	1375.65
866.2554	1191.6605	2154.5	1255.55
866.4001	1193.5888	2099.85	1195.4
866.5448	1195.5163	2051.85	1142.1
866.6895	1197.4432	2021.55	1114.05
866.8342	1199.3693	2000.9	1090.1
866.9789	1201.2947	1995.65	1082.7
867.1236	1203.2193	1982.3	1072.6
867.2683	1205.1432	1986	1074.7
867.413	1207.0664	1985.9	1073.65
867.5576	1208.9889	1991.25	1078.25
867.7023	1210.9106	1987.9	1076.95
867.847	1212.8316	2007.7	1096.05
867.9916	1214.7519	2040.6	1119.35
868.1363	1216.6715	2040.35	1128.05
868.2809	1218.5903	2078.45	1166.7
868.4255	1220.5084	2089.35	1175
868.5701	1222.4257	2138.1	1225.6
868.7148	1224.3424	2155.1	1246.45
868.8594	1226.2583	2196.2	1281.25
869.004	1228.1735	2255.7	1345.2
869.1486	1230.0879	2313.6	1401.75
869.2932	1232.0016	2390.3	1479.65
869.4377	1233.9146	2453.4	1537.45
869.5823	1235.8269	2480.9	1572.05
869.7269	1237.7384	2502.5	1591.05
869.8715	1239.6492	2513.25	1603.35
870.016	1241.5592	2539.8	1627.65
870.1606	1243.4686	2610.85	1701.45
870.3051	1245.3772	2719.15	1806.3
870.4496	1247.285	2856.95	1941.5
870.5941	1249.1922	2980.25	2068.1
870.7387	1251.0986	3111.5	2201.6
870.8832	1253.0042	3211.35	2299.85
871.0277	1254.9092	3314.85	2404.4
871.1722	1256.8134	3396.9	2488.6
871.3167	1258.7169	3445.55	2535.2
871.4611	1260.6196	3449.5	2542
871.6056	1262.5216	3453.8	2543.8
871.7501	1264.4229	3432.7	2521.55
871.8945	1266.3234	3402.7	2490.8
872.039	1268.2232	3369.85	2456.7
872.1834	1270.1223	3313.95	2403
872.3278	1272.0207	3299.25	2387.3
872.4723	1273.9183	3310.4	2394.15
872.6167	1275.8151	3308.8	2401.75
872.7611	1277.7113	3366.9	2454.4
872.9055	1279.6067	3504.8	2596.45
873.0499	1281.5014	3702.45	2789.05
873.1943	1283.3953	3922.05	3010.45
873.3386	1285.2885	4153	3242.85
873.483	1287.181	4314.2	3404.9
873.6274	1289.0727	4400.7	3489.65
873.7717	1290.9637	4394.9	3485.55
873.9161	1292.854	4347.9	3437.95
874.0604	1294.7435	4236.65	3325.25
874.2047	1296.6323	4130.75	3218.15
874.349	1298.5204	4009.6	3094.8
874.4933	1300.4077	3929.15	3017.85
874.6376	1302.2943	3810.75	2898.35
874.7819	1304.1802	3748.3	2837.6
874.9262	1306.0653	3661.05	2749.25
875.0705	1307.9497	3553.6	2640.05
875.2147	1309.8333	3464.75	2553.55
875.359	1311.7162	3375.55	2465.05
875.5032	1313.5984	3308.3	2392.45
875.6475	1315.4798	3272.95	2359.1
875.7917	1317.3605	3236.45	2306.3
875.9359	1319.2405	3187.55	2273.8
876.0801	1321.1197	3110.45	2197.3
876.2243	1322.9982	2988.55	2071.55
876.3685	1324.876	2868.1	1955.1
876.5127	1326.753	2729.9	1821.75
876.6569	1328.6293	2618.9	1706.45
876.801	1330.5048	2522.15	1609.05
876.9452	1332.3796	2434.95	1524.35
877.0893	1334.2537	2397.55	1463.25
877.2335	1336.127	2334.9	1423.8
877.3776	1337.9996	2305.75	1394.45
877.5217	1339.8714	2273.65	1361.7
877.6658	1341.7426	2290.1	1333.8
877.8099	1343.6129	2248.7	1337.2
877.954	1345.4826	2220.85	1309.6
878.0981	1347.3515	2213.2	1297.35
878.2422	1349.2196	2193.45	1280.1
878.3862	1351.087	2184.45	1270.55
878.5303	1352.9537	2192.45	1278.05
878.6743	1354.8197	2211.85	1299.15
878.8184	1356.6849	2240.95	1329.55
878.9624	1358.5493	2259.2	1347.45
879.1064	1360.4131	2319.95	1410.85
879.2504	1362.276	2385.95	1475.45
879.3944	1364.1383	2422.65	1512.7
879.5384	1365.9998	2431.15	1517.3
879.6823	1367.8606	2390.2	1481.45
879.8263	1369.7206	2356.6	1441.95
879.9702	1371.5799	2337.3	1424.1
880.1142	1373.4384	2306.4	1392
880.2581	1375.2962	2252.15	1339.3
880.402	1377.1533	2163.75	1255.8
880.5459	1379.0096	2076.4	1166.4
880.6898	1380.8652	2018	1107.75
880.8337	1382.7201	1962	1050.05
880.9776	1384.5742	1907.4	994.9
881.1215	1386.4275	1874.05	960.2
881.2653	1388.2802	1856	944.7
881.4092	1390.132	1830.6	920.25
881.553	1391.9832	1814	902.2
881.6968	1393.8336	1800.8	889.35
881.8406	1395.6832	1794	881.2
881.9844	1397.5322	1781.2	871.35
882.1282	1399.3803	1772.9	855.8
882.272	1401.2278	1748.65	837.05
882.4158	1403.0745	1747.45	837.95
882.5595	1404.9204	1731.35	821.9
882.7033	1406.7656	1738.55	827.05
882.847	1408.6101	1727.15	815.15
882.9908	1410.4538	1732.85	824.15
883.1345	1412.2968	1734.7	825.4
883.2782	1414.139	1747.45	838.1
883.4219	1415.9805	1752.65	843.95
883.5656	1417.8213	1777.25	861.55
883.7092	1419.6613	1804	895.25
883.8529	1421.5006	1848.6	938.7
883.9965	1423.3391	1906.2	996.3
884.1402	1425.1769	1989.4	1078.25
884.2838	1427.0139	2094.15	1183.2
884.4274	1428.8502	2217.35	1305.8
884.571	1430.6858	2338.95	1429.1
884.7146	1432.5206	2394.75	1486.95
884.8582	1434.3547	2401.2	1490.8
885.0018	1436.188	2367.8	1458.55
885.1453	1438.0206	2342.4	1431.75
885.2889	1439.8524	2318.75	1408.7
885.4324	1441.6835	2315.95	1406.2
885.5759	1443.5139	2319.25	1405.85
885.7194	1445.3435	2311.95	1401.45
885.8629	1447.1724	2310.9	1401.6
886.0064	1449.0005	2311.1	1402.95
886.1499	1450.8279	2301.15	1391.45
886.2933	1452.6545	2290.1	1383.05
886.4368	1454.4804	2294.3	1387.15
886.5802	1456.3056	2297.85	1381.95
886.7237	1458.13	2259.95	1353.15
886.8671	1459.9536	2230.6	1320.95
887.0105	1461.7766	2167.95	1260.15
887.1539	1463.5987	2113.7	1202.65
887.2972	1465.4202	2050.3	1140.7
887.4406	1467.2409	1991.85	1085.25
887.584	1469.0608	1937.95	1030.25
887.7273	1470.88	1881.8	972.3
887.8706	1472.6984	1848.2	938.65
888.0139	1474.5161	1804.3	893.25
888.1572	1476.3331	1782.05	873.2
888.3005	1478.1493	1775.55	868.35
888.4438	1479.9648	1768.85	859.15
888.5871	1481.7795	1755.55	848.45
888.7303	1483.5935	1751.5	846.95
888.8736	1485.4067	1754.8	847.3
889.0168	1487.2192	1753.1	846.4
889.16	1489.031	1749.4	840.95
889.3032	1490.842	1739.8	831.2
889.4464	1492.6522	1737.6	829.4
889.5896	1494.4618	1736.95	828.7
889.7327	1496.2705	1728.35	821.1
889.8759	1498.0785	1712.8	804.55
890.019	1499.8858	1720.75	813.4
890.1622	1501.6924	1698.5	791.2
890.3053	1503.4981	1686.2	780
890.4484	1505.3032	1681.95	773.75
890.5914	1507.1075	1666.2	759.25
890.7345	1508.911	1656.7	746.75
890.8776	1510.7138	1646.9	739.85
891.0206	1512.5159	1639.6	731.85
891.1637	1514.3172	1621.75	714.05
891.3067	1516.1178	1621.8	718.35
891.4497	1517.9176	1617.75	710.7
891.5927	1519.7166	1617.3	711.1
891.7357	1521.515	1610.65	700.2
891.8786	1523.3126	1596.35	688.6
892.0216	1525.1094	1595.65	687.15
892.1645	1526.9055	1576.35	672.05
892.3074	1528.7008	1579.55	675.1
892.4503	1530.4954	1578.4	671.05
892.5932	1532.2893	1574.9	670.65
892.7361	1534.0824	1578.45	669.55
892.879	1535.8747	1572.6	669.1
893.0218	1537.6663	1583.3	680.75
893.1647	1539.4572	1586.8	681.7
893.3075	1541.2473	1573.95	667.4
893.4503	1543.0367	1585.85	680.05
893.5931	1544.8253	1586.15	676.7
893.7359	1546.6132	1603.7	696.9
893.8787	1548.4003	1623.05	710.15
894.0214	1550.1867	1638.75	727
894.1642	1551.9723	1660.2	752.55
894.3069	1553.7572	1683.35	779.4
894.4496	1555.5414	1730.1	830.55
894.5923	1557.3247	1790.2	887.5
894.735	1559.1074	1842.5	941.6
894.8777	1560.8893	1912.55	1012.05
895.0204	1562.6705	1962.55	1064.05
895.163	1564.4509	1990.1	1089.65
895.3056	1566.2305	2016.1	1118.2
895.4482	1568.0094	2020.65	1122.35
895.5908	1569.7876	2015.15	1119
895.7334	1571.565	2011.4	1111.85
895.876	1573.3417	2025.35	1125.05
896.0186	1575.1176	2034.55	1136.7
896.1611	1576.8928	2062.55	1164
896.3036	1578.6672	2090.4	1195.5
896.4461	1580.4409	2132.45	1238.1
896.5886	1582.2138	2193.35	1293.5
896.7311	1583.986	2245.8	1345.95
896.8736	1585.7575	2294.05	1395.4
897.0161	1587.5282	2343.05	1445.15
897.1585	1589.2981	2405.25	1511.8
897.3009	1591.0673	2447.55	1552.95
897.4433	1592.8358	2469.75	1575.3
897.5857	1594.6035	2494.85	1594.9
897.7281	1596.3704	2499.25	1600.45
897.8705	1598.1366	2491.95	1594.95
898.0128	1599.9021	2468.85	1571.85
898.1551	1601.6668	2474.6	1575.1
898.2975	1603.4308	2483.1	1584.25
898.4398	1605.194	2518.15	1616.8
898.5821	1606.9564	2573.9	1678.4
898.7243	1608.7182	2683.85	1789.2
898.8666	1610.4791	2807.6	1919.05
899.0088	1612.2394	2952.2	2063.2
899.1511	1613.9988	3095.2	2205.4
899.2933	1615.7576	3177.75	2284.4
899.4355	1617.5156	3191.75	2290.1
899.5776	1619.2728	3115.15	2215.5
899.7198	1621.0293	2987.25	2091.6
899.862	1622.785	2817.4	1918.95
900.0041	1624.54	2627.65	1731.8
900.1462	1626.2942	2456.75	1561.4
900.2883	1628.0477	2299.4	1404.1
900.4304	1629.8005	2171.4	1276.7
900.5725	1631.5525	2050.75	1157.65
900.7145	1633.3037	1966.65	1074.55
900.8566	1635.0542	1890.95	998.55
900.9986	1636.804	1832.3	938.9
901.1406	1638.553	1848.25	898.3
901.2826	1640.3013	1759.95	867.25
901.4245	1642.0488	1739.95	845.9
901.5665	1643.7955	1712.45	820.8
901.7085	1645.5416	1689.25	797.05
901.8504	1647.2868	1691.9	800.85
901.9923	1649.0313	1688.65	791.9
902.1342	1650.7751	1700.15	803
902.2761	1652.5181	1697	803.2
902.4179	1654.2604	1718.85	825.25
902.5598	1656.0019	1743.6	852.75
902.7016	1657.7427	1782.75	891.8
902.8434	1659.4828	1834.45	940.95
902.9852	1661.222	1890.7	994.15
903.127	1662.9606	1936.5	1043.35
903.2687	1664.6984	1945	1048
903.4105	1666.4354	1896.65	1001.55
903.5522	1668.1717	1819.25	922.4
903.6939	1669.9072	1729.2	833.85
903.8356	1671.642	1643.05	747.65
903.9773	1673.3761	1580.1	685.8
904.119	1675.1094	1525.2	631.9
904.2606	1676.8419	1486.85	593.9
904.4022	1678.5737	1459.25	565.05
904.5439	1680.3048	1441.2	546.4
904.6855	1682.0351	1420.45	526.55
904.827	1683.7646	1405.3	508.1
904.9686	1685.4934	1390.5	497.85
905.1101	1687.2215	1390.95	497.05
905.2517	1688.9488	1376.05	483.8
905.3932	1690.6754	1372.2	478.55
905.5347	1692.4012	1368.9	475.45
905.6761	1694.1263	1354.55	462.1
905.8176	1695.8506	1353.25	460
905.9591	1697.5742	1347.75	456.8
906.1005	1699.297	1338.9	450.25
906.2419	1701.0191	1332.15	441.45
906.3833	1702.7404	1330.1	438.95
906.5246	1704.461	1321.6	428.05
906.666	1706.1808	1324.4	429.5
906.8073	1707.8999	1311.45	420.45
906.9487	1709.6182	1309.65	419.2
907.09	1711.3358	1305.45	416.4
907.2313	1713.0527	1297.75	410.95
907.3725	1714.7688	1303.95	410.95
907.5138	1716.4841	1302.05	409.7
907.655	1718.1987	1296.7	399.2
907.7962	1719.9126	1297.2	408.8
907.9374	1721.6257	1296	405.3
908.0786	1723.338	1295.9	408.1
908.2198	1725.0496	1280.25	390.25
908.3609	1726.7605	1288.4	398.35
908.502	1728.4706	1287.25	395.95
908.6431	1730.18	1283.8	393.4
908.7842	1731.8886	1279.65	392.95
908.9253	1733.5964	1298.3	390.4
909.0664	1735.3036	1275.65	381.4
909.2074	1737.0099	1271.2	381.7
909.3484	1738.7156	1270.2	381.55
909.4894	1740.4204	1267.85	375.45
909.6304	1742.1246	1264.15	374.3
909.7714	1743.8279	1262.9	372.05
909.9123	1745.5306	1260.5	371.8
910.0532	1747.2325	1252.65	365.4
910.1941	1748.9336	1254.7	366.15
910.335	1750.634	1261.3	369.4
910.4759	1752.3336	1259.85	369.65
910.6168	1754.0325	1259	371.45
910.7576	1755.7307	1247.05	358.7
910.8984	1757.4281	1250.35	361.95
911.0392	1759.1247	1260.85	361.45
911.18	1760.8206	1261.6	366.75
911.3208	1762.5158	1258.9	363.2
911.4615	1764.2102	1250.05	363.95
911.6022	1765.9039	1244.05	355.55
911.7429	1767.5968	1246.8	359.7
911.8836	1769.289	1243.5	355.4
912.0243	1770.9804	1244.1	354.1
912.1649	1772.6711	1243.2	352.2
912.3056	1774.361	1245.2	352.85
912.4462	1776.0502	1245.9	353.2
912.5868	1777.7386	1237.75	345.7
912.7274	1779.4263	1236.9	348.15
912.8679	1781.1132	1233.75	346.65
913.0084	1782.7994	1236.4	346.95
913.149	1784.4849	1240.2	351.55
913.2895	1786.1696	1251.4	345.8
913.4299	1787.8535	1233.7	348.15
913.5704	1789.5367	1229.5	342.95
913.7108	1791.2192	1231	344.5
913.8513	1792.9009	1256.4	341.55
913.9917	1794.5818	1232.45	342.45
914.132	1796.2621	1228.5	340.95
914.2724	1797.9415	1223.5	334.55
914.4128	1799.6202	1226.25	335.65
914.5531	1801.2982	1225.85	336.25
914.6934	1802.9755	1227.45	335.7
914.8337	1804.6519	1216.75	324.55
914.9739	1806.3277	1222.85	333.3
915.1142	1808.0027	1212.4	324.75
915.2544	1809.6769	1221.05	335.35
915.3946	1811.3504	1217.3	326.9
915.5348	1813.0231	1220.85	333.45
915.675	1814.6951	1215.15	328.5
915.8151	1816.3664	1220.1	327.5
915.9553	1818.0369	1217.55	326.85
916.0954	1819.7067	1212	324.7
916.2355	1821.3757	1217.45	328.8
916.3755	1823.044	1216.2	328.1
916.5156	1824.7115	1213.4	322.2
916.6556	1826.3783	1208.6	318.3
916.7956	1828.0443	1211.05	322.5
916.9356	1829.7096	1213.05	321.75
917.0756	1831.3741	1211.3	318.2
917.2155	1833.0379	1207.95	319.85
917.3555	1834.701	1207.25	317.6
917.4954	1836.3633	1205.05	317.95
917.6353	1838.0248	1207.2	317
917.7751	1839.6856	1200.55	312.95
917.915	1841.3457	1200.45	311.85
918.0548	1843.005	1204.95	315.2
918.1946	1844.6636	1207.85	321.25
918.3344	1846.3214	1204.65	315.8
918.4742	1847.9785	1204.9	317.6
918.6139	1849.6349	1202.3	313.25
918.7537	1851.2904	1210	310.3
918.8934	1852.9453	1197.25	306.8
919.0331	1854.5994	1203.25	310.25
919.1727	1856.2528	1206.6	312.25
919.3124	1857.9054	1202.9	313.6
919.452	1859.5572	1200.8	310.8
919.5916	1861.2083	1197.9	309.2
919.7312	1862.8587	1196.65	309.1
919.8708	1864.5084	1203.15	312.85
920.0103	1866.1572	1194.75	305.75
920.1498	1867.8054	1200.85	309.5
920.2893	1869.4528	1190.4	300.15
920.4288	1871.0994	1195.05	305
920.5683	1872.7453	1192.65	303.9
920.7077	1874.3905	1197.25	302.3
920.8471	1876.0349	1194.15	303.35
920.9865	1877.6786	1190.2	299.7
921.1259	1879.3215	1189.15	299.45
921.2653	1880.9637	1188.7	301.3
921.4046	1882.6051	1188.65	302.05
921.5439	1884.2458	1191.35	300
921.6832	1885.8858	1184.3	298.05
921.8225	1887.525	1186.4	296.3
921.9617	1889.1634	1184.9	295.9
922.101	1890.8011	1181.95	291.8
922.2402	1892.4381	1185.05	295.6
922.3794	1894.0743	1173.65	285.7
922.5185	1895.7098	1180.35	292.35
922.6577	1897.3446	1181.4	290.85
922.7968	1898.9786	1185.4	294.15
922.9359	1900.6118	1172.8	286.45
923.075	1902.2443	1179.3	290.1
923.214	1903.8761	1175.1	287.35
923.3531	1905.5071	1167.8	279.45
923.4921	1907.1374	1174.2	285.2
923.6311	1908.7669	1171.35	284.5
923.77	1910.3957	1172.5	283.15
923.909	1912.0237	1162.8	274.45
924.0479	1913.651	1172.3	280.8
924.1868	1915.2776	1169.35	281.75
924.3257	1916.9034	1160.85	272.9
924.4646	1918.5285	1160.4	274.75
924.6034	1920.1528	1166.65	278.1
924.7422	1921.7764	1164.9	276.95
924.881	1923.3992	1159.5	272.25
925.0198	1925.0213	1161.8	273.55
925.1586	1926.6427	1159.9	273.5
925.2973	1928.2633	1237.8	264.4
925.436	1929.8832	1160.9	270.15
925.5747	1931.5023	1159.9	271.95
925.7134	1933.1207	1152.75	264.95
925.852	1934.7383	1157.55	270.6
925.9906	1936.3552	1155.2	269.1
926.1292	1937.9714	1152.45	264.2
926.2678	1939.5868	1155.85	267.45
926.4064	1941.2015	1151.4	263.2
926.5449	1942.8154	1148.7	259.6
926.6834	1944.4286	1150.2	261
926.8219	1946.041	1168.75	259.05
926.9604	1947.6528	1152.55	258.8
927.0988	1949.2637	1145.25	259.05
927.2372	1950.8739	1150.15	262.15
927.3756	1952.4834	1143.45	253.8
927.514	1954.0921	1146.95	258.7
927.6523	1955.7001	1142.35	252.9
927.7907	1957.3074	1144.05	257.2
927.929	1958.9139	1143.35	257.9
928.0673	1960.5197	1141.95	254.85
928.2055	1962.1247	1137.4	252.85
928.3438	1963.729	1141.35	255.2
928.482	1965.3325	1139.3	249.4
928.6202	1966.9353	1140	254.4
928.7584	1968.5374	1137.75	249.3
928.8965	1970.1387	1141.25	254.7
929.0346	1971.7393	1136.95	249.65
929.1727	1973.3392	1134.6	248.65
929.3108	1974.9383	1131.05	244.4
929.4489	1976.5366	1130.9	245.7
929.5869	1978.1342	1128.3	242.4
929.7249	1979.7311	1131.9	243.9
929.8629	1981.3273	1124.85	240.65
930.0009	1982.9227	1130.9	245.75
930.1388	1984.5173	1126.2	241.2
930.2767	1986.1112	1124.55	238.65
930.4146	1987.7044	1125.6	239.95
930.5525	1989.2968	1122.45	237.7
930.6904	1990.8885	1125.7	238.45
930.8282	1992.4795	1129	245.35
930.966	1994.0697	1118.9	234.95
931.1038	1995.6592	1119.05	234.7
931.2415	1997.2479	1121.95	237.9
931.3793	1998.8359	1122.6	237.85
931.517	2000.4232	1117.3	236.85
931.6547	2002.0097	1110.1	229.15
931.7923	2003.5955	1115.25	230.9
931.93	2005.1805	1117.4	230.9
932.0676	2006.7648	1114.6	232.05
932.2052	2008.3484	1117.45	233.7
932.3427	2009.9312	1115.1	230.4
932.4803	2011.5133	1109.8	229.05
932.6178	2013.0946	1111.1	230.8
932.7553	2014.6752	1109.1	227.75
932.8928	2016.2551	1116.7	229.85
933.0302	2017.8342	1112.6	228.1
933.1676	2019.4126	1110.45	228.3
933.305	2020.9902	1105.95	227.25
933.4424	2022.5672	1106.25	223.8
933.5798	2024.1433	1113.2	227.85
933.7171	2025.7188	1106.75	226.3
933.8544	2027.2935	1112.05	231.2
933.9917	2028.8674	1102.95	220.7
934.129	2030.4406	1107.25	227.85
934.2662	2032.0131	1101.7	220.9
934.4034	2033.5849	1104.4	217.65
934.5406	2035.1559	1107.3	226.35
934.6778	2036.7261	1104.6	221.65
934.8149	2038.2957	1104.35	221.95
934.952	2039.8645	1102.85	218.8
935.0891	2041.4325	1103.25	215.65
935.2262	2042.9998	1101.85	218.4
935.3632	2044.5664	1102.55	218.95
935.5002	2046.1323	1101.05	220.05
935.6372	2047.6974	1095.75	214.05
935.7742	2049.2617	1097.3	218.3
935.9111	2050.8254	1101	211.85
936.048	2052.3883	1096.8	214.15
936.1849	2053.9504	1093.6	211.9
936.3218	2055.5118	1100.45	215.65
936.4586	2057.0725	1097.35	212.35
936.5955	2058.6325	1091.75	207.85
936.7323	2060.1917	1099.25	216.2
936.869	2061.7502	1095.45	211.3
937.0058	2063.3079	1092.8	211.95
937.1425	2064.8649	1093.4	207.35
937.2792	2066.4212	1092.9	210.65
937.4159	2067.9767	1090.45	208.05
937.5525	2069.5315	1087.3	205.15
937.6891	2071.0856	1094.55	210.65
937.8257	2072.6389	1091.15	209.55
937.9623	2074.1915	1088.2	209.55
938.0989	2075.7433	1090.05	207.1
938.2354	2077.2945	1086.45	205.95
938.3719	2078.8448	1086.25	202.95
938.5084	2080.3945	1087.05	204.8
938.6448	2081.9434	1088.05	202.7
938.7812	2083.4916	1084.5	199.2
938.9176	2085.039	1084.95	197.5
939.054	2086.5857	1100	211.8
939.1903	2088.1317	1086.55	198.4
939.3267	2089.677	1085.65	196.5
939.463	2091.2215	1087.25	202.2
939.5992	2092.7652	1091.3	204.8
939.7355	2094.3083	1084.75	199.1
939.8717	2095.8506	1082.3	197.65
940.0079	2097.3921	1085.75	202.15
940.1441	2098.933	1080.9	194.2
940.2802	2100.4731	1079.05	194.55
940.4163	2102.0124	1100.45	199.4
940.5524	2103.5511	1078.55	193.8
940.6885	2105.089	1081.85	196.4
940.8245	2106.6261	1081.1	196.75
940.9606	2108.1626	1082.1	197.95
941.0965	2109.6983	1109.2	196
941.2325	2111.2332	1085.7	199.45
941.3684	2112.7675	1083.55	195.8
941.5044	2114.301	1082.15	196.2
941.6403	2115.8337	1077.15	193.55
941.7761	2117.3657	1074.55	189.2
941.912	2118.897	1079.1	192.25
942.0478	2120.4276	1080.05	188
942.1835	2121.9575	1078.05	192.55
942.3193	2123.4866	1078.1	190.5
942.455	2125.0149	1074.5	187.15
942.5907	2126.5426	1069.65	188.15
942.7264	2128.0695	1076.55	188.5
942.8621	2129.5956	1070.15	188.7
942.9977	2131.1211	1072.7	184.2
943.1333	2132.6458	1075.75	192.3
943.2689	2134.1698	1075.85	188.9
943.4044	2135.693	1077.9	190.3
943.54	2137.2155	1073.2	185.25
943.6755	2138.7373	1067.65	182
943.8109	2140.2584	1066.5	184.2
943.9464	2141.7787	1069.6	182.7
944.0818	2143.2983	1064.95	182.55
944.2172	2144.8171	1063.95	182.4
944.3526	2146.3353	1069.7	182.7
944.4879	2147.8527	1067.2	182.15
944.6232	2149.3693	1064.65	179.2
944.7585	2150.8853	1069.45	183.05
944.8938	2152.4005	1066.8	180.75
945.029	2153.9149	1067.65	181.7
945.1642	2155.4287	1071.2	186.15
945.2994	2156.9417	1069.95	183.55
945.4346	2158.454	1065	176.95
945.5697	2159.9655	1061.4	177.55
945.7048	2161.4764	1064.85	180.35
945.8399	2162.9865	1062.2	175.7
945.9749	2164.4958	1065.5	182.15
946.1099	2166.0045	1061.45	175.25
946.2449	2167.5124	1061.15	176.8
946.3799	2169.0195	1062.15	176.65
946.5148	2170.526	1062.95	176.65
946.6498	2172.0317	1058.25	172.9
946.7846	2173.5367	1061.5	174.5
946.9195	2175.0409	1058.7	173.95
947.0543	2176.5445	1062.75	177.95
947.1891	2178.0473	1064.15	179
947.3239	2179.5494	1061	170.95
947.4587	2181.0507	1054.4	167.3
947.5934	2182.5513	1061.95	177.1
947.7281	2184.0512	1058.35	173.45
947.8628	2185.5504	1058.5	173.4
947.9974	2187.0488	1058.15	173.75
948.132	2188.5465	1052.25	168
948.2666	2190.0435	1055.3	170.25
948.4012	2191.5397	1054.4	169
948.5357	2193.0353	1056.35	169.6
948.6702	2194.5301	1060.7	173.1
948.8047	2196.0241	1055.15	166.45
948.9392	2197.5175	1058.7	171.7
949.0736	2199.0101	1058.7	168.55
949.208	2200.502	1056.2	169.2
949.3424	2201.9931	1052.3	169.6
949.4767	2203.4835	1048.95	164.4
949.611	2204.9733	1064.05	163.25
949.7453	2206.4622	1051.05	169.75
949.8796	2207.9505	1052.75	163.7
950.0138	2209.438	1048.6	165.9
950.148	2210.9248	1051.7	167.15
950.2822	2212.4109	1047	164.45
950.4164	2213.8962	1055.05	168.15
950.5505	2215.3809	1051.05	162.85
950.6846	2216.8648	1049.9	163.25
950.8186	2218.3479	1057.9	164.25
950.9527	2219.8304	1051.15	159.95
951.0867	2221.3121	1051.3	160.75
951.2207	2222.7931	1045.45	158.15
951.3546	2224.2733	1048.6	161.95
951.4886	2225.7529	1042.75	159.6
951.6225	2227.2317	1042.9	156.05
951.7563	2228.7098	1041.45	158.55
951.8902	2230.1872	1039.55	155.95
952.024	2231.6638	1040.45	156.3
952.1578	2233.1397	1042.75	156.7
952.2916	2234.6149	1041.85	157.05
952.4253	2236.0894	1038.65	152.75
952.559	2237.5632	1047.7	154.1
952.6927	2239.0362	1040.2	154.45
952.8263	2240.5085	1040.3	156.45
952.9599	2241.9801	1038.95	151.05
953.0935	2243.4509	1036.5	148.35
953.2271	2244.921	1035.25	148.1
953.3606	2246.3904	1040.1	151.5
953.4941	2247.8591	1038.35	152.8
953.6276	2249.3271	1042.2	154.3
953.7611	2250.7943	1038.6	152.65
953.8945	2252.2608	1035.3	149.25
954.0279	2253.7266	1030.65	145.9
954.1612	2255.1917	1032.85	147.45
954.2946	2256.656	1037.75	153.5
954.4279	2258.1197	1033.85	148.7
954.5612	2259.5826	1033.6	146.3
954.6944	2261.0447	1033.55	144.7
954.8276	2262.5062	1037	149.65
954.9608	2263.9669	1036.15	146.1
955.094	2265.4269	1033.75	149.05
955.2271	2266.8862	1034.15	147.15
955.3602	2268.3448	1032.7	147.6
955.4933	2269.8026	1031.65	148.2
955.6264	2271.2598	1029.15	142.75
955.7594	2272.7162	1029.45	143.85
955.8924	2274.1719	1031.45	144.8
956.0253	2275.6268	1031.5	145.9
956.1583	2277.0811	1032.25	144.2
956.2912	2278.5346	1030.85	143.8
956.4241	2279.9874	1026.45	140.85
956.5569	2281.4395	1025.8	143.45
956.6897	2282.8908	1033.3	142.25
956.8225	2284.3414	1030.9	144.9
956.9553	2285.7914	1026.9	142.95
957.088	2287.2406	1034.15	146.15
957.2207	2288.689	1033.45	145.05
957.3534	2290.1368	1033.15	145.15
957.486	2291.5838	1030.6	139.3
957.6186	2293.0302	1027.3	137.65
957.7512	2294.4758	1027.3	137.85
957.8838	2295.9206	1030	141.65
958.0163	2297.3648	1026.95	140.65
958.1488	2298.8082	1029.5	142.35
958.2813	2300.251	1030.75	144.35
958.4137	2301.693	1032.55	142.2
958.5461	2303.1343	1025.1	137.85
958.6785	2304.5748	1025.5	139.85
958.8108	2306.0147	1024.2	137.9
958.9432	2307.4538	1023.65	135.95
959.0754	2308.8922	1021.15	135.55
959.2077	2310.3299	1018.65	133.35
959.3399	2311.7669	1023.1	138.4
959.4721	2313.2031	1023.1	136.6
959.6043	2314.6387	1024.5	136.9
959.7365	2316.0735	1020.85	135
959.8686	2317.5076	1022.6	136.3
960.0006	2318.941	1021.55	135.95
960.1327	2320.3737	1022.45	134.7
960.2647	2321.8056	1023.1	131.2
960.3967	2323.2369	1022.6	134.95
960.5287	2324.6674	1025.15	136.25
960.6606	2326.0972	1024.95	135.05
960.7925	2327.5263	1021.85	136.95
960.9244	2328.9547	1029.9	141.25
961.0562	2330.3823	1021.1	133.8
961.1881	2331.8092	1022.65	130
961.3198	2333.2355	1021.8	135.35
961.4516	2334.661	1019.5	129.55
961.5833	2336.0858	1020.75	131.9
961.715	2337.5098	1018.55	130.9
961.8467	2338.9332	1017.85	129.65
961.9783	2340.3558	1021.8	132.85
962.1099	2341.7778	1015.3	128.25
962.2415	2343.199	1017.9	131.3
962.373	2344.6195	1014.9	129.35
962.5045	2346.0393	1018.2	133.25
962.636	2347.4583	1012.9	126.1
962.7675	2348.8767	1016.45	127.3
962.8989	2350.2943	1014.1	126.5
963.0303	2351.7113	1016.05	124
963.1617	2353.1275	1014.8	125.95
963.293	2354.543	1025.15	128.15
963.4243	2355.9578	1017	128.25
963.5556	2357.3718	1014.25	128.65
963.6868	2358.7852	1016.15	128.95
963.818	2360.1978	1012.65	124.5
963.9492	2361.6098	1013.7	129.65
964.0803	2363.021	1017.3	126.9
964.2114	2364.4315	1012.4	124.7
964.3425	2365.8413	1014.55	127.6
964.4736	2367.2504	1010.1	125.05
964.6046	2368.6587	1011.75	125.55
964.7356	2370.0664	1013.6	129.05
964.8666	2371.4733	1008.95	121.3
964.9975	2372.8795	1015.05	128.2
965.1284	2374.285	1009.9	121.95
965.2593	2375.6899	1009	121.45
965.3901	2377.0939	1009.55	121.4
965.5209	2378.4973	1007.8	122.15
965.6517	2379.9	1008	120.15
965.7825	2381.3019	1005.45	120.1
965.9132	2382.7032	1010.25	123.85
966.0439	2384.1037	1004.15	118.85
966.1745	2385.5035	1007.55	122.15
966.3051	2386.9027	1004.35	119.75
966.4357	2388.3011	1011.85	122.75
966.5663	2389.6987	1008.95	124.35
966.6968	2391.0957	1009.3	124.45
966.8273	2392.492	1004	119.5
966.9578	2393.8876	1000.35	115.35
967.0882	2395.2824	1002.45	114.45
967.2186	2396.6765	1004.75	119.05
967.349	2398.07	1000.9	112.7
967.4793	2399.4627	1007.5	117.35
967.6097	2400.8547	1004	115.6
967.7399	2402.246	1009.9	117.2
967.8702	2403.6366	1000.6	113.9
968.0004	2405.0265	1003.55	118.6
968.1306	2406.4156	1003.7	114.15
968.2607	2407.8041	1007.9	115.7
968.3909	2409.1918	1000.35	110.75
968.521	2410.5789	1004.95	118.45
968.651	2411.9652	1007.05	117.5
968.781	2413.3508	997.5	108.4
968.911	2414.7358	1002.1	112.8
969.041	2416.12	997.95	110.8
969.1709	2417.5035	998.95	111.6
969.3008	2418.8863	1001.3	116.85
969.4307	2420.2684	997.9	112.45
969.5606	2421.6497	1001.25	112.7
969.6904	2423.0304	1000.8	113.15
969.8201	2424.4104	1000.4	112.75
969.9499	2425.7896	1004.25	109.85
970.0796	2427.1682	998.05	110.7
970.2093	2428.546	999.55	109.6
970.3389	2429.9232	995.4	107.7
970.4685	2431.2996	998.85	112.2
970.5981	2432.6753	999.5	111.45
970.7277	2434.0503	999.1	111.55
970.8572	2435.4246	1000.35	112.2
970.9867	2436.7982	997	105.7
971.1161	2438.1711	993.4	106.2
971.2456	2439.5433	999.6	109.3
971.375	2440.9148	1000.15	107.65
971.5043	2442.2856	994.95	107.85
971.6336	2443.6557	997.5	110.15
971.7629	2445.025	997.8	110
971.8922	2446.3937	993.25	106.35
972.0214	2447.7617	996.35	105.6
972.1506	2449.1289	996.05	109.8
972.2798	2450.4955	996.15	105
972.4089	2451.8613	991.7	108.2
972.538	2453.2265	993.95	108
972.6671	2454.5909	991.8	105.45
972.7961	2455.9546	992.45	104.95
972.9251	2457.3177	994.2	108.35
973.0541	2458.68	995.6	107.45
973.1831	2460.0416	994.3	106.25
973.312	2461.4025	992.05	102.75
973.4408	2462.7627	1004.3	103.9
973.5697	2464.1222	989.35	103
973.6985	2465.4811	990.2	105.1
973.8273	2466.8392	989.2	102
973.956	2468.1966	996.35	106.8
974.0847	2469.5533	994.95	105.25
974.2134	2470.9093	991.6	104
974.3421	2472.2645	991.75	103
974.4707	2473.6191	990.6	104.4
974.5993	2474.973	988.4	101.5
974.7278	2476.3262	995.25	106.5
974.8563	2477.6787	988.05	101.6
974.9848	2479.0305	991.45	106.45
975.1132	2480.3816	993.25	104.25
975.2417	2481.7319	989.2	101.85
975.37	2483.0816	990.85	104.15
975.4984	2484.4306	987.6	99.3
975.6267	2485.7789	987.7	102.8
975.755	2487.1264	990.2	100.9
975.8833	2488.4733	985.85	98.9
976.0115	2489.8195	1007.9	105
976.1397	2491.165	990.25	101.3
976.2678	2492.5097	988.65	99.7
976.3959	2493.8538	989.45	104
976.524	2495.1972	985.75	101.5
976.6521	2496.5398	986.65	99.45
976.7801	2497.8818	987.6	99.7
976.9081	2499.2231	989.95	101.15
977.036	2500.5637	986.25	96.75
977.164	2501.9035	988.65	99.5
977.2918	2503.2427	991.65	100.3
977.4197	2504.5812	986.25	98.4
977.5475	2505.919	992.85	104.55
977.6753	2507.256	982.85	96.5
977.8031	2508.5924	986.3	99.35
977.9308	2509.9281	995.55	102
978.0585	2511.2631	983.05	96.5
978.1861	2512.5974	985.25	99.15
978.3137	2513.9309	985.35	98.5
978.4413	2515.2638	1013	95
978.5689	2516.596	984.4	97.4
978.6964	2517.9275	985.1	98.3
978.8239	2519.2583	986	98.35
978.9513	2520.5884	983.45	95.7
979.0788	2521.9178	985	98.85
979.2062	2523.2465	979.65	93.4
979.3335	2524.5745	982.4	96.4
979.4608	2525.9018	983.9	97.1
979.5881	2527.2284	979	93.85
979.7154	2528.5543	979.45	92.15
979.8426	2529.8796	981.15	96.8
979.9698	2531.2041	979.55	92.3
980.0969	2532.5279	977.85	93.85
980.224	2533.851	980.85	95.4
980.3511	2535.1735	983.7	96.6
980.4781	2536.4952	980.8	95.15
980.6052	2537.8163	982.35	94.25
980.7321	2539.1366	981.15	97
980.8591	2540.4562	981.7	92.75
980.986	2541.7752	980.4	94.25
981.1129	2543.0935	982.8	94.5
981.2397	2544.411	982.6	94
981.3665	2545.7279	983.2	96.35
981.4933	2547.0441	981.55	93.2
981.62	2548.3596	983.7	92.5
981.7467	2549.6744	979.15	92.15
981.8734	2550.9885	986.1	91.65
982.0001	2552.3019	976.8	88.5
982.1267	2553.6146	980.55	92.15
982.2532	2554.9266	980.35	92.1
982.3798	2556.2379	979.4	92.1
982.5063	2557.5485	980.3	93.8
982.6327	2558.8585	986.85	93.1
982.7592	2560.1677	981.95	89.9
982.8856	2561.4762	978.5	90.6
983.0119	2562.7841	981.5	91.15
983.1383	2564.0913	976.3	91.15
983.2646	2565.3977	975.75	89.9
983.3908	2566.7035	979.45	92.3
983.517	2568.0086	980.7	92.55
983.6432	2569.313	981	92.25
983.7694	2570.6167	980.7	89.9
983.8955	2571.9197	976.2	91.6
984.0216	2573.222	977.4	86.7
984.1476	2574.5236	979.3	91.5
984.2737	2575.8246	978.9	88.55
984.3996	2577.1248	980.6	91.45
984.5256	2578.4244	976.65	93.05
984.6515	2579.7232	978.8	92
984.7774	2581.0214	1003.75	90.6
984.9032	2582.3189	977.7	90.3
985.029	2583.6157	981.45	90.1
985.1548	2584.9118	979.45	92.65
985.2806	2586.2072	975.05	89.75
985.4063	2587.5019	976.85	92.05
985.5319	2588.7959	979.45	92.7
985.6576	2590.0893	984.6	97.5
985.7832	2591.3819	981.2	97.3
985.9087	2592.6739	978.15	91.5
986.0343	2593.9652	979	92.4
986.1597	2595.2557	980.95	94.55
986.2852	2596.5456	979.9	92.65
986.4106	2597.8348	975.85	90.35
986.536	2599.1234	979.2	95.25
986.6614	2600.4112	977.95	92.65
986.7867	2601.6983	984.7	95.7
986.912	2602.9848	980.45	96.25
987.0372	2604.2705	986.85	94.45
987.1624	2605.5556	978.65	94.1
987.2876	2606.84	977.35	92.55
987.4128	2608.1237	980.85	94.55
987.5379	2609.4067	976.45	91.45
987.6629	2610.689	984.35	88.35
987.788	2611.9707	977.4	87.95
987.913	2613.2516	977.25	87.45
988.0379	2614.5319	976.2	89.35
988.1629	2615.8115	975.85	89.1
988.2878	2617.0903	975.65	88.25
988.4126	2618.3685	975.6	88.75
988.5375	2619.6461	973.95	88.7
988.6622	2620.9229	974.5	89.4
988.787	2622.199	973.85	86.45
988.9117	2623.4745	973.85	86.7
989.0364	2624.7493	972.5	87.7
989.161	2626.0234	971.4	87.45
989.2857	2627.2968	972.35	88.05
989.4102	2628.5695	972.65	87.35
989.5348	2629.8415	972.4	87.6
989.6593	2631.1128	976.1	88.4
989.7837	2632.3835	972.8	91.1
989.9082	2633.6535	972.9	87.95
990.0326	2634.9228	975.75	91.7
990.1569	2636.1914	971.45	86.25
990.2812	2637.4593	975.7	87.9
990.4055	2638.7265	972.9	88.45
990.5298	2639.9931	968.75	84.45
990.654	2641.259	971.15	83.3
990.7782	2642.5242	970.95	84.35
990.9023	2643.7887	971.95	85.5
991.0264	2645.0525	968.45	83.45
991.1505	2646.3156	967.7	83.3
991.2745	2647.5781	966.95	82.2
991.3985	2648.8398	965.3	81.6
991.5225	2650.1009	1007.75	84.6
991.6464	2651.3613	967.9	83
991.7703	2652.6211	967.95	82.55
991.8942	2653.8801	965.35	82.6
992.018	2655.1385	967.8	80.5
992.1418	2656.3961	969.3	84.4
992.2655	2657.6531	970.2	85.95
992.3892	2658.9094	964.9	78.3
992.5129	2660.1651	968.95	83.65
992.6366	2661.42	966.8	82.1
992.7602	2662.6743	969.35	83.85
992.8837	2663.9279	966.5	83
993.0073	2665.1808	971.7	84.15
993.1307	2666.433	969.45	83.05
993.2542	2667.6846	969.8	86.1
993.3776	2668.9354	974.3	88.05
993.501	2670.1856	968.1	83.05
993.6244	2671.4351	972.25	89
993.7477	2672.6839	974.45	90.15
993.8709	2673.9321	972.3	92.05
993.9942	2675.1795	968.8	83.4
994.1174	2676.4263	972.35	87.45
994.2405	2677.6724	971.4	88.65
994.3637	2678.9179	972.95	87.55
994.4868	2680.1626	974.3	92.75
994.6098	2681.4067	971.6	86.2
994.7328	2682.6501	972.6	87.45
994.8558	2683.8928	972.1	86.85
994.9788	2685.1348	966.55	80.15
995.1017	2686.3761	969.65	86.25
995.2245	2687.6168	969.65	84.9
995.3474	2688.8568	969.4	87
995.4702	2690.0961	967.25	82.9
995.5929	2691.3348	968.25	83.25
995.7156	2692.5727	963.5	76.8
995.8383	2693.81	967.6	82.65
995.961	2695.0466	966.65	84.05
996.0836	2696.2826	969.55	83.45
996.2062	2697.5178	986.4	80.8
996.3287	2698.7524	966.75	82.3
996.4512	2699.9863	969.95	84.15
996.5737	2701.2195	965.65	82.25
996.6961	2702.452	971.1	86.7
996.8185	2703.6839	970.45	83.1
996.9408	2704.9151	967.55	84.6
997.0631	2706.1456	971.45	87.35
997.1854	2707.3755	975.45	91.1
997.3077	2708.6046	973.6	87.1
997.4299	2709.8331	976.45	91.8
997.552	2711.0609	973.95	89.5
997.6742	2712.2881	975.6	91.65
997.7963	2713.5145	978.65	91.55
997.9183	2714.7403	975.25	91.4
998.0403	2715.9654	978.9	93.55
998.1623	2717.1899	993.95	94.1
998.2842	2718.4136	984.15	99.75
998.4062	2719.6367	984.9	100.95
998.528	2720.8591	991.5	98.2
998.6498	2722.0809	992.65	107.6
998.7716	2723.3019	996.85	111.15
998.8934	2724.5223	990.45	105.55
999.0151	2725.7421	989	104.4
999.1368	2726.9611	995.3	110.3
999.2584	2728.1795	997.5	110.15
999.38	2729.3972	990.4	106.5
999.5016	2730.6142	991.9	102.95
999.6231	2731.8306	982.95	98.05
999.7446	2733.0462	982.9	97.25
999.8661	2734.2612	987.75	100.5
999.9875	2735.4756	979.45	93.9
1000.1089	2736.6892	976.2	93.45
1000.2302	2737.9022	969.6	85.7
1000.3515	2739.1145	975.9	91.4
1000.4728	2740.3262	976.8	84.45
1000.594	2741.5372	970.45	87.3
1000.7152	2742.7475	968.95	84.8
1000.8363	2743.9571	967.5	80
1000.9575	2745.1661	967.05	80
1001.0785	2746.3744	968.1	83.35
1001.1996	2747.582	962.1	77.35
1001.3206	2748.7889	963.25	78.8
1001.4415	2749.9952	962.75	78.8
1001.5625	2751.2008	960.9	75.75
1001.6833	2752.4057	959.7	73.15
1001.8042	2753.61	963.25	79.15
1001.925	2754.8136	960.35	71.8
1002.0458	2756.0165	957.45	76.3
1002.1665	2757.2188	958.2	75.1
1002.2872	2758.4204	956.05	72.9
1002.4078	2759.6213	962.75	77.8
1002.5285	2760.8215	962.95	73.75
1002.649	2762.0211	959.35	72.3
1002.7696	2763.22	961.5	72.7
1002.8901	2764.4182	958.7	72.65
1003.0106	2765.6158	955.6	72.55
1003.131	2766.8127	956.75	74.05
1003.2514	2768.009	955.55	71.6
1003.3717	2769.2045	956.85	71.25
1003.492	2770.3994	958.7	73.5
1003.6123	2771.5936	961.45	77
1003.7325	2772.7872	952.25	70.05
1003.8527	2773.9801	956.45	71.15
1003.9729	2775.1723	969.5	70.45
1004.093	2776.3639	951.8	69.05
1004.2131	2777.5548	957.9	72.7
1004.3331	2778.745	953.95	69.85
1004.4531	2779.9346	952.8	70.55
1004.5731	2781.1235	951.8	67.25
1004.693	2782.3117	950.35	67.8
1004.8129	2783.4992	956.4	73.55
1004.9328	2784.6861	952.3	69.55
1005.0526	2785.8723	956.4	72.4
1005.1723	2787.0579	956.4	72.85
1005.2921	2788.2428	953.5	70.1
1005.4118	2789.427	953.2	69.75
1005.5314	2790.6106	955.1	72.6
1005.651	2791.7935	957.25	72.3
1005.7706	2792.9757	954.9	72.35
1005.8902	2794.1573	956.65	70.9
1006.0097	2795.3382	957.9	74.2
1006.1291	2796.5184	955.85	75.05
1006.2485	2797.698	962.3	78.5
1006.3679	2798.8769	960.05	78.35
1006.4873	2800.0551	962.05	80.5
1006.6066	2801.2327	965.55	78.55
1006.7258	2802.4096	963.85	83.4
1006.8451	2803.5859	966.15	82.5
1006.9642	2804.7615	970.2	86
1007.0834	2805.9364	967.2	84.85
1007.2025	2807.1106	965.65	84.05
1007.3216	2808.2842	973.05	89.45
1007.4406	2809.4572	977.25	95.05
1007.5596	2810.6294	979.35	95.4
1007.6785	2811.801	984.15	102.95
1007.7975	2812.972	989.65	106.35
1007.9163	2814.1423	993.4	108.45
1008.0352	2815.3119	997.55	115.55
1008.154	2816.4808	1003.35	122.7
1008.2727	2817.6491	1014.25	129.95
1008.3914	2818.8167	1019.85	136.8
1008.5101	2819.9837	1036.25	149.05
1008.6288	2821.15	1038.9	157.3
1008.7474	2822.3157	1054.65	171.45
1008.8659	2823.4807	1069.2	187
1008.9844	2824.645	1083.45	199.75
1009.1029	2825.8086	1095.5	214.65
1009.2214	2826.9716	1112.75	231
1009.3398	2828.134	1126.75	244.45
1009.4581	2829.2957	1135.05	251.35
1009.5764	2830.4567	1146.3	263.55
1009.6947	2831.617	1154.6	270.95
1009.813	2832.7767	1158.9	275.65
1009.9312	2833.9358	1156.1	274.4
1010.0493	2835.0941	1155.15	272.65
1010.1675	2836.2519	1152.4	270.1
1010.2855	2837.4089	1139.6	253.85
1010.4036	2838.5653	1134.3	251.15
1010.5216	2839.7211	1128.3	245.3
1010.6396	2840.8761	1123.1	239.35
1010.7575	2842.0306	1124.15	240.95
1010.8754	2843.1843	1125.55	243.85
1010.9932	2844.3374	1126.8	246.3
1011.111	2845.4899	1134.05	250.1
1011.2288	2846.6417	1135.85	254.8
1011.3465	2847.7928	1147.1	264.7
1011.4642	2848.9433	1156.2	275.2
1011.5818	2850.0931	1158.3	275.6
1011.6995	2851.2422	1168.05	283.95
1011.817	2852.3907	1170.3	287.15
1011.9345	2853.5385	1175.75	290.9
1012.052	2854.6857	1210.6	299.75
1012.1695	2855.8323	1186.4	304.55
1012.2869	2856.9781	1198.15	314.65
1012.4042	2858.1233	1202.25	320.1
1012.5216	2859.2679	1209	327.65
1012.6389	2860.4118	1215.25	331.5
1012.7561	2861.555	1232.35	345.75
1012.8733	2862.6976	1237.45	352.1
1012.9905	2863.8395	1237.4	355.75
1013.1076	2864.9808	1241.4	358.7
1013.2247	2866.1214	1243.7	362.05
1013.3417	2867.2614	1241.3	359.6
1013.4587	2868.4007	1252.8	368.8
1013.5757	2869.5393	1256	372.7
1013.6926	2870.6773	1260.75	374.95
1013.8095	2871.8146	1257.4	371.85
1013.9263	2872.9513	1264.45	378.35
1014.0431	2874.0874	1263.85	381.7
1014.1599	2875.2227	1260.8	378.6
1014.2766	2876.3574	1266.25	384.6
1014.3933	2877.4915	1262.45	380.05
1014.51	2878.6249	1269.4	389.4
1014.6266	2879.7577	1270.7	389.05
1014.7431	2880.8898	1286.3	393.5
1014.8596	2882.0212	1276.3	394.2
1014.9761	2883.152	1275.2	392.3
1015.0925	2884.2821	1278.15	395.65
1015.2089	2885.4116	1277.7	395.65
1015.3253	2886.5405	1283.75	401.35
1015.4416	2887.6686	1284.55	400.6
1015.5579	2888.7962	1285.15	405.7
1015.6741	2889.923	1281.95	399.9
1015.7903	2891.0493	1284.5	404.25
1015.9065	2892.1748	1291.2	410.4
1016.0226	2893.2997	1288.55	408.1
1016.1387	2894.424	1282.45	399.6
1016.2547	2895.5476	1284.4	402.1
1016.3707	2896.6706	1291.3	412.2
1016.4866	2897.7929	1295.5	411
1016.6025	2898.9145	1298.75	415.9
1016.7184	2900.0355	1297.95	414.9
1016.8342	2901.1559	1301.1	417.6
1016.95	2902.2756	1307.5	419.95
1017.0658	2903.3946	1305.15	424.05
1017.1815	2904.513	1305.15	420.45
1017.2971	2905.6308	1301.7	420.55
1017.4127	2906.7479	1307.2	424.4
1017.5283	2907.8643	1307.2	425.55
1017.6439	2908.9801	1311	429.55
1017.7594	2910.0953	1317.25	436.45
1017.8748	2911.2098	1318.9	433.8
1017.9902	2912.3236	1317.45	428.4
1018.1056	2913.4368	1307.2	424.5
1018.2209	2914.5494	1302.3	419.95
1018.3362	2915.6613	1307.55	421.3
1018.4515	2916.7725	1298.9	413.3
1018.5667	2917.8831	1285.55	403.05
1018.6819	2918.9931	1281	398.85
1018.797	2920.1024	1277.75	393.25
1018.9121	2921.211	1271.05	389.5
1019.0271	2922.319	1268.7	386.15
1019.1421	2923.4264	1272.8	392.55
1019.2571	2924.5331	1261.7	383
1019.372	2925.6391	1266.65	382.4
1019.4869	2926.7445	1260.5	380.6
1019.6017	2927.8493	1269.55	386
1019.7165	2928.9534	1269	386.1
1019.8313	2930.0569	1276.65	395.05
1019.946	2931.1597	1272.2	388.15
1020.0606	2932.2619	1274.75	393.85
1020.1753	2933.3634	1273.05	393.15
1020.2899	2934.4643	1289.8	400.95
1020.4044	2935.5645	1289.3	402.45
1020.5189	2936.6641	1287.75	400.6
1020.6334	2937.763	1274.25	392.8
1020.7478	2938.8613	1276	393.5
1020.8622	2939.959	1268.25	380.45
1020.9765	2941.056	1259.3	379.05
1021.0908	2942.1523	1243.1	360
1021.2051	2943.248	1233	349.35
1021.3193	2944.3431	1215.1	334.3
1021.4334	2945.4375	1200.6	319.2
1021.5476	2946.5313	1175.7	294.95
1021.6617	2947.6244	1167.35	285.1
1021.7757	2948.7169	1147.05	264.9
1021.8897	2949.8087	1133.55	252.15
1022.0037	2950.8999	1124.05	243.7
1022.1176	2951.9904	1103.35	222.4
1022.2315	2953.0803	1097.25	215.05
1022.3453	2954.1696	1085.7	202.75
1022.4591	2955.2582	1078.8	200.05
1022.5728	2956.3462	1073.9	192.25
1022.6865	2957.4335	1074.8	192.2
1022.8002	2958.5202	1070.95	187.45
1022.9138	2959.6062	1065.25	185.6
1023.0274	2960.6916	1062.4	179.5
1023.141	2961.7764	1059.05	176.35
1023.2545	2962.8605	1057.4	176.15
1023.3679	2963.9439	1059.4	179.25
1023.4813	2965.0267	1057.35	175.05
1023.5947	2966.1089	1077.25	174.95
1023.708	2967.1905	1054.1	173.45
1023.8213	2968.2714	1050.05	169.4
1023.9346	2969.3516	1052.7	172.25
1024.0478	2970.4312	1058.35	167.95
1024.1609	2971.5102	1053.15	172.6
1024.274	2972.5885	1053.05	172.15
1024.3871	2973.6662	1056.9	168.4
1024.5002	2974.7432	1056.65	177.4
1024.6132	2975.8196	1054.55	172.6
1024.7261	2976.8954	1054.35	174
1024.839	2977.9705	1054.65	173.15
1024.9519	2979.045	1055.4	174.25
1025.0647	2980.1188	1050.05	169.5
1025.1775	2981.192	1049.15	169.75
1025.2902	2982.2645	1049.8	166.15
1025.4029	2983.3364	1044.7	165
1025.5156	2984.4077	1041.65	162.9
1025.6282	2985.4783	1041.85	156
1025.7407	2986.5483	1037.15	156.6
1025.8532	2987.6177	1023	143.5
1025.9657	2988.6864	1023.15	143.1
1026.0782	2989.7545	1013.7	131.1
1026.1906	2990.8219	1007.85	126.45
1026.3029	2991.8887	1004.25	121.65
1026.4152	2992.9548	1001.5	119.45
1026.5275	2994.0204	992.7	113.65
1026.6397	2995.0852	985.55	105.2
1026.7519	2996.1495	982.75	99.05
1026.864	2997.2131	975.6	95.1
1026.9761	2998.276	975.25	94.95
1027.0882	2999.3383	970.05	88.9
1027.2002	3000.4	966.4	83.75
1027.3122	3001.4611	958.6	78.4
1027.4241	3002.5215	956.1	74.8
1027.536	3003.5812	954.65	74.4
1027.6478	3004.6404	951.05	70.75
1027.7596	3005.6989	953.55	72.05
1027.8714	3006.7567	949.15	68
1027.9831	3007.8139	981.75	69.35
1028.0947	3008.8705	945.05	64.8
1028.2064	3009.9264	951.65	66.45
1028.3179	3010.9818	943.75	61.5
1028.4295	3012.0364	942.4	62.2
1028.541	3013.0905	940.8	58.8
1028.6524	3014.1439	938.35	58.95
1028.7638	3015.1966	940.65	59.15
1028.8752	3016.2487	936.55	56.8
1028.9865	3017.3002	943.4	57.9
1029.0978	3018.3511	933.75	54.55
1029.209	3019.4013	936.95	57
1029.3202	3020.4509	934.95	55.25
1029.4314	3021.4998	936.45	54.9
1029.5425	3022.5481	933.9	53.55
1029.6535	3023.5958	934.6	51.2
1029.7645	3024.6428	934.25	52.4
1029.8755	3025.6892	933.45	53.85
1029.9864	3026.735	935.5	54.85
1030.0973	3027.7802	934.15	52.25
1030.2082	3028.8247	930.95	50.7
1030.319	3029.8685	934.25	53.7
1030.4297	3030.9118	931.6	51
1030.5404	3031.9544	928.1	47.85
1030.6511	3032.9963	932.7	51.9
1030.7617	3034.0376	934.15	54.25
1030.8723	3035.0783	936.15	53.35
1030.9829	3036.1184	934.85	55
1031.0934	3037.1578	932.7	53.55
1031.2038	3038.1966	932.9	50.85
1031.3142	3039.2348	932	50.55
1031.4246	3040.2723	944.35	55.45
1031.5349	3041.3092	934.95	54.8
1031.6452	3042.3455	934.6	54.55
1031.7554	3043.3811	932.75	49.75
1031.8656	3044.4161	934.5	52.15
1031.9758	3045.4505	932.25	53.45
1032.0859	3046.4842	933.5	52.45
1032.1959	3047.5173	930.45	49.7
1032.3059	3048.5498	935.1	54.4
1032.4159	3049.5816	936.35	55
1032.5258	3050.6128	934.3	53.9
1032.6357	3051.6434	936.95	55.55
1032.7455	3052.6734	934.3	52.9
1032.8553	3053.7027	931.4	50.2
1032.9651	3054.7314	934.25	52.6
1033.0748	3055.7594	934.95	54.7
1033.1845	3056.7868	935.4	54.2
1033.2941	3057.8136	935.3	54.95
1033.4037	3058.8398	935.55	54.85
1033.5132	3059.8653	938.45	57.5
1033.6227	3060.8902	932.55	51.7
1033.7321	3061.9145	935.1	52.9
1033.8415	3062.9381	936.55	55.25
1033.9509	3063.9612	950.1	53.55
1034.0602	3064.9835	938.35	58.65
1034.1694	3066.0053	938.7	55.45
1034.2787	3067.0264	935.2	57.75
1034.3878	3068.0469	939.15	57.85
1034.497	3069.0668	938	55.65
1034.6061	3070.086	933.8	54.25
1034.7151	3071.1046	933.05	51.75
1034.8241	3072.1226	933.6	52.95
1034.9331	3073.1399	931.6	52.4
1035.042	3074.1567	931.9	52.6
1035.1508	3075.1727	931.45	49.15
1035.2597	3076.1882	928.45	49.85
1035.3684	3077.203	928.2	47
1035.4772	3078.2173	929.7	47.35
1035.5859	3079.2308	928.75	42.5
1035.6945	3080.2438	925.9	42.75
1035.8031	3081.2561	922.45	43.6
1035.9117	3082.2678	922.35	42.05
1036.0202	3083.2789	922.4	43.8
1036.1286	3084.2893	920.3	42.2
1036.2371	3085.2991	921.2	41.4
1036.3454	3086.3083	921.35	35.8
1036.4538	3087.3169	920.1	38.5
1036.562	3088.3248	921.05	39.95
1036.6703	3089.3321	920.6	38
1036.7785	3090.3388	915.05	34.95
1036.8866	3091.3449	917.05	36.8
1036.9948	3092.3503	919.7	37.15
1037.1028	3093.3551	915.95	37.8
1037.2108	3094.3593	913.05	33.5
1037.3188	3095.3629	913	33.3
1037.4267	3096.3658	915.65	34.7
1037.5346	3097.3681	915.05	34.95
1037.6425	3098.3698	916.45	32.85
1037.7503	3099.3708	918.45	33.35
1037.858	3100.3713	911.45	31.4
1037.9657	3101.3711	913.35	31.75
1038.0734	3102.3702	1025.5	33
1038.181	3103.3688	911.4	30.2
1038.2886	3104.3667	910.45	31.65
1038.3961	3105.364	909	27.25
1038.5036	3106.3607	911.4	30.45
1038.611	3107.3568	909.2	26.6
1038.7184	3108.3522	909.95	30.25
1038.8257	3109.347	911.35	32.2
1038.933	3110.3412	914.9	30.3
1039.0403	3111.3348	907.45	28.25
1039.1475	3112.3277	904.65	25.55
1039.2547	3113.32	905	25.75
1039.3618	3114.3117	907.6	27.8
1039.4689	3115.3028	905.8	27.7
1039.5759	3116.2932	908.25	26.15
1039.6829	3117.2831	909.85	21.8
1039.7898	3118.2723	905.85	24.7
1039.8967	3119.2608	904.5	24.4
1040.0035	3120.2488	904.85	25.5
1040.1103	3121.2361	904.15	22.65
1040.2171	3122.2229	904.75	25.2
1040.3238	3123.209	905.2	24.85
1040.4305	3124.1944	904.2	24.45
1040.5371	3125.1793	904.35	22.6
1040.6437	3126.1635	900.85	20.3
1040.7502	3127.1471	902.7	24.35
1040.8567	3128.1301	903.1	22.1
1040.9631	3129.1125	901.7	22.15
1041.0695	3130.0942	901.95	22.75
1041.1759	3131.0753	909.35	22.3
1041.2822	3132.0558	904.55	23.1
1041.3884	3133.0357	900.35	18.35
1041.4946	3134.015	900.15	19.05
1041.6008	3134.9936	902.15	21.85
1041.7069	3135.9716	918.9	19.15
1041.813	3136.949	900.8	19.95
1041.919	3137.9258	920.45	21.6
1042.025	3138.902	905.65	21.7
1042.1309	3139.8775	898.8	18.7
1042.2368	3140.8524	900.45	20.05
1042.3427	3141.8267	900.75	19.5
1042.4485	3142.8004	900	19.4
1042.5542	3143.7735	903.7	17
1042.6599	3144.7459	902.65	19.8
1042.7656	3145.7178	899	17.3
1042.8712	3146.689	896	16.85
1042.9768	3147.6596	900.35	18.3
1043.0823	3148.6295	900	20.8
1043.1878	3149.5989	897.55	19
1043.2932	3150.5676	900.15	24.4
1043.3986	3151.5357	895.8	17.6
1043.5039	3152.5032	895	15.15
1043.6092	3153.4701	897.35	17.2
1043.7145	3154.4364	898.2	17.25
1043.8197	3155.402	894.85	15.3
1043.9248	3156.367	896.75	15.35
1044.03	3157.3315	934.6	17.45
1044.135	3158.2952	896.5	17.85
1044.24	3159.2584	897.2	17.95
1044.345	3160.221	897.85	18.2
1044.4499	3161.1829	897.7	17.3
1044.5548	3162.1442	896.2	18.3
1044.6596	3163.105	894.8	16.25
1044.7644	3164.065	898.55	18.3
1044.8692	3165.0245	899.75	17.25
1044.9739	3165.9834	894.85	19.25
1045.0785	3166.9416	895.7	17.75
1045.1831	3167.8993	895.15	15.6
1045.2877	3168.8563	895.95	14.5
1045.3922	3169.8127	894.4	13
1045.4966	3170.7684	896.1	18.1
1045.6011	3171.7236	897.65	15.95
1045.7054	3172.6782	894.8	12.85
1045.8098	3173.6321	895.35	14.25
1045.914	3174.5854	899.75	16
1046.0183	3175.5381	896.35	16.3
1046.1224	3176.4902	895.05	14.15
1046.2266	3177.4417	892.8	13
1046.3307	3178.3926	893.6	14.5
1046.4347	3179.3428	890.9	11.8
1046.5387	3180.2924	892.15	13.4
1046.6427	3181.2415	893.3	13.7
1046.7466	3182.1899	895	13.45
1046.8504	3183.1377	896.3	18.25
1046.9542	3184.0848	897.8	13.65
1047.058	3185.0314	895.2	14.65
1047.1617	3185.9773	893.9	12.3
1047.2654	3186.9227	894.15	14.45
1047.369	3187.8674	893.4	13.8
1047.4726	3188.8115	897.85	11.6
1047.5761	3189.755	893.5	14.1
1047.6796	3190.6979	894.4	14.85
1047.783	3191.6402	894.05	15.95
1047.8864	3192.5818	893.7	13.85
1047.9898	3193.5229	905.75	13
1048.0931	3194.4633	890.95	10.95
1048.1963	3195.4031	894.05	14.25
1048.2995	3196.3423	891.95	11.6
1048.4027	3197.2809	891.8	11.9
1048.5058	3198.2189	892.5	12.05
1048.6089	3199.1563	908.6	10.75
1048.7119	3200.0931	892.85	13.75
1048.8148	3201.0292	891.05	12.7
1048.9178	3201.9648	893.5	12.55
1049.0206	3202.8997	895.25	14.3
1049.1235	3203.834	891.4	12
1049.2262	3204.7677	893.15	16
1049.329	3205.7008	894.1	13.1
1049.4317	3206.6333	889.95	11.85
1049.5343	3207.5652	893.75	12.5
1049.6369	3208.4964	891.2	12.35
1049.7394	3209.4271	890.5	11.55
1049.8419	3210.3571	890.85	11.3
1049.9444	3211.2865	891.5	12.7
1050.0468	3212.2154	892.65	12.75
1050.1491	3213.1436	893.1	11
1050.2514	3214.0712	895.85	9.15
1050.3537	3214.9982	889.35	12.1
1050.4559	3215.9246	890.45	11.3
1050.5581	3216.8503	889.2	10.55
1050.6602	3217.7755	890.1	11.75
1050.7623	3218.7001	891.95	13.05
1050.8643	3219.624	890.95	10.95
1050.9663	3220.5473	890.05	11.05
1051.0682	3221.4701	893.25	14.3
1051.1701	3222.3922	893.6	13.15
1051.2719	3223.3137	889.3	9.8
1051.3737	3224.2346	887.25	6.5
1051.4754	3225.1549	889.25	9.25
1051.5771	3226.0746	888.75	9.05
1051.6788	3226.9937	889.6	10.7
1051.7804	3227.9121	888.8	9.75
1051.8819	3228.83	888.3	9.5
1051.9834	3229.7473	891.45	13.5
1052.0849	3230.6639	889.85	9.75
1052.1863	3231.5799	888	8.95
1052.2876	3232.4954	889.95	10.25
1052.3889	3233.4102	890	11.75
1052.4902	3234.3244	889.65	10.2
1052.5914	3235.238	889.55	12.15
1052.6926	3236.151	913.1	9.45
1052.7937	3237.0634	888.3	10.75
1052.8948	3237.9752	889.2	8.6
1052.9958	3238.8864	887.25	8.05
1053.0968	3239.797	889.85	10.65
1053.1977	3240.7069	888.15	8.3
1053.2986	3241.6163	890.5	7.55
1053.3994	3242.5251	889	10.1
1053.5002	3243.4332	887.6	7.5
1053.6009	3244.3408	890.75	11.5
1053.7016	3245.2477	886.7	6.35
1053.8022	3246.154	889.45	8.5
1053.9028	3247.0598	890.85	10.7
1054.0034	3247.9649	887.9	7.8
1054.1039	3248.8694	888.25	9.05
1054.2043	3249.7733	888.7	10.3
1054.3047	3250.6766	887.8	8.75
1054.4051	3251.5793	888.75	9.65
1054.5054	3252.4814	886.35	6.65
1054.6056	3253.3829	887.8	8.5
1054.7058	3254.2838	886	6.8
1054.806	3255.1841	886.3	6.4
1054.9061	3256.0838	886.95	7.95
1055.0061	3256.9829	886.25	5.95
1055.1062	3257.8814	887.3	5.8
1055.2061	3258.7792	889.8	6.55
1055.306	3259.6765	888.9	9.3
1055.4059	3260.5731	886.3	8.55
1055.5057	3261.4692	889.2	9.95
1055.6055	3262.3647	889.2	8.5
1055.7052	3263.2595	886.55	7.75
1055.8049	3264.1538	884.05	4.35
1055.9045	3265.0474	889	8.3
1056.0041	3265.9404	884.8	7.2
1056.1036	3266.8329	884.95	6.15
1056.2031	3267.7247	894.95	5.85
1056.3025	3268.616	885.1	8.7
1056.4019	3269.5066	884.85	6.55
1056.5013	3270.3966	885.85	4.2
1056.6005	3271.286	885.45	7.4
