Software Version:	3.9.2.0
Unit SN:	10000200
Spectrometer SN:	6960
Date:	3/8/2024 1:28:52 PM
Data Line Index:	25
Spectral Points:	2048
Integration time (ms):	125
Averages:	20
Delay (ms):	30000
Sequence Number:	1
Processing:	dark subtract
Laser Power (mW):	305
Laser Current (mA):	823
Laser Diode Temp (C):	25.1
Laser Case Temp (C):	26.3
System Temp (C):	26.3
Spectrometer Temp (C):	24
CCD Temp (C):	0.002
Secondary Temp (C):	20.01
Heatsink Temp (C):	21.248
CCDPCB Temp (C):	36.274
SecondaryPCB Temp (C):	31.516

Wavelength	RamanShift	Raw Counts	Dark Subtracted
787.061	30.1047	450.8	43.15
787.2016	32.3739	450.4	44.85
787.3422	34.6426	456.6	48.8
787.4828	36.9109	460.95	52.55
787.6235	39.1787	469.9	55.6
787.7642	41.4461	479.95	61.75
787.9049	43.7131	486.15	63.7
788.0456	45.9796	497.3	73.2
788.1863	48.2456	504.7	75.8
788.3271	50.5112	516.3	84.55
788.4679	52.7764	521.15	86.1
788.6087	55.0411	531.85	92.45
788.7496	57.3054	545.8	100.1
788.8904	59.5692	553.15	106.65
789.0313	61.8326	559.3	109.5
789.1722	64.0955	575.9	122.75
789.3132	66.3579	586.25	128.25
789.4541	68.6199	605.25	140.6
789.5951	70.8815	645.05	178.55
789.7361	73.1426	717.15	247.05
789.8771	75.4032	910.35	438.1
790.0181	77.6634	1381.65	901
790.1592	79.9231	2495	2007.8
790.3003	82.1824	4908.9	4402.9
790.4414	84.4412	9265.1	8727.5
790.5825	86.6995	15202.75	14628.15
790.7237	88.9574	20971.95	20360.65
790.8648	91.2148	25014	24376.25
791.006	93.4717	26846.75	26202.8
791.1472	95.7282	27198.15	26543.4
791.2885	97.9842	27036.1	26378.3
791.4297	100.2398	26444.1	25781.05
791.571	102.4949	25775.35	25108.25
791.7123	104.7495	24960.2	24289.65
791.8536	107.0036	24120.85	23452.05
791.9949	109.2573	23336.7	22671.1
792.1363	111.5105	22570.95	21897.4
792.2777	113.7632	21811.2	21141.1
792.4191	116.0154	21182.95	20501.3
792.5605	118.2672	20761.85	20081
792.7019	120.5185	20290.15	19610.4
792.8434	122.7693	19918.1	19233.65
792.9849	125.0197	19611.4	18922.5
793.1264	127.2696	19297.4	18602.45
793.2679	129.519	19135.5	18440.65
793.4094	131.7679	18895.4	18196.4
793.551	134.0163	18687.8	17988.45
793.6926	136.2642	18435.6	17731.5
793.8342	138.5117	18209.05	17502.15
793.9758	140.7587	17915.25	17208.65
794.1175	143.0052	17676.7	16965.8
794.2591	145.2512	17389.3	16677.25
794.4008	147.4967	17108.7	16397.9
794.5425	149.7417	16975.75	16262.55
794.6842	151.9863	16802.55	16083.9
794.826	154.2304	16757	16029.7
794.9677	156.4739	16626.5	15899.75
795.1095	158.717	16538.9	15811.2
795.2513	160.9596	16339.4	15606.55
795.3931	163.2017	16105.15	15366.9
795.535	165.4433	15792.25	15055.9
795.6768	167.6844	15467.6	14727.3
795.8187	169.925	15152.45	14411.4
795.9606	172.1651	14780.8	14038.2
796.1025	174.4047	14501.05	13754.6
796.2445	176.6439	14244.25	13500.55
796.3864	178.8825	14020	13270.75
796.5284	181.1206	13834.65	13076.9
796.6704	183.3582	13681.4	12920.75
796.8124	185.5954	13575.05	12813.8
796.9544	187.832	13499.95	12735.3
797.0965	190.0681	13461	12692.25
797.2386	192.3037	13428.9	12655.05
797.3806	194.5388	13432.9	12653.85
797.5228	196.7734	13458.6	12684.35
797.6649	199.0075	13508.45	12728.35
797.807	201.2411	13647.05	12864.6
797.9492	203.4742	13700.65	12921.25
798.0914	205.7068	13839.5	13053.55
798.2336	207.9389	13944.75	13156.55
798.3758	210.1704	14105.35	13326.1
798.518	212.4015	14193	13427.15
798.6603	214.632	14379.15	13616.8
798.8025	216.862	14546.3	13782.25
798.9448	219.0915	14688.6	13920.45
799.0871	221.3205	14878	14112.55
799.2294	223.549	15104.35	14340.8
799.3718	225.777	15353.8	14590.35
799.5141	228.0044	15633.75	14862.9
799.6565	230.2314	16007.85	15233.9
799.7989	232.4578	16400.4	15623.3
799.9413	234.6837	16685.25	15903.7
800.0837	236.909	16896.45	16109.65
800.2262	239.1339	16840.4	16026.5
800.3687	241.3582	16684.15	15886.65
800.5111	243.582	16394.05	15569.65
800.6536	245.8053	16085.25	15272.3
800.7961	248.0281	15834.3	15030.55
800.9387	250.2503	15627.7	14814.7
801.0812	252.472	15555.4	14742.55
801.2238	254.6932	15521.35	14711.6
801.3664	256.9139	15508	14695.4
801.509	259.134	15524.8	14711.05
801.6516	261.3536	15584.65	14767.75
801.7942	263.5727	15672.95	14852.95
801.9369	265.7912	15723.1	14904.95
802.0795	268.0092	15797.05	14977.65
802.2222	270.2267	15836.6	15021.35
802.3649	272.4436	15804.2	14987.45
802.5076	274.6601	15764.85	14932.6
802.6504	276.8759	15694.4	14867.95
802.7931	279.0913	15593.1	14771.7
802.9359	281.3061	15545.3	14716.75
803.0787	283.5204	15560.95	14726.4
803.2215	285.7341	15593.8	14758.5
803.3643	287.9473	15715.45	14874.25
803.5071	290.16	15923.7	15089.3
803.6499	292.3721	16180.65	15352
803.7928	294.5837	16553.1	15721.5
803.9357	296.7947	16904.95	16073.1
804.0786	299.0052	17086.45	16257.95
804.2215	301.2152	16965.95	16134.55
804.3644	303.4246	16635.9	15804.05
804.5074	305.6334	16146.45	15317.55
804.6503	307.8418	15638.5	14802
804.7933	310.0495	15195.3	14356.9
804.9363	312.2568	14862.1	14025.5
805.0793	314.4635	14615.25	13776.75
805.2223	316.6696	14440.75	13596.85
805.3653	318.8752	14384.9	13533.3
805.5084	321.0802	14418.65	13570.75
805.6514	323.2847	14494.9	13651.9
805.7945	325.4887	14550.45	13702.15
805.9376	327.692	14503.1	13658.1
806.0807	329.8949	14370.6	13521.15
806.2238	332.0972	14102.55	13250.1
806.367	334.2989	13865.6	13011.85
806.5101	336.5001	13605.85	12751.35
806.6533	338.7007	13377.75	12521.5
806.7965	340.9008	13262.55	12406.75
806.9397	343.1003	13151.1	12293.85
807.0829	345.2992	13066.65	12207.35
807.2261	347.4976	13035.65	12175.45
807.3693	349.6955	13022	12158.1
807.5126	351.8927	13065	12201.35
807.6559	354.0895	13028.1	12154.5
807.7991	356.2856	13040.05	12170.35
807.9424	358.4812	12989.6	12124.95
808.0857	360.6763	13022.85	12151.95
808.2291	362.8707	13016.3	12146.95
808.3724	365.0646	13043.95	12170.1
808.5158	367.258	13042.85	12171
808.6591	369.4508	13111.2	12236.3
808.8025	371.643	13218.3	12338
808.9459	373.8346	13231.7	12349.05
809.0893	376.0257	13224.65	12345.4
809.2327	378.2162	13160.25	12282.85
809.3762	380.4062	13083.4	12204.65
809.5196	382.5956	12927.55	12054.6
809.6631	384.7844	12825	11957.75
809.8066	386.9726	12729.45	11863.15
809.9501	389.1603	12643	11777.5
810.0936	391.3474	12646.4	11745
810.2371	393.5339	12604.2	11732.65
810.3806	395.7199	12543.85	11670.2
810.5241	397.9052	12585.95	11717.75
810.6677	400.09	12586.25	11713.5
810.8113	402.2743	12693	11825.4
810.9548	404.4579	12792	11921.7
811.0984	406.641	12937.4	12064.2
811.2421	408.8235	13150.55	12274.85
811.3857	411.0054	13433.8	12555
811.5293	413.1868	13815.1	12934.5
811.673	415.3675	14095.6	13210.05
811.8166	417.5477	14259.7	13374.3
811.9603	419.7273	14267.1	13384.95
812.104	421.9064	14173	13284.2
812.2477	424.0848	14050.55	13163.3
812.3914	426.2627	13843.95	12957.65
812.5351	428.4399	13582.75	12697.5
812.6788	430.6166	13226.8	12335.05
812.8226	432.7928	12867.9	11973.45
812.9663	434.9683	12540.35	11652.3
813.1101	437.1432	12332.4	11443.05
813.2539	439.3176	12155.45	11273
813.3977	441.4914	12031.25	11151.65
813.5415	443.6645	12019.2	11138.9
813.6853	445.8371	11960.05	11071.95
813.8291	448.0091	11897.3	11009.35
813.973	450.1806	11881.5	10992.45
814.1168	452.3514	11868.9	10980.9
814.2607	454.5216	11874.35	10972.65
814.4046	456.6913	11802.65	10913.75
814.5485	458.8603	11878.85	10995.25
814.6924	461.0288	11906.35	11025.65
814.8363	463.1967	11901.8	11022.95
814.9802	465.3639	11998.5	11115.35
815.1241	467.5306	12079.95	11193.35
815.2681	469.6967	12201.7	11315.1
815.412	471.8622	12301.4	11417.65
815.556	474.0271	12458.5	11573.9
815.7	476.1914	12507.1	11614.65
815.844	478.3551	12497	11608.25
815.988	480.5182	12495.35	11608.85
816.132	482.6807	12508.7	11632
816.276	484.8426	12616.1	11744.5
816.4201	487.0039	12930.95	12052.3
816.5641	489.1647	13327.2	12436.65
816.7082	491.3248	13715.6	12822.65
816.8522	493.4843	13905.2	13019.6
816.9963	495.6432	13895.3	13012.95
817.1404	497.8015	13754.8	12859.75
817.2845	499.9592	13765.25	12861.2
817.4286	502.1163	13664.2	12764.55
817.5727	504.2728	13389.85	12498.45
817.7168	506.4287	13096	12213.65
817.861	508.5839	12669.75	11787.05
818.0051	510.7386	12403.4	11513.4
818.1493	512.8927	12235.25	11334.85
818.2935	515.0461	12129.7	11231
818.4377	517.199	12113.6	11214.85
818.5818	519.3512	12168.2	11263.85
818.726	521.5029	12279.5	11372.95
818.8703	523.6539	12373.35	11473.05
819.0145	525.8043	12473.65	11572.15
819.1587	527.9541	12439.7	11535.95
819.303	530.1033	12358.45	11455.95
819.4472	532.2519	12342.8	11441.55
819.5915	534.3999	12450.7	11547.4
819.7357	536.5472	12685.95	11788.55
819.88	538.694	13081.6	12187.1
820.0243	540.8401	13559.5	12658.15
820.1686	542.9856	14005.7	13095.8
820.3129	545.1305	14167.75	13250
820.4572	547.2748	14039.8	13118.6
820.6016	549.4185	13688.55	12772.55
820.7459	551.5615	13409	12492.35
820.8902	553.704	13304.85	12389.95
821.0346	555.8458	13277.45	12369.6
821.1789	557.987	13342.45	12436.7
821.3233	560.1276	13360.6	12451.5
821.4677	562.2675	13470.4	12557.25
821.6121	564.4069	13631.8	12719.45
821.7565	566.5456	13758.65	12847.6
821.9009	568.6837	13710.35	12799.2
822.0453	570.8212	13416.05	12510.1
822.1897	572.958	12974.9	12063.8
822.3342	575.0942	12635.3	11727.1
822.4786	577.2299	12357.85	11454.5
822.6231	579.3648	12283.1	11390.8
822.7675	581.4992	12317.3	11433.3
822.912	583.6329	12504.3	11624.75
823.0565	585.766	12726.55	11833.35
823.201	587.8985	12890	11998.45
823.3454	590.0304	12915	11991.15
823.4899	592.1616	12806.6	11896.05
823.6345	594.2922	12690.35	11776.95
823.779	596.4222	12561.45	11645.25
823.9235	598.5515	12360.7	11442.65
824.068	600.6802	12211	11295.5
824.2126	602.8083	12027.9	11116.9
824.3571	604.9358	11986.05	11069.95
824.5017	607.0626	11962.5	11045.3
824.6462	609.1888	11970.3	11044.35
824.7908	611.3144	11952.15	11031.3
824.9354	613.4393	11918.05	10996.2
825.08	615.5636	11844.25	10920.4
825.2246	617.6873	11782.85	10859.9
825.3692	619.8103	11741.65	10819.4
825.5138	621.9327	11589.05	10667.9
825.6584	624.0544	11535.45	10614.8
825.803	626.1756	11439.3	10521
825.9477	628.2961	11378.2	10456.3
826.0923	630.4159	11337.15	10415.55
826.237	632.5351	11311.4	10388.25
826.3816	634.6537	11263.1	10335.55
826.5263	636.7716	11237.4	10310.9
826.6709	638.8889	11224.85	10296.55
826.8156	641.0056	11241	10311.9
826.9603	643.1216	11249.45	10322.45
827.105	645.237	11278.25	10353.45
827.2497	647.3518	11227.1	10309.8
827.3944	649.4659	11225.5	10312.25
827.5391	651.5793	11188.5	10276.65
827.6838	653.6922	11199.3	10280.4
827.8285	655.8043	11186	10265.8
827.9733	657.9159	11185.25	10267.45
828.118	660.0268	11084	10162
828.2627	662.137	11075.55	10152.65
828.4075	664.2466	11043.5	10112.75
828.5522	666.3556	11040.1	10112.45
828.697	668.4639	11017	10092.85
828.8418	670.5716	11028.35	10110.4
828.9865	672.6786	11082.05	10152.6
829.1313	674.785	11113.45	10181.8
829.2761	676.8907	11186.75	10262.7
829.4209	678.9958	11228.85	10307.7
829.5657	681.1002	11216.55	10291.6
829.7105	683.204	11191.25	10254.7
829.8553	685.3072	11161.65	10225.2
830.0001	687.4097	11098.5	10170.05
830.1449	689.5115	11069.4	10137.1
830.2898	691.6127	11031.85	10104.75
830.4346	693.7132	10986.6	10061.45
830.5794	695.8131	10956.85	10013.85
830.7243	697.9123	10951.9	10012.75
830.8691	700.0109	10905.1	9965.8
831.014	702.1089	10908.25	9977.9
831.1588	704.2061	10917.85	9985.6
831.3037	706.3028	10990.4	10056.05
831.4486	708.3987	11031.3	10095.75
831.5935	710.4941	11083.15	10148.6
831.7383	712.5887	11215.45	10282.7
831.8832	714.6827	11427.45	10494.65
832.0281	716.7761	11767.85	10839.05
832.173	718.8688	12055.65	11121.55
832.3179	720.9608	12260.85	11320.6
832.4628	723.0522	12324.95	11380.2
832.6077	725.1429	12213.5	11275.75
832.7527	727.233	12017.85	11080.7
832.8976	729.3224	11861.55	10928.25
833.0425	731.4112	11605.6	10669.45
833.1874	733.4993	11442.15	10504.55
833.3324	735.5867	11242.95	10310.1
833.4773	737.6735	11140.45	10203.55
833.6222	739.7596	11051.25	10116.05
833.7672	741.845	10963.25	10029.2
833.9122	743.9298	10944.15	10004.15
834.0571	746.014	10926.6	9988.9
834.2021	748.0974	10962.35	10019.4
834.347	750.1802	10965	10020.2
834.492	752.2624	10975.9	10036
834.637	754.3439	11009.15	10064.3
834.782	756.4247	11093.5	10146.8
834.9269	758.5048	11230.25	10290.4
835.0719	760.5843	11451.45	10505.85
835.2169	762.6631	11815.1	10870.45
835.3619	764.7413	12326.4	11388.45
835.5069	766.8188	12927	11982.5
835.6519	768.8956	13400.9	12458.75
835.7969	770.9718	13689.75	12748.55
835.9419	773.0473	13584.15	12643.6
836.0869	775.1221	13287.05	12346.15
836.232	777.1962	12907.45	11966.15
836.377	779.2697	12739.7	11797.4
836.522	781.3426	12802.9	11851.8
836.667	783.4147	13008.5	12066.2
836.8121	785.4862	13277.35	12333.75
836.9571	787.557	13271.15	12324.95
837.1021	789.6271	12880.85	11932.85
837.2472	791.6966	12317.25	11376
837.3922	793.7654	11765.65	10820.65
837.5373	795.8335	11436.6	10494.1
837.6823	797.901	11198.65	10253.7
837.8274	799.9678	11128.2	10182.35
837.9724	802.0339	11098.2	10152.3
838.1175	804.0993	11097.05	10140.3
838.2626	806.1641	11078.05	10131.45
838.4076	808.2282	11033.75	10092.25
838.5527	810.2916	10939.5	9992.8
838.6978	812.3544	10861.9	9922.25
838.8428	814.4164	10793.65	9852.6
838.9879	816.4778	10787.2	9841
839.133	818.5385	10808.7	9859.75
839.2781	820.5986	10920.35	9971.7
839.4232	822.658	11050.85	10101.8
839.5682	824.7166	11220.6	10271.75
839.7133	826.7747	11501.1	10553.2
839.8584	828.832	11796.5	10846.75
840.0035	830.8886	12001.65	11046.6
840.1486	832.9446	12136.5	11184.95
840.2937	834.9999	12133.7	11180.55
840.4388	837.0545	12073.8	11122.1
840.5839	839.1085	11939.25	10991.25
840.729	841.1618	11862.3	10906.95
840.8741	843.2143	11781.9	10829.4
841.0192	845.2662	11658.4	10707.2
841.1643	847.3175	11581.05	10630.95
841.3095	849.368	11466.2	10512.5
841.4546	851.4179	11370.6	10417.6
841.5997	853.467	11234.95	10282.35
841.7448	855.5155	11144.05	10194.95
841.8899	857.5633	11078.95	10129.4
842.0351	859.6105	10972.7	10021.15
842.1802	861.6569	10907.6	9957.65
842.3253	863.7027	10854.95	9899.75
842.4704	865.7478	10820.7	9866.05
842.6156	867.7922	10817.9	9864.65
842.7607	869.8359	10826.2	9873
842.9058	871.8789	10931.5	9978.3
843.0509	873.9212	11095.8	10110.05
843.1961	875.9629	11206.35	10256.45
843.3412	878.0039	11388.25	10435.95
843.4863	880.0441	11466.55	10518.35
843.6315	882.0837	11490.05	10540.45
843.7766	884.1226	11429.1	10476.25
843.9218	886.1609	11387.25	10436.4
844.0669	888.1984	11325	10372.45
844.212	890.2352	11371.75	10421.65
844.3572	892.2714	11351.35	10392.6
844.5023	894.3069	11315.7	10364.7
844.6475	896.3416	11216.5	10261.65
844.7926	898.3757	11156.35	10202.7
844.9377	900.4091	11144.05	10190.5
845.0829	902.4418	11138.05	10177.3
845.228	904.4739	11145.05	10184.45
845.3732	906.5052	11157.65	10201.55
845.5183	908.5358	11068.95	10114
845.6635	910.5658	10970.35	10012.7
845.8086	912.595	10796.5	9841.8
845.9538	914.6236	10632.5	9674.85
846.0989	916.6515	10541.9	9585.9
846.2441	918.6786	10533.5	9574.7
846.3892	920.7051	10554.6	9594.7
846.5344	922.7309	10670.3	9717.1
846.6795	924.756	10713.6	9760.3
846.8246	926.7804	10781.75	9823.1
846.9698	928.8041	10759.7	9802.65
847.1149	930.8272	10826.2	9871.6
847.2601	932.8495	10767.15	9810.3
847.4052	934.8711	10730.25	9772.55
847.5504	936.892	10650.5	9696.8
847.6955	938.9123	10519	9562.7
847.8407	940.9318	10432.25	9479.55
847.9858	942.9506	10344.1	9389.85
848.131	944.9688	10258.1	9304.3
848.2761	946.9862	10187.7	9234.55
848.4213	949.003	10135.35	9180.85
848.5664	951.019	10112.35	9158.7
848.7115	953.0344	10116.9	9157.8
848.8567	955.0491	10129.7	9171.2
849.0018	957.063	10220.1	9265.25
849.147	959.0763	10298.3	9342.5
849.2921	961.0888	10365.35	9409.4
849.4373	963.1007	10434.85	9481.45
849.5824	965.1119	10466.15	9524.4
849.7275	967.1223	10494.5	9555
849.8727	969.1321	10500.75	9566.4
850.0178	971.1412	10532.5	9587.6
850.1629	973.1495	10542.15	9592.55
850.3081	975.1572	10624.05	9626.05
850.4532	977.1641	10606.6	9649.65
850.5983	979.1704	10613.25	9657.1
850.7435	981.1759	10567.15	9610
850.8886	983.1808	10625.75	9667.65
851.0337	985.1849	10684.2	9719.5
851.1788	987.1884	10805.1	9847.8
851.324	989.1911	10957.4	10001.65
851.4691	991.1932	11116.75	10165.95
851.6142	993.1945	11137.5	10183.5
851.7593	995.1951	11119.7	10165.2
851.9045	997.1951	11074.7	10114.85
852.0496	999.1943	11015.45	10058.25
852.1947	1001.1928	10990.9	10034.4
852.3398	1003.1906	10995.3	10039.75
852.4849	1005.1877	11062.75	10105.3
852.63	1007.1841	11093.35	10141.1
852.7751	1009.1798	11057.4	10104.6
852.9202	1011.1748	10911.95	9959.8
853.0653	1013.1691	10725.9	9768.75
853.2104	1015.1627	10519.55	9565
853.3555	1017.1556	10301.2	9351.15
853.5006	1019.1477	10216	9264.95
853.6457	1021.1392	10117.4	9173.5
853.7908	1023.1299	10127.95	9182.15
853.9359	1025.12	10129.3	9191.7
854.081	1027.1093	10210.1	9286.1
854.2261	1029.0979	10273.65	9354.45
854.3712	1031.0859	10368.35	9442.45
854.5163	1033.0731	10378.5	9440.55
854.6613	1035.0596	10325.8	9378.05
854.8064	1037.0454	10184.85	9236.7
854.9515	1039.0304	10104.1	9154.95
855.0965	1041.0148	9978.8	9029.35
855.2416	1042.9985	9886.55	8933.6
855.3867	1044.9814	9864.85	8912.95
855.5317	1046.9636	9819.7	8866.9
855.6768	1048.9452	9806.3	8859.6
855.8219	1050.926	9803.5	8851
855.9669	1052.9061	9841.7	8889.9
856.112	1054.8855	9843.75	8887.45
856.257	1056.8642	9886.3	8937.15
856.4021	1058.8421	9955.7	8996.55
856.5471	1060.8194	9960.45	9008.35
856.6921	1062.7959	10004.25	9045.55
856.8372	1064.7717	10022	9067.95
856.9822	1066.7469	10082.05	9132
857.1272	1068.7213	10093.75	9138.85
857.2723	1070.695	10101.05	9148.9
857.4173	1072.6679	10081.7	9127.95
857.5623	1074.6402	10048.25	9094.55
857.7073	1076.6117	10026.95	9066.4
857.8523	1078.5826	9970.55	9014.9
857.9973	1080.5527	9970.8	9012.9
858.1423	1082.5221	10019.35	9066.15
858.2873	1084.4908	10154.95	9204.5
858.4323	1086.4587	10310.65	9357.7
858.5773	1088.426	10400.5	9447.55
858.7223	1090.3925	10419.8	9462.7
858.8673	1092.3584	10402.9	9450.9
859.0123	1094.3235	10319.15	9370.75
859.1573	1096.2879	10279.5	9329.1
859.3022	1098.2515	10308.6	9354.9
859.4472	1100.2145	10405.95	9454.65
859.5922	1102.1767	10508.7	9557.2
859.7371	1104.1382	10683.1	9731.4
859.8821	1106.099	10920.55	9967.95
860.027	1108.0591	11143.15	10192.3
860.172	1110.0185	11267.7	10314.2
860.3169	1111.9771	11317	10366.5
860.4619	1113.9351	11154.9	10202.05
860.6068	1115.8923	10900.2	9951.35
860.7517	1117.8488	10629.95	9679
860.8967	1119.8045	10421.35	9474.75
861.0416	1121.7596	10291.9	9343.45
861.1865	1123.7139	10209.25	9255.95
861.3314	1125.6675	10224.6	9275.5
861.4763	1127.6204	10272.25	9323.6
861.6212	1129.5726	10260.3	9306.1
861.7661	1131.524	10210.8	9256.95
861.911	1133.4748	10156.5	9204.95
862.0559	1135.4248	10110.6	9159.2
862.2008	1137.3741	10071.5	9121.55
862.3457	1139.3226	9977.85	9025.05
862.4905	1141.2705	9944.9	8989.95
862.6354	1143.2176	9848.4	8893
862.7803	1145.164	9855.2	8897.55
862.9251	1147.1097	9860.95	8909.95
863.07	1149.0546	9828.45	8879.9
863.2148	1150.9989	9738.9	8791.5
863.3597	1152.9424	9603.75	8651.65
863.5045	1154.8852	9481.6	8531.45
863.6493	1156.8272	9374.4	8424
863.7942	1158.7686	9374.15	8416.6
863.939	1160.7092	9339.3	8384.3
864.0838	1162.6491	9343.4	8391.95
864.2286	1164.5883	9440.35	8489.35
864.3734	1166.5267	9491	8540.6
864.5182	1168.4644	9637.1	8688.35
864.663	1170.4014	9872.1	8921.55
864.8078	1172.3377	10094.2	9146.8
864.9526	1174.2732	10339.1	9390.95
865.0974	1176.2081	10645.15	9697.3
865.2421	1178.1421	10936.8	9984.55
865.3869	1180.0755	11251.55	10301.2
865.5317	1182.0082	11420.85	10472.85
865.6764	1183.9401	11485.75	10537.4
865.8212	1185.8713	11344.45	10404.25
865.9659	1187.8017	11091.6	10157.3
866.1106	1189.7315	10803.7	9878.65
866.2554	1191.6605	10502.55	9578.65
866.4001	1193.5888	10271.15	9338.3
866.5448	1195.5163	10186.8	9243.8
866.6895	1197.4432	10124.2	9180.55
866.8342	1199.3693	10072.35	9130.15
866.9789	1201.2947	10037.7	9090.15
867.1236	1203.2193	10003.05	9055.35
867.2683	1205.1432	10046.3	9098.45
867.413	1207.0664	10030.35	9083.8
867.5576	1208.9889	10103.5	9158.6
867.7023	1210.9106	10081.8	9137.05
867.847	1212.8316	10103.2	9159.3
867.9916	1214.7519	10175.25	9221.55
868.1363	1216.6715	10195.35	9248.1
868.2809	1218.5903	10243.4	9294.75
868.4255	1220.5084	10234.2	9286.25
868.5701	1222.4257	10244.4	9298
868.7148	1224.3424	10228.95	9290.75
868.8594	1226.2583	10288.7	9342.6
869.004	1228.1735	10387.15	9444.3
869.1486	1230.0879	10529.55	9583.6
869.2932	1232.0016	10653.45	9708.2
869.4377	1233.9146	10694.65	9748.05
869.5823	1235.8269	10642.4	9696.05
869.7269	1237.7384	10525.35	9582.75
869.8715	1239.6492	10349.85	9405.25
870.016	1241.5592	10279.75	9332.5
870.1606	1243.4686	10242.75	9298.4
870.3051	1245.3772	10237.4	9294.85
870.4496	1247.285	10286.7	9341.95
870.5941	1249.1922	10331.1	9383.95
870.7387	1251.0986	10331.4	9389.4
870.8832	1253.0042	10371.95	9427.6
871.0277	1254.9092	10401.75	9456.1
871.1722	1256.8134	10521.7	9580.95
871.3167	1258.7169	10626.65	9682.25
871.4611	1260.6196	10789.6	9847.2
871.6056	1262.5216	11031	10086.95
871.7501	1264.4229	11210.15	10269.85
871.8945	1266.3234	11373.55	10430.85
872.039	1268.2232	11443.3	10496.6
872.1834	1270.1223	11460.65	10518.25
872.3278	1272.0207	11465.3	10521.8
872.4723	1273.9183	11426.75	10477.25
872.6167	1275.8151	11397	10453.7
872.7611	1277.7113	11336.25	10394.15
872.9055	1279.6067	11249.55	10308.75
873.0499	1281.5014	11256	10308.3
873.1943	1283.3953	11305.65	10360.25
873.3386	1285.2885	11426.9	10483.15
873.483	1287.181	11568.15	10625.45
873.6274	1289.0727	11744.25	10802.85
873.7717	1290.9637	11877.4	10933.45
873.9161	1292.854	12038.95	11092.9
874.0604	1294.7435	12112.2	11170.85
874.2047	1296.6323	12243.9	11296.25
874.349	1298.5204	12377.95	11434.35
874.4933	1300.4077	12498.9	11554.9
874.6376	1302.2943	12541.05	11599.55
874.7819	1304.1802	12511.95	11572.05
874.9262	1306.0653	12327.65	11382.1
875.0705	1307.9497	12076.1	11134.3
875.2147	1309.8333	11844.95	10902.5
875.359	1311.7162	11674.15	10730.7
875.5032	1313.5984	11669.65	10725.9
875.6475	1315.4798	11641.2	10697.85
875.7917	1317.3605	11704	10746.05
875.9359	1319.2405	11711.25	10767.4
876.0801	1321.1197	11608.15	10663
876.2243	1322.9982	11437.65	10492.6
876.3685	1324.876	11321.55	10381.6
876.5127	1326.753	11169.8	10228.35
876.6569	1328.6293	11124.85	10184.2
876.801	1330.5048	11069.15	10125.65
876.9452	1332.3796	11023.7	10082.45
877.0893	1334.2537	10985.5	10020
877.2335	1336.127	10916.5	9974.45
877.3776	1337.9996	10898.1	9956.55
877.5217	1339.8714	10888.05	9947.25
877.6658	1341.7426	10902.45	9914.4
877.8099	1343.6129	10874.05	9930.75
877.954	1345.4826	10854.75	9909.4
878.0981	1347.3515	10809.4	9861.65
878.2422	1349.2196	10769.2	9824.15
878.3862	1351.087	10796.05	9851.9
878.5303	1352.9537	10844.9	9901.8
878.6743	1354.8197	10953.2	10008.1
878.8184	1356.6849	11108.2	10161.85
878.9624	1358.5493	11232.7	10289.05
879.1064	1360.4131	11321.8	10382.55
879.2504	1362.276	11334.7	10393.65
879.3944	1364.1383	11222.6	10280.15
879.5384	1365.9998	11031.7	10083
879.6823	1367.8606	10681.2	9737.45
879.8263	1369.7206	10364.5	9419.55
879.9702	1371.5799	10128.7	9182.25
880.1142	1373.4384	9908.4	8965.6
880.2581	1375.2962	9742.85	8802.85
880.402	1377.1533	9500.55	8559.05
880.5459	1379.0096	9165.15	8226.55
880.6898	1380.8652	8881.55	7942.8
880.8337	1382.7201	8609.3	7671.15
880.9776	1384.5742	8375.75	7437.3
881.1215	1386.4275	8215.65	7275.2
881.2653	1388.2802	8076.85	7132.55
881.4092	1390.132	7967.1	7024.5
881.553	1391.9832	7912.35	6967.3
881.6968	1393.8336	7830.5	6888.15
881.8406	1395.6832	7797.95	6853.4
881.9844	1397.5322	7755.45	6812.95
882.1282	1399.3803	7756.15	6809.55
882.272	1401.2278	7700.55	6760
882.4158	1403.0745	7723.9	6783.2
882.5595	1404.9204	7707.5	6767.9
882.7033	1406.7656	7733.85	6794.85
882.847	1408.6101	7754.15	6814.35
882.9908	1410.4538	7787.45	6844.95
883.1345	1412.2968	7830.15	6891.8
883.2782	1414.139	7879.9	6943.05
883.4219	1415.9805	7979.8	7038.2
883.5656	1417.8213	8052.9	7105.1
883.7092	1419.6613	8159.7	7220.65
883.8529	1421.5006	8352.6	7415.7
883.9965	1423.3391	8568.75	7630.95
884.1402	1425.1769	8887.6	7943.8
884.2838	1427.0139	9364.95	8424.45
884.4274	1428.8502	9897.95	8958.85
884.571	1430.6858	10487.3	9544.9
884.7146	1432.5206	10869.6	9932.2
884.8582	1434.3547	11113.85	10176.05
885.0018	1436.188	11132.65	10193.8
885.1453	1438.0206	11067.4	10128.4
885.2889	1439.8524	10887.45	9945.95
885.4324	1441.6835	10807.9	9870.25
885.5759	1443.5139	10710.1	9769.2
885.7194	1445.3435	10624.4	9682.05
885.8629	1447.1724	10580.9	9643.7
886.0064	1449.0005	10521.35	9585.55
886.1499	1450.8279	10421.5	9482.7
886.2933	1452.6545	10404.65	9467.9
886.4368	1454.4804	10407.1	9472
886.5802	1456.3056	10395.8	9454.25
886.7237	1458.13	10315.85	9380.7
886.8671	1459.9536	10127.35	9191.65
887.0105	1461.7766	9804.2	8866.1
887.1539	1463.5987	9438	8497.6
887.2972	1465.4202	9060.95	8121.45
887.4406	1467.2409	8716.75	7775.6
887.584	1469.0608	8439.5	7501.6
887.7273	1470.88	8186.1	7247.3
887.8706	1472.6984	7953.9	7016.55
888.0139	1474.5161	7753.75	6814.35
888.1572	1476.3331	7618.45	6680.45
888.3005	1478.1493	7482.65	6545.8
888.4438	1479.9648	7369.3	6434.05
888.5871	1481.7795	7297.95	6360.35
888.7303	1483.5935	7243.05	6308.9
888.8736	1485.4067	7176.3	6239.95
889.0168	1487.2192	7131.4	6190.7
889.16	1489.031	7089.15	6148.4
889.3032	1490.842	7052.25	6119.05
889.4464	1492.6522	7013.85	6076.7
889.5896	1494.4618	6967.7	6030.75
889.7327	1496.2705	6954.15	6018.35
889.8759	1498.0785	6920.55	5983.45
890.019	1499.8858	6897.3	5962.9
890.1622	1501.6924	6857.4	5924.6
890.3053	1503.4981	6824.55	5891.8
890.4484	1505.3032	6800.4	5864.05
890.5914	1507.1075	6753.75	5817.85
890.7345	1508.911	6711.55	5776
890.8776	1510.7138	6674.65	5739.1
891.0206	1512.5159	6643.8	5709.2
891.1637	1514.3172	6608.95	5674.65
891.3067	1516.1178	6564.85	5632.5
891.4497	1517.9176	6536.85	5597.5
891.5927	1519.7166	6511.8	5578.5
891.7357	1521.515	6488.45	5547.8
891.8786	1523.3126	6453.95	5518.4
892.0216	1525.1094	6442.6	5507.65
892.1645	1526.9055	6403.25	5471.7
892.3074	1528.7008	6384.05	5450.35
892.4503	1530.4954	6340.65	5408.55
892.5932	1532.2893	6335.2	5406.2
892.7361	1534.0824	6314.25	5379.5
892.879	1535.8747	6305.6	5378.65
893.0218	1537.6663	6287.7	5358.45
893.1647	1539.4572	6285.05	5356.8
893.3075	1541.2473	6282.6	5350.95
893.4503	1543.0367	6287.7	5359.2
893.5931	1544.8253	6271.05	5336.1
893.7359	1546.6132	6312.6	5379.15
893.8787	1548.4003	6300.55	5361.25
894.0214	1550.1867	6348.3	5409.2
894.1642	1551.9723	6375	5443.75
894.3069	1553.7572	6418.35	5488.8
894.4496	1555.5414	6493.35	5568.45
894.5923	1557.3247	6555.9	5629.85
894.735	1559.1074	6639.3	5716.65
894.8777	1560.8893	6755.85	5831.6
895.0204	1562.6705	6859.8	5935.6
895.163	1564.4509	6918	5996.35
895.3056	1566.2305	7007.9	6090.75
895.4482	1568.0094	7054.25	6133.95
895.5908	1569.7876	7084.05	6162
895.7334	1571.565	7081.25	6159.25
895.876	1573.3417	7083.7	6162.95
896.0186	1575.1176	7095.15	6172.9
896.1611	1576.8928	7050.05	6133.05
896.3036	1578.6672	6986.75	6073.95
896.4461	1580.4409	6920.8	6009.1
896.5886	1582.2138	6836.25	5921.5
896.7311	1583.986	6779.15	5858.85
896.8736	1585.7575	6737.1	5818.9
897.0161	1587.5282	6730.7	5813.35
897.1585	1589.2981	6751.55	5840.5
897.3009	1591.0673	6731.35	5818.15
897.4433	1592.8358	6759.75	5845.75
897.5857	1594.6035	6802.45	5881.1
897.7281	1596.3704	6837.25	5918.95
897.8705	1598.1366	6891.25	5976.4
898.0128	1599.9021	6973.75	6060.35
898.1551	1601.6668	7026	6110.95
898.2975	1603.4308	7126.5	6207.45
898.4398	1605.194	7253	6335.45
898.5821	1606.9564	7402.75	6493.8
898.7243	1608.7182	7598.8	6691.2
898.8666	1610.4791	7762.95	6862.5
899.0088	1612.2394	7990.5	7090.1
899.1511	1613.9988	8181.85	7279.5
899.2933	1615.7576	8387.9	7477.15
899.4355	1617.5156	8623.45	7702
899.5776	1619.2728	8761.75	7846.45
899.7198	1621.0293	8853.6	7938.6
899.862	1622.785	8816.75	7905.25
900.0041	1624.54	8653.75	7741
900.1462	1626.2942	8453.15	7543.75
900.2883	1628.0477	8217.15	7305.85
900.4304	1629.8005	7966.65	7053.5
900.5725	1631.5525	7753.05	6841.8
900.7145	1633.3037	7538.75	6630.8
900.8566	1635.0542	7392.2	6483.45
900.9986	1636.804	7284.9	6377.95
901.1406	1638.553	7284.85	6315
901.2826	1640.3013	7223.65	6313.8
901.4245	1642.0488	7195.25	6283.85
901.5665	1643.7955	7201.95	6295.45
901.7085	1645.5416	7267.25	6362.3
901.8504	1647.2868	7380.2	6471.9
901.9923	1649.0313	7466.25	6555.45
902.1342	1650.7751	7626.15	6713.25
902.2761	1652.5181	7813.4	6905.9
902.4179	1654.2604	7977.85	7074.55
902.5598	1656.0019	8231.25	7323.55
902.7016	1657.7427	8524.8	7617.35
902.8434	1659.4828	8804.65	7897.5
902.9852	1661.222	8988	8076.85
903.127	1662.9606	8951.4	8039.4
903.2687	1664.6984	8724.6	7815.45
903.4105	1666.4354	8318.35	7402.15
903.5522	1668.1717	7827.15	6914.55
903.6939	1669.9072	7296	6383.95
903.8356	1671.642	6833.6	5916.95
903.9773	1673.3761	6467.2	5556.75
904.119	1675.1094	6201.85	5294.3
904.2606	1676.8419	5955.6	5046
904.4022	1678.5737	5793.95	4884.6
904.5439	1680.3048	5657.35	4746.2
904.6855	1682.0351	5541.25	4633.9
904.827	1683.7646	5437.1	4525.7
904.9686	1685.4934	5377.05	4469.35
905.1101	1687.2215	5306.15	4395.6
905.2517	1688.9488	5223.55	4318.45
905.3932	1690.6754	5197.2	4288.05
905.5347	1692.4012	5160.2	4249.95
905.6761	1694.1263	5145.25	4235.4
905.8176	1695.8506	5103.85	4195.7
905.9591	1697.5742	5075.6	4172.25
906.1005	1699.297	5018.5	4116.1
906.2419	1701.0191	4988.6	4085.85
906.3833	1702.7404	4950.75	4049.25
906.5246	1704.461	4932.3	4027.15
906.666	1706.1808	4908.5	4000.1
906.8073	1707.8999	4892.65	3987.85
906.9487	1709.6182	4854.4	3952.45
907.09	1711.3358	4838.25	3941.4
907.2313	1713.0527	4802.9	3904.7
907.3725	1714.7688	4789.2	3885.2
907.5138	1716.4841	4776.7	3870.95
907.655	1718.1987	4756.65	3848.3
907.7962	1719.9126	4735.75	3834.9
907.9374	1721.6257	4719.5	3818.85
908.0786	1723.338	4704.1	3805.8
908.2198	1725.0496	4663.8	3764.2
908.3609	1726.7605	4671.6	3766.95
908.502	1728.4706	4654.05	3751.65
908.6431	1730.18	4643.1	3741.25
908.7842	1731.8886	4617.2	3718.05
908.9253	1733.5964	4616.5	3697.8
909.0664	1735.3036	4608.65	3706.1
909.2074	1737.0099	4565.75	3666.35
909.3484	1738.7156	4566.15	3667.9
909.4894	1740.4204	4530.5	3627.65
909.6304	1742.1246	4525.7	3622.35
909.7714	1743.8279	4496.8	3597.9
909.9123	1745.5306	4488.45	3590.15
910.0532	1747.2325	4474.1	3576.8
910.1941	1748.9336	4445.9	3544.3
910.335	1750.634	4425.4	3522.55
910.4759	1752.3336	4402.9	3504.3
910.6168	1754.0325	4417.1	3520.3
910.7576	1755.7307	4402.3	3505.4
910.8984	1757.4281	4397.75	3497.8
911.0392	1759.1247	4392.3	3483.4
911.18	1760.8206	4374.05	3463.7
911.3208	1762.5158	4361.4	3455.2
911.4615	1764.2102	4348.2	3449.25
911.6022	1765.9039	4340.3	3444.2
911.7429	1767.5968	4317.35	3423.25
911.8836	1769.289	4293.7	3395.4
912.0243	1770.9804	4286.9	3385.45
912.1649	1772.6711	4282.15	3379.5
912.3056	1774.361	4281.65	3377
912.4462	1776.0502	4286.95	3382.55
912.5868	1777.7386	4266.55	3361.9
912.7274	1779.4263	4253.9	3355
912.8679	1781.1132	4251.35	3357.95
913.0084	1782.7994	4218.85	3320.4
913.149	1784.4849	4226.9	3333.65
913.2895	1786.1696	4233.3	3317.5
913.4299	1787.8535	4203.65	3308.6
913.5704	1789.5367	4197.65	3303
913.7108	1791.2192	4185.35	3289.65
913.8513	1792.9009	4197.8	3274.95
913.9917	1794.5818	4189.15	3288.75
914.132	1796.2621	4163.9	3262.8
914.2724	1797.9415	4156.3	3255.55
914.4128	1799.6202	4139.2	3239.65
914.5531	1801.2982	4149.5	3251.45
914.6934	1802.9755	4127.95	3228.75
914.8337	1804.6519	4129.55	3226.75
914.9739	1806.3277	4098.75	3201.5
915.1142	1808.0027	4088.8	3196.2
915.2544	1809.6769	4096.25	3203
915.3946	1811.3504	4074.75	3182.75
915.5348	1813.0231	4067.35	3172.4
915.675	1814.6951	4063.55	3167.95
915.8151	1816.3664	4071	3171.75
915.9553	1818.0369	4049.6	3149.35
916.0954	1819.7067	4042.3	3143.7
916.2355	1821.3757	4040.15	3140.4
916.3755	1823.044	4044.6	3143.25
916.5156	1824.7115	4029	3128.45
916.6556	1826.3783	3991.8	3093.8
916.7956	1828.0443	4003.4	3106.65
916.9356	1829.7096	3996.1	3097.5
917.0756	1831.3741	4002.7	3103.15
917.2155	1833.0379	3974.3	3078.05
917.3555	1834.701	3943.45	3049.1
917.4954	1836.3633	3963.25	3070.4
917.6353	1838.0248	3949.15	3052.8
917.7751	1839.6856	3951.9	3057.15
917.915	1841.3457	3942.85	3045.35
918.0548	1843.005	3940.15	3040.65
918.1946	1844.6636	3940.1	3042.65
918.3344	1846.3214	3928.55	3032.55
918.4742	1847.9785	3917.05	3020.2
918.6139	1849.6349	3918.6	3016.6
918.7537	1851.2904	3912.35	3002.35
918.8934	1852.9453	3892.05	2991.95
919.0331	1854.5994	3886.4	2983
919.1727	1856.2528	3907.05	3002.3
919.3124	1857.9054	3886.1	2986.95
919.452	1859.5572	3877.3	2979.85
919.5916	1861.2083	3866.05	2968.9
919.7312	1862.8587	3877.1	2979.45
919.8708	1864.5084	3866.65	2968.7
920.0103	1866.1572	3843.85	2945.65
920.1498	1867.8054	3828.15	2925.65
920.2893	1869.4528	3822.15	2919.25
920.4288	1871.0994	3806.95	2906.95
920.5683	1872.7453	3813.65	2913.55
920.7077	1874.3905	3816.55	2903.4
920.8471	1876.0349	3794.75	2897.25
920.9865	1877.6786	3794.2	2896.15
921.1259	1879.3215	3781.9	2883.1
921.2653	1880.9637	3767.8	2867.65
921.4046	1882.6051	3785.15	2887.25
921.5439	1884.2458	3755.9	2857.2
921.6832	1885.8858	3736.9	2838.1
921.8225	1887.525	3745.25	2845.9
921.9617	1889.1634	3730.65	2834.3
922.101	1890.8011	3714.3	2816
922.2402	1892.4381	3721.45	2825
922.3794	1894.0743	3709.15	2811.6
922.5185	1895.7098	3695.7	2796.45
922.6577	1897.3446	3708.55	2808.75
922.7968	1898.9786	3700.25	2798.65
922.9359	1900.6118	3676.4	2780.5
923.075	1902.2443	3663.3	2766.9
923.214	1903.8761	3657.8	2762.15
923.3531	1905.5071	3657.05	2758.8
923.4921	1907.1374	3643.5	2745.8
923.6311	1908.7669	3623.5	2727.9
923.77	1910.3957	3635.55	2741.55
923.909	1912.0237	3617.6	2721.6
924.0479	1913.651	3609.3	2710.4
924.1868	1915.2776	3602.5	2704.9
924.3257	1916.9034	3584.6	2689.85
924.4646	1918.5285	3574.8	2680.3
924.6034	1920.1528	3558	2662.5
924.7422	1921.7764	3553.1	2657.95
924.881	1923.3992	3554.05	2658.15
925.0198	1925.0213	3529.7	2632.2
925.1586	1926.6427	3522.15	2626.55
925.2973	1928.2633	3687.9	2586.9
925.436	1929.8832	3537.05	2635.15
925.5747	1931.5023	3505.75	2610.65
925.7134	1933.1207	3499.95	2603.6
925.852	1934.7383	3492.7	2596.45
925.9906	1936.3552	3480	2586.25
926.1292	1937.9714	3457.15	2560.4
926.2678	1939.5868	3450	2551.05
926.4064	1941.2015	3442	2542.75
926.5449	1942.8154	3433.65	2536.95
926.6834	1944.4286	3431	2536
926.8219	1946.041	3441.75	2526.9
926.9604	1947.6528	3408.5	2508
927.0988	1949.2637	3390.4	2492.55
927.2372	1950.8739	3383.9	2488.2
927.3756	1952.4834	3386.3	2489.5
927.514	1954.0921	3371.2	2476.4
927.6523	1955.7001	3350.95	2453
927.7907	1957.3074	3359.25	2467.9
927.929	1958.9139	3345.15	2452.65
928.0673	1960.5197	3335.65	2442.7
928.2055	1962.1247	3325.2	2430.9
928.3438	1963.729	3310.85	2418.25
928.482	1965.3325	3310.5	2412
928.6202	1966.9353	3298.65	2405.35
928.7584	1968.5374	3282.3	2390.45
928.8965	1970.1387	3277.8	2383.45
929.0346	1971.7393	3262.35	2369.5
929.1727	1973.3392	3266	2374.25
929.3108	1974.9383	3255.85	2364.1
929.4489	1976.5366	3239.45	2349.1
929.5869	1978.1342	3236.25	2347.45
929.7249	1979.7311	3238.2	2346.75
929.8629	1981.3273	3223.6	2334.05
930.0009	1982.9227	3219.8	2329.1
930.1388	1984.5173	3203.6	2314.3
930.2767	1986.1112	3199.25	2310.3
930.4146	1987.7044	3185.15	2296.55
930.5525	1989.2968	3189.95	2298.1
930.6904	1990.8885	3187.15	2293.4
930.8282	1992.4795	3175.25	2284.65
930.966	1994.0697	3169.8	2281.75
931.1038	1995.6592	3162.05	2274.45
931.2415	1997.2479	3141.4	2251.5
931.3793	1998.8359	3147.2	2257.85
931.517	2000.4232	3122.05	2237.45
931.6547	2002.0097	3112.8	2231.7
931.7923	2003.5955	3103.85	2215.55
931.93	2005.1805	3108.75	2221.75
932.0676	2006.7648	3103.05	2217.3
932.2052	2008.3484	3095.5	2209.95
932.3427	2009.9312	3094.95	2209.1
932.4803	2011.5133	3077.25	2192.85
932.6178	2013.0946	3080.35	2197.55
932.7553	2014.6752	3066.85	2181
932.8928	2016.2551	3066.85	2182.15
933.0302	2017.8342	3058.4	2170.35
933.1676	2019.4126	3048.4	2165.1
933.305	2020.9902	3037.95	2153.65
933.4424	2022.5672	3040.25	2155.95
933.5798	2024.1433	3047.1	2160.2
933.7171	2025.7188	3029.95	2148.5
933.8544	2027.2935	3016	2132.35
933.9917	2028.8674	3014.15	2133.05
934.129	2030.4406	3011.3	2130.3
934.2662	2032.0131	2979.8	2098.6
934.4034	2033.5849	2993.4	2109.8
934.5406	2035.1559	2986.95	2104.7
934.6778	2036.7261	2982.5	2096
934.8149	2038.2957	2985.55	2096.45
934.952	2039.8645	2975.85	2089.45
935.0891	2041.4325	2968.55	2075.75
935.2262	2042.9998	2963.3	2077.55
935.3632	2044.5664	2950.45	2064.5
935.5002	2046.1323	2945.25	2062.15
935.6372	2047.6974	2932.4	2049.5
935.7742	2049.2617	2949.1	2066.9
935.9111	2050.8254	2961.55	2040.9
936.048	2052.3883	2938.7	2052.2
936.1849	2053.9504	2936	2045.85
936.3218	2055.5118	2926.15	2038.05
936.4586	2057.0725	2914.8	2024.1
936.5955	2058.6325	2909.15	2023.2
936.7323	2060.1917	2897.35	2011.35
936.869	2061.7502	2901.8	2013.35
937.0058	2063.3079	2882.35	1999
937.1425	2064.8649	2885.8	1997
937.2792	2066.4212	2865.5	1979.8
937.4159	2067.9767	2883.85	1996.05
937.5525	2069.5315	2857.7	1972.2
937.6891	2071.0856	2848.2	1962.35
937.8257	2072.6389	2844.85	1960.35
937.9623	2074.1915	2834.8	1952.45
938.0989	2075.7433	2813.7	1929.1
938.2354	2077.2945	2823.85	1938.3
938.3719	2078.8448	2824.85	1936.25
938.5084	2080.3945	2808.45	1920.4
938.6448	2081.9434	2814.7	1924.75
938.7812	2083.4916	2815.15	1925.4
938.9176	2085.039	2811.1	1917.5
939.054	2086.5857	2808.85	1911.15
939.1903	2088.1317	2800.3	1905.45
939.3267	2089.677	2785.4	1888.15
939.463	2091.2215	2778.5	1886.15
939.5992	2092.7652	2767.65	1871.5
939.7355	2094.3083	2774.3	1877.7
939.8717	2095.8506	2774.15	1883.4
940.0079	2097.3921	2756.2	1868.8
940.1441	2098.933	2753.15	1862.35
940.2802	2100.4731	2752.8	1860.9
940.4163	2102.0124	2757.9	1856.05
940.5524	2103.5511	2752.85	1861.1
940.6885	2105.089	2733.3	1841.7
940.8245	2106.6261	2732.2	1840.2
940.9606	2108.1626	2737.4	1846.05
941.0965	2109.6983	2743.85	1824.65
941.2325	2111.2332	2715.95	1826.25
941.3684	2112.7675	2731.05	1838.4
941.5044	2114.301	2717.75	1823.35
941.6403	2115.8337	2712.7	1820.5
941.7761	2117.3657	2696.05	1804.3
941.912	2118.897	2702.65	1808.85
942.0478	2120.4276	2697.55	1799.15
942.1835	2121.9575	2678	1784.75
942.3193	2123.4866	2685.4	1790.5
942.455	2125.0149	2682.85	1785.9
942.5907	2126.5426	2670.55	1781.45
942.7264	2128.0695	2662.35	1773.05
942.8621	2129.5956	2662.15	1777.6
942.9977	2131.1211	2646.9	1754.9
943.1333	2132.6458	2655.7	1764.7
943.2689	2134.1698	2650.7	1756.35
943.4044	2135.693	2641.95	1745.3
943.54	2137.2155	2632.65	1734.4
943.6755	2138.7373	2640.1	1748.45
943.8109	2140.2584	2620.05	1731.95
943.9464	2141.7787	2619.1	1728.6
944.0818	2143.2983	2604.4	1721.2
944.2172	2144.8171	2591.8	1707.45
944.3526	2146.3353	2587.9	1699.15
944.4879	2147.8527	2595.95	1707.15
944.6232	2149.3693	2599.75	1708.1
944.7585	2150.8853	2599.05	1704.65
944.8938	2152.4005	2583.8	1690.25
945.029	2153.9149	2577.6	1685.7
945.1642	2155.4287	2575.7	1681.55
945.2994	2156.9417	2577.65	1684.95
945.4346	2158.454	2564.85	1674.75
945.5697	2159.9655	2559.45	1671.4
945.7048	2161.4764	2553.45	1665.7
945.8399	2162.9865	2543.8	1654.4
945.9749	2164.4958	2537.85	1649.05
946.1099	2166.0045	2537	1647.5
946.2449	2167.5124	2543.5	1654.25
946.3799	2169.0195	2534.55	1643.45
946.5148	2170.526	2541	1647.85
946.6498	2172.0317	2528.9	1637.95
946.7846	2173.5367	2516.75	1623.15
946.9195	2175.0409	2515.7	1623.5
947.0543	2176.5445	2500.4	1606.55
947.1891	2178.0473	2500.55	1605.5
947.3239	2179.5494	2505	1607.85
947.4587	2181.0507	2499.45	1608.35
947.5934	2182.5513	2490	1597.35
947.7281	2184.0512	2491.7	1599.65
947.8628	2185.5504	2494.2	1603.05
947.9974	2187.0488	2479.15	1590
948.132	2188.5465	2472.3	1582
948.2666	2190.0435	2479.05	1587
948.4012	2191.5397	2465.2	1571.95
948.5357	2193.0353	2458.15	1566.9
948.6702	2194.5301	2454.85	1557.45
948.8047	2196.0241	2441.3	1544.2
948.9392	2197.5175	2442.85	1546.05
949.0736	2199.0101	2431.95	1530.85
949.208	2200.502	2430.45	1537.4
949.3424	2201.9931	2427.9	1536.9
949.4767	2203.4835	2429.8	1541.65
949.611	2204.9733	2414.4	1520.15
949.7453	2206.4622	2412	1524.05
949.8796	2207.9505	2396	1505.9
950.0138	2209.438	2395.55	1509.7
950.148	2210.9248	2397.25	1506.9
950.2822	2212.4109	2387.3	1498.25
950.4164	2213.8962	2389.9	1491.35
950.5505	2215.3809	2383	1485.2
950.6846	2216.8648	2377.85	1479.85
950.8186	2218.3479	2386.1	1484.05
950.9527	2219.8304	2382.9	1483.9
951.0867	2221.3121	2369.95	1472.75
951.2207	2222.7931	2363.65	1467.1
951.3546	2224.2733	2353.1	1457.6
951.4886	2225.7529	2349.55	1454.5
951.6225	2227.2317	2346.6	1452.55
951.7563	2228.7098	2338.55	1450.15
951.8902	2230.1872	2330.95	1441.35
952.024	2231.6638	2329.5	1442.2
952.1578	2233.1397	2325.05	1433.1
952.2916	2234.6149	2314.5	1423.65
952.4253	2236.0894	2303.85	1412.75
952.559	2237.5632	2312.95	1413.3
952.6927	2239.0362	2308.65	1418.6
952.8263	2240.5085	2303.55	1412.2
952.9599	2241.9801	2301.25	1409.6
953.0935	2243.4509	2287.7	1393.8
953.2271	2244.921	2295.45	1399.1
953.3606	2246.3904	2285.3	1386.5
953.4941	2247.8591	2275.05	1380.2
953.6276	2249.3271	2278.4	1384.55
953.7611	2250.7943	2266.4	1372.4
953.8945	2252.2608	2255.55	1360.3
954.0279	2253.7266	2249.85	1359.55
954.1612	2255.1917	2260.2	1365.35
954.2946	2256.656	2252.2	1359.9
954.4279	2258.1197	2242.55	1351.55
954.5612	2259.5826	2239.2	1347.1
954.6944	2261.0447	2246.75	1351.25
954.8276	2262.5062	2237.3	1341.8
954.9608	2263.9669	2235.7	1339.05
955.094	2265.4269	2224.95	1330.95
955.2271	2266.8862	2224.5	1332
955.3602	2268.3448	2221.3	1330.2
955.4933	2269.8026	2212.45	1320.6
955.6264	2271.2598	2217.1	1326.05
955.7594	2272.7162	2203.7	1313.85
955.8924	2274.1719	2207.75	1314.8
956.0253	2275.6268	2207.8	1312.8
956.1583	2277.0811	2201.35	1306.2
956.2912	2278.5346	2198.4	1307.15
956.4241	2279.9874	2196.8	1306.95
956.5569	2281.4395	2185.25	1297.85
956.6897	2282.8908	2197	1302.15
956.8225	2284.3414	2187.25	1292.3
956.9553	2285.7914	2174.95	1282.6
957.088	2287.2406	2175.6	1280.5
957.2207	2288.689	2179.05	1283.3
957.3534	2290.1368	2176.1	1277.5
957.486	2291.5838	2182.5	1280.35
957.6186	2293.0302	2174.9	1276.2
957.7512	2294.4758	2166.3	1271.65
957.8838	2295.9206	2152.3	1257.95
958.0163	2297.3648	2160.85	1270.25
958.1488	2298.8082	2152	1258.95
958.2813	2300.251	2142.9	1249.6
958.4137	2301.693	2148.2	1248.45
958.5461	2303.1343	2148.65	1251.95
958.6785	2304.5748	2133.55	1241.6
958.8108	2306.0147	2131.3	1240.8
958.9432	2307.4538	2118.8	1226.25
959.0754	2308.8922	2112.1	1225.6
959.2077	2310.3299	2113.2	1224.05
959.3399	2311.7669	2122.35	1233.75
959.4721	2313.2031	2109.4	1216.1
959.6043	2314.6387	2107.45	1214.85
959.7365	2316.0735	2105.3	1210.45
959.8686	2317.5076	2098.3	1203.85
960.0006	2318.941	2103.85	1208.65
960.1327	2320.3737	2096.1	1198.75
960.2647	2321.8056	2092.2	1193.7
960.3967	2323.2369	2090.1	1196.65
960.5287	2324.6674	2084.75	1189.8
960.6606	2326.0972	2071.4	1179.25
960.7925	2327.5263	2075	1181.3
960.9244	2328.9547	2070.6	1174.45
961.0562	2330.3823	2073.25	1177.85
961.1881	2331.8092	2082.15	1180.85
961.3198	2333.2355	2068.15	1171
961.4516	2334.661	2064.65	1165.7
961.5833	2336.0858	2066.55	1170.5
961.715	2337.5098	2051.25	1157.5
961.8467	2338.9332	2066.25	1171.25
961.9783	2340.3558	2052.15	1156.25
962.1099	2341.7778	2040.45	1145.55
962.2415	2343.199	2045.85	1151.85
962.373	2344.6195	2038	1145
962.5045	2346.0393	2038.9	1149.05
962.636	2347.4583	2045.65	1152.45
962.7675	2348.8767	2029.95	1134.1
962.8989	2350.2943	2037.25	1141.1
963.0303	2351.7113	2030.45	1131.7
963.1617	2353.1275	2032.5	1134.8
963.293	2354.543	2037.5	1132.75
963.4243	2355.9578	2029.15	1133.45
963.5556	2357.3718	2015.2	1124.45
963.6868	2358.7852	2000.8	1108.5
963.818	2360.1978	2012.6	1120.85
963.9492	2361.6098	1994.05	1102.6
964.0803	2363.021	2000.9	1104.95
964.2114	2364.4315	2010.95	1115.95
964.3425	2365.8413	1992.6	1099.25
964.4736	2367.2504	1988.15	1099.05
964.6046	2368.6587	1987.7	1095.75
964.7356	2370.0664	1973.15	1083.15
964.8666	2371.4733	1983.7	1091.45
964.9975	2372.8795	1966.2	1074.5
965.1284	2374.285	1971	1078.45
965.2593	2375.6899	1963.95	1072
965.3901	2377.0939	1967.15	1075.3
965.5209	2378.4973	1956.9	1065.5
965.6517	2379.9	1950.3	1059.85
965.7825	2381.3019	1946.8	1054.85
965.9132	2382.7032	1950.85	1061.85
966.0439	2384.1037	1942.95	1057.25
966.1745	2385.5035	1933.1	1046
966.3051	2386.9027	1928.55	1043.85
966.4357	2388.3011	1934	1043
966.5663	2389.6987	1922.05	1034.95
966.6968	2391.0957	1928.4	1039.45
966.8273	2392.492	1924.6	1035.95
966.9578	2393.8876	1918.35	1030.45
967.0882	2395.2824	1911.8	1024.9
967.2186	2396.6765	1902.45	1015.15
967.349	2398.07	1902.75	1013.9
967.4793	2399.4627	1903.35	1011.15
967.6097	2400.8547	1902.45	1012.05
967.7399	2402.246	1892.7	999.2
967.8702	2403.6366	1888.65	998.6
968.0004	2405.0265	1886	1000.45
968.1306	2406.4156	1884.25	989.85
968.2607	2407.8041	1883.25	991.9
968.3909	2409.1918	1888.2	995.95
968.521	2410.5789	1875.8	986.15
968.651	2411.9652	1873.85	982.35
968.781	2413.3508	1867.4	976.65
968.911	2414.7358	1865.05	973.75
969.041	2416.12	1862.8	974.4
969.1709	2417.5035	1855.65	966.8
969.3008	2418.8863	1861.4	971.15
969.4307	2420.2684	1859.2	968.25
969.5606	2421.6497	1847.8	955.7
969.6904	2423.0304	1852.9	963.15
969.8201	2424.4104	1841.65	953.7
969.9499	2425.7896	1843.65	952.35
970.0796	2427.1682	1842.9	950.95
970.2093	2428.546	1841.5	951.7
970.3389	2429.9232	1841.25	949.05
970.4685	2431.2996	1836.9	946.95
970.5981	2432.6753	1829.85	937.7
970.7277	2434.0503	1836.9	945.4
970.8572	2435.4246	1829.1	939.6
970.9867	2436.7982	1820.2	926.55
971.1161	2438.1711	1814.6	921.8
971.2456	2439.5433	1816.9	926.8
971.375	2440.9148	1816.8	920.45
971.5043	2442.2856	1806.05	915.45
971.6336	2443.6557	1797.85	908.15
971.7629	2445.025	1798.7	910.1
971.8922	2446.3937	1800.65	909.55
972.0214	2447.7617	1794.95	903.05
972.1506	2449.1289	1796.7	906.15
972.2798	2450.4955	1803.2	909.1
972.4089	2451.8613	1794.15	904.2
972.538	2453.2265	1788.25	897.05
972.6671	2454.5909	1788.2	896.95
972.7961	2455.9546	1789.25	899.5
972.9251	2457.3177	1775.1	885.7
973.0541	2458.68	1779.95	889.9
973.1831	2460.0416	1773	883.25
973.312	2461.4025	1774.6	884.55
973.4408	2462.7627	1780.25	878.35
973.5697	2464.1222	1780.25	892.65
973.6985	2465.4811	1768.65	879.65
973.8273	2466.8392	1764.9	875
973.956	2468.1966	1763.4	870.05
974.0847	2469.5533	1768.3	876.5
974.2134	2470.9093	1767.75	877.5
974.3421	2472.2645	1771.6	878.8
974.4707	2473.6191	1760.75	872.55
974.5993	2474.973	1753	861.85
974.7278	2476.3262	1755.8	863
974.8563	2477.6787	1748.3	859.55
974.9848	2479.0305	1748.8	858.4
975.1132	2480.3816	1744.9	849.7
975.2417	2481.7319	1743.8	854.4
975.37	2483.0816	1736.85	844.85
975.4984	2484.4306	1730.2	839.45
975.6267	2485.7789	1732.6	845.25
975.755	2487.1264	1727.1	836.7
975.8833	2488.4733	1725.2	837.45
976.0115	2489.8195	1736.85	832.05
976.1397	2491.165	1731.45	837.15
976.2678	2492.5097	1722.1	830.55
976.3959	2493.8538	1711	819.7
976.524	2495.1972	1715.9	825.15
976.6521	2496.5398	1710.3	817.3
976.7801	2497.8818	1705.2	811.2
976.9081	2499.2231	1701.85	812.2
977.036	2500.5637	1707.2	813.15
977.164	2501.9035	1707.2	817.25
977.2918	2503.2427	1706.35	811.75
977.4197	2504.5812	1697.8	806.2
977.5475	2505.919	1688.6	793.5
977.6753	2507.256	1684.1	790.3
977.8031	2508.5924	1693.05	802.45
977.9308	2509.9281	1693.55	795
978.0585	2511.2631	1690.65	801.75
978.1861	2512.5974	1683.05	794.5
978.3137	2513.9309	1686.7	796.25
978.4413	2515.2638	1701.95	786.35
978.5689	2516.596	1689.25	798.8
978.6964	2517.9275	1679.05	789.3
978.8239	2519.2583	1676.4	785.45
978.9513	2520.5884	1671.75	780.25
979.0788	2521.9178	1675	783.8
979.2062	2523.2465	1662.6	772.9
979.3335	2524.5745	1669.05	779.4
979.4608	2525.9018	1671.9	780
979.5881	2527.2284	1660.05	767.7
979.7154	2528.5543	1662.45	770.45
979.8426	2529.8796	1652.35	762.7
979.9698	2531.2041	1654.3	764.7
980.0969	2532.5279	1653.55	765.1
980.224	2533.851	1655.05	763.65
980.3511	2535.1735	1644.55	754.35
980.4781	2536.4952	1651.25	759.25
980.6052	2537.8163	1653.1	759.85
980.7321	2539.1366	1648.75	757.75
980.8591	2540.4562	1646.55	751.7
980.986	2541.7752	1642.4	749.4
981.1129	2543.0935	1639.2	745.15
981.2397	2544.411	1644.9	751.9
981.3665	2545.7279	1634.45	742.25
981.4933	2547.0441	1633.9	743.8
981.62	2548.3596	1637.1	743.6
981.7467	2549.6744	1636.45	744.9
981.8734	2550.9885	1635.55	741.15
982.0001	2552.3019	1628.85	736.8
982.1267	2553.6146	1626.8	734.2
982.2532	2554.9266	1627.35	734.2
982.3798	2556.2379	1618.5	722.8
982.5063	2557.5485	1615.9	725.25
982.6327	2558.8585	1627.3	727.2
982.7592	2560.1677	1629.25	732.8
982.8856	2561.4762	1619.1	726.85
983.0119	2562.7841	1621	725.4
983.1383	2564.0913	1610	720
983.2646	2565.3977	1612.35	721.6
983.3908	2566.7035	1613.4	721.7
983.517	2568.0086	1614.5	720
983.6432	2569.313	1607.15	714.15
983.7694	2570.6167	1611.3	717.25
983.8955	2571.9197	1610.55	718.65
984.0216	2573.222	1600.8	705.05
984.1476	2574.5236	1609.8	717.7
984.2737	2575.8246	1601.1	706.25
984.3996	2577.1248	1597	704.5
984.5256	2578.4244	1601.15	709.75
984.6515	2579.7232	1603.15	711.9
984.7774	2581.0214	1619.5	700.1
984.9032	2582.3189	1605.2	715.25
985.029	2583.6157	1604.65	708.85
985.1548	2584.9118	1599.5	706.7
985.2806	2586.2072	1591.75	699.9
985.4063	2587.5019	1599.65	706.45
985.5319	2588.7959	1602.4	710.95
985.6576	2590.0893	1606.3	714
985.7832	2591.3819	1603	709.55
985.9087	2592.6739	1595	705.2
986.0343	2593.9652	1603.4	710
986.1597	2595.2557	1600.55	710
986.2852	2596.5456	1596	700.9
986.4106	2597.8348	1595	703.8
986.536	2599.1234	1601.15	710.65
986.6614	2600.4112	1594.6	703.45
986.7867	2601.6983	1602.5	709.55
986.912	2602.9848	1600.3	709.85
987.0372	2604.2705	1601.5	704
987.1624	2605.5556	1594.95	701.65
987.2876	2606.84	1587.6	695.4
987.4128	2608.1237	1591.05	697.6
987.5379	2609.4067	1584.5	693.8
987.6629	2610.689	1585.35	685.35
987.788	2611.9707	1582.75	688.8
987.913	2613.2516	1578.4	681.1
988.0379	2614.5319	1566	674.2
988.1629	2615.8115	1567.55	674.25
988.2878	2617.0903	1565.5	674.15
988.4126	2618.3685	1566.45	675.5
988.5375	2619.6461	1569.3	679.1
988.6622	2620.9229	1559.55	668.5
988.787	2622.199	1556.95	664.15
988.9117	2623.4745	1565.9	676.2
989.0364	2624.7493	1554.75	664.65
989.161	2626.0234	1562.45	673.2
989.2857	2627.2968	1561.65	672.95
989.4102	2628.5695	1557.7	665.75
989.5348	2629.8415	1556.65	666.45
989.6593	2631.1128	1566.7	672.8
989.7837	2632.3835	1560.25	672
989.9082	2633.6535	1559.35	669
990.0326	2634.9228	1546.55	657.15
990.1569	2636.1914	1544.85	654.65
990.2812	2637.4593	1545.05	653.5
990.4055	2638.7265	1551.95	660.5
990.5298	2639.9931	1548.8	656.9
990.654	2641.259	1543.8	652.35
990.7782	2642.5242	1542.15	650.9
990.9023	2643.7887	1547.05	656.9
991.0264	2645.0525	1540.4	650.1
991.1505	2646.3156	1533.55	643.25
991.2745	2647.5781	1535.8	646.4
991.3985	2648.8398	1527.55	638.35
991.5225	2650.1009	1540.1	639.45
991.6464	2651.3613	1528.65	635.65
991.7703	2652.6211	1518.1	625.65
991.8942	2653.8801	1531.9	642.6
992.018	2655.1385	1525.45	634.05
992.1418	2656.3961	1525.15	636.45
992.2655	2657.6531	1520.9	629.95
992.3892	2658.9094	1523.05	634.6
992.5129	2660.1651	1525.25	636.6
992.6366	2661.42	1524.2	635.25
992.7602	2662.6743	1523.75	631.85
992.8837	2663.9279	1535.7	646.95
993.0073	2665.1808	1522.15	632.8
993.1307	2666.433	1532.55	640.7
993.2542	2667.6846	1529.75	637.75
993.3776	2668.9354	1528.85	636.75
993.501	2670.1856	1539.45	647.65
993.6244	2671.4351	1534.65	642.5
993.7477	2672.6839	1533.8	643.35
993.8709	2673.9321	1541.1	652.5
993.9942	2675.1795	1542.75	649.85
994.1174	2676.4263	1539.2	648.5
994.2405	2677.6724	1540.1	651.1
994.3637	2678.9179	1535.8	646.55
994.4868	2680.1626	1545.65	657.8
994.6098	2681.4067	1535	644.6
994.7328	2682.6501	1542.05	650.45
994.8558	2683.8928	1539.1	647.05
994.9788	2685.1348	1540.15	650.6
995.1017	2686.3761	1532.15	643.1
995.2245	2687.6168	1529.5	639.05
995.3474	2688.8568	1525.05	635.2
995.4702	2690.0961	1516.9	628.15
995.5929	2691.3348	1519.35	631.35
995.7156	2692.5727	1520.65	628.05
995.8383	2693.81	1509.4	619.75
995.961	2695.0466	1507.6	618.25
996.0836	2696.2826	1512	620.65
996.2062	2697.5178	1514.4	619.3
996.3287	2698.7524	1504.2	613.65
996.4512	2699.9863	1507	613.7
996.5737	2701.2195	1515.5	626.5
996.6961	2702.452	1511.95	623.25
996.8185	2703.6839	1521.35	630.05
996.9408	2704.9151	1520.85	631
997.0631	2706.1456	1520.85	632.3
997.1854	2707.3755	1529.8	639.25
997.3077	2708.6046	1543.45	651.6
997.4299	2709.8331	1543.8	652.25
997.552	2711.0609	1549.9	661.25
997.6742	2712.2881	1562.45	672.5
997.7963	2713.5145	1568.75	674.45
997.9183	2714.7403	1574.95	686.3
998.0403	2715.9654	1585.05	695.4
998.1623	2717.1899	1606.85	699.5
998.2842	2718.4136	1606.3	716.45
998.4062	2719.6367	1611.35	721.6
998.528	2720.8591	1623.45	728.65
998.6498	2722.0809	1637.25	748.15
998.7716	2723.3019	1645.9	755.75
998.8934	2724.5223	1654	763.85
999.0151	2725.7421	1658.65	770.05
999.1368	2726.9611	1658	766.5
999.2584	2728.1795	1657.95	761.7
999.38	2729.3972	1653.5	764.15
999.5016	2730.6142	1652.05	748.8
999.6231	2731.8306	1615.4	725
999.7446	2733.0462	1607.15	717.35
999.8661	2734.2612	1595.85	703.4
999.9875	2735.4756	1569.7	678.1
1000.1089	2736.6892	1562.95	673.4
1000.2302	2737.9022	1547.15	659.4
1000.3515	2739.1145	1525.15	635.1
1000.4728	2740.3262	1520.85	623.1
1000.594	2741.5372	1508.15	619.25
1000.7152	2742.7475	1496.8	607.5
1000.8363	2743.9571	1493.85	603.45
1000.9575	2745.1661	1475.15	583.35
1001.0785	2746.3744	1467.65	578.25
1001.1996	2747.582	1459.3	570.25
1001.3206	2748.7889	1452.7	560.9
1001.4415	2749.9952	1444.05	555.9
1001.5625	2751.2008	1443.05	552
1001.6833	2752.4057	1435.5	545.15
1001.8042	2753.61	1433	543.95
1001.925	2754.8136	1436.85	545.5
1002.0458	2756.0165	1432.75	543.55
1002.1665	2757.2188	1429.4	540.25
1002.2872	2758.4204	1426.4	537.2
1002.4078	2759.6213	1431.3	543.1
1002.5285	2760.8215	1427.45	533.3
1002.649	2762.0211	1424.8	534.3
1002.7696	2763.22	1427.55	536.55
1002.8901	2764.4182	1427.5	537.15
1003.0106	2765.6158	1419.25	530.65
1003.131	2766.8127	1418.1	531.2
1003.2514	2768.009	1414.9	526
1003.3717	2769.2045	1411.15	520.05
1003.492	2770.3994	1417.2	527.15
1003.6123	2771.5936	1403.6	517.65
1003.7325	2772.7872	1407.4	521.25
1003.8527	2773.9801	1397.3	509.45
1003.9729	2775.1723	1413.25	508.3
1004.093	2776.3639	1404.6	514.6
1004.2131	2777.5548	1401.75	510.45
1004.3331	2778.745	1407.9	517.75
1004.4531	2779.9346	1403.9	516
1004.5731	2781.1235	1405.45	518.1
1004.693	2782.3117	1403.7	519.15
1004.8129	2783.4992	1408.3	519.95
1004.9328	2784.6861	1410.75	523.3
1005.0526	2785.8723	1413.1	522.85
1005.1723	2787.0579	1419.95	530.05
1005.2921	2788.2428	1423.5	536.15
1005.4118	2789.427	1436.6	551.1
1005.5314	2790.6106	1436	547.15
1005.651	2791.7935	1447.2	558.7
1005.7706	2792.9757	1463.25	576.5
1005.8902	2794.1573	1471.35	579.75
1006.0097	2795.3382	1482.15	594.4
1006.1291	2796.5184	1487.4	602.1
1006.2485	2797.698	1509.45	619.2
1006.3679	2798.8769	1514.35	626.25
1006.4873	2800.0551	1531.55	644.95
1006.6066	2801.2327	1553.55	664.65
1006.7258	2802.4096	1567.2	681.65
1006.8451	2803.5859	1575.6	685.15
1006.9642	2804.7615	1596.45	709.15
1007.0834	2805.9364	1626	739
1007.2025	2807.1106	1646.25	758.35
1007.3216	2808.2842	1676.7	790.25
1007.4406	2809.4572	1710.5	822.05
1007.5596	2810.6294	1734.55	849
1007.6785	2811.801	1774.7	886.3
1007.7975	2812.972	1812.55	925.35
1007.9163	2814.1423	1857.45	969.5
1008.0352	2815.3119	1898.45	1011.65
1008.154	2816.4808	1944.45	1058.1
1008.2727	2817.6491	1989.35	1101.8
1008.3914	2818.8167	2044.5	1159.45
1008.5101	2819.9837	2089.4	1197.7
1008.6288	2821.15	2144.7	1256.05
1008.7474	2822.3157	2189.4	1304.45
1008.8659	2823.4807	2240.55	1354.65
1008.9844	2824.645	2294.15	1405.95
1009.1029	2825.8086	2338.05	1454.3
1009.2214	2826.9716	2384.7	1499.95
1009.3398	2828.134	2439	1552.65
1009.4581	2829.2957	2466.15	1579.3
1009.5764	2830.4567	2492	1606.6
1009.6947	2831.617	2524.75	1638.75
1009.813	2832.7767	2543.75	1659
1009.9312	2833.9358	2518.4	1632.15
1010.0493	2835.0941	2528.95	1639.95
1010.1675	2836.2519	2516.5	1628.6
1010.2855	2837.4089	2503.5	1616.6
1010.4036	2838.5653	2494.8	1608.8
1010.5216	2839.7211	2490.1	1605.25
1010.6396	2840.8761	2488.95	1599.6
1010.7575	2842.0306	2507.55	1623.5
1010.8754	2843.1843	2548.9	1662.25
1010.9932	2844.3374	2591.05	1704.6
1011.111	2845.4899	2650.7	1762.15
1011.2288	2846.6417	2711.85	1824.3
1011.3465	2847.7928	2772.4	1885.4
1011.4642	2848.9433	2846.45	1961.1
1011.5818	2850.0931	2919.2	2032.8
1011.6995	2851.2422	2977	2091.15
1011.817	2852.3907	3062.1	2175.1
1011.9345	2853.5385	3115.7	2225.3
1012.052	2854.6857	3176.55	2280.85
1012.1695	2855.8323	3212.55	2326
1012.2869	2856.9781	3263.45	2377.35
1012.4042	2858.1233	3313.35	2428.85
1012.5216	2859.2679	3355.75	2469.1
1012.6389	2860.4118	3405.55	2520.6
1012.7561	2861.555	3457.15	2566.25
1012.8733	2862.6976	3495.2	2606.9
1012.9905	2863.8395	3507.15	2621.65
1013.1076	2864.9808	3546.65	2660.8
1013.2247	2866.1214	3561.75	2676.95
1013.3417	2867.2614	3584.35	2698.85
1013.4587	2868.4007	3592.95	2707.05
1013.5757	2869.5393	3606.85	2717.2
1013.6926	2870.6773	3622.2	2730.6
1013.8095	2871.8146	3629.75	2739.1
1013.9263	2872.9513	3639.4	2751.05
1014.0431	2874.0874	3623.5	2736.85
1014.1599	2875.2227	3615.75	2730.35
1014.2766	2876.3574	3591.8	2705.25
1014.3933	2877.4915	3586.7	2701.3
1014.51	2878.6249	3555.8	2671.4
1014.6266	2879.7577	3525.95	2639.95
1014.7431	2880.8898	3520.85	2627.45
1014.8596	2882.0212	3487.4	2600.95
1014.9761	2883.152	3486.75	2600.85
1015.0925	2884.2821	3480.75	2595.45
1015.2089	2885.4116	3460.5	2575.2
1015.3253	2886.5405	3463.55	2578.6
1015.4416	2887.6686	3485.3	2597.65
1015.5579	2888.7962	3476.05	2592.05
1015.6741	2889.923	3493.3	2608.45
1015.7903	2891.0493	3484.2	2598.5
1015.9065	2892.1748	3509.5	2625.7
1016.0226	2893.2997	3528.9	2642.45
1016.1387	2894.424	3530	2645.25
1016.2547	2895.5476	3550.55	2666.45
1016.3707	2896.6706	3563.2	2678.5
1016.4866	2897.7929	3583.85	2697.35
1016.6025	2898.9145	3625	2741.65
1016.7184	2900.0355	3660.55	2775.35
1016.8342	2901.1559	3672.85	2786.45
1016.95	2902.2756	3711.05	2826.05
1017.0658	2903.3946	3743.55	2858.45
1017.1815	2904.513	3767.25	2879
1017.2971	2905.6308	3794.85	2909.8
1017.4127	2906.7479	3811.15	2927.3
1017.5283	2907.8643	3855	2971.45
1017.6439	2908.9801	3854.8	2972.05
1017.7594	2910.0953	3869.9	2984.25
1017.8748	2911.2098	3869.8	2983.5
1017.9902	2912.3236	3855.95	2961.9
1018.1056	2913.4368	3871.5	2981.9
1018.2209	2914.5494	3844.9	2959.6
1018.3362	2915.6613	3806.35	2913.5
1018.4515	2916.7725	3771.5	2884.25
1018.5667	2917.8831	3754.3	2867.65
1018.6819	2918.9931	3722.55	2834.15
1018.797	2920.1024	3697.45	2811.3
1018.9121	2921.211	3671.3	2787.75
1019.0271	2922.319	3656.55	2771.35
1019.1421	2923.4264	3634.1	2748.8
1019.2571	2924.5331	3633.4	2748.6
1019.372	2925.6391	3605.9	2721.6
1019.4869	2926.7445	3603.1	2720.45
1019.6017	2927.8493	3592.15	2705.5
1019.7165	2928.9534	3586.65	2701.7
1019.8313	2930.0569	3601.3	2712.5
1019.946	2931.1597	3599.75	2713.4
1020.0606	2932.2619	3592	2706.8
1020.1753	2933.3634	3586.55	2702.45
1020.2899	2934.4643	3585.95	2692.15
1020.4044	2935.5645	3570.3	2679.95
1020.5189	2936.6641	3535.55	2645.7
1020.6334	2937.763	3507.5	2623.9
1020.7478	2938.8613	3456.35	2571.4
1020.8622	2939.959	3404.6	2513.65
1020.9765	2941.056	3340.4	2458.55
1021.0908	2942.1523	3255.55	2370.1
1021.2051	2943.248	3160.45	2275.85
1021.3193	2944.3431	3079.4	2194.75
1021.4334	2945.4375	2996.65	2111.35
1021.5476	2946.5313	2882.55	1999.4
1021.6617	2947.6244	2789.4	1903.2
1021.7757	2948.7169	2694.5	1807.5
1021.8897	2949.8087	2596.35	1713.1
1022.0037	2950.8999	2503.35	1618.25
1022.1176	2951.9904	2427.35	1542.15
1022.2315	2953.0803	2357.2	1471.35
1022.3453	2954.1696	2287.7	1402.65
1022.4591	2955.2582	2247.55	1364.55
1022.5728	2956.3462	2199	1315.4
1022.6865	2957.4335	2164.5	1279.9
1022.8002	2958.5202	2119.75	1231.25
1022.9138	2959.6062	2086.2	1204.5
1023.0274	2960.6916	2064.6	1181.45
1023.141	2961.7764	2053.5	1168.3
1023.2545	2962.8605	2032.45	1149.6
1023.3679	2963.9439	2012.45	1130.05
1023.4813	2965.0267	2007.8	1122.6
1023.5947	2966.1089	2020.9	1115.95
1023.708	2967.1905	1996.55	1112.45
1023.8213	2968.2714	1995.3	1113.05
1023.9346	2969.3516	1987.9	1104.85
1024.0478	2970.4312	2013.1	1123
1024.1609	2971.5102	2001.45	1118.55
1024.274	2972.5885	1997.7	1114.1
1024.3871	2973.6662	2009.9	1120.8
1024.5002	2974.7432	2010.55	1125.75
1024.6132	2975.8196	2003.45	1121.45
1024.7261	2976.8954	1991.25	1107.75
1024.839	2977.9705	1978.1	1097.5
1024.9519	2979.045	1971.35	1088.25
1025.0647	2980.1188	1946.05	1062.95
1025.1775	2981.192	1927.65	1045.1
1025.2902	2982.2645	1902.25	1017.85
1025.4029	2983.3364	1887	1003
1025.5156	2984.4077	1862.2	979.45
1025.6282	2985.4783	1827.5	937.45
1025.7407	2986.5483	1791.65	909.6
1025.8532	2987.6177	1769.25	885.95
1025.9657	2988.6864	1731.5	847.1
1026.0782	2989.7545	1703.9	818.95
1026.1906	2990.8219	1671.9	789
1026.3029	2991.8887	1638.35	752.25
1026.4152	2992.9548	1596.25	711.6
1026.5275	2994.0204	1572.45	688.1
1026.6397	2995.0852	1534.2	653.6
1026.7519	2996.1495	1513.5	630
1026.864	2997.2131	1491.25	608.6
1026.9761	2998.276	1470.1	586.1
1027.0882	2999.3383	1455.6	572.7
1027.2002	3000.4	1436.75	551
1027.3122	3001.4611	1422.6	541.85
1027.4241	3002.5215	1394.9	510.75
1027.536	3003.5812	1383.4	501.55
1027.6478	3004.6404	1375.6	491.7
1027.7596	3005.6989	1359.25	475.95
1027.8714	3006.7567	1353.45	470.35
1027.9831	3007.8139	1368.15	456.4
1028.0947	3008.8705	1336.75	454.3
1028.2064	3009.9264	1332.65	445.3
1028.3179	3010.9818	1324.75	441.2
1028.4295	3012.0364	1317.8	432.85
1028.541	3013.0905	1310.8	424.25
1028.6524	3014.1439	1318.65	435.95
1028.7638	3015.1966	1307.75	426.9
1028.8752	3016.2487	1301.7	420.75
1028.9865	3017.3002	1309.35	419.8
1029.0978	3018.3511	1308.5	428.1
1029.209	3019.4013	1305.2	422.5
1029.3202	3020.4509	1302.05	419.5
1029.4314	3021.4998	1303.05	420.7
1029.5425	3022.5481	1305.35	424.8
1029.6535	3023.5958	1307.05	424.25
1029.7645	3024.6428	1307.7	422.9
1029.8755	3025.6892	1301.1	420.4
1029.9864	3026.735	1302.3	419.5
1030.0973	3027.7802	1309.4	427.6
1030.2082	3028.8247	1307.3	424.7
1030.319	3029.8685	1299	414.2
1030.4297	3030.9118	1317.95	436.85
1030.5404	3031.9544	1317.1	435.5
1030.6511	3032.9963	1315.95	433.9
1030.7617	3034.0376	1315.3	434.5
1030.8723	3035.0783	1329.5	441.05
1030.9829	3036.1184	1326.2	443.55
1031.0934	3037.1578	1332.1	449.15
1031.2038	3038.1966	1324.25	441.15
1031.3142	3039.2348	1331.95	451.05
1031.4246	3040.2723	1337.95	447.5
1031.5349	3041.3092	1332.35	450.55
1031.6452	3042.3455	1337.15	455.3
1031.7554	3043.3811	1327	442.75
1031.8656	3044.4161	1330.2	447.45
1031.9758	3045.4505	1317.45	436.1
1032.0859	3046.4842	1320.8	438.3
1032.1959	3047.5173	1311.25	430.7
1032.3059	3048.5498	1310	424.35
1032.4159	3049.5816	1304.25	421.8
1032.5258	3050.6128	1295.4	411.65
1032.6357	3051.6434	1295.6	412.8
1032.7455	3052.6734	1292.7	410.8
1032.8553	3053.7027	1280.55	397
1032.9651	3054.7314	1280.6	398.35
1033.0748	3055.7594	1270.05	389.35
1033.1845	3056.7868	1275.1	391.95
1033.2941	3057.8136	1268.55	386.45
1033.4037	3058.8398	1265.05	383.3
1033.5132	3059.8653	1260.55	377.9
1033.6227	3060.8902	1250.55	369.3
1033.7321	3061.9145	1243.55	361.75
1033.8415	3062.9381	1245.5	365.15
1033.9509	3063.9612	1260.6	364.4
1034.0602	3064.9835	1231.75	350.55
1034.1694	3066.0053	1230.55	346.3
1034.2787	3067.0264	1230.65	349.55
1034.3878	3068.0469	1219.9	336.85
1034.497	3069.0668	1214.5	330.15
1034.6061	3070.086	1211.8	328.9
1034.7151	3071.1046	1200.85	320.25
1034.8241	3072.1226	1190.3	306
1034.9331	3073.1399	1183.6	300.9
1035.042	3074.1567	1179.2	297
1035.1508	3075.1727	1169.25	286
1035.2597	3076.1882	1155.7	275.55
1035.3684	3077.203	1150.8	268.85
1035.4772	3078.2173	1150	265.1
1035.5859	3079.2308	1141.55	255.95
1035.6945	3080.2438	1133.95	249.8
1035.8031	3081.2561	1122.05	241.3
1035.9117	3082.2678	1122.05	240.15
1036.0202	3083.2789	1111.75	230.35
1036.1286	3084.2893	1107.8	227.4
1036.2371	3085.2991	1102.4	220.55
1036.3454	3086.3083	1103.9	219.1
1036.4538	3087.3169	1092.15	210.7
1036.562	3088.3248	1084.85	200.4
1036.6703	3089.3321	1084.1	200.6
1036.7785	3090.3388	1081.3	199.5
1036.8866	3091.3449	1072.2	191.35
1036.9948	3092.3503	1071.75	187.25
1037.1028	3093.3551	1070.85	192.15
1037.2108	3094.3593	1061	180.2
1037.3188	3095.3629	1057.95	177.05
1037.4267	3096.3658	1064.15	180.2
1037.5346	3097.3681	1055.15	174.85
1037.6425	3098.3698	1056	173.15
1037.7503	3099.3708	1056.75	170.25
1037.858	3100.3713	1046.65	166.3
1037.9657	3101.3711	1046.25	163.45
1038.0734	3102.3702	1184.65	165.55
1038.181	3103.3688	1046.35	163.75
1038.2886	3104.3667	1036.75	156.9
1038.3961	3105.364	1039.6	157.3
1038.5036	3106.3607	1041.45	161.1
1038.611	3107.3568	1032.1	150.6
1038.7184	3108.3522	1033.5	156.3
1038.8257	3109.347	1032.5	148.6
1038.933	3110.3412	1031.6	149.15
1039.0403	3111.3348	1029.4	149
1039.1475	3112.3277	1026.05	145.6
1039.2547	3113.32	1027.55	146.05
1039.3618	3114.3117	1025.2	144.25
1039.4689	3115.3028	1022.2	142.5
1039.5759	3116.2932	1024.3	142.2
1039.6829	3117.2831	1026.2	141.3
1039.7898	3118.2723	1018.9	139.25
1039.8967	3119.2608	1014.65	133.75
1040.0035	3120.2488	1013.05	130.55
1040.1103	3121.2361	1014.2	133.35
1040.2171	3122.2229	1010.95	130.5
1040.3238	3123.209	1011.05	129.15
1040.4305	3124.1944	1012.1	130.9
1040.5371	3125.1793	1012.6	130.4
1040.6437	3126.1635	1008	126.75
1040.7502	3127.1471	1006.1	128.5
1040.8567	3128.1301	1007.6	127.85
1040.9631	3129.1125	1004.5	122.05
1041.0695	3130.0942	1004.75	125.45
1041.1759	3131.0753	1010.9	122.85
1041.2822	3132.0558	1001.75	119
1041.3884	3133.0357	997.85	116.05
1041.4946	3134.015	1000.8	119.85
1041.6008	3134.9936	998.55	117.25
1041.7069	3135.9716	1022	119.4
1041.813	3136.949	991.75	111.2
1041.919	3137.9258	1015.15	116
1042.025	3138.902	1001.5	115.9
1042.1309	3139.8775	991.1	110.85
1042.2368	3140.8524	989	109.9
1042.3427	3141.8267	993.7	111.2
1042.4485	3142.8004	989.55	109.05
1042.5542	3143.7735	994.2	106.35
1042.6599	3144.7459	993.35	110.2
1042.7656	3145.7178	987.8	108.6
1042.8712	3146.689	987.3	107.35
1042.9768	3147.6596	988.05	107
1043.0823	3148.6295	984.6	101.55
1043.1878	3149.5989	980.15	99.5
1043.2932	3150.5676	981.15	101.5
1043.3986	3151.5357	980.7	102.5
1043.5039	3152.5032	980.05	101.05
1043.6092	3153.4701	980.45	99.8
1043.7145	3154.4364	983.5	100.55
1043.8197	3155.402	976.15	96.35
1043.9248	3156.367	978	92.9
1044.03	3157.3315	1009.65	97.6
1044.135	3158.2952	979.8	98.25
1044.24	3159.2584	978.25	98.3
1044.345	3160.221	975.9	94.9
1044.4499	3161.1829	974	90.45
1044.5548	3162.1442	975.7	96.05
1044.6596	3163.105	971.6	92.35
1044.7644	3164.065	971.2	89.2
1044.8692	3165.0245	971.95	88.95
1044.9739	3165.9834	969.15	89.8
1045.0785	3166.9416	969.55	89.85
1045.1831	3167.8993	970.65	92.1
1045.2877	3168.8563	968.15	86.25
1045.3922	3169.8127	965.95	87.15
1045.4966	3170.7684	968.1	87.9
1045.6011	3171.7236	972.35	91.75
1045.7054	3172.6782	965.05	84.75
1045.8098	3173.6321	965.8	86.25
1045.914	3174.5854	970.3	84.8
1046.0183	3175.5381	963.25	81
1046.1224	3176.4902	964.2	85.7
1046.2266	3177.4417	961.1	80.85
1046.3307	3178.3926	964.45	82.6
1046.4347	3179.3428	959.45	80.75
1046.5387	3180.2924	962.15	83.1
1046.6427	3181.2415	960.55	81.55
1046.7466	3182.1899	962.35	81.55
1046.8504	3183.1377	959.8	79.6
1046.9542	3184.0848	962.85	78.6
1047.058	3185.0314	958.85	77.9
1047.1617	3185.9773	960.25	77.9
1047.2654	3186.9227	960.15	81
1047.369	3187.8674	955.85	75.25
1047.4726	3188.8115	960.6	77
1047.5761	3189.755	956.15	76.45
1047.6796	3190.6979	956.2	76.6
1047.783	3191.6402	955.4	77
1047.8864	3192.5818	954.9	76.55
1047.9898	3193.5229	972.1	74.85
1048.0931	3194.4633	953.85	72.25
1048.1963	3195.4031	953.35	72.45
1048.2995	3196.3423	954.85	74.85
1048.4027	3197.2809	953.15	72.25
1048.5058	3198.2189	952.4	71.5
1048.6089	3199.1563	956.95	71.35
1048.7119	3200.0931	947.15	68.85
1048.8148	3201.0292	949.1	71.65
1048.9178	3201.9648	950.25	72.65
1049.0206	3202.8997	954.5	71.45
1049.1235	3203.834	952.2	73.25
1049.2262	3204.7677	954.25	75.35
1049.329	3205.7008	949.5	68.6
1049.4317	3206.6333	947.65	67.6
1049.5343	3207.5652	949.35	66.45
1049.6369	3208.4964	948.85	68
1049.7394	3209.4271	944.2	65.8
1049.8419	3210.3571	944.4	64.3
1049.9444	3211.2865	947.05	65.9
1050.0468	3212.2154	946.4	66.1
1050.1491	3213.1436	948.5	66.25
1050.2514	3214.0712	954.15	68.35
1050.3537	3214.9982	946.4	65.9
1050.4559	3215.9246	946.05	66.9
1050.5581	3216.8503	945.15	66.15
1050.6602	3217.7755	944.75	64.2
1050.7623	3218.7001	944.2	64.4
1050.8643	3219.624	942.5	62.05
1050.9663	3220.5473	942.8	62.55
1051.0682	3221.4701	945	64.55
1051.1701	3222.3922	944.6	65.1
1051.2719	3223.3137	942.2	64.6
1051.3737	3224.2346	937.45	57.35
1051.4754	3225.1549	939.9	62.05
1051.5771	3226.0746	936.75	57.9
1051.6788	3226.9937	940.45	60.3
1051.7804	3227.9121	941	64.8
1051.8819	3228.83	937.4	58.2
1051.9834	3229.7473	939.4	58.95
1052.0849	3230.6639	939.7	59.5
1052.1863	3231.5799	938.9	59.95
1052.2876	3232.4954	941.45	63.4
1052.3889	3233.4102	937.95	60.55
1052.4902	3234.3244	938.5	57.95
1052.5914	3235.238	935.6	55.7
1052.6926	3236.151	958.3	55.4
1052.7937	3237.0634	937	58.65
1052.8948	3237.9752	937.05	59.3
1052.9958	3238.8864	936.65	57.2
1053.0968	3239.797	935.85	57.9
1053.1977	3240.7069	935.3	55.1
1053.2986	3241.6163	936.15	56.4
1053.3994	3242.5251	933.4	55.35
1053.5002	3243.4332	932	52.65
1053.6009	3244.3408	933.3	54.65
1053.7016	3245.2477	928.4	52.1
1053.8022	3246.154	930	49.65
1053.9028	3247.0598	932.5	55.05
1054.0034	3247.9649	932.3	51.9
1054.1039	3248.8694	929.65	50.8
1054.2043	3249.7733	929.2	48.55
1054.3047	3250.6766	931.45	51.55
1054.4051	3251.5793	930.15	51.8
1054.5054	3252.4814	930.1	52.35
1054.6056	3253.3829	931	52.05
1054.7058	3254.2838	929	51.65
1054.806	3255.1841	929.65	50
1054.9061	3256.0838	927.25	48
1055.0061	3256.9829	925	47.4
1055.1062	3257.8814	926.1	45.55
1055.2061	3258.7792	926.5	47.7
1055.306	3259.6765	926.8	46.15
1055.4059	3260.5731	926.65	48.85
1055.5057	3261.4692	922.6	42.95
1055.6055	3262.3647	922.2	42.45
1055.7052	3263.2595	921.4	42.15
1055.8049	3264.1538	923.15	45.05
1055.9045	3265.0474	920.1	38.8
1056.0041	3265.9404	919.75	42.2
1056.1036	3266.8329	917.75	38.1
1056.2031	3267.7247	928.35	41.1
1056.3025	3268.616	919	43.6
1056.4019	3269.5066	914.85	36.8
1056.5013	3270.3966	917.7	38
1056.6005	3271.286	911.55	34.05
