Software Version:	3.9.2.0
Unit SN:	10000200
Spectrometer SN:	6960
Date:	3/8/2024 1:50:10 PM
Data Line Index:	25
Spectral Points:	2048
Integration time (ms):	125
Averages:	20
Delay (ms):	30000
Sequence Number:	1
Processing:	dark subtract
Laser Power (mW):	305
Laser Current (mA):	823
Laser Diode Temp (C):	25.1
Laser Case Temp (C):	26.4
System Temp (C):	26.4
Spectrometer Temp (C):	24.1
CCD Temp (C):	0.009
Secondary Temp (C):	19.997
Heatsink Temp (C):	21.295
CCDPCB Temp (C):	36.24
SecondaryPCB Temp (C):	31.527

Wavelength	RamanShift	Raw Counts	Dark Subtracted
787.061	30.1047	471.45	65.3
787.2016	32.3739	470.05	65.2
787.3422	34.6426	478.15	70.95
787.4828	36.9109	485.95	76.4
787.6235	39.1787	495.35	82.2
787.7642	41.4461	503.7	84.5
787.9049	43.7131	516.6	97.5
788.0456	45.9796	522.35	99.5
788.1863	48.2456	533.2	106
788.3271	50.5112	543.85	113.3
788.4679	52.7764	554.9	120.8
788.6087	55.0411	566.25	126.15
788.7496	57.3054	579.8	133.35
788.8904	59.5692	590.4	143.6
789.0313	61.8326	601.15	152.15
789.1722	64.0955	614.35	162.25
789.3132	66.3579	634.4	176.25
789.4541	68.6199	657.65	195.65
789.5951	70.8815	696.8	227.55
789.7361	73.1426	780.2	308.85
789.8771	75.4032	996.9	522.85
790.0181	77.6634	1551.8	1073.95
790.1592	79.9231	2841.15	2356.5
790.3003	82.1824	5698.45	5202.35
790.4414	84.4412	10790.95	10271.9
790.5825	86.6995	17891.8	17341.4
790.7237	88.9574	24845.65	24272.2
790.8648	91.2148	29657.6	29064.4
791.006	93.4717	31999.8	31395.2
791.1472	95.7282	32552.85	31946.65
791.2885	97.9842	32588.6	31974.7
791.4297	100.2398	32088.7	31473.85
791.571	102.4949	31488.35	30868.85
791.7123	104.7495	30804.3	30184.5
791.8536	107.0036	30020.4	29396.15
791.9949	109.2573	29341.15	28722.9
792.1363	111.5105	28643	28019.7
792.2777	113.7632	27975.25	27350.95
792.4191	116.0154	27407	26773.05
792.5605	118.2672	27031.15	26397.05
792.7019	120.5185	26555.1	25924.85
792.8434	122.7693	26249	25611.15
792.9849	125.0197	25998.6	25361.25
793.1264	127.2696	25739.35	25096.9
793.2679	129.519	25651.4	25005.75
793.4094	131.7679	25494.6	24841.75
793.551	134.0163	25370.5	24719.85
793.6926	136.2642	25168.75	24514.05
793.8342	138.5117	24966.05	24306.95
793.9758	140.7587	24770.65	24109.85
794.1175	143.0052	24594.55	23931.8
794.2591	145.2512	24380.65	23718.15
794.4008	147.4967	24182.45	23517.55
794.5425	149.7417	24037.6	23368.65
794.6842	151.9863	23932.8	23259.7
794.826	154.2304	23914.7	23238.45
794.9677	156.4739	23762.5	23081.25
795.1095	158.717	23720.55	23041.15
795.2513	160.9596	23593.8	22905.35
795.3931	163.2017	23363.25	22673.5
795.535	165.4433	23095.95	22409.25
795.6768	167.6844	22749.85	22059.05
795.8187	169.925	22524.4	21831.1
795.9606	172.1651	22144.15	21450.25
796.1025	174.4047	21857.65	21161.85
796.2445	176.6439	21618.4	20918.2
796.3864	178.8825	21430.85	20723.65
796.5284	181.1206	21339.5	20632.65
796.6704	183.3582	21184.45	20471.3
796.8124	185.5954	21102.2	20387.9
796.9544	187.832	21027.2	20309.65
797.0965	190.0681	21036.85	20312.35
797.2386	192.3037	21045.85	20320.4
797.3806	194.5388	21070.05	20342.45
797.5228	196.7734	21150.45	20422.65
797.6649	199.0075	21235.55	20504
797.807	201.2411	21444.05	20713.4
797.9492	203.4742	21535.45	20804
798.0914	205.7068	21725.65	20983.8
798.2336	207.9389	21827.45	21084.05
798.3758	210.1704	22030.75	21295.25
798.518	212.4015	22169.05	21446.55
798.6603	214.632	22344.05	21625.6
798.8025	216.862	22560.6	21847.65
798.9448	219.0915	22726.2	22010.25
799.0871	221.3205	22966.75	22248.45
799.2294	223.549	23227.7	22516.15
799.3718	225.777	23543.2	22828.75
799.5141	228.0044	23936.4	23217.8
799.6565	230.2314	24403.05	23680.45
799.7989	232.4578	24746.55	24019.6
799.9413	234.6837	25124	24388.6
800.0837	236.909	25404.3	24663.75
800.2262	239.1339	25419.35	24656.6
800.3687	241.3582	25220.35	24472.15
800.5111	243.582	24924.85	24145.3
800.6536	245.8053	24622.85	23859.9
800.7961	248.0281	24343.05	23585.1
800.9387	250.2503	24120.75	23354.1
801.0812	252.472	23989.45	23222.05
801.2238	254.6932	24034.1	23272.6
801.3664	256.9139	23951.5	23186.25
801.509	259.134	23988.1	23217.45
801.6516	261.3536	24023.45	23253.6
801.7942	263.5727	24112.15	23343.4
801.9369	265.7912	24087.5	23316.7
802.0795	268.0092	24188.95	23415.9
802.2222	270.2267	24175.85	23405.9
802.3649	272.4436	24183.15	23410.15
802.5076	274.6601	24132.75	23352.45
802.6504	276.8759	24073.35	23299.35
802.7931	279.0913	24075.2	23298.3
802.9359	281.3061	24035.05	23250.3
803.0787	283.5204	24110	23323.4
803.2215	285.7341	24191.05	23402.7
803.3643	287.9473	24364.45	23567.5
803.5071	290.16	24637.5	23847.7
803.6499	292.3721	24887.7	24107.95
803.7928	294.5837	25353.6	24569.15
803.9357	296.7947	25712.25	24927.75
804.0786	299.0052	25927.65	25140.15
804.2215	301.2152	25778.2	24986.7
804.3644	303.4246	25496	24711.5
804.5074	305.6334	24968.1	24181.85
804.6503	307.8418	24497.9	23708
804.7933	310.0495	24137.6	23343.4
804.9363	312.2568	23851.5	23059.1
805.0793	314.4635	23622.8	22829.05
805.2223	316.6696	23548.05	22749.3
805.3653	318.8752	23496.15	22687.95
805.5084	321.0802	23539.6	22741.3
805.6514	323.2847	23694.75	22892.75
805.7945	325.4887	23716.85	22912.65
805.9376	327.692	23721.5	22918.2
806.0807	329.8949	23635.55	22829.3
806.2238	332.0972	23412.45	22610.15
806.367	334.2989	23137.25	22324.7
806.5101	336.5001	22878	22071.3
806.6533	338.7007	22705.8	21897.4
806.7965	340.9008	22659.7	21852.35
806.9397	343.1003	22510.6	21701.75
807.0829	345.2992	22514.3	21699.65
807.2261	347.4976	22481.1	21666.4
807.3693	349.6955	22502.75	21685.95
807.5126	351.8927	22596.95	21777.8
807.6559	354.0895	22594.05	21765.45
807.7991	356.2856	22658.4	21839.65
807.9424	358.4812	22655.6	21835.8
808.0857	360.6763	22741.65	21917.45
808.2291	362.8707	22715.75	21890.6
808.3724	365.0646	22753.8	21926.95
808.5158	367.258	22795.7	21968.1
808.6591	369.4508	22844.75	22009.75
808.8025	371.643	22959.5	22126.8
808.9459	373.8346	22910.3	22074.75
809.0893	376.0257	22923.3	22085.2
809.2327	378.2162	22864	22031.25
809.3762	380.4062	22831.2	21992.7
809.5196	382.5956	22651.95	21820.8
809.6631	384.7844	22609.8	21785.2
809.8066	386.9726	22473.15	21645.95
809.9501	389.1603	22455.9	21631.7
810.0936	391.3474	22460.35	21598.8
810.2371	393.5339	22432.1	21602.35
810.3806	395.7199	22405.8	21579.6
810.5241	397.9052	22429.85	21603.4
810.6677	400.09	22458.45	21632.6
810.8113	402.2743	22544.3	21718.8
810.9548	404.4579	22673.6	21843.9
811.0984	406.641	22874.95	22047.4
811.2421	408.8235	23102.2	22273.35
811.3857	411.0054	23396.2	22563.25
811.5293	413.1868	23857.25	23019.8
811.673	415.3675	24164.55	23320.9
811.8166	417.5477	24357.05	23517.6
811.9603	419.7273	24401.25	23557.5
812.104	421.9064	24310.8	23461.8
812.2477	424.0848	24169.2	23323.85
812.3914	426.2627	23947.35	23105.15
812.5351	428.4399	23708.9	22863
812.6788	430.6166	23376.55	22526.3
812.8226	432.7928	23001.1	22149.15
812.9663	434.9683	22730.2	21880.65
813.1101	437.1432	22548.55	21699.2
813.2539	439.3176	22349.7	21505.75
813.3977	441.4914	22255	21417.15
813.5415	443.6645	22234	21390.65
813.6853	445.8371	22197	21348.05
813.8291	448.0091	22102.25	21255.25
813.973	450.1806	22102.9	21253
814.1168	452.3514	22054.2	21206.2
814.2607	454.5216	22088.3	21226.45
814.4046	456.6913	22023.5	21174.3
814.5485	458.8603	22091.55	21244.25
814.6924	461.0288	22158.1	21314.35
814.8363	463.1967	22189.05	21345.5
814.9802	465.3639	22340.3	21493.15
815.1241	467.5306	22426.6	21574.55
815.2681	469.6967	22546.45	21701.75
815.412	471.8622	22704.8	21859.25
815.556	474.0271	22891.3	22046.7
815.7	476.1914	22961.3	22108.3
815.844	478.3551	22932.9	22082.1
815.988	480.5182	22941.45	22090.2
816.132	482.6807	22970.7	22124
816.276	484.8426	23102.8	22259.65
816.4201	487.0039	23443.7	22599.2
816.5641	489.1647	23845.6	22994.9
816.7082	491.3248	24293.85	23442.15
816.8522	493.4843	24454.55	23606.7
816.9963	495.6432	24490.9	23638.7
817.1404	497.8015	24351.8	23494.75
817.2845	499.9592	24392.3	23530.65
817.4286	502.1163	24366.2	23505.3
817.5727	504.2728	24130.15	23270.75
817.7168	506.4287	23852.45	23002.65
817.861	508.5839	23450.7	22602.15
818.0051	510.7386	23180.25	22324.45
818.1493	512.8927	23015.65	22154.05
818.2935	515.0461	22955.75	22096.4
818.4377	517.199	22908	22047.65
818.5818	519.3512	22977.05	22115.35
818.726	521.5029	23043.6	22176.6
818.8703	523.6539	23156.9	22293.2
819.0145	525.8043	23227.35	22364.75
819.1587	527.9541	23276.45	22409.75
819.303	530.1033	23231.6	22367.25
819.4472	532.2519	23273.35	22407.6
819.5915	534.3999	23380.95	22509.95
819.7357	536.5472	23648.95	22785
819.88	538.694	24077.65	23216.4
820.0243	540.8401	24730.45	23862.6
820.1686	542.9856	25210.95	24333.7
820.3129	545.1305	25335.2	24456.05
820.4572	547.2748	25297	24417.6
820.6016	549.4185	24907.1	24024.15
820.7459	551.5615	24618.55	23739.45
820.8902	553.704	24498.15	23618.6
821.0346	555.8458	24441.75	23564.15
821.1789	557.987	24516	23644.95
821.3233	560.1276	24496.2	23624.05
821.4677	562.2675	24581.6	23710.6
821.6121	564.4069	24655.05	23782.8
821.7565	566.5456	24720.15	23847.75
821.9009	568.6837	24664.7	23792.85
822.0453	570.8212	24338.4	23470.25
822.1897	572.958	24037.2	23164.7
822.3342	575.0942	23708.55	22838.6
822.4786	577.2299	23472.35	22604.9
822.6231	579.3648	23483.65	22624.8
822.7675	581.4992	23498.75	22642.5
822.912	583.6329	23712.9	22857.45
823.0565	585.766	23955.75	23092.95
823.201	587.8985	24117.4	23255.3
823.3454	590.0304	24125.8	23232.4
823.4899	592.1616	24070.95	23192.4
823.6345	594.2922	23940.5	23060.75
823.779	596.4222	23801.05	22922.75
823.9235	598.5515	23660.85	22781.05
824.068	600.6802	23514.35	22634.1
824.2126	602.8083	23304.4	22422.95
824.3571	604.9358	23269.75	22387.7
824.5017	607.0626	23228.3	22345.75
824.6462	609.1888	23232.7	22346.2
824.7908	611.3144	23225.55	22344.2
824.9354	613.4393	23148.55	22262.65
825.08	615.5636	23087.6	22203.85
825.2246	617.6873	23029.4	22150
825.3692	619.8103	22978.3	22095.4
825.5138	621.9327	22885	21998.4
825.6584	624.0544	22826.3	21947.35
825.803	626.1756	22837	21954.8
825.9477	628.2961	22815.85	21932.95
826.0923	630.4159	22734.95	21848.5
826.237	632.5351	22735.05	21851.8
826.3816	634.6537	22669.8	21781.4
826.5263	636.7716	22716	21826.85
826.6709	638.8889	22737.4	21846.8
826.8156	641.0056	22776.05	21883.8
826.9603	643.1216	22793.7	21903.5
827.105	645.237	22842	21954.25
827.2497	647.3518	22806.4	21919.95
827.3944	649.4659	22868.8	21987.9
827.5391	651.5793	22881.55	21999.65
827.6838	653.6922	22849.8	21965.1
827.8285	655.8043	22862.35	21978.7
827.9733	657.9159	22893.55	22007.4
828.118	660.0268	22826.6	21938.85
828.2627	662.137	22760.25	21873.3
828.4075	664.2466	22801.6	21908.45
828.5522	666.3556	22764.15	21874.05
828.697	668.4639	22774.05	21885.15
828.8418	670.5716	22884.6	21998.3
828.9865	672.6786	22954.3	22062.7
829.1313	674.785	23004.5	22110.6
829.2761	676.8907	23016.7	22126
829.4209	678.9958	23100.15	22212.65
829.5657	681.1002	23057.4	22168.2
829.7105	683.204	23029.9	22131.8
829.8553	685.3072	23010.4	22115.4
830.0001	687.4097	22959.2	22065.95
830.1449	689.5115	22984.05	22088.55
830.2898	691.6127	22934.2	22039.95
830.4346	693.7132	22889.9	21997.6
830.5794	695.8131	22909.8	22010.9
830.7243	697.9123	22919.15	22024.55
830.8691	700.0109	22902.8	22005.55
831.014	702.1089	22908.7	22011.7
831.1588	704.2061	22921.45	22030.35
831.3037	706.3028	22974.5	22074.7
831.4486	708.3987	23048.95	22153.35
831.5935	710.4941	23156.4	22259.2
831.7383	712.5887	23306.2	22409.2
831.8832	714.6827	23561.4	22659.8
832.0281	716.7761	23937.35	23044.55
832.173	718.8688	24318.8	23421.3
832.3179	720.9608	24510.3	23607.25
832.4628	723.0522	24581.6	23676.4
832.6077	725.1429	24373.25	23474.8
832.7527	727.233	24175.9	23275.6
832.8976	729.3224	23981.1	23081.15
833.0425	731.4112	23755.85	22856.8
833.1874	733.4993	23559.85	22660.25
833.3324	735.5867	23364.75	22468.95
833.4773	737.6735	23274.3	22372.35
833.6222	739.7596	23240.85	22340.5
833.7672	741.845	23168.7	22270
833.9122	743.9298	23164.4	22261.9
834.0571	746.014	23150.15	22253.05
834.2021	748.0974	23212	22304.95
834.347	750.1802	23150.2	22247.45
834.492	752.2624	23203.2	22300.85
834.637	754.3439	23231.95	22327.4
834.782	756.4247	23309.2	22397.7
834.9269	758.5048	23425.4	22525.1
835.0719	760.5843	23655.35	22752.35
835.2169	762.6631	23955.4	23047.75
835.3619	764.7413	24422.4	23513.7
835.5069	766.8188	25018.75	24113
835.6519	768.8956	25379.65	24473.1
835.7969	770.9718	25746.15	24843.45
835.9419	773.0473	25583.3	24679.15
836.0869	775.1221	25343.05	24439.85
836.232	777.1962	24943.75	24042.6
836.377	779.2697	24787.3	23880.85
836.522	781.3426	24864.35	23942.8
836.667	783.4147	25027.3	24120.3
836.8121	785.4862	25354.5	24446.7
836.9571	787.557	25399.5	24490.85
837.1021	789.6271	25056.35	24143.7
837.2472	791.6966	24494.7	23590.95
837.3922	793.7654	23974	23066.8
837.5373	795.8335	23720.55	22810.9
837.6823	797.901	23527.1	22621.4
837.8274	799.9678	23480.7	22569.15
837.9724	802.0339	23476.9	22569.45
838.1175	804.0993	23528.1	22609.8
838.2626	806.1641	23504.05	22596.85
838.4076	808.2282	23416.1	22507.1
838.5527	810.2916	23413.35	22503
838.6978	812.3544	23339.9	22433.85
838.8428	814.4164	23236	22326.25
838.9879	816.4778	23328.95	22419.4
839.133	818.5385	23281.4	22370.6
839.2781	820.5986	23380.65	22469.65
839.4232	822.658	23505.95	22593.8
839.5682	824.7166	23608.25	22697.85
839.7133	826.7747	23897.7	22987.05
839.8584	828.832	24128.05	23217.65
840.0035	830.8886	24251.25	23336.6
840.1486	832.9446	24400.65	23489.55
840.2937	834.9999	24446.55	23534.35
840.4388	837.0545	24432.75	23517.15
840.5839	839.1085	24423.5	23511
840.729	841.1618	24379.4	23460.65
840.8741	843.2143	24321.65	23411.55
841.0192	845.2662	24236.9	23326.9
841.1643	847.3175	24226.85	23316.1
841.3095	849.368	24094.5	23180.9
841.4546	851.4179	24012.3	23098.6
841.5997	853.467	23824.7	22910.8
841.7448	855.5155	23767	22853.35
841.8899	857.5633	23683.9	22772
842.0351	859.6105	23598	22685.55
842.1802	861.6569	23512.2	22597.8
842.3253	863.7027	23503.75	22589.9
842.4704	865.7478	23524.4	22611.35
842.6156	867.7922	23567.75	22654
842.7607	869.8359	23578.25	22660.55
842.9058	871.8789	23720.1	22804.5
843.0509	873.9212	23922.95	22972.9
843.1961	875.9629	23985.05	23070.1
843.3412	878.0039	24191.7	23276
843.4863	880.0441	24337.95	23424.2
843.6315	882.0837	24384.5	23470.35
843.7766	884.1226	24302.15	23386.75
843.9218	886.1609	24173.45	23259.8
844.0669	888.1984	24145.25	23232.35
844.212	890.2352	24220.5	23308.25
844.3572	892.2714	24176.85	23260.1
844.5023	894.3069	24170.55	23254.9
844.6475	896.3416	24108.45	23192.5
844.7926	898.3757	24079.05	23163.9
844.9377	900.4091	24083.4	23167.05
845.0829	902.4418	24067.55	23143.15
845.228	904.4739	24082.95	23162.9
845.3732	906.5052	24137.8	23219.6
845.5183	908.5358	24007.7	23090
845.6635	910.5658	23891.65	22968.05
845.8086	912.595	23742.8	22827.15
845.9538	914.6236	23577.5	22658.05
846.0989	916.6515	23558.5	22642.55
846.2441	918.6786	23514.65	22593.55
846.3892	920.7051	23604.6	22686.2
846.5344	922.7309	23747.7	22830.25
846.6795	924.756	23774.8	22858.05
846.8246	926.7804	23883.15	22963.2
846.9698	928.8041	23755.65	22835.1
847.1149	930.8272	23818.85	22899.1
847.2601	932.8495	23758.5	22836.95
847.4052	934.8711	23710.9	22790.2
847.5504	936.892	23588.4	22669.65
847.6955	938.9123	23432.4	22511.25
847.8407	940.9318	23338.5	22418.4
847.9858	942.9506	23279.05	22361.8
848.131	944.9688	23168.55	22252.55
848.2761	946.9862	23100.85	22183.1
848.4213	949.003	22960.75	22044.35
848.5664	951.019	22978.7	22054.3
848.7115	953.0344	23003.25	22084.15
848.8567	955.0491	23060.4	22139.25
849.0018	957.063	23144.85	22224.1
849.147	959.0763	23311.6	22395.45
849.2921	961.0888	23307.75	22386.3
849.4373	963.1007	23424.85	22509.25
849.5824	965.1119	23461.75	22549.85
849.7275	967.1223	23486.6	22579.2
849.8727	969.1321	23516.65	22609
850.0178	971.1412	23588.5	22676.15
850.1629	973.1495	23572.35	22657.75
850.3081	975.1572	23617.05	22646.05
850.4532	977.1641	23675.55	22757.15
850.5983	979.1704	23626.8	22705.6
850.7435	981.1759	23633.65	22707.05
850.8886	983.1808	23732.9	22812.15
851.0337	985.1849	23775.85	22843.9
851.1788	987.1884	23946.2	23025.05
851.324	989.1911	24050.45	23132.15
851.4691	991.1932	24221.15	23299.45
851.6142	993.1945	24253.2	23335.65
851.7593	995.1951	24137.55	23218.4
851.9045	997.1951	24134.85	23209.95
852.0496	999.1943	24015	23095.4
852.1947	1001.1928	23970.2	23047.95
852.3398	1003.1906	23940.3	23019.45
852.4849	1005.1877	24060.45	23140.9
852.63	1007.1841	23985.6	23065.2
852.7751	1009.1798	23886.45	22969.1
852.9202	1011.1748	23708.8	22789.5
853.0653	1013.1691	23548.8	22629.45
853.2104	1015.1627	23290.45	22372.55
853.3555	1017.1556	23028.95	22109.8
853.5006	1019.1477	22972.6	22054.95
853.6457	1021.1392	22803.25	21888.35
853.7908	1023.1299	22795.2	21883.7
853.9359	1025.12	22815.3	21906.1
854.081	1027.1093	22847.4	21946.2
854.2261	1029.0979	22926.3	22027.15
854.3712	1031.0859	22977.35	22075.8
854.5163	1033.0731	22989.45	22079.7
854.6613	1035.0596	22912.1	21998.9
854.8064	1037.0454	22727.45	21811.05
854.9515	1039.0304	22616.45	21697.8
855.0965	1041.0148	22468.85	21551.25
855.2416	1042.9985	22372.25	21451.75
855.3867	1044.9814	22394.65	21476.25
855.5317	1046.9636	22309.2	21388.7
855.6768	1048.9452	22281.85	21363.4
855.8219	1050.926	22293.2	21375.3
855.9669	1052.9061	22287.8	21370.45
856.112	1054.8855	22284	21363.2
856.257	1056.8642	22305.1	21386.35
856.4021	1058.8421	22361.8	21436.65
856.5471	1060.8194	22407.75	21486.05
856.6921	1062.7959	22398.95	21480.3
856.8372	1064.7717	22454.95	21534.5
856.9822	1066.7469	22476.2	21553.5
857.1272	1068.7213	22467.55	21544.4
857.2723	1070.695	22483.15	21563.85
857.4173	1072.6679	22353.25	21435.25
857.5623	1074.6402	22350.85	21431.95
857.7073	1076.6117	22406	21481.6
857.8523	1078.5826	22364.95	21443.6
857.9973	1080.5527	22353.05	21433.1
858.1423	1082.5221	22409.6	21491.55
858.2873	1084.4908	22590.4	21671.3
858.4323	1086.4587	22751.8	21829.6
858.5773	1088.426	22894.55	21972.05
858.7223	1090.3925	22824.45	21902.6
858.8673	1092.3584	22800.05	21878.9
859.0123	1094.3235	22688.05	21773.95
859.1573	1096.2879	22649.2	21730.65
859.3022	1098.2515	22632.15	21712.65
859.4472	1100.2145	22733.65	21813
859.5922	1102.1767	22762.9	21837.75
859.7371	1104.1382	22934.8	22015.15
859.8821	1106.099	23130.55	22208.15
860.027	1108.0591	23361	22444.1
860.172	1110.0185	23448.7	22527.35
860.3169	1111.9771	23484.3	22564.85
860.4619	1113.9351	23263.8	22342.65
860.6068	1115.8923	22944.5	22025.55
860.7517	1117.8488	22693.7	21772.75
860.8967	1119.8045	22362.15	21444.8
861.0416	1121.7596	22323.6	21404.15
861.1865	1123.7139	22238.65	21322.6
861.3314	1125.6675	22238.6	21320.55
861.4763	1127.6204	22308.1	21388.4
861.6212	1129.5726	22290.6	21371.3
861.7661	1131.524	22276.15	21354.5
861.911	1133.4748	22251.35	21332
862.0559	1135.4248	22164.2	21244.85
862.2008	1137.3741	22159	21238.3
862.3457	1139.3226	22116.25	21196.75
862.4905	1141.2705	22101.25	21178.6
862.6354	1143.2176	21958.4	21031.25
862.7803	1145.164	21979.2	21057
862.9251	1147.1097	21965.55	21044.35
863.07	1149.0546	21997.4	21077.45
863.2148	1150.9989	21890.75	20966.75
863.3597	1152.9424	21799.95	20877.75
863.5045	1154.8852	21621.3	20703.65
863.6493	1156.8272	21490.3	20570.75
863.7942	1158.7686	21492.3	20566.65
863.939	1160.7092	21445.6	20524.25
864.0838	1162.6491	21390.85	20470
864.2286	1164.5883	21515.1	20600.05
864.3734	1166.5267	21555.45	20635.3
864.5182	1168.4644	21716.05	20795.9
864.663	1170.4014	21891.6	20969
864.8078	1172.3377	22162.85	21246.35
864.9526	1174.2732	22406.6	21489.05
865.0974	1176.2081	22637.75	21718.65
865.2421	1178.1421	22886.55	21965.9
865.3869	1180.0755	23116.5	22200.1
865.5317	1182.0082	23180.7	22263.35
865.6764	1183.9401	23219.4	22304.3
865.8212	1185.8713	23079	22164.05
865.9659	1187.8017	22831.5	21923.45
866.1106	1189.7315	22596.65	21693.1
866.2554	1191.6605	22223.6	21319.05
866.4001	1193.5888	22022.95	21114.85
866.5448	1195.5163	21925.45	21015.15
866.6895	1197.4432	21819.2	20903.45
866.8342	1199.3693	21747.7	20834.55
866.9789	1201.2947	21680.7	20754.75
867.1236	1203.2193	21627.5	20710.6
867.2683	1205.1432	21670.65	20751.85
867.413	1207.0664	21606.6	20687.5
867.5576	1208.9889	21669.45	20750.35
867.7023	1210.9106	21697.05	20780.4
867.847	1212.8316	21709.25	20793.15
867.9916	1214.7519	21751.2	20825.1
868.1363	1216.6715	21735.85	20818.85
868.2809	1218.5903	21748.45	20829.5
868.4255	1220.5084	21722.1	20804.95
868.5701	1222.4257	21741.4	20821.75
868.7148	1224.3424	21656.5	20741.75
868.8594	1226.2583	21712.8	20791.85
869.004	1228.1735	21800.3	20883.15
869.1486	1230.0879	21832.4	20914.1
869.2932	1232.0016	21955.45	21039.25
869.4377	1233.9146	21964.05	21046.05
869.5823	1235.8269	21866.2	20950.9
869.7269	1237.7384	21772.4	20859.1
869.8715	1239.6492	21557.85	20640.45
870.016	1241.5592	21469.75	20550.15
870.1606	1243.4686	21370.3	20454.6
870.3051	1245.3772	21335.15	20418.6
870.4496	1247.285	21327.35	20410.15
870.5941	1249.1922	21286.8	20372.2
870.7387	1251.0986	21309.35	20393.9
870.8832	1253.0042	21287.6	20371.1
871.0277	1254.9092	21316.4	20401.15
871.1722	1256.8134	21391.4	20477.35
871.3167	1258.7169	21526.95	20609.55
871.4611	1260.6196	21640.9	20725.45
871.6056	1262.5216	21886.15	20970.8
871.7501	1264.4229	22032.4	21118.85
871.8945	1266.3234	22166.85	21248.2
872.039	1268.2232	22249.85	21329.05
872.1834	1270.1223	22222.5	21304.4
872.3278	1272.0207	22183.25	21265
872.4723	1273.9183	22178.65	21254.9
872.6167	1275.8151	22058.9	21144.3
872.7611	1277.7113	21990.8	21074.85
872.9055	1279.6067	21831.85	20918.85
873.0499	1281.5014	21765.75	20848
873.1943	1283.3953	21744.25	20826.2
873.3386	1285.2885	21786.75	20870.15
873.483	1287.181	21864.35	20949.1
873.6274	1289.0727	21996.95	21081.3
873.7717	1290.9637	22081.15	21164.9
873.9161	1292.854	22206.5	21290.3
874.0604	1294.7435	22306.3	21390.5
874.2047	1296.6323	22453	21537
874.349	1298.5204	22626.45	21708.05
874.4933	1300.4077	22810.7	21890.45
874.6376	1302.2943	22959.7	22043.3
874.7819	1304.1802	22959.5	22043.45
874.9262	1306.0653	22810.75	21894.35
875.0705	1307.9497	22554.15	21639.55
875.2147	1309.8333	22385.95	21471.1
875.359	1311.7162	22267.5	21350.6
875.5032	1313.5984	22288.05	21369.9
875.6475	1315.4798	22260.25	21335.4
875.7917	1317.3605	22346.05	21412.15
875.9359	1319.2405	22385.55	21466.6
876.0801	1321.1197	22332.7	21412.35
876.2243	1322.9982	22189.15	21267.4
876.3685	1324.876	22042.1	21125.7
876.5127	1326.753	21920.75	21004.1
876.6569	1328.6293	21931.15	21012.75
876.801	1330.5048	21933.75	21013.95
876.9452	1332.3796	21829.05	20912.2
877.0893	1334.2537	21799.2	20858.1
877.2335	1336.127	21726.3	20809.85
877.3776	1337.9996	21680.2	20765.2
877.5217	1339.8714	21667.4	20750.5
877.6658	1341.7426	21649.4	20692.95
877.8099	1343.6129	21577.1	20659.95
877.954	1345.4826	21530.55	20616.4
878.0981	1347.3515	21495.95	20578.65
878.2422	1349.2196	21417.75	20498.8
878.3862	1351.087	21459.8	20546.3
878.5303	1352.9537	21503.85	20587.1
878.6743	1354.8197	21621.3	20705.4
878.8184	1356.6849	21769.4	20850.95
878.9624	1358.5493	21830.55	20912.4
879.1064	1360.4131	21848.1	20933.05
879.2504	1362.276	21824.1	20912.4
879.3944	1364.1383	21677.05	20761.85
879.5384	1365.9998	21422.95	20500.2
879.6823	1367.8606	21083.5	20168.45
879.8263	1369.7206	20769.85	19852.85
879.9702	1371.5799	20533.25	19616.25
880.1142	1373.4384	20311.95	19399.05
880.2581	1375.2962	20175.4	19259.8
880.402	1377.1533	19880.8	18964.75
880.5459	1379.0096	19534.95	18620.25
880.6898	1380.8652	19251.8	18337.9
880.8337	1382.7201	18949.4	18033.75
880.9776	1384.5742	18682.35	17767.2
881.1215	1386.4275	18521.15	17600.85
881.2653	1388.2802	18352.8	17436.15
881.4092	1390.132	18204	17288.65
881.553	1391.9832	18157.7	17240.85
881.6968	1393.8336	18003.15	17086.35
881.8406	1395.6832	17983.85	17063.85
881.9844	1397.5322	17895	16980.45
882.1282	1399.3803	17864.85	16942.2
882.272	1401.2278	17787.45	16871.9
882.4158	1403.0745	17798.1	16885.95
882.5595	1404.9204	17712.2	16798.15
882.7033	1406.7656	17727.65	16813.55
882.847	1408.6101	17686.15	16770.3
882.9908	1410.4538	17671.9	16760
883.1345	1412.2968	17739.1	16827.55
883.2782	1414.139	17710.45	16797.65
883.4219	1415.9805	17782.5	16869.55
883.5656	1417.8213	17802.75	16880.75
883.7092	1419.6613	17915.4	17001.2
883.8529	1421.5006	18069.45	17153.65
883.9965	1423.3391	18289.6	17376
884.1402	1425.1769	18577.05	17661.35
884.2838	1427.0139	19041.3	18125.25
884.4274	1428.8502	19596.25	18683.35
884.571	1430.6858	20118.15	19206.35
884.7146	1432.5206	20438.4	19525.8
884.8582	1434.3547	20678	19761.15
885.0018	1436.188	20684.85	19769.2
885.1453	1438.0206	20585.25	19670.65
885.2889	1439.8524	20423.45	19508.95
885.4324	1441.6835	20308.8	19394.65
885.5759	1443.5139	20182.25	19263.55
885.7194	1445.3435	20072.4	19160.85
885.8629	1447.1724	20044.45	19131.4
886.0064	1449.0005	19988.45	19074.7
886.1499	1450.8279	19887.15	18974.15
886.2933	1452.6545	19819	18905.45
886.4368	1454.4804	19808.45	18896.95
886.5802	1456.3056	19829.55	18910.15
886.7237	1458.13	19725.95	18818.35
886.8671	1459.9536	19518.45	18606.55
887.0105	1461.7766	19149.05	18235.5
887.1539	1463.5987	18761.6	17848.75
887.2972	1465.4202	18381.6	17465.4
887.4406	1467.2409	18023.35	17106.75
887.584	1469.0608	17725	16812.4
887.7273	1470.88	17449.25	16537.2
887.8706	1472.6984	17207.5	16292.9
888.0139	1474.5161	16940.85	16025.3
888.1572	1476.3331	16795.3	15884.45
888.3005	1478.1493	16662.2	15750.2
888.4438	1479.9648	16576.75	15664.8
888.5871	1481.7795	16461.85	15549.25
888.7303	1483.5935	16413.7	15500.2
888.8736	1485.4067	16323.25	15410.25
889.0168	1487.2192	16252.6	15339.55
889.16	1489.031	16247.3	15333
889.3032	1490.842	16110.9	15200.95
889.4464	1492.6522	16110.8	15197.75
889.5896	1494.4618	16047.9	15134.55
889.7327	1496.2705	16028.2	15118.2
889.8759	1498.0785	15960.55	15049.65
890.019	1499.8858	15903.6	14990.45
890.1622	1501.6924	15882.35	14971.3
890.3053	1503.4981	15839.15	14927
890.4484	1505.3032	15794.15	14882.75
890.5914	1507.1075	15735.25	14822.1
890.7345	1508.911	15663.3	14752.3
890.8776	1510.7138	15624.8	14713.2
891.0206	1512.5159	15543.4	14630.05
891.1637	1514.3172	15504.75	14593.35
891.3067	1516.1178	15397.25	14486.45
891.4497	1517.9176	15393.25	14482
891.5927	1519.7166	15326.45	14416.65
891.7357	1521.515	15268.55	14351.3
891.8786	1523.3126	15258.15	14348.85
892.0216	1525.1094	15209.35	14296.35
892.1645	1526.9055	15148.85	14239.95
892.3074	1528.7008	15086.65	14176.4
892.4503	1530.4954	14996.45	14087.25
892.5932	1532.2893	14962.8	14054.05
892.7361	1534.0824	14915.15	14002.35
892.879	1535.8747	14887.35	13980.45
893.0218	1537.6663	14838.25	13931.5
893.1647	1539.4572	14809.75	13901.45
893.3075	1541.2473	14816.8	13908.3
893.4503	1543.0367	14762.05	13855.05
893.5931	1544.8253	14733.6	13821.8
893.7359	1546.6132	14723.75	13811.25
893.8787	1548.4003	14697.3	13777.45
894.0214	1550.1867	14689.3	13773.55
894.1642	1551.9723	14705.25	13794.1
894.3069	1553.7572	14745.6	13835.55
894.4496	1555.5414	14743.05	13837.1
894.5923	1557.3247	14792.25	13887.85
894.735	1559.1074	14820.95	13918.5
894.8777	1560.8893	14888.2	13985
895.0204	1562.6705	14941.7	14037.3
895.163	1564.4509	15015.05	14112.6
895.3056	1566.2305	15011.55	14111.05
895.4482	1568.0094	15081.95	14181.55
895.5908	1569.7876	15104.9	14201.85
895.7334	1571.565	15121.35	14217.5
895.876	1573.3417	15106.25	14201.5
896.0186	1575.1176	15087.9	14184.3
896.1611	1576.8928	14992	14091.5
896.3036	1578.6672	14919.8	14021.3
896.4461	1580.4409	14812.85	13916.75
896.5886	1582.2138	14700.55	13798.45
896.7311	1583.986	14586.7	13684.95
896.8736	1585.7575	14506.35	13604.9
897.0161	1587.5282	14436.4	13537.45
897.1585	1589.2981	14414.2	13518.35
897.3009	1591.0673	14308.55	13412.35
897.4433	1592.8358	14340.5	13443.5
897.5857	1594.6035	14319.25	13417.65
897.7281	1596.3704	14320.7	13419.55
897.8705	1598.1366	14358.1	13458.2
898.0128	1599.9021	14416.5	13519.15
898.1551	1601.6668	14424.25	13522.2
898.2975	1603.4308	14489.1	13587.25
898.4398	1605.194	14588.15	13686
898.5821	1606.9564	14634	13738.75
898.7243	1608.7182	14807.8	13912.95
898.8666	1610.4791	14946.4	14057.15
899.0088	1612.2394	15090.65	14201.8
899.1511	1613.9988	15243.7	14352.9
899.2933	1615.7576	15452.95	14560.1
899.4355	1617.5156	15673.95	14768.75
899.5776	1619.2728	15861.85	14960.9
899.7198	1621.0293	15922	15025.45
899.862	1622.785	15927.5	15026.6
900.0041	1624.54	15748.45	14849.95
900.1462	1626.2942	15564.75	14670.55
900.2883	1628.0477	15293.05	14396.95
900.4304	1629.8005	15067.2	14169.2
900.5725	1631.5525	14849.2	13955.05
900.7145	1633.3037	14621.2	13727.2
900.8566	1635.0542	14467.25	13574.3
900.9986	1636.804	14364.3	13468.05
901.1406	1638.553	14328.7	13360.9
901.2826	1640.3013	14250.95	13356.3
901.4245	1642.0488	14209.3	13312.8
901.5665	1643.7955	14200.55	13308.85
901.7085	1645.5416	14226.35	13333.45
901.8504	1647.2868	14309.4	13414.75
901.9923	1649.0313	14396.7	13501.65
902.1342	1650.7751	14501.15	13602.5
902.2761	1652.5181	14603.7	13710.65
902.4179	1654.2604	14791.8	13898.4
902.5598	1656.0019	15069.25	14177.2
902.7016	1657.7427	15336.4	14442.55
902.8434	1659.4828	15643.45	14750.25
902.9852	1661.222	15763	14867.15
903.127	1662.9606	15746.6	14852.05
903.2687	1664.6984	15524.65	14630.75
903.4105	1666.4354	15149.65	14253.35
903.5522	1668.1717	14609.9	13713.45
903.6939	1669.9072	14066.65	13171.05
903.8356	1671.642	13639.65	12740.8
903.9773	1673.3761	13265.7	12370.1
904.119	1675.1094	12954.1	12060.25
904.2606	1676.8419	12733.75	11842.05
904.4022	1678.5737	12522.75	11628.5
904.5439	1680.3048	12370.7	11474.8
904.6855	1682.0351	12250.3	11353.3
904.827	1683.7646	12136.75	11238.95
904.9686	1685.4934	12065.25	11172.2
905.1101	1687.2215	11978.35	11082.65
905.2517	1688.9488	11873.6	10982.75
905.3932	1690.6754	11796.15	10903.1
905.5347	1692.4012	11776	10883.25
905.6761	1694.1263	11707.25	10811.3
905.8176	1695.8506	11640.6	10746.1
905.9591	1697.5742	11577.2	10685
906.1005	1699.297	11527.3	10635.45
906.2419	1701.0191	11478	10587.15
906.3833	1702.7404	11429.65	10539
906.5246	1704.461	11358.25	10465.65
906.666	1706.1808	11323.7	10429.15
906.8073	1707.8999	11270.45	10378.85
906.9487	1709.6182	11241.8	10352.3
907.09	1711.3358	11184.05	10294.15
907.2313	1713.0527	11145.95	10260.4
907.3725	1714.7688	11100.2	10205.3
907.5138	1716.4841	11055.6	10164.65
907.655	1718.1987	11044.4	10146.55
907.7962	1719.9126	10979.75	10091.55
907.9374	1721.6257	10934	10042.4
908.0786	1723.338	10910.05	10022.05
908.2198	1725.0496	10840.65	9948.95
908.3609	1726.7605	10838.5	9947.5
908.502	1728.4706	10807.9	9915.8
908.6431	1730.18	10742.9	9852.4
908.7842	1731.8886	10702.2	9815.7
908.9253	1733.5964	10677.6	9769.25
909.0664	1735.3036	10657.4	9766.1
909.2074	1737.0099	10629.45	9739.2
909.3484	1738.7156	10600.35	9713.65
909.4894	1740.4204	10570.5	9678.95
909.6304	1742.1246	10525.5	9634.2
909.7714	1743.8279	10475.2	9587.7
909.9123	1745.5306	10488.75	9601.9
910.0532	1747.2325	10410.35	9523
910.1941	1748.9336	10352.3	9465.7
910.335	1750.634	10308.4	9419.1
910.4759	1752.3336	10298.85	9411.65
910.6168	1754.0325	10283.7	9397.8
910.7576	1755.7307	10267.8	9379.55
910.8984	1757.4281	10250.05	9361.85
911.0392	1759.1247	10233.85	9337.2
911.18	1760.8206	10215.2	9319.4
911.3208	1762.5158	10190.25	9296.6
911.4615	1764.2102	10170.35	9281.3
911.6022	1765.9039	10119.05	9233.35
911.7429	1767.5968	10063.75	9177.85
911.8836	1769.289	10058.3	9171.25
912.0243	1770.9804	10044.6	9154.45
912.1649	1772.6711	10016.1	9125
912.3056	1774.361	9981.75	9089.45
912.4462	1776.0502	9981.15	9092.05
912.5868	1777.7386	9960.5	9069.75
912.7274	1779.4263	9899.5	9011.95
912.8679	1781.1132	9921.5	9036.95
913.0084	1782.7994	9859.9	8973.4
913.149	1784.4849	9854.05	8966.1
913.2895	1786.1696	9830.55	8936.95
913.4299	1787.8535	9799.2	8911.55
913.5704	1789.5367	9785.2	8900.75
913.7108	1791.2192	9769.95	8884.85
913.8513	1792.9009	9726.45	8811.2
913.9917	1794.5818	9691.7	8799.2
914.132	1796.2621	9676.55	8790.4
914.2724	1797.9415	9639.4	8751.15
914.4128	1799.6202	9601.65	8712.6
914.5531	1801.2982	9596.85	8707.65
914.6934	1802.9755	9591.4	8702.15
914.8337	1804.6519	9572.25	8684.05
914.9739	1806.3277	9509.65	8622.9
915.1142	1808.0027	9512.15	8626.2
915.2544	1809.6769	9478.85	8592.35
915.3946	1811.3504	9449.15	8564.2
915.5348	1813.0231	9429.55	8545.75
915.675	1814.6951	9420.55	8534.2
915.8151	1816.3664	9415.3	8526.2
915.9553	1818.0369	9367	8477.35
916.0954	1819.7067	9353.9	8467.05
916.2355	1821.3757	9313.85	8423
916.3755	1823.044	9332.4	8446
916.5156	1824.7115	9289.65	8400.2
916.6556	1826.3783	9238.7	8349
916.7956	1828.0443	9202.15	8316.8
916.9356	1829.7096	9196.35	8306.3
917.0756	1831.3741	9195.8	8307.1
917.2155	1833.0379	9165.1	8278.05
917.3555	1834.701	9128.25	8240.35
917.4954	1836.3633	9136.25	8250.2
917.6353	1838.0248	9097.55	8210.6
917.7751	1839.6856	9101.3	8216.15
917.915	1841.3457	9062.8	8176.75
918.0548	1843.005	9037.2	8148.65
918.1946	1844.6636	9024.9	8135.7
918.3344	1846.3214	9002.6	8113.2
918.4742	1847.9785	8993.3	8106.15
918.6139	1849.6349	8972.7	8084.25
918.7537	1851.2904	8981.05	8082.6
918.8934	1852.9453	8941.35	8053.05
919.0331	1854.5994	8912.25	8020.9
919.1727	1856.2528	8913.05	8020
919.3124	1857.9054	8855.65	7966.3
919.452	1859.5572	8884.55	7997.05
919.5916	1861.2083	8861.3	7973.1
919.7312	1862.8587	8826.3	7939.3
919.8708	1864.5084	8824.7	7934.6
920.0103	1866.1572	8797.4	7909.55
920.1498	1867.8054	8747	7857.6
920.2893	1869.4528	8714.35	7827.3
920.4288	1871.0994	8726.45	7838
920.5683	1872.7453	8703.65	7813.45
920.7077	1874.3905	8698.8	7796.5
920.8471	1876.0349	8666.55	7778.75
920.9865	1877.6786	8643.05	7755.5
921.1259	1879.3215	8636.4	7750.6
921.2653	1880.9637	8618.4	7729.65
921.4046	1882.6051	8575.75	7688.15
921.5439	1884.2458	8549.85	7661.6
921.6832	1885.8858	8519.95	7633.05
921.8225	1887.525	8512.7	7623.8
921.9617	1889.1634	8490.65	7600.9
922.101	1890.8011	8436.5	7546.5
922.2402	1892.4381	8420.05	7531.6
922.3794	1894.0743	8398.05	7511.45
922.5185	1895.7098	8403.35	7516.8
922.6577	1897.3446	8390.8	7503.15
922.7968	1898.9786	8344.35	7450.85
922.9359	1900.6118	8366.25	7479.2
923.075	1902.2443	8309.45	7422.65
923.214	1903.8761	8309.3	7424.05
923.3531	1905.5071	8273.25	7385.85
923.4921	1907.1374	8228.45	7342.65
923.6311	1908.7669	8222.1	7334.1
923.77	1910.3957	8198.75	7311.85
923.909	1912.0237	8154.95	7269.35
924.0479	1913.651	8143.2	7256.55
924.1868	1915.2776	8114.1	7228.9
924.3257	1916.9034	8080.05	7194.2
924.4646	1918.5285	8046.35	7160.4
924.6034	1920.1528	8025.3	7139
924.7422	1921.7764	8007.8	7121.8
924.881	1923.3992	7979.55	7093.4
925.0198	1925.0213	7910.25	7023.45
925.1586	1926.6427	7890.1	7003.4
925.2973	1928.2633	7940.85	6962.7
925.436	1929.8832	7871.4	6983.85
925.5747	1931.5023	7832.1	6946.65
925.7134	1933.1207	7830.05	6942.4
925.852	1934.7383	7791.85	6903.9
925.9906	1936.3552	7769.9	6884.05
926.1292	1937.9714	7750.15	6863.55
926.2678	1939.5868	7731.85	6842.4
926.4064	1941.2015	7668.7	6779.6
926.5449	1942.8154	7653.5	6766.65
926.6834	1944.4286	7637.4	6749.4
926.8219	1946.041	7613.25	6702.7
926.9604	1947.6528	7579.15	6688.3
927.0988	1949.2637	7554.05	6666.45
927.2372	1950.8739	7535.7	6649.45
927.3756	1952.4834	7520.25	6634
927.514	1954.0921	7484.25	6599.7
927.6523	1955.7001	7487.2	6597.9
927.7907	1957.3074	7466.5	6581.25
927.929	1958.9139	7418.35	6533.25
928.0673	1960.5197	7383.65	6495.6
928.2055	1962.1247	7371.2	6487.45
928.3438	1963.729	7333.1	6451.1
928.482	1965.3325	7296.15	6407.4
928.6202	1966.9353	7280.1	6396.9
928.7584	1968.5374	7244.65	6360.75
928.8965	1970.1387	7214.95	6328.9
929.0346	1971.7393	7222.6	6337.7
929.1727	1973.3392	7164.25	6280.4
929.3108	1974.9383	7148.75	6266.1
929.4489	1976.5366	7134.15	6252.65
929.5869	1978.1342	7127.4	6246.8
929.7249	1979.7311	7132.15	6247.35
929.8629	1981.3273	7106	6224.2
930.0009	1982.9227	7053.85	6169.3
930.1388	1984.5173	7044.75	6163.85
930.2767	1986.1112	6995.35	6111.95
930.4146	1987.7044	6986.7	6103.2
930.5525	1989.2968	6979.25	6096.15
930.6904	1990.8885	6958.45	6074.35
930.8282	1992.4795	6952.8	6072.2
930.966	1994.0697	6945.35	6063.4
931.1038	1995.6592	6900.75	6017.8
931.2415	1997.2479	6880.15	5999.1
931.3793	1998.8359	6861.55	5978.85
931.517	2000.4232	6841.5	5963.7
931.6547	2002.0097	6810.65	5932.7
931.7923	2003.5955	6783.9	5902.05
931.93	2005.1805	6763.6	5881.8
932.0676	2006.7648	6767.25	5888.35
932.2052	2008.3484	6738.55	5858.55
932.3427	2009.9312	6746.7	5867.25
932.4803	2011.5133	6724.75	5846.2
932.6178	2013.0946	6691.5	5813.5
932.7553	2014.6752	6673.5	5794.85
932.8928	2016.2551	6664	5783.15
933.0302	2017.8342	6624.1	5744.3
933.1676	2019.4126	6633.1	5756
933.305	2020.9902	6589.4	5712
933.4424	2022.5672	6575.7	5697.55
933.5798	2024.1433	6561.45	5678.45
933.7171	2025.7188	6542.65	5667.6
933.8544	2027.2935	6523.2	5643.05
933.9917	2028.8674	6512.3	5633.55
934.129	2030.4406	6492.2	5615.75
934.2662	2032.0131	6433.35	5556.6
934.4034	2033.5849	6434.2	5554.5
934.5406	2035.1559	6436.65	5559.65
934.6778	2036.7261	6435.25	5557.1
934.8149	2038.2957	6420.35	5541.3
934.952	2039.8645	6384.65	5503.85
935.0891	2041.4325	6402.2	5518.95
935.2262	2042.9998	6361.05	5481.8
935.3632	2044.5664	6340.35	5457.5
935.5002	2046.1323	6327.6	5449.65
935.6372	2047.6974	6297.25	5416.65
935.7742	2049.2617	6293.15	5414.8
935.9111	2050.8254	6306.35	5406
936.048	2052.3883	6279.6	5400.3
936.1849	2053.9504	6263.05	5382.1
936.3218	2055.5118	6210.7	5329
936.4586	2057.0725	6201.1	5316.5
936.5955	2058.6325	6204.45	5324.7
936.7323	2060.1917	6195.5	5315.75
936.869	2061.7502	6153.95	5274.6
937.0058	2063.3079	6133.25	5254.05
937.1425	2064.8649	6133.4	5252.55
937.2792	2066.4212	6108.35	5227.8
937.4159	2067.9767	6107.55	5228.4
937.5525	2069.5315	6065.15	5185.85
937.6891	2071.0856	6041	5160.35
937.8257	2072.6389	6026.45	5149.5
937.9623	2074.1915	6007.75	5130.6
938.0989	2075.7433	5969.1	5089.4
938.2354	2077.2945	5987.2	5109.25
938.3719	2078.8448	5947.9	5068.6
938.5084	2080.3945	5920.35	5040
938.6448	2081.9434	5924.15	5042.15
938.7812	2083.4916	5908.8	5026.65
938.9176	2085.039	5877.1	4990.9
939.054	2086.5857	5885.2	4997.6
939.1903	2088.1317	5860.25	4974.55
939.3267	2089.677	5849.4	4961.95
939.463	2091.2215	5831.9	4947.2
939.5992	2092.7652	5823.45	4937.3
939.7355	2094.3083	5800.85	4914.9
939.8717	2095.8506	5791.8	4909.75
940.0079	2097.3921	5792.45	4911.8
940.1441	2098.933	5748.2	4865.5
940.2802	2100.4731	5750.65	4866.65
940.4163	2102.0124	5765.45	4875.8
940.5524	2103.5511	5748.45	4866.55
940.6885	2105.089	5714.3	4829.8
940.8245	2106.6261	5712.35	4829.6
940.9606	2108.1626	5683.55	4801.1
941.0965	2109.6983	5712.55	4800.15
941.2325	2111.2332	5660.75	4777.5
941.3684	2112.7675	5649.25	4766.45
941.5044	2114.301	5661.2	4776.25
941.6403	2115.8337	5619.85	4736.85
941.7761	2117.3657	5598.2	4714.35
941.912	2118.897	5613.9	4729.75
942.0478	2120.4276	5595.75	4707.65
942.1835	2121.9575	5564.1	4679.15
942.3193	2123.4866	5565.5	4666.3
942.455	2125.0149	5535.25	4648.5
942.5907	2126.5426	5519.4	4639.1
942.7264	2128.0695	5505.3	4620.4
942.8621	2129.5956	5492	4614.55
942.9977	2131.1211	5488.9	4602.65
943.1333	2132.6458	5459.4	4578.35
943.2689	2134.1698	5446.3	4563.45
943.4044	2135.693	5448.45	4562.05
943.54	2137.2155	5450.25	4564
943.6755	2138.7373	5411.85	4529.85
943.8109	2140.2584	5425.8	4543.5
943.9464	2141.7787	5394.2	4508.7
944.0818	2143.2983	5358.2	4479.55
944.2172	2144.8171	5363.25	4484.6
944.3526	2146.3353	5333.65	4452
944.4879	2147.8527	5318.5	4437.85
944.6232	2149.3693	5302.75	4420.8
944.7585	2150.8853	5304	4418.9
944.8938	2152.4005	5285.8	4400.3
945.029	2153.9149	5278.65	4393.8
945.1642	2155.4287	5254.9	4370.25
945.2994	2156.9417	5242.3	4357.95
945.4346	2158.454	5232.2	4347.25
945.5697	2159.9655	5197.45	4316.1
945.7048	2161.4764	5204.8	4323.4
945.8399	2162.9865	5183.2	4302.15
945.9749	2164.4958	5164.3	4282.65
946.1099	2166.0045	5167.35	4286.65
946.2449	2167.5124	5154.95	4274.25
946.3799	2169.0195	5146.25	4264.4
946.5148	2170.526	5132.1	4248.55
946.6498	2172.0317	5133.75	4248.7
946.7846	2173.5367	5111.3	4227.65
946.9195	2175.0409	5106.15	4223.4
947.0543	2176.5445	5092.7	4209.05
947.1891	2178.0473	5075	4191.4
947.3239	2179.5494	5055.85	4169.85
947.4587	2181.0507	5039.7	4157.7
947.5934	2182.5513	5017.55	4135.7
947.7281	2184.0512	5021.75	4139.45
947.8628	2185.5504	5000.9	4117.4
947.9974	2187.0488	4973.75	4091.65
948.132	2188.5465	4971.6	4092
948.2666	2190.0435	4955.2	4073.1
948.4012	2191.5397	4959.6	4075.4
948.5357	2193.0353	4942.6	4057
948.6702	2194.5301	4916.95	4033.15
948.8047	2196.0241	4897.6	4009.3
948.9392	2197.5175	4904.85	4018.3
949.0736	2199.0101	4875.6	3987.85
949.208	2200.502	4843.6	3959.2
949.3424	2201.9931	4829.75	3947.55
949.4767	2203.4835	4814.2	3934.05
949.611	2204.9733	4808.3	3920.6
949.7453	2206.4622	4770.65	3891.2
949.8796	2207.9505	4766.45	3882.8
950.0138	2209.438	4753.05	3873.05
950.148	2210.9248	4732.95	3849.95
950.2822	2212.4109	4735.25	3852.65
950.4164	2213.8962	4715.55	3831.2
950.5505	2215.3809	4702	3815.1
950.6846	2216.8648	4693.85	3807.1
950.8186	2218.3479	4695	3803.65
950.9527	2219.8304	4699.45	3811.2
951.0867	2221.3121	4661.1	3772.95
951.2207	2222.7931	4655.4	3769.75
951.3546	2224.2733	4618.05	3731.05
951.4886	2225.7529	4617.1	3733.6
951.6225	2227.2317	4609.95	3725.55
951.7563	2228.7098	4606.2	3722.9
951.8902	2230.1872	4573.4	3694.15
952.024	2231.6638	4570.4	3689.4
952.1578	2233.1397	4562.35	3675.5
952.2916	2234.6149	4539.55	3658.7
952.4253	2236.0894	4538.35	3655.4
952.559	2237.5632	4533.2	3641.45
952.6927	2239.0362	4508.8	3626.85
952.8263	2240.5085	4500	3617.55
952.9599	2241.9801	4469	3585.15
953.0935	2243.4509	4476.55	3592.65
953.2271	2244.921	4454.2	3570.1
953.3606	2246.3904	4443.95	3555.2
953.4941	2247.8591	4435.25	3550.35
953.6276	2249.3271	4414.65	3529.85
953.7611	2250.7943	4385.6	3498.85
953.8945	2252.2608	4375.2	3491.9
954.0279	2253.7266	4388.5	3504.15
954.1612	2255.1917	4375.05	3491.1
954.2946	2256.656	4354.35	3471.7
954.4279	2258.1197	4331.45	3448.1
954.5612	2259.5826	4342.35	3457.55
954.6944	2261.0447	4319	3433.8
954.8276	2262.5062	4311.8	3421.5
954.9608	2263.9669	4313.25	3427.4
955.094	2265.4269	4314.1	3428.35
955.2271	2266.8862	4287.6	3402.95
955.3602	2268.3448	4279.8	3394.4
955.4933	2269.8026	4269	3386.55
955.6264	2271.2598	4254.65	3374.65
955.7594	2272.7162	4252.6	3370.55
955.8924	2274.1719	4252.2	3365.6
956.0253	2275.6268	4229.1	3344.2
956.1583	2277.0811	4219.8	3334.35
956.2912	2278.5346	4194.45	3311.15
956.4241	2279.9874	4210.1	3326.85
956.5569	2281.4395	4186.95	3304.8
956.6897	2282.8908	4194.05	3308.65
956.8225	2284.3414	4174.2	3288.65
956.9553	2285.7914	4159	3277.65
957.088	2287.2406	4141.2	3256.1
957.2207	2288.689	4144.25	3257.8
957.3534	2290.1368	4140.35	3251.1
957.486	2291.5838	4126.4	3237.2
957.6186	2293.0302	4114.1	3224.55
957.7512	2294.4758	4109.35	3224.15
957.8838	2295.9206	4070.75	3184.05
958.0163	2297.3648	4068.9	3186.3
958.1488	2298.8082	4077.2	3191.8
958.2813	2300.251	4059.4	3173.55
958.4137	2301.693	4038.65	3149.35
958.5461	2303.1343	4047.7	3161.05
958.6785	2304.5748	4035.8	3152.25
958.8108	2306.0147	4018.35	3134.4
958.9432	2307.4538	4016.7	3131.15
959.0754	2308.8922	3997.15	3117.7
959.2077	2310.3299	3982.15	3098.9
959.3399	2311.7669	3982.6	3101.75
959.4721	2313.2031	3962.95	3080.15
959.6043	2314.6387	3952.5	3069.2
959.7365	2316.0735	3938.6	3054.4
959.8686	2317.5076	3937	3050
960.0006	2318.941	3930.7	3046
960.1327	2320.3737	3922.15	3034.1
960.2647	2321.8056	3907.3	3018.8
960.3967	2323.2369	3900.6	3016.15
960.5287	2324.6674	3892	3006.45
960.6606	2326.0972	3878.8	2994.4
960.7925	2327.5263	3867.85	2984.45
960.9244	2328.9547	3869.25	2982.95
961.0562	2330.3823	3854.7	2969.35
961.1881	2331.8092	3846.95	2955.85
961.3198	2333.2355	3832.6	2946.85
961.4516	2334.661	3818.75	2933.65
961.5833	2336.0858	3789	2901.15
961.715	2337.5098	3796.35	2912.3
961.8467	2338.9332	3792.75	2908.5
961.9783	2340.3558	3788.7	2900.45
962.1099	2341.7778	3776.25	2891.5
962.2415	2343.199	3756.3	2870.05
962.373	2344.6195	3756.15	2872.8
962.5045	2346.0393	3754	2872.7
962.636	2347.4583	3758.05	2874.15
962.7675	2348.8767	3754.3	2869.35
962.8989	2350.2943	3743.55	2856.35
963.0303	2351.7113	3734.1	2844.25
963.1617	2353.1275	3716.3	2830.4
963.293	2354.543	3707.4	2811.35
963.4243	2355.9578	3703.6	2819.5
963.5556	2357.3718	3689.55	2807.4
963.6868	2358.7852	3673.15	2789.25
963.818	2360.1978	3654.95	2771.25
963.9492	2361.6098	3659.1	2776.2
964.0803	2363.021	3645.55	2757.95
964.2114	2364.4315	3644.05	2761.85
964.3425	2365.8413	3628	2743.3
964.4736	2367.2504	3616.85	2733.35
964.6046	2368.6587	3587.95	2705
964.7356	2370.0664	3577.45	2697.05
964.8666	2371.4733	3583.15	2699.95
964.9975	2372.8795	3583	2701.8
965.1284	2374.285	3559.75	2679.2
965.2593	2375.6899	3544.7	2662.95
965.3901	2377.0939	3534.65	2653.1
965.5209	2378.4973	3526.55	2646.7
965.6517	2379.9	3528.1	2645.55
965.7825	2381.3019	3521.55	2642.15
965.9132	2382.7032	3516.05	2633.85
966.0439	2384.1037	3491	2611.4
966.1745	2385.5035	3478.2	2595.6
966.3051	2386.9027	3480.4	2602.6
966.4357	2388.3011	3467.35	2584.55
966.5663	2389.6987	3458.3	2575.8
966.6968	2391.0957	3448.15	2568.65
966.8273	2392.492	3439.9	2561.95
966.9578	2393.8876	3429.6	2549.65
967.0882	2395.2824	3431.55	2551
967.2186	2396.6765	3400.85	2519.95
967.349	2398.07	3390.75	2509.15
967.4793	2399.4627	3398.6	2517.25
967.6097	2400.8547	3385.25	2502.25
967.7399	2402.246	3383	2495.4
967.8702	2403.6366	3347.9	2468.45
968.0004	2405.0265	3327.25	2448.45
968.1306	2406.4156	3332.85	2449.55
968.2607	2407.8041	3329.4	2443.7
968.3909	2409.1918	3327.95	2445.55
968.521	2410.5789	3310.85	2429.6
968.651	2411.9652	3299.35	2415.55
968.781	2413.3508	3293.7	2413.15
968.911	2414.7358	3279.9	2398.1
969.041	2416.12	3273.7	2392.8
969.1709	2417.5035	3269.7	2389.2
969.3008	2418.8863	3262.25	2381.05
969.4307	2420.2684	3250.7	2367.95
969.5606	2421.6497	3234.9	2353.65
969.6904	2423.0304	3213.05	2333.05
969.8201	2424.4104	3203.05	2319.95
969.9499	2425.7896	3223.4	2340.15
970.0796	2427.1682	3204.4	2325.55
970.2093	2428.546	3204.8	2323.2
970.3389	2429.9232	3189.4	2306.65
970.4685	2431.2996	3195.75	2316.15
970.5981	2432.6753	3181.85	2299.75
970.7277	2434.0503	3175.9	2293.8
970.8572	2435.4246	3174.75	2293.8
970.9867	2436.7982	3145.05	2260.9
971.1161	2438.1711	3143.4	2262.7
971.2456	2439.5433	3142.35	2260.45
971.375	2440.9148	3133.85	2247.45
971.5043	2442.2856	3124.3	2243.1
971.6336	2443.6557	3118.5	2235.5
971.7629	2445.025	3109.85	2228.5
971.8922	2446.3937	3103.9	2220.45
972.0214	2447.7617	3089.85	2207.7
972.1506	2449.1289	3096.45	2213.05
972.2798	2450.4955	3081.65	2199.05
972.4089	2451.8613	3065.65	2185.6
972.538	2453.2265	3059.45	2175.8
972.6671	2454.5909	3063.45	2179.75
972.7961	2455.9546	3054.05	2172.6
972.9251	2457.3177	3031.8	2151.25
973.0541	2458.68	3040.2	2157.05
973.1831	2460.0416	3040.1	2157.4
973.312	2461.4025	3036.95	2156.65
973.4408	2462.7627	3024.6	2132.35
973.5697	2464.1222	3015.75	2137.15
973.6985	2465.4811	3005.25	2123.65
973.8273	2466.8392	3001.2	2121.1
973.956	2468.1966	2994.65	2109.9
974.0847	2469.5533	2995.05	2111.5
974.2134	2470.9093	3000.7	2116.5
974.3421	2472.2645	2992.5	2111
974.4707	2473.6191	2978.65	2096.9
974.5993	2474.973	2976.6	2094.5
974.7278	2476.3262	2969.55	2086.3
974.8563	2477.6787	2958.05	2077.65
974.9848	2479.0305	2932.35	2049.95
975.1132	2480.3816	2947.2	2064.3
975.2417	2481.7319	2930.6	2048.6
975.37	2483.0816	2913.25	2030.05
975.4984	2484.4306	2905.65	2022
975.6267	2485.7789	2886.65	2005.25
975.755	2487.1264	2902.5	2019.75
975.8833	2488.4733	2892.1	2012.35
976.0115	2489.8195	2883.15	1993.8
976.1397	2491.165	2871.6	1986.85
976.2678	2492.5097	2859.85	1976.75
976.3959	2493.8538	2851.5	1968.9
976.524	2495.1972	2832.3	1949.65
976.6521	2496.5398	2828	1944.1
976.7801	2497.8818	2838.95	1955.75
976.9081	2499.2231	2827.4	1943.55
977.036	2500.5637	2813.3	1931.2
977.164	2501.9035	2812.05	1927.65
977.2918	2503.2427	2796.5	1911.35
977.4197	2504.5812	2797.25	1915.55
977.5475	2505.919	2793.8	1907.8
977.6753	2507.256	2791.65	1909.75
977.8031	2508.5924	2779.75	1896.3
977.9308	2509.9281	2774.75	1887.65
978.0585	2511.2631	2756.75	1875.05
978.1861	2512.5974	2761.65	1882.6
978.3137	2513.9309	2764.7	1882.05
978.4413	2515.2638	2777.55	1867.35
978.5689	2516.596	2744.1	1862.4
978.6964	2517.9275	2733.25	1850.15
978.8239	2519.2583	2739.05	1855.85
978.9513	2520.5884	2716.75	1832.95
979.0788	2521.9178	2715.5	1831.85
979.2062	2523.2465	2698.2	1814.9
979.3335	2524.5745	2698.45	1817.3
979.4608	2525.9018	2691.9	1808.7
979.5881	2527.2284	2694.4	1814.65
979.7154	2528.5543	2682	1800.4
979.8426	2529.8796	2666.5	1782.35
979.9698	2531.2041	2672.85	1789.6
980.0969	2532.5279	2670.95	1788.25
980.224	2533.851	2669.55	1787.75
980.3511	2535.1735	2651.25	1767.5
980.4781	2536.4952	2662.55	1779.4
980.6052	2537.8163	2642.15	1757.8
980.7321	2539.1366	2644.45	1763.2
980.8591	2540.4562	2638.1	1753.25
980.986	2541.7752	2631.9	1752.6
981.1129	2543.0935	2639.25	1756.1
981.2397	2544.411	2633.95	1749.8
981.3665	2545.7279	2625.4	1741.15
981.4933	2547.0441	2617.95	1735.6
981.62	2548.3596	2631.25	1744
981.7467	2549.6744	2615.2	1732.4
981.8734	2550.9885	2619.5	1730.35
982.0001	2552.3019	2597.8	1717.55
982.1267	2553.6146	2598.55	1715.95
982.2532	2554.9266	2578.65	1695.35
982.3798	2556.2379	2594.2	1710.15
982.5063	2557.5485	2583.2	1702.7
982.6327	2558.8585	2578.15	1688.25
982.7592	2560.1677	2575.25	1686.3
982.8856	2561.4762	2567.75	1685.4
983.0119	2562.7841	2574.25	1689.25
983.1383	2564.0913	2563.8	1680.85
983.2646	2565.3977	2551.5	1668.65
983.3908	2566.7035	2546.25	1663.4
983.517	2568.0086	2546.15	1662.9
983.6432	2569.313	2558.05	1672.5
983.7694	2570.6167	2544.65	1659.35
983.8955	2571.9197	2534.9	1654.5
984.0216	2573.222	2537.75	1652.4
984.1476	2574.5236	2530.2	1647.3
984.2737	2575.8246	2526.5	1639.9
984.3996	2577.1248	2524.8	1638.1
984.5256	2578.4244	2514.9	1632.55
984.6515	2579.7232	2522.5	1641.65
984.7774	2581.0214	2527.8	1617.7
984.9032	2582.3189	2508.1	1624.4
985.029	2583.6157	2508.5	1621.95
985.1548	2584.9118	2514.95	1631.2
985.2806	2586.2072	2491.2	1608.35
985.4063	2587.5019	2500.4	1619
985.5319	2588.7959	2492.35	1609
985.6576	2590.0893	2489.45	1604.4
985.7832	2591.3819	2487.35	1604.9
985.9087	2592.6739	2489.3	1607.8
986.0343	2593.9652	2482.3	1599.1
986.1597	2595.2557	2473.15	1591.65
986.2852	2596.5456	2475.7	1589.35
986.4106	2597.8348	2470.45	1588.45
986.536	2599.1234	2468.35	1585.8
986.6614	2600.4112	2460.05	1575.85
986.7867	2601.6983	2456.55	1573.1
986.912	2602.9848	2448.4	1565.15
987.0372	2604.2705	2453.7	1562.75
987.1624	2605.5556	2454.05	1572.45
987.2876	2606.84	2429.3	1548.5
987.4128	2608.1237	2423.85	1540.9
987.5379	2609.4067	2422.25	1539.9
987.6629	2610.689	2417.75	1526.8
987.788	2611.9707	2407.05	1520.75
987.913	2613.2516	2411.35	1524.65
988.0379	2614.5319	2398.05	1516.7
988.1629	2615.8115	2394.95	1509.65
988.2878	2617.0903	2387.85	1504.5
988.4126	2618.3685	2376.6	1494.2
988.5375	2619.6461	2378.75	1494.65
988.6622	2620.9229	2363.25	1479.5
988.787	2622.199	2362.95	1480.65
988.9117	2623.4745	2367.2	1484.8
989.0364	2624.7493	2358.75	1479.3
989.161	2626.0234	2355.35	1472.85
989.2857	2627.2968	2351.1	1469.7
989.4102	2628.5695	2349.75	1465.05
989.5348	2629.8415	2346.45	1465.2
989.6593	2631.1128	2342.4	1460.15
989.7837	2632.3835	2330.6	1448.3
989.9082	2633.6535	2330.7	1448.1
990.0326	2634.9228	2335.45	1455.6
990.1569	2636.1914	2323.35	1442.7
990.2812	2637.4593	2318.15	1435.2
990.4055	2638.7265	2315.6	1432.6
990.5298	2639.9931	2298.25	1415
990.654	2641.259	2309.1	1424.35
990.7782	2642.5242	2294.1	1410.5
990.9023	2643.7887	2281.85	1398
991.0264	2645.0525	2284.9	1400.6
991.1505	2646.3156	2282.9	1398.3
991.2745	2647.5781	2280.8	1400.2
991.3985	2648.8398	2261.8	1379.9
991.5225	2650.1009	2263.95	1372.6
991.6464	2651.3613	2264.6	1381.45
991.7703	2652.6211	2265.7	1382.5
991.8942	2653.8801	2258.95	1379.25
992.018	2655.1385	2251.25	1364.6
992.1418	2656.3961	2237.85	1356.35
992.2655	2657.6531	2248.05	1367.1
992.3892	2658.9094	2242.9	1359.75
992.5129	2660.1651	2238.15	1356.8
992.6366	2661.42	2243.45	1360.4
992.7602	2662.6743	2235	1352.55
992.8837	2663.9279	2241.55	1360.95
993.0073	2665.1808	2231.4	1348.45
993.1307	2666.433	2223.9	1340.05
993.2542	2667.6846	2226.2	1343.4
993.3776	2668.9354	2236.55	1352.55
993.501	2670.1856	2231.55	1346.95
993.6244	2671.4351	2224.5	1340.3
993.7477	2672.6839	2228.15	1343.45
993.8709	2673.9321	2220.6	1338.3
993.9942	2675.1795	2226.45	1346.35
994.1174	2676.4263	2220.15	1339.15
994.2405	2677.6724	2219.5	1339
994.3637	2678.9179	2220.7	1336.7
994.4868	2680.1626	2218.25	1337.3
994.6098	2681.4067	2212.8	1330.7
994.7328	2682.6501	2215.8	1334.25
994.8558	2683.8928	2206.45	1323.6
994.9788	2685.1348	2200.9	1320.7
995.1017	2686.3761	2186.75	1305.3
995.2245	2687.6168	2180.95	1300.4
995.3474	2688.8568	2173.5	1291.75
995.4702	2690.0961	2171.65	1291.2
995.5929	2691.3348	2170.25	1289.25
995.7156	2692.5727	2157.4	1277.1
995.8383	2693.81	2150.25	1267.25
995.961	2695.0466	2149.75	1268.25
996.0836	2696.2826	2151.9	1270.35
996.2062	2697.5178	2161.5	1258.45
996.3287	2698.7524	2148.7	1268.05
996.4512	2699.9863	2153.8	1268.85
996.5737	2701.2195	2133.45	1251.35
996.6961	2702.452	2137.75	1253.1
996.8185	2703.6839	2148.85	1269.4
996.9408	2704.9151	2139.65	1258.9
997.0631	2706.1456	2147.85	1264.3
997.1854	2707.3755	2158.5	1275.75
997.3077	2708.6046	2150.9	1266.7
997.4299	2709.8331	2160.1	1278.5
997.552	2711.0609	2139.9	1258.3
997.6742	2712.2881	2160.5	1278.7
997.7963	2713.5145	2177.25	1293.2
997.9183	2714.7403	2173.95	1294.25
998.0403	2715.9654	2184.5	1301.35
998.1623	2717.1899	2196.55	1299.6
998.2842	2718.4136	2198.45	1316.55
998.4062	2719.6367	2204.6	1321.55
998.528	2720.8591	2218.5	1330.45
998.6498	2722.0809	2219.35	1336.6
998.7716	2723.3019	2232.25	1347.8
998.8934	2724.5223	2224.8	1340.35
999.0151	2725.7421	2232.1	1348.5
999.1368	2726.9611	2240.55	1358.7
999.2584	2728.1795	2217.35	1329.7
999.38	2729.3972	2207.7	1326.1
999.5016	2730.6142	2208.9	1314.9
999.6231	2731.8306	2189.6	1306.1
999.7446	2733.0462	2178.5	1294.5
999.8661	2734.2612	2148.6	1261.45
999.9875	2735.4756	2130.2	1248.05
1000.1089	2736.6892	2115.55	1233.6
1000.2302	2737.9022	2095.4	1214.4
1000.3515	2739.1145	2083.35	1201.9
1000.4728	2740.3262	2075.5	1188
1000.594	2741.5372	2054.1	1172.35
1000.7152	2742.7475	2039.7	1159.1
1000.8363	2743.9571	2028.3	1145.75
1000.9575	2745.1661	2015.5	1129
1001.0785	2746.3744	2007.4	1125.1
1001.1996	2747.582	1992	1112.3
1001.3206	2748.7889	1986.8	1102.45
1001.4415	2749.9952	1968.95	1088.4
1001.5625	2751.2008	1959.3	1076.05
1001.6833	2752.4057	1964.25	1081.7
1001.8042	2753.61	1963.8	1083.1
1001.925	2754.8136	1946.55	1062.2
1002.0458	2756.0165	1950.15	1068.55
1002.1665	2757.2188	1944.95	1064.3
1002.2872	2758.4204	1936.35	1053.65
1002.4078	2759.6213	1934.75	1050.6
1002.5285	2760.8215	1935.4	1049.8
1002.649	2762.0211	1935.65	1053.8
1002.7696	2763.22	1929.55	1044.05
1002.8901	2764.4182	1917.85	1034.45
1003.0106	2765.6158	1916.35	1036
1003.131	2766.8127	1914.85	1035.55
1003.2514	2768.009	1908.95	1029.9
1003.3717	2769.2045	1906.95	1024
1003.492	2770.3994	1905.9	1022.6
1003.6123	2771.5936	1897.7	1016.05
1003.7325	2772.7872	1883.95	1003.9
1003.8527	2773.9801	1884.25	1000.7
1003.9729	2775.1723	1902.7	1005.6
1004.093	2776.3639	1881.65	1000.7
1004.2131	2777.5548	1873.6	989.35
1004.3331	2778.745	1864.95	982.55
1004.4531	2779.9346	1869.3	989.8
1004.5731	2781.1235	1879.3	997.5
1004.693	2782.3117	1878.65	999.05
1004.8129	2783.4992	1872.6	992.05
1004.9328	2784.6861	1875.45	994.25
1005.0526	2785.8723	1877.2	995.25
1005.1723	2787.0579	1880.65	1000.6
1005.2921	2788.2428	1889.25	1008.85
1005.4118	2789.427	1897.4	1018
1005.5314	2790.6106	1901.75	1019.9
1005.651	2791.7935	1898.9	1018.55
1005.7706	2792.9757	1918.7	1040.2
1005.8902	2794.1573	1914.15	1030.8
1006.0097	2795.3382	1929.15	1047.05
1006.1291	2796.5184	1934.45	1056.15
1006.2485	2797.698	1956.2	1073.6
1006.3679	2798.8769	1970.4	1091.2
1006.4873	2800.0551	1976.35	1095.6
1006.6066	2801.2327	1991.6	1108.2
1006.7258	2802.4096	2001.95	1122.15
1006.8451	2803.5859	2026.25	1145.8
1006.9642	2804.7615	2029.8	1148.35
1007.0834	2805.9364	2056.35	1176.1
1007.2025	2807.1106	2088.55	1207.5
1007.3216	2808.2842	2109.9	1227.9
1007.4406	2809.4572	2143.45	1263.45
1007.5596	2810.6294	2164.6	1283.4
1007.6785	2811.801	2213.3	1334.05
1007.7975	2812.972	2242.8	1361.25
1007.9163	2814.1423	2288	1406.8
1008.0352	2815.3119	2333.4	1453.05
1008.154	2816.4808	2364	1484
1008.2727	2817.6491	2421.55	1541.25
1008.3914	2818.8167	2474.85	1594.15
1008.5101	2819.9837	2520.65	1634.35
1008.6288	2821.15	2567.2	1685.5
1008.7474	2822.3157	2605.2	1726
1008.8659	2823.4807	2653.55	1772.9
1008.9844	2824.645	2703.8	1820.75
1009.1029	2825.8086	2750.7	1870.15
1009.2214	2826.9716	2780.7	1901.65
1009.3398	2828.134	2840.35	1961.65
1009.4581	2829.2957	2869.55	1989.25
1009.5764	2830.4567	2894	2014.95
1009.6947	2831.617	2903.8	2023.3
1009.813	2832.7767	2921.5	2041.7
1009.9312	2833.9358	2932.05	2053.25
1010.0493	2835.0941	2921.35	2039.85
1010.1675	2836.2519	2910.35	2030.65
1010.2855	2837.4089	2900.5	2020.25
1010.4036	2838.5653	2891.2	2009.65
1010.5216	2839.7211	2870.4	1992.25
1010.6396	2840.8761	2883.7	2003.65
1010.7575	2842.0306	2905.8	2026.65
1010.8754	2843.1843	2937.15	2057.95
1010.9932	2844.3374	2975.3	2095.4
1011.111	2845.4899	3030.95	2151.2
1011.2288	2846.6417	3105.5	2225.7
1011.3465	2847.7928	3156.85	2278.9
1011.4642	2848.9433	3231.25	2352.05
1011.5818	2850.0931	3320.25	2440.45
1011.6995	2851.2422	3398.4	2516.3
1011.817	2852.3907	3448.55	2568.85
1011.9345	2853.5385	3523.25	2641.8
1012.052	2854.6857	3591.05	2683.05
1012.1695	2855.8323	3620.45	2740.85
1012.2869	2856.9781	3658.05	2778.15
1012.4042	2858.1233	3698.35	2817.9
1012.5216	2859.2679	3748.7	2869.7
1012.6389	2860.4118	3789.9	2910.2
1012.7561	2861.555	3831.85	2948.15
1012.8733	2862.6976	3872.35	2990.75
1012.9905	2863.8395	3891.9	3014.05
1013.1076	2864.9808	3913.85	3035.4
1013.2247	2866.1214	3937.8	3059.95
1013.3417	2867.2614	3935.3	3054.75
1013.4587	2868.4007	3968.05	3087.6
1013.5757	2869.5393	3971.45	3088.95
1013.6926	2870.6773	4003.05	3121.9
1013.8095	2871.8146	4011.3	3127.55
1013.9263	2872.9513	4004.4	3121.1
1014.0431	2874.0874	3997.2	3116.85
1014.1599	2875.2227	3994.35	3111.45
1014.2766	2876.3574	3965.05	3085.95
1014.3933	2877.4915	3931	3051.6
1014.51	2878.6249	3907.75	3028.7
1014.6266	2879.7577	3888.6	3007.45
1014.7431	2880.8898	3880.95	2990.25
1014.8596	2882.0212	3834.8	2957
1014.9761	2883.152	3834.4	2953.8
1015.0925	2884.2821	3829.3	2950.15
1015.2089	2885.4116	3812.25	2934.95
1015.3253	2886.5405	3804.95	2926
1015.4416	2887.6686	3838.5	2956.95
1015.5579	2888.7962	3796.4	2919.65
1015.6741	2889.923	3812.9	2934.75
1015.7903	2891.0493	3845.3	2967.85
1015.9065	2892.1748	3852.95	2974.95
1016.0226	2893.2997	3861.1	2981
1016.1387	2894.424	3866.95	2990.45
1016.2547	2895.5476	3887.95	3008.85
1016.3707	2896.6706	3904.3	3026.5
1016.4866	2897.7929	3928.65	3049.15
1016.6025	2898.9145	3962.9	3083
1016.7184	2900.0355	3984.25	3104.8
1016.8342	2901.1559	4020.7	3140.1
1016.95	2902.2756	4042.45	3161
1017.0658	2903.3946	4067.1	3189.5
1017.1815	2904.513	4115.75	3233.75
1017.2971	2905.6308	4140.3	3263.4
1017.4127	2906.7479	4154.15	3275.5
1017.5283	2907.8643	4187.55	3305.6
1017.6439	2908.9801	4185.65	3307.85
1017.7594	2910.0953	4193.85	3314.85
1017.8748	2911.2098	4202.9	3319.2
1017.9902	2912.3236	4186.65	3299.5
1018.1056	2913.4368	4180.4	3297.55
1018.2209	2914.5494	4143.05	3264.5
1018.3362	2915.6613	4114.5	3229.3
1018.4515	2916.7725	4102.25	3219.05
1018.5667	2917.8831	4060.65	3181.4
1018.6819	2918.9931	4024.75	3142.25
1018.797	2920.1024	4007.15	3125.65
1018.9121	2921.211	3962.35	3082.7
1019.0271	2922.319	3945.8	3067.15
1019.1421	2923.4264	3952.85	3074.15
1019.2571	2924.5331	3931.25	3055.05
1019.372	2925.6391	3907.7	3030.4
1019.4869	2926.7445	3909.8	3033.7
1019.6017	2927.8493	3890.05	3010.3
1019.7165	2928.9534	3907.75	3030.45
1019.8313	2930.0569	3892.8	3008.75
1019.946	2931.1597	3888.65	3007.25
1020.0606	2932.2619	3865.5	2985.15
1020.1753	2933.3634	3862.05	2982.55
1020.2899	2934.4643	3877.4	2991.6
1020.4044	2935.5645	3844.75	2959.05
1020.5189	2936.6641	3826.45	2944.55
1020.6334	2937.763	3773.9	2897.25
1020.7478	2938.8613	3724	2843.9
1020.8622	2939.959	3687.2	2803.7
1020.9765	2941.056	3598.95	2719.65
1021.0908	2942.1523	3520.9	2641.25
1021.2051	2943.248	3430.1	2550.8
1021.3193	2944.3431	3326	2449.35
1021.4334	2945.4375	3230.65	2351.65
1021.5476	2946.5313	3128.55	2251.25
1021.6617	2947.6244	3028.75	2149.7
1021.7757	2948.7169	2923.3	2044.7
1021.8897	2949.8087	2841.25	1962.4
1022.0037	2950.8999	2747	1869.5
1022.1176	2951.9904	2667.8	1790.45
1022.2315	2953.0803	2587.5	1705.95
1022.3453	2954.1696	2524.55	1644.95
1022.4591	2955.2582	2475.95	1595.75
1022.5728	2956.3462	2426.2	1547.3
1022.6865	2957.4335	2396.65	1516.25
1022.8002	2958.5202	2355.1	1474.7
1022.9138	2959.6062	2315.5	1437.4
1023.0274	2960.6916	2302.15	1422.65
1023.141	2961.7764	2272.25	1393.15
1023.2545	2962.8605	2255.7	1376.55
1023.3679	2963.9439	2236.7	1359.55
1023.4813	2965.0267	2237.7	1358
1023.5947	2966.1089	2248.2	1348.4
1023.708	2967.1905	2224.15	1346.55
1023.8213	2968.2714	2221.8	1344.3
1023.9346	2969.3516	2212.6	1335.05
1024.0478	2970.4312	2219.1	1334.65
1024.1609	2971.5102	2221.4	1342.75
1024.274	2972.5885	2204.45	1326.35
1024.3871	2973.6662	2220.05	1337
1024.5002	2974.7432	2218	1341.8
1024.6132	2975.8196	2206.05	1330.1
1024.7261	2976.8954	2196.85	1320.05
1024.839	2977.9705	2175.05	1298.45
1024.9519	2979.045	2171.85	1294.25
1025.0647	2980.1188	2153.9	1275.55
1025.1775	2981.192	2127.55	1250.6
1025.2902	2982.2645	2109.6	1231.1
1025.4029	2983.3364	2093.2	1215.4
1025.5156	2984.4077	2049.05	1170.65
1025.6282	2985.4783	2027.45	1142.3
1025.7407	2986.5483	1996.75	1120.4
1025.8532	2987.6177	1965.75	1087.85
1025.9657	2988.6864	1924	1044.2
1026.0782	2989.7545	1897	1017.65
1026.1906	2990.8219	1860.7	983.45
1026.3029	2991.8887	1825.8	947.45
1026.4152	2992.9548	1789.05	908.45
1026.5275	2994.0204	1756.6	881.1
1026.6397	2995.0852	1724.3	848.75
1026.7519	2996.1495	1701	822
1026.864	2997.2131	1682.35	805.25
1026.9761	2998.276	1661.75	784.9
1027.0882	2999.3383	1635.05	755.95
1027.2002	3000.4	1626.6	748.05
1027.3122	3001.4611	1596.6	719.9
1027.4241	3002.5215	1583.55	705.15
1027.536	3003.5812	1566.15	684.45
1027.6478	3004.6404	1552.75	673.55
1027.7596	3005.6989	1552.9	673.25
1027.8714	3006.7567	1539.8	662.05
1027.9831	3007.8139	1557.65	647.2
1028.0947	3008.8705	1517.1	640.65
1028.2064	3009.9264	1521.95	637.85
1028.3179	3010.9818	1504.55	627.05
1028.4295	3012.0364	1500.9	623.25
1028.541	3013.0905	1496.75	618.65
1028.6524	3014.1439	1498.1	619.5
1028.7638	3015.1966	1491.3	615
1028.8752	3016.2487	1490.85	613.65
1028.9865	3017.3002	1488.65	605.85
1029.0978	3018.3511	1486.6	607.6
1029.209	3019.4013	1482.15	605.7
1029.3202	3020.4509	1468.5	591.65
1029.4314	3021.4998	1487.75	609
1029.5425	3022.5481	1481.1	604.25
1029.6535	3023.5958	1483.05	605.5
1029.7645	3024.6428	1477	598.2
1029.8755	3025.6892	1475.6	597.7
1029.9864	3026.735	1478.35	599.65
1030.0973	3027.7802	1476.45	599.85
1030.2082	3028.8247	1479.4	602.95
1030.319	3029.8685	1489.65	611.65
1030.4297	3030.9118	1487.05	608.75
1030.5404	3031.9544	1485.3	608
1030.6511	3032.9963	1491.95	615.25
1030.7617	3034.0376	1482.5	605.25
1030.8723	3035.0783	1491.55	610.65
1030.9829	3036.1184	1492.95	614.6
1031.0934	3037.1578	1499.85	622.75
1031.2038	3038.1966	1493.9	614.65
1031.3142	3039.2348	1499.2	622.15
1031.4246	3040.2723	1514.9	627.05
1031.5349	3041.3092	1503.25	627.8
1031.6452	3042.3455	1496	618.5
1031.7554	3043.3811	1493.9	614.2
1031.8656	3044.4161	1479.9	601.3
1031.9758	3045.4505	1477.2	599.35
1032.0859	3046.4842	1481.25	603
1032.1959	3047.5173	1474.6	597.55
1032.3059	3048.5498	1465.15	584.95
1032.4159	3049.5816	1456.9	579.75
1032.5258	3050.6128	1459.7	581.55
1032.6357	3051.6434	1455.6	578
1032.7455	3052.6734	1444.95	566.45
1032.8553	3053.7027	1435.7	557.3
1032.9651	3054.7314	1439.8	562.85
1033.0748	3055.7594	1418	539.45
1033.1845	3056.7868	1417.3	537.85
1033.2941	3057.8136	1412.3	535.55
1033.4037	3058.8398	1402.7	524.9
1033.5132	3059.8653	1407	531.5
1033.6227	3060.8902	1399.7	521.25
1033.7321	3061.9145	1391	514.05
1033.8415	3062.9381	1383	506.05
1033.9509	3063.9612	1400.6	506.8
1034.0602	3064.9835	1373.2	497.45
1034.1694	3066.0053	1372.6	492.95
1034.2787	3067.0264	1362.6	486.5
1034.3878	3068.0469	1358.25	478.15
1034.497	3069.0668	1360.8	481.45
1034.6061	3070.086	1337.9	461.4
1034.7151	3071.1046	1337.65	462.3
1034.8241	3072.1226	1331.15	452.35
1034.9331	3073.1399	1322.8	445.35
1035.042	3074.1567	1307.5	431.05
1035.1508	3075.1727	1299	420.15
1035.2597	3076.1882	1295.95	419.2
1035.3684	3077.203	1284.95	407.2
1035.4772	3078.2173	1279.4	399.5
1035.5859	3079.2308	1270.4	388.3
1035.6945	3080.2438	1258.15	378.95
1035.8031	3081.2561	1252.7	373.7
1035.9117	3082.2678	1239.05	361.9
1036.0202	3083.2789	1234.8	358.6
1036.1286	3084.2893	1226.25	349.85
1036.2371	3085.2991	1230.95	355.15
1036.3454	3086.3083	1224.75	343.65
1036.4538	3087.3169	1218.2	340.85
1036.562	3088.3248	1209.15	331.1
1036.6703	3089.3321	1207.1	329.75
1036.7785	3090.3388	1199.4	323.2
1036.8866	3091.3449	1190.35	313.05
1036.9948	3092.3503	1194	314.85
1037.1028	3093.3551	1188.65	313.35
1037.2108	3094.3593	1182.45	307.35
1037.3188	3095.3629	1177.25	299.75
1037.4267	3096.3658	1177.05	297.35
1037.5346	3097.3681	1167.5	290.65
1037.6425	3098.3698	1177.4	298.65
1037.7503	3099.3708	1172.8	289.05
1037.858	3100.3713	1161.75	287.75
1037.9657	3101.3711	1156.05	279.05
1038.0734	3102.3702	1296.95	283.35
1038.181	3103.3688	1154.2	273.85
1038.2886	3104.3667	1152.15	276
1038.3961	3105.364	1149	270.85
1038.5036	3106.3607	1142.95	265.6
1038.611	3107.3568	1145.55	265
1038.7184	3108.3522	1139.15	265.05
1038.8257	3109.347	1141.85	265.95
1038.933	3110.3412	1141.5	259.35
1039.0403	3111.3348	1136.35	261.6
1039.1475	3112.3277	1129.55	253.3
1039.2547	3113.32	1135.85	259.35
1039.3618	3114.3117	1128.65	250.5
1039.4689	3115.3028	1128.7	250.55
1039.5759	3116.2932	1131.6	253.2
1039.6829	3117.2831	1127.2	244.45
1039.7898	3118.2723	1122	246.5
1039.8967	3119.2608	1116.6	240.4
1040.0035	3120.2488	1120.6	244.5
1040.1103	3121.2361	1114.6	239.15
1040.2171	3122.2229	1119	241.2
1040.3238	3123.209	1110.45	232.3
1040.4305	3124.1944	1107.45	232.35
1040.5371	3125.1793	1113.1	235.2
1040.6437	3126.1635	1104.8	227.9
1040.7502	3127.1471	1105.7	229.3
1040.8567	3128.1301	1104.6	226.7
1040.9631	3129.1125	1102.1	226.55
1041.0695	3130.0942	1101.25	224
1041.1759	3131.0753	1109.8	224.4
1041.2822	3132.0558	1100.15	221.25
1041.3884	3133.0357	1101.5	223.5
1041.4946	3134.015	1095.1	218.3
1041.6008	3134.9936	1091.65	214.1
1041.7069	3135.9716	1107.6	209.15
1041.813	3136.949	1091.35	215.25
1041.919	3137.9258	1106.75	211.85
1042.025	3138.902	1093.25	212.1
1042.1309	3139.8775	1086.35	209.95
1042.2368	3140.8524	1086.4	208.95
1042.3427	3141.8267	1080.9	203.8
1042.4485	3142.8004	1081.8	203.95
1042.5542	3143.7735	1088.1	206.85
1042.6599	3144.7459	1083.8	205.4
1042.7656	3145.7178	1078.45	201.15
1042.8712	3146.689	1076.85	200.8
1042.9768	3147.6596	1080.25	200.25
1043.0823	3148.6295	1074.45	197.65
1043.1878	3149.5989	1076.05	201.05
1043.2932	3150.5676	1068.45	190.2
1043.3986	3151.5357	1070	194.6
1043.5039	3152.5032	1067.15	191.7
1043.6092	3153.4701	1069.05	194.15
1043.7145	3154.4364	1071.05	192.35
1043.8197	3155.402	1058.7	183.05
1043.9248	3156.367	1065.85	185.35
1044.03	3157.3315	1091.15	185.9
1044.135	3158.2952	1058.2	180.75
1044.24	3159.2584	1059.9	183.8
1044.345	3160.221	1059.15	182
1044.4499	3161.1829	1052.4	176.1
1044.5548	3162.1442	1053.85	176.4
1044.6596	3163.105	1053.65	177.5
1044.7644	3164.065	1047.7	171.65
1044.8692	3165.0245	1051.85	172.5
1044.9739	3165.9834	1050.15	177.1
1045.0785	3166.9416	1046.95	173.2
1045.1831	3167.8993	1044.7	167
1045.2877	3168.8563	1049.15	171.9
1045.3922	3169.8127	1042	163.65
1045.4966	3170.7684	1045.45	168.5
1045.6011	3171.7236	1044.9	166.85
1045.7054	3172.6782	1043.55	167
1045.8098	3173.6321	1040.8	163.75
1045.914	3174.5854	1043.75	163.8
1046.0183	3175.5381	1042.35	167.6
1046.1224	3176.4902	1037.5	161.65
1046.2266	3177.4417	1035.75	158.7
1046.3307	3178.3926	1034.7	157.3
1046.4347	3179.3428	1031.55	157.7
1046.5387	3180.2924	1034.6	159.8
1046.6427	3181.2415	1031.1	156.35
1046.7466	3182.1899	1028.95	152.05
1046.8504	3183.1377	1027.6	154.8
1046.9542	3184.0848	1034.6	158.6
1047.058	3185.0314	1031.4	155.75
1047.1617	3185.9773	1028.25	151.85
1047.2654	3186.9227	1026.3	147.6
1047.369	3187.8674	1028.1	152.7
1047.4726	3188.8115	1027.7	146.15
1047.5761	3189.755	1025.25	149.35
1047.6796	3190.6979	1021.8	145.6
1047.783	3191.6402	1021.5	144.65
1047.8864	3192.5818	1022.4	146.7
1047.9898	3193.5229	1024.5	142.85
1048.0931	3194.4633	1017.95	141.55
1048.1963	3195.4031	1018.9	141.25
1048.2995	3196.3423	1018	142.85
1048.4027	3197.2809	1017.5	140.95
1048.5058	3198.2189	1019	143.15
1048.6089	3199.1563	1025.9	144.65
1048.7119	3200.0931	1013.4	137.95
1048.8148	3201.0292	1018	143.6
1048.9178	3201.9648	1013.6	138.7
1049.0206	3202.8997	1011.6	131.05
1049.1235	3203.834	1007.1	132.1
1049.2262	3204.7677	1007.55	130.7
1049.329	3205.7008	1011.45	134.25
1049.4317	3206.6333	1007.95	133.75
1049.5343	3207.5652	1014.25	134.4
1049.6369	3208.4964	1009.55	135.05
1049.7394	3209.4271	1007.8	132.4
1049.8419	3210.3571	1007.2	130.65
1049.9444	3211.2865	1004.95	126.5
1050.0468	3212.2154	1008.95	133.65
1050.1491	3213.1436	1006.7	129.8
1050.2514	3214.0712	1006.9	123.75
1050.3537	3214.9982	1006.5	131.7
1050.4559	3215.9246	1002.35	127.2
1050.5581	3216.8503	1001.2	127.3
1050.6602	3217.7755	1000	122.75
1050.7623	3218.7001	996.35	120.9
1050.8643	3219.624	1005.4	130
1050.9663	3220.5473	1000	124.35
1051.0682	3221.4701	999.85	122.05
1051.1701	3222.3922	1000.55	123.85
1051.2719	3223.3137	993.05	119.3
1051.3737	3224.2346	996.35	119.2
1051.4754	3225.1549	996.85	123.8
1051.5771	3226.0746	993.45	119.6
1051.6788	3226.9937	996.95	121.15
1051.7804	3227.9121	993.75	117.75
1051.8819	3228.83	991.9	116.45
1051.9834	3229.7473	991.55	115.6
1052.0849	3230.6639	995.35	118
1052.1863	3231.5799	993.95	119.85
1052.2876	3232.4954	989.55	114.15
1052.3889	3233.4102	992.25	117.75
1052.4902	3234.3244	990.3	115.9
1052.5914	3235.238	987	112.15
1052.6926	3236.151	1009.85	112.75
1052.7937	3237.0634	985.15	110.45
1052.8948	3237.9752	987.85	111.95
1052.9958	3238.8864	983.05	103.4
1053.0968	3239.797	982.85	106.85
1053.1977	3240.7069	984.4	109.3
1053.2986	3241.6163	985.5	110.7
1053.3994	3242.5251	980.55	106
1053.5002	3243.4332	981.9	109.3
1053.6009	3244.3408	981	104.15
1053.7016	3245.2477	980.65	104.95
1053.8022	3246.154	982.65	105.05
1053.9028	3247.0598	980.8	104.65
1054.0034	3247.9649	979.25	103.05
1054.1039	3248.8694	975.3	101.25
1054.2043	3249.7733	976.25	102.35
1054.3047	3250.6766	977.55	105.05
1054.4051	3251.5793	971.9	96.75
1054.5054	3252.4814	976.3	101.9
1054.6056	3253.3829	973.15	98.15
1054.7058	3254.2838	972.8	96.35
1054.806	3255.1841	971.3	98
1054.9061	3256.0838	967.9	90.15
1055.0061	3256.9829	972	96.85
1055.1062	3257.8814	970.9	92.95
1055.2061	3258.7792	969.8	90.3
1055.306	3259.6765	971.55	95.6
1055.4059	3260.5731	965.15	89.5
1055.5057	3261.4692	966.4	89.9
1055.6055	3262.3647	963.4	88.9
1055.7052	3263.2595	960.35	83.15
1055.8049	3264.1538	961.4	86.25
1055.9045	3265.0474	960.35	83.8
1056.0041	3265.9404	955.45	82.15
1056.1036	3266.8329	953.45	78.5
1056.2031	3267.7247	963.75	78.8
1056.3025	3268.616	954.65	79.65
1056.4019	3269.5066	953.05	76.65
1056.5013	3270.3966	950.35	74.05
1056.6005	3271.286	944.3	71.45
