Software Version:	3.9.2.0
Unit SN:	10000200
Spectrometer SN:	6960
Date:	3/8/2024 12:56:33 PM
Data Line Index:	25
Spectral Points:	2048
Integration time (ms):	125
Averages:	20
Delay (ms):	30000
Sequence Number:	1
Processing:	dark subtract
Laser Power (mW):	305
Laser Current (mA):	823
Laser Diode Temp (C):	25
Laser Case Temp (C):	26.1
System Temp (C):	26.1
Spectrometer Temp (C):	24
CCD Temp (C):	0.01
Secondary Temp (C):	20.007
Heatsink Temp (C):	20.331
CCDPCB Temp (C):	35.896
SecondaryPCB Temp (C):	29.393

Wavelength	RamanShift	Raw Counts	Dark Subtracted
787.061	30.1047	452.75	43.65
787.2016	32.3739	455.5	49.5
787.3422	34.6426	458.9	52.15
787.4828	36.9109	467.6	58.2
787.6235	39.1787	474.7	61.85
787.7642	41.4461	482.6	65.1
787.9049	43.7131	489.65	69.55
788.0456	45.9796	499.85	75.85
788.1863	48.2456	509.65	81.1
788.3271	50.5112	517.55	84.9
788.4679	52.7764	524	87.25
788.6087	55.0411	533.6	94.05
788.7496	57.3054	550.55	105.1
788.8904	59.5692	556.65	112.25
789.0313	61.8326	566.15	116.65
789.1722	64.0955	576.8	124.8
789.3132	66.3579	596.25	138.6
789.4541	68.6199	613.5	151.75
789.5951	70.8815	646.55	181.45
789.7361	73.1426	725.3	255.2
789.8771	75.4032	938.3	463.3
790.0181	77.6634	1441.25	960.05
790.1592	79.9231	2617.4	2128.55
790.3003	82.1824	5211.05	4704.95
790.4414	84.4412	9792.3	9252.1
790.5825	86.6995	16062.2	15477.3
790.7237	88.9574	22153.6	21529.85
790.8648	91.2148	26285.15	25633.85
791.006	93.4717	28133.8	27465.55
791.1472	95.7282	28418.45	27741.95
791.2885	97.9842	28122.95	27445
791.4297	100.2398	27425.05	26743.3
791.571	102.4949	26608.55	25924.05
791.7123	104.7495	25681.9	24994.55
791.8536	107.0036	24797.65	24110.3
791.9949	109.2573	24006.7	23323.55
792.1363	111.5105	23232.55	22541.65
792.2777	113.7632	22541	21850.95
792.4191	116.0154	21959.8	21256.7
792.5605	118.2672	21576.6	20878.15
792.7019	120.5185	21195.2	20494.45
792.8434	122.7693	20826.75	20126.35
792.9849	125.0197	20568.1	19858.6
793.1264	127.2696	20263.55	19554.05
793.2679	129.519	20111.55	19396.4
793.4094	131.7679	19826.4	19114
793.551	134.0163	19569.45	18851
793.6926	136.2642	19279.35	18554.85
793.8342	138.5117	18928.7	18194.85
793.9758	140.7587	18573.75	17842.95
794.1175	143.0052	18294.55	17560.9
794.2591	145.2512	17991.6	17265.75
794.4008	147.4967	17677.7	16949.1
794.5425	149.7417	17481.15	16743.45
794.6842	151.9863	17318.25	16579.2
794.826	154.2304	17197.35	16455.65
794.9677	156.4739	17036.95	16289.95
795.1095	158.717	16930.35	16179.35
795.2513	160.9596	16762.9	16008.6
795.3931	163.2017	16522.4	15766.4
795.535	165.4433	16220	15464.3
795.6768	167.6844	15858.65	15102.6
795.8187	169.925	15578.45	14818
795.9606	172.1651	15215.9	14455.7
796.1025	174.4047	14943.3	14180
796.2445	176.6439	14686.2	13917.25
796.3864	178.8825	14458.5	13688.2
796.5284	181.1206	14357.45	13580
796.6704	183.3582	14200.9	13420.75
796.8124	185.5954	14093.8	13315.7
796.9544	187.832	14047.65	13262.85
797.0965	190.0681	13975.55	13192.4
797.2386	192.3037	14004.9	13215.75
797.3806	194.5388	13996.35	13201.85
797.5228	196.7734	14030.8	13233.65
797.6649	199.0075	14086.9	13289.7
797.807	201.2411	14197.1	13399
797.9492	203.4742	14295.05	13495.1
798.0914	205.7068	14444.45	13637.4
798.2336	207.9389	14597.15	13792.75
798.3758	210.1704	14700.15	13899
798.518	212.4015	14804.85	14015.85
798.6603	214.632	14960.8	14177.55
798.8025	216.862	15096.35	14314.65
798.9448	219.0915	15210.5	14427.2
799.0871	221.3205	15390.65	14606.1
799.2294	223.549	15495.45	14718.85
799.3718	225.777	15661.65	14878.55
799.5141	228.0044	15828.55	15039.7
799.6565	230.2314	16041.4	15252.1
799.7989	232.4578	16272.8	15481.5
799.9413	234.6837	16435.3	15635.4
800.0837	236.909	16566.7	15763.95
800.2262	239.1339	16590.05	15761.35
800.3687	241.3582	16474.95	15658.8
800.5111	243.582	16301.1	15459.45
800.6536	245.8053	16145.1	15314.8
800.7961	248.0281	16014.3	15194.65
800.9387	250.2503	15965.1	15136.1
801.0812	252.472	15939.15	15108.3
801.2238	254.6932	16022.85	15196.7
801.3664	256.9139	16084.05	15256.1
801.509	259.134	16230.8	15391.55
801.6516	261.3536	16422.7	15588.4
801.7942	263.5727	16643.75	15804.7
801.9369	265.7912	16811.95	15976.35
802.0795	268.0092	17045.55	16206.7
802.2222	270.2267	17207.45	16373.15
802.3649	272.4436	17286.55	16446.25
802.5076	274.6601	17256.7	16410.55
802.6504	276.8759	17185.3	16343.65
802.7931	279.0913	17114.8	16274.45
802.9359	281.3061	16971.9	16126.95
803.0787	283.5204	16920.25	16071.7
803.2215	285.7341	16911.95	16056.3
803.3643	287.9473	16982.45	16117.8
803.5071	290.16	17084.45	16233.25
803.6499	292.3721	17244.7	16395.55
803.7928	294.5837	17521.4	16670.05
803.9357	296.7947	17789.3	16941.55
804.0786	299.0052	17982.55	17131.45
804.2215	301.2152	17883.25	17026.7
804.3644	303.4246	17685.65	16840.75
804.5074	305.6334	17259.05	16412.15
804.6503	307.8418	16842.7	15992.65
804.7933	310.0495	16438.3	15586.8
804.9363	312.2568	16034	15175.7
805.0793	314.4635	15709.1	14853.1
805.2223	316.6696	15470.2	14610.2
805.3653	318.8752	15274.85	14409.1
805.5084	321.0802	15260.65	14396.05
805.6514	323.2847	15302.05	14438.15
805.7945	325.4887	15321.75	14456.7
805.9376	327.692	15304.3	14437.8
806.0807	329.8949	15231.75	14364.6
806.2238	332.0972	15033.6	14167.85
806.367	334.2989	14818.1	13944.6
806.5101	336.5001	14551.2	13681.55
806.6533	338.7007	14341.05	13466.35
806.7965	340.9008	14209.5	13335.8
806.9397	343.1003	14067.35	13192.2
807.0829	345.2992	13946.35	13074.2
807.2261	347.4976	13906.3	13029.25
807.3693	349.6955	13831.45	12951.35
807.5126	351.8927	13844.7	12965.45
807.6559	354.0895	13790	12894.1
807.7991	356.2856	13794.45	12912.6
807.9424	358.4812	13764.65	12884.5
808.0857	360.6763	13768.8	12884.2
808.2291	362.8707	13756.5	12873.1
808.3724	365.0646	13788.55	12901.3
808.5158	367.258	13824.85	12935.1
808.6591	369.4508	13862.55	12972.3
808.8025	371.643	14004.3	13111.55
808.9459	373.8346	14083.4	13188.4
809.0893	376.0257	14118.25	13220
809.2327	378.2162	14121.25	13228.95
809.3762	380.4062	14086	13192.2
809.5196	382.5956	13967.55	13074.4
809.6631	384.7844	13853.5	12964.05
809.8066	386.9726	13712.85	12826.2
809.9501	389.1603	13653	12768.25
810.0936	391.3474	13586.7	12674.25
810.2371	393.5339	13571.45	12683.9
810.3806	395.7199	13507.95	12618.85
810.5241	397.9052	13573.45	12687.7
810.6677	400.09	13617.4	12735.6
810.8113	402.2743	13756.95	12873.6
810.9548	404.4579	13893.35	13005.15
811.0984	406.641	14089.1	13199
811.2421	408.8235	14261.8	13373.1
811.3857	411.0054	14450.3	13560.1
811.5293	413.1868	14724.2	13827.75
811.673	415.3675	14854.35	13957.85
811.8166	417.5477	14925.35	14023.3
811.9603	419.7273	14906.25	14006.35
812.104	421.9064	14787.75	13881.8
812.2477	424.0848	14723.6	13826.4
812.3914	426.2627	14582.05	13684.45
812.5351	428.4399	14311	13410.9
812.6788	430.6166	14005.95	13101.45
812.8226	432.7928	13663.45	12756.95
812.9663	434.9683	13368.85	12468.65
813.1101	437.1432	13154.25	12255.6
813.2539	439.3176	12985.7	12087.45
813.3977	441.4914	12872.4	11985.3
813.5415	443.6645	12850.9	11954.1
813.6853	445.8371	12776.45	11872.45
813.8291	448.0091	12736.65	11833.6
813.973	450.1806	12702.05	11803.25
814.1168	452.3514	12671.1	11772.55
814.2607	454.5216	12714.2	11808.35
814.4046	456.6913	12671.95	11769.15
814.5485	458.8603	12708.55	11809.45
814.6924	461.0288	12797.3	11903.7
814.8363	463.1967	12780	11887.95
814.9802	465.3639	12825.55	11925.75
815.1241	467.5306	12842.9	11946
815.2681	469.6967	12872.55	11980.2
815.412	471.8622	12918.65	12023.9
815.556	474.0271	12996.4	12099.6
815.7	476.1914	13054.05	12148.15
815.844	478.3551	13081.55	12178.65
815.988	480.5182	13084.1	12190.15
816.132	482.6807	13166.75	12275.65
816.276	484.8426	13311.9	12427.85
816.4201	487.0039	13640	12749.35
816.5641	489.1647	14043.35	13139.8
816.7082	491.3248	14359.05	13455.25
816.8522	493.4843	14494.35	13593.6
816.9963	495.6432	14490.9	13596.3
817.1404	497.8015	14362.35	13454.2
817.2845	499.9592	14282.95	13365.5
817.4286	502.1163	14117.5	13204.55
817.5727	504.2728	13828	12925.7
817.7168	506.4287	13551.4	12655.8
817.861	508.5839	13191.05	12297.95
818.0051	510.7386	12974.65	12072.2
818.1493	512.8927	12863.8	11948.15
818.2935	515.0461	12820.3	11915.6
818.4377	517.199	12853.25	11943.7
818.5818	519.3512	12998.75	12082.75
818.726	521.5029	13222.75	12311.75
818.8703	523.6539	13411.35	12500.85
819.0145	525.8043	13531.6	12618.5
819.1587	527.9541	13472.1	12552.65
819.303	530.1033	13318	12408.1
819.4472	532.2519	13216.2	12309.8
819.5915	534.3999	13200.6	12285.25
819.7357	536.5472	13319.25	12408.6
819.88	538.694	13604.85	12697.9
820.0243	540.8401	13944.65	13034.35
820.1686	542.9856	14248.9	13325.3
820.3129	545.1305	14332.95	13402.75
820.4572	547.2748	14231.35	13300.3
820.6016	549.4185	14022.05	13091.4
820.7459	551.5615	13791.7	12862.15
820.8902	553.704	13762.2	12835.85
821.0346	555.8458	13786.5	12863.95
821.1789	557.987	13939.9	13016.55
821.3233	560.1276	14104.1	13183.2
821.4677	562.2675	14429.3	13503.95
821.6121	564.4069	14813.6	13889.25
821.7565	566.5456	15122.35	14198.6
821.9009	568.6837	15220.3	14301.85
822.0453	570.8212	14873.45	13952.6
822.1897	572.958	14272.15	13350.2
822.3342	575.0942	13727	12807.85
822.4786	577.2299	13360.5	12450
822.6231	579.3648	13176.25	12279.1
822.7675	581.4992	13166.6	12274.35
822.912	583.6329	13256.35	12363.55
823.0565	585.766	13438.65	12540.75
823.201	587.8985	13590.75	12688.35
823.3454	590.0304	13639.5	12701.4
823.4899	592.1616	13577.8	12651.1
823.6345	594.2922	13464.35	12536.7
823.779	596.4222	13293.4	12362.15
823.9235	598.5515	13113.75	12183.25
824.068	600.6802	12975.25	12047.7
824.2126	602.8083	12775.25	11850.5
824.3571	604.9358	12752	11825.05
824.5017	607.0626	12756.4	11829.45
824.6462	609.1888	12823.55	11886.7
824.7908	611.3144	12913.35	11978.15
824.9354	613.4393	12980.6	12049.5
825.08	615.5636	13009.8	12076.7
825.2246	617.6873	13012.05	12079.7
825.3692	619.8103	12964	12028.65
825.5138	621.9327	12787.4	11860
825.6584	624.0544	12616.15	11689.7
825.803	626.1756	12478.45	11552.8
825.9477	628.2961	12347.4	11419.05
826.0923	630.4159	12318.1	11385.95
826.237	632.5351	12270.15	11334.1
826.3816	634.6537	12236.8	11301.5
826.5263	636.7716	12223.4	11287.1
826.6709	638.8889	12226.2	11282.5
826.8156	641.0056	12264.35	11320.3
826.9603	643.1216	12259.25	11322
827.105	645.237	12237.25	11300.5
827.2497	647.3518	12159.85	11227.05
827.3944	649.4659	12139.65	11214.7
827.5391	651.5793	12066.15	11138.45
827.6838	653.6922	12057.25	11128.75
827.8285	655.8043	12054.35	11125.15
827.9733	657.9159	12062.45	11130.5
828.118	660.0268	12023.6	11092.8
828.2627	662.137	11999.8	11065.5
828.4075	664.2466	12026.2	11086.2
828.5522	666.3556	12006.85	11073
828.697	668.4639	11947.05	11009.6
828.8418	670.5716	11936.5	11007.55
828.9865	672.6786	11921.3	10988.35
829.1313	674.785	11923.1	10981.15
829.2761	676.8907	11894.35	10955.4
829.4209	678.9958	11944.1	11015.3
829.5657	681.1002	11902.15	10966.45
829.7105	683.204	11901.95	10957.5
829.8553	685.3072	11882.1	10938.95
830.0001	687.4097	11846.3	10906.35
830.1449	689.5115	11831.7	10895.5
830.2898	691.6127	11828.05	10892
830.4346	693.7132	11814.95	10883.1
830.5794	695.8131	11802.75	10854.65
830.7243	697.9123	11818.3	10872.35
830.8691	700.0109	11844.9	10897.9
831.014	702.1089	11848.55	10903
831.1588	704.2061	11878.35	10935.55
831.3037	706.3028	11920.75	10976.95
831.4486	708.3987	11945.55	11004.55
831.5935	710.4941	11986.55	11048.1
831.7383	712.5887	12102.65	11161.15
831.8832	714.6827	12212.65	11270.2
832.0281	716.7761	12380.95	11443.65
832.173	718.8688	12617.5	11677.15
832.3179	720.9608	12802.05	11853.35
832.4628	723.0522	12909.95	11957.2
832.6077	725.1429	12908.15	11960.35
832.7527	727.233	12878.3	11933.65
832.8976	729.3224	12874.4	11931.25
833.0425	731.4112	12738.45	11794.5
833.1874	733.4993	12576.3	11630.3
833.3324	735.5867	12382.65	11439.75
833.4773	737.6735	12203.1	11259.5
833.6222	739.7596	12038.85	11092.65
833.7672	741.845	11944.2	11000.2
833.9122	743.9298	11863.15	10921.4
834.0571	746.014	11848.25	10905.55
834.2021	748.0974	11837	10886.8
834.347	750.1802	11800.35	10847.4
834.492	752.2624	11854.4	10903.65
834.637	754.3439	11892.45	10941.05
834.782	756.4247	12005.3	11044
834.9269	758.5048	12172.4	11221.5
835.0719	760.5843	12448.75	11495.65
835.2169	762.6631	12842.15	11892.45
835.3619	764.7413	13353.25	12401.45
835.5069	766.8188	14036.95	13086.35
835.6519	768.8956	14566.95	13615.85
835.7969	770.9718	14908.65	13955.1
835.9419	773.0473	14832.3	13881.3
836.0869	775.1221	14578.55	13625.25
836.232	777.1962	14268.25	13315.45
836.377	779.2697	14113.15	13158.85
836.522	781.3426	14173.1	13208.2
836.667	783.4147	14304.9	13354.5
836.8121	785.4862	14445.2	13496.65
836.9571	787.557	14322.45	13370.2
837.1021	789.6271	13882.5	12928.1
837.2472	791.6966	13273.6	12319.85
837.3922	793.7654	12725.65	11769.8
837.5373	795.8335	12340.75	11387.2
837.6823	797.901	12054.85	11098.4
837.8274	799.9678	11942.35	10988.85
837.9724	802.0339	11837.05	10879
838.1175	804.0993	11861.65	10891.35
838.2626	806.1641	11789.25	10834
838.4076	808.2282	11717.8	10762.6
838.5527	810.2916	11648.15	10692.55
838.6978	812.3544	11571.2	10620.75
838.8428	814.4164	11533.95	10580.4
838.9879	816.4778	11558.55	10599.75
839.133	818.5385	11585.25	10629
839.2781	820.5986	11705.35	10747.15
839.4232	822.658	11906.6	10948.1
839.5682	824.7166	12179.6	11221
839.7133	826.7747	12641.65	11684.05
839.8584	828.832	13082.15	12121.8
840.0035	830.8886	13415.1	12457.65
840.1486	832.9446	13532.8	12578.65
840.2937	834.9999	13444.15	12486.35
840.4388	837.0545	13229.95	12269.85
840.5839	839.1085	12958.8	12002.5
840.729	841.1618	12706.65	11746.6
840.8741	843.2143	12510.45	11551.95
841.0192	845.2662	12335.8	11380.35
841.1643	847.3175	12250.3	11296.65
841.3095	849.368	12129.95	11171.05
841.4546	851.4179	12051.05	11091.05
841.5997	853.467	11903.35	10945.65
841.7448	855.5155	11854.35	10898
841.8899	857.5633	11791.45	10833.5
842.0351	859.6105	11674.4	10722.35
842.1802	861.6569	11606.7	10648.4
842.3253	863.7027	11538.4	10578
842.4704	865.7478	11507.9	10543.4
842.6156	867.7922	11485.15	10525.75
842.7607	869.8359	11494.9	10534.5
842.9058	871.8789	11546.4	10583.55
843.0509	873.9212	11655	10665.95
843.1961	875.9629	11730.9	10767.4
843.3412	878.0039	11883.95	10926.25
843.4863	880.0441	11925.15	10969.3
843.6315	882.0837	11981.8	11025.8
843.7766	884.1226	12008.35	11050.25
843.9218	886.1609	11977.8	11016.3
844.0669	888.1984	12046.05	11084.65
844.212	890.2352	12146.1	11185.5
844.3572	892.2714	12171.85	11208.1
844.5023	894.3069	12124.85	11163.55
844.6475	896.3416	11949.8	10987.8
844.7926	898.3757	11861.7	10900.95
844.9377	900.4091	11797.05	10836.2
845.0829	902.4418	11793.2	10827.3
845.228	904.4739	11841	10873.85
845.3732	906.5052	11846.25	10880.7
845.5183	908.5358	11810.45	10850.2
845.6635	910.5658	11695.3	10732.7
845.8086	912.595	11463.8	10501
845.9538	914.6236	11278.1	10315.8
846.0989	916.6515	11159.15	10194.15
846.2441	918.6786	11132.55	10165.6
846.3892	920.7051	11122.8	10158.55
846.5344	922.7309	11162.7	10201.4
846.6795	924.756	11197.7	10237.2
846.8246	926.7804	11308.45	10343.65
846.9698	928.8041	11271	10304.65
847.1149	930.8272	11307.25	10340.55
847.2601	932.8495	11300.75	10333.35
847.4052	934.8711	11295.25	10331.35
847.5504	936.892	11197.6	10233.75
847.6955	938.9123	11172.85	10206.95
847.8407	940.9318	11156	10193.5
847.9858	942.9506	11139.5	10176.35
848.131	944.9688	11041.4	10076.65
848.2761	946.9862	10979.9	10014.45
848.4213	949.003	10828.25	9864.55
848.5664	951.019	10767.5	9801.55
848.7115	953.0344	10751.65	9789.1
848.8567	955.0491	10746.3	9778.95
849.0018	957.063	10776.15	9812.05
849.147	959.0763	10881.35	9917.5
849.2921	961.0888	10898.75	9933.65
849.4373	963.1007	10964.7	10006.75
849.5824	965.1119	10994.7	10043.1
849.7275	967.1223	10981.3	10033.45
849.8727	969.1321	10980.9	10037.65
850.0178	971.1412	10975.35	10022.05
850.1629	973.1495	10986.65	10028.2
850.3081	975.1572	11062.35	10056.95
850.4532	977.1641	11042.6	10079.5
850.5983	979.1704	11011.7	10047.85
850.7435	981.1759	10979.8	10012.35
850.8886	983.1808	10988.4	10026.2
851.0337	985.1849	11073.1	10097.75
851.1788	987.1884	11108.45	10146.75
851.324	989.1911	11229.75	10268.15
851.4691	991.1932	11310.15	10349.45
851.6142	993.1945	11353.45	10393.1
851.7593	995.1951	11289.3	10325.7
851.9045	997.1951	11290.5	10325.45
852.0496	999.1943	11211.75	10250
852.1947	1001.1928	11211.45	10251.85
852.3398	1003.1906	11253.1	10292.45
852.4849	1005.1877	11325.85	10363.1
852.63	1007.1841	11397.05	10434.75
852.7751	1009.1798	11390.4	10426.95
852.9202	1011.1748	11303.05	10341.35
853.0653	1013.1691	11147	10187.75
853.2104	1015.1627	10955.3	9996.2
853.3555	1017.1556	10722.55	9764.3
853.5006	1019.1477	10610.75	9653.45
853.6457	1021.1392	10502.75	9549.95
853.7908	1023.1299	10487.7	9543.75
853.9359	1025.12	10506.4	9562.25
854.081	1027.1093	10534.3	9605.65
854.2261	1029.0979	10641.9	9716.9
854.3712	1031.0859	10713.9	9781.35
854.5163	1033.0731	10773.65	9826.5
854.6613	1035.0596	10731.2	9780.05
854.8064	1037.0454	10579.05	9629.3
854.9515	1039.0304	10512.7	9552.4
855.0965	1041.0148	10413.15	9455.1
855.2416	1042.9985	10301.65	9340.75
855.3867	1044.9814	10248.1	9291.2
855.5317	1046.9636	10188.75	9229.95
855.6768	1048.9452	10181.05	9227
855.8219	1050.926	10229.15	9270.65
855.9669	1052.9061	10245.6	9289.55
856.112	1054.8855	10242.15	9286.5
856.257	1056.8642	10287.75	9327.65
856.4021	1058.8421	10338.6	9373.55
856.5471	1060.8194	10356.45	9395.8
856.6921	1062.7959	10427.95	9471.3
856.8372	1064.7717	10484.05	9521.35
856.9822	1066.7469	10567	9608.65
857.1272	1068.7213	10582.1	9617.7
857.2723	1070.695	10651.8	9693.75
857.4173	1072.6679	10644	9683.55
857.5623	1074.6402	10685.65	9729.5
857.7073	1076.6117	10630.15	9664.6
857.8523	1078.5826	10541.2	9582.5
857.9973	1080.5527	10444.65	9484.65
858.1423	1082.5221	10395.45	9440.35
858.2873	1084.4908	10428.4	9475.2
858.4323	1086.4587	10498.6	9539.3
858.5773	1088.426	10530	9568.6
858.7223	1090.3925	10560.95	9592.85
858.8673	1092.3584	10597.65	9640.2
859.0123	1094.3235	10557.25	9598.85
859.1573	1096.2879	10596.8	9637.8
859.3022	1098.2515	10687.75	9731.2
859.4472	1100.2145	10835.45	9879.65
859.5922	1102.1767	10987.85	10029
859.7371	1104.1382	11197.55	10242.6
859.8821	1106.099	11440.1	10481.15
860.027	1108.0591	11659.65	10704.95
860.172	1110.0185	11803.7	10841.5
860.3169	1111.9771	11840.85	10880.7
860.4619	1113.9351	11745.9	10788.8
860.6068	1115.8923	11592.05	10635.3
860.7517	1117.8488	11408	10449.85
860.8967	1119.8045	11187.55	10230.35
861.0416	1121.7596	11075.5	10119.6
861.1865	1123.7139	10980.6	10023.65
861.3314	1125.6675	10940.65	9985.75
861.4763	1127.6204	10970.65	10016.15
861.6212	1129.5726	10935.9	9977.85
861.7661	1131.524	10844.65	9889.1
861.911	1133.4748	10732.95	9778.5
862.0559	1135.4248	10575.95	9617.45
862.2008	1137.3741	10465.4	9508.5
862.3457	1139.3226	10370.55	9414
862.4905	1141.2705	10354.75	9393.4
862.6354	1143.2176	10267.7	9304.55
862.7803	1145.164	10210.3	9253.55
862.9251	1147.1097	10139.15	9179.85
863.07	1149.0546	10103.85	9142.7
863.2148	1150.9989	10003.9	9044.75
863.3597	1152.9424	9889.95	8931.1
863.5045	1154.8852	9794.7	8838.8
863.6493	1156.8272	9729.55	8770.5
863.7942	1158.7686	9756.45	8792.1
863.939	1160.7092	9742.35	8784.4
864.0838	1162.6491	9764.35	8806.85
864.2286	1164.5883	9878.05	8921.4
864.3734	1166.5267	9963.45	9009.75
864.5182	1168.4644	10144.05	9190.85
864.663	1170.4014	10323.95	9366.9
864.8078	1172.3377	10576.6	9621.85
864.9526	1174.2732	10866.6	9912.2
865.0974	1176.2081	11235.25	10280.5
865.2421	1178.1421	11649.8	10689.15
865.3869	1180.0755	12105.85	11151.6
865.5317	1182.0082	12412.1	11456.7
865.6764	1183.9401	12546.2	11594.45
865.8212	1185.8713	12425.6	11483.35
865.9659	1187.8017	12134	11193.55
866.1106	1189.7315	11761.95	10832.65
866.2554	1191.6605	11380.85	10452.6
866.4001	1193.5888	11143.4	10209.5
866.5448	1195.5163	10997.15	10051.55
866.6895	1197.4432	10915.55	9967.5
866.8342	1199.3693	10864.9	9913.85
866.9789	1201.2947	10829.9	9869.9
867.1236	1203.2193	10832.4	9879.1
867.2683	1205.1432	10807.95	9857.4
867.413	1207.0664	10794.05	9841.2
867.5576	1208.9889	10773.15	9819.15
867.7023	1210.9106	10770.6	9817.65
867.847	1212.8316	10769.3	9818.85
867.9916	1214.7519	10806.25	9845.5
868.1363	1216.6715	10833	9880.3
868.2809	1218.5903	10877.8	9929.2
868.4255	1220.5084	10951.05	10002.55
868.5701	1222.4257	11016.25	10064.75
868.7148	1224.3424	11068.35	10122.35
868.8594	1226.2583	11181.85	10232
869.004	1228.1735	11293.1	10340.35
869.1486	1230.0879	11400.35	10446.3
869.2932	1232.0016	11591.55	10638.95
869.4377	1233.9146	11667.95	10714.1
869.5823	1235.8269	11637.9	10689.25
869.7269	1237.7384	11617	10665.35
869.8715	1239.6492	11478.2	10528.05
870.016	1241.5592	11419.9	10467.8
870.1606	1243.4686	11414.45	10464.3
870.3051	1245.3772	11561.8	10609.2
870.4496	1247.285	11694.25	10741.9
870.5941	1249.1922	11841.9	10892.8
870.7387	1251.0986	11945.2	10996.9
870.8832	1253.0042	11997.05	11049.2
871.0277	1254.9092	12104.7	11154.7
871.1722	1256.8134	12158.1	11211.3
871.3167	1258.7169	12304.4	11357.4
871.4611	1260.6196	12489.15	11539.85
871.6056	1262.5216	12722.35	11770.4
871.7501	1264.4229	12874.05	11925.5
871.8945	1266.3234	13064.05	12115.35
872.039	1268.2232	13183.15	12233.05
872.1834	1270.1223	13263.1	12313.05
872.3278	1272.0207	13297.45	12342.4
872.4723	1273.9183	13283.2	12327.1
872.6167	1275.8151	13198.65	12251.4
872.7611	1277.7113	13177.25	12228
872.9055	1279.6067	13221.1	12271.5
873.0499	1281.5014	13344.3	12394.85
873.1943	1283.3953	13650.4	12698.35
873.3386	1285.2885	14020.25	13073.65
873.483	1287.181	14435.95	13492.55
873.6274	1289.0727	14829.6	13884.45
873.7717	1290.9637	15072.95	14124.5
873.9161	1292.854	15276.75	14330.5
874.0604	1294.7435	15264.5	14318.35
874.2047	1296.6323	15221.35	14273.8
874.349	1298.5204	15139.35	14190.55
874.4933	1300.4077	15042.05	14095.4
874.6376	1302.2943	14909.95	13960.6
874.7819	1304.1802	14713.8	13764.35
874.9262	1306.0653	14339.9	13389.6
875.0705	1307.9497	13921.35	12974.9
875.2147	1309.8333	13548.35	12603.3
875.359	1311.7162	13292.3	12346.35
875.5032	1313.5984	13164.05	12211.45
875.6475	1315.4798	13053.45	12094.6
875.7917	1317.3605	13025	12061.45
875.9359	1319.2405	12909.4	11953.8
876.0801	1321.1197	12703.6	11756.1
876.2243	1322.9982	12435.75	11486.4
876.3685	1324.876	12222.95	11274.45
876.5127	1326.753	11974.5	11026.4
876.6569	1328.6293	11825.7	10873.15
876.801	1330.5048	11697.45	10742.1
876.9452	1332.3796	11556.65	10611.1
877.0893	1334.2537	11481	10510.25
877.2335	1336.127	11392.5	10445.65
877.3776	1337.9996	11374.75	10429.1
877.5217	1339.8714	11368.75	10419.35
877.6658	1341.7426	11399.4	10407.05
877.8099	1343.6129	11400.65	10445.8
877.954	1345.4826	11380.75	10433.05
878.0981	1347.3515	11375.55	10425.2
878.2422	1349.2196	11350.6	10398.7
878.3862	1351.087	11395.7	10448.15
878.5303	1352.9537	11434.3	10484.85
878.6743	1354.8197	11548.75	10600.2
878.8184	1356.6849	11681.3	10732.25
878.9624	1358.5493	11835.8	10885.95
879.1064	1360.4131	11988.25	11040.2
879.2504	1362.276	12105.5	11155.8
879.3944	1364.1383	12041.3	11094.35
879.5384	1365.9998	11861.65	10905.75
879.6823	1367.8606	11553.6	10603.75
879.8263	1369.7206	11176.85	10227.1
879.9702	1371.5799	10876.6	9922.6
880.1142	1373.4384	10634.05	9686.2
880.2581	1375.2962	10418.45	9470
880.402	1377.1533	10092.65	9148.45
880.5459	1379.0096	9756.35	8815.25
880.6898	1380.8652	9394.95	8452.05
880.8337	1382.7201	9132.85	8191.75
880.9776	1384.5742	8903.5	7958
881.1215	1386.4275	8730.75	7784.9
881.2653	1388.2802	8574.85	7628.35
881.4092	1390.132	8461.85	7513.15
881.553	1391.9832	8406.7	7457.2
881.6968	1393.8336	8344.75	7397.4
881.8406	1395.6832	8265.35	7319.85
881.9844	1397.5322	8229.65	7285.35
882.1282	1399.3803	8228.05	7275.35
882.272	1401.2278	8184.35	7239.25
882.4158	1403.0745	8177.05	7232.5
882.5595	1404.9204	8142.8	7203.2
882.7033	1406.7656	8158.9	7214.55
882.847	1408.6101	8186.1	7238.7
882.9908	1410.4538	8230.3	7284.25
883.1345	1412.2968	8263.5	7320.6
883.2782	1414.139	8306.75	7363.15
883.4219	1415.9805	8379.65	7434.45
883.5656	1417.8213	8477.55	7529.05
883.7092	1419.6613	8560.8	7617.6
883.8529	1421.5006	8693.8	7749.35
883.9965	1423.3391	8895.65	7951.65
884.1402	1425.1769	9206.45	8258.65
884.2838	1427.0139	9623.35	8679.7
884.4274	1428.8502	10157.45	9212.5
884.571	1430.6858	10675.5	9731.85
884.7146	1432.5206	11086.6	10145.6
884.8582	1434.3547	11291.65	10348.45
885.0018	1436.188	11299.75	10352.55
885.1453	1438.0206	11227.85	10283.5
885.2889	1439.8524	11041.5	10097.9
885.4324	1441.6835	10928.85	9984.8
885.5759	1443.5139	10848.45	9907.95
885.7194	1445.3435	10764.9	9824.1
885.8629	1447.1724	10758.75	9816.9
886.0064	1449.0005	10689	9748.05
886.1499	1450.8279	10619.75	9679.85
886.2933	1452.6545	10616.05	9676.2
886.4368	1454.4804	10603.05	9662.65
886.5802	1456.3056	10595.85	9649.55
886.7237	1458.13	10526.85	9587.55
886.8671	1459.9536	10346.9	9403.3
887.0105	1461.7766	10084.8	9141.3
887.1539	1463.5987	9764.55	8820.2
887.2972	1465.4202	9415.8	8473.7
887.4406	1467.2409	9101.7	8160.55
887.584	1469.0608	8829.15	7886.15
887.7273	1470.88	8580.7	7639.45
887.8706	1472.6984	8348.4	7409.75
888.0139	1474.5161	8135.05	7191.4
888.1572	1476.3331	8014.4	7071.95
888.3005	1478.1493	7878.2	6936.85
888.4438	1479.9648	7766.6	6825.7
888.5871	1481.7795	7670.1	6727.35
888.7303	1483.5935	7620.45	6675.7
888.8736	1485.4067	7557.6	6615.55
889.0168	1487.2192	7541.95	6599.75
889.16	1489.031	7498	6550.7
889.3032	1490.842	7463	6519.55
889.4464	1492.6522	7418.95	6481.1
889.5896	1494.4618	7391.15	6449.8
889.7327	1496.2705	7358.15	6421.85
889.8759	1498.0785	7336.3	6396.2
890.019	1499.8858	7295.95	6357
890.1622	1501.6924	7248.05	6309.25
890.3053	1503.4981	7211.4	6269.6
890.4484	1505.3032	7180.65	6237.75
890.5914	1507.1075	7123.2	6183.8
890.7345	1508.911	7093	6153.3
890.8776	1510.7138	7048.1	6110.9
891.0206	1512.5159	7001.95	6065.45
891.1637	1514.3172	6948.05	6011.75
891.3067	1516.1178	6900.9	5963.1
891.4497	1517.9176	6901.35	5962.2
891.5927	1519.7166	6834.2	5896.55
891.7357	1521.515	6822.4	5880.45
891.8786	1523.3126	6796.8	5860.05
892.0216	1525.1094	6759.95	5822.1
892.1645	1526.9055	6731.1	5797.05
892.3074	1528.7008	6707.85	5770.15
892.4503	1530.4954	6682.9	5746.35
892.5932	1532.2893	6675	5743.9
892.7361	1534.0824	6655.35	5720.5
892.879	1535.8747	6645.55	5716.95
893.0218	1537.6663	6632.55	5701.7
893.1647	1539.4572	6634.15	5698.45
893.3075	1541.2473	6620.4	5686
893.4503	1543.0367	6617.6	5686.55
893.5931	1544.8253	6645.8	5707.55
893.7359	1546.6132	6648.8	5710.3
893.8787	1548.4003	6673.45	5731.4
894.0214	1550.1867	6725.35	5787.8
894.1642	1551.9723	6781.2	5849.45
894.3069	1553.7572	6858.25	5928.7
894.4496	1555.5414	6954.7	6026.25
894.5923	1557.3247	7067.7	6138.85
894.735	1559.1074	7208.2	6284.4
894.8777	1560.8893	7351.4	6423.55
895.0204	1562.6705	7486.85	6559.2
895.163	1564.4509	7611.7	6685.1
895.3056	1566.2305	7669.9	6748.7
895.4482	1568.0094	7700.75	6781.15
895.5908	1569.7876	7719.5	6797.2
895.7334	1571.565	7707.45	6781.45
895.876	1573.3417	7682.5	6757
896.0186	1575.1176	7684.05	6760.1
896.1611	1576.8928	7666.9	6749.15
896.3036	1578.6672	7616.95	6703.15
896.4461	1580.4409	7619.2	6705.55
896.5886	1582.2138	7627.7	6706.05
896.7311	1583.986	7638.8	6718.9
896.8736	1585.7575	7693.75	6775.3
897.0161	1587.5282	7744.85	6828
897.1585	1589.2981	7810.55	6895.85
897.3009	1591.0673	7853.15	6938.25
897.4433	1592.8358	7948.55	7033.7
897.5857	1594.6035	8039	7117.6
897.7281	1596.3704	8103.7	7182.95
897.8705	1598.1366	8200.3	7280.5
898.0128	1599.9021	8289	7373.05
898.1551	1601.6668	8398.45	7478.7
898.2975	1603.4308	8505.8	7585.9
898.4398	1605.194	8674.8	7748
898.5821	1606.9564	8846.3	7935.85
898.7243	1608.7182	9087.3	8180.9
898.8666	1610.4791	9335.75	8434.1
899.0088	1612.2394	9618.65	8716.2
899.1511	1613.9988	9872.95	8967.7
899.2933	1615.7576	10150.4	9242.25
899.4355	1617.5156	10334.15	9414.45
899.5776	1619.2728	10452.95	9533.1
899.7198	1621.0293	10427.45	9511.45
899.862	1622.785	10273.3	9357
900.0041	1624.54	9962.85	9054.25
900.1462	1626.2942	9656.3	8745.95
900.2883	1628.0477	9286.8	8374.5
900.4304	1629.8005	9004.55	8090.55
900.5725	1631.5525	8680.35	7769.9
900.7145	1633.3037	8421.4	7514.75
900.8566	1635.0542	8218.45	7311.1
900.9986	1636.804	8085.75	7176.7
901.1406	1638.553	8039.15	7039.9
901.2826	1640.3013	7951.5	7038.25
901.4245	1642.0488	7916.95	7005.15
901.5665	1643.7955	7934.55	7026.2
901.7085	1645.5416	8010.65	7104.25
901.8504	1647.2868	8077	7168.5
901.9923	1649.0313	8196.4	7284.15
902.1342	1650.7751	8329.35	7416.75
902.2761	1652.5181	8481.9	7577.7
902.4179	1654.2604	8628.95	7724.1
902.5598	1656.0019	8888.9	7981.25
902.7016	1657.7427	9160.45	8250.15
902.8434	1659.4828	9389.2	8478.85
902.9852	1661.222	9530.8	8620.6
903.127	1662.9606	9499.7	8589.5
903.2687	1664.6984	9289.45	8376
903.4105	1666.4354	8864.35	7947.7
903.5522	1668.1717	8329.75	7415.2
903.6939	1669.9072	7777.45	6861.45
903.8356	1671.642	7316.45	6398.6
903.9773	1673.3761	6947.9	6037.95
904.119	1675.1094	6628.6	5717.35
904.2606	1676.8419	6385.55	5476.1
904.4022	1678.5737	6168.8	5256.95
904.5439	1680.3048	6027.2	5115.05
904.6855	1682.0351	5906.9	4995.15
904.827	1683.7646	5790.1	4872.95
904.9686	1685.4934	5709.05	4797.55
905.1101	1687.2215	5633.7	4723.55
905.2517	1688.9488	5553.8	4644.7
905.3932	1690.6754	5505.35	4596.95
905.5347	1692.4012	5470.3	4558.3
905.6761	1694.1263	5430.6	4519.7
905.8176	1695.8506	5395.6	4485.75
905.9591	1697.5742	5343.95	4438.3
906.1005	1699.297	5290.45	4385.75
906.2419	1701.0191	5221.75	4318.1
906.3833	1702.7404	5198.95	4294.95
906.5246	1704.461	5151.05	4241.8
906.666	1706.1808	5146.2	4237.5
906.8073	1707.8999	5100.3	4194.25
906.9487	1709.6182	5057.6	4155.8
907.09	1711.3358	5051.05	4151.45
907.2313	1713.0527	5026.5	4125.75
907.3725	1714.7688	5003.8	4096.3
907.5138	1716.4841	4969.1	4062.75
907.655	1718.1987	4969.45	4058.8
907.7962	1719.9126	4948.95	4048.95
907.9374	1721.6257	4923.65	4022.95
908.0786	1723.338	4928.75	4029.55
908.2198	1725.0496	4871.75	3968.8
908.3609	1726.7605	4879.6	3976
908.502	1728.4706	4847.8	3947.65
908.6431	1730.18	4836.2	3935.65
908.7842	1731.8886	4826.75	3927.45
908.9253	1733.5964	4816.6	3897.9
909.0664	1735.3036	4798.85	3893.8
909.2074	1737.0099	4767.2	3865.15
909.3484	1738.7156	4755.4	3855.35
909.4894	1740.4204	4725.25	3822.9
909.6304	1742.1246	4716.85	3814.7
909.7714	1743.8279	4682.4	3779.8
909.9123	1745.5306	4649.65	3750.5
910.0532	1747.2325	4630.2	3731.6
910.1941	1748.9336	4625.25	3725.2
910.335	1750.634	4592.8	3685.8
910.4759	1752.3336	4600.55	3701.6
910.6168	1754.0325	4581.2	3684.05
910.7576	1755.7307	4570.05	3670.45
910.8984	1757.4281	4553.3	3653.15
911.0392	1759.1247	4557.75	3646.25
911.18	1760.8206	4542.15	3633.35
911.3208	1762.5158	4547.55	3638.75
911.4615	1764.2102	4518.95	3619.4
911.6022	1765.9039	4500.15	3599.3
911.7429	1767.5968	4488.3	3590.7
911.8836	1769.289	4479.55	3579
912.0243	1770.9804	4460.85	3558.85
912.1649	1772.6711	4459	3553.6
912.3056	1774.361	4458.1	3552.55
912.4462	1776.0502	4452.2	3548.85
912.5868	1777.7386	4437.25	3532.45
912.7274	1779.4263	4410.45	3510.45
912.8679	1781.1132	4410.85	3514.15
913.0084	1782.7994	4382.55	3484.3
913.149	1784.4849	4388.35	3492.4
913.2895	1786.1696	4391.7	3476.35
913.4299	1787.8535	4366.9	3471.4
913.5704	1789.5367	4355.15	3460.65
913.7108	1791.2192	4360.9	3465.35
913.8513	1792.9009	4351.8	3425.7
913.9917	1794.5818	4354.5	3450.75
914.132	1796.2621	4320.15	3421.05
914.2724	1797.9415	4308.15	3406.8
914.4128	1799.6202	4288.3	3386.05
914.5531	1801.2982	4302.6	3400.25
914.6934	1802.9755	4275.15	3372.6
914.8337	1804.6519	4279.95	3378.95
914.9739	1806.3277	4254	3357
915.1142	1808.0027	4242.75	3348.5
915.2544	1809.6769	4241.8	3348.9
915.3946	1811.3504	4223.6	3329.35
915.5348	1813.0231	4230.95	3335.85
915.675	1814.6951	4234.2	3338
915.8151	1816.3664	4234	3334.75
915.9553	1818.0369	4233.3	3331.6
916.0954	1819.7067	4187.05	3288.35
916.2355	1821.3757	4185.4	3286.15
916.3755	1823.044	4176	3274
916.5156	1824.7115	4174.05	3271.25
916.6556	1826.3783	4178.4	3276.55
916.7956	1828.0443	4161.6	3263.85
916.9356	1829.7096	4156.2	3256.6
917.0756	1831.3741	4152.55	3252.45
917.2155	1833.0379	4125.45	3230.4
917.3555	1834.701	4112.95	3218.65
917.4954	1836.3633	4107.05	3212
917.6353	1838.0248	4104.35	3208.4
917.7751	1839.6856	4103.2	3204.35
917.915	1841.3457	4104.25	3206.2
918.0548	1843.005	4093.45	3193.5
918.1946	1844.6636	4097.85	3197.45
918.3344	1846.3214	4084.8	3187.25
918.4742	1847.9785	4083.75	3187
918.6139	1849.6349	4071.05	3170.4
918.7537	1851.2904	4057.5	3147.15
918.8934	1852.9453	4055.7	3153.15
919.0331	1854.5994	4051	3147.9
919.1727	1856.2528	4051.2	3146.85
919.3124	1857.9054	4040.45	3142.8
919.452	1859.5572	4039.3	3140.9
919.5916	1861.2083	4009.95	3109.05
919.7312	1862.8587	4017.5	3118.05
919.8708	1864.5084	4000.8	3099.85
920.0103	1866.1572	4005.2	3103.25
920.1498	1867.8054	3989.7	3087.65
920.2893	1869.4528	4003.55	3101.85
920.4288	1871.0994	3973.2	3072.35
920.5683	1872.7453	3970.55	3069.35
920.7077	1874.3905	3963.8	3058.4
920.8471	1876.0349	3937.35	3034.75
920.9865	1877.6786	3941.65	3038.3
921.1259	1879.3215	3940.05	3041.25
921.2653	1880.9637	3933.45	3031.9
921.4046	1882.6051	3924.1	3026.4
921.5439	1884.2458	3902.65	3003.3
921.6832	1885.8858	3903.75	3007.6
921.8225	1887.525	3893	2995.3
921.9617	1889.1634	3884.45	2983.6
922.101	1890.8011	3861.05	2961.4
922.2402	1892.4381	3885.15	2984
922.3794	1894.0743	3867.15	2967.5
922.5185	1895.7098	3849.3	2950.2
922.6577	1897.3446	3852.8	2955.3
922.7968	1898.9786	3841.85	2940.7
922.9359	1900.6118	3818.95	2920.15
923.075	1902.2443	3823.65	2923.8
923.214	1903.8761	3805.3	2907.35
923.3531	1905.5071	3789.05	2886.35
923.4921	1907.1374	3776.1	2877.6
923.6311	1908.7669	3784.75	2889.05
923.77	1910.3957	3782.55	2885.05
923.909	1912.0237	3757.35	2859.95
924.0479	1913.651	3753.1	2852.7
924.1868	1915.2776	3762.2	2866.5
924.3257	1916.9034	3735.1	2838
924.4646	1918.5285	3718.75	2823.8
924.6034	1920.1528	3706	2810
924.7422	1921.7764	3710.4	2812.15
924.881	1923.3992	3695.9	2798.35
925.0198	1925.0213	3681.35	2783.45
925.1586	1926.6427	3658.2	2763.55
925.2973	1928.2633	3717.6	2740.55
925.436	1929.8832	3663.75	2765.25
925.5747	1931.5023	3646.75	2749.95
925.7134	1933.1207	3643.85	2746.4
925.852	1934.7383	3627.55	2729.9
925.9906	1936.3552	3620.9	2724.7
926.1292	1937.9714	3613.8	2718.45
926.2678	1939.5868	3583.55	2684.8
926.4064	1941.2015	3571.65	2673.2
926.5449	1942.8154	3570.75	2669.75
926.6834	1944.4286	3567.75	2669.25
926.8219	1946.041	3561.9	2650.65
926.9604	1947.6528	3550.3	2646.9
927.0988	1949.2637	3539.65	2641.05
927.2372	1950.8739	3520.7	2623.3
927.3756	1952.4834	3524.65	2630.85
927.514	1954.0921	3528.35	2633.8
927.6523	1955.7001	3509.25	2609.5
927.7907	1957.3074	3488.5	2596.35
927.929	1958.9139	3478.75	2585.05
928.0673	1960.5197	3481.95	2589.8
928.2055	1962.1247	3461.7	2568.15
928.3438	1963.729	3434.55	2541.5
928.482	1965.3325	3438.15	2541.75
928.6202	1966.9353	3419.5	2528.6
928.7584	1968.5374	3421.85	2529.6
928.8965	1970.1387	3415.35	2523.05
929.0346	1971.7393	3399.2	2504.05
929.1727	1973.3392	3391.85	2500.2
929.3108	1974.9383	3382.15	2491.15
929.4489	1976.5366	3363.45	2471.2
929.5869	1978.1342	3386.55	2497.45
929.7249	1979.7311	3370.3	2478.95
929.8629	1981.3273	3351.35	2461.6
930.0009	1982.9227	3339.3	2448.55
930.1388	1984.5173	3326.6	2436
930.2767	1986.1112	3318.8	2429.6
930.4146	1987.7044	3331.15	2440.9
930.5525	1989.2968	3322.3	2431.9
930.6904	1990.8885	3314.35	2424.1
930.8282	1992.4795	3296.8	2407.85
930.966	1994.0697	3287.15	2401.3
931.1038	1995.6592	3286.45	2400.2
931.2415	1997.2479	3285.25	2394.5
931.3793	1998.8359	3279.35	2392.95
931.517	2000.4232	3277.55	2395
931.6547	2002.0097	3254.15	2371.6
931.7923	2003.5955	3245.35	2360.7
931.93	2005.1805	3240.75	2353.7
932.0676	2006.7648	3243.1	2359.1
932.2052	2008.3484	3228.15	2341.55
932.3427	2009.9312	3216.5	2331.45
932.4803	2011.5133	3212.05	2330.6
932.6178	2013.0946	3206.2	2322.05
932.7553	2014.6752	3182.6	2298.25
932.8928	2016.2551	3188.4	2300.5
933.0302	2017.8342	3191.25	2306.65
933.1676	2019.4126	3173.55	2290.65
933.305	2020.9902	3160.2	2278.1
933.4424	2022.5672	3154.85	2271.2
933.5798	2024.1433	3163.6	2278.3
933.7171	2025.7188	3157.85	2278.2
933.8544	2027.2935	3144.45	2261.35
933.9917	2028.8674	3143.35	2261.75
934.129	2030.4406	3119.55	2241.6
934.2662	2032.0131	3118.2	2239.45
934.4034	2033.5849	3103.8	2220.4
934.5406	2035.1559	3107.25	2228.15
934.6778	2036.7261	3113.8	2231
934.8149	2038.2957	3099.7	2214.3
934.952	2039.8645	3108.7	2220.15
935.0891	2041.4325	3116.55	2224.95
935.2262	2042.9998	3080.75	2196.1
935.3632	2044.5664	3075.45	2190
935.5002	2046.1323	3067.25	2184.6
935.6372	2047.6974	3054.05	2172.55
935.7742	2049.2617	3058.35	2178.6
935.9111	2050.8254	3065.65	2157.65
936.048	2052.3883	3052.3	2166.1
936.1849	2053.9504	3042.85	2156.55
936.3218	2055.5118	3047.65	2159.95
936.4586	2057.0725	3040.75	2153.2
936.5955	2058.6325	3015.2	2129.85
936.7323	2060.1917	3015.35	2133.6
936.869	2061.7502	3017.75	2132.6
937.0058	2063.3079	3004.5	2122
937.1425	2064.8649	2996.95	2111.55
937.2792	2066.4212	3004.5	2120.85
937.4159	2067.9767	2998.2	2114.25
937.5525	2069.5315	2983.35	2098
937.6891	2071.0856	2973.95	2092.05
937.8257	2072.6389	2961.95	2078.8
937.9623	2074.1915	2944.3	2065.2
938.0989	2075.7433	2950.6	2065.2
938.2354	2077.2945	2948.1	2065.7
938.3719	2078.8448	2938.6	2054.5
938.5084	2080.3945	2940.7	2051.85
938.6448	2081.9434	2926.05	2038.65
938.7812	2083.4916	2927.75	2039.3
938.9176	2085.039	2920.25	2027.1
939.054	2086.5857	2920.55	2023.5
939.1903	2088.1317	2902.85	2007.05
939.3267	2089.677	2906.8	2013.1
939.463	2091.2215	2897.9	2003.55
939.5992	2092.7652	2898.8	2003.35
939.7355	2094.3083	2884.7	1990.5
939.8717	2095.8506	2880.3	1989.45
940.0079	2097.3921	2874.9	1987.45
940.1441	2098.933	2860.9	1973.4
940.2802	2100.4731	2871.7	1981.45
940.4163	2102.0124	2863	1965.35
940.5524	2103.5511	2853.5	1962
940.6885	2105.089	2849.5	1957.9
940.8245	2106.6261	2843.3	1952.3
940.9606	2108.1626	2841.65	1952.4
941.0965	2109.6983	2865.8	1949.2
941.2325	2111.2332	2841.1	1949.75
941.3684	2112.7675	2837	1947.05
941.5044	2114.301	2828.4	1936.95
941.6403	2115.8337	2816.75	1926.15
941.7761	2117.3657	2819.1	1927.75
941.912	2118.897	2815.9	1924
942.0478	2120.4276	2798.9	1898.45
942.1835	2121.9575	2787.2	1895.3
942.3193	2123.4866	2795.1	1900.4
942.455	2125.0149	2789.5	1898.15
942.5907	2126.5426	2782.1	1893.75
942.7264	2128.0695	2771.85	1884.75
942.8621	2129.5956	2763.35	1880.2
942.9977	2131.1211	2761.1	1869.95
943.1333	2132.6458	2758.75	1871.25
943.2689	2134.1698	2754.25	1861.95
943.4044	2135.693	2748.35	1853.65
943.54	2137.2155	2754.1	1860.4
943.6755	2138.7373	2741	1851.7
943.8109	2140.2584	2732.7	1845.6
943.9464	2141.7787	2727.85	1840.05
944.0818	2143.2983	2715.6	1835.25
944.2172	2144.8171	2710	1829.2
944.3526	2146.3353	2705.7	1817.85
944.4879	2147.8527	2691.45	1806.5
944.6232	2149.3693	2705.7	1816.3
944.7585	2150.8853	2709.05	1818.8
944.8938	2152.4005	2695.85	1802.9
945.029	2153.9149	2689.75	1797.4
945.1642	2155.4287	2683.7	1790.7
945.2994	2156.9417	2685.6	1791.75
945.4346	2158.454	2668.35	1779.55
945.5697	2159.9655	2661.45	1774.8
945.7048	2161.4764	2656.35	1769.5
945.8399	2162.9865	2646.65	1760.05
945.9749	2164.4958	2643.4	1755.55
946.1099	2166.0045	2640.4	1751.4
946.2449	2167.5124	2657.95	1768.7
946.3799	2169.0195	2632.2	1743.85
946.5148	2170.526	2633.35	1741.15
946.6498	2172.0317	2633.15	1740.6
946.7846	2173.5367	2615.1	1725.8
946.9195	2175.0409	2620.55	1730.3
947.0543	2176.5445	2618.9	1730.6
947.1891	2178.0473	2612.9	1720.35
947.3239	2179.5494	2607.75	1711.2
947.4587	2181.0507	2608.15	1718.7
947.5934	2182.5513	2608	1718
947.7281	2184.0512	2594.65	1702.6
947.8628	2185.5504	2586	1694.5
947.9974	2187.0488	2578.25	1689.6
948.132	2188.5465	2571.95	1685.55
948.2666	2190.0435	2574.6	1687.65
948.4012	2191.5397	2554.7	1663.45
948.5357	2193.0353	2576.25	1684.9
948.6702	2194.5301	2563.1	1667.75
948.8047	2196.0241	2557.35	1662.65
948.9392	2197.5175	2556.35	1661.7
949.0736	2199.0101	2549.6	1650.2
949.208	2200.502	2529.6	1638.15
949.3424	2201.9931	2520.15	1633.25
949.4767	2203.4835	2516.9	1630.4
949.611	2204.9733	2518.3	1616.9
949.7453	2206.4622	2500.95	1616.25
949.8796	2207.9505	2504.8	1617.35
950.0138	2209.438	2494.5	1609.35
950.148	2210.9248	2481.6	1595.4
950.2822	2212.4109	2490.9	1601.9
950.4164	2213.8962	2485.2	1589.45
950.5505	2215.3809	2486	1590.5
950.6846	2216.8648	2473.25	1574.15
950.8186	2218.3479	2477.35	1575.85
950.9527	2219.8304	2474.8	1573.75
951.0867	2221.3121	2462.95	1561.75
951.2207	2222.7931	2454.4	1559.35
951.3546	2224.2733	2443.85	1550.05
951.4886	2225.7529	2438.5	1546.95
951.6225	2227.2317	2436.8	1545.4
951.7563	2228.7098	2425.55	1537.9
951.8902	2230.1872	2412.2	1526.75
952.024	2231.6638	2420.3	1531.55
952.1578	2233.1397	2411.05	1521.9
952.2916	2234.6149	2409.3	1522
952.4253	2236.0894	2401.5	1511.15
952.559	2237.5632	2417.6	1517.5
952.6927	2239.0362	2398.55	1507.05
952.8263	2240.5085	2394.35	1505.9
952.9599	2241.9801	2397	1506.55
953.0935	2243.4509	2387.05	1492.45
953.2271	2244.921	2376.3	1482.4
953.3606	2246.3904	2377.9	1480.2
953.4941	2247.8591	2376.1	1485.1
953.6276	2249.3271	2365.35	1472.7
953.7611	2250.7943	2353.8	1460.6
953.8945	2252.2608	2356.7	1463.7
954.0279	2253.7266	2346.55	1453.45
954.1612	2255.1917	2335.2	1444.1
954.2946	2256.656	2333.15	1443.85
954.4279	2258.1197	2339.55	1451.45
954.5612	2259.5826	2330.25	1441.75
954.6944	2261.0447	2336.3	1446
954.8276	2262.5062	2324.85	1429.35
954.9608	2263.9669	2317.6	1422.95
955.094	2265.4269	2314.8	1419.65
955.2271	2266.8862	2306.55	1416.2
955.3602	2268.3448	2313.4	1422.8
955.4933	2269.8026	2310.55	1422.15
955.6264	2271.2598	2294.5	1406.9
955.7594	2272.7162	2300.35	1411.25
955.8924	2274.1719	2295.3	1404.65
956.0253	2275.6268	2301.8	1407.45
956.1583	2277.0811	2289.35	1396.15
956.2912	2278.5346	2288.1	1398.2
956.4241	2279.9874	2283.2	1393
956.5569	2281.4395	2282.4	1396.65
956.6897	2282.8908	2272.5	1378.1
956.8225	2284.3414	2273.05	1380.1
956.9553	2285.7914	2259.2	1369.55
957.088	2287.2406	2274.05	1378.8
957.2207	2288.689	2265	1371.3
957.3534	2290.1368	2266.05	1370.75
957.486	2291.5838	2264.35	1362.6
957.6186	2293.0302	2253	1356.35
957.7512	2294.4758	2249.3	1353.25
957.8838	2295.9206	2237.65	1343.05
958.0163	2297.3648	2229.4	1337.05
958.1488	2298.8082	2228.7	1336.85
958.2813	2300.251	2237.05	1345.55
958.4137	2301.693	2231.55	1335.15
958.5461	2303.1343	2225.5	1332.7
958.6785	2304.5748	2224.4	1332
958.8108	2306.0147	2213.4	1322.5
958.9432	2307.4538	2207.7	1317.35
959.0754	2308.8922	2208.1	1323
959.2077	2310.3299	2195.05	1308.1
959.3399	2311.7669	2193.95	1305.5
959.4721	2313.2031	2193.5	1302.55
959.6043	2314.6387	2197.35	1304.2
959.7365	2316.0735	2193.25	1301.8
959.8686	2317.5076	2190.05	1294.7
960.0006	2318.941	2177.35	1282.75
960.1327	2320.3737	2184.1	1288.4
960.2647	2321.8056	2176.3	1278.9
960.3967	2323.2369	2167.75	1274.15
960.5287	2324.6674	2169.85	1274.45
960.6606	2326.0972	2158.15	1265.25
960.7925	2327.5263	2157.95	1266.35
960.9244	2328.9547	2153.15	1258.9
961.0562	2330.3823	2155.45	1259.55
961.1881	2331.8092	2160.5	1261.6
961.3198	2333.2355	2144.95	1248.75
961.4516	2334.661	2150.1	1253.1
961.5833	2336.0858	2128.8	1233.95
961.715	2337.5098	2140.4	1246.55
961.8467	2338.9332	2138.55	1245.25
961.9783	2340.3558	2124.6	1231.7
962.1099	2341.7778	2124.2	1233.7
962.2415	2343.199	2119.6	1226.95
962.373	2344.6195	2114.2	1223.7
962.5045	2346.0393	2114	1221.55
962.636	2347.4583	2108.95	1217.45
962.7675	2348.8767	2116.25	1220.5
962.8989	2350.2943	2102.45	1206.85
963.0303	2351.7113	2113.75	1217.1
963.1617	2353.1275	2107.65	1210.35
963.293	2354.543	2115.4	1211.35
963.4243	2355.9578	2098.3	1201.25
963.5556	2357.3718	2092.85	1200.7
963.6868	2358.7852	2088.7	1197.15
963.818	2360.1978	2088.55	1196.2
963.9492	2361.6098	2089.35	1197.75
964.0803	2363.021	2081.1	1185.85
964.2114	2364.4315	2083.85	1190.05
964.3425	2365.8413	2073.65	1179.9
964.4736	2367.2504	2066.2	1174.9
964.6046	2368.6587	2064.85	1174.45
964.7356	2370.0664	2060.1	1170.55
964.8666	2371.4733	2054.4	1162.6
964.9975	2372.8795	2044.45	1150.55
965.1284	2374.285	2054.7	1161.7
965.2593	2375.6899	2037.95	1145.3
965.3901	2377.0939	2038.3	1145.35
965.5209	2378.4973	2025.65	1133.35
965.6517	2379.9	2027.65	1139.2
965.7825	2381.3019	2018.35	1128.05
965.9132	2382.7032	2017.65	1129.15
966.0439	2384.1037	2026.45	1139.75
966.1745	2385.5035	2011.55	1123.5
966.3051	2386.9027	2002.75	1117.75
966.4357	2388.3011	2017.95	1127.3
966.5663	2389.6987	2012.4	1122.5
966.6968	2391.0957	1989.55	1100.25
966.8273	2392.492	1998.45	1107.05
966.9578	2393.8876	1987.75	1097.85
967.0882	2395.2824	1982.1	1092.05
967.2186	2396.6765	1985.4	1092.95
967.349	2398.07	1981.5	1089.9
967.4793	2399.4627	1976.65	1081.5
967.6097	2400.8547	1983.6	1093.3
967.7399	2402.246	1981.75	1085.8
967.8702	2403.6366	1961.8	1070.4
968.0004	2405.0265	1960.4	1070.85
968.1306	2406.4156	1967.5	1074.1
968.2607	2407.8041	1961.5	1069.9
968.3909	2409.1918	1957.7	1065.3
968.521	2410.5789	1955.6	1064.3
968.651	2411.9652	1943.6	1051.55
968.781	2413.3508	1946.65	1054.05
968.911	2414.7358	1938.15	1046.35
969.041	2416.12	1935.05	1045.95
969.1709	2417.5035	1933.95	1042.9
969.3008	2418.8863	1935.05	1044.2
969.4307	2420.2684	1930.65	1039.05
969.5606	2421.6497	1920.65	1027.3
969.6904	2423.0304	1913.3	1023.35
969.8201	2424.4104	1917.7	1025.2
969.9499	2425.7896	1914.1	1023.3
970.0796	2427.1682	1915.65	1026.4
970.2093	2428.546	1906.1	1013.4
970.3389	2429.9232	1905.95	1013.4
970.4685	2431.2996	1907.75	1016.2
970.5981	2432.6753	1903.05	1012.35
970.7277	2434.0503	1897.8	1003.55
970.8572	2435.4246	1894	1003.4
970.9867	2436.7982	1890.35	996.15
971.1161	2438.1711	1891.35	998.35
971.2456	2439.5433	1879.45	987.6
971.375	2440.9148	1879.85	983.65
971.5043	2442.2856	1875.7	982.95
971.6336	2443.6557	1874.5	984.35
971.7629	2445.025	1869.3	976.9
971.8922	2446.3937	1858.6	968.05
972.0214	2447.7617	1858.4	965.8
972.1506	2449.1289	1857.55	966.85
972.2798	2450.4955	1870.75	975.9
972.4089	2451.8613	1850.8	957.7
972.538	2453.2265	1844.15	954.55
972.6671	2454.5909	1852.2	961.3
972.7961	2455.9546	1852.25	963.05
972.9251	2457.3177	1849.95	958.7
973.0541	2458.68	1852	957.6
973.1831	2460.0416	1837.2	947.7
973.312	2461.4025	1838.55	944.95
973.4408	2462.7627	1846.05	944.65
973.5697	2464.1222	1837.15	946.95
973.6985	2465.4811	1837.45	947.8
973.8273	2466.8392	1824.3	934.55
973.956	2468.1966	1828.6	937.85
974.0847	2469.5533	1832.8	937.6
974.2134	2470.9093	1831.75	940.55
974.3421	2472.2645	1827.3	937.25
974.4707	2473.6191	1822.95	932.5
974.5993	2474.973	1819.3	927.8
974.7278	2476.3262	1822.1	930.1
974.8563	2477.6787	1807.4	916.7
974.9848	2479.0305	1803.75	913.85
975.1132	2480.3816	1806.5	916.4
975.2417	2481.7319	1805.9	913.55
975.37	2483.0816	1810.05	916
975.4984	2484.4306	1802.1	910
975.6267	2485.7789	1787.4	897.65
975.755	2487.1264	1791.55	900.05
975.8833	2488.4733	1782.25	894.05
976.0115	2489.8195	1789.05	889.85
976.1397	2491.165	1798.9	905.95
976.2678	2492.5097	1786.45	895.3
976.3959	2493.8538	1768.2	877.95
976.524	2495.1972	1775	885.7
976.6521	2496.5398	1769.2	876.15
976.7801	2497.8818	1771.9	878.2
976.9081	2499.2231	1768.2	876.2
977.036	2500.5637	1749.9	853.8
977.164	2501.9035	1758.75	864.95
977.2918	2503.2427	1759.15	863.65
977.4197	2504.5812	1757.25	866.85
977.5475	2505.919	1752.9	860.45
977.6753	2507.256	1739.95	849.35
977.8031	2508.5924	1749.15	859.75
977.9308	2509.9281	1753.9	857.65
978.0585	2511.2631	1741	850.4
978.1861	2512.5974	1733.75	843.6
978.3137	2513.9309	1738.8	848.4
978.4413	2515.2638	1763.4	844.35
978.5689	2516.596	1738.85	847.9
978.6964	2517.9275	1732.2	839.9
978.8239	2519.2583	1730.95	837.6
978.9513	2520.5884	1725.25	833.15
979.0788	2521.9178	1731.1	840.55
979.2062	2523.2465	1721.15	832
979.3335	2524.5745	1714.55	825.55
979.4608	2525.9018	1714.8	824.65
979.5881	2527.2284	1708.7	819.8
979.7154	2528.5543	1711.6	821.05
979.8426	2529.8796	1709.9	817.85
979.9698	2531.2041	1698.2	808.4
980.0969	2532.5279	1706.35	815.9
980.224	2533.851	1703.95	812.8
980.3511	2535.1735	1702.1	810.65
980.4781	2536.4952	1703.4	812.95
980.6052	2537.8163	1706.9	814.45
980.7321	2539.1366	1698.25	805.35
980.8591	2540.4562	1696.9	803.4
980.986	2541.7752	1693.65	802.8
981.1129	2543.0935	1689.6	796.15
981.2397	2544.411	1695.4	805.05
981.3665	2545.7279	1690.1	799.7
981.4933	2547.0441	1696.55	802.4
981.62	2548.3596	1685.85	792.3
981.7467	2549.6744	1687.4	793.85
981.8734	2550.9885	1690.15	796.7
982.0001	2552.3019	1675.85	785.4
982.1267	2553.6146	1683.65	791.85
982.2532	2554.9266	1676.95	785.85
982.3798	2556.2379	1680.5	788.8
982.5063	2557.5485	1666.55	776.75
982.6327	2558.8585	1674.2	776.4
982.7592	2560.1677	1672.1	776.55
982.8856	2561.4762	1675.1	784
983.0119	2562.7841	1672.8	777.85
983.1383	2564.0913	1663.5	773
983.2646	2565.3977	1666.15	774.8
983.3908	2566.7035	1656.25	763.65
983.517	2568.0086	1665	773.6
983.6432	2569.313	1664.15	769.5
983.7694	2570.6167	1662.05	765.3
983.8955	2571.9197	1664.05	774.9
984.0216	2573.222	1667.9	774.7
984.1476	2574.5236	1657.9	767.7
984.2737	2575.8246	1651.9	757.4
984.3996	2577.1248	1659.5	765.25
984.5256	2578.4244	1651.15	762.5
984.6515	2579.7232	1652.4	761.15
984.7774	2581.0214	1681.7	764.8
984.9032	2582.3189	1658.45	767.75
985.029	2583.6157	1654.25	758.05
985.1548	2584.9118	1651.7	758.8
985.2806	2586.2072	1651.95	761.75
985.4063	2587.5019	1641.05	749.7
985.5319	2588.7959	1649.6	757.55
985.6576	2590.0893	1647.1	755.6
985.7832	2591.3819	1647.95	755.45
985.9087	2592.6739	1647.4	757.3
986.0343	2593.9652	1648.7	757.2
986.1597	2595.2557	1646.4	757.15
986.2852	2596.5456	1647.1	753.9
986.4106	2597.8348	1650.3	759.65
986.536	2599.1234	1641.6	750.8
986.6614	2600.4112	1640.4	748.25
986.7867	2601.6983	1647.1	751.25
986.912	2602.9848	1642.6	749.75
987.0372	2604.2705	1644.65	747.05
987.1624	2605.5556	1641.8	750.4
987.2876	2606.84	1635.15	743.45
987.4128	2608.1237	1634.4	740.95
987.5379	2609.4067	1630.15	739.4
987.6629	2610.689	1635.95	738.55
987.788	2611.9707	1618.95	724.3
987.913	2613.2516	1626.35	732.3
988.0379	2614.5319	1613.8	722.4
988.1629	2615.8115	1605.45	713.1
988.2878	2617.0903	1605.05	711.9
988.4126	2618.3685	1611.15	720.45
988.5375	2619.6461	1607.6	717.7
988.6622	2620.9229	1605.2	715.75
988.787	2622.199	1607.3	717.05
988.9117	2623.4745	1606.95	718.2
989.0364	2624.7493	1599.1	710.8
989.161	2626.0234	1605.2	715.95
989.2857	2627.2968	1607.8	719.25
989.4102	2628.5695	1593.85	702.1
989.5348	2629.8415	1597.75	709.1
989.6593	2631.1128	1589.85	697.5
989.7837	2632.3835	1591.85	704.1
989.9082	2633.6535	1586.25	700.3
990.0326	2634.9228	1597.35	709.45
990.1569	2636.1914	1582.4	694.65
990.2812	2637.4593	1588.8	699.15
990.4055	2638.7265	1584.5	692
990.5298	2639.9931	1578.25	688.45
990.654	2641.259	1578.7	688.35
990.7782	2642.5242	1573.35	684.1
990.9023	2643.7887	1578.05	688.3
991.0264	2645.0525	1570.65	680.7
991.1505	2646.3156	1562.1	671.4
991.2745	2647.5781	1569.15	677.45
991.3985	2648.8398	1565	677.4
991.5225	2650.1009	1598.3	674.25
991.6464	2651.3613	1566.7	677.65
991.7703	2652.6211	1563.9	675.65
991.8942	2653.8801	1561.25	673.6
992.018	2655.1385	1558.95	668
992.1418	2656.3961	1558.8	670.4
992.2655	2657.6531	1552.65	664.15
992.3892	2658.9094	1548.9	661.5
992.5129	2660.1651	1558.75	670.65
992.6366	2661.42	1563.2	674.5
992.7602	2662.6743	1556	665.25
992.8837	2663.9279	1559.8	668.45
993.0073	2665.1808	1570.8	681.55
993.1307	2666.433	1563.55	674.65
993.2542	2667.6846	1551.45	661.05
993.3776	2668.9354	1561.7	671.05
993.501	2670.1856	1563.05	673.75
993.6244	2671.4351	1559.7	671.85
993.7477	2672.6839	1573.85	685.4
993.8709	2673.9321	1567.35	678.95
993.9942	2675.1795	1567.35	677.35
994.1174	2676.4263	1568.7	677.4
994.2405	2677.6724	1570.1	682.05
994.3637	2678.9179	1574.75	685
994.4868	2680.1626	1567.65	680.65
994.6098	2681.4067	1574.2	685.1
994.7328	2682.6501	1570.35	679.95
994.8558	2683.8928	1563.5	675.5
994.9788	2685.1348	1560.65	674.45
995.1017	2686.3761	1556.1	667.7
995.2245	2687.6168	1548.1	660
995.3474	2688.8568	1547.3	656.95
995.4702	2690.0961	1547.5	660.95
995.5929	2691.3348	1541.7	652.65
995.7156	2692.5727	1540.85	650.95
995.8383	2693.81	1534.05	645.85
995.961	2695.0466	1528.4	642.05
996.0836	2696.2826	1537.25	647.85
996.2062	2697.5178	1558.2	651.65
996.3287	2698.7524	1533.4	642.9
996.4512	2699.9863	1544.6	651.55
996.5737	2701.2195	1543.8	656.55
996.6961	2702.452	1544.9	655.65
996.8185	2703.6839	1546.95	656.35
996.9408	2704.9151	1542.9	655.45
997.0631	2706.1456	1552.25	666.25
997.1854	2707.3755	1552.7	663.15
997.3077	2708.6046	1565.25	675.4
997.4299	2709.8331	1573.25	685.95
997.552	2711.0609	1566.15	677.8
997.6742	2712.2881	1582.25	694.7
997.7963	2713.5145	1586.3	696.3
997.9183	2714.7403	1588.8	702.95
998.0403	2715.9654	1600.45	713.2
998.1623	2717.1899	1620.6	719.45
998.2842	2718.4136	1619.9	731.05
998.4062	2719.6367	1634.55	746.05
998.528	2720.8591	1654.7	758.6
998.6498	2722.0809	1643.75	756.9
998.7716	2723.3019	1660.5	769.2
998.8934	2724.5223	1669.95	782.05
999.0151	2725.7421	1677.75	789.2
999.1368	2726.9611	1676.55	789.7
999.2584	2728.1795	1672.95	779.4
999.38	2729.3972	1667.55	779.35
999.5016	2730.6142	1668.75	767.9
999.6231	2731.8306	1638.55	749.4
999.7446	2733.0462	1631.75	739.3
999.8661	2734.2612	1615.7	725.65
999.9875	2735.4756	1595.95	708.1
1000.1089	2736.6892	1576.35	691.6
1000.2302	2737.9022	1568.95	685.9
1000.3515	2739.1145	1552.7	663.6
1000.4728	2740.3262	1553.95	659.25
1000.594	2741.5372	1532.6	646.05
1000.7152	2742.7475	1528.6	641.1
1000.8363	2743.9571	1510.9	622.7
1000.9575	2745.1661	1515.65	622.2
1001.0785	2746.3744	1488.95	602.75
1001.1996	2747.582	1485.6	599.45
1001.3206	2748.7889	1480	593.35
1001.4415	2749.9952	1468.25	582.95
1001.5625	2751.2008	1467	577.55
1001.6833	2752.4057	1465.25	577.8
1001.8042	2753.61	1461.45	572.85
1001.925	2754.8136	1462.15	575.05
1002.0458	2756.0165	1455.25	572.05
1002.1665	2757.2188	1451.2	566.55
1002.2872	2758.4204	1445.95	560.7
1002.4078	2759.6213	1453.55	564.7
1002.5285	2760.8215	1458.7	567.7
1002.649	2762.0211	1448.5	560.7
1002.7696	2763.22	1451.2	561.45
1002.8901	2764.4182	1445.5	556.5
1003.0106	2765.6158	1447.2	560.75
1003.131	2766.8127	1438.5	552.45
1003.2514	2768.009	1427.75	540
1003.3717	2769.2045	1435.3	546.75
1003.492	2770.3994	1426.35	538.1
1003.6123	2771.5936	1429.5	541.5
1003.7325	2772.7872	1419.85	534.2
1003.8527	2773.9801	1415.8	528.8
1003.9729	2775.1723	1435.1	530.9
1004.093	2776.3639	1411.7	527
1004.2131	2777.5548	1423.05	534.75
1004.3331	2778.745	1425.15	538.3
1004.4531	2779.9346	1414.75	531.1
1004.5731	2781.1235	1419.55	532.7
1004.693	2782.3117	1423.75	537.6
1004.8129	2783.4992	1417.95	534.15
1004.9328	2784.6861	1417.1	529.95
1005.0526	2785.8723	1434.6	548.6
1005.1723	2787.0579	1433.95	544.8
1005.2921	2788.2428	1432.95	547.15
1005.4118	2789.427	1441.65	558.25
1005.5314	2790.6106	1440	554.5
1005.651	2791.7935	1457.1	572.55
1005.7706	2792.9757	1461.65	576.75
1005.8902	2794.1573	1474.2	584.5
1006.0097	2795.3382	1480.75	597.2
1006.1291	2796.5184	1487.3	601.45
1006.2485	2797.698	1491.3	603.45
1006.3679	2798.8769	1502.3	617.35
1006.4873	2800.0551	1519.05	633.25
1006.6066	2801.2327	1534.5	646.75
1006.7258	2802.4096	1541.65	656.5
1006.8451	2803.5859	1556.4	669.05
1006.9642	2804.7615	1577.1	690.6
1007.0834	2805.9364	1600	712.7
1007.2025	2807.1106	1617.85	734.15
1007.3216	2808.2842	1642.45	755.9
1007.4406	2809.4572	1664.15	779.5
1007.5596	2810.6294	1700.25	814.7
1007.6785	2811.801	1735.6	849.3
1007.7975	2812.972	1764.7	881.45
1007.9163	2814.1423	1800.1	914.15
1008.0352	2815.3119	1852.35	967.35
1008.154	2816.4808	1886.3	1002.6
1008.2727	2817.6491	1941.3	1053.95
1008.3914	2818.8167	1983.15	1096.6
1008.5101	2819.9837	2049.35	1160.95
1008.6288	2821.15	2094.75	1211
1008.7474	2822.3157	2135.7	1253.55
1008.8659	2823.4807	2190.6	1306.55
1008.9844	2824.645	2250.95	1365.05
1009.1029	2825.8086	2297.4	1412.2
1009.2214	2826.9716	2349.9	1467.05
1009.3398	2828.134	2404.5	1518.55
1009.4581	2829.2957	2445.9	1561.3
1009.5764	2830.4567	2474.75	1589.95
1009.6947	2831.617	2501	1617.35
1009.813	2832.7767	2521.9	1638.65
1009.9312	2833.9358	2517.55	1633.5
1010.0493	2835.0941	2498.4	1611.15
1010.1675	2836.2519	2508.65	1626
1010.2855	2837.4089	2474.45	1589.35
1010.4036	2838.5653	2458.65	1576.3
1010.5216	2839.7211	2446.15	1562.65
1010.6396	2840.8761	2451.25	1563.5
1010.7575	2842.0306	2463.45	1579.95
1010.8754	2843.1843	2493.35	1609.8
1010.9932	2844.3374	2511.15	1628
1011.111	2845.4899	2562.9	1679.2
1011.2288	2846.6417	2615.1	1731.7
1011.3465	2847.7928	2662.2	1777.05
1011.4642	2848.9433	2731.55	1848.15
1011.5818	2850.0931	2790.9	1907.35
1011.6995	2851.2422	2853.25	1968
1011.817	2852.3907	2915.05	2028.45
1011.9345	2853.5385	2970.25	2083.35
1012.052	2854.6857	3025.4	2130.95
1012.1695	2855.8323	3071.55	2187.15
1012.2869	2856.9781	3109.5	2225.2
1012.4042	2858.1233	3171.3	2288.8
1012.5216	2859.2679	3206.85	2324.6
1012.6389	2860.4118	3269.1	2385.65
1012.7561	2861.555	3316.45	2427.45
1012.8733	2862.6976	3351.35	2466.55
1012.9905	2863.8395	3385.25	2500.9
1013.1076	2864.9808	3412.1	2527.95
1013.2247	2866.1214	3433	2550.25
1013.3417	2867.2614	3454.25	2570.5
1013.4587	2868.4007	3463.15	2579.2
1013.5757	2869.5393	3470.45	2583.5
1013.6926	2870.6773	3480.05	2593.7
1013.8095	2871.8146	3483.25	2596.4
1013.9263	2872.9513	3510.3	2623.95
1014.0431	2874.0874	3490.4	2604.7
1014.1599	2875.2227	3478.35	2590.55
1014.2766	2876.3574	3472.85	2591.05
1014.3933	2877.4915	3448.55	2564.75
1014.51	2878.6249	3420.15	2534.8
1014.6266	2879.7577	3389.4	2505.9
1014.7431	2880.8898	3385.05	2491.95
1014.8596	2882.0212	3355.7	2472.35
1014.9761	2883.152	3355.45	2470.9
1015.0925	2884.2821	3333.8	2450.5
1015.2089	2885.4116	3329.45	2447.25
1015.3253	2886.5405	3323.2	2441.6
1015.4416	2887.6686	3351.15	2464.8
1015.5579	2888.7962	3332.95	2451.75
1015.6741	2889.923	3346.95	2464.65
1015.7903	2891.0493	3354.8	2474.35
1015.9065	2892.1748	3373	2490.55
1016.0226	2893.2997	3382.65	2497.55
1016.1387	2894.424	3387.95	2506.35
1016.2547	2895.5476	3402.5	2518.7
1016.3707	2896.6706	3436.4	2554.1
1016.4866	2897.7929	3451.15	2569.8
1016.6025	2898.9145	3475.25	2592.95
1016.7184	2900.0355	3501.15	2619.1
1016.8342	2901.1559	3527.75	2641.95
1016.95	2902.2756	3554.45	2666.85
1017.0658	2903.3946	3586.4	2704.25
1017.1815	2904.513	3631.8	2746.3
1017.2971	2905.6308	3652.45	2771.9
1017.4127	2906.7479	3660.05	2775.65
1017.5283	2907.8643	3694.35	2809.65
1017.6439	2908.9801	3696.75	2815.1
1017.7594	2910.0953	3716.45	2834.65
1017.8748	2911.2098	3701.95	2817.05
1017.9902	2912.3236	3697.7	2808.05
1018.1056	2913.4368	3705.6	2820.85
1018.2209	2914.5494	3680.1	2799.05
1018.3362	2915.6613	3643.5	2755.4
1018.4515	2916.7725	3622.75	2739.3
1018.5667	2917.8831	3580.5	2696.7
1018.6819	2918.9931	3558.65	2673.65
1018.797	2920.1024	3523.65	2640.55
1018.9121	2921.211	3509.5	2628.25
1019.0271	2922.319	3500.55	2618.5
1019.1421	2923.4264	3471.2	2588.7
1019.2571	2924.5331	3480.25	2599.3
1019.372	2925.6391	3465.5	2584.7
1019.4869	2926.7445	3461.8	2582.4
1019.6017	2927.8493	3458.75	2576.1
1019.7165	2928.9534	3466.6	2583.15
1019.8313	2930.0569	3468	2583.25
1019.946	2931.1597	3462.3	2578.2
1020.0606	2932.2619	3460.85	2576.9
1020.1753	2933.3634	3472.05	2589.55
1020.2899	2934.4643	3468.4	2579.85
1020.4044	2935.5645	3474.7	2588.2
1020.5189	2936.6641	3434.55	2549.15
1020.6334	2937.763	3407	2524.35
1020.7478	2938.8613	3372.9	2490.65
1020.8622	2939.959	3311.45	2424.7
1020.9765	2941.056	3256.35	2374.6
1021.0908	2942.1523	3178.75	2295.05
1021.2051	2943.248	3111.05	2229.25
1021.3193	2944.3431	3019.2	2139.1
1021.4334	2945.4375	2939.15	2058.25
1021.5476	2946.5313	2826	1945.4
1021.6617	2947.6244	2735.8	1853.6
1021.7757	2948.7169	2655	1772.1
1021.8897	2949.8087	2562.25	1681.55
1022.0037	2950.8999	2470.8	1589
1022.1176	2951.9904	2392.85	1514.1
1022.2315	2953.0803	2329.75	1447.6
1022.3453	2954.1696	2270.8	1389.3
1022.4591	2955.2582	2215.85	1333.4
1022.5728	2956.3462	2176.95	1294.9
1022.6865	2957.4335	2134.35	1252.7
1022.8002	2958.5202	2098.8	1216.45
1022.9138	2959.6062	2069	1187.25
1023.0274	2960.6916	2053.75	1173.15
1023.141	2961.7764	2023.25	1142.9
1023.2545	2962.8605	2011.05	1127.2
1023.3679	2963.9439	1994.7	1116
1023.4813	2965.0267	1991.9	1109.7
1023.5947	2966.1089	1996.9	1094.3
1023.708	2967.1905	1975.7	1096.9
1023.8213	2968.2714	1973.75	1093.35
1023.9346	2969.3516	1971.25	1090.8
1024.0478	2970.4312	1982.35	1092.15
1024.1609	2971.5102	1984.65	1103.45
1024.274	2972.5885	1981.5	1101.45
1024.3871	2973.6662	1989.3	1102.9
1024.5002	2974.7432	1981.45	1102.5
1024.6132	2975.8196	1972.4	1092.1
1024.7261	2976.8954	1976.8	1095.95
1024.839	2977.9705	1960.15	1077.65
1024.9519	2979.045	1948.3	1067.1
1025.0647	2980.1188	1937.4	1055.45
1025.1775	2981.192	1914.65	1033.55
1025.2902	2982.2645	1900.85	1020
1025.4029	2983.3364	1878.4	1000.05
1025.5156	2984.4077	1843.45	965
1025.6282	2985.4783	1830	943.7
1025.7407	2986.5483	1802.4	920.25
1025.8532	2987.6177	1760.2	881.3
1025.9657	2988.6864	1738.55	858.3
1026.0782	2989.7545	1707.65	825.55
1026.1906	2990.8219	1670.85	790.95
1026.3029	2991.8887	1639.55	756.05
1026.4152	2992.9548	1609.25	728.5
1026.5275	2994.0204	1580.25	700.2
1026.6397	2995.0852	1547.55	668.35
1026.7519	2996.1495	1530.9	648.35
1026.864	2997.2131	1504.95	622.85
1026.9761	2998.276	1483.75	605.45
1027.0882	2999.3383	1461.05	582.1
1027.2002	3000.4	1434.8	554.75
1027.3122	3001.4611	1420.6	540.35
1027.4241	3002.5215	1406.3	525.55
1027.536	3003.5812	1384.05	504.65
1027.6478	3004.6404	1381.25	500.4
1027.7596	3005.6989	1363.35	481.1
1027.8714	3006.7567	1353.25	472.3
1027.9831	3007.8139	1372.65	461.45
1028.0947	3008.8705	1332.1	452.45
1028.2064	3009.9264	1330.25	447.3
1028.3179	3010.9818	1317.75	436.45
1028.4295	3012.0364	1308.7	429.45
1028.541	3013.0905	1309.85	429.15
1028.6524	3014.1439	1304.2	422.25
1028.7638	3015.1966	1299.7	419.4
1028.8752	3016.2487	1297.8	417.05
1028.9865	3017.3002	1302.55	414.9
1029.0978	3018.3511	1294.3	417.85
1029.209	3019.4013	1281.4	401.55
1029.3202	3020.4509	1282.85	402.65
1029.4314	3021.4998	1288.6	407.75
1029.5425	3022.5481	1281.6	401.15
1029.6535	3023.5958	1285.2	404.9
1029.7645	3024.6428	1279.8	398.95
1029.8755	3025.6892	1282.15	403
1029.9864	3026.735	1279.7	400.3
1030.0973	3027.7802	1277.75	398.75
1030.2082	3028.8247	1274.3	394.55
1030.319	3029.8685	1280.95	399.6
1030.4297	3030.9118	1282.65	402.05
1030.5404	3031.9544	1277.9	399.9
1030.6511	3032.9963	1288.4	409.95
1030.7617	3034.0376	1283.3	405.05
1030.8723	3035.0783	1299.25	416.4
1030.9829	3036.1184	1290.5	410.2
1031.0934	3037.1578	1292.9	414.05
1031.2038	3038.1966	1296.9	416
1031.3142	3039.2348	1292.25	413.6
1031.4246	3040.2723	1310.55	423.95
1031.5349	3041.3092	1297.9	419.5
1031.6452	3042.3455	1300.1	418.65
1031.7554	3043.3811	1290.65	408.65
1031.8656	3044.4161	1289.95	409.7
1031.9758	3045.4505	1293.05	414.25
1032.0859	3046.4842	1285.4	406.4
1032.1959	3047.5173	1282.45	403.3
1032.3059	3048.5498	1281.5	402.65
1032.4159	3049.5816	1270.45	391.95
1032.5258	3050.6128	1271.9	392.8
1032.6357	3051.6434	1264.7	383.95
1032.7455	3052.6734	1271.4	390.55
1032.8553	3053.7027	1263.85	385.15
1032.9651	3054.7314	1255.65	376.5
1033.0748	3055.7594	1259.05	380.35
1033.1845	3056.7868	1246.9	365.45
1033.2941	3057.8136	1246.85	368.9
1033.4037	3058.8398	1241.7	361.15
1033.5132	3059.8653	1247.85	370.65
1033.6227	3060.8902	1243.45	365.4
1033.7321	3061.9145	1240.75	362
1033.8415	3062.9381	1241.75	362.25
1033.9509	3063.9612	1246.95	348.95
1034.0602	3064.9835	1227.8	348.7
1034.1694	3066.0053	1228.95	348.95
1034.2787	3067.0264	1221	340.45
1034.3878	3068.0469	1213.9	333.5
1034.497	3069.0668	1213.75	330.65
1034.6061	3070.086	1203.35	324.25
1034.7151	3071.1046	1199.15	320.6
1034.8241	3072.1226	1199.35	317.5
1034.9331	3073.1399	1183.95	305
1035.042	3074.1567	1185.95	305.5
1035.1508	3075.1727	1175.55	296.1
1035.2597	3076.1882	1172.45	295.25
1035.3684	3077.203	1164.55	283.3
1035.4772	3078.2173	1156.8	276.2
1035.5859	3079.2308	1149.1	267.45
1035.6945	3080.2438	1142.3	260.9
1035.8031	3081.2561	1135.95	255.9
1035.9117	3082.2678	1128.75	249.05
1036.0202	3083.2789	1120.35	240.9
1036.1286	3084.2893	1118.85	241.65
1036.2371	3085.2991	1116.1	236.15
1036.3454	3086.3083	1111.7	229.2
1036.4538	3087.3169	1107.55	225.1
1036.562	3088.3248	1102.45	221.35
1036.6703	3089.3321	1100.25	221.2
1036.7785	3090.3388	1090.95	211.75
1036.8866	3091.3449	1086.75	208.05
1036.9948	3092.3503	1087.45	206.9
1037.1028	3093.3551	1079	200.2
1037.2108	3094.3593	1077.45	201.5
1037.3188	3095.3629	1073.65	196.3
1037.4267	3096.3658	1076.35	196.25
1037.5346	3097.3681	1065.75	185.65
1037.6425	3098.3698	1067.15	186.75
1037.7503	3099.3708	1071.5	187.1
1037.858	3100.3713	1059.8	182.35
1037.9657	3101.3711	1064.05	183.7
1038.0734	3102.3702	1173.65	178.95
1038.181	3103.3688	1057.8	177.3
1038.2886	3104.3667	1050.85	172.35
1038.3961	3105.364	1050.75	171.55
1038.5036	3106.3607	1049.15	170.4
1038.611	3107.3568	1049.1	168.15
1038.7184	3108.3522	1042.3	163.25
1038.8257	3109.347	1047.75	167.65
1038.933	3110.3412	1048.05	163.5
1039.0403	3111.3348	1037.9	160.35
1039.1475	3112.3277	1041.3	163.45
1039.2547	3113.32	1037.55	160.3
1039.3618	3114.3117	1035.3	157
1039.4689	3115.3028	1033	152.4
1039.5759	3116.2932	1035.65	155.8
1039.6829	3117.2831	1036.45	149.8
1039.7898	3118.2723	1030.6	155.1
1039.8967	3119.2608	1027.05	149.45
1040.0035	3120.2488	1022.45	143.6
1040.1103	3121.2361	1024	144.8
1040.2171	3122.2229	1021.5	144.75
1040.3238	3123.209	1020.9	142
1040.4305	3124.1944	1017.7	140.65
1040.5371	3125.1793	1020.95	141.15
1040.6437	3126.1635	1019.15	142.25
1040.7502	3127.1471	1013	135.55
1040.8567	3128.1301	1010.5	132.5
1040.9631	3129.1125	1012.9	135.65
1041.0695	3130.0942	1010.5	132.85
1041.1759	3131.0753	1019.75	133.4
1041.2822	3132.0558	1015.8	135.05
1041.3884	3133.0357	1012	133.95
1041.4946	3134.015	1005.95	128.1
1041.6008	3134.9936	1005.65	126
1041.7069	3135.9716	1029.15	129.85
1041.813	3136.949	1001.2	123.85
1041.919	3137.9258	1025.55	127.8
1042.025	3138.902	1008.8	125.45
1042.1309	3139.8775	1000.75	123
1042.2368	3140.8524	1000.15	122.1
1042.3427	3141.8267	1000.85	122.15
1042.4485	3142.8004	1001.45	122.8
1042.5542	3143.7735	1004.2	122.1
1042.6599	3144.7459	997.55	118.15
1042.7656	3145.7178	995.5	115.65
1042.8712	3146.689	993.75	118.35
1042.9768	3147.6596	991.95	110.7
1043.0823	3148.6295	994.55	119.5
1043.1878	3149.5989	991.5	113.45
1043.2932	3150.5676	990.7	114
1043.3986	3151.5357	987	110.25
1043.5039	3152.5032	986.05	109.5
1043.6092	3153.4701	987.55	109.75
1043.7145	3154.4364	988.15	108.35
1043.8197	3155.402	983.9	108.05
1043.9248	3156.367	984.65	103.95
1044.03	3157.3315	1019.75	106.3
1044.135	3158.2952	982.35	104.95
1044.24	3159.2584	984.8	108.75
1044.345	3160.221	985.05	104.4
1044.4499	3161.1829	982.4	104.6
1044.5548	3162.1442	978.1	100.2
1044.6596	3163.105	981.4	104.4
1044.7644	3164.065	978.65	99.75
1044.8692	3165.0245	980.7	101.35
1044.9739	3165.9834	976.15	100.3
1045.0785	3166.9416	977.2	100.4
1045.1831	3167.8993	973.3	96.8
1045.2877	3168.8563	974.25	96.85
1045.3922	3169.8127	974.1	98.05
1045.4966	3170.7684	972.75	95.35
1045.6011	3171.7236	976.4	98.15
1045.7054	3172.6782	970.35	90.8
1045.8098	3173.6321	976.85	99.65
1045.914	3174.5854	976.8	96
1046.0183	3175.5381	969.55	94.6
1046.1224	3176.4902	970.3	93.2
1046.2266	3177.4417	968.4	91.25
1046.3307	3178.3926	971.1	94.7
1046.4347	3179.3428	966.9	91.9
1046.5387	3180.2924	968.6	93.25
1046.6427	3181.2415	967.5	90.8
1046.7466	3182.1899	970.5	92.3
1046.8504	3183.1377	967.6	90.65
1046.9542	3184.0848	967.9	86.3
1047.058	3185.0314	966.45	88.6
1047.1617	3185.9773	964.15	85.35
1047.2654	3186.9227	964.95	87.3
1047.369	3187.8674	961.6	85.75
1047.4726	3188.8115	965.55	82.05
1047.5761	3189.755	964.85	88.05
1047.6796	3190.6979	964	85.9
1047.783	3191.6402	959.4	82.55
1047.8864	3192.5818	959.7	82.35
1047.9898	3193.5229	964.45	79.35
1048.0931	3194.4633	963.45	88.05
1048.1963	3195.4031	961.15	83.75
1048.2995	3196.3423	959.95	82.55
1048.4027	3197.2809	958.05	81.15
1048.5058	3198.2189	960.35	84.3
1048.6089	3199.1563	964.85	80.85
1048.7119	3200.0931	956.85	81.35
1048.8148	3201.0292	956.55	78.9
1048.9178	3201.9648	956.15	77.55
1049.0206	3202.8997	954.4	74.3
1049.1235	3203.834	956.95	80.15
1049.2262	3204.7677	952.95	77.65
1049.329	3205.7008	953.75	74.9
1049.4317	3206.6333	948.8	73.6
1049.5343	3207.5652	958.9	79.65
1049.6369	3208.4964	953.15	75
1049.7394	3209.4271	953.3	76.65
1049.8419	3210.3571	950.9	74.1
1049.9444	3211.2865	950.95	72.45
1050.0468	3212.2154	953.5	76.55
1050.1491	3213.1436	952.2	72.75
1050.2514	3214.0712	958.3	75.3
1050.3537	3214.9982	947	70.5
1050.4559	3215.9246	951.05	73.7
1050.5581	3216.8503	948.65	70.8
1050.6602	3217.7755	948.55	71.3
1050.7623	3218.7001	949.55	73.9
1050.8643	3219.624	947.7	70.1
1050.9663	3220.5473	944.5	68.65
1051.0682	3221.4701	947.45	71.15
1051.1701	3222.3922	949.05	70.15
1051.2719	3223.3137	944.1	68.85
1051.3737	3224.2346	947.9	72.55
1051.4754	3225.1549	942.85	66.8
1051.5771	3226.0746	943.4	66.8
1051.6788	3226.9937	944.85	65.45
1051.7804	3227.9121	942.9	67.15
1051.8819	3228.83	944.55	69.1
1051.9834	3229.7473	943.6	65.25
1052.0849	3230.6639	944	67.85
1052.1863	3231.5799	941.95	65.9
1052.2876	3232.4954	946.15	69.75
1052.3889	3233.4102	940.45	64.8
1052.4902	3234.3244	942.1	64.65
1052.5914	3235.238	937.3	61.6
1052.6926	3236.151	962.2	61.25
1052.7937	3237.0634	938.5	63.35
1052.8948	3237.9752	939.2	63.3
1052.9958	3238.8864	940.9	63.15
1053.0968	3239.797	938.75	60.9
1053.1977	3240.7069	937.05	58.65
1053.2986	3241.6163	938	59.6
1053.3994	3242.5251	938.75	65.35
1053.5002	3243.4332	934.35	58.55
1053.6009	3244.3408	937.35	62.1
1053.7016	3245.2477	936.3	60.45
1053.8022	3246.154	936.05	57.65
1053.9028	3247.0598	934.25	57.85
1054.0034	3247.9649	935	60.05
1054.1039	3248.8694	937.2	62.05
1054.2043	3249.7733	930.95	55.05
1054.3047	3250.6766	930.2	53.45
1054.4051	3251.5793	933.4	54.6
1054.5054	3252.4814	931.75	55.35
1054.6056	3253.3829	932.8	57.05
1054.7058	3254.2838	929.35	53.35
1054.806	3255.1841	932	56.65
1054.9061	3256.0838	926.55	51.05
1055.0061	3256.9829	925.75	50.95
1055.1062	3257.8814	932.6	52.95
1055.2061	3258.7792	929.6	52.15
1055.306	3259.6765	927	50.15
1055.4059	3260.5731	927.25	51.7
1055.5057	3261.4692	929.25	54.25
1055.6055	3262.3647	926.55	49.8
1055.7052	3263.2595	921.6	45.35
1055.8049	3264.1538	922.7	49.3
1055.9045	3265.0474	924.35	47.6
1056.0041	3265.9404	921.6	45.3
1056.1036	3266.8329	919	43.05
1056.2031	3267.7247	931.2	45.05
1056.3025	3268.616	915.75	42.05
1056.4019	3269.5066	917.25	42.3
1056.5013	3270.3966	921.75	43.3
1056.6005	3271.286	912.6	38.55
